Unix_Time_s,EMG_t_s,sample_idx,fs,gain,flags,emg_valid,ch1_raw_uV,ch1_filt_uV,ch1_env_uV,ch2_raw_uV,ch2_filt_uV,ch2_env_uV
1782117189.598160,0.000000,1636480,1000,12,0,1,1521.037,-2.227,13.710,524.083,-0.853,3.600
1782117189.599160,0.001000,1636481,1000,12,0,1,1521.902,-3.300,13.546,525.644,0.520,3.554
1782117189.600160,0.002000,1636482,1000,12,0,1,1522.766,-3.822,13.448,525.380,0.914,3.503
1782117189.601160,0.003000,1636483,1000,12,0,1,1523.319,-5.077,13.432,522.546,-1.708,3.480
1782117189.602160,0.004000,1636484,1000,12,0,1,1521.517,-7.328,13.468,522.474,-1.890,3.489
1782117189.603160,0.005000,1636485,1000,12,0,1,1521.541,-8.490,13.477,526.077,1.590,3.421
1782117189.604160,0.006000,1636486,1000,12,0,1,1528.820,-2.249,13.361,525.308,1.685,3.320
1782117189.605160,0.007000,1636487,1000,12,0,1,1537.203,5.676,13.313,525.068,0.353,3.270
1782117189.606160,0.008000,1636488,1000,12,0,1,1535.065,4.385,13.253,525.500,1.168,3.258
1782117189.607160,0.009000,1636489,1000,12,0,1,1531.870,0.305,13.244,525.452,0.650,3.259
1782117189.608160,0.010000,1636490,1000,12,0,1,1530.309,0.464,13.232,524.491,-0.123,3.205
1782117189.609160,0.011000,1636491,1000,12,0,1,1526.778,-1.076,13.225,525.596,0.299,3.200
1782117189.610160,0.012000,1636492,1000,12,0,1,1524.448,-1.370,13.150,521.657,-2.142,3.210
1782117189.611160,0.013000,1636493,1000,12,0,1,1522.959,-0.165,12.740,523.747,-1.905,3.175
1782117189.612160,0.014000,1636494,1000,12,0,1,1518.347,-1.849,12.736,527.374,2.896,3.201
1782117189.613160,0.015000,1636495,1000,12,0,1,1508.618,-7.904,12.711,530.208,4.364,3.254
1782117189.614160,0.016000,1636496,1000,12,0,1,1500.019,-13.569,12.854,532.803,6.276,3.371
1782117189.615160,0.017000,1636497,1000,12,0,1,1493.149,-16.089,12.856,536.502,8.104,3.506
1782117189.616160,0.018000,1636498,1000,12,0,1,1480.538,-23.161,12.914,541.378,10.853,3.682
1782117189.617160,0.019000,1636499,1000,12,0,1,1470.377,-29.132,13.387,546.614,13.504,3.917
1782117189.618160,0.020000,1636500,1000,12,0,1,1489.282,-11.080,13.478,538.760,5.728,3.896
1782117189.619160,0.021000,1636501,1000,12,0,1,1498.049,3.932,13.314,528.815,-6.129,3.991
1782117189.620160,0.022000,1636502,1000,12,0,1,1512.846,11.164,13.216,522.738,-10.926,4.205
1782117189.621160,0.023000,1636503,1000,12,0,1,1549.525,41.273,14.446,514.187,-16.601,4.735
1782117189.622160,0.024000,1636504,1000,12,0,1,1562.569,49.512,15.975,513.634,-16.203,5.248
1782117189.623160,0.025000,1636505,1000,12,0,1,1548.565,27.092,16.378,516.949,-9.347,5.402
1782117189.624160,0.026000,1636506,1000,12,0,1,1524.040,-0.439,16.377,520.720,-4.759,5.444
1782117189.625160,0.027000,1636507,1000,12,0,1,1512.942,-15.178,16.516,524.563,0.338,5.422
1782117189.626160,0.028000,1636508,1000,12,0,1,1520.605,-6.443,16.337,522.594,-0.634,5.364
1782117189.627160,0.029000,1636509,1000,12,0,1,1528.099,2.886,15.924,523.434,-0.779,5.350
1782117189.628160,0.030000,1636510,1000,12,0,1,1518.443,-2.446,15.591,526.653,2.743,5.355
1782117189.629160,0.031000,1636511,1000,12,0,1,1514.287,-6.725,15.019,526.365,2.267,5.362
1782117189.630160,0.032000,1636512,1000,12,0,1,1514.912,-1.277,14.273,523.987,-0.314,5.285
1782117189.631160,0.033000,1636513,1000,12,0,1,1521.373,5.598,14.203,524.996,-0.135,5.241
1782117189.632160,0.034000,1636514,1000,12,0,1,1534.705,19.145,14.269,522.209,-1.529,5.241
1782117189.633160,0.035000,1636515,1000,12,0,1,1543.953,26.989,14.301,516.901,-6.504,5.269
1782117189.634160,0.036000,1636516,1000,12,0,1,1523.343,8.901,13.856,514.499,-7.652,5.350
1782117189.635160,0.037000,1636517,1000,12,0,1,1491.948,-22.614,14.079,525.716,2.077,5.350
1782117189.636160,0.038000,1636518,1000,12,0,1,1492.861,-23.335,14.460,531.553,10.098,5.536
1782117189.637160,0.039000,1636519,1000,12,0,1,1514.383,-0.209,14.460,527.878,5.238,5.583
1782117189.638160,0.040000,1636520,1000,12,0,1,1515.680,2.929,14.373,528.143,4.178,5.606
1782117189.639160,0.041000,1636521,1000,12,0,1,1500.860,-12.846,14.316,530.352,6.198,5.674
1782117189.640160,0.042000,1636522,1000,12,0,1,1510.276,-9.127,14.291,528.791,4.320,5.707
1782117189.641160,0.043000,1636523,1000,12,0,1,1550.799,25.073,14.696,520.744,-2.514,5.712
1782117189.642160,0.044000,1636524,1000,12,0,1,1577.462,46.488,16.089,513.562,-9.330,5.861
1782117189.643160,0.045000,1636525,1000,12,0,1,1574.171,34.795,16.820,514.475,-7.247,5.950
1782117189.644160,0.046000,1636526,1000,12,0,1,1563.986,15.905,16.970,518.438,-1.974,5.956
1782117189.645160,0.047000,1636527,1000,12,0,1,1551.471,0.212,16.970,521.513,1.665,5.955
1782117189.646160,0.048000,1636528,1000,12,0,1,1534.032,-17.168,17.140,526.653,5.770,6.011
1782117189.647160,0.049000,1636529,1000,12,0,1,1507.201,-37.639,17.947,535.517,12.573,6.267
1782117189.648160,0.050000,1636530,1000,12,0,1,1485.751,-52.009,19.393,538.255,14.000,6.571
1782117189.649160,0.051000,1636531,1000,12,0,1,1485.342,-43.510,20.340,536.045,8.914,6.691
1782117189.650160,0.052000,1636532,1000,12,0,1,1497.593,-22.144,20.573,529.560,1.633,6.693
1782117189.651160,0.053000,1636533,1000,12,0,1,1515.632,0.912,20.561,523.507,-5.529,6.734
1782117189.652160,0.054000,1636534,1000,12,0,1,1533.119,20.650,20.741,523.194,-5.991,6.782
1782117189.653160,0.055000,1636535,1000,12,0,1,1543.881,30.058,21.138,517.525,-9.021,6.898
1782117189.654160,0.056000,1636536,1000,12,0,1,1540.902,25.454,21.440,518.750,-8.926,7.008
1782117189.655160,0.057000,1636537,1000,12,0,1,1552.840,27.907,21.786,520.456,-4.034,7.031
1782117189.656160,0.058000,1636538,1000,12,0,1,1567.757,38.227,22.438,523.651,-1.721,7.033
1782117189.657160,0.059000,1636539,1000,12,0,1,1564.875,28.083,22.787,528.191,3.772,7.053
1782117189.658160,0.060000,1636540,1000,12,0,1,1555.074,10.869,22.838,528.767,4.220,7.078
1782117189.659160,0.061000,1636541,1000,12,0,1,1541.503,-6.437,22.856,528.575,3.331,7.094
1782117189.660160,0.062000,1636542,1000,12,0,1,1536.554,-16.189,22.969,530.112,4.318,7.113
1782117189.661160,0.063000,1636543,1000,12,0,1,1535.666,-16.807,23.092,528.839,2.978,7.121
1782117189.662160,0.064000,1636544,1000,12,0,1,1534.416,-18.953,23.246,529.896,2.749,7.120
1782117189.663160,0.065000,1636545,1000,12,0,1,1535.714,-16.866,23.341,531.626,4.135,7.117
1782117189.664160,0.066000,1636546,1000,12,0,1,1543.544,-9.534,23.301,527.182,0.121,7.061
1782117189.665160,0.067000,1636547,1000,12,0,1,1547.268,-3.675,23.195,524.708,-3.543,6.986
1782117189.666160,0.068000,1636548,1000,12,0,1,1546.307,-4.177,22.971,527.158,-0.961,6.816
1782117189.667160,0.069000,1636549,1000,12,0,1,1546.523,-2.714,22.601,523.122,-3.577,6.563
1782117189.668160,0.070000,1636550,1000,12,0,1,1547.868,0.215,22.547,521.921,-5.782,6.564
1782117189.669160,0.071000,1636551,1000,12,0,1,1543.592,-1.190,22.541,522.113,-4.037,6.531
1782117189.670160,0.072000,1636552,1000,12,0,1,1536.434,-5.878,22.501,524.708,-2.159,6.353
1782117189.671160,0.073000,1636553,1000,12,0,1,1534.296,-5.912,21.747,524.251,-1.142,5.906
1782117189.672160,0.074000,1636554,1000,12,0,1,1534.585,-2.704,20.592,523.026,-2.886,5.459
1782117189.673160,0.075000,1636555,1000,12,0,1,1537.996,1.262,20.233,523.723,-1.745,5.302
1782117189.674160,0.076000,1636556,1000,12,0,1,1545.154,8.142,20.266,524.083,-0.971,5.261
1782117189.675160,0.077000,1636557,1000,12,0,1,1547.532,9.661,20.198,525.596,0.257,5.261
1782117189.676160,0.078000,1636558,1000,12,0,1,1543.905,4.097,20.186,526.629,1.758,5.266
1782117189.677160,0.079000,1636559,1000,12,0,1,1534.537,-6.051,20.200,526.797,1.536,5.269
1782117189.678160,0.080000,1636560,1000,12,0,1,1533.215,-10.282,20.249,529.968,4.015,5.285
1782117189.679160,0.081000,1636561,1000,12,0,1,1542.391,-2.779,20.231,528.191,3.034,5.293
1782117189.680160,0.082000,1636562,1000,12,0,1,1543.881,-1.490,20.231,526.965,0.599,5.294
1782117189.681160,0.083000,1636563,1000,12,0,1,1539.749,-7.636,20.244,526.845,1.032,5.295
1782117189.682160,0.084000,1636564,1000,12,0,1,1539.509,-8.837,20.101,526.869,0.706,5.292
1782117189.683160,0.085000,1636565,1000,12,0,1,1538.020,-9.419,19.781,526.317,0.475,5.212
1782117189.684160,0.086000,1636566,1000,12,0,1,1539.461,-8.078,19.773,527.470,1.068,5.101
1782117189.685160,0.087000,1636567,1000,12,0,1,1538.500,-6.276,19.533,527.902,1.699,5.098
1782117189.686160,0.088000,1636568,1000,12,0,1,1539.149,-4.888,19.265,526.893,0.434,4.894
1782117189.687160,0.089000,1636569,1000,12,0,1,1537.996,-2.470,19.268,525.452,-1.084,4.840
1782117189.688160,0.090000,1636570,1000,12,0,1,1538.644,-0.524,19.264,526.941,-0.193,4.804
1782117189.689160,0.091000,1636571,1000,12,0,1,1543.160,6.035,19.197,529.127,1.817,4.730
1782117189.690160,0.092000,1636572,1000,12,0,1,1546.187,10.526,19.211,528.527,1.089,4.693
1782117189.691160,0.093000,1636573,1000,12,0,1,1541.479,7.616,18.912,526.485,-1.353,4.684
1782117189.692160,0.094000,1636574,1000,12,0,1,1536.795,3.157,17.738,525.813,-2.171,4.504
1782117189.693160,0.095000,1636575,1000,12,0,1,1534.128,1.656,17.043,524.900,-2.711,4.403
1782117189.694160,0.096000,1636576,1000,12,0,1,1534.657,2.142,16.897,525.524,-2.205,4.405
1782117189.695160,0.097000,1636577,1000,12,0,1,1534.921,2.632,16.901,525.356,-1.648,4.405
1782117189.696160,0.098000,1636578,1000,12,0,1,1531.174,-1.141,16.727,528.455,0.572,4.330
1782117189.697160,0.099000,1636579,1000,12,0,1,1528.387,-5.077,15.873,526.869,0.551,3.948
1782117189.698160,0.100000,1636580,1000,12,0,1,1524.976,-8.008,14.112,527.326,-0.501,3.417
1782117189.699160,0.101000,1636581,1000,12,0,1,1519.043,-13.623,12.845,524.780,-1.058,3.179
1782117189.700160,0.102000,1636582,1000,12,0,1,1510.876,-19.775,12.767,531.601,2.736,3.194
1782117189.701160,0.103000,1636583,1000,12,0,1,1497.184,-29.326,13.423,539.528,11.380,3.490
1782117189.702160,0.104000,1636584,1000,12,0,1,1468.672,-48.623,14.797,552.788,19.359,4.354
1782117189.703160,0.105000,1636585,1000,12,0,1,1441.264,-66.519,17.011,561.003,25.469,5.505
1782117189.704160,0.106000,1636586,1000,12,0,1,1451.641,-49.181,18.022,557.232,17.601,5.908
1782117189.705160,0.107000,1636587,1000,12,0,1,1508.258,9.919,17.640,540.249,-0.266,5.881
1782117189.706160,0.108000,1636588,1000,12,0,1,1544.025,51.227,18.288,528.479,-13.898,6.196
1782117189.707160,0.109000,1636589,1000,12,0,1,1544.433,47.057,19.051,526.941,-14.223,6.492
1782117189.708160,0.110000,1636590,1000,12,0,1,1529.660,29.894,19.454,530.881,-9.084,6.591
1782117189.709160,0.111000,1636591,1000,12,0,1,1530.429,24.258,19.733,530.497,-7.435,6.658
1782117189.710160,0.112000,1636592,1000,12,0,1,1550.847,40.401,20.416,522.402,-13.029,6.881
1782117189.711160,0.113000,1636593,1000,12,0,1,1569.943,54.070,21.671,517.021,-17.228,7.288
1782117189.712160,0.114000,1636594,1000,12,0,1,1570.544,48.885,22.588,514.307,-16.189,7.629
1782117189.713160,0.115000,1636595,1000,12,0,1,1573.138,41.314,23.210,513.250,-15.024,7.898
1782117189.714160,0.116000,1636596,1000,12,0,1,1575.852,37.643,23.774,512.217,-12.515,8.093
1782117189.715160,0.117000,1636597,1000,12,0,1,1568.886,24.604,24.022,514.787,-8.714,8.171
1782117189.716160,0.118000,1636598,1000,12,0,1,1562.184,11.430,24.069,517.477,-3.540,8.186
1782117189.717160,0.119000,1636599,1000,12,0,1,1553.177,0.188,24.066,517.333,-2.588,8.178
1782117189.718160,0.120000,1636600,1000,12,0,1,1547.316,-9.530,24.103,518.798,-0.674,8.138
1782117189.719160,0.121000,1636601,1000,12,0,1,1551.831,-7.298,24.125,519.543,1.125,8.119
1782117189.720160,0.122000,1636602,1000,12,0,1,1555.915,-4.796,24.120,521.080,2.354,8.120
1782117189.721160,0.123000,1636603,1000,12,0,1,1556.203,-6.691,24.124,522.642,4.399,8.142
1782117189.722160,0.124000,1636604,1000,12,0,1,1553.513,-10.864,24.170,524.443,5.560,8.170
1782117189.723160,0.125000,1636605,1000,12,0,1,1549.742,-15.606,24.270,523.555,5.204,8.199
1782117189.724160,0.126000,1636606,1000,12,0,1,1549.165,-16.774,24.358,524.804,5.218,8.231
1782117189.725160,0.127000,1636607,1000,12,0,1,1549.814,-15.485,24.418,527.206,7.692,8.303
1782117189.726160,0.128000,1636608,1000,12,0,1,1547.147,-16.712,24.526,526.437,6.673,8.353
1782117189.727160,0.129000,1636609,1000,12,0,1,1546.018,-16.905,24.627,525.572,5.137,8.381
1782117189.728160,0.130000,1636610,1000,12,0,1,1544.673,-15.553,24.682,525.356,4.829,8.390
1782117189.729160,0.131000,1636611,1000,12,0,1,1540.374,-16.972,24.796,524.684,3.904,8.397
1782117189.730160,0.132000,1636612,1000,12,0,1,1540.542,-14.722,24.882,527.038,5.355,8.431
1782117189.731160,0.133000,1636613,1000,12,0,1,1541.647,-10.046,24.899,526.533,5.192,8.462
1782117189.732160,0.134000,1636614,1000,12,0,1,1541.791,-7.668,24.891,526.437,3.653,8.477
1782117189.733160,0.135000,1636615,1000,12,0,1,1542.271,-4.898,24.865,528.671,5.142,8.508
1782117189.734160,0.136000,1636616,1000,12,0,1,1540.782,-4.219,24.846,527.446,3.589,8.521
1782117189.735160,0.137000,1636617,1000,12,0,1,1541.310,-2.849,24.834,528.455,2.607,8.526
1782117189.736160,0.138000,1636618,1000,12,0,1,1542.319,-0.425,24.824,526.797,1.398,8.528
1782117189.737160,0.139000,1636619,1000,12,0,1,1541.286,-0.860,24.822,526.053,-1.164,8.528
1782117189.738160,0.140000,1636620,1000,12,0,1,1542.535,0.039,24.822,529.488,1.599,8.531
1782117189.739160,0.141000,1636621,1000,12,0,1,1541.767,-0.061,24.807,529.007,1.050,8.529
1782117189.740160,0.142000,1636622,1000,12,0,1,1538.884,-3.216,24.767,530.088,0.321,8.527
1782117189.741160,0.143000,1636623,1000,12,0,1,1537.179,-4.768,24.752,531.481,1.665,8.528
1782117189.742160,0.144000,1636624,1000,12,0,1,1534.585,-6.495,24.765,529.175,-1.046,8.524
1782117189.743160,0.145000,1636625,1000,12,0,1,1534.873,-6.203,24.780,528.455,-2.346,8.522
1782117189.744160,0.146000,1636626,1000,12,0,1,1538.236,-2.219,24.780,530.232,-0.657,8.517
1782117189.745160,0.147000,1636627,1000,12,0,1,1545.754,4.286,24.785,529.872,-0.542,8.514
1782117189.746160,0.148000,1636628,1000,12,0,1,1552.960,10.893,24.832,527.014,-2.980,8.524
1782117189.747160,0.149000,1636629,1000,12,0,1,1547.556,6.214,24.837,528.118,-2.213,8.529
1782117189.748160,0.150000,1636630,1000,12,0,1,1539.028,-3.089,24.815,526.341,-2.156,8.535
1782117189.749160,0.151000,1636631,1000,12,0,1,1538.716,-2.933,24.744,527.806,-1.741,8.537
1782117189.750160,0.152000,1636632,1000,12,0,1,1536.843,-2.166,24.587,527.398,-0.260,8.528
1782117189.751160,0.153000,1636633,1000,12,0,1,1533.720,-3.946,24.241,525.620,-2.466,8.382
1782117189.752160,0.154000,1636634,1000,12,0,1,1533.432,-2.324,23.248,522.882,-3.878,7.941
1782117189.753160,0.155000,1636635,1000,12,0,1,1537.899,2.811,21.263,523.002,-3.971,7.100
1782117189.754160,0.156000,1636636,1000,12,0,1,1538.788,5.564,20.109,523.627,-2.309,6.657
1782117189.755160,0.157000,1636637,1000,12,0,1,1537.515,3.994,20.068,522.161,-3.215,6.673
1782117189.756160,0.158000,1636638,1000,12,0,1,1540.229,6.056,18.734,521.825,-3.555,6.396
1782117189.757160,0.159000,1636639,1000,12,0,1,1541.791,7.433,17.544,521.441,-3.051,6.087
1782117189.758160,0.160000,1636640,1000,12,0,1,1541.431,5.660,17.046,519.543,-4.515,5.984
1782117189.759160,0.161000,1636641,1000,12,0,1,1531.894,-2.515,16.701,520.144,-3.648,5.914
1782117189.760160,0.162000,1636642,1000,12,0,1,1524.256,-11.256,15.773,522.474,-0.986,5.621
1782117189.761160,0.163000,1636643,1000,12,0,1,1535.762,-1.519,13.798,523.386,0.397,5.066
1782117189.762160,0.164000,1636644,1000,12,0,1,1554.210,15.548,12.141,523.915,0.730,4.520
1782117189.763160,0.165000,1636645,1000,12,0,1,1555.891,16.292,10.890,526.245,2.772,4.009
1782117189.764160,0.166000,1636646,1000,12,0,1,1542.728,1.267,9.501,526.077,3.007,3.622
1782117189.765160,0.167000,1636647,1000,12,0,1,1536.074,-7.549,8.906,522.546,-0.209,3.406
1782117189.766160,0.168000,1636648,1000,12,0,1,1535.521,-6.894,8.812,520.000,-2.369,3.386
1782117189.767160,0.169000,1636649,1000,12,0,1,1525.889,-13.075,9.004,526.125,2.869,3.390
1782117189.768160,0.170000,1636650,1000,12,0,1,1513.567,-22.292,9.444,531.121,8.704,3.606
1782117189.769160,0.171000,1636651,1000,12,0,1,1506.144,-24.652,10.014,532.490,8.693,3.806
1782117189.770160,0.172000,1636652,1000,12,0,1,1495.431,-27.682,10.730,536.093,10.479,4.071
1782117189.771160,0.173000,1636653,1000,12,0,1,1503.670,-17.564,10.974,532.442,7.084,4.146
1782117189.772160,0.174000,1636654,1000,12,0,1,1532.351,13.336,11.028,525.044,-1.521,4.076
1782117189.773160,0.175000,1636655,1000,12,0,1,1547.075,29.547,11.585,520.624,-5.499,4.084
1782117189.774160,0.176000,1636656,1000,12,0,1,1542.463,22.717,11.786,523.218,-3.464,4.047
1782117189.775160,0.177000,1636657,1000,12,0,1,1530.837,9.533,11.658,529.488,2.871,3.919
1782117189.776160,0.178000,1636658,1000,12,0,1,1545.706,16.762,11.660,529.344,3.023,3.827
1782117189.777160,0.179000,1636659,1000,12,0,1,1567.541,36.494,12.525,519.879,-5.722,3.844
1782117189.778160,0.180000,1636660,1000,12,0,1,1567.733,31.785,13.124,513.994,-11.770,4.133
1782117189.779160,0.181000,1636661,1000,12,0,1,1560.047,17.708,13.144,516.589,-8.251,4.259
1782117189.780160,0.182000,1636662,1000,12,0,1,1556.900,9.789,13.051,517.141,-5.583,4.265
1782117189.781160,0.183000,1636663,1000,12,0,1,1552.360,2.807,12.980,518.510,-4.300,4.245
1782117189.782160,0.184000,1636664,1000,12,0,1,1550.054,-2.124,12.938,519.303,-2.036,4.223
1782117189.783160,0.185000,1636665,1000,12,0,1,1544.529,-7.182,12.959,519.495,-1.830,4.168
1782117189.784160,0.186000,1636666,1000,12,0,1,1533.504,-16.880,13.164,523.651,2.058,4.147
1782117189.785160,0.187000,1636667,1000,12,0,1,1530.645,-19.118,13.432,520.552,0.855,4.133
1782117189.786160,0.188000,1636668,1000,12,0,1,1538.740,-9.305,13.497,524.708,2.196,4.140
1782117189.787160,0.189000,1636669,1000,12,0,1,1538.476,-6.048,13.523,531.169,9.659,4.356
1782117189.788160,0.190000,1636670,1000,12,0,1,1527.186,-14.621,13.680,536.286,12.146,4.677
1782117189.789160,0.191000,1636671,1000,12,0,1,1521.229,-18.634,13.932,536.478,11.826,4.965
1782117189.790160,0.192000,1636672,1000,12,0,1,1523.415,-13.165,14.048,534.892,7.820,5.086
1782117189.791160,0.193000,1636673,1000,12,0,1,1520.581,-11.614,14.128,532.298,4.579,5.122
1782117189.792160,0.194000,1636674,1000,12,0,1,1523.559,-8.127,14.145,527.590,-0.415,5.120
1782117189.793160,0.195000,1636675,1000,12,0,1,1519.860,-6.772,14.150,529.800,0.072,5.109
1782117189.794160,0.196000,1636676,1000,12,0,1,1501.244,-21.203,14.461,534.556,5.045,5.158
1782117189.795160,0.197000,1636677,1000,12,0,1,1497.641,-23.607,14.829,532.010,2.283,5.168
1782117189.796160,0.198000,1636678,1000,12,0,1,1507.946,-9.039,14.804,528.887,-1.767,5.156
1782117189.797160,0.199000,1636679,1000,12,0,1,1535.594,15.282,14.935,520.888,-8.004,5.270
1782117189.798160,0.200000,1636680,1000,12,0,1,1572.081,47.308,16.359,510.872,-16.670,5.765
1782117189.799160,0.201000,1636681,1000,12,0,1,1572.561,45.433,17.571,512.961,-14.020,6.092
1782117189.800160,0.202000,1636682,1000,12,0,1,1566.965,28.121,18.013,517.429,-6.592,6.162
1782117189.801160,0.203000,1636683,1000,12,0,1,1569.319,25.600,18.364,519.063,-4.344,6.183
1782117189.802160,0.204000,1636684,1000,12,0,1,1565.860,17.196,18.522,521.273,-1.580,6.163
1782117189.803160,0.205000,1636685,1000,12,0,1,1556.443,5.214,18.532,525.548,2.121,6.144
1782117189.804160,0.206000,1636686,1000,12,0,1,1550.078,-3.233,18.521,525.885,2.942,6.150
1782117189.805160,0.207000,1636687,1000,12,0,1,1558.797,2.605,18.516,521.321,-1.634,6.137
1782117189.806160,0.208000,1636688,1000,12,0,1,1561.968,7.589,18.527,518.967,-4.107,6.144
1782117189.807160,0.209000,1636689,1000,12,0,1,1556.588,0.559,18.498,521.753,-1.135,6.131
1782117189.808160,0.210000,1636690,1000,12,0,1,1551.880,-3.673,18.488,521.681,0.101,6.098
1782117189.809160,0.211000,1636691,1000,12,0,1,1548.228,-6.836,18.510,521.465,-0.304,6.076
1782117189.810160,0.212000,1636692,1000,12,0,1,1551.687,-3.770,18.449,522.305,1.204,6.077
1782117189.811160,0.213000,1636693,1000,12,0,1,1561.680,5.329,18.463,520.288,0.139,6.077
1782117189.812160,0.214000,1636694,1000,12,0,1,1558.725,3.529,18.338,519.783,-0.386,6.076
1782117189.813160,0.215000,1636695,1000,12,0,1,1550.126,-6.973,18.220,521.369,1.909,6.069
1782117189.814160,0.216000,1636696,1000,12,0,1,1547.892,-9.787,18.271,520.504,1.730,6.060
1782117189.815160,0.217000,1636697,1000,12,0,1,1548.925,-8.808,18.283,522.281,2.851,6.073
1782117189.816160,0.218000,1636698,1000,12,0,1,1550.126,-7.988,18.291,523.531,4.575,6.098
1782117189.817160,0.219000,1636699,1000,12,0,1,1547.147,-10.262,18.256,521.825,2.577,6.095
1782117189.818160,0.220000,1636700,1000,12,0,1,1547.171,-11.452,18.054,522.113,2.068,5.977
1782117189.819160,0.221000,1636701,1000,12,0,1,1547.796,-9.611,17.766,523.795,3.380,5.869
1782117189.820160,0.222000,1636702,1000,12,0,1,1547.556,-9.908,17.386,523.963,2.977,5.694
1782117189.821160,0.223000,1636703,1000,12,0,1,1548.276,-8.351,17.248,523.242,1.599,5.610
1782117189.822160,0.224000,1636704,1000,12,0,1,1548.276,-7.325,17.176,523.242,0.826,5.607
1782117189.823160,0.225000,1636705,1000,12,0,1,1549.453,-5.414,16.678,523.483,0.643,5.553
1782117189.824160,0.226000,1636706,1000,12,0,1,1547.724,-4.894,16.380,523.795,0.381,5.532
1782117189.825160,0.227000,1636707,1000,12,0,1,1548.060,-4.044,16.334,524.924,0.940,5.519
1782117189.826160,0.228000,1636708,1000,12,0,1,1545.874,-3.061,16.167,524.155,0.232,5.502
1782117189.827160,0.229000,1636709,1000,12,0,1,1544.361,-3.642,15.330,526.581,1.317,5.446
1782117189.828160,0.230000,1636710,1000,12,0,1,1545.226,-0.528,14.656,525.716,1.464,5.189
1782117189.829160,0.231000,1636711,1000,12,0,1,1543.184,-0.448,14.441,523.050,-1.855,5.063
1782117189.830160,0.232000,1636712,1000,12,0,1,1543.953,0.749,14.375,524.876,-0.225,5.001
1782117189.831160,0.233000,1636713,1000,12,0,1,1545.154,3.498,14.378,523.963,0.033,4.964
1782117189.832160,0.234000,1636714,1000,12,0,1,1544.073,2.604,14.380,524.515,-0.277,4.956
1782117189.833160,0.235000,1636715,1000,12,0,1,1542.944,1.654,14.346,523.843,0.365,4.949
1782117189.834160,0.236000,1636716,1000,12,0,1,1541.839,0.418,14.146,521.849,-1.813,4.947
1782117189.835160,0.237000,1636717,1000,12,0,1,1542.896,0.742,13.885,521.969,-1.276,4.949
1782117189.836160,0.238000,1636718,1000,12,0,1,1544.409,1.743,13.825,520.888,-1.592,4.945
1782117189.837160,0.239000,1636719,1000,12,0,1,1543.953,0.569,13.799,518.943,-3.159,4.773
1782117189.838160,0.240000,1636720,1000,12,0,1,1545.082,0.297,13.643,518.919,-2.847,4.471
1782117189.839160,0.241000,1636721,1000,12,0,1,1545.826,0.596,13.386,517.573,-3.232,4.172
1782117189.840160,0.242000,1636722,1000,12,0,1,1545.586,-0.484,13.256,517.357,-3.447,4.052
1782117189.841160,0.243000,1636723,1000,12,0,1,1546.091,-0.440,13.154,518.222,-2.035,4.010
1782117189.842160,0.244000,1636724,1000,12,0,1,1543.664,-2.125,13.107,519.615,-0.721,4.011
1782117189.843160,0.245000,1636725,1000,12,0,1,1537.467,-7.018,13.110,520.936,0.560,4.012
1782117189.844160,0.246000,1636726,1000,12,0,1,1537.035,-6.815,12.799,520.840,0.434,3.949
1782117189.845160,0.247000,1636727,1000,12,0,1,1545.634,2.457,12.361,520.480,-0.232,3.936
1782117189.846160,0.248000,1636728,1000,12,0,1,1563.097,18.100,12.558,522.065,0.976,3.930
1782117189.847160,0.249000,1636729,1000,12,0,1,1561.800,19.057,12.661,522.305,1.462,3.769
1782117189.848160,0.250000,1636730,1000,12,0,1,1547.988,3.203,10.758,525.404,3.326,2.978
1782117189.849160,0.251000,1636731,1000,12,0,1,1535.906,-7.347,8.691,525.957,4.484,2.311
1782117189.850160,0.252000,1636732,1000,12,0,1,1529.372,-12.167,7.917,530.160,6.320,2.296
1782117189.851160,0.253000,1636733,1000,12,0,1,1543.400,0.440,7.041,527.158,5.019,2.323
1782117189.852160,0.254000,1636734,1000,12,0,1,1551.399,11.868,6.818,521.465,-2.014,2.330
1782117189.853160,0.255000,1636735,1000,12,0,1,1540.902,1.000,6.779,524.131,0.244,2.311
1782117189.854160,0.256000,1636736,1000,12,0,1,1538.668,-3.458,6.782,525.957,3.040,2.313
1782117189.855160,0.257000,1636737,1000,12,0,1,1539.509,-1.446,6.775,524.323,1.050,2.307
1782117189.856160,0.258000,1636738,1000,12,0,1,1537.587,-3.911,6.712,525.356,1.625,2.244
1782117189.857160,0.259000,1636739,1000,12,0,1,1538.188,-3.737,6.732,527.566,3.333,2.287
1782117189.858160,0.260000,1636740,1000,12,0,1,1528.628,-10.525,6.875,525.861,1.824,2.302
1782117189.859160,0.261000,1636741,1000,12,0,1,1528.507,-12.838,7.045,527.734,1.654,2.313
1782117189.860160,0.262000,1636742,1000,12,0,1,1547.532,5.311,7.065,521.825,-2.054,2.325
1782117189.861160,0.263000,1636743,1000,12,0,1,1557.164,15.432,7.356,520.984,-5.644,2.458
1782117189.862160,0.264000,1636744,1000,12,0,1,1555.122,10.639,7.491,520.984,-3.350,2.503
1782117189.863160,0.265000,1636745,1000,12,0,1,1554.690,7.839,7.508,521.273,-4.214,2.559
1782117189.864160,0.266000,1636746,1000,12,0,1,1554.570,6.579,7.438,520.960,-3.327,2.590
1782117189.865160,0.267000,1636747,1000,12,0,1,1553.201,4.445,7.360,520.504,-3.944,2.619
1782117189.866160,0.268000,1636748,1000,12,0,1,1554.690,4.869,7.305,520.720,-3.291,2.580
1782117189.867160,0.269000,1636749,1000,12,0,1,1557.789,7.556,7.239,522.594,-1.293,2.561
1782117189.868160,0.270000,1636750,1000,12,0,1,1554.161,4.660,7.086,520.528,-2.267,2.564
1782117189.869160,0.271000,1636751,1000,12,0,1,1550.727,0.386,6.955,520.720,-2.423,2.542
1782117189.870160,0.272000,1636752,1000,12,0,1,1549.525,-0.006,6.812,520.072,-1.671,2.518
1782117189.871160,0.273000,1636753,1000,12,0,1,1550.799,0.911,6.710,519.951,-1.632,2.519
1782117189.872160,0.274000,1636754,1000,12,0,1,1550.438,1.249,6.632,519.759,-0.794,2.518
1782117189.873160,0.275000,1636755,1000,12,0,1,1550.054,0.010,6.588,518.895,-0.918,2.520
1782117189.874160,0.276000,1636756,1000,12,0,1,1548.589,-1.354,6.554,521.128,1.144,2.525
1782117189.875160,0.277000,1636757,1000,12,0,1,1551.063,-0.714,6.530,519.711,1.415,2.529
1782117189.876160,0.278000,1636758,1000,12,0,1,1550.871,-0.686,6.516,519.159,-0.031,2.529
1782117189.877160,0.279000,1636759,1000,12,0,1,1551.807,-2.072,6.503,519.903,1.665,2.533
1782117189.878160,0.280000,1636760,1000,12,0,1,1551.880,-2.285,6.510,519.303,0.920,2.528
1782117189.879160,0.281000,1636761,1000,12,0,1,1552.912,-3.117,6.525,520.672,1.914,2.529
1782117189.880160,0.282000,1636762,1000,12,0,1,1548.829,-6.368,6.586,523.122,3.933,2.589
1782117189.881160,0.283000,1636763,1000,12,0,1,1542.031,-13.015,6.820,523.410,3.752,2.643
1782117189.882160,0.284000,1636764,1000,12,0,1,1539.077,-14.745,7.122,525.644,4.372,2.714
1782117189.883160,0.285000,1636765,1000,12,0,1,1536.578,-14.278,7.399,527.134,5.216,2.812
1782117189.884160,0.286000,1636766,1000,12,0,1,1531.870,-15.864,7.732,528.575,4.885,2.884
1782117189.885160,0.287000,1636767,1000,12,0,1,1527.162,-16.554,8.078,528.887,4.326,2.943
1782117189.886160,0.288000,1636768,1000,12,0,1,1526.225,-14.037,8.314,526.917,1.485,2.942
1782117189.887160,0.289000,1636769,1000,12,0,1,1531.990,-5.269,8.347,524.347,-1.551,2.916
1782117189.888160,0.290000,1636770,1000,12,0,1,1538.044,3.433,8.361,523.963,-2.221,2.905
1782117189.889160,0.291000,1636771,1000,12,0,1,1518.539,-8.715,8.451,530.977,3.274,2.906
1782117189.890160,0.292000,1636772,1000,12,0,1,1501.148,-24.867,9.154,532.370,5.797,2.980
1782117189.891160,0.293000,1636773,1000,12,0,1,1527.523,0.332,9.153,525.716,-1.363,2.972
1782117189.892160,0.294000,1636774,1000,12,0,1,1553.753,30.286,10.101,521.441,-5.566,3.073
1782117189.893160,0.295000,1636775,1000,12,0,1,1562.040,33.831,11.133,520.792,-5.339,3.163
1782117189.894160,0.296000,1636776,1000,12,0,1,1574.987,39.176,12.398,516.997,-7.013,3.314
1782117189.895160,0.297000,1636777,1000,12,0,1,1580.680,39.367,13.586,513.682,-9.199,3.560
1782117189.896160,0.298000,1636778,1000,12,0,1,1563.337,18.066,13.585,517.838,-4.489,3.614
1782117189.897160,0.299000,1636779,1000,12,0,1,1544.890,-5.084,13.335,521.393,0.667,3.609
1782117189.898160,0.300000,1636780,1000,12,0,1,1536.578,-13.816,13.470,524.804,3.127,3.606
1782117189.899160,0.301000,1636781,1000,12,0,1,1531.702,-17.079,13.645,526.629,4.996,3.619
1782117189.900160,0.302000,1636782,1000,12,0,1,1530.309,-16.774,13.742,527.350,4.222,3.558
1782117189.901160,0.303000,1636783,1000,12,0,1,1538.260,-8.099,13.790,524.780,1.612,3.493
1782117189.902160,0.304000,1636784,1000,12,0,1,1547.171,2.113,13.690,522.113,-2.074,3.494
1782117189.903160,0.305000,1636785,1000,12,0,1,1554.113,8.121,13.738,521.753,-2.525,3.512
1782117189.904160,0.306000,1636786,1000,12,0,1,1559.134,11.868,13.831,518.726,-4.581,3.545
1782117189.905160,0.307000,1636787,1000,12,0,1,1554.522,7.307,13.868,518.294,-5.398,3.624
1782117189.906160,0.308000,1636788,1000,12,0,1,1543.953,-3.560,13.866,522.257,-0.932,3.619
1782117189.907160,0.309000,1636789,1000,12,0,1,1542.103,-5.860,13.881,523.266,0.764,3.590
1782117189.908160,0.310000,1636790,1000,12,0,1,1548.517,0.971,13.802,522.354,-0.137,3.580
1782117189.909160,0.311000,1636791,1000,12,0,1,1547.027,1.473,13.683,523.819,1.096,3.576
1782117189.910160,0.312000,1636792,1000,12,0,1,1543.064,-3.159,13.670,525.236,2.832,3.587
1782117189.911160,0.313000,1636793,1000,12,0,1,1542.824,-2.826,13.501,526.557,3.690,3.535
1782117189.912160,0.314000,1636794,1000,12,0,1,1547.484,0.986,13.417,529.368,5.841,3.600
1782117189.913160,0.315000,1636795,1000,12,0,1,1544.986,0.103,13.371,538.039,12.052,3.938
1782117189.914160,0.316000,1636796,1000,12,0,1,1534.753,-9.678,13.409,548.944,20.305,4.851
1782117189.915160,0.317000,1636797,1000,12,0,1,1529.180,-14.576,13.552,558.961,25.636,6.030
1782117189.916160,0.318000,1636798,1000,12,0,1,1524.544,-16.007,13.723,568.882,29.573,7.324
1782117189.917160,0.319000,1636799,1000,12,0,1,1519.428,-18.596,13.931,580.243,33.411,8.714
1782117189.918160,0.320000,1636800,1000,12,0,1,1520.533,-15.121,14.079,586.705,32.857,9.870
1782117189.919160,0.321000,1636801,1000,12,0,1,1522.166,-10.252,14.153,585.912,24.793,10.469
1782117189.920160,0.322000,1636802,1000,12,0,1,1522.454,-7.839,14.197,577.937,11.478,10.591
1782117189.921160,0.323000,1636803,1000,12,0,1,1545.586,11.199,14.284,553.821,-12.879,10.744
1782117189.922160,0.324000,1636804,1000,12,0,1,1574.003,38.012,15.261,517.213,-46.067,12.565
1782117189.923160,0.325000,1636805,1000,12,0,1,1566.340,29.761,15.831,510.415,-51.908,14.551
1782117189.924160,0.326000,1636806,1000,12,0,1,1570.688,22.462,16.145,503.786,-45.625,15.917
1782117189.925160,0.327000,1636807,1000,12,0,1,1576.765,28.349,16.635,491.799,-51.263,17.489
1782117189.926160,0.328000,1636808,1000,12,0,1,1551.856,3.016,16.641,498.765,-37.861,18.290
1782117189.927160,0.329000,1636809,1000,12,0,1,1530.213,-20.242,16.883,508.710,-20.282,18.512
1782117189.928160,0.330000,1636810,1000,12,0,1,1525.553,-21.457,17.150,513.826,-11.624,18.585
1782117189.929160,0.331000,1636811,1000,12,0,1,1539.077,-7.579,17.178,514.931,-6.783,18.608
1782117189.930160,0.332000,1636812,1000,12,0,1,1542.704,1.766,17.156,519.879,-1.959,18.601
1782117189.931160,0.333000,1636813,1000,12,0,1,1534.681,-6.122,17.079,528.983,7.743,18.626
1782117189.932160,0.334000,1636814,1000,12,0,1,1537.779,-3.264,16.958,535.060,12.629,18.701
1782117189.933160,0.335000,1636815,1000,12,0,1,1546.715,5.973,16.858,533.115,10.192,18.742
1782117189.934160,0.336000,1636816,1000,12,0,1,1563.409,18.387,16.909,527.398,3.231,18.735
1782117189.935160,0.337000,1636817,1000,12,0,1,1559.062,15.783,16.894,525.837,0.961,18.726
1782117189.936160,0.338000,1636818,1000,12,0,1,1547.436,-1.224,16.778,526.245,1.924,18.726
1782117189.937160,0.339000,1636819,1000,12,0,1,1546.499,-3.272,16.768,522.281,-0.592,18.725
1782117189.938160,0.340000,1636820,1000,12,0,1,1546.187,-4.085,16.771,519.255,-2.811,18.727
1782117189.939160,0.341000,1636821,1000,12,0,1,1540.974,-8.837,16.772,518.462,-1.655,18.723
1782117189.940160,0.342000,1636822,1000,12,0,1,1538.260,-11.587,16.481,519.711,0.966,18.705
1782117189.941160,0.343000,1636823,1000,12,0,1,1541.190,-8.260,16.523,519.903,3.069,18.709
1782117189.942160,0.344000,1636824,1000,12,0,1,1546.547,-2.271,15.961,520.408,4.316,18.703
1782117189.943160,0.345000,1636825,1000,12,0,1,1553.081,3.495,15.235,518.630,4.136,18.696
1782117189.944160,0.346000,1636826,1000,12,0,1,1551.159,3.038,14.198,517.958,3.556,18.677
1782117189.945160,0.347000,1636827,1000,12,0,1,1536.987,-9.453,13.130,516.372,3.229,18.637
1782117189.946160,0.348000,1636828,1000,12,0,1,1530.669,-15.070,13.054,516.420,2.911,18.631
1782117189.947160,0.349000,1636829,1000,12,0,1,1535.041,-7.965,13.083,521.201,6.922,18.656
1782117189.948160,0.350000,1636830,1000,12,0,1,1532.831,-5.917,12.963,533.427,16.134,18.790
1782117189.949160,0.351000,1636831,1000,12,0,1,1511.765,-20.650,13.066,552.812,30.144,19.255
1782117189.950160,0.352000,1636832,1000,12,0,1,1496.320,-32.411,13.642,572.629,42.607,20.167
1782117189.951160,0.353000,1636833,1000,12,0,1,1503.766,-20.397,13.897,581.396,43.283,21.074
1782117189.952160,0.354000,1636834,1000,12,0,1,1544.025,17.448,14.111,572.749,27.689,21.433
1782117189.953160,0.355000,1636835,1000,12,0,1,1574.867,48.728,15.662,565.663,12.131,21.498
1782117189.954160,0.356000,1636836,1000,12,0,1,1576.429,43.843,16.761,562.060,5.045,21.500
1782117189.955160,0.357000,1636837,1000,12,0,1,1571.024,30.407,17.273,552.596,-6.137,21.504
1782117189.956160,0.358000,1636838,1000,12,0,1,1575.132,26.435,17.665,539.024,-19.051,21.672
1782117189.957160,0.359000,1636839,1000,12,0,1,1590.241,32.822,18.246,520.216,-33.348,22.179
1782117189.958160,0.360000,1636840,1000,12,0,1,1598.432,34.810,18.898,497.756,-48.577,23.218
1782117189.959160,0.361000,1636841,1000,12,0,1,1582.818,14.638,19.010,493.216,-47.228,24.160
1782117189.960160,0.362000,1636842,1000,12,0,1,1560.911,-11.062,19.069,498.141,-32.762,24.597
1782117189.961160,0.363000,1636843,1000,12,0,1,1541.070,-29.059,19.503,508.133,-17.905,24.721
1782117189.962160,0.364000,1636844,1000,12,0,1,1534.248,-33.898,20.083,514.691,-5.746,24.721
1782117189.963160,0.365000,1636845,1000,12,0,1,1547.388,-18.416,20.251,511.808,-5.406,24.674
1782117189.964160,0.366000,1636846,1000,12,0,1,1552.720,-7.380,20.232,509.526,-6.289,24.522
1782117189.965160,0.367000,1636847,1000,12,0,1,1550.943,-8.499,20.162,512.745,-1.828,24.254
1782117189.966160,0.368000,1636848,1000,12,0,1,1556.516,-2.192,20.037,512.673,-0.363,23.891
1782117189.967160,0.369000,1636849,1000,12,0,1,1560.983,3.334,19.869,507.653,-4.333,23.427
1782117189.968160,0.370000,1636850,1000,12,0,1,1562.545,4.205,19.763,508.494,-4.184,22.969
1782117189.969160,0.371000,1636851,1000,12,0,1,1559.206,1.227,19.710,509.334,-1.532,22.701
1782117189.970160,0.372000,1636852,1000,12,0,1,1559.206,-0.803,19.679,509.334,-1.849,22.644
1782117189.971160,0.373000,1636853,1000,12,0,1,1553.993,-4.193,19.625,510.487,0.089,22.571
1782117189.972160,0.374000,1636854,1000,12,0,1,1551.519,-8.571,18.913,511.400,1.348,21.611
1782117189.973160,0.375000,1636855,1000,12,0,1,1548.517,-9.408,18.487,513.538,3.725,20.333
1782117189.974160,0.376000,1636856,1000,12,0,1,1549.766,-9.415,18.260,513.634,4.914,19.294
1782117189.975160,0.377000,1636857,1000,12,0,1,1548.829,-8.108,17.851,512.025,3.930,17.889
1782117189.976160,0.378000,1636858,1000,12,0,1,1553.609,-5.271,17.862,514.547,6.699,17.095
1782117189.977160,0.379000,1636859,1000,12,0,1,1557.693,0.065,17.631,517.477,10.582,16.919
1782117189.978160,0.380000,1636860,1000,12,0,1,1558.245,-0.302,17.368,518.654,11.876,16.923
1782117189.979160,0.381000,1636861,1000,12,0,1,1560.983,1.395,17.336,518.798,12.026,16.981
1782117189.980160,0.382000,1636862,1000,12,0,1,1561.632,2.469,17.338,519.087,11.848,17.061
1782117189.981160,0.383000,1636863,1000,12,0,1,1559.182,-0.400,17.316,521.297,12.962,17.124
1782117189.982160,0.384000,1636864,1000,12,0,1,1557.356,-1.495,17.311,521.969,12.885,17.128
1782117189.983160,0.385000,1636865,1000,12,0,1,1555.218,-2.722,17.295,523.987,12.386,17.157
1782117189.984160,0.386000,1636866,1000,12,0,1,1555.507,-1.476,17.100,527.206,13.460,17.256
1782117189.985160,0.387000,1636867,1000,12,0,1,1553.008,-1.832,16.955,531.385,14.061,17.370
1782117189.986160,0.388000,1636868,1000,12,0,1,1552.120,-2.117,16.957,534.340,13.713,17.476
1782117189.987160,0.389000,1636869,1000,12,0,1,1547.147,-3.991,16.960,534.820,10.387,17.537
1782117189.988160,0.390000,1636870,1000,12,0,1,1540.662,-8.959,16.998,537.414,8.548,17.574
1782117189.989160,0.391000,1636871,1000,12,0,1,1541.166,-6.993,16.980,540.537,8.178,17.611
1782117189.990160,0.392000,1636872,1000,12,0,1,1545.130,-1.383,16.902,534.460,0.464,17.610
1782117189.991160,0.393000,1636873,1000,12,0,1,1547.364,1.462,16.863,529.848,-7.202,17.635
1782117189.992160,0.394000,1636874,1000,12,0,1,1555.387,7.464,16.893,523.002,-12.526,17.713
1782117189.993160,0.395000,1636875,1000,12,0,1,1558.990,10.830,16.955,517.958,-17.515,17.876
1782117189.994160,0.396000,1636876,1000,12,0,1,1560.551,8.946,16.997,519.111,-14.360,17.984
1782117189.995160,0.397000,1636877,1000,12,0,1,1560.959,7.643,16.979,519.711,-11.093,18.046
1782117189.996160,0.398000,1636878,1000,12,0,1,1561.224,5.165,16.860,520.264,-8.810,18.084
1782117189.997160,0.399000,1636879,1000,12,0,1,1557.572,0.902,16.823,523.266,-4.053,18.067
1782117189.998160,0.400000,1636880,1000,12,0,1,1548.757,-7.741,16.838,524.227,-1.325,17.923
1782117189.999160,0.401000,1636881,1000,12,0,1,1530.909,-21.823,16.867,530.737,4.348,17.420
1782117190.000160,0.402000,1636882,1000,12,0,1,1519.764,-30.141,16.783,534.124,8.846,16.392
1782117190.001160,0.403000,1636883,1000,12,0,1,1522.406,-22.631,16.840,534.508,7.523,15.244
1782117190.002160,0.404000,1636884,1000,12,0,1,1523.607,-14.958,16.792,533.499,5.914,14.756
1782117190.003160,0.405000,1636885,1000,12,0,1,1530.045,-6.545,15.341,532.754,3.573,14.664
1782117190.004160,0.406000,1636886,1000,12,0,1,1558.894,20.393,14.326,523.242,-4.522,14.661
1782117190.005160,0.407000,1636887,1000,12,0,1,1575.828,38.272,14.698,520.648,-9.391,14.695
1782117190.006160,0.408000,1636888,1000,12,0,1,1565.163,25.064,14.650,522.546,-5.921,14.471
1782117190.007160,0.409000,1636889,1000,12,0,1,1554.234,9.930,13.966,526.173,-3.393,13.689
1782117190.008160,0.410000,1636890,1000,12,0,1,1558.053,10.728,13.157,526.389,-2.491,11.846
1782117190.009160,0.411000,1636891,1000,12,0,1,1572.729,21.432,13.342,523.434,-5.821,9.818
1782117190.010160,0.412000,1636892,1000,12,0,1,1582.506,27.908,13.825,521.104,-8.003,8.729
1782117190.011160,0.413000,1636893,1000,12,0,1,1580.536,21.208,13.537,520.816,-7.561,8.422
1782117190.012160,0.414000,1636894,1000,12,0,1,1567.085,5.276,12.682,523.747,-4.551,8.407
1782117190.013160,0.415000,1636895,1000,12,0,1,1556.516,-8.418,12.468,525.837,-1.171,8.374
1782117190.014160,0.416000,1636896,1000,12,0,1,1551.231,-13.095,12.562,526.773,-0.290,8.327
1782117190.015160,0.417000,1636897,1000,12,0,1,1551.567,-12.922,12.637,527.638,1.335,8.325
1782117190.016160,0.418000,1636898,1000,12,0,1,1549.477,-12.508,12.756,527.062,1.245,8.327
1782117190.017160,0.419000,1636899,1000,12,0,1,1544.289,-16.170,12.951,529.320,3.356,8.318
1782117190.018160,0.420000,1636900,1000,12,0,1,1540.902,-17.270,13.166,531.794,6.277,8.344
1782117190.019160,0.421000,1636901,1000,12,0,1,1542.896,-13.365,13.300,531.986,6.329,8.389
1782117190.020160,0.422000,1636902,1000,12,0,1,1550.678,-4.514,13.315,534.292,7.532,8.452
1782117190.021160,0.423000,1636903,1000,12,0,1,1551.807,-0.754,13.302,534.316,7.570,8.520
1782117190.022160,0.424000,1636904,1000,12,0,1,1559.374,3.987,13.258,534.172,5.792,8.557
1782117190.023160,0.425000,1636905,1000,12,0,1,1561.800,8.613,13.248,532.322,3.799,8.558
1782117190.024160,0.426000,1636906,1000,12,0,1,1557.332,2.393,13.185,532.346,2.020,8.534
1782117190.025160,0.427000,1636907,1000,12,0,1,1552.672,-1.635,13.137,533.956,2.893,8.526
1782117190.026160,0.428000,1636908,1000,12,0,1,1547.652,-5.898,13.142,533.907,1.717,8.477
1782117190.027160,0.429000,1636909,1000,12,0,1,1545.610,-7.069,13.180,533.115,-0.316,8.344
1782117190.028160,0.430000,1636910,1000,12,0,1,1548.589,-3.158,13.188,534.172,-0.624,8.173
1782117190.029160,0.431000,1636911,1000,12,0,1,1550.991,0.196,13.186,532.082,-2.813,8.004
1782117190.030160,0.432000,1636912,1000,12,0,1,1550.486,0.351,13.182,531.217,-4.911,7.858
1782117190.031160,0.433000,1636913,1000,12,0,1,1551.928,1.086,13.183,529.199,-6.099,7.689
1782117190.032160,0.434000,1636914,1000,12,0,1,1555.915,4.766,13.198,529.199,-6.585,7.528
1782117190.033160,0.435000,1636915,1000,12,0,1,1554.210,3.308,13.201,530.761,-4.176,7.345
1782117190.034160,0.436000,1636916,1000,12,0,1,1548.324,-2.668,13.205,531.842,-2.692,7.105
1782117190.035160,0.437000,1636917,1000,12,0,1,1543.496,-6.954,13.239,532.058,-1.876,6.826
1782117190.036160,0.438000,1636918,1000,12,0,1,1542.199,-7.324,13.276,533.211,-0.439,6.545
1782117190.037160,0.439000,1636919,1000,12,0,1,1539.197,-8.029,13.312,535.541,2.030,6.384
1782117190.038160,0.440000,1636920,1000,12,0,1,1538.116,-8.116,13.301,537.294,3.998,6.294
1782117190.039160,0.441000,1636921,1000,12,0,1,1543.472,-1.977,13.267,536.598,3.348,6.205
1782117190.040160,0.442000,1636922,1000,12,0,1,1540.686,-1.641,13.268,536.622,2.918,6.219
1782117190.041160,0.443000,1636923,1000,12,0,1,1541.839,-1.965,13.269,536.958,3.146,6.151
1782117190.042160,0.444000,1636924,1000,12,0,1,1547.676,5.189,13.248,536.550,2.439,5.900
1782117190.043160,0.445000,1636925,1000,12,0,1,1549.189,6.568,13.192,535.084,0.764,5.356
1782117190.044160,0.446000,1636926,1000,12,0,1,1548.348,5.348,13.153,534.604,-0.268,4.956
1782117190.045160,0.447000,1636927,1000,12,0,1,1544.217,1.767,13.110,535.445,0.091,4.702
1782117190.046160,0.448000,1636928,1000,12,0,1,1540.278,-2.180,13.094,535.973,0.142,4.534
1782117190.047160,0.449000,1636929,1000,12,0,1,1547.484,3.736,13.104,533.619,-2.308,4.509
1782117190.048160,0.450000,1636930,1000,12,0,1,1550.871,8.535,13.114,533.931,-3.167,4.527
1782117190.049160,0.451000,1636931,1000,12,0,1,1546.667,3.589,12.755,531.794,-4.308,4.527
1782117190.050160,0.452000,1636932,1000,12,0,1,1541.791,-1.197,12.023,531.674,-5.481,4.419
1782117190.051160,0.453000,1636933,1000,12,0,1,1542.656,-0.910,11.590,532.923,-3.446,4.316
1782117190.052160,0.454000,1636934,1000,12,0,1,1546.739,3.281,11.405,531.361,-4.507,4.282
1782117190.053160,0.455000,1636935,1000,12,0,1,1550.150,6.124,11.400,530.833,-4.875,4.308
1782117190.054160,0.456000,1636936,1000,12,0,1,1550.006,5.429,11.056,532.610,-2.462,4.274
1782117190.055160,0.457000,1636937,1000,12,0,1,1548.445,2.951,9.650,531.601,-2.287,4.076
1782117190.056160,0.458000,1636938,1000,12,0,1,1548.228,1.838,8.979,532.851,-1.148,3.992
1782117190.057160,0.459000,1636939,1000,12,0,1,1547.676,1.163,8.870,532.730,0.230,3.963
1782117190.058160,0.460000,1636940,1000,12,0,1,1545.202,-1.386,8.741,533.403,0.717,3.949
1782117190.059160,0.461000,1636941,1000,12,0,1,1543.833,-2.783,8.208,532.947,1.476,3.868
1782117190.060160,0.462000,1636942,1000,12,0,1,1541.599,-4.075,7.220,532.250,0.839,3.700
1782117190.061160,0.463000,1636943,1000,12,0,1,1543.400,-2.688,6.579,531.770,1.000,3.545
1782117190.062160,0.464000,1636944,1000,12,0,1,1547.123,1.611,6.540,532.322,1.582,3.494
1782117190.063160,0.465000,1636945,1000,12,0,1,1544.049,-0.380,6.431,532.442,1.953,3.501
1782117190.064160,0.466000,1636946,1000,12,0,1,1541.022,-3.801,6.182,533.115,2.230,3.514
1782117190.065160,0.467000,1636947,1000,12,0,1,1540.782,-3.062,5.922,529.872,-0.310,3.510
1782117190.066160,0.468000,1636948,1000,12,0,1,1543.664,-0.348,5.652,528.959,-2.196,3.519
1782117190.067160,0.469000,1636949,1000,12,0,1,1541.959,-0.316,5.169,531.698,0.470,3.487
1782117190.068160,0.470000,1636950,1000,12,0,1,1540.350,-2.502,4.569,530.833,0.010,3.373
1782117190.069160,0.471000,1636951,1000,12,0,1,1539.341,-2.204,4.172,529.896,-1.827,3.262
1782117190.070160,0.472000,1636952,1000,12,0,1,1538.548,-2.698,4.140,531.577,-0.320,3.083
1782117190.071160,0.473000,1636953,1000,12,0,1,1538.500,-1.969,4.148,531.361,-0.456,2.892
1782117190.072160,0.474000,1636954,1000,12,0,1,1545.082,3.436,4.138,529.920,-1.950,2.788
1782117190.073160,0.475000,1636955,1000,12,0,1,1545.874,5.608,4.034,529.728,-2.115,2.752
1782117190.074160,0.476000,1636956,1000,12,0,1,1549.261,5.985,4.107,530.713,-0.827,2.739
1782117190.075160,0.477000,1636957,1000,12,0,1,1552.000,8.775,4.285,531.890,0.586,2.710
1782117190.076160,0.478000,1636958,1000,12,0,1,1552.480,7.088,4.321,530.448,-0.003,2.699
1782117190.077160,0.479000,1636959,1000,12,0,1,1550.630,4.543,4.252,531.409,0.519,2.700
1782117190.078160,0.480000,1636960,1000,12,0,1,1547.171,0.340,4.229,531.529,1.832,2.710
1782117190.079160,0.481000,1636961,1000,12,0,1,1543.112,-3.669,4.261,531.601,1.619,2.691
1782117190.080160,0.482000,1636962,1000,12,0,1,1549.405,0.832,4.262,532.827,3.148,2.638
1782117190.081160,0.483000,1636963,1000,12,0,1,1558.197,9.389,4.461,534.892,4.768,2.582
1782117190.082160,0.484000,1636964,1000,12,0,1,1553.249,5.103,4.469,535.661,5.320,2.523
1782117190.083160,0.485000,1636965,1000,12,0,1,1549.718,-1.168,4.447,533.931,3.242,2.496
1782117190.084160,0.486000,1636966,1000,12,0,1,1551.111,0.702,4.432,531.650,0.467,2.467
1782117190.085160,0.487000,1636967,1000,12,0,1,1554.282,2.486,4.336,534.244,1.867,2.467
1782117190.086160,0.488000,1636968,1000,12,0,1,1556.203,4.291,4.254,535.925,3.509,2.516
1782117190.087160,0.489000,1636969,1000,12,0,1,1555.363,2.405,4.114,534.340,1.108,2.504
1782117190.088160,0.490000,1636970,1000,12,0,1,1553.153,-0.275,3.951,533.715,-0.493,2.441
1782117190.089160,0.491000,1636971,1000,12,0,1,1555.363,0.420,3.941,532.658,-1.609,2.405
1782117190.090160,0.492000,1636972,1000,12,0,1,1557.332,2.275,3.948,531.626,-3.140,2.411
1782117190.091160,0.493000,1636973,1000,12,0,1,1558.437,2.004,3.948,531.025,-3.497,2.420
1782117190.092160,0.494000,1636974,1000,12,0,1,1557.572,0.687,3.880,531.601,-3.090,2.435
1782117190.093160,0.495000,1636975,1000,12,0,1,1556.179,-1.619,3.774,531.698,-2.406,2.456
1782117190.094160,0.496000,1636976,1000,12,0,1,1554.762,-3.245,3.726,532.995,-1.389,2.464
1782117190.095160,0.497000,1636977,1000,12,0,1,1553.705,-4.372,3.769,532.154,-1.203,2.470
1782117190.096160,0.498000,1636978,1000,12,0,1,1553.177,-4.780,3.817,532.010,-1.630,2.480
1782117190.097160,0.499000,1636979,1000,12,0,1,1553.105,-4.474,3.833,532.346,-0.448,2.460
1782117190.098160,0.500000,1636980,1000,12,0,1,1551.591,-5.282,3.713,532.875,0.204,2.419
1782117190.099160,0.501000,1636981,1000,12,0,1,1551.039,-5.467,3.759,532.923,0.795,2.343
1782117190.100160,0.502000,1636982,1000,12,0,1,1558.557,0.872,3.757,531.385,-0.182,2.212
1782117190.101160,0.503000,1636983,1000,12,0,1,1559.158,3.347,3.785,532.730,0.718,2.160
1782117190.102160,0.504000,1636984,1000,12,0,1,1553.008,-3.503,3.789,533.835,2.520,2.094
1782117190.103160,0.505000,1636985,1000,12,0,1,1547.700,-7.743,3.847,532.466,0.992,1.982
1782117190.104160,0.506000,1636986,1000,12,0,1,1544.025,-10.065,4.030,535.925,3.173,2.002
1782117190.105160,0.507000,1636987,1000,12,0,1,1540.446,-11.295,4.315,536.958,4.608,2.081
1782117190.106160,0.508000,1636988,1000,12,0,1,1541.983,-8.616,4.476,535.805,2.081,2.095
1782117190.107160,0.509000,1636989,1000,12,0,1,1552.360,1.803,4.480,531.962,-1.366,2.104
1782117190.108160,0.510000,1636990,1000,12,0,1,1561.200,10.941,4.736,528.743,-5.117,2.222
1782117190.109160,0.511000,1636991,1000,12,0,1,1554.690,5.211,4.777,531.289,-2.906,2.250
1782117190.110160,0.512000,1636992,1000,12,0,1,1548.613,-2.775,4.758,532.274,-1.011,2.252
1782117190.111160,0.513000,1636993,1000,12,0,1,1539.221,-9.071,4.913,533.235,-0.934,2.251
1782117190.112160,0.514000,1636994,1000,12,0,1,1532.111,-15.470,5.373,534.004,0.231,2.240
1782117190.113160,0.515000,1636995,1000,12,0,1,1541.190,-5.971,5.439,533.595,-0.553,2.225
1782117190.114160,0.516000,1636996,1000,12,0,1,1547.460,3.297,5.433,531.313,-2.178,2.224
1782117190.115160,0.517000,1636997,1000,12,0,1,1545.226,1.032,5.417,531.794,-2.150,2.244
1782117190.116160,0.518000,1636998,1000,12,0,1,1545.634,1.222,5.420,531.722,-1.010,2.227
1782117190.117160,0.519000,1636999,1000,12,0,1,1553.825,7.806,5.531,530.376,-2.041,2.245
1782117190.118160,0.520000,1637000,1000,12,0,1,1567.277,18.906,6.133,524.515,-5.756,2.388
1782117190.119160,0.521000,1637001,1000,12,0,1,1575.972,24.640,7.047,521.921,-7.896,2.623
1782117190.120160,0.522000,1637002,1000,12,0,1,1575.564,20.659,7.619,522.834,-4.885,2.712
1782117190.121160,0.523000,1637003,1000,12,0,1,1570.159,11.921,7.798,522.882,-3.268,2.751
1782117190.122160,0.524000,1637004,1000,12,0,1,1567.877,6.450,7.836,525.740,-0.135,2.737
1782117190.123160,0.525000,1637005,1000,12,0,1,1562.953,1.318,7.798,526.029,1.754,2.732
1782117190.124160,0.526000,1637006,1000,12,0,1,1561.200,-2.417,7.760,526.749,1.634,2.739
1782117190.125160,0.527000,1637007,1000,12,0,1,1560.959,-1.965,7.665,525.909,1.867,2.750
1782117190.126160,0.528000,1637008,1000,12,0,1,1560.095,-3.172,7.612,526.149,1.056,2.754
1782117190.127160,0.529000,1637009,1000,12,0,1,1562.689,-1.099,7.587,526.437,1.855,2.766
1782117190.128160,0.530000,1637010,1000,12,0,1,1563.818,0.399,7.587,527.926,2.302,2.773
1782117190.129160,0.531000,1637011,1000,12,0,1,1565.259,0.501,7.569,526.653,1.600,2.773
1782117190.130160,0.532000,1637012,1000,12,0,1,1561.440,-2.210,7.575,525.260,-0.560,2.738
1782117190.131160,0.533000,1637013,1000,12,0,1,1559.854,-5.473,7.498,527.302,1.111,2.658
1782117190.132160,0.534000,1637014,1000,12,0,1,1561.992,-2.873,7.474,527.446,1.762,2.562
1782117190.133160,0.535000,1637015,1000,12,0,1,1559.878,-4.537,7.500,524.251,-1.299,2.527
1782117190.134160,0.536000,1637016,1000,12,0,1,1559.518,-5.685,7.542,525.716,-0.354,2.527
1782117190.135160,0.537000,1637017,1000,12,0,1,1560.551,-4.106,7.556,526.221,1.289,2.519
1782117190.136160,0.538000,1637018,1000,12,0,1,1559.566,-4.988,7.565,526.413,1.149,2.475
1782117190.137160,0.539000,1637019,1000,12,0,1,1558.533,-5.733,7.600,526.293,1.670,2.482
1782117190.138160,0.540000,1637020,1000,12,0,1,1561.127,-3.550,7.617,525.308,0.909,2.484
1782117190.139160,0.541000,1637021,1000,12,0,1,1562.304,-1.523,7.620,526.605,1.984,2.489
1782117190.140160,0.542000,1637022,1000,12,0,1,1560.599,-3.135,7.626,526.317,2.502,2.475
1782117190.141160,0.543000,1637023,1000,12,0,1,1558.077,-4.911,7.652,523.939,0.112,2.425
1782117190.142160,0.544000,1637024,1000,12,0,1,1555.867,-6.167,7.701,524.924,0.812,2.388
1782117190.143160,0.545000,1637025,1000,12,0,1,1553.369,-7.044,7.762,527.374,3.221,2.407
1782117190.144160,0.546000,1637026,1000,12,0,1,1552.912,-6.267,7.799,527.350,3.096,2.439
1782117190.145160,0.547000,1637027,1000,12,0,1,1554.354,-3.365,7.789,528.215,2.816,2.465
1782117190.146160,0.548000,1637028,1000,12,0,1,1555.435,-1.041,7.761,525.909,0.964,2.458
1782117190.147160,0.549000,1637029,1000,12,0,1,1556.035,0.270,7.735,524.539,-1.588,2.468
1782117190.148160,0.550000,1637030,1000,12,0,1,1555.891,0.854,7.700,525.692,-0.407,2.468
1782117190.149160,0.551000,1637031,1000,12,0,1,1554.570,0.061,7.661,525.356,-0.736,2.468
1782117190.150160,0.552000,1637032,1000,12,0,1,1553.153,-0.857,7.661,522.714,-3.101,2.506
1782117190.151160,0.553000,1637033,1000,12,0,1,1549.285,-3.444,7.662,521.465,-4.276,2.576
1782117190.152160,0.554000,1637034,1000,12,0,1,1550.630,-2.635,7.655,522.426,-2.903,2.584
1782117190.153160,0.555000,1637035,1000,12,0,1,1550.799,-0.611,7.577,522.041,-2.315,2.601
1782117190.154160,0.556000,1637036,1000,12,0,1,1546.907,-3.977,7.463,524.203,-0.599,2.564
1782117190.155160,0.557000,1637037,1000,12,0,1,1542.079,-7.332,7.363,527.398,3.077,2.517
1782117190.156160,0.558000,1637038,1000,12,0,1,1550.678,-0.458,7.262,526.029,2.080,2.517
1782117190.157160,0.559000,1637039,1000,12,0,1,1560.215,10.265,7.401,522.786,-1.028,2.514
1782117190.158160,0.560000,1637040,1000,12,0,1,1557.116,7.000,7.305,523.915,-0.201,2.408
1782117190.159160,0.561000,1637041,1000,12,0,1,1551.423,0.177,7.268,523.987,1.009,2.377
1782117190.160160,0.562000,1637042,1000,12,0,1,1548.397,-2.357,7.265,523.867,0.572,2.374
1782117190.161160,0.563000,1637043,1000,12,0,1,1557.548,4.449,7.178,525.764,2.489,2.396
1782117190.162160,0.564000,1637044,1000,12,0,1,1566.892,14.344,7.132,526.965,3.580,2.449
1782117190.163160,0.565000,1637045,1000,12,0,1,1567.421,12.952,7.314,526.533,2.786,2.479
1782117190.164160,0.566000,1637046,1000,12,0,1,1564.322,8.422,7.396,526.365,2.048,2.477
1782117190.165160,0.567000,1637047,1000,12,0,1,1564.851,6.735,7.456,525.764,1.177,2.464
1782117190.166160,0.568000,1637048,1000,12,0,1,1564.803,6.311,7.507,525.813,0.634,2.461
1782117190.167160,0.569000,1637049,1000,12,0,1,1564.707,4.707,7.455,524.227,-0.745,2.446
1782117190.168160,0.570000,1637050,1000,12,0,1,1558.485,-0.467,6.960,522.330,-2.861,2.342
1782117190.169160,0.571000,1637051,1000,12,0,1,1550.727,-8.237,6.136,523.434,-2.004,2.078
1782117190.170160,0.572000,1637052,1000,12,0,1,1556.491,-3.671,5.421,527.710,1.777,1.976
1782117190.171160,0.573000,1637053,1000,12,0,1,1557.284,0.150,5.152,528.527,2.793,1.962
1782117190.172160,0.574000,1637054,1000,12,0,1,1557.356,-1.890,5.078,525.788,-0.345,1.962
1782117190.173160,0.575000,1637055,1000,12,0,1,1562.881,3.483,5.098,522.065,-3.742,2.017
1782117190.174160,0.576000,1637056,1000,12,0,1,1567.925,6.896,5.179,521.465,-4.291,2.094
1782117190.175160,0.577000,1637057,1000,12,0,1,1561.368,1.078,5.174,524.395,-0.997,2.082
1782117190.176160,0.578000,1637058,1000,12,0,1,1555.483,-6.875,5.245,526.269,1.440,2.086
1782117190.177160,0.579000,1637059,1000,12,0,1,1557.789,-4.717,5.285,525.788,1.052,2.075
1782117190.178160,0.580000,1637060,1000,12,0,1,1558.125,-3.425,5.307,526.317,1.310,2.058
1782117190.179160,0.581000,1637061,1000,12,0,1,1560.935,-2.010,5.314,525.404,0.903,2.049
1782117190.180160,0.582000,1637062,1000,12,0,1,1565.980,3.052,5.323,525.548,0.554,2.049
1782117190.181160,0.583000,1637063,1000,12,0,1,1567.853,3.981,5.296,526.749,1.883,2.060
1782117190.182160,0.584000,1637064,1000,12,0,1,1569.847,4.652,5.321,523.843,-0.340,2.046
1782117190.183160,0.585000,1637065,1000,12,0,1,1570.832,4.760,5.325,521.801,-2.783,2.075
1782117190.184160,0.586000,1637066,1000,12,0,1,1567.277,1.093,5.266,520.024,-3.402,2.130
1782117190.185160,0.587000,1637067,1000,12,0,1,1557.837,-7.227,5.333,520.912,-2.822,2.159
1782117190.186160,0.588000,1637068,1000,12,0,1,1551.111,-13.001,5.597,523.098,0.035,2.153
1782117190.187160,0.589000,1637069,1000,12,0,1,1545.802,-14.836,5.922,527.398,3.275,2.190
1782117190.188160,0.590000,1637070,1000,12,0,1,1540.037,-17.241,6.385,530.280,5.874,2.338
1782117190.189160,0.591000,1637071,1000,12,0,1,1540.229,-14.334,6.695,529.848,4.367,2.402
1782117190.190160,0.592000,1637072,1000,12,0,1,1558.533,3.102,6.695,526.509,0.606,2.378
1782117190.191160,0.593000,1637073,1000,12,0,1,1573.210,19.127,7.187,523.266,-2.975,2.414
1782117190.192160,0.594000,1637074,1000,12,0,1,1574.387,17.650,7.558,520.936,-4.834,2.507
1782117190.193160,0.595000,1637075,1000,12,0,1,1568.214,9.478,7.611,521.152,-4.254,2.537
1782117190.194160,0.596000,1637076,1000,12,0,1,1566.100,4.194,7.583,522.354,-2.299,2.520
1782117190.195160,0.597000,1637077,1000,12,0,1,1564.370,1.972,7.573,520.936,-2.574,2.515
1782117190.196160,0.598000,1637078,1000,12,0,1,1562.977,-0.861,7.572,518.510,-4.298,2.584
1782117190.197160,0.599000,1637079,1000,12,0,1,1560.671,-3.076,7.585,519.111,-3.037,2.610
1782117190.198160,0.600000,1637080,1000,12,0,1,1562.280,-2.582,7.593,520.912,-0.388,2.610
1782117190.199160,0.601000,1637081,1000,12,0,1,1560.767,-2.791,7.603,521.993,1.188,2.613
1782117190.200160,0.602000,1637082,1000,12,0,1,1560.215,-4.035,7.623,522.450,1.816,2.589
1782117190.201160,0.603000,1637083,1000,12,0,1,1559.950,-3.116,7.620,522.402,1.873,2.531
1782117190.202160,0.604000,1637084,1000,12,0,1,1560.407,-2.470,7.619,521.705,1.222,2.503
1782117190.203160,0.605000,1637085,1000,12,0,1,1560.071,-1.758,7.623,521.609,0.969,2.486
1782117190.204160,0.606000,1637086,1000,12,0,1,1558.990,-2.066,7.608,522.546,1.690,2.496
1782117190.205160,0.607000,1637087,1000,12,0,1,1561.368,0.196,7.537,524.323,2.980,2.493
1782117190.206160,0.608000,1637088,1000,12,0,1,1561.103,1.513,7.540,524.371,2.840,2.508
1782117190.207160,0.609000,1637089,1000,12,0,1,1559.062,-0.743,7.399,521.465,-0.149,2.504
1782117190.208160,0.610000,1637090,1000,12,0,1,1561.488,1.587,7.336,521.585,-0.900,2.507
1782117190.209160,0.611000,1637091,1000,12,0,1,1559.638,0.977,7.337,523.675,1.284,2.510
1782117190.210160,0.612000,1637092,1000,12,0,1,1555.723,-3.089,7.343,523.603,1.136,2.514
1782117190.211160,0.613000,1637093,1000,12,0,1,1552.120,-5.530,7.357,525.044,1.688,2.500
1782117190.212160,0.614000,1637094,1000,12,0,1,1545.490,-10.222,7.219,528.479,4.476,2.529
1782117190.213160,0.615000,1637095,1000,12,0,1,1538.500,-15.058,7.300,530.160,5.469,2.615
1782117190.214160,0.616000,1637096,1000,12,0,1,1542.680,-10.293,7.348,526.485,1.803,2.611
1782117190.215160,0.617000,1637097,1000,12,0,1,1549.958,-0.844,7.287,525.188,-0.762,2.608
1782117190.216160,0.618000,1637098,1000,12,0,1,1551.399,1.342,7.234,524.563,-0.606,2.608
1782117190.217160,0.619000,1637099,1000,12,0,1,1546.043,-2.810,7.214,524.419,-1.119,2.611
1782117190.218160,0.620000,1637100,1000,12,0,1,1541.118,-7.161,7.285,527.086,1.376,2.587
1782117190.219160,0.621000,1637101,1000,12,0,1,1543.328,-4.352,7.217,527.710,2.311,2.592
1782117190.220160,0.622000,1637102,1000,12,0,1,1551.159,3.870,7.220,526.917,0.945,2.583
1782117190.221160,0.623000,1637103,1000,12,0,1,1555.290,8.509,7.319,527.374,1.080,2.557
1782117190.222160,0.624000,1637104,1000,12,0,1,1564.875,14.849,7.610,524.467,-1.258,2.563
1782117190.223160,0.625000,1637105,1000,12,0,1,1571.384,20.559,8.131,522.305,-3.802,2.565
1782117190.224160,0.626000,1637106,1000,12,0,1,1572.537,18.237,8.475,518.967,-5.712,2.620
1782117190.225160,0.627000,1637107,1000,12,0,1,1567.445,11.930,8.640,521.441,-4.144,2.681
1782117190.226160,0.628000,1637108,1000,12,0,1,1561.608,4.083,8.604,522.017,-1.602,2.683
1782117190.227160,0.629000,1637109,1000,12,0,1,1553.873,-2.748,8.587,521.128,-3.041,2.713
1782117190.228160,0.630000,1637110,1000,12,0,1,1554.714,-3.237,8.586,521.921,-1.800,2.718
1782117190.229160,0.631000,1637111,1000,12,0,1,1564.346,6.157,8.625,518.798,-3.739,2.766
1782117190.230160,0.632000,1637112,1000,12,0,1,1555.555,0.863,8.615,518.967,-4.258,2.830
1782117190.231160,0.633000,1637113,1000,12,0,1,1539.077,-15.841,8.884,521.825,-0.379,2.818
1782117190.232160,0.634000,1637114,1000,12,0,1,1533.095,-19.273,9.269,527.254,3.828,2.869
1782117190.233160,0.635000,1637115,1000,12,0,1,1528.603,-19.495,9.647,529.872,6.773,2.999
1782117190.234160,0.636000,1637116,1000,12,0,1,1523.727,-20.547,10.074,532.610,7.252,3.133
1782117190.235160,0.637000,1637117,1000,12,0,1,1533.384,-10.259,10.126,530.665,5.652,3.208
1782117190.236160,0.638000,1637118,1000,12,0,1,1563.842,17.702,10.268,520.600,-4.065,3.260
1782117190.237160,0.639000,1637119,1000,12,0,1,1566.724,23.811,10.600,520.600,-5.567,3.321
1782117190.238160,0.640000,1637120,1000,12,0,1,1561.752,11.175,10.437,519.375,-3.459,3.253
1782117190.239160,0.641000,1637121,1000,12,0,1,1565.403,12.913,10.399,516.949,-6.094,3.308
1782117190.240160,0.642000,1637122,1000,12,0,1,1552.648,0.931,10.391,520.936,-1.254,3.311
1782117190.241160,0.643000,1637123,1000,12,0,1,1556.732,-1.306,10.034,521.585,0.823,3.286
1782117190.242160,0.644000,1637124,1000,12,0,1,1569.343,12.689,9.883,517.645,-2.509,3.234
1782117190.243160,0.645000,1637125,1000,12,0,1,1554.786,0.059,9.792,522.354,0.892,3.180
1782117190.244160,0.646000,1637126,1000,12,0,1,1555.915,-4.208,9.792,525.788,5.474,3.257
1782117190.245160,0.647000,1637127,1000,12,0,1,1576.525,16.113,10.050,521.897,1.331,3.242
1782117190.246160,0.648000,1637128,1000,12,0,1,1586.013,24.019,10.608,522.041,0.076,3.184
1782117190.247160,0.649000,1637129,1000,12,0,1,1578.663,14.766,10.803,523.963,2.256,3.171
1782117190.248160,0.650000,1637130,1000,12,0,1,1571.024,4.054,10.812,529.872,5.856,3.277
1782117190.249160,0.651000,1637131,1000,12,0,1,1566.820,-0.581,10.805,537.150,11.828,3.676
1782117190.250160,0.652000,1637132,1000,12,0,1,1563.890,-3.616,10.802,545.197,16.051,4.313
1782117190.251160,0.653000,1637133,1000,12,0,1,1560.767,-6.110,10.827,552.451,19.785,5.134
1782117190.252160,0.654000,1637134,1000,12,0,1,1547.460,-15.787,11.050,558.577,20.925,5.923
1782117190.253160,0.655000,1637135,1000,12,0,1,1537.179,-24.950,11.597,557.808,16.842,6.383
1782117190.254160,0.656000,1637136,1000,12,0,1,1545.106,-15.583,11.800,550.266,6.164,6.438
1782117190.255160,0.657000,1637137,1000,12,0,1,1557.236,-1.634,11.803,536.622,-7.685,6.515
1782117190.256160,0.658000,1637138,1000,12,0,1,1550.967,-4.876,11.821,531.073,-14.344,6.812
1782117190.257160,0.659000,1637139,1000,12,0,1,1538.236,-17.440,12.075,534.844,-9.276,6.937
1782117190.258160,0.660000,1637140,1000,12,0,1,1558.389,-2.032,12.076,531.217,-9.749,7.071
1782117190.259160,0.661000,1637141,1000,12,0,1,1570.568,14.278,12.243,533.043,-9.023,7.183
1782117190.260160,0.662000,1637142,1000,12,0,1,1565.235,5.146,12.257,535.445,-3.795,7.201
1782117190.261160,0.663000,1637143,1000,12,0,1,1566.460,3.860,12.244,543.035,1.322,7.200
1782117190.262160,0.664000,1637144,1000,12,0,1,1567.373,4.232,12.173,548.488,7.558,7.251
1782117190.263160,0.665000,1637145,1000,12,0,1,1556.972,-5.122,12.007,552.764,8.303,7.305
1782117190.264160,0.666000,1637146,1000,12,0,1,1564.082,-1.801,11.922,545.726,2.162,7.307
1782117190.265160,0.667000,1637147,1000,12,0,1,1579.864,14.589,12.098,530.160,-13.923,7.567
1782117190.266160,0.668000,1637148,1000,12,0,1,1571.408,8.381,12.155,521.945,-21.414,8.150
1782117190.267160,0.669000,1637149,1000,12,0,1,1568.142,0.579,12.148,512.265,-25.920,8.935
1782117190.268160,0.670000,1637150,1000,12,0,1,1576.092,9.390,12.179,500.615,-33.423,10.106
1782117190.269160,0.671000,1637151,1000,12,0,1,1577.486,10.133,12.247,497.636,-31.228,11.024
1782117190.270160,0.672000,1637152,1000,12,0,1,1571.408,4.148,12.249,502.248,-21.875,11.449
1782117190.271160,0.673000,1637153,1000,12,0,1,1564.370,-3.198,12.198,505.755,-13.251,11.601
1782117190.272160,0.674000,1637154,1000,12,0,1,1564.274,-3.673,12.027,506.188,-9.496,11.677
1782117190.273160,0.675000,1637155,1000,12,0,1,1566.724,-0.596,11.671,507.485,-5.485,11.690
1782117190.274160,0.676000,1637156,1000,12,0,1,1570.856,2.191,11.387,507.533,-2.638,11.668
1782117190.275160,0.677000,1637157,1000,12,0,1,1573.738,4.321,11.278,509.094,0.315,11.653
1782117190.276160,0.678000,1637158,1000,12,0,1,1570.351,-0.082,11.263,508.181,2.025,11.655
1782117190.277160,0.679000,1637159,1000,12,0,1,1565.812,-5.931,11.287,505.347,0.586,11.647
1782117190.278160,0.680000,1637160,1000,12,0,1,1557.693,-12.943,11.426,509.334,4.913,11.665
1782117190.279160,0.681000,1637161,1000,12,0,1,1547.195,-21.910,11.806,514.259,11.078,11.758
1782117190.280160,0.682000,1637162,1000,12,0,1,1545.346,-22.308,12.220,517.117,13.347,11.893
1782117190.281160,0.683000,1637163,1000,12,0,1,1560.863,-7.005,12.053,515.003,11.657,12.007
1782117190.282160,0.684000,1637164,1000,12,0,1,1578.711,11.240,11.848,508.566,5.201,12.017
1782117190.283160,0.685000,1637165,1000,12,0,1,1585.701,16.514,11.757,506.068,2.494,11.984
1782117190.284160,0.686000,1637166,1000,12,0,1,1579.744,9.367,11.469,507.413,4.432,11.957
1782117190.285160,0.687000,1637167,1000,12,0,1,1567.997,-3.050,11.386,512.217,8.517,11.990
1782117190.286160,0.688000,1637168,1000,12,0,1,1568.238,-4.323,11.124,512.409,9.396,12.050
1782117190.287160,0.689000,1637169,1000,12,0,1,1580.752,7.923,10.661,509.863,5.646,12.051
1782117190.288160,0.690000,1637170,1000,12,0,1,1581.641,10.528,10.648,505.419,1.789,12.044
1782117190.289160,0.691000,1637171,1000,12,0,1,1569.535,-1.224,10.491,504.963,0.329,12.013
1782117190.290160,0.692000,1637172,1000,12,0,1,1558.966,-10.637,10.598,507.965,3.575,12.022
1782117190.291160,0.693000,1637173,1000,12,0,1,1558.846,-9.448,10.680,511.232,6.134,12.053
1782117190.292160,0.694000,1637174,1000,12,0,1,1565.019,-1.563,10.531,511.064,5.749,12.075
1782117190.293160,0.695000,1637175,1000,12,0,1,1568.334,2.973,10.539,513.322,6.102,12.105
1782117190.294160,0.696000,1637176,1000,12,0,1,1570.856,4.563,10.542,515.820,7.932,12.132
1782117190.295160,0.697000,1637177,1000,12,0,1,1575.083,7.460,10.347,519.879,9.679,12.208
1782117190.296160,0.698000,1637178,1000,12,0,1,1579.311,9.409,9.863,523.723,11.864,12.323
1782117190.297160,0.699000,1637179,1000,12,0,1,1579.623,7.747,9.702,520.000,7.426,12.363
1782117190.298160,0.700000,1637180,1000,12,0,1,1570.063,-2.387,9.691,515.291,0.897,12.336
1782117190.299160,0.701000,1637181,1000,12,0,1,1565.163,-9.703,9.787,515.532,0.571,12.222
1782117190.300160,0.702000,1637182,1000,12,0,1,1571.384,-4.312,9.793,517.742,2.276,12.014
1782117190.301160,0.703000,1637183,1000,12,0,1,1580.272,3.448,9.767,517.718,2.332,11.688
1782117190.302160,0.704000,1637184,1000,12,0,1,1576.909,0.880,9.509,514.523,-0.886,11.308
1782117190.303160,0.705000,1637185,1000,12,0,1,1568.742,-8.238,8.906,512.817,-2.793,11.062
1782117190.304160,0.706000,1637186,1000,12,0,1,1558.894,-15.424,8.901,515.772,-0.236,11.027
1782117190.305160,0.707000,1637187,1000,12,0,1,1534.753,-32.492,10.014,510.415,-3.323,10.984
1782117190.306160,0.708000,1637188,1000,12,0,1,1512.293,-48.440,12.114,497.492,-14.795,10.996
1782117190.307160,0.709000,1637189,1000,12,0,1,1515.897,-38.123,13.028,492.256,-18.513,11.227
1782117190.308160,0.710000,1637190,1000,12,0,1,1545.826,-4.022,13.037,503.954,-6.536,11.180
1782117190.309160,0.711000,1637191,1000,12,0,1,1574.027,27.141,13.440,516.517,7.418,11.156
1782117190.310160,0.712000,1637192,1000,12,0,1,1587.911,38.292,14.471,529.320,16.666,11.390
1782117190.311160,0.713000,1637193,1000,12,0,1,1587.598,34.578,15.265,530.040,16.839,11.635
1782117190.312160,0.714000,1637194,1000,12,0,1,1580.512,22.865,15.593,524.371,7.126,11.629
1782117190.313160,0.715000,1637195,1000,12,0,1,1576.693,14.994,15.719,523.483,3.910,11.583
1782117190.314160,0.716000,1637196,1000,12,0,1,1574.987,10.825,15.792,524.635,3.554,11.590
1782117190.315160,0.717000,1637197,1000,12,0,1,1571.697,5.536,15.676,523.771,1.605,11.424
1782117190.316160,0.718000,1637198,1000,12,0,1,1563.506,-2.801,15.636,528.287,3.801,11.028
1782117190.317160,0.719000,1637199,1000,12,0,1,1556.804,-10.141,15.702,532.851,7.465,10.454
1782117190.318160,0.720000,1637200,1000,12,0,1,1567.133,-2.080,15.648,528.551,2.968,9.334
1782117190.319160,0.721000,1637201,1000,12,0,1,1572.345,5.160,15.599,525.212,-2.164,8.229
1782117190.320160,0.722000,1637202,1000,12,0,1,1574.171,3.772,15.598,524.876,-1.964,7.631
1782117190.321160,0.723000,1637203,1000,12,0,1,1570.375,1.009,15.592,518.606,-6.735,7.458
1782117190.322160,0.724000,1637204,1000,12,0,1,1563.578,-6.755,15.612,517.934,-7.883,7.420
1782117190.323160,0.725000,1637205,1000,12,0,1,1553.993,-13.679,15.731,514.355,-8.031,7.466
1782117190.324160,0.726000,1637206,1000,12,0,1,1546.115,-19.324,15.964,512.865,-9.637,7.581
1782117190.325160,0.727000,1637207,1000,12,0,1,1549.670,-13.885,16.073,523.362,0.575,7.581
1782117190.326160,0.728000,1637208,1000,12,0,1,1552.672,-6.511,16.099,535.733,12.153,7.768
1782117190.327160,0.729000,1637209,1000,12,0,1,1550.078,-7.013,16.108,539.240,13.811,8.009
1782117190.328160,0.730000,1637210,1000,12,0,1,1542.584,-10.539,16.073,537.607,9.180,8.084
1782117190.329160,0.731000,1637211,1000,12,0,1,1542.271,-9.962,15.834,529.416,-0.031,7.931
1782117190.330160,0.732000,1637212,1000,12,0,1,1556.035,4.531,15.530,521.825,-9.025,7.808
1782117190.331160,0.733000,1637213,1000,12,0,1,1567.013,16.121,15.665,518.462,-11.892,7.815
1782117190.332160,0.734000,1637214,1000,12,0,1,1572.465,18.902,15.812,518.150,-11.378,7.945
1782117190.333160,0.735000,1637215,1000,12,0,1,1575.492,19.110,15.870,521.393,-7.640,8.010
1782117190.334160,0.736000,1637216,1000,12,0,1,1576.188,16.357,15.983,518.943,-7.585,8.058
1782117190.335160,0.737000,1637217,1000,12,0,1,1570.087,8.659,16.024,515.219,-10.820,8.113
1782117190.336160,0.738000,1637218,1000,12,0,1,1570.279,4.696,16.026,515.700,-8.557,8.094
1782117190.337160,0.739000,1637219,1000,12,0,1,1569.391,4.069,15.997,523.170,-1.117,8.056
1782117190.338160,0.740000,1637220,1000,12,0,1,1570.640,2.263,15.931,527.518,4.896,8.082
1782117190.339160,0.741000,1637221,1000,12,0,1,1582.218,10.967,16.005,526.941,3.882,8.100
1782117190.340160,0.742000,1637222,1000,12,0,1,1593.339,19.408,16.169,526.437,3.205,8.097
1782117190.341160,0.743000,1637223,1000,12,0,1,1594.492,17.327,16.299,526.629,3.255,8.064
1782117190.342160,0.744000,1637224,1000,12,0,1,1589.424,9.162,16.349,522.954,0.409,8.023
1782117190.343160,0.745000,1637225,1000,12,0,1,1583.467,0.989,16.344,520.336,-2.330,7.983
1782117190.344160,0.746000,1637226,1000,12,0,1,1580.416,-3.135,16.337,520.168,-1.780,7.908
1782117190.345160,0.747000,1637227,1000,12,0,1,1575.468,-7.272,16.336,518.654,-2.271,7.795
1782117190.346160,0.748000,1637228,1000,12,0,1,1570.496,-11.513,16.363,514.499,-5.322,7.650
1782117190.347160,0.749000,1637229,1000,12,0,1,1564.971,-14.646,16.457,514.114,-5.413,7.616
1782117190.348160,0.750000,1637230,1000,12,0,1,1558.966,-18.008,16.649,520.024,0.404,7.615
1782117190.349160,0.751000,1637231,1000,12,0,1,1557.669,-17.051,16.767,519.927,1.804,7.619
1782117190.350160,0.752000,1637232,1000,12,0,1,1564.971,-8.445,16.798,522.065,1.667,7.616
1782117190.351160,0.753000,1637233,1000,12,0,1,1564.731,-5.322,16.808,523.483,3.806,7.628
1782117190.352160,0.754000,1637234,1000,12,0,1,1557.092,-11.834,16.891,516.541,-2.866,7.637
1782117190.353160,0.755000,1637235,1000,12,0,1,1566.748,-4.423,16.862,511.881,-7.761,7.706
1782117190.354160,0.756000,1637236,1000,12,0,1,1578.615,8.771,16.766,513.970,-4.945,7.737
1782117190.355160,0.757000,1637237,1000,12,0,1,1582.794,10.286,16.190,521.801,2.480,7.731
1782117190.356160,0.758000,1637238,1000,12,0,1,1589.616,13.401,14.791,524.876,6.575,7.500
1782117190.357160,0.759000,1637239,1000,12,0,1,1591.057,12.819,13.892,527.374,6.995,7.098
1782117190.358160,0.760000,1637240,1000,12,0,1,1586.205,5.133,13.900,528.167,7.848,7.124
1782117190.359160,0.761000,1637241,1000,12,0,1,1584.788,1.361,13.361,526.461,4.976,7.082
1782117190.360160,0.762000,1637242,1000,12,0,1,1586.373,1.787,12.217,524.011,2.448,6.687
1782117190.361160,0.763000,1637243,1000,12,0,1,1589.232,3.413,11.206,526.101,3.333,6.266
1782117190.362160,0.764000,1637244,1000,12,0,1,1582.314,-1.856,10.732,525.332,3.530,6.205
1782117190.363160,0.765000,1637245,1000,12,0,1,1578.254,-7.209,10.570,522.402,0.097,6.180
1782117190.364160,0.766000,1637246,1000,12,0,1,1580.752,-3.215,10.468,523.002,0.376,6.160
1782117190.365160,0.767000,1637247,1000,12,0,1,1581.641,-1.207,10.440,526.317,3.370,6.174
1782117190.366160,0.768000,1637248,1000,12,0,1,1579.816,-2.028,10.437,526.701,3.585,6.172
1782117190.367160,0.769000,1637249,1000,12,0,1,1569.895,-8.935,10.415,526.005,1.946,6.087
1782117190.368160,0.770000,1637250,1000,12,0,1,1561.296,-16.230,10.660,525.020,0.408,6.073
1782117190.369160,0.771000,1637251,1000,12,0,1,1550.919,-21.124,11.047,529.007,2.511,6.075
1782117190.370160,0.772000,1637252,1000,12,0,1,1545.202,-24.117,11.549,531.962,4.956,6.109
1782117190.371160,0.773000,1637253,1000,12,0,1,1557.500,-10.211,11.638,526.725,-0.558,6.035
1782117190.372160,0.774000,1637254,1000,12,0,1,1584.860,15.646,11.808,519.663,-8.145,6.042
1782117190.373160,0.775000,1637255,1000,12,0,1,1592.186,23.915,12.130,517.814,-9.679,6.090
1782117190.374160,0.776000,1637256,1000,12,0,1,1588.151,14.082,11.984,518.366,-7.996,6.042
1782117190.375160,0.777000,1637257,1000,12,0,1,1586.349,9.317,11.896,519.711,-5.782,6.097
1782117190.376160,0.778000,1637258,1000,12,0,1,1579.695,1.240,11.861,516.132,-7.191,5.937
1782117190.377160,0.779000,1637259,1000,12,0,1,1581.761,-0.550,11.820,513.322,-9.247,5.757
1782117190.378160,0.780000,1637260,1000,12,0,1,1584.091,2.658,11.732,516.348,-5.020,5.654
1782117190.379160,0.781000,1637261,1000,12,0,1,1583.947,0.477,11.647,521.513,1.085,5.656
1782117190.380160,0.782000,1637262,1000,12,0,1,1583.034,0.116,11.629,523.891,4.060,5.540
1782117190.381160,0.783000,1637263,1000,12,0,1,1589.232,3.942,11.417,526.245,5.731,5.340
1782117190.382160,0.784000,1637264,1000,12,0,1,1597.327,11.938,11.228,524.756,4.742,5.136
1782117190.383160,0.785000,1637265,1000,12,0,1,1596.294,10.383,10.996,526.077,4.360,5.059
1782117190.384160,0.786000,1637266,1000,12,0,1,1595.045,7.011,10.795,523.675,3.204,4.965
1782117190.385160,0.787000,1637267,1000,12,0,1,1597.663,8.660,10.796,524.299,1.815,4.730
1782117190.386160,0.788000,1637268,1000,12,0,1,1594.877,5.843,10.807,521.825,1.023,4.575
1782117190.387160,0.789000,1637269,1000,12,0,1,1589.832,0.078,10.791,518.991,-2.770,4.589
1782117190.388160,0.790000,1637270,1000,12,0,1,1589.400,-1.109,10.788,520.120,-1.357,4.540
1782117190.389160,0.791000,1637271,1000,12,0,1,1590.313,-0.117,10.676,518.462,-1.952,4.515
1782117190.390160,0.792000,1637272,1000,12,0,1,1589.760,-1.268,10.318,518.150,-2.934,4.512
1782117190.391160,0.793000,1637273,1000,12,0,1,1587.382,-3.881,10.038,519.303,-0.943,4.490
1782117190.392160,0.794000,1637274,1000,12,0,1,1583.154,-8.247,10.022,517.862,-2.179,4.500
1782117190.393160,0.795000,1637275,1000,12,0,1,1576.549,-13.911,10.213,513.898,-5.057,4.545
1782117190.394160,0.796000,1637276,1000,12,0,1,1558.245,-27.762,10.932,506.019,-11.002,4.797
1782117190.395160,0.797000,1637277,1000,12,0,1,1537.035,-44.346,12.561,502.248,-13.376,5.147
1782117190.396160,0.798000,1637278,1000,12,0,1,1536.867,-40.576,13.714,504.698,-8.757,5.240
1782117190.397160,0.799000,1637279,1000,12,0,1,1554.282,-18.321,13.802,508.373,-3.201,5.203
1782117190.398160,0.800000,1637280,1000,12,0,1,1567.181,-1.526,13.567,515.556,3.881,5.232
1782117190.399160,0.801000,1637281,1000,12,0,1,1570.448,3.055,13.357,515.580,5.795,5.290
1782117190.400160,0.802000,1637282,1000,12,0,1,1582.698,12.372,13.419,514.018,2.911,5.300
1782117190.401160,0.803000,1637283,1000,12,0,1,1604.052,30.632,14.080,520.384,8.196,5.399
1782117190.402160,0.804000,1637284,1000,12,0,1,1610.322,34.659,14.815,524.684,12.232,5.655
1782117190.403160,0.805000,1637285,1000,12,0,1,1602.683,22.661,15.145,523.843,9.911,5.721
1782117190.404160,0.806000,1637286,1000,12,0,1,1597.519,13.860,15.221,525.380,9.358,5.831
1782117190.405160,0.807000,1637287,1000,12,0,1,1605.854,17.833,15.359,527.350,10.010,5.990
1782117190.406160,0.808000,1637288,1000,12,0,1,1609.049,20.577,15.517,527.326,8.436,6.036
1782117190.407160,0.809000,1637289,1000,12,0,1,1606.839,14.639,15.549,527.566,6.898,6.034
1782117190.408160,0.810000,1637290,1000,12,0,1,1604.004,10.259,15.600,526.773,5.129,5.975
1782117190.409160,0.811000,1637291,1000,12,0,1,1597.951,3.178,15.605,524.708,2.002,5.941
1782117190.410160,0.812000,1637292,1000,12,0,1,1594.108,-1.910,15.606,522.185,-0.884,5.932
1782117190.411160,0.813000,1637293,1000,12,0,1,1592.667,-3.238,15.605,516.228,-5.999,5.974
1782117190.412160,0.814000,1637294,1000,12,0,1,1595.357,-2.005,15.605,514.162,-8.300,6.067
1782117190.413160,0.815000,1637295,1000,12,0,1,1603.260,4.185,15.583,513.850,-6.877,6.145
1782117190.414160,0.816000,1637296,1000,12,0,1,1605.037,4.780,15.591,514.114,-6.108,6.205
1782117190.415160,0.817000,1637297,1000,12,0,1,1601.050,-1.559,15.592,512.577,-5.987,6.244
1782117190.416160,0.818000,1637298,1000,12,0,1,1599.777,-5.229,15.607,512.913,-5.525,6.272
1782117190.417160,0.819000,1637299,1000,12,0,1,1601.290,-5.232,15.573,514.955,-2.588,6.277
1782117190.418160,0.820000,1637300,1000,12,0,1,1603.812,-4.425,15.416,517.477,-0.076,6.277
1782117190.419160,0.821000,1637301,1000,12,0,1,1603.164,-5.632,15.144,516.637,-0.241,6.267
1782117190.420160,0.822000,1637302,1000,12,0,1,1598.672,-10.430,14.829,515.700,-1.554,6.231
1782117190.421160,0.823000,1637303,1000,12,0,1,1596.918,-12.302,14.861,517.862,0.355,6.231
1782117190.422160,0.824000,1637304,1000,12,0,1,1590.433,-15.659,14.861,517.237,0.547,6.124
1782117190.423160,0.825000,1637305,1000,12,0,1,1585.653,-19.020,14.719,515.580,-1.467,5.973
1782117190.424160,0.826000,1637306,1000,12,0,1,1580.056,-19.483,14.841,510.511,-4.690,5.902
1782117190.425160,0.827000,1637307,1000,12,0,1,1568.934,-25.210,15.207,503.497,-10.377,6.027
1782117190.426160,0.828000,1637308,1000,12,0,1,1572.778,-18.991,15.441,506.260,-7.088,6.024
1782117190.427160,0.829000,1637309,1000,12,0,1,1591.874,3.018,15.447,515.291,3.061,5.897
1782117190.428160,0.830000,1637310,1000,12,0,1,1607.824,19.639,15.690,516.949,5.977,5.914
1782117190.429160,0.831000,1637311,1000,12,0,1,1615.630,25.418,16.096,512.673,1.654,5.917
1782117190.430160,0.832000,1637312,1000,12,0,1,1614.886,22.039,16.395,512.649,0.987,5.891
1782117190.431160,0.833000,1637313,1000,12,0,1,1613.709,16.669,16.555,516.348,4.632,5.871
1782117190.432160,0.834000,1637314,1000,12,0,1,1612.796,13.063,16.571,517.766,5.892,5.892
1782117190.433160,0.835000,1637315,1000,12,0,1,1608.328,6.328,16.531,516.709,4.242,5.891
1782117190.434160,0.836000,1637316,1000,12,0,1,1608.664,3.280,16.507,517.814,4.126,5.902
1782117190.435160,0.837000,1637317,1000,12,0,1,1611.763,4.673,16.475,520.744,6.125,5.960
1782117190.436160,0.838000,1637318,1000,12,0,1,1614.453,4.616,16.467,528.263,10.935,6.155
1782117190.437160,0.839000,1637319,1000,12,0,1,1603.692,-4.962,16.482,526.605,9.539,6.289
1782117190.438160,0.840000,1637320,1000,12,0,1,1595.765,-15.258,16.622,517.309,-1.352,6.289
1782117190.439160,0.841000,1637321,1000,12,0,1,1608.136,-4.442,16.634,517.045,-3.268,6.300
1782117190.440160,0.842000,1637322,1000,12,0,1,1616.399,5.277,16.650,511.905,-5.601,6.336
1782117190.441160,0.843000,1637323,1000,12,0,1,1615.558,2.525,16.645,510.824,-8.210,6.440
1782117190.442160,0.844000,1637324,1000,12,0,1,1617.144,2.552,16.608,515.772,-1.671,6.437
1782117190.443160,0.845000,1637325,1000,12,0,1,1614.790,0.395,16.491,516.517,-0.333,6.398
1782117190.444160,0.846000,1637326,1000,12,0,1,1601.674,-10.749,16.089,511.664,-4.037,6.232
1782117190.445160,0.847000,1637327,1000,12,0,1,1591.321,-19.808,15.078,507.869,-7.281,6.026
1782117190.446160,0.848000,1637328,1000,12,0,1,1599.729,-10.700,14.026,509.623,-4.859,5.938
1782117190.447160,0.849000,1637329,1000,12,0,1,1618.177,8.504,13.837,510.824,-1.977,5.927
1782117190.448160,0.850000,1637330,1000,12,0,1,1625.647,16.237,14.024,511.544,-1.173,5.904
1782117190.449160,0.851000,1637331,1000,12,0,1,1623.725,11.878,14.118,511.256,-0.407,5.847
1782117190.450160,0.852000,1637332,1000,12,0,1,1622.813,8.356,14.059,506.548,-4.012,5.860
1782117190.451160,0.853000,1637333,1000,12,0,1,1619.306,3.904,13.386,506.956,-3.932,5.771
1782117190.452160,0.854000,1637334,1000,12,0,1,1618.105,0.288,12.456,505.899,-2.726,5.519
1782117190.453160,0.855000,1637335,1000,12,0,1,1618.849,0.331,12.037,507.341,-1.997,5.346
1782117190.454160,0.856000,1637336,1000,12,0,1,1618.393,-1.348,11.878,509.334,1.311,5.182
1782117190.455160,0.857000,1637337,1000,12,0,1,1616.903,-3.534,11.618,510.631,2.105,4.994
1782117190.456160,0.858000,1637338,1000,12,0,1,1616.375,-4.940,11.269,509.526,1.624,4.855
1782117190.457160,0.859000,1637339,1000,12,0,1,1615.534,-5.834,11.108,509.214,0.740,4.757
1782117190.458160,0.860000,1637340,1000,12,0,1,1608.496,-11.334,11.129,509.863,1.587,4.707
1782117190.459160,0.861000,1637341,1000,12,0,1,1599.825,-18.619,11.428,509.983,1.770,4.705
1782117190.460160,0.862000,1637342,1000,12,0,1,1597.110,-19.046,11.738,507.653,-0.078,4.703
1782117190.461160,0.863000,1637343,1000,12,0,1,1606.551,-8.871,11.796,507.172,-0.667,4.627
1782117190.462160,0.864000,1637344,1000,12,0,1,1609.505,-1.990,11.796,504.939,-1.557,4.481
1782117190.463160,0.865000,1637345,1000,12,0,1,1612.412,-0.447,11.781,505.419,-1.314,4.378
1782117190.464160,0.866000,1637346,1000,12,0,1,1622.260,9.071,11.831,513.034,5.673,4.367
1782117190.465160,0.867000,1637347,1000,12,0,1,1622.284,9.884,11.911,512.841,6.961,4.395
1782117190.466160,0.868000,1637348,1000,12,0,1,1615.534,2.001,11.892,506.788,0.047,4.325
1782117190.467160,0.869000,1637349,1000,12,0,1,1617.960,2.842,11.876,502.056,-3.841,4.344
1782117190.468160,0.870000,1637350,1000,12,0,1,1620.435,5.906,11.888,503.209,-2.927,4.364
1782117190.469160,0.871000,1637351,1000,12,0,1,1632.349,13.487,12.014,505.971,0.964,4.366
1782117190.470160,0.872000,1637352,1000,12,0,1,1640.228,20.762,12.279,509.310,3.671,4.391
1782117190.471160,0.873000,1637353,1000,12,0,1,1635.664,13.058,12.295,511.376,5.596,4.461
1782117190.472160,0.874000,1637354,1000,12,0,1,1632.229,6.169,12.125,512.553,5.594,4.530
1782117190.473160,0.875000,1637355,1000,12,0,1,1624.254,-1.507,11.825,506.452,0.363,4.526
1782117190.474160,0.876000,1637356,1000,12,0,1,1617.360,-9.935,11.585,498.957,-7.354,4.596
1782117190.475160,0.877000,1637357,1000,12,0,1,1619.786,-7.427,11.073,496.747,-8.601,4.522
1782117190.476160,0.878000,1637358,1000,12,0,1,1630.355,1.662,10.745,502.657,-2.601,4.425
1782117190.477160,0.879000,1637359,1000,12,0,1,1631.868,4.312,10.754,505.323,1.745,4.411
1782117190.478160,0.880000,1637360,1000,12,0,1,1628.866,-1.090,10.390,507.773,2.996,4.350
1782117190.479160,0.881000,1637361,1000,12,0,1,1625.527,-4.179,9.766,507.533,3.455,4.371
1782117190.480160,0.882000,1637362,1000,12,0,1,1624.110,-6.364,9.299,506.644,1.635,4.375
1782117190.481160,0.883000,1637363,1000,12,0,1,1625.167,-5.014,9.023,508.494,2.996,4.346
1782117190.482160,0.884000,1637364,1000,12,0,1,1623.029,-6.004,8.873,507.941,2.833,4.284
1782117190.483160,0.885000,1637365,1000,12,0,1,1616.303,-11.333,8.972,504.698,-0.592,4.243
1782117190.484160,0.886000,1637366,1000,12,0,1,1620.579,-7.823,9.028,503.930,-1.297,4.207
1782117190.485160,0.887000,1637367,1000,12,0,1,1632.277,4.315,9.025,504.290,-0.519,4.117
1782117190.486160,0.888000,1637368,1000,12,0,1,1637.393,9.278,9.096,505.539,0.845,3.817
1782117190.487160,0.889000,1637369,1000,12,0,1,1637.321,7.374,9.129,502.945,-0.666,3.572
1782117190.488160,0.890000,1637370,1000,12,0,1,1630.691,1.001,8.871,502.080,-1.977,3.578
1782117190.489160,0.891000,1637371,1000,12,0,1,1624.662,-6.071,8.890,500.903,-1.812,3.558
1782117190.490160,0.892000,1637372,1000,12,0,1,1621.107,-8.130,8.933,500.735,-2.072,3.481
1782117190.491160,0.893000,1637373,1000,12,0,1,1627.160,-3.313,8.939,502.488,0.132,3.281
1782117190.492160,0.894000,1637374,1000,12,0,1,1641.429,10.107,9.045,502.368,0.516,3.274
1782117190.493160,0.895000,1637375,1000,12,0,1,1645.248,13.581,9.246,499.822,-1.716,3.282
1782117190.494160,0.896000,1637376,1000,12,0,1,1643.807,8.708,9.203,494.826,-5.480,3.324
1782117190.495160,0.897000,1637377,1000,12,0,1,1644.071,6.940,8.821,496.315,-4.583,3.226
1782117190.496160,0.898000,1637378,1000,12,0,1,1649.139,8.510,8.774,504.098,3.511,3.191
1782117190.497160,0.899000,1637379,1000,12,0,1,1639.579,0.765,8.691,513.778,11.513,3.571
1782117190.498160,0.900000,1637380,1000,12,0,1,1620.531,-18.503,8.782,516.541,13.495,4.046
1782117190.499160,0.901000,1637381,1000,12,0,1,1609.457,-27.057,9.431,507.941,4.115,4.087
1782117190.500160,0.902000,1637382,1000,12,0,1,1605.037,-26.990,10.105,502.104,-3.432,4.077
1782117190.501160,0.903000,1637383,1000,12,0,1,1616.183,-14.708,10.302,507.821,1.218,4.042
1782117190.502160,0.904000,1637384,1000,12,0,1,1634.607,5.758,10.334,513.946,7.315,4.155
1782117190.503160,0.905000,1637385,1000,12,0,1,1649.067,18.315,10.654,516.396,8.332,4.309
1782117190.504160,0.906000,1637386,1000,12,0,1,1645.488,14.963,10.860,515.147,6.174,4.393
1782117190.505160,0.907000,1637387,1000,12,0,1,1632.157,-0.646,10.849,513.298,2.967,4.403
1782117190.506160,0.908000,1637388,1000,12,0,1,1624.182,-8.757,10.897,515.075,3.393,4.423
1782117190.507160,0.909000,1637389,1000,12,0,1,1620.435,-10.963,10.976,520.144,7.000,4.531
1782117190.508160,0.910000,1637390,1000,12,0,1,1626.632,-5.163,10.883,516.204,3.614,4.554
1782117190.509160,0.911000,1637391,1000,12,0,1,1631.388,1.871,10.563,513.466,-1.483,4.552
1782117190.510160,0.912000,1637392,1000,12,0,1,1623.053,-4.794,10.236,511.520,-2.512,4.566
1782117190.511160,0.913000,1637393,1000,12,0,1,1610.274,-15.471,10.392,507.845,-6.226,4.649
1782117190.512160,0.914000,1637394,1000,12,0,1,1595.309,-25.473,10.995,502.464,-10.101,4.859
1782117190.513160,0.915000,1637395,1000,12,0,1,1569.367,-42.218,12.511,495.907,-14.741,5.284
1782117190.514160,0.916000,1637396,1000,12,0,1,1575.660,-34.837,13.385,495.378,-14.133,5.592
1782117190.515160,0.917000,1637397,1000,12,0,1,1629.779,19.068,13.582,498.621,-8.580,5.637
1782117190.516160,0.918000,1637398,1000,12,0,1,1674.145,62.327,16.189,511.064,2.230,5.646
1782117190.517160,0.919000,1637399,1000,12,0,1,1678.853,60.062,18.278,523.314,14.341,5.974
1782117190.518160,0.920000,1637400,1000,12,0,1,1667.059,38.764,19.064,525.644,14.289,6.293
1782117190.519160,0.921000,1637401,1000,12,0,1,1647.578,14.597,19.080,519.615,6.606,6.361
1782117190.520160,0.922000,1637402,1000,12,0,1,1647.578,6.597,18.876,519.615,3.084,6.354
1782117190.521160,0.923000,1637403,1000,12,0,1,1651.709,10.708,18.846,518.582,2.421,6.314
1782117190.522160,0.924000,1637404,1000,12,0,1,1647.001,3.412,18.832,523.531,3.909,6.289
1782117190.523160,0.925000,1637405,1000,12,0,1,1631.868,-10.156,18.886,523.963,5.424,6.335
1782117190.524160,0.926000,1637406,1000,12,0,1,1622.500,-19.765,19.040,523.627,2.365,6.258
1782117190.525160,0.927000,1637407,1000,12,0,1,1618.032,-20.141,19.223,519.135,-0.847,6.140
1782117190.526160,0.928000,1637408,1000,12,0,1,1613.973,-20.541,19.440,517.381,-4.029,6.155
1782117190.527160,0.929000,1637409,1000,12,0,1,1601.602,-26.421,19.786,514.787,-4.717,6.187
1782117190.528160,0.930000,1637410,1000,12,0,1,1620.290,-10.805,19.844,509.334,-8.956,6.301
1782117190.529160,0.931000,1637411,1000,12,0,1,1657.811,27.280,20.207,505.035,-11.606,6.493
1782117190.530160,0.932000,1637412,1000,12,0,1,1670.157,37.711,20.880,503.017,-11.215,6.680
1782117190.531160,0.933000,1637413,1000,12,0,1,1656.369,19.387,21.047,502.585,-9.894,6.811
1782117190.532160,0.934000,1637414,1000,12,0,1,1641.693,0.658,21.030,500.639,-9.015,6.918
1782117190.533160,0.935000,1637415,1000,12,0,1,1632.541,-9.676,21.014,502.464,-6.911,6.986
1782117190.534160,0.936000,1637416,1000,12,0,1,1639.267,-5.450,20.999,501.816,-4.723,7.016
1782117190.535160,0.937000,1637417,1000,12,0,1,1646.449,2.420,20.993,499.246,-6.970,7.084
1782117190.536160,0.938000,1637418,1000,12,0,1,1645.344,0.296,20.952,500.615,-4.715,7.115
1782117190.537160,0.939000,1637419,1000,12,0,1,1652.118,3.355,20.931,503.665,-1.196,7.116
1782117190.538160,0.940000,1637420,1000,12,0,1,1653.559,5.671,20.946,502.368,-1.378,7.113
1782117190.539160,0.941000,1637421,1000,12,0,1,1648.347,-1.804,20.930,501.984,-2.166,7.115
1782117190.540160,0.942000,1637422,1000,12,0,1,1654.496,1.857,20.900,508.349,3.440,7.126
1782117190.541160,0.943000,1637423,1000,12,0,1,1659.324,6.778,20.917,512.073,7.603,7.206
1782117190.542160,0.944000,1637424,1000,12,0,1,1658.315,4.079,20.876,511.352,5.875,7.254
1782117190.543160,0.945000,1637425,1000,12,0,1,1654.568,-0.044,20.787,509.983,4.200,7.274
1782117190.544160,0.946000,1637426,1000,12,0,1,1654.112,-1.823,20.752,510.559,4.084,7.256
1782117190.545160,0.947000,1637427,1000,12,0,1,1652.286,-2.630,20.732,511.784,5.401,7.267
1782117190.546160,0.948000,1637428,1000,12,0,1,1651.565,-4.042,20.705,514.763,7.465,7.326
1782117190.547160,0.949000,1637429,1000,12,0,1,1648.971,-5.209,20.718,513.178,6.635,7.204
1782117190.548160,0.950000,1637430,1000,12,0,1,1642.389,-10.622,20.607,511.136,3.564,6.965
1782117190.549160,0.951000,1637431,1000,12,0,1,1640.588,-11.968,20.319,510.055,2.933,6.953
1782117190.550160,0.952000,1637432,1000,12,0,1,1637.801,-11.841,20.028,507.341,0.588,6.937
1782117190.551160,0.953000,1637433,1000,12,0,1,1638.642,-11.034,19.980,507.989,0.685,6.935
1782117190.552160,0.954000,1637434,1000,12,0,1,1642.197,-5.767,19.980,508.926,2.216,6.865
1782117190.553160,0.955000,1637435,1000,12,0,1,1641.501,-5.649,19.828,509.334,1.808,6.768
1782117190.554160,0.956000,1637436,1000,12,0,1,1638.978,-7.579,19.744,506.740,-0.294,6.711
1782117190.555160,0.957000,1637437,1000,12,0,1,1645.128,-2.760,19.748,511.520,1.713,6.703
1782117190.556160,0.958000,1637438,1000,12,0,1,1650.532,3.406,19.715,517.669,7.588,6.771
1782117190.557160,0.959000,1637439,1000,12,0,1,1649.211,1.471,19.655,518.054,5.999,6.752
1782117190.558160,0.960000,1637440,1000,12,0,1,1643.951,-3.578,19.648,517.694,3.483,6.750
1782117190.559160,0.961000,1637441,1000,12,0,1,1637.585,-8.890,19.686,515.219,0.171,6.747
1782117190.560160,0.962000,1637442,1000,12,0,1,1629.274,-14.425,19.780,512.577,-3.708,6.758
1782117190.561160,0.963000,1637443,1000,12,0,1,1629.298,-12.950,19.743,513.250,-3.443,6.718
1782117190.562160,0.964000,1637444,1000,12,0,1,1628.385,-9.120,19.455,511.160,-4.652,6.598
1782117190.563160,0.965000,1637445,1000,12,0,1,1613.324,-18.335,18.697,501.744,-11.860,6.480
1782117190.564160,0.966000,1637446,1000,12,0,1,1608.905,-20.789,18.274,500.807,-12.802,6.425
1782117190.565160,0.967000,1637447,1000,12,0,1,1630.475,2.274,18.077,507.461,-3.775,6.332
1782117190.566160,0.968000,1637448,1000,12,0,1,1649.259,23.152,16.118,515.460,4.390,6.354
1782117190.567160,0.969000,1637449,1000,12,0,1,1644.311,18.750,13.953,514.475,5.264,6.068
1782117190.568160,0.970000,1637450,1000,12,0,1,1640.708,10.940,12.924,511.304,1.101,5.724
1782117190.569160,0.971000,1637451,1000,12,0,1,1651.637,18.814,13.032,512.697,2.513,5.658
1782117190.570160,0.972000,1637452,1000,12,0,1,1661.726,25.918,13.506,516.805,6.034,5.705
1782117190.571160,0.973000,1637453,1000,12,0,1,1662.519,22.837,13.804,516.829,6.037,5.759
1782117190.572160,0.974000,1637454,1000,12,0,1,1660.261,15.951,13.978,514.211,2.523,5.743
1782117190.573160,0.975000,1637455,1000,12,0,1,1654.928,7.977,13.950,513.922,1.121,5.694
1782117190.574160,0.976000,1637456,1000,12,0,1,1658.243,6.457,13.698,514.259,1.139,5.686
1782117190.575160,0.977000,1637457,1000,12,0,1,1656.850,5.267,13.419,515.508,1.055,5.687
1782117190.576160,0.978000,1637458,1000,12,0,1,1654.015,-0.792,13.101,517.501,2.221,5.667
1782117190.577160,0.979000,1637459,1000,12,0,1,1654.856,-0.621,12.557,517.669,1.334,5.631
1782117190.578160,0.980000,1637460,1000,12,0,1,1655.048,-1.088,12.465,516.661,-0.563,5.487
1782117190.579160,0.981000,1637461,1000,12,0,1,1650.124,-5.347,11.877,521.032,1.652,5.241
1782117190.580160,0.982000,1637462,1000,12,0,1,1635.495,-16.879,10.877,524.660,4.850,5.042
1782117190.581160,0.983000,1637463,1000,12,0,1,1621.636,-27.983,11.246,529.704,6.960,4.943
1782117190.582160,0.984000,1637464,1000,12,0,1,1621.107,-24.705,11.775,532.827,8.940,4.941
1782117190.583160,0.985000,1637465,1000,12,0,1,1616.327,-22.259,12.112,534.724,8.027,4.974
1782117190.584160,0.986000,1637466,1000,12,0,1,1608.424,-25.466,12.612,526.029,0.328,4.929
1782117190.585160,0.987000,1637467,1000,12,0,1,1638.306,0.960,12.608,526.557,-2.927,4.848
1782117190.586160,0.988000,1637468,1000,12,0,1,1640.011,13.387,12.750,525.524,-1.001,4.804
1782117190.587160,0.989000,1637469,1000,12,0,1,1635.568,1.183,12.742,523.002,-4.784,4.848
1782117190.588160,0.990000,1637470,1000,12,0,1,1637.561,6.450,12.749,527.566,-0.260,4.844
1782117190.589160,0.991000,1637471,1000,12,0,1,1640.876,6.248,12.777,537.078,8.025,4.966
1782117190.590160,0.992000,1637472,1000,12,0,1,1644.407,9.385,12.844,537.775,8.652,5.091
1782117190.591160,0.993000,1637473,1000,12,0,1,1654.087,14.853,12.979,523.531,-4.750,5.022
1782117190.592160,0.994000,1637474,1000,12,0,1,1669.821,25.704,13.466,509.046,-19.127,5.643
1782117190.593160,0.995000,1637475,1000,12,0,1,1671.551,25.367,13.936,504.746,-20.987,6.348
1782117190.594160,0.996000,1637476,1000,12,0,1,1648.611,0.822,13.934,511.064,-13.433,6.601
1782117190.595160,0.997000,1637477,1000,12,0,1,1634.487,-15.678,14.104,509.599,-10.282,6.716
1782117190.596160,0.998000,1637478,1000,12,0,1,1639.387,-10.311,14.168,499.486,-18.459,7.128
1782117190.597160,0.999000,1637479,1000,12,0,1,1642.269,-4.022,14.160,496.940,-19.017,7.560
1782117190.598160,1.000000,1637480,1000,12,0,1,1634.919,-9.221,14.140,508.614,-6.737,7.603
1782117190.599160,1.001000,1637481,1000,12,0,1,1639.843,-4.958,14.056,511.304,-0.261,7.592
1782117190.600160,1.002000,1637482,1000,12,0,1,1648.082,5.463,13.977,515.460,1.302,7.594
1782117190.601160,1.003000,1637483,1000,12,0,1,1642.606,1.919,13.893,519.111,6.273,7.645
1782117190.602160,1.004000,1637484,1000,12,0,1,1634.631,-6.015,13.895,518.871,4.755,7.668
1782117190.603160,1.005000,1637485,1000,12,0,1,1627.857,-10.050,13.945,516.036,2.242,7.670
1782117190.604160,1.006000,1637486,1000,12,0,1,1630.932,-7.262,13.941,508.902,-3.614,7.687
1782117190.605160,1.007000,1637487,1000,12,0,1,1648.587,9.455,14.000,491.319,-16.889,8.046
1782117190.606160,1.008000,1637488,1000,12,0,1,1651.445,13.883,14.128,474.721,-28.931,8.963
1782117190.607160,1.009000,1637489,1000,12,0,1,1642.149,2.050,14.130,458.290,-36.415,10.302
1782117190.608160,1.010000,1637490,1000,12,0,1,1645.728,2.191,14.124,454.423,-33.835,11.348
1782117190.609160,1.011000,1637491,1000,12,0,1,1656.297,10.952,14.153,472.583,-10.630,11.447
1782117190.610160,1.012000,1637492,1000,12,0,1,1663.071,14.555,14.156,491.127,12.852,11.579
1782117190.611160,1.013000,1637493,1000,12,0,1,1664.128,12.482,14.147,498.093,20.318,11.920
1782117190.612160,1.014000,1637494,1000,12,0,1,1656.249,2.905,14.094,493.769,16.532,12.129
1782117190.613160,1.015000,1637495,1000,12,0,1,1653.079,-3.335,13.862,491.271,11.501,12.123
1782117190.614160,1.016000,1637496,1000,12,0,1,1657.619,0.370,13.547,492.112,12.060,12.107
1782117190.615160,1.017000,1637497,1000,12,0,1,1659.276,1.908,13.546,494.898,12.706,12.228
1782117190.616160,1.018000,1637498,1000,12,0,1,1659.276,0.933,13.145,494.898,12.054,12.331
1782117190.617160,1.019000,1637499,1000,12,0,1,1662.807,3.427,12.883,495.282,9.950,12.389
1782117190.618160,1.020000,1637500,1000,12,0,1,1659.180,1.119,12.791,496.603,9.948,12.467
1782117190.619160,1.021000,1637501,1000,12,0,1,1658.699,-1.220,12.513,493.096,5.975,12.491
1782117190.620160,1.022000,1637502,1000,12,0,1,1657.114,-0.850,11.964,494.922,5.216,12.483
1782117190.621160,1.023000,1637503,1000,12,0,1,1656.538,-2.367,11.525,496.603,7.539,12.500
1782117190.622160,1.024000,1637504,1000,12,0,1,1654.328,-2.924,11.310,495.667,5.361,12.518
1782117190.623160,1.025000,1637505,1000,12,0,1,1649.187,-7.438,11.302,493.361,3.561,12.527
1782117190.624160,1.026000,1637506,1000,12,0,1,1650.653,-6.404,11.302,496.387,5.142,12.547
1782117190.625160,1.027000,1637507,1000,12,0,1,1658.483,1.226,11.279,496.459,6.705,12.582
1782117190.626160,1.028000,1637508,1000,12,0,1,1659.756,2.547,11.284,495.498,4.707,12.595
1782117190.627160,1.029000,1637509,1000,12,0,1,1658.820,-0.307,11.283,493.409,3.584,12.604
1782117190.628160,1.030000,1637510,1000,12,0,1,1656.393,-3.221,11.292,497.925,6.222,12.635
1782117190.629160,1.031000,1637511,1000,12,0,1,1651.854,-8.110,11.324,496.892,6.910,12.670
1782117190.630160,1.032000,1637512,1000,12,0,1,1653.079,-8.037,11.128,494.898,2.932,12.658
1782117190.631160,1.033000,1637513,1000,12,0,1,1653.679,-6.135,10.437,495.739,3.537,12.630
1782117190.632160,1.034000,1637514,1000,12,0,1,1641.284,-15.694,10.082,493.841,1.475,12.568
1782117190.633160,1.035000,1637515,1000,12,0,1,1627.425,-26.974,10.310,487.956,-4.400,12.532
1782117190.634160,1.036000,1637516,1000,12,0,1,1633.838,-19.286,10.038,491.991,-2.396,12.537
1782117190.635160,1.037000,1637517,1000,12,0,1,1651.830,1.400,10.039,497.108,3.047,12.537
1782117190.636160,1.038000,1637518,1000,12,0,1,1658.483,10.102,9.962,502.056,5.466,12.560
1782117190.637160,1.039000,1637519,1000,12,0,1,1657.042,7.997,10.024,503.089,5.515,12.566
1782117190.638160,1.040000,1637520,1000,12,0,1,1656.994,7.375,10.037,509.478,7.640,12.613
1782117190.639160,1.041000,1637521,1000,12,0,1,1660.717,10.036,10.098,515.171,11.640,12.669
1782117190.640160,1.042000,1637522,1000,12,0,1,1660.621,10.202,10.114,516.637,9.838,12.686
1782117190.641160,1.043000,1637523,1000,12,0,1,1657.258,5.949,9.929,517.573,7.865,12.717
1782117190.642160,1.044000,1637524,1000,12,0,1,1650.052,-0.253,9.240,518.390,6.543,12.461
1782117190.643160,1.045000,1637525,1000,12,0,1,1642.558,-7.069,8.574,511.736,-0.333,12.102
1782117190.644160,1.046000,1637526,1000,12,0,1,1639.891,-8.436,8.656,507.341,-5.957,11.982
1782117190.645160,1.047000,1637527,1000,12,0,1,1643.518,-4.012,8.386,502.945,-8.397,11.952
1782117190.646160,1.048000,1637528,1000,12,0,1,1648.611,1.670,8.262,497.372,-12.274,11.792
1782117190.647160,1.049000,1637529,1000,12,0,1,1657.090,8.305,8.325,492.928,-14.088,11.653
1782117190.648160,1.050000,1637530,1000,12,0,1,1648.803,2.478,8.230,492.928,-11.867,11.735
1782117190.649160,1.051000,1637531,1000,12,0,1,1633.958,-13.481,8.419,493.000,-8.942,11.802
1782117190.650160,1.052000,1637532,1000,12,0,1,1628.842,-17.076,8.724,497.420,-4.009,11.815
1782117190.651160,1.053000,1637533,1000,12,0,1,1630.307,-13.370,8.923,499.582,-0.117,11.781
1782117190.652160,1.054000,1637534,1000,12,0,1,1633.045,-8.541,8.964,499.126,-0.923,11.763
1782117190.653160,1.055000,1637535,1000,12,0,1,1644.047,1.902,8.854,498.933,-1.333,11.760
1782117190.654160,1.056000,1637536,1000,12,0,1,1657.498,14.766,9.039,506.620,3.861,11.762
1782117190.655160,1.057000,1637537,1000,12,0,1,1656.922,14.363,9.168,513.394,9.567,11.596
1782117190.656160,1.058000,1637538,1000,12,0,1,1649.476,4.909,8.982,516.420,9.426,10.932
1782117190.657160,1.059000,1637539,1000,12,0,1,1646.809,1.750,8.981,523.555,12.151,9.794
1782117190.658160,1.060000,1637540,1000,12,0,1,1637.609,-4.710,9.000,534.076,18.316,8.930
1782117190.659160,1.061000,1637541,1000,12,0,1,1626.224,-14.071,9.086,546.590,24.545,9.462
1782117190.660160,1.062000,1637542,1000,12,0,1,1612.412,-21.992,9.381,556.727,28.780,10.139
1782117190.661160,1.063000,1637543,1000,12,0,1,1607.223,-23.526,9.795,568.089,31.567,10.699
1782117190.662160,1.064000,1637544,1000,12,0,1,1607.776,-16.457,10.060,580.868,36.344,11.637
1782117190.663160,1.065000,1637545,1000,12,0,1,1588.127,-26.092,10.705,589.659,36.553,12.629
1782117190.664160,1.066000,1637546,1000,12,0,1,1575.396,-34.916,11.789,585.216,26.025,13.044
1782117190.665160,1.067000,1637547,1000,12,0,1,1610.754,0.041,11.785,563.309,0.968,12.920
1782117190.666160,1.068000,1637548,1000,12,0,1,1667.179,54.244,14.062,532.730,-28.913,13.444
1782117190.667160,1.069000,1637549,1000,12,0,1,1703.762,82.433,18.259,510.583,-47.366,14.954
1782117190.668160,1.070000,1637550,1000,12,0,1,1704.171,72.246,20.923,506.332,-45.985,16.246
1782117190.669160,1.071000,1637551,1000,12,0,1,1693.722,47.495,21.974,504.170,-39.299,17.150
1782117190.670160,1.072000,1637552,1000,12,0,1,1684.378,29.078,22.355,498.933,-37.896,17.952
1782117190.671160,1.073000,1637553,1000,12,0,1,1669.389,8.565,22.385,497.492,-33.347,18.531
1782117190.672160,1.074000,1637554,1000,12,0,1,1648.995,-13.536,22.463,495.931,-28.865,18.960
1782117190.673160,1.075000,1637555,1000,12,0,1,1632.397,-29.007,22.810,497.372,-23.908,19.253
1782117190.674160,1.076000,1637556,1000,12,0,1,1632.469,-27.377,23.119,502.488,-15.730,19.367
1782117190.675160,1.077000,1637557,1000,12,0,1,1663.432,1.597,23.119,493.433,-19.510,19.540
1782117190.676160,1.078000,1637558,1000,12,0,1,1688.101,27.723,23.447,486.058,-25.990,19.871
1782117190.677160,1.079000,1637559,1000,12,0,1,1675.274,14.895,23.541,487.283,-20.837,20.082
1782117190.678160,1.080000,1637560,1000,12,0,1,1657.258,-6.760,23.556,488.052,-16.605,20.200
1782117190.679160,1.081000,1637561,1000,12,0,1,1655.841,-8.521,23.559,494.730,-8.613,20.213
1782117190.680160,1.082000,1637562,1000,12,0,1,1668.380,2.447,23.534,494.129,-4.450,20.218
1782117190.681160,1.083000,1637563,1000,12,0,1,1678.949,12.554,23.585,486.875,-9.463,20.256
1782117190.682160,1.084000,1637564,1000,12,0,1,1678.108,9.446,23.518,482.719,-9.578,20.301
1782117190.683160,1.085000,1637565,1000,12,0,1,1664.560,-4.596,23.216,479.116,-8.189,20.324
1782117190.684160,1.086000,1637566,1000,12,0,1,1650.028,-19.826,23.225,478.324,-4.487,20.331
1782117190.685160,1.087000,1637567,1000,12,0,1,1652.430,-18.523,23.371,490.214,9.476,20.371
1782117190.686160,1.088000,1637568,1000,12,0,1,1647.554,-18.334,23.471,501.816,24.156,20.641
1782117190.687160,1.089000,1637569,1000,12,0,1,1608.376,-48.851,24.441,485.001,12.961,20.707
1782117190.688160,1.090000,1637570,1000,12,0,1,1582.818,-70.270,26.363,462.878,-7.807,20.709
1782117190.689160,1.091000,1637571,1000,12,0,1,1613.180,-36.686,26.832,460.716,-6.538,20.664
1782117190.690160,1.092000,1637572,1000,12,0,1,1647.073,5.121,26.803,470.229,6.292,20.636
1782117190.691160,1.093000,1637573,1000,12,0,1,1662.327,18.834,26.921,479.429,17.010,20.746
1782117190.692160,1.094000,1637574,1000,12,0,1,1680.678,31.716,27.292,476.906,15.813,20.846
1782117190.693160,1.095000,1637575,1000,12,0,1,1693.481,39.809,27.849,481.711,16.038,20.969
1782117190.694160,1.096000,1637576,1000,12,0,1,1683.032,25.988,28.065,487.596,21.125,21.164
1782117190.695160,1.097000,1637577,1000,12,0,1,1667.899,6.224,28.073,488.124,17.428,21.273
1782117190.696160,1.098000,1637578,1000,12,0,1,1659.949,-2.474,28.074,492.039,16.793,21.335
1782117190.697160,1.099000,1637579,1000,12,0,1,1658.051,-3.999,28.056,491.319,13.495,21.327
1782117190.698160,1.100000,1637580,1000,12,0,1,1657.931,-2.520,28.056,489.157,7.141,21.285
1782117190.699160,1.101000,1637581,1000,12,0,1,1652.454,-5.088,28.000,491.367,6.727,21.269
1782117190.700160,1.102000,1637582,1000,12,0,1,1649.115,-7.299,27.915,492.976,6.470,21.281
1782117190.701160,1.103000,1637583,1000,12,0,1,1656.225,0.651,27.851,494.970,6.584,21.301
1782117190.702160,1.104000,1637584,1000,12,0,1,1664.104,9.301,27.856,491.415,3.503,21.307
1782117190.703160,1.105000,1637585,1000,12,0,1,1660.141,6.315,27.869,489.445,0.569,21.306
1782117190.704160,1.106000,1637586,1000,12,0,1,1651.565,-3.010,27.794,490.022,2.522,21.302
1782117190.705160,1.107000,1637587,1000,12,0,1,1646.473,-7.723,27.741,492.087,5.000,21.271
1782117190.706160,1.108000,1637588,1000,12,0,1,1644.840,-8.834,27.760,488.316,3.770,21.236
1782117190.707160,1.109000,1637589,1000,12,0,1,1643.975,-8.793,27.787,487.451,2.587,21.169
1782117190.708160,1.110000,1637590,1000,12,0,1,1636.913,-13.609,27.846,486.515,3.947,21.018
1782117190.709160,1.111000,1637591,1000,12,0,1,1631.748,-18.100,27.892,479.885,-1.104,20.730
1782117190.710160,1.112000,1637592,1000,12,0,1,1631.748,-15.785,27.808,475.129,-5.099,20.339
1782117190.711160,1.113000,1637593,1000,12,0,1,1621.588,-20.860,27.765,481.903,0.995,19.843
1782117190.712160,1.114000,1637594,1000,12,0,1,1617.288,-23.763,27.871,491.487,9.939,19.218
1782117190.713160,1.115000,1637595,1000,12,0,1,1631.652,-7.463,27.646,496.123,12.190,18.589
1782117190.714160,1.116000,1637596,1000,12,0,1,1657.859,17.766,27.317,496.219,8.901,18.265
1782117190.715160,1.117000,1637597,1000,12,0,1,1673.136,32.361,27.698,494.586,3.928,18.273
1782117190.716160,1.118000,1637598,1000,12,0,1,1668.212,24.991,26.848,494.586,0.377,17.810
1782117190.717160,1.119000,1637599,1000,12,0,1,1667.179,18.567,24.327,492.304,-3.459,16.509
1782117190.718160,1.120000,1637600,1000,12,0,1,1671.094,20.751,22.271,495.330,-4.030,15.185
1782117190.719160,1.121000,1637601,1000,12,0,1,1670.085,17.574,21.379,499.222,-0.756,14.132
1782117190.720160,1.122000,1637602,1000,12,0,1,1667.779,13.313,21.065,499.534,-1.991,13.079
1782117190.721160,1.123000,1637603,1000,12,0,1,1670.085,13.152,21.112,501.888,-0.933,12.200
1782117190.722160,1.124000,1637604,1000,12,0,1,1672.007,13.836,21.116,503.858,1.008,11.498
1782117190.723160,1.125000,1637605,1000,12,0,1,1675.009,13.751,20.804,504.554,1.405,10.991
1782117190.724160,1.126000,1637606,1000,12,0,1,1668.332,7.237,20.467,512.385,7.690,10.818
1782117190.725160,1.127000,1637607,1000,12,0,1,1657.042,-5.752,20.482,527.302,20.367,10.850
1782117190.726160,1.128000,1637608,1000,12,0,1,1646.737,-14.840,20.212,540.705,30.475,11.081
1782117190.727160,1.129000,1637609,1000,12,0,1,1641.044,-19.548,20.291,552.764,36.349,11.854
1782117190.728160,1.130000,1637610,1000,12,0,1,1640.252,-18.417,20.435,564.558,40.870,12.978
1782117190.729160,1.131000,1637611,1000,12,0,1,1637.201,-18.562,20.568,578.298,44.783,14.389
1782117190.730160,1.132000,1637612,1000,12,0,1,1627.016,-25.255,20.873,594.223,49.545,15.992
1782117190.731160,1.133000,1637613,1000,12,0,1,1621.972,-27.933,21.169,612.023,53.758,17.657
1782117190.732160,1.134000,1637614,1000,12,0,1,1620.314,-24.936,21.419,616.226,46.621,18.799
1782117190.733160,1.135000,1637615,1000,12,0,1,1626.199,-17.122,21.546,591.773,14.035,18.868
1782117190.734160,1.136000,1637616,1000,12,0,1,1642.461,0.008,21.363,564.798,-21.067,19.091
1782117190.735160,1.137000,1637617,1000,12,0,1,1662.543,18.682,21.365,553.340,-35.104,19.680
1782117190.736160,1.138000,1637618,1000,12,0,1,1676.307,29.486,21.614,541.282,-44.538,20.379
1782117190.737160,1.139000,1637619,1000,12,0,1,1677.676,27.493,20.845,524.684,-57.118,21.845
1782117190.738160,1.140000,1637620,1000,12,0,1,1654.424,5.193,18.339,513.778,-62.462,23.538
1782117190.739160,1.141000,1637621,1000,12,0,1,1643.566,-9.627,17.642,501.624,-65.053,25.255
1782117190.740160,1.142000,1637622,1000,12,0,1,1658.483,5.601,17.645,495.691,-63.371,26.783
1782117190.741160,1.143000,1637623,1000,12,0,1,1671.502,19.381,17.657,495.619,-53.395,27.723
1782117190.742160,1.144000,1637624,1000,12,0,1,1672.103,18.790,17.283,484.737,-52.559,28.615
1782117190.743160,1.145000,1637625,1000,12,0,1,1662.567,9.059,16.391,472.655,-55.128,29.571
1782117190.744160,1.146000,1637626,1000,12,0,1,1647.890,-5.177,15.990,468.139,-48.569,30.211
1782117190.745160,1.147000,1637627,1000,12,0,1,1646.689,-7.118,15.998,477.459,-31.492,30.438
1782117190.746160,1.148000,1637628,1000,12,0,1,1655.168,2.251,15.997,492.976,-8.481,30.369
1782117190.747160,1.149000,1637629,1000,12,0,1,1652.334,1.406,15.988,506.596,8.509,30.333
1782117190.748160,1.150000,1637630,1000,12,0,1,1638.354,-11.723,16.070,503.425,10.094,30.349
1782117190.749160,1.151000,1637631,1000,12,0,1,1617.456,-28.449,16.550,496.627,3.491,30.338
1782117190.750160,1.152000,1637632,1000,12,0,1,1616.183,-29.736,17.045,488.653,-0.330,30.325
1782117190.751160,1.153000,1637633,1000,12,0,1,1646.113,-0.318,17.045,500.567,9.028,30.337
1782117190.752160,1.154000,1637634,1000,12,0,1,1649.043,8.512,17.037,508.133,21.043,30.479
1782117190.753160,1.155000,1637635,1000,12,0,1,1649.187,1.364,17.014,507.389,17.945,30.584
1782117190.754160,1.156000,1637636,1000,12,0,1,1680.919,26.752,17.425,502.440,13.881,30.645
1782117190.755160,1.157000,1637637,1000,12,0,1,1707.125,47.806,18.658,497.492,8.290,30.659
1782117190.756160,1.158000,1637638,1000,12,0,1,1702.585,36.931,19.335,500.158,10.068,30.688
1782117190.757160,1.159000,1637639,1000,12,0,1,1675.826,6.174,19.315,517.381,24.315,30.878
1782117190.758160,1.160000,1637640,1000,12,0,1,1657.210,-16.036,19.352,533.619,37.540,31.326
1782117190.759160,1.161000,1637641,1000,12,0,1,1658.772,-13.755,19.281,536.358,36.264,31.742
1782117190.760160,1.162000,1637642,1000,12,0,1,1663.383,-6.394,19.172,533.475,27.313,31.968
1782117190.761160,1.163000,1637643,1000,12,0,1,1664.777,-3.158,18.949,524.828,16.317,32.051
1782117190.762160,1.164000,1637644,1000,12,0,1,1666.170,-0.465,18.649,524.948,10.665,32.056
1782117190.763160,1.165000,1637645,1000,12,0,1,1655.240,-6.888,18.644,519.279,6.604,32.023
1782117190.764160,1.166000,1637646,1000,12,0,1,1651.637,-11.005,18.540,503.665,-9.600,32.027
1782117190.765160,1.167000,1637647,1000,12,0,1,1651.637,-6.454,17.989,503.665,-10.727,32.058
1782117190.766160,1.168000,1637648,1000,12,0,1,1657.811,-1.256,17.640,495.354,-12.821,32.109
1782117190.767160,1.169000,1637649,1000,12,0,1,1650.701,-3.396,17.450,484.689,-22.627,32.265
1782117190.768160,1.170000,1637650,1000,12,0,1,1653.559,-5.122,17.216,471.334,-28.310,32.507
1782117190.769160,1.171000,1637651,1000,12,0,1,1660.333,3.594,17.044,471.406,-26.728,32.726
1782117190.770160,1.172000,1637652,1000,12,0,1,1658.988,0.346,16.939,478.612,-13.116,32.777
1782117190.771160,1.173000,1637653,1000,12,0,1,1653.895,-5.814,16.857,484.209,-5.467,32.786
1782117190.772160,1.174000,1637654,1000,12,0,1,1648.731,-11.359,16.820,488.749,0.827,32.786
1782117190.773160,1.175000,1637655,1000,12,0,1,1641.789,-17.562,16.891,484.137,-1.230,32.786
1782117190.774160,1.176000,1637656,1000,12,0,1,1641.909,-16.970,17.030,479.765,-5.860,32.778
1782117190.775160,1.177000,1637657,1000,12,0,1,1656.081,-3.995,17.020,483.632,-0.928,32.652
1782117190.776160,1.178000,1637658,1000,12,0,1,1661.246,4.142,16.900,485.674,2.296,32.368
1782117190.777160,1.179000,1637659,1000,12,0,1,1657.162,-1.233,16.673,482.960,0.728,31.957
1782117190.778160,1.180000,1637660,1000,12,0,1,1652.814,-3.840,16.477,482.551,0.257,31.430
1782117190.779160,1.181000,1637661,1000,12,0,1,1660.501,2.277,16.270,487.331,5.380,30.795
1782117190.780160,1.182000,1637662,1000,12,0,1,1664.560,9.702,15.932,491.439,9.714,30.019
1782117190.781160,1.183000,1637663,1000,12,0,1,1661.942,6.827,15.465,492.616,10.644,29.079
1782117190.782160,1.184000,1637664,1000,12,0,1,1658.964,5.221,15.076,491.919,9.572,28.354
1782117190.783160,1.185000,1637665,1000,12,0,1,1653.295,1.557,14.882,494.898,11.177,28.329
1782117190.784160,1.186000,1637666,1000,12,0,1,1651.037,0.043,14.882,497.132,13.244,28.234
1782117190.785160,1.187000,1637667,1000,12,0,1,1649.283,0.969,14.646,496.363,11.411,27.841
1782117190.786160,1.188000,1637668,1000,12,0,1,1651.974,3.049,14.046,499.942,12.797,27.179
1782117190.787160,1.189000,1637669,1000,12,0,1,1654.712,6.959,13.533,502.200,14.286,26.029
1782117190.788160,1.190000,1637670,1000,12,0,1,1658.195,8.108,13.562,503.906,13.162,24.555
1782117190.789160,1.191000,1637671,1000,12,0,1,1656.970,6.623,13.526,501.047,9.605,22.807
1782117190.790160,1.192000,1637672,1000,12,0,1,1653.247,0.371,13.503,501.408,6.514,20.993
1782117190.791160,1.193000,1637673,1000,12,0,1,1649.476,-4.248,13.235,501.287,5.900,19.606
1782117190.792160,1.194000,1637674,1000,12,0,1,1647.170,-7.734,13.012,502.392,4.097,18.151
1782117190.793160,1.195000,1637675,1000,12,0,1,1641.789,-12.188,13.063,500.447,1.795,16.394
1782117190.794160,1.196000,1637676,1000,12,0,1,1629.658,-21.841,13.403,502.777,0.903,14.886
1782117190.795160,1.197000,1637677,1000,12,0,1,1622.741,-26.878,13.895,503.906,1.790,14.206
1782117190.796160,1.198000,1637678,1000,12,0,1,1621.011,-23.652,14.289,504.290,-0.113,14.155
1782117190.797160,1.199000,1637679,1000,12,0,1,1621.107,-19.471,14.550,504.987,-0.444,14.104
1782117190.798160,1.200000,1637680,1000,12,0,1,1619.810,-15.266,14.616,507.076,0.067,14.032
1782117190.799160,1.201000,1637681,1000,12,0,1,1615.582,-14.413,14.198,511.304,2.559,14.028
1782117190.800160,1.202000,1637682,1000,12,0,1,1612.796,-12.160,13.670,512.865,3.428,14.036
1782117190.801160,1.203000,1637683,1000,12,0,1,1619.546,-2.204,13.673,513.370,1.946,13.981
1782117190.802160,1.204000,1637684,1000,12,0,1,1640.276,18.977,13.882,515.748,3.182,13.668
1782117190.803160,1.205000,1637685,1000,12,0,1,1652.959,33.077,14.648,520.744,6.023,13.457
1782117190.804160,1.206000,1637686,1000,12,0,1,1645.608,24.957,14.584,524.756,8.693,13.370
1782117190.805160,1.207000,1637687,1000,12,0,1,1645.608,20.111,13.232,524.756,6.847,13.353
1782117190.806160,1.208000,1637688,1000,12,0,1,1645.608,20.263,12.491,524.756,4.750,13.294
1782117190.807160,1.209000,1637689,1000,12,0,1,1621.131,-1.573,12.462,532.995,9.358,12.910
1782117190.808160,1.210000,1637690,1000,12,0,1,1622.789,-6.257,12.286,536.406,11.749,11.884
1782117190.809160,1.211000,1637691,1000,12,0,1,1626.584,3.746,12.142,541.690,11.574,10.845
1782117190.810160,1.212000,1637692,1000,12,0,1,1636.000,7.071,12.150,553.532,18.838,10.478
1782117190.811160,1.213000,1637693,1000,12,0,1,1642.269,14.977,12.325,558.745,19.694,10.594
1782117190.812160,1.214000,1637694,1000,12,0,1,1642.005,10.124,12.408,563.741,17.382,10.770
1782117190.813160,1.215000,1637695,1000,12,0,1,1640.540,6.728,12.406,585.288,29.092,11.491
1782117190.814160,1.216000,1637696,1000,12,0,1,1618.705,-11.861,12.422,600.349,37.324,12.573
1782117190.815160,1.217000,1637697,1000,12,0,1,1606.118,-26.843,12.957,596.818,25.114,12.976
1782117190.816160,1.218000,1637698,1000,12,0,1,1618.345,-12.009,13.066,593.215,12.164,12.964
1782117190.817160,1.219000,1637699,1000,12,0,1,1624.302,-2.550,13.063,601.670,12.193,12.680
1782117190.818160,1.220000,1637700,1000,12,0,1,1621.107,-4.061,13.055,620.478,21.903,12.424
1782117190.819160,1.221000,1637701,1000,12,0,1,1642.485,12.256,13.160,618.388,16.261,12.056
1782117190.820160,1.222000,1637702,1000,12,0,1,1665.569,35.594,14.090,602.871,-6.351,11.946
1782117190.821160,1.223000,1637703,1000,12,0,1,1650.004,20.615,14.365,587.858,-22.702,12.346
1782117190.822160,1.224000,1637704,1000,12,0,1,1620.651,-10.215,14.347,576.832,-33.742,13.236
1782117190.823160,1.225000,1637705,1000,12,0,1,1593.579,-31.682,14.824,567.993,-39.021,14.339
1782117190.824160,1.226000,1637706,1000,12,0,1,1610.970,-17.414,14.834,566.624,-37.666,15.274
1782117190.825160,1.227000,1637707,1000,12,0,1,1671.839,41.114,15.923,553.028,-42.609,16.419
1782117190.826160,1.228000,1637708,1000,12,0,1,1705.804,72.091,18.898,510.223,-72.976,19.391
1782117190.827160,1.229000,1637709,1000,12,0,1,1701.048,56.835,20.536,465.088,-104.512,24.381
1782117190.828160,1.230000,1637710,1000,12,0,1,1666.794,17.979,20.685,453.294,-101.294,28.278
1782117190.829160,1.231000,1637711,1000,12,0,1,1634.631,-19.829,20.872,461.533,-75.156,30.200
1782117190.830160,1.232000,1637712,1000,12,0,1,1615.967,-35.507,21.424,472.823,-49.944,30.984
1782117190.831160,1.233000,1637713,1000,12,0,1,1620.459,-30.937,21.845,480.918,-30.832,31.254
1782117190.832160,1.234000,1637714,1000,12,0,1,1638.522,-10.076,21.879,481.735,-21.259,31.369
1782117190.833160,1.235000,1637715,1000,12,0,1,1642.966,-3.172,21.882,483.056,-14.637,31.397
1782117190.834160,1.236000,1637716,1000,12,0,1,1643.110,-5.061,21.894,483.848,-7.844,31.361
1782117190.835160,1.237000,1637717,1000,12,0,1,1648.299,-0.570,21.894,483.920,-4.019,31.324
1782117190.836160,1.238000,1637718,1000,12,0,1,1654.087,3.369,21.895,484.881,0.907,31.272
1782117190.837160,1.239000,1637719,1000,12,0,1,1654.664,3.343,21.877,485.001,4.421,31.213
1782117190.838160,1.240000,1637720,1000,12,0,1,1655.961,1.912,21.849,482.479,5.711,31.168
1782117190.839160,1.241000,1637721,1000,12,0,1,1652.646,-0.699,21.829,482.743,8.580,31.162
1782117190.840160,1.242000,1637722,1000,12,0,1,1650.244,-4.701,21.839,483.968,13.477,31.207
1782117190.841160,1.243000,1637723,1000,12,0,1,1648.395,-5.108,21.843,486.323,18.057,31.300
1782117190.842160,1.244000,1637724,1000,12,0,1,1645.824,-7.006,21.838,487.451,21.906,31.448
1782117190.843160,1.245000,1637725,1000,12,0,1,1641.333,-9.218,21.809,486.827,22.989,31.614
1782117190.844160,1.246000,1637726,1000,12,0,1,1634.342,-13.433,21.672,487.235,24.456,31.803
1782117190.845160,1.247000,1637727,1000,12,0,1,1632.589,-13.324,21.420,492.856,29.609,32.076
1782117190.846160,1.248000,1637728,1000,12,0,1,1634.559,-8.217,21.189,493.841,31.140,32.377
1782117190.847160,1.249000,1637729,1000,12,0,1,1630.211,-9.182,21.049,496.483,30.530,32.663
1782117190.848160,1.250000,1637730,1000,12,0,1,1634.799,-5.090,20.950,496.964,29.764,32.934
1782117190.849160,1.251000,1637731,1000,12,0,1,1643.470,5.114,20.864,496.964,25.698,33.132
1782117190.850160,1.252000,1637732,1000,12,0,1,1648.563,9.023,20.832,500.303,25.128,33.318
1782117190.851160,1.253000,1637733,1000,12,0,1,1653.439,11.598,20.894,506.980,26.597,33.529
1782117190.852160,1.254000,1637734,1000,12,0,1,1648.611,6.540,20.741,507.965,23.412,33.689
1782117190.853160,1.255000,1637735,1000,12,0,1,1629.947,-11.388,20.271,511.856,20.177,33.799
1782117190.854160,1.256000,1637736,1000,12,0,1,1620.627,-21.021,20.182,515.291,19.000,33.883
1782117190.855160,1.257000,1637737,1000,12,0,1,1627.064,-12.857,20.063,512.145,11.284,33.907
1782117190.856160,1.258000,1637738,1000,12,0,1,1629.827,-6.584,19.879,508.710,3.549,33.904
1782117190.857160,1.259000,1637739,1000,12,0,1,1636.000,-1.427,19.879,504.987,-1.837,33.879
1782117190.858160,1.260000,1637740,1000,12,0,1,1652.983,14.159,19.960,504.410,-4.582,33.844
1782117190.859160,1.261000,1637741,1000,12,0,1,1655.529,17.607,20.107,507.701,-1.657,33.805
1782117190.860160,1.262000,1637742,1000,12,0,1,1642.197,3.296,20.088,510.848,0.953,33.701
1782117190.861160,1.263000,1637743,1000,12,0,1,1625.071,-12.045,20.049,511.232,1.599,33.586
1782117190.862160,1.264000,1637744,1000,12,0,1,1625.791,-11.791,20.067,509.094,-0.296,33.496
1782117190.863160,1.265000,1637745,1000,12,0,1,1637.585,2.752,20.048,501.768,-5.535,33.252
1782117190.864160,1.266000,1637746,1000,12,0,1,1645.728,11.347,20.042,501.143,-6.298,32.842
1782117190.865160,1.267000,1637747,1000,12,0,1,1647.770,12.997,19.765,508.662,2.299,32.651
1782117190.866160,1.268000,1637748,1000,12,0,1,1640.636,6.304,19.712,515.099,8.697,32.629
1782117190.867160,1.269000,1637749,1000,12,0,1,1636.504,0.428,19.709,514.619,7.790,32.602
1782117190.868160,1.270000,1637750,1000,12,0,1,1637.105,1.672,19.702,514.403,5.177,32.463
1782117190.869160,1.271000,1637751,1000,12,0,1,1636.985,1.286,19.626,518.726,6.947,32.396
1782117190.870160,1.272000,1637752,1000,12,0,1,1635.159,-0.283,18.970,516.180,3.571,32.388
1782117190.871160,1.273000,1637753,1000,12,0,1,1632.757,-2.852,18.749,514.355,-2.032,32.229
1782117190.872160,1.274000,1637754,1000,12,0,1,1635.520,-1.091,18.694,514.739,-2.911,31.877
1782117190.873160,1.275000,1637755,1000,12,0,1,1627.785,-5.859,18.168,515.580,-4.578,31.402
1782117190.874160,1.276000,1637756,1000,12,0,1,1617.624,-16.115,18.144,516.420,-5.132,30.956
1782117190.875160,1.277000,1637757,1000,12,0,1,1608.592,-20.931,17.440,515.147,-7.533,30.382
1782117190.876160,1.278000,1637758,1000,12,0,1,1610.010,-18.371,14.386,513.346,-10.046,28.611
1782117190.877160,1.279000,1637759,1000,12,0,1,1606.406,-15.344,12.127,510.896,-11.907,24.555
1782117190.878160,1.280000,1637760,1000,12,0,1,1598.167,-20.367,12.202,511.352,-11.278,20.007
1782117190.879160,1.281000,1637761,1000,12,0,1,1599.633,-15.458,12.075,509.478,-10.528,17.016
1782117190.880160,1.282000,1637762,1000,12,0,1,1604.605,-6.089,11.015,508.830,-10.235,15.548
1782117190.881160,1.283000,1637763,1000,12,0,1,1599.729,-6.311,10.148,513.346,-4.003,14.935
1782117190.882160,1.284000,1637764,1000,12,0,1,1599.729,-4.877,10.071,513.346,-1.316,14.631
1782117190.883160,1.285000,1637765,1000,12,0,1,1616.807,11.912,10.202,518.222,2.772,14.489
1782117190.884160,1.286000,1637766,1000,12,0,1,1626.055,23.418,10.702,522.185,8.588,14.497
1782117190.885160,1.287000,1637767,1000,12,0,1,1631.988,24.863,11.264,528.431,12.326,14.590
1782117190.886160,1.288000,1637768,1000,12,0,1,1638.162,28.861,11.971,533.139,16.502,14.775
1782117190.887160,1.289000,1637769,1000,12,0,1,1648.755,32.873,12.834,537.174,16.761,14.951
1782117190.888160,1.290000,1637770,1000,12,0,1,1643.158,26.647,13.373,536.670,14.314,15.066
1782117190.889160,1.291000,1637771,1000,12,0,1,1623.077,3.481,13.382,536.117,9.600,15.078
1782117190.890160,1.292000,1637772,1000,12,0,1,1603.956,-14.748,13.527,534.244,5.549,14.978
1782117190.891160,1.293000,1637773,1000,12,0,1,1595.573,-21.297,13.839,531.193,-0.161,14.759
1782117190.892160,1.294000,1637774,1000,12,0,1,1614.261,-4.046,13.816,551.010,11.721,14.525
1782117190.893160,1.295000,1637775,1000,12,0,1,1627.088,12.931,13.875,575.631,32.159,14.869
1782117190.894160,1.296000,1637776,1000,12,0,1,1624.110,7.793,13.788,593.263,39.230,15.489
1782117190.895160,1.297000,1637777,1000,12,0,1,1622.188,4.583,13.674,608.011,43.268,16.119
1782117190.896160,1.298000,1637778,1000,12,0,1,1618.609,0.782,13.625,620.670,43.285,16.670
1782117190.897160,1.299000,1637779,1000,12,0,1,1606.166,-9.753,13.633,629.149,40.032,17.067
1782117190.898160,1.300000,1637780,1000,12,0,1,1608.929,-9.301,13.678,625.498,27.055,16.977
1782117190.899160,1.301000,1637781,1000,12,0,1,1607.439,-5.598,13.681,604.552,0.617,16.584
1782117190.900160,1.302000,1637782,1000,12,0,1,1629.418,8.782,13.678,576.592,-28.958,16.708
1782117190.901160,1.303000,1637783,1000,12,0,1,1680.198,53.136,15.520,551.923,-50.236,17.762
1782117190.902160,1.304000,1637784,1000,12,0,1,1698.069,66.207,18.102,539.744,-56.484,19.192
1782117190.903160,1.305000,1637785,1000,12,0,1,1673.977,33.434,18.640,522.161,-61.633,20.885
1782117190.904160,1.306000,1637786,1000,12,0,1,1644.239,-2.010,18.404,491.199,-78.690,23.511
1782117190.905160,1.307000,1637787,1000,12,0,1,1621.588,-25.005,18.652,468.259,-87.571,26.526
1782117190.906160,1.308000,1637788,1000,12,0,1,1616.087,-29.239,19.082,465.833,-75.173,28.572
1782117190.907160,1.309000,1637789,1000,12,0,1,1634.102,-11.017,19.144,485.434,-44.860,29.267
1782117190.908160,1.310000,1637790,1000,12,0,1,1656.658,12.257,19.118,507.028,-13.909,29.326
1782117190.909160,1.311000,1637791,1000,12,0,1,1664.464,18.369,19.133,506.068,-8.035,29.347
1782117190.910160,1.312000,1637792,1000,12,0,1,1659.180,10.485,19.184,500.375,-12.381,29.399
1782117190.911160,1.313000,1637793,1000,12,0,1,1649.764,-1.185,19.109,502.873,-7.833,29.419
1782117190.912160,1.314000,1637794,1000,12,0,1,1645.032,-7.443,19.065,505.755,-3.156,29.422
1782117190.913160,1.315000,1637795,1000,12,0,1,1647.386,-6.078,19.081,507.293,-0.895,29.412
1782117190.914160,1.316000,1637796,1000,12,0,1,1648.731,-4.582,19.024,507.605,0.390,29.399
1782117190.915160,1.317000,1637797,1000,12,0,1,1642.029,-10.548,18.994,504.891,-0.856,29.397
1782117190.916160,1.318000,1637798,1000,12,0,1,1639.195,-14.335,19.081,502.729,-1.409,29.372
1782117190.917160,1.319000,1637799,1000,12,0,1,1638.738,-13.114,19.171,507.893,4.817,29.359
1782117190.918160,1.320000,1637800,1000,12,0,1,1627.881,-20.678,19.391,514.235,13.508,29.412
