Unix_Time_s,IMU1_RefTime,ax_g,ay_g,az_g,gx_dps,gy_dps,gz_dps,mx_uT,my_uT,mz_uT,temp_C,qw,qx,qy,qz
1782117324.249009,1827050,-0.966309,0.028320,-0.282715,0.548781,-0.365854,0.914634,-4.368750,40.443752,-2.668750,0.0,1.000000,0.000000,0.000000,0.000000
1782117324.261009,1827062,-0.963379,0.027344,-0.279297,0.609756,-0.487805,0.792683,-4.368750,40.443752,-2.668750,0.0,1.000000,0.000000,0.000000,0.000000
1782117324.269009,1827070,-0.963867,0.028809,-0.278320,0.609756,-0.426829,0.792683,-4.325000,40.475002,-2.706250,0.0,1.000000,0.000000,0.000000,0.000000
1782117324.279009,1827080,-0.962891,0.027832,-0.278809,0.670732,-0.365854,0.975610,-4.325000,40.475002,-2.706250,0.0,1.000000,0.000000,0.000000,0.000000
1782117324.289009,1827090,-0.962891,0.027832,-0.279785,0.609756,-0.365854,0.975610,-4.281250,40.500000,-2.706250,0.0,1.000000,0.000000,0.000000,0.000000
1782117324.300009,1827101,-0.963867,0.026855,-0.279297,0.365854,-0.365854,0.914634,-4.281250,40.500000,-2.706250,0.0,1.000000,0.000000,0.000000,0.000000
1782117324.310009,1827111,-0.963867,0.028320,-0.281250,0.121951,-0.304878,0.853659,-4.293750,40.506252,-2.668750,0.0,1.000000,0.000000,0.000000,0.000000
1782117324.320009,1827121,-0.962891,0.028320,-0.280762,0.060976,-0.365854,0.731707,-4.293750,40.506252,-2.668750,0.0,1.000000,0.000000,0.000000,0.000000
1782117324.329009,1827130,-0.963379,0.028809,-0.281738,0.121951,-0.182927,0.670732,-4.175000,40.562500,-2.675000,0.0,1.000000,0.000000,0.000000,0.000000
1782117324.340009,1827141,-0.961914,0.026855,-0.279785,0.121951,0.000000,0.670732,-4.175000,40.562500,-2.675000,0.0,1.000000,0.000000,0.000000,0.000000
1782117324.350009,1827151,-0.963867,0.024902,-0.281250,0.000000,0.000000,0.670732,-4.256250,40.487499,-2.625000,0.0,1.000000,0.000000,0.000000,0.000000
1782117324.359009,1827160,-0.964355,0.025879,-0.281250,-0.060976,-0.060976,0.792683,-4.256250,40.487499,-2.625000,0.0,1.000000,0.000000,0.000000,0.000000
1782117324.369009,1827170,-0.963867,0.025879,-0.281250,0.060976,-0.243902,0.853659,-4.337500,40.424999,-2.612500,0.0,1.000000,0.000000,0.000000,0.000000
1782117324.380009,1827181,-0.963379,0.027344,-0.284668,0.243902,-0.365854,0.914634,-4.337500,40.424999,-2.612500,0.0,1.000000,0.000000,0.000000,0.000000
1782117324.389009,1827190,-0.963867,0.026367,-0.283691,0.426829,-0.304878,0.914634,-4.287500,40.493752,-2.681250,0.0,1.000000,0.000000,0.000000,0.000000
1782117324.399009,1827200,-0.966309,0.027344,-0.280762,0.548781,-0.243902,0.853659,-4.287500,40.493752,-2.681250,0.0,1.000000,0.000000,0.000000,0.000000
1782117324.409009,1827210,-0.964844,0.028320,-0.276855,0.670732,-0.304878,0.792683,-4.406250,40.325001,-2.675000,0.0,1.000000,0.000000,0.000000,0.000000
1782117324.421009,1827222,-0.963379,0.026367,-0.275879,0.853659,-0.304878,0.792683,-4.156250,40.650002,-2.606250,0.0,1.000000,0.000000,0.000000,0.000000
1782117324.429009,1827230,-0.963867,0.024414,-0.275879,0.914634,-0.304878,0.792683,-4.156250,40.650002,-2.606250,0.0,1.000000,0.000000,0.000000,0.000000
1782117324.439009,1827240,-0.964844,0.025879,-0.278320,0.731707,-0.304878,0.914634,-4.156250,40.650002,-2.606250,0.0,1.000000,0.000000,0.000000,0.000000
1782117324.449009,1827250,-0.965332,0.026855,-0.280273,0.426829,-0.426829,0.975610,-4.437500,40.356251,-2.718750,0.0,1.000000,0.000000,0.000000,0.000000
1782117324.459009,1827260,-0.963867,0.027832,-0.281738,0.121951,-0.609756,0.914634,-4.375000,40.387501,-2.643750,0.0,1.000000,0.000000,0.000000,0.000000
1782117324.469009,1827270,-0.962402,0.029785,-0.283691,-0.060976,-0.731707,0.853659,-4.375000,40.387501,-2.643750,0.0,1.000000,0.000000,0.000000,0.000000
1782117324.479009,1827280,-0.963867,0.028320,-0.285156,-0.121951,-0.670732,0.792683,-4.343750,40.387501,-2.675000,0.0,1.000000,0.000000,0.000000,0.000000
1782117324.489009,1827290,-0.961914,0.030762,-0.282715,-0.365854,-0.548781,0.609756,-4.343750,40.387501,-2.675000,0.0,1.000000,0.000000,0.000000,0.000000
1782117324.500009,1827301,-0.960938,0.029297,-0.279785,-0.365854,-0.304878,0.426829,-4.356250,40.431252,-2.712500,0.0,1.000000,0.000000,0.000000,0.000000
1782117324.509009,1827310,-0.960449,0.028320,-0.281250,-0.365854,0.060976,0.487805,-4.356250,40.431252,-2.712500,0.0,1.000000,0.000000,0.000000,0.000000
1782117324.519009,1827320,-0.962891,0.027344,-0.280273,-0.487805,0.243902,0.426829,-4.375000,40.406250,-2.587500,0.0,1.000000,0.000000,0.000000,0.000000
1782117324.529009,1827330,-0.963379,0.026855,-0.278809,-0.609756,0.243902,0.548781,-4.375000,40.406250,-2.587500,0.0,1.000000,0.000000,0.000000,0.000000
1782117324.539009,1827340,-0.963867,0.027832,-0.280762,-0.731707,0.243902,0.609756,-4.356250,40.443752,-2.681250,0.0,1.000000,0.000000,0.000000,0.000000
1782117324.549009,1827350,-0.964355,0.027344,-0.282227,-0.731707,0.243902,0.609756,-4.356250,40.443752,-2.681250,0.0,1.000000,0.000000,0.000000,0.000000
1782117324.560009,1827361,-0.962891,0.026367,-0.282227,-0.792683,0.243902,0.548781,-4.293750,40.468750,-2.668750,0.0,1.000000,0.000000,0.000000,0.000000
1782117324.569009,1827370,-0.966309,0.025879,-0.277344,-0.670732,0.304878,0.487805,-4.293750,40.468750,-2.668750,0.0,1.000000,0.000000,0.000000,0.000000
1782117324.580009,1827381,-0.966797,0.023926,-0.273926,-0.365854,0.182927,0.548781,-4.300000,40.462502,-2.687500,0.0,1.000000,0.000000,0.000000,0.000000
1782117324.589009,1827390,-0.968262,0.021973,-0.273438,0.000000,0.060976,0.609756,-4.300000,40.462502,-2.687500,0.0,1.000000,0.000000,0.000000,0.000000
1782117324.599009,1827400,-0.971191,0.022461,-0.272949,0.121951,0.000000,0.670732,-4.306250,40.462502,-2.675000,0.0,1.000000,0.000000,0.000000,0.000000
1782117324.609009,1827410,-0.968262,0.024414,-0.270996,0.243902,-0.365854,0.670732,-4.306250,40.462502,-2.675000,0.0,1.000000,0.000000,0.000000,0.000000
1782117324.621009,1827422,-0.964355,0.026367,-0.270020,0.365854,-0.426829,0.792683,-4.381250,40.424999,-2.675000,0.0,1.000000,0.000000,0.000000,0.000000
1782117324.629009,1827430,-0.963379,0.024414,-0.272461,0.731707,-0.243902,0.975610,-4.381250,40.424999,-2.675000,0.0,1.000000,0.000000,0.000000,0.000000
1782117324.639009,1827440,-0.965332,0.023926,-0.275391,0.975610,-0.121951,0.975610,-4.331250,40.456249,-2.668750,0.0,1.000000,0.000000,0.000000,0.000000
1782117324.649009,1827450,-0.965820,0.025879,-0.277344,1.158537,-0.243902,0.914634,-4.331250,40.456249,-2.668750,0.0,1.000000,0.000000,0.000000,0.000000
1782117324.659009,1827460,-0.964844,0.026367,-0.278320,1.402439,-0.243902,0.975610,-4.387500,40.406250,-2.700000,0.0,1.000000,0.000000,0.000000,0.000000
1782117324.669009,1827470,-0.963379,0.026367,-0.277832,1.524390,-0.243902,0.975610,-4.387500,40.406250,-2.700000,0.0,1.000000,0.000000,0.000000,0.000000
1782117324.679009,1827480,-0.962891,0.023926,-0.279785,1.585366,-0.304878,1.036585,-4.356250,40.424999,-2.693750,0.0,1.000000,0.000000,0.000000,0.000000
1782117324.689009,1827490,-0.964355,0.023926,-0.280762,1.402439,-0.243902,1.036585,-4.356250,40.424999,-2.693750,0.0,1.000000,0.000000,0.000000,0.000000
1782117324.700009,1827501,-0.964355,0.023926,-0.280762,1.341463,-0.365854,0.975610,-4.387500,40.387501,-2.725000,0.0,1.000000,0.000000,0.000000,0.000000
1782117324.709009,1827510,-0.964844,0.023926,-0.281738,1.463415,-0.243902,1.036585,-4.387500,40.387501,-2.725000,0.0,1.000000,0.000000,0.000000,0.000000
1782117324.720009,1827521,-0.964844,0.024414,-0.279785,1.646341,-0.243902,1.158537,-4.306250,40.424999,-2.643750,0.0,1.000000,0.000000,0.000000,0.000000
1782117324.729009,1827530,-0.962402,0.023926,-0.279785,1.951220,-0.243902,1.158537,-4.306250,40.424999,-2.643750,0.0,1.000000,0.000000,0.000000,0.000000
1782117324.739009,1827540,-0.963379,0.024414,-0.281250,2.073171,-0.304878,1.219512,-4.381250,40.381252,-2.650000,0.0,1.000000,0.000000,0.000000,0.000000
1782117324.750009,1827551,-0.963867,0.026367,-0.282227,1.951220,-0.365854,1.219512,-4.287500,40.512501,-2.581250,0.0,1.000000,0.000000,0.000000,0.000000
1782117324.759009,1827560,-0.963379,0.027832,-0.283691,1.768293,-0.365854,1.097561,-4.287500,40.512501,-2.581250,0.0,1.000000,0.000000,0.000000,0.000000
1782117324.769009,1827570,-0.963379,0.029297,-0.281738,1.768293,-0.243902,1.097561,-4.368750,40.393749,-2.606250,0.0,1.000000,0.000000,0.000000,0.000000
1782117324.780009,1827581,-0.963379,0.027832,-0.278809,1.768293,-0.243902,1.158537,-4.368750,40.393749,-2.606250,0.0,1.000000,0.000000,0.000000,0.000000
1782117324.789009,1827590,-0.963379,0.027832,-0.278809,1.768293,-0.243902,1.158537,-3.843750,41.012501,-2.587500,0.0,1.000000,0.000000,0.000000,0.000000
1782117324.799009,1827600,-0.962891,0.027344,-0.279297,1.768293,-0.304878,1.097561,-3.843750,41.012501,-2.587500,0.0,1.000000,0.000000,0.000000,0.000000
1782117324.809009,1827610,-0.963867,0.028320,-0.279785,1.646341,-0.365854,1.036585,-4.325000,40.493752,-2.637500,0.0,1.000000,0.000000,0.000000,0.000000
1782117324.822009,1827623,-0.964355,0.028809,-0.284180,0.731707,-0.426829,0.975610,-4.325000,40.493752,-2.637500,0.0,1.000000,0.000000,0.000000,0.000000
1782117324.829009,1827630,-0.964355,0.028809,-0.284180,0.731707,-0.426829,0.975610,-4.275000,40.512501,-2.562500,0.0,1.000000,0.000000,0.000000,0.000000
1782117324.839009,1827640,-0.964844,0.030273,-0.284668,0.426829,-0.426829,0.914634,-4.275000,40.512501,-2.562500,0.0,1.000000,0.000000,0.000000,0.000000
1782117324.850009,1827651,-0.964844,0.031738,-0.281738,0.182927,-0.365854,0.853659,-4.343750,40.437500,-2.550000,0.0,1.000000,0.000000,0.000000,0.000000
1782117324.860009,1827661,-0.961426,0.028320,-0.275879,0.243902,-0.365854,0.731707,-4.343750,40.437500,-2.550000,0.0,1.000000,0.000000,0.000000,0.000000
1782117324.869009,1827670,-0.961426,0.028320,-0.275879,0.243902,-0.365854,0.731707,-3.968750,40.725002,-2.562500,0.0,1.000000,0.000000,0.000000,0.000000
1782117324.879009,1827680,-0.964355,0.023926,-0.278320,0.060976,-0.304878,0.853659,-3.968750,40.725002,-2.562500,0.0,1.000000,0.000000,0.000000,0.000000
1782117324.889009,1827690,-0.965332,0.024902,-0.280273,-0.243902,-0.487805,0.853659,-4.081250,40.656250,-2.568750,0.0,1.000000,0.000000,0.000000,0.000000
1782117324.901009,1827702,-0.963379,0.026855,-0.280762,-0.243902,-0.426829,0.914634,-4.081250,40.656250,-2.568750,0.0,1.000000,0.000000,0.000000,0.000000
1782117324.909009,1827710,-0.963379,0.026855,-0.280762,-0.243902,-0.426829,0.914634,-4.237500,40.450001,-2.593750,0.0,1.000000,0.000000,0.000000,0.000000
1782117324.919009,1827720,-0.966797,0.026855,-0.281250,0.000000,-0.487805,0.975610,-4.237500,40.450001,-2.593750,0.0,1.000000,0.000000,0.000000,0.000000
1782117324.929009,1827730,-0.966797,0.027344,-0.285156,0.060976,-0.609756,0.914634,-4.143750,40.562500,-2.550000,0.0,1.000000,0.000000,0.000000,0.000000
1782117324.939009,1827740,-0.966797,0.027344,-0.282227,0.243902,-0.609756,0.731707,-4.143750,40.562500,-2.550000,0.0,1.000000,0.000000,0.000000,0.000000
1782117324.950009,1827751,-0.965820,0.026855,-0.279297,0.121951,-0.609756,0.609756,-4.300000,40.412502,-2.600000,0.0,1.000000,0.000000,0.000000,0.000000
1782117324.959009,1827760,-0.963379,0.026855,-0.276855,0.060976,-0.731707,0.548781,-4.300000,40.412502,-2.600000,0.0,1.000000,0.000000,0.000000,0.000000
1782117324.969009,1827770,-0.960938,0.026855,-0.274902,0.243902,-0.670732,0.670732,-4.318750,40.418751,-2.637500,0.0,1.000000,0.000000,0.000000,0.000000
1782117324.981009,1827782,-0.961914,0.026855,-0.276367,0.365854,-0.609756,0.853659,-4.050000,40.712502,-2.575000,0.0,1.000000,0.000000,0.000000,0.000000
1782117324.989009,1827790,-0.963379,0.025879,-0.279297,0.304878,-0.731707,1.036585,-4.050000,40.712502,-2.575000,0.0,1.000000,0.000000,0.000000,0.000000
1782117324.999009,1827800,-0.964355,0.027344,-0.280762,0.243902,-0.731707,1.097561,-4.050000,40.712502,-2.575000,0.0,1.000000,0.000000,0.000000,0.000000
1782117325.009009,1827810,-0.964355,0.028809,-0.280762,0.243902,-0.792683,1.036585,-3.781250,40.918751,-2.500000,0.0,1.000000,0.000000,0.000000,0.000000
1782117325.021009,1827822,-0.963379,0.027344,-0.280273,0.365854,-0.792683,0.975610,-4.406250,40.356251,-2.606250,0.0,1.000000,0.000000,0.000000,0.000000
1782117325.029009,1827830,-0.963379,0.027344,-0.279785,0.365854,-0.792683,0.914634,-4.406250,40.356251,-2.606250,0.0,1.000000,0.000000,0.000000,0.000000
1782117325.039009,1827840,-0.961914,0.029785,-0.278809,0.365854,-0.670732,0.853659,-4.406250,40.356251,-2.606250,0.0,1.000000,0.000000,0.000000,0.000000
1782117325.049009,1827850,-0.963379,0.029297,-0.277832,0.426829,-0.609756,0.914634,-4.162500,40.537502,-2.500000,0.0,1.000000,0.000000,0.000000,0.000000
1782117325.061009,1827862,-0.962891,0.029297,-0.276855,0.426829,-0.609756,0.975610,-4.356250,40.393749,-2.525000,0.0,1.000000,0.000000,0.000000,0.000000
1782117325.069009,1827870,-0.962891,0.027344,-0.278320,0.426829,-0.609756,1.097561,-4.356250,40.393749,-2.525000,0.0,1.000000,0.000000,0.000000,0.000000
1782117325.079009,1827880,-0.965332,0.025391,-0.280762,0.487805,-0.487805,1.158537,-4.131250,40.568752,-2.475000,0.0,1.000000,0.000000,0.000000,0.000000
1782117325.089009,1827890,-0.969238,0.024902,-0.280762,0.487805,-0.365854,1.036585,-4.131250,40.568752,-2.475000,0.0,1.000000,0.000000,0.000000,0.000000
1782117325.101009,1827902,-0.970215,0.025391,-0.275879,0.853659,-0.609756,0.975610,-4.300000,40.431252,-2.587500,0.0,1.000000,0.000000,0.000000,0.000000
1782117325.109009,1827910,-0.964844,0.024414,-0.272461,0.975610,-0.792683,0.914634,-4.300000,40.431252,-2.587500,0.0,1.000000,0.000000,0.000000,0.000000
1782117325.119009,1827920,-0.962891,0.026855,-0.273438,0.914634,-0.853659,0.975610,-4.181250,40.575001,-2.487500,0.0,1.000000,0.000000,0.000000,0.000000
1782117325.129009,1827930,-0.962402,0.030273,-0.274902,0.914634,-0.792683,0.975610,-4.181250,40.575001,-2.487500,0.0,1.000000,0.000000,0.000000,0.000000
1782117325.142009,1827943,-0.963379,0.032715,-0.275879,0.609756,-0.670732,0.975610,-4.256250,40.381252,-2.575000,0.0,1.000000,0.000000,0.000000,0.000000
1782117325.150009,1827951,-0.964355,0.033691,-0.276855,0.243902,-0.548781,0.975610,-4.256250,40.381252,-2.575000,0.0,1.000000,0.000000,0.000000,0.000000
1782117325.159009,1827960,-0.965332,0.032227,-0.276855,0.000000,-0.426829,1.036585,-4.243750,40.424999,-2.500000,0.0,1.000000,0.000000,0.000000,0.000000
1782117325.169009,1827970,-0.965820,0.030273,-0.278320,-0.304878,-0.426829,0.975610,-4.243750,40.424999,-2.500000,0.0,1.000000,0.000000,0.000000,0.000000
1782117325.182009,1827983,-0.967285,0.031250,-0.277344,-0.609756,-0.548781,0.731707,-4.275000,40.375000,-2.518750,0.0,1.000000,0.000000,0.000000,0.000000
1782117325.189009,1827990,-0.964844,0.029785,-0.273926,-0.731707,-0.487805,0.670732,-4.275000,40.375000,-2.518750,0.0,1.000000,0.000000,0.000000,0.000000
1782117325.199009,1828000,-0.963867,0.027832,-0.272949,-0.670732,-0.426829,0.670732,-4.275000,40.493752,-2.543750,0.0,1.000000,0.000000,0.000000,0.000000
1782117325.209009,1828010,-0.963379,0.026367,-0.274414,-0.548781,-0.243902,0.731707,-4.275000,40.493752,-2.543750,0.0,1.000000,0.000000,0.000000,0.000000
1782117325.222009,1828023,-0.962402,0.026855,-0.275879,-0.243902,-0.243902,0.792683,-4.325000,40.424999,-2.581250,0.0,1.000000,0.000000,0.000000,0.000000
1782117325.229009,1828030,-0.963379,0.025879,-0.275879,0.000000,-0.243902,0.792683,-4.325000,40.424999,-2.581250,0.0,1.000000,0.000000,0.000000,0.000000
1782117325.239009,1828040,-0.966309,0.024414,-0.277832,0.182927,-0.121951,0.792683,-4.218750,40.450001,-2.531250,0.0,1.000000,0.000000,0.000000,0.000000
1782117325.249009,1828050,-0.968262,0.026855,-0.276367,0.182927,-0.182927,0.731707,-4.218750,40.450001,-2.531250,0.0,1.000000,0.000000,0.000000,0.000000
1782117325.259009,1828060,-0.966309,0.028809,-0.272949,0.243902,-0.243902,0.670732,-4.337500,40.356251,-2.575000,0.0,1.000000,0.000000,0.000000,0.000000
1782117325.269009,1828070,-0.965820,0.029297,-0.269043,0.670732,-0.365854,0.731707,-4.337500,40.356251,-2.575000,0.0,1.000000,0.000000,0.000000,0.000000
1782117325.279009,1828080,-0.967285,0.028809,-0.269531,0.975610,-0.304878,0.914634,-4.312500,40.418751,-2.543750,0.0,1.000000,0.000000,0.000000,0.000000
1782117325.289009,1828090,-0.966797,0.027344,-0.270020,1.097561,-0.243902,0.975610,-4.312500,40.418751,-2.543750,0.0,1.000000,0.000000,0.000000,0.000000
1782117325.299009,1828100,-0.965820,0.027832,-0.272949,0.792683,-0.121951,0.914634,-4.362500,40.331249,-2.500000,0.0,1.000000,0.000000,0.000000,0.000000
1782117325.309009,1828110,-0.966797,0.030273,-0.273926,0.670732,-0.182927,0.975610,-4.362500,40.331249,-2.500000,0.0,1.000000,0.000000,0.000000,0.000000
1782117325.319009,1828120,-0.968750,0.028809,-0.272949,0.487805,-0.243902,0.792683,-4.300000,40.387501,-2.600000,0.0,1.000000,0.000000,0.000000,0.000000
1782117325.329009,1828130,-0.966797,0.030273,-0.270996,0.426829,-0.243902,0.670732,-4.300000,40.387501,-2.600000,0.0,1.000000,0.000000,0.000000,0.000000
1782117325.339009,1828140,-0.965820,0.028809,-0.270020,0.487805,-0.182927,0.670732,-4.337500,40.362499,-2.568750,0.0,1.000000,0.000000,0.000000,0.000000
1782117325.350009,1828151,-0.965332,0.026367,-0.270020,0.548781,-0.243902,0.792683,-4.275000,40.431252,-2.543750,0.0,1.000000,0.000000,0.000000,0.000000
1782117325.360009,1828161,-0.965332,0.026367,-0.270996,0.670732,-0.243902,0.914634,-4.275000,40.431252,-2.543750,0.0,1.000000,0.000000,0.000000,0.000000
1782117325.370009,1828171,-0.964844,0.027344,-0.274414,0.548781,-0.304878,0.914634,-4.375000,40.393749,-2.512500,0.0,1.000000,0.000000,0.000000,0.000000
1782117325.379009,1828180,-0.964844,0.026855,-0.277832,0.609756,-0.243902,0.975610,-4.375000,40.393749,-2.512500,0.0,1.000000,0.000000,0.000000,0.000000
1782117325.390009,1828191,-0.965332,0.025391,-0.281738,0.609756,-0.060976,0.914634,-4.237500,40.431252,-2.543750,0.0,1.000000,0.000000,0.000000,0.000000
1782117325.400009,1828201,-0.967773,0.025879,-0.280762,0.487805,0.060976,0.853659,-4.237500,40.431252,-2.543750,0.0,1.000000,0.000000,0.000000,0.000000
1782117325.409009,1828210,-0.965820,0.026367,-0.274414,0.731707,-0.243902,0.731707,-4.106250,40.575001,-2.450000,0.0,1.000000,0.000000,0.000000,0.000000
1782117325.419009,1828220,-0.962891,0.027832,-0.272949,1.097561,-0.304878,0.670732,-4.106250,40.575001,-2.450000,0.0,1.000000,0.000000,0.000000,0.000000
1782117325.430009,1828231,-0.963379,0.026855,-0.272461,1.402439,-0.060976,0.792683,-3.987500,40.787502,-2.481250,0.0,1.000000,0.000000,0.000000,0.000000
1782117325.439009,1828240,-0.962891,0.026855,-0.275391,1.158537,-0.060976,0.914634,-3.987500,40.787502,-2.481250,0.0,1.000000,0.000000,0.000000,0.000000
1782117325.452009,1828253,-0.964355,0.030273,-0.276855,0.914634,-0.060976,0.975610,-4.168750,40.512501,-2.518750,0.0,1.000000,0.000000,0.000000,0.000000
1782117325.459009,1828260,-0.963867,0.029785,-0.276367,0.670732,-0.121951,0.975610,-4.168750,40.512501,-2.518750,0.0,1.000000,0.000000,0.000000,0.000000
1782117325.469009,1828270,-0.964355,0.028809,-0.277344,0.609756,-0.060976,0.975610,-4.006250,40.674999,-2.450000,0.0,1.000000,0.000000,0.000000,0.000000
1782117325.479009,1828280,-0.966309,0.029297,-0.278809,0.731707,-0.060976,0.975610,-4.006250,40.674999,-2.450000,0.0,1.000000,0.000000,0.000000,0.000000
1782117325.489009,1828290,-0.964844,0.028809,-0.275879,0.792683,-0.060976,0.853659,-4.131250,40.506252,-2.537500,0.0,1.000000,0.000000,0.000000,0.000000
1782117325.499009,1828300,-0.965332,0.027344,-0.273926,0.731707,0.060976,0.731707,-4.131250,40.506252,-2.537500,0.0,1.000000,0.000000,0.000000,0.000000
1782117325.509009,1828310,-0.966309,0.027832,-0.274414,0.731707,0.182927,0.731707,-4.256250,40.381252,-2.556250,0.0,1.000000,0.000000,0.000000,0.000000
1782117325.519009,1828320,-0.965820,0.029297,-0.272461,0.670732,0.121951,0.792683,-4.256250,40.381252,-2.556250,0.0,1.000000,0.000000,0.000000,0.000000
1782117325.529009,1828330,-0.965820,0.026855,-0.271973,0.548781,0.121951,0.853659,-4.300000,40.381252,-2.512500,0.0,1.000000,0.000000,0.000000,0.000000
1782117325.539009,1828340,-0.966797,0.027344,-0.272949,0.426829,0.182927,0.853659,-4.300000,40.381252,-2.512500,0.0,1.000000,0.000000,0.000000,0.000000
1782117325.550009,1828351,-0.967285,0.027344,-0.271973,0.365854,0.121951,0.853659,-4.331250,40.375000,-2.550000,0.0,1.000000,0.000000,0.000000,0.000000
1782117325.560009,1828361,-0.966309,0.025879,-0.273926,0.426829,0.000000,0.914634,-4.331250,40.375000,-2.550000,0.0,1.000000,0.000000,0.000000,0.000000
1782117325.569009,1828370,-0.967773,0.027344,-0.273926,0.487805,0.060976,0.853659,-4.300000,40.412502,-2.631250,0.0,1.000000,0.000000,0.000000,0.000000
1782117325.580009,1828381,-0.965820,0.029297,-0.273438,0.670732,-0.060976,0.731707,-4.300000,40.412502,-2.631250,0.0,1.000000,0.000000,0.000000,0.000000
1782117325.590009,1828391,-0.963867,0.028809,-0.274902,0.853659,-0.060976,0.731707,-4.337500,40.356251,-2.512500,0.0,1.000000,0.000000,0.000000,0.000000
1782117325.599009,1828400,-0.966797,0.028809,-0.275391,0.975610,0.060976,0.853659,-4.337500,40.356251,-2.512500,0.0,1.000000,0.000000,0.000000,0.000000
1782117325.609009,1828410,-0.967285,0.027344,-0.274902,0.853659,0.000000,0.792683,-4.106250,40.593750,-2.475000,0.0,1.000000,0.000000,0.000000,0.000000
1782117325.619009,1828420,-0.967285,0.027344,-0.274902,0.853659,0.000000,0.792683,-4.106250,40.593750,-2.475000,0.0,1.000000,0.000000,0.000000,0.000000
1782117325.629009,1828430,-0.964355,0.028809,-0.274902,0.731707,-0.060976,0.670732,-4.306250,40.356251,-2.587500,0.0,1.000000,0.000000,0.000000,0.000000
1782117325.639009,1828440,-0.964355,0.028320,-0.274414,0.548781,0.121951,0.670732,-4.106250,40.575001,-2.481250,0.0,1.000000,0.000000,0.000000,0.000000
1782117325.649009,1828450,-0.964355,0.028809,-0.277344,0.304878,0.304878,0.670732,-4.106250,40.575001,-2.481250,0.0,1.000000,0.000000,0.000000,0.000000
1782117325.659009,1828460,-0.962891,0.027832,-0.279785,0.060976,0.304878,0.670732,-4.293750,40.362499,-2.550000,0.0,1.000000,0.000000,0.000000,0.000000
1782117325.669009,1828470,-0.963867,0.026855,-0.283691,-0.243902,0.426829,0.609756,-4.293750,40.362499,-2.550000,0.0,1.000000,0.000000,0.000000,0.000000
1782117325.679009,1828480,-0.963379,0.028320,-0.285645,-0.731707,0.548781,0.304878,-4.287500,40.400002,-2.581250,0.0,1.000000,0.000000,0.000000,0.000000
1782117325.689009,1828490,-0.960938,0.029297,-0.284668,-0.792683,0.609756,0.121951,-4.287500,40.400002,-2.581250,0.0,1.000000,0.000000,0.000000,0.000000
1782117325.699009,1828500,-0.960449,0.028809,-0.282227,-0.670732,0.853659,0.060976,-4.343750,40.362499,-2.537500,0.0,1.000000,0.000000,0.000000,0.000000
1782117325.709009,1828510,-0.962402,0.028809,-0.280762,-0.487805,0.914634,0.182927,-4.343750,40.362499,-2.537500,0.0,1.000000,0.000000,0.000000,0.000000
1782117325.719009,1828520,-0.964355,0.027344,-0.279297,-0.365854,0.670732,0.304878,-4.100000,40.625000,-2.543750,0.0,1.000000,0.000000,0.000000,0.000000
1782117325.729009,1828530,-0.965820,0.028809,-0.279785,-0.487805,0.609756,0.487805,-4.100000,40.625000,-2.543750,0.0,1.000000,0.000000,0.000000,0.000000
1782117325.739009,1828540,-0.965820,0.031250,-0.278809,-0.731707,0.487805,0.426829,-4.093750,40.706249,-2.556250,0.0,1.000000,0.000000,0.000000,0.000000
1782117325.749009,1828550,-0.961426,0.030273,-0.277832,-0.975610,0.426829,0.365854,-4.093750,40.706249,-2.556250,0.0,1.000000,0.000000,0.000000,0.000000
1782117325.759009,1828560,-0.962891,0.026855,-0.279297,-1.219512,0.670732,0.243902,-4.112500,40.643749,-2.587500,0.0,1.000000,0.000000,0.000000,0.000000
1782117325.770009,1828571,-0.964355,0.026855,-0.280762,-1.341463,0.731707,0.243902,-4.112500,40.643749,-2.587500,0.0,1.000000,0.000000,0.000000,0.000000
1782117325.779009,1828580,-0.965820,0.026367,-0.278809,-1.097561,0.548781,0.365854,-4.131250,40.650002,-2.625000,0.0,1.000000,0.000000,0.000000,0.000000
1782117325.789009,1828590,-0.967285,0.029297,-0.274902,-0.853659,0.487805,0.304878,-4.131250,40.650002,-2.625000,0.0,1.000000,0.000000,0.000000,0.000000
1782117325.799009,1828600,-0.968262,0.029297,-0.272461,-0.731707,0.426829,0.426829,-4.306250,40.456249,-2.637500,0.0,1.000000,0.000000,0.000000,0.000000
1782117325.810009,1828611,-0.965820,0.028809,-0.272461,-0.731707,0.365854,0.487805,-4.306250,40.456249,-2.637500,0.0,1.000000,0.000000,0.000000,0.000000
1782117325.820009,1828621,-0.967285,0.028320,-0.273926,-0.731707,0.243902,0.548781,-4.375000,40.400002,-2.706250,0.0,1.000000,0.000000,0.000000,0.000000
1782117325.830009,1828631,-0.967285,0.029297,-0.275391,-0.975610,0.243902,0.548781,-4.375000,40.400002,-2.706250,0.0,1.000000,0.000000,0.000000,0.000000
1782117325.840009,1828641,-0.966309,0.028809,-0.273926,-0.853659,0.000000,0.609756,-4.325000,40.443752,-2.681250,0.0,1.000000,0.000000,0.000000,0.000000
1782117325.850009,1828651,-0.965332,0.026367,-0.273438,-0.609756,-0.060976,0.609756,-4.325000,40.443752,-2.681250,0.0,1.000000,0.000000,0.000000,0.000000
1782117325.859009,1828660,-0.964355,0.026367,-0.274414,-0.182927,-0.121951,0.609756,-4.437500,40.368752,-2.700000,0.0,1.000000,0.000000,0.000000,0.000000
1782117325.869009,1828670,-0.963867,0.024902,-0.275879,0.121951,0.060976,0.670732,-4.437500,40.368752,-2.700000,0.0,1.000000,0.000000,0.000000,0.000000
1782117325.880009,1828681,-0.965332,0.023926,-0.277832,0.426829,-0.060976,0.792683,-4.131250,40.612499,-2.687500,0.0,1.000000,0.000000,0.000000,0.000000
1782117325.889009,1828690,-0.965332,0.025391,-0.278320,0.365854,-0.060976,0.853659,-4.131250,40.612499,-2.687500,0.0,1.000000,0.000000,0.000000,0.000000
1782117325.899009,1828700,-0.965820,0.026855,-0.277832,0.304878,-0.243902,0.914634,-4.437500,40.312500,-2.706250,0.0,1.000000,0.000000,0.000000,0.000000
1782117325.910009,1828711,-0.964355,0.028320,-0.278320,0.548781,-0.243902,0.853659,-4.387500,40.431252,-2.700000,0.0,1.000000,0.000000,0.000000,0.000000
1782117325.919009,1828720,-0.964844,0.029297,-0.275391,0.670732,-0.121951,0.853659,-4.387500,40.431252,-2.700000,0.0,1.000000,0.000000,0.000000,0.000000
1782117325.929009,1828730,-0.963867,0.028809,-0.276367,0.731707,-0.182927,0.853659,-4.431250,40.393749,-2.750000,0.0,1.000000,0.000000,0.000000,0.000000
1782117325.939009,1828740,-0.965332,0.027832,-0.278320,0.731707,-0.060976,0.853659,-4.431250,40.393749,-2.750000,0.0,1.000000,0.000000,0.000000,0.000000
1782117325.949009,1828750,-0.966309,0.027344,-0.277832,0.670732,0.060976,0.792683,-4.437500,40.450001,-2.675000,0.0,1.000000,0.000000,0.000000,0.000000
1782117325.959009,1828760,-0.967285,0.029297,-0.279297,0.548781,0.000000,0.914634,-4.437500,40.450001,-2.675000,0.0,1.000000,0.000000,0.000000,0.000000
1782117325.969009,1828770,-0.966797,0.030273,-0.277832,0.548781,-0.304878,0.853659,-4.450000,40.368752,-2.700000,0.0,1.000000,0.000000,0.000000,0.000000
1782117325.980009,1828781,-0.964355,0.029785,-0.276367,0.609756,-0.304878,0.792683,-4.450000,40.368752,-2.700000,0.0,1.000000,0.000000,0.000000,0.000000
1782117325.990009,1828791,-0.964844,0.028320,-0.277832,0.548781,-0.365854,0.853659,-4.362500,40.475002,-2.662500,0.0,1.000000,0.000000,0.000000,0.000000
1782117326.000009,1828801,-0.966309,0.028320,-0.279785,0.426829,-0.426829,0.853659,-4.362500,40.475002,-2.662500,0.0,1.000000,0.000000,0.000000,0.000000
1782117326.009009,1828810,-0.964355,0.027344,-0.282715,0.304878,-0.548781,0.792683,-4.381250,40.400002,-2.706250,0.0,1.000000,0.000000,0.000000,0.000000
1782117326.020009,1828821,-0.965332,0.029297,-0.283203,0.060976,-0.426829,0.731707,-4.381250,40.400002,-2.706250,0.0,1.000000,0.000000,0.000000,0.000000
1782117326.029009,1828830,-0.963867,0.031738,-0.280273,0.000000,-0.487805,0.609756,-4.225000,40.506252,-2.637500,0.0,1.000000,0.000000,0.000000,0.000000
1782117326.039009,1828840,-0.962891,0.029297,-0.278320,0.000000,-0.365854,0.609756,-4.225000,40.506252,-2.637500,0.0,1.000000,0.000000,0.000000,0.000000
1782117326.049009,1828850,-0.960449,0.029297,-0.277832,0.121951,-0.365854,0.609756,-4.381250,40.418751,-2.681250,0.0,1.000000,0.000000,0.000000,0.000000
1782117326.059009,1828860,-0.962402,0.029785,-0.278809,0.000000,-0.182927,0.731707,-4.381250,40.418751,-2.681250,0.0,1.000000,0.000000,0.000000,0.000000
1782117326.069009,1828870,-0.964355,0.030273,-0.280273,-0.060976,-0.121951,0.792683,-4.331250,40.462502,-2.675000,0.0,1.000000,0.000000,0.000000,0.000000
1782117326.079009,1828880,-0.965332,0.028809,-0.278809,-0.304878,-0.243902,0.792683,-4.331250,40.462502,-2.675000,0.0,1.000000,0.000000,0.000000,0.000000
1782117326.089009,1828890,-0.964844,0.029297,-0.279297,-0.487805,-0.304878,0.731707,-4.350000,40.450001,-2.693750,0.0,1.000000,0.000000,0.000000,0.000000
1782117326.099009,1828900,-0.964355,0.027344,-0.280762,-0.670732,-0.365854,0.731707,-4.350000,40.450001,-2.693750,0.0,1.000000,0.000000,0.000000,0.000000
1782117326.109009,1828910,-0.964355,0.030273,-0.280762,-0.731707,-0.304878,0.670732,-4.381250,40.418751,-2.637500,0.0,1.000000,0.000000,0.000000,0.000000
1782117326.119009,1828920,-0.961914,0.031250,-0.279297,-0.609756,-0.304878,0.609756,-4.381250,40.418751,-2.637500,0.0,1.000000,0.000000,0.000000,0.000000
1782117326.129009,1828930,-0.961914,0.028809,-0.278320,-0.548781,-0.121951,0.548781,-4.406250,40.387501,-2.693750,0.0,1.000000,0.000000,0.000000,0.000000
1782117326.139009,1828940,-0.964355,0.028320,-0.278320,-0.609756,-0.060976,0.548781,-4.406250,40.387501,-2.693750,0.0,1.000000,0.000000,0.000000,0.000000
1782117326.149009,1828950,-0.966309,0.026855,-0.278320,-0.609756,0.000000,0.609756,-4.406250,40.350002,-2.725000,0.0,1.000000,0.000000,0.000000,0.000000
1782117326.159009,1828960,-0.964844,0.024902,-0.276367,-0.487805,-0.121951,0.670732,-4.406250,40.350002,-2.725000,0.0,1.000000,0.000000,0.000000,0.000000
1782117326.169009,1828970,-0.965332,0.024414,-0.277344,-0.304878,-0.060976,0.731707,-4.175000,40.606251,-2.631250,0.0,1.000000,0.000000,0.000000,0.000000
1782117326.179009,1828980,-0.966309,0.023926,-0.279297,-0.121951,-0.243902,0.792683,-4.175000,40.606251,-2.631250,0.0,1.000000,0.000000,0.000000,0.000000
1782117326.190009,1828991,-0.965332,0.025879,-0.277832,0.060976,-0.426829,0.792683,-4.487500,40.325001,-2.743750,0.0,1.000000,0.000000,0.000000,0.000000
1782117326.199009,1829000,-0.964844,0.027344,-0.278320,0.426829,-0.548781,0.853659,-4.487500,40.325001,-2.743750,0.0,1.000000,0.000000,0.000000,0.000000
1782117326.210009,1829011,-0.965332,0.026367,-0.276367,0.914634,-0.548781,1.036585,-4.406250,40.456249,-2.681250,0.0,1.000000,0.000000,0.000000,0.000000
1782117326.220009,1829021,-0.964355,0.027344,-0.275879,1.219512,-0.548781,1.097561,-4.456250,40.318752,-2.700000,0.0,1.000000,0.000000,0.000000,0.000000
1782117326.231009,1829032,-0.963379,0.025879,-0.279297,1.341463,-0.548781,1.097561,-4.456250,40.318752,-2.700000,0.0,1.000000,0.000000,0.000000,0.000000
1782117326.240009,1829041,-0.964355,0.025879,-0.281738,1.219512,-0.304878,0.975610,-4.331250,40.381252,-2.712500,0.0,1.000000,0.000000,0.000000,0.000000
1782117326.250009,1829051,-0.967773,0.026855,-0.280762,1.036585,-0.304878,0.853659,-4.331250,40.381252,-2.712500,0.0,1.000000,0.000000,0.000000,0.000000
1782117326.259009,1829060,-0.966797,0.028320,-0.277344,1.097561,-0.365854,0.792683,-4.431250,40.356251,-2.625000,0.0,1.000000,0.000000,0.000000,0.000000
1782117326.270009,1829071,-0.962891,0.029297,-0.273438,1.402439,-0.426829,0.914634,-4.431250,40.356251,-2.625000,0.0,1.000000,0.000000,0.000000,0.000000
1782117326.279009,1829080,-0.963867,0.029297,-0.272461,1.829268,-0.426829,1.036585,-4.343750,40.406250,-2.650000,0.0,1.000000,0.000000,0.000000,0.000000
1782117326.290009,1829091,-0.962891,0.028320,-0.273926,1.829268,-0.487805,1.158537,-4.343750,40.406250,-2.650000,0.0,1.000000,0.000000,0.000000,0.000000
1782117326.299009,1829100,-0.964844,0.028809,-0.278320,1.524390,-0.426829,1.280488,-4.356250,40.456249,-2.681250,0.0,1.000000,0.000000,0.000000,0.000000
1782117326.309009,1829110,-0.967285,0.029297,-0.279297,1.341463,-0.548781,1.280488,-4.356250,40.456249,-2.681250,0.0,1.000000,0.000000,0.000000,0.000000
1782117326.320009,1829121,-0.965332,0.029297,-0.278809,1.463415,-0.670732,1.280488,-4.318750,40.500000,-2.625000,0.0,1.000000,0.000000,0.000000,0.000000
1782117326.329009,1829130,-0.964844,0.027344,-0.277344,1.524390,-0.670732,1.158537,-4.318750,40.500000,-2.625000,0.0,1.000000,0.000000,0.000000,0.000000
1782117326.339009,1829140,-0.965820,0.028320,-0.276367,1.707317,-0.548781,1.158537,-4.331250,40.481251,-2.650000,0.0,1.000000,0.000000,0.000000,0.000000
1782117326.352009,1829153,-0.964844,0.026367,-0.274902,1.707317,-0.426829,1.036585,-4.331250,40.481251,-2.650000,0.0,1.000000,0.000000,0.000000,0.000000
1782117326.359009,1829160,-0.964844,0.026855,-0.275879,1.707317,-0.487805,1.036585,-4.275000,40.556252,-2.618750,0.0,1.000000,0.000000,0.000000,0.000000
1782117326.369009,1829170,-0.966309,0.028320,-0.276367,1.585366,-0.487805,1.097561,-4.275000,40.556252,-2.618750,0.0,1.000000,0.000000,0.000000,0.000000
1782117326.379009,1829180,-0.965332,0.027832,-0.277832,1.524390,-0.609756,1.158537,-4.306250,40.481251,-2.650000,0.0,1.000000,0.000000,0.000000,0.000000
1782117326.391009,1829192,-0.962891,0.029785,-0.277344,1.463415,-0.670732,1.158537,-4.306250,40.481251,-2.650000,0.0,1.000000,0.000000,0.000000,0.000000
1782117326.400009,1829201,-0.964844,0.029297,-0.277832,1.524390,-0.487805,1.219512,-4.306250,40.468750,-2.587500,0.0,1.000000,0.000000,0.000000,0.000000
1782117326.409009,1829210,-0.966309,0.028809,-0.279297,1.402439,-0.487805,1.158537,-4.306250,40.468750,-2.587500,0.0,1.000000,0.000000,0.000000,0.000000
1782117326.420009,1829221,-0.966309,0.029785,-0.280273,1.341463,-0.548781,1.158537,-4.381250,40.424999,-2.568750,0.0,1.000000,0.000000,0.000000,0.000000
1782117326.431009,1829232,-0.965820,0.030762,-0.276855,1.402439,-0.670732,1.036585,-4.381250,40.424999,-2.568750,0.0,1.000000,0.000000,0.000000,0.000000
1782117326.439009,1829240,-0.965820,0.029297,-0.274414,1.524390,-0.670732,1.036585,-4.337500,40.418751,-2.587500,0.0,1.000000,0.000000,0.000000,0.000000
1782117326.449009,1829250,-0.964355,0.028320,-0.273438,1.463415,-0.731707,1.097561,-4.337500,40.418751,-2.587500,0.0,1.000000,0.000000,0.000000,0.000000
1782117326.459009,1829260,-0.964355,0.028320,-0.273438,1.463415,-0.731707,1.097561,-4.268750,40.475002,-2.487500,0.0,1.000000,0.000000,0.000000,0.000000
1782117326.472009,1829273,-0.963379,0.029297,-0.275879,1.097561,-0.914634,1.036585,-4.306250,40.450001,-2.568750,0.0,1.000000,0.000000,0.000000,0.000000
1782117326.479009,1829280,-0.963379,0.029297,-0.275879,1.097561,-0.914634,1.036585,-4.306250,40.450001,-2.568750,0.0,1.000000,0.000000,0.000000,0.000000
1782117326.489009,1829290,-0.963379,0.029785,-0.277344,1.036585,-0.792683,1.097561,-4.306250,40.450001,-2.568750,0.0,1.000000,0.000000,0.000000,0.000000
1782117326.499009,1829300,-0.963379,0.028809,-0.278809,0.975610,-0.670732,1.097561,-4.256250,40.443752,-2.556250,0.0,1.000000,0.000000,0.000000,0.000000
1782117326.512009,1829313,-0.967773,0.025391,-0.276855,1.036585,-0.670732,1.036585,-4.368750,40.387501,-2.568750,0.0,1.000000,0.000000,0.000000,0.000000
1782117326.519009,1829320,-0.967773,0.025391,-0.276855,1.036585,-0.670732,1.036585,-4.368750,40.387501,-2.568750,0.0,1.000000,0.000000,0.000000,0.000000
1782117326.529009,1829330,-0.966797,0.024902,-0.273438,1.280488,-0.853659,0.975610,-4.006250,40.712502,-2.418750,0.0,1.000000,0.000000,0.000000,0.000000
1782117326.540009,1829341,-0.968750,0.025391,-0.273438,1.585366,-1.097561,1.158537,-4.006250,40.712502,-2.418750,0.0,1.000000,0.000000,0.000000,0.000000
1782117326.550009,1829351,-0.966797,0.027832,-0.272461,1.829268,-1.463415,1.280488,-4.306250,40.418751,-2.525000,0.0,1.000000,0.000000,0.000000,0.000000
1782117326.559009,1829360,-0.965332,0.027832,-0.272461,1.829268,-1.524390,1.219512,-4.306250,40.418751,-2.525000,0.0,1.000000,0.000000,0.000000,0.000000
1782117326.569009,1829370,-0.965332,0.028809,-0.272949,1.768293,-1.219512,1.280488,-4.212500,40.450001,-2.456250,0.0,1.000000,0.000000,0.000000,0.000000
1782117326.579009,1829380,-0.967773,0.028809,-0.271484,1.951220,-1.341463,1.341463,-4.212500,40.450001,-2.456250,0.0,1.000000,0.000000,0.000000,0.000000
1782117326.593009,1829394,-0.968750,0.027832,-0.270020,2.012195,-1.158537,1.158537,-4.256250,40.424999,-2.437500,0.0,1.000000,0.000000,0.000000,0.000000
1782117326.599009,1829400,-0.968750,0.027832,-0.270020,2.012195,-1.158537,1.158537,-4.256250,40.424999,-2.437500,0.0,1.000000,0.000000,0.000000,0.000000
1782117326.609009,1829410,-0.968750,0.028320,-0.272461,1.707317,-1.219512,1.219512,-4.068750,40.600002,-2.387500,0.0,1.000000,0.000000,0.000000,0.000000
1782117326.619009,1829420,-0.964844,0.029785,-0.272949,1.280488,-1.402439,1.036585,-4.068750,40.600002,-2.387500,0.0,1.000000,0.000000,0.000000,0.000000
1782117326.631009,1829432,-0.964355,0.034180,-0.274414,0.304878,-1.158537,0.914634,-4.275000,40.406250,-2.450000,0.0,1.000000,0.000000,0.000000,0.000000
1782117326.639009,1829440,-0.964355,0.034180,-0.274414,0.304878,-1.158537,0.914634,-4.275000,40.406250,-2.450000,0.0,1.000000,0.000000,0.000000,0.000000
1782117326.649009,1829450,-0.964355,0.035645,-0.273926,0.060976,-1.097561,0.914634,-4.231250,40.431252,-2.400000,0.0,1.000000,0.000000,0.000000,0.000000
1782117326.659009,1829460,-0.961914,0.034668,-0.273926,-0.121951,-1.036585,0.914634,-4.231250,40.431252,-2.400000,0.0,1.000000,0.000000,0.000000,0.000000
1782117326.673009,1829474,-0.958496,0.029297,-0.278809,-0.487805,-0.487805,0.914634,-4.018750,40.718750,-2.350000,0.0,1.000000,0.000000,0.000000,0.000000
1782117326.680009,1829481,-0.958496,0.029297,-0.278809,-0.487805,-0.487805,0.914634,-4.018750,40.718750,-2.350000,0.0,1.000000,0.000000,0.000000,0.000000
1782117326.689009,1829490,-0.963379,0.028320,-0.283203,-0.670732,-0.243902,0.853659,-4.250000,40.418751,-2.387500,0.0,1.000000,0.000000,0.000000,0.000000
1782117326.699009,1829500,-0.967773,0.027832,-0.281738,-0.731707,-0.243902,0.853659,-4.250000,40.418751,-2.387500,0.0,1.000000,0.000000,0.000000,0.000000
1782117326.711009,1829512,-0.967285,0.029297,-0.279297,-0.670732,-0.365854,0.792683,-4.256250,40.431252,-2.418750,0.0,1.000000,0.000000,0.000000,0.000000
1782117326.719009,1829520,-0.965332,0.030273,-0.272949,-0.365854,-0.426829,0.792683,-4.256250,40.431252,-2.418750,0.0,1.000000,0.000000,0.000000,0.000000
1782117326.729009,1829530,-0.962402,0.027344,-0.271973,-0.182927,-0.304878,0.914634,-4.256250,40.412502,-2.393750,0.0,1.000000,0.000000,0.000000,0.000000
1782117326.740009,1829541,-0.965820,0.027344,-0.272949,0.000000,-0.243902,0.975610,-4.256250,40.412502,-2.393750,0.0,1.000000,0.000000,0.000000,0.000000
1782117326.753009,1829554,-0.969238,0.027832,-0.273926,0.000000,-0.365854,1.036585,-4.268750,40.356251,-2.450000,0.0,1.000000,0.000000,0.000000,0.000000
1782117326.759009,1829560,-0.972168,0.028320,-0.270996,0.121951,-0.609756,0.853659,-4.268750,40.356251,-2.450000,0.0,1.000000,0.000000,0.000000,0.000000
1782117326.770009,1829571,-0.972656,0.030273,-0.265137,0.304878,-0.853659,0.792683,-4.231250,40.456249,-2.400000,0.0,1.000000,0.000000,0.000000,0.000000
1782117326.779009,1829580,-0.970215,0.033203,-0.261230,0.487805,-0.975610,0.792683,-4.231250,40.456249,-2.400000,0.0,1.000000,0.000000,0.000000,0.000000
1782117326.791009,1829592,-0.967773,0.034180,-0.259766,0.731707,-1.036585,0.792683,-4.356250,40.337502,-2.362500,0.0,1.000000,0.000000,0.000000,0.000000
1782117326.799009,1829600,-0.965820,0.032715,-0.261719,0.548781,-0.975610,0.853659,-4.356250,40.337502,-2.362500,0.0,1.000000,0.000000,0.000000,0.000000
1782117326.809009,1829610,-0.966309,0.033203,-0.265137,0.121951,-0.731707,0.914634,-4.168750,40.443752,-2.368750,0.0,1.000000,0.000000,0.000000,0.000000
1782117326.820009,1829621,-0.965820,0.033691,-0.267578,-0.304878,-0.731707,0.853659,-4.081250,40.612499,-2.262500,0.0,1.000000,0.000000,0.000000,0.000000
1782117326.832009,1829633,-0.966797,0.031250,-0.268555,-0.609756,-0.670732,0.792683,-4.081250,40.612499,-2.262500,0.0,1.000000,0.000000,0.000000,0.000000
1782117326.840009,1829641,-0.967773,0.029297,-0.270508,-0.670732,-0.670732,0.731707,-4.293750,40.443752,-2.400000,0.0,1.000000,0.000000,0.000000,0.000000
1782117326.850009,1829651,-0.968750,0.027832,-0.269043,-0.304878,-0.731707,0.670732,-4.293750,40.443752,-2.400000,0.0,1.000000,0.000000,0.000000,0.000000
1782117326.859009,1829660,-0.966309,0.027832,-0.268066,0.121951,-0.670732,0.670732,-4.293750,40.362499,-2.350000,0.0,1.000000,0.000000,0.000000,0.000000
1782117326.871009,1829672,-0.964844,0.028320,-0.267090,0.426829,-0.548781,0.731707,-4.293750,40.362499,-2.350000,0.0,1.000000,0.000000,0.000000,0.000000
1782117326.879009,1829680,-0.965332,0.028320,-0.266602,0.487805,-0.304878,0.731707,-4.237500,40.475002,-2.343750,0.0,1.000000,0.000000,0.000000,0.000000
1782117326.889009,1829690,-0.967285,0.026855,-0.267578,0.365854,-0.182927,0.853659,-4.237500,40.475002,-2.343750,0.0,1.000000,0.000000,0.000000,0.000000
1782117326.899009,1829700,-0.966309,0.026855,-0.268555,0.426829,-0.060976,0.914634,-4.268750,40.412502,-2.343750,0.0,1.000000,0.000000,0.000000,0.000000
1782117326.909009,1829710,-0.968262,0.028320,-0.269043,0.670732,0.000000,0.853659,-4.268750,40.412502,-2.343750,0.0,1.000000,0.000000,0.000000,0.000000
1782117326.919009,1829720,-0.967285,0.031250,-0.267090,0.975610,-0.060976,0.914634,-4.231250,40.475002,-2.312500,0.0,1.000000,0.000000,0.000000,0.000000
1782117326.929009,1829730,-0.964844,0.031250,-0.266113,1.097561,0.000000,0.853659,-4.231250,40.475002,-2.312500,0.0,1.000000,0.000000,0.000000,0.000000
1782117326.939009,1829740,-0.966309,0.031250,-0.266113,1.219512,0.060976,0.853659,-4.206250,40.437500,-2.331250,0.0,1.000000,0.000000,0.000000,0.000000
1782117326.952009,1829753,-0.967773,0.030762,-0.266113,1.158537,0.121951,0.975610,-4.206250,40.437500,-2.331250,0.0,1.000000,0.000000,0.000000,0.000000
1782117326.959009,1829760,-0.969238,0.029785,-0.267578,1.036585,0.060976,0.975610,-4.168750,40.487499,-2.312500,0.0,1.000000,0.000000,0.000000,0.000000
1782117326.969009,1829770,-0.967773,0.029785,-0.270508,0.792683,-0.121951,0.853659,-4.168750,40.487499,-2.312500,0.0,1.000000,0.000000,0.000000,0.000000
1782117326.979009,1829780,-0.969727,0.027832,-0.273926,0.670732,-0.121951,0.914634,-4.237500,40.387501,-2.343750,0.0,1.000000,0.000000,0.000000,0.000000
1782117326.991009,1829792,-0.973145,0.029297,-0.274902,0.731707,-0.182927,0.914634,-4.237500,40.387501,-2.343750,0.0,1.000000,0.000000,0.000000,0.000000
1782117326.999009,1829800,-0.972656,0.029297,-0.273926,0.792683,-0.365854,0.975610,-4.043750,40.531250,-2.306250,0.0,1.000000,0.000000,0.000000,0.000000
1782117327.009009,1829810,-0.974121,0.029297,-0.273926,0.914634,-0.426829,1.097561,-4.043750,40.531250,-2.306250,0.0,1.000000,0.000000,0.000000,0.000000
1782117327.019009,1829820,-0.976562,0.027832,-0.279785,0.975610,-0.670732,1.402439,-4.200000,40.381252,-2.337500,0.0,1.000000,0.000000,0.000000,0.000000
1782117327.031009,1829832,-0.961914,0.018066,-0.282227,0.914634,-1.219512,1.158537,-4.200000,40.381252,-2.337500,0.0,1.000000,0.000000,0.000000,0.000000
1782117327.040009,1829841,-0.958496,0.012695,-0.286621,1.097561,-0.853659,0.914634,-4.137500,40.462502,-2.268750,0.0,1.000000,0.000000,0.000000,0.000000
1782117327.049009,1829850,-0.974121,0.013672,-0.286133,1.646341,-0.914634,1.097561,-4.137500,40.462502,-2.268750,0.0,1.000000,0.000000,0.000000,0.000000
1782117327.059009,1829860,-0.975098,0.013184,-0.283691,1.890244,-1.768293,1.097561,-4.225000,40.331249,-2.337500,0.0,1.000000,0.000000,0.000000,0.000000
1782117327.070009,1829871,-0.963379,0.016113,-0.283691,2.195122,-2.560976,1.036585,-4.225000,40.331249,-2.337500,0.0,1.000000,0.000000,0.000000,0.000000
1782117327.079009,1829880,-0.956055,0.017090,-0.289551,2.439024,-2.621951,1.280488,-4.231250,40.268749,-2.212500,0.0,1.000000,0.000000,0.000000,0.000000
1782117327.089009,1829890,-0.954590,0.021973,-0.299805,1.890244,-2.134146,1.585366,-4.231250,40.268749,-2.212500,0.0,1.000000,0.000000,0.000000,0.000000
1782117327.099009,1829900,-0.951172,0.028809,-0.310059,1.341463,-1.768293,1.829268,-4.262500,40.293751,-2.200000,0.0,1.000000,0.000000,0.000000,0.000000
1782117327.109009,1829910,-0.949219,0.028320,-0.314941,0.914634,-1.402439,1.890244,-4.262500,40.293751,-2.200000,0.0,1.000000,0.000000,0.000000,0.000000
1782117327.119009,1829920,-0.948730,0.023438,-0.315918,0.243902,-1.402439,1.524390,-4.218750,40.306252,-2.231250,0.0,1.000000,0.000000,0.000000,0.000000
1782117327.129009,1829930,-0.948730,0.025879,-0.314453,-0.548781,-1.463415,1.158537,-4.187500,40.343750,-2.181250,0.0,1.000000,0.000000,0.000000,0.000000
1782117327.139009,1829940,-0.947266,0.023438,-0.310059,-0.731707,-1.585366,1.097561,-4.187500,40.343750,-2.181250,0.0,1.000000,0.000000,0.000000,0.000000
1782117327.149009,1829950,-0.948242,0.020996,-0.305176,-0.365854,-1.646341,1.280488,-4.225000,40.337502,-2.206250,0.0,1.000000,0.000000,0.000000,0.000000
1782117327.159009,1829960,-0.950684,0.013184,-0.301758,0.365854,-1.890244,1.646341,-4.225000,40.337502,-2.206250,0.0,1.000000,0.000000,0.000000,0.000000
1782117327.169009,1829970,-0.955078,0.003418,-0.301270,1.158537,-2.317073,2.012195,-4.031250,40.462502,-2.125000,0.0,1.000000,0.000000,0.000000,0.000000
1782117327.179009,1829980,-0.960449,-0.005371,-0.296875,2.256098,-2.926829,2.195122,-4.031250,40.462502,-2.125000,0.0,1.000000,0.000000,0.000000,0.000000
1782117327.190009,1829991,-0.960938,-0.012207,-0.293457,3.902439,-3.719512,2.256098,-4.131250,40.331249,-2.137500,0.0,1.000000,0.000000,0.000000,0.000000
1782117327.199009,1830000,-0.967773,-0.013672,-0.290527,6.341464,-4.451220,2.317073,-4.131250,40.331249,-2.137500,0.0,1.000000,0.000000,0.000000,0.000000
1782117327.209009,1830010,-0.978027,-0.000488,-0.297363,8.963415,-5.670732,2.682927,-4.056250,40.387501,-1.968750,0.0,1.000000,0.000000,0.000000,0.000000
1782117327.220009,1830021,-0.967773,0.013184,-0.294922,10.670732,-7.134147,2.743902,-4.056250,40.387501,-1.968750,0.0,1.000000,0.000000,0.000000,0.000000
1782117327.230009,1830031,-0.958008,0.019531,-0.294922,10.914635,-7.195122,2.743902,-3.956250,40.337502,-1.843750,0.0,1.000000,0.000000,0.000000,0.000000
1782117327.240009,1830041,-0.958984,0.026855,-0.298828,10.487805,-6.646342,2.987805,-3.956250,40.337502,-1.843750,0.0,1.000000,0.000000,0.000000,0.000000
1782117327.250009,1830051,-0.959473,0.033691,-0.299805,10.060976,-6.646342,3.292683,-3.831250,40.437500,-1.700000,0.0,1.000000,0.000000,0.000000,0.000000
1782117327.259009,1830060,-0.955078,0.034180,-0.302246,9.878049,-7.012195,3.658537,-3.831250,40.437500,-1.700000,0.0,1.000000,0.000000,0.000000,0.000000
1782117327.270009,1830071,-0.954102,0.030273,-0.305664,9.878049,-7.317073,4.146341,-3.825000,40.287502,-1.656250,0.0,1.000000,0.000000,0.000000,0.000000
1782117327.279009,1830080,-0.958496,0.024902,-0.310547,9.756098,-8.170732,4.390244,-3.825000,40.287502,-1.656250,0.0,1.000000,0.000000,0.000000,0.000000
1782117327.289009,1830090,-0.963867,0.016113,-0.311035,10.426829,-9.146341,4.634146,-3.793750,40.250000,-1.481250,0.0,1.000000,0.000000,0.000000,0.000000
1782117327.299009,1830100,-0.973633,0.011230,-0.313965,11.524390,-10.487805,4.939024,-3.793750,40.250000,-1.481250,0.0,1.000000,0.000000,0.000000,0.000000
1782117327.309009,1830110,-0.973633,0.011230,-0.313965,11.524390,-10.487805,4.939024,-3.706250,40.275002,-1.312500,0.0,1.000000,0.000000,0.000000,0.000000
1782117327.319009,1830120,-0.996094,0.041016,-0.326172,13.231708,-15.182927,5.487805,-3.706250,40.275002,-1.312500,0.0,1.000000,0.000000,0.000000,0.000000
1782117327.329009,1830130,-0.996094,0.041016,-0.326172,13.231708,-15.182927,5.487805,-3.562500,40.225002,-1.168750,0.0,1.000000,0.000000,0.000000,0.000000
1782117327.339009,1830140,-0.971680,0.045410,-0.328125,11.341464,-17.439024,5.060976,-3.562500,40.225002,-1.168750,0.0,1.000000,0.000000,0.000000,0.000000
1782117327.349009,1830150,-0.947266,0.039551,-0.338379,6.951220,-17.378050,4.390244,-3.525000,40.112499,-0.918750,0.0,1.000000,0.000000,0.000000,0.000000
1782117327.359009,1830160,-0.933594,0.034668,-0.347656,2.378049,-16.280489,3.780488,-3.525000,40.112499,-0.918750,0.0,1.000000,0.000000,0.000000,0.000000
1782117327.369009,1830170,-0.924316,0.028320,-0.348145,-0.548781,-15.853659,3.048780,-3.362500,40.231251,-0.768750,0.0,1.000000,0.000000,0.000000,0.000000
1782117327.379009,1830180,-0.921387,0.019531,-0.336426,-0.792683,-15.853659,2.560976,-3.362500,40.231251,-0.768750,0.0,1.000000,0.000000,0.000000,0.000000
1782117327.389009,1830190,-0.929199,0.008789,-0.324219,0.609756,-15.670732,2.621951,-3.437500,40.156250,-0.643750,0.0,1.000000,0.000000,0.000000,0.000000
1782117327.399009,1830200,-0.943359,0.008301,-0.324707,3.048780,-16.158537,3.292683,-3.437500,40.156250,-0.643750,0.0,1.000000,0.000000,0.000000,0.000000
1782117327.409009,1830210,-0.979980,0.019531,-0.299805,4.878049,-17.317074,3.536585,-3.250000,40.431252,-0.512500,0.0,1.000000,0.000000,0.000000,0.000000
1782117327.419009,1830220,-1.004395,0.028809,-0.279297,3.536585,-20.975611,2.500000,-3.237500,40.331249,-0.343750,0.0,1.000000,0.000000,0.000000,0.000000
1782117327.429009,1830230,-1.008789,0.041992,-0.265137,1.524390,-22.804878,1.768293,-3.237500,40.331249,-0.343750,0.0,1.000000,0.000000,0.000000,0.000000
1782117327.440009,1830241,-1.006348,0.047363,-0.257324,-1.097561,-25.000000,1.036585,-3.256250,40.231251,-0.250000,0.0,1.000000,0.000000,0.000000,0.000000
1782117327.449009,1830250,-0.997070,0.052734,-0.249023,-2.012195,-25.853659,0.609756,-3.256250,40.231251,-0.250000,0.0,1.000000,0.000000,0.000000,0.000000
1782117327.459009,1830260,-1.001953,0.042969,-0.241211,-1.829268,-25.548780,0.548781,-3.462500,39.868752,-0.112500,0.0,1.000000,0.000000,0.000000,0.000000
1782117327.469009,1830270,-1.011719,0.028320,-0.226562,-0.609756,-25.121952,0.304878,-3.462500,39.868752,-0.112500,0.0,1.000000,0.000000,0.000000,0.000000
1782117327.479009,1830280,-1.003418,0.012207,-0.205078,1.097561,-26.524391,-0.975610,-3.593750,39.631252,-0.056250,0.0,1.000000,0.000000,0.000000,0.000000
1782117327.490009,1830291,-0.987793,0.000000,-0.184570,2.439024,-26.524391,-3.353659,-3.593750,39.631252,-0.056250,0.0,1.000000,0.000000,0.000000,0.000000
1782117327.499009,1830300,-0.992188,-0.003906,-0.178223,3.719512,-22.195122,-4.878049,-3.831250,39.250000,0.068750,0.0,1.000000,0.000000,0.000000,0.000000
1782117327.511009,1830312,-1.017090,-0.004395,-0.183105,6.524390,-16.768293,-4.207317,-3.831250,39.250000,0.068750,0.0,1.000000,0.000000,0.000000,0.000000
1782117327.519009,1830320,-1.042480,-0.007324,-0.189941,10.365854,-14.146341,-2.865854,-4.031250,39.068752,0.106250,0.0,1.000000,0.000000,0.000000,0.000000
1782117327.529009,1830330,-1.027344,-0.007324,-0.177246,15.304878,-15.487805,-2.012195,-4.031250,39.068752,0.106250,0.0,1.000000,0.000000,0.000000,0.000000
1782117327.540009,1830341,-0.981934,0.000488,-0.163086,18.292683,-16.036585,-3.109756,-3.856250,39.256252,0.281250,0.0,1.000000,0.000000,0.000000,0.000000
1782117327.550009,1830351,-0.919434,0.015137,-0.163574,18.475611,-13.292684,-5.000000,-3.856250,39.256252,0.281250,0.0,1.000000,0.000000,0.000000,0.000000
1782117327.559009,1830360,-0.878418,0.037109,-0.176270,16.402439,-6.524390,-6.524390,-4.212500,39.125000,0.362500,0.0,1.000000,0.000000,0.000000,0.000000
1782117327.569009,1830370,-0.880859,0.059570,-0.193848,14.573171,1.402439,-5.975610,-4.212500,39.125000,0.362500,0.0,1.000000,0.000000,0.000000,0.000000
1782117327.579009,1830380,-0.905273,0.069824,-0.184082,15.487805,6.402439,-3.780488,-4.150000,39.356251,0.437500,0.0,1.000000,0.000000,0.000000,0.000000
1782117327.589009,1830390,-0.936035,0.062012,-0.149902,19.024391,8.109756,-1.280488,-4.150000,39.356251,0.437500,0.0,1.000000,0.000000,0.000000,0.000000
1782117327.599009,1830400,-0.956543,0.048828,-0.106445,22.621952,8.902439,0.365854,-4.000000,39.700001,0.418750,0.0,1.000000,0.000000,0.000000,0.000000
1782117327.609009,1830410,-0.977051,0.042969,-0.068359,22.987806,10.792684,-0.060976,-4.000000,39.700001,0.418750,0.0,1.000000,0.000000,0.000000,0.000000
1782117327.619009,1830420,-0.989258,0.036621,-0.054688,21.219513,12.500000,-1.036585,-3.818750,39.868752,0.287500,0.0,1.000000,0.000000,0.000000,0.000000
1782117327.632009,1830433,-0.998047,0.028320,-0.049316,20.731709,13.170732,-1.463415,-3.818750,39.868752,0.287500,0.0,1.000000,0.000000,0.000000,0.000000
1782117327.639009,1830440,-0.995605,0.019531,-0.040039,22.743902,13.048780,-0.914634,-3.656250,39.906250,0.256250,0.0,1.000000,0.000000,0.000000,0.000000
1782117327.649009,1830450,-1.003906,0.021973,-0.034180,26.280489,13.170732,-0.182927,-3.656250,39.906250,0.256250,0.0,1.000000,0.000000,0.000000,0.000000
1782117327.659009,1830460,-1.022461,0.030762,-0.027344,30.060976,12.987805,0.731707,-3.625000,39.806252,0.037500,0.0,1.000000,0.000000,0.000000,0.000000
1782117327.669009,1830470,-1.047852,0.060547,-0.012207,32.987804,11.768293,1.463415,-3.625000,39.806252,0.037500,0.0,1.000000,0.000000,0.000000,0.000000
1782117327.680009,1830481,-1.065430,0.098633,0.004883,33.658539,9.512196,1.768293,-3.631250,39.668751,0.006250,0.0,1.000000,0.000000,0.000000,0.000000
1782117327.689009,1830490,-1.062012,0.129395,0.021973,31.890245,6.280488,1.707317,-3.631250,39.668751,0.006250,0.0,1.000000,0.000000,0.000000,0.000000
1782117327.699009,1830500,-1.038574,0.147461,0.046387,28.170732,3.536585,1.097561,-3.525000,39.674999,-0.081250,0.0,1.000000,0.000000,0.000000,0.000000
1782117327.709009,1830510,-1.011719,0.159668,0.066895,23.170732,2.378049,0.914634,-3.556250,39.581249,-0.068750,0.0,1.000000,0.000000,0.000000,0.000000
1782117327.721009,1830522,-1.002441,0.167969,0.063965,16.890244,2.987805,1.585366,-3.556250,39.581249,-0.068750,0.0,1.000000,0.000000,0.000000,0.000000
1782117327.729009,1830530,-1.017578,0.175293,0.044434,9.756098,3.902439,2.682927,-3.381250,39.637501,-0.012500,0.0,1.000000,0.000000,0.000000,0.000000
1782117327.739009,1830540,-1.029297,0.181152,0.017578,2.743902,3.902439,4.451220,-3.381250,39.637501,-0.012500,0.0,1.000000,0.000000,0.000000,0.000000
1782117327.749009,1830550,-1.032227,0.173340,-0.000977,-2.560976,3.475610,4.817073,-3.425000,39.612499,-0.093750,0.0,1.000000,0.000000,0.000000,0.000000
1782117327.759009,1830560,-1.021973,0.159180,-0.016602,-6.585366,3.231707,3.597561,-3.425000,39.612499,-0.093750,0.0,1.000000,0.000000,0.000000,0.000000
1782117327.769009,1830570,-1.010742,0.141113,-0.032715,-10.792684,4.878049,1.768293,-3.281250,39.681252,-0.081250,0.0,1.000000,0.000000,0.000000,0.000000
1782117327.779009,1830580,-1.006836,0.120117,-0.054688,-15.304878,6.707317,-0.182927,-3.281250,39.681252,-0.081250,0.0,1.000000,0.000000,0.000000,0.000000
1782117327.789009,1830590,-1.008789,0.099609,-0.070801,-19.451220,8.109756,-1.585366,-3.400000,39.756252,-0.143750,0.0,1.000000,0.000000,0.000000,0.000000
1782117327.800009,1830601,-1.015625,0.078613,-0.079102,-21.646341,8.353659,-2.560976,-3.400000,39.756252,-0.143750,0.0,1.000000,0.000000,0.000000,0.000000
1782117327.809009,1830610,-1.013184,0.063477,-0.077148,-22.317074,7.743903,-3.475610,-3.462500,39.693752,-0.212500,0.0,1.000000,0.000000,0.000000,0.000000
1782117327.819009,1830620,-1.019043,0.047363,-0.071777,-22.195122,8.109756,-4.268293,-3.462500,39.693752,-0.212500,0.0,1.000000,0.000000,0.000000,0.000000
1782117327.829009,1830630,-1.039551,0.037109,-0.084473,-21.646341,8.719512,-3.963415,-3.362500,39.881252,-0.331250,0.0,1.000000,0.000000,0.000000,0.000000
1782117327.839009,1830640,-1.062500,0.023438,-0.098633,-20.060976,7.621952,-2.378049,-3.362500,39.881252,-0.331250,0.0,1.000000,0.000000,0.000000,0.000000
1782117327.849009,1830650,-1.060547,0.011719,-0.102051,-16.768293,3.780488,-0.609756,-3.606250,39.725002,-0.406250,0.0,1.000000,0.000000,0.000000,0.000000
1782117327.859009,1830660,-1.023438,0.003906,-0.097168,-13.109756,-0.365854,-0.060976,-3.606250,39.725002,-0.406250,0.0,1.000000,0.000000,0.000000,0.000000
1782117327.870009,1830671,-0.975098,0.002930,-0.099121,-10.548780,-1.585366,-0.365854,-3.618750,39.662502,-0.406250,0.0,1.000000,0.000000,0.000000,0.000000
1782117327.879009,1830680,-0.950684,0.010742,-0.107910,-9.695122,0.243902,-0.182927,-3.618750,39.662502,-0.406250,0.0,1.000000,0.000000,0.000000,0.000000
1782117327.889009,1830690,-0.959473,0.018555,-0.119629,-8.841464,1.402439,1.280488,-3.637500,39.631252,-0.293750,0.0,1.000000,0.000000,0.000000,0.000000
1782117327.899009,1830700,-0.966797,0.024414,-0.125000,-7.195122,1.280488,4.146341,-3.637500,39.631252,-0.293750,0.0,1.000000,0.000000,0.000000,0.000000
1782117327.909009,1830710,-0.975098,0.028320,-0.125977,-5.914634,-0.182927,5.914634,-3.662500,39.562500,-0.281250,0.0,1.000000,0.000000,0.000000,0.000000
1782117327.919009,1830720,-0.963379,0.032715,-0.136230,-5.000000,-0.853659,5.914634,-3.662500,39.562500,-0.281250,0.0,1.000000,0.000000,0.000000,0.000000
1782117327.929009,1830730,-0.931152,0.034668,-0.146484,-5.426829,-0.975610,4.146341,-3.668750,39.543751,-0.150000,0.0,1.000000,0.000000,0.000000,0.000000
1782117327.939009,1830740,-0.894043,0.047363,-0.162109,-8.658537,1.158537,0.670732,-3.668750,39.543751,-0.150000,0.0,1.000000,0.000000,0.000000,0.000000
1782117327.949009,1830750,-0.895020,0.065430,-0.205078,-15.121951,6.280488,-1.646341,-3.675000,39.525002,-0.081250,0.0,1.000000,0.000000,0.000000,0.000000
1782117327.960009,1830761,-0.993164,0.101074,-0.289551,-23.658537,14.756098,2.073171,-3.675000,39.525002,-0.081250,0.0,1.000000,0.000000,0.000000,0.000000
1782117327.969009,1830770,-1.209961,0.095703,-0.370117,-25.182928,22.926830,14.451220,-3.725000,39.587502,-0.218750,0.0,1.000000,0.000000,0.000000,0.000000
1782117327.979009,1830780,-1.288574,0.040039,-0.318359,-17.134148,9.573171,17.500000,-3.725000,39.587502,-0.218750,0.0,1.000000,0.000000,0.000000,0.000000
1782117327.989009,1830790,-1.151367,-0.003418,-0.252930,-11.036586,-8.170732,7.256098,-3.643750,39.687500,-0.518750,0.0,1.000000,0.000000,0.000000,0.000000
1782117327.999009,1830800,-0.998535,-0.013184,-0.221680,-7.926829,-8.780488,-3.658537,-3.512500,39.762501,-0.468750,0.0,1.000000,0.000000,0.000000,0.000000
1782117328.009009,1830810,-0.924805,-0.018555,-0.216309,-11.463415,0.609756,-11.951220,-3.512500,39.762501,-0.468750,0.0,1.000000,0.000000,0.000000,0.000000
1782117328.019009,1830820,-0.884277,-0.009766,-0.246094,-19.329269,9.329268,-15.365854,-3.812500,39.593750,-0.462500,0.0,1.000000,0.000000,0.000000,0.000000
1782117328.029009,1830830,-0.867676,0.007324,-0.291504,-27.743902,14.390244,-13.963415,-3.812500,39.593750,-0.462500,0.0,1.000000,0.000000,0.000000,0.000000
1782117328.040009,1830841,-0.880859,-0.007812,-0.318359,-29.512196,19.085367,-10.487805,-3.987500,39.506252,-0.668750,0.0,1.000000,0.000000,0.000000,0.000000
1782117328.049009,1830850,-0.914551,-0.031250,-0.317871,-22.317074,21.219513,-6.951220,-3.987500,39.506252,-0.668750,0.0,1.000000,0.000000,0.000000,0.000000
1782117328.060009,1830861,-0.972656,-0.028320,-0.291016,-13.902439,19.268293,-5.060976,-4.112500,39.500000,-0.975000,0.0,1.000000,0.000000,0.000000,0.000000
1782117328.069009,1830870,-1.001465,-0.032715,-0.279297,-9.878049,16.036585,-2.987805,-4.112500,39.500000,-0.975000,0.0,1.000000,0.000000,0.000000,0.000000
1782117328.080009,1830881,-0.993164,-0.041992,-0.298340,-9.085366,13.048780,-2.195122,-4.218750,39.518749,-0.968750,0.0,1.000000,0.000000,0.000000,0.000000
1782117328.089009,1830890,-0.958984,-0.029785,-0.308105,-9.695122,11.463415,-2.500000,-4.218750,39.518749,-0.968750,0.0,1.000000,0.000000,0.000000,0.000000
1782117328.099009,1830900,-0.934082,0.015625,-0.311523,-11.036586,10.914635,-2.865854,-4.312500,39.556252,-1.112500,0.0,1.000000,0.000000,0.000000,0.000000
1782117328.109009,1830910,-0.960449,0.068848,-0.290039,-15.853659,8.719512,-3.841464,-4.312500,39.556252,-1.112500,0.0,1.000000,0.000000,0.000000,0.000000
1782117328.119009,1830920,-0.906738,0.111816,-0.299805,-20.670732,6.463415,-2.804878,-4.425000,39.612499,-1.275000,0.0,1.000000,0.000000,0.000000,0.000000
1782117328.129009,1830930,-0.905762,0.107910,-0.304199,-23.048780,11.768293,-1.951220,-4.425000,39.612499,-1.275000,0.0,1.000000,0.000000,0.000000,0.000000
1782117328.139009,1830940,-0.925293,0.073242,-0.302734,-21.646341,16.097561,-1.951220,-4.406250,39.775002,-1.481250,0.0,1.000000,0.000000,0.000000,0.000000
1782117328.150009,1830951,-0.944824,0.022949,-0.293457,-17.256098,16.402439,-3.109756,-4.406250,39.775002,-1.481250,0.0,1.000000,0.000000,0.000000,0.000000
1782117328.160009,1830961,-0.954590,-0.009277,-0.276367,-12.926829,14.329268,-5.000000,-4.518750,39.799999,-1.806250,0.0,1.000000,0.000000,0.000000,0.000000
1782117328.169009,1830970,-0.954590,-0.009277,-0.276367,-12.926829,14.329268,-5.000000,-4.518750,39.799999,-1.806250,0.0,1.000000,0.000000,0.000000,0.000000
1782117328.179009,1830980,-0.948242,-0.022949,-0.262207,-13.109756,11.951220,-7.256098,-4.862500,39.656250,-2.118750,0.0,1.000000,0.000000,0.000000,0.000000
1782117328.189009,1830990,-0.931641,-0.034180,-0.271973,-16.280489,11.951220,-8.963415,-4.862500,39.656250,-2.118750,0.0,1.000000,0.000000,0.000000,0.000000
1782117328.200009,1831001,-0.933105,-0.024414,-0.296875,-19.085367,11.890244,-8.231708,-5.125000,39.537502,-2.331250,0.0,1.000000,0.000000,0.000000,0.000000
1782117328.209009,1831010,-0.933105,-0.024414,-0.296875,-19.085367,11.890244,-8.231708,-5.125000,39.537502,-2.331250,0.0,1.000000,0.000000,0.000000,0.000000
1782117328.219009,1831020,-0.952148,-0.007324,-0.293945,-17.743902,10.914635,-7.195122,-5.262500,39.556252,-2.500000,0.0,1.000000,0.000000,0.000000,0.000000
1782117328.229009,1831030,-0.944824,0.003418,-0.295898,-15.487805,10.853659,-5.914634,-5.262500,39.556252,-2.500000,0.0,1.000000,0.000000,0.000000,0.000000
1782117328.241009,1831042,-0.928223,0.011719,-0.290527,-15.914635,8.536586,-4.756098,-5.412500,39.500000,-2.693750,0.0,1.000000,0.000000,0.000000,0.000000
1782117328.249009,1831050,-0.928223,0.011719,-0.290527,-15.914635,8.536586,-4.756098,-5.412500,39.500000,-2.693750,0.0,1.000000,0.000000,0.000000,0.000000
1782117328.260009,1831061,-0.962402,-0.001465,-0.281738,-14.024390,12.012196,-3.353659,-5.268750,39.725002,-2.787500,0.0,1.000000,0.000000,0.000000,0.000000
1782117328.270009,1831071,-0.976562,0.000488,-0.276855,-13.902439,11.036586,-3.170732,-5.268750,39.725002,-2.787500,0.0,1.000000,0.000000,0.000000,0.000000
1782117328.282009,1831083,-0.972168,-0.003906,-0.293945,-11.097561,11.280488,-3.292683,-5.581250,39.506252,-2.925000,0.0,1.000000,0.000000,0.000000,0.000000
1782117328.289009,1831090,-0.972168,-0.003906,-0.293945,-11.097561,11.280488,-3.292683,-5.581250,39.506252,-2.925000,0.0,1.000000,0.000000,0.000000,0.000000
1782117328.299009,1831100,-0.959961,-0.012695,-0.319824,-7.195122,12.621951,-2.621951,-5.743750,39.431252,-3.162500,0.0,1.000000,0.000000,0.000000,0.000000
1782117328.309009,1831110,-0.970703,-0.025391,-0.331543,-3.658537,12.256098,-2.073171,-5.887500,39.387501,-3.356250,0.0,1.000000,0.000000,0.000000,0.000000
1782117328.320009,1831121,-0.979492,-0.030762,-0.335938,-0.731707,11.097561,-1.524390,-5.887500,39.387501,-3.356250,0.0,1.000000,0.000000,0.000000,0.000000
1782117328.329009,1831130,-0.977051,-0.038086,-0.328125,1.158537,9.085366,-1.280488,-5.893750,39.512501,-3.531250,0.0,1.000000,0.000000,0.000000,0.000000
1782117328.339009,1831140,-0.968750,-0.042480,-0.321289,2.560976,7.621952,-1.402439,-5.893750,39.512501,-3.531250,0.0,1.000000,0.000000,0.000000,0.000000
1782117328.349009,1831150,-0.962891,-0.036621,-0.325684,4.024390,6.341464,-1.097561,-5.918750,39.568752,-3.550000,0.0,1.000000,0.000000,0.000000,0.000000
1782117328.362009,1831163,-0.956055,-0.024414,-0.335449,5.914634,5.000000,-0.548781,-5.918750,39.568752,-3.550000,0.0,1.000000,0.000000,0.000000,0.000000
1782117328.369009,1831170,-0.936035,-0.010254,-0.350586,7.865854,3.597561,-0.121951,-5.881250,39.543751,-3.506250,0.0,1.000000,0.000000,0.000000,0.000000
1782117328.379009,1831180,-0.934570,0.010254,-0.356445,9.695122,3.658537,0.609756,-5.881250,39.543751,-3.506250,0.0,1.000000,0.000000,0.000000,0.000000
1782117328.389009,1831190,-0.932129,0.018555,-0.360840,11.036586,4.085366,1.158537,-5.825000,39.587502,-3.556250,0.0,1.000000,0.000000,0.000000,0.000000
1782117328.401009,1831202,-0.935547,0.019043,-0.360840,11.097561,5.060976,1.341463,-5.825000,39.587502,-3.556250,0.0,1.000000,0.000000,0.000000,0.000000
1782117328.410009,1831211,-0.944336,0.019043,-0.366211,9.451220,5.914634,1.219512,-5.793750,39.687500,-3.493750,0.0,1.000000,0.000000,0.000000,0.000000
1782117328.419009,1831220,-0.945801,0.019043,-0.374512,7.439024,6.280488,0.975610,-5.793750,39.687500,-3.493750,0.0,1.000000,0.000000,0.000000,0.000000
1782117328.429009,1831230,-0.939453,0.020020,-0.378906,5.487805,6.524390,0.548781,-5.925000,39.581249,-3.550000,0.0,1.000000,0.000000,0.000000,0.000000
1782117328.443009,1831244,-0.927734,0.023926,-0.379883,3.902439,6.951220,0.182927,-5.925000,39.581249,-3.550000,0.0,1.000000,0.000000,0.000000,0.000000
1782117328.450009,1831251,-0.920898,0.027832,-0.374023,2.987805,7.560976,-0.121951,-5.825000,39.725002,-3.637500,0.0,1.000000,0.000000,0.000000,0.000000
1782117328.459009,1831260,-0.917480,0.024414,-0.364258,2.317073,8.353659,-0.243902,-5.825000,39.725002,-3.637500,0.0,1.000000,0.000000,0.000000,0.000000
1782117328.469009,1831270,-0.923828,0.014160,-0.358398,1.646341,8.963415,-0.182927,-5.925000,39.618752,-3.800000,0.0,1.000000,0.000000,0.000000,0.000000
1782117328.481009,1831282,-0.933105,0.003418,-0.359375,1.707317,8.597561,-0.060976,-5.925000,39.618752,-3.800000,0.0,1.000000,0.000000,0.000000,0.000000
1782117328.489009,1831290,-0.940918,-0.013184,-0.363770,2.073171,7.743903,0.060976,-5.887500,39.743752,-3.893750,0.0,1.000000,0.000000,0.000000,0.000000
1782117328.499009,1831300,-0.948242,-0.024414,-0.364258,2.987805,6.219512,-0.060976,-5.887500,39.743752,-3.893750,0.0,1.000000,0.000000,0.000000,0.000000
1782117328.509009,1831310,-0.948242,-0.025879,-0.362305,4.756098,4.878049,-0.121951,-5.900000,39.662502,-3.981250,0.0,1.000000,0.000000,0.000000,0.000000
1782117328.522009,1831323,-0.946289,-0.023438,-0.357910,7.195122,4.024390,-0.182927,-5.887500,39.693752,-4.018750,0.0,1.000000,0.000000,0.000000,0.000000
1782117328.529009,1831330,-0.948730,-0.020996,-0.352051,9.268292,3.719512,-0.182927,-5.887500,39.693752,-4.018750,0.0,1.000000,0.000000,0.000000,0.000000
1782117328.539009,1831340,-0.955566,-0.010742,-0.347656,10.182927,3.292683,-0.121951,-5.887500,39.693752,-4.018750,0.0,1.000000,0.000000,0.000000,0.000000
1782117328.549009,1831350,-0.958496,-0.003418,-0.346680,10.365854,2.378049,0.121951,-5.656250,39.950001,-3.975000,0.0,1.000000,0.000000,0.000000,0.000000
1782117328.561009,1831362,-0.959473,0.004395,-0.346191,10.304878,1.646341,0.182927,-5.837500,39.756252,-3.968750,0.0,1.000000,0.000000,0.000000,0.000000
1782117328.569009,1831370,-0.960449,0.022461,-0.346680,9.756098,0.914634,0.060976,-5.837500,39.756252,-3.968750,0.0,1.000000,0.000000,0.000000,0.000000
1782117328.579009,1831380,-0.959961,0.037109,-0.346680,9.451220,0.304878,0.121951,-5.837500,39.756252,-3.968750,0.0,1.000000,0.000000,0.000000,0.000000
1782117328.589009,1831390,-0.953613,0.044922,-0.344238,8.841464,-0.060976,0.000000,-5.893750,39.743752,-3.987500,0.0,1.000000,0.000000,0.000000,0.000000
1782117328.599009,1831400,-0.946777,0.052734,-0.339844,7.560976,0.000000,-0.304878,-5.912500,39.674999,-3.931250,0.0,1.000000,0.000000,0.000000,0.000000
1782117328.609009,1831410,-0.942383,0.043945,-0.336914,6.219512,0.548781,-0.304878,-5.912500,39.674999,-3.931250,0.0,1.000000,0.000000,0.000000,0.000000
1782117328.619009,1831420,-0.944824,0.024902,-0.335449,5.000000,1.280488,-0.121951,-5.862500,39.706249,-3.912500,0.0,1.000000,0.000000,0.000000,0.000000
1782117328.629009,1831430,-0.949707,0.002441,-0.334961,4.268293,1.707317,0.060976,-5.862500,39.706249,-3.912500,0.0,1.000000,0.000000,0.000000,0.000000
1782117328.643009,1831444,-0.956543,-0.013184,-0.335938,3.902439,1.524390,0.243902,-5.893750,39.631252,-3.975000,0.0,1.000000,0.000000,0.000000,0.000000
1782117328.649009,1831450,-0.957031,-0.023926,-0.337891,3.719512,0.853659,0.487805,-5.893750,39.631252,-3.975000,0.0,1.000000,0.000000,0.000000,0.000000
1782117328.660009,1831461,-0.956055,-0.031250,-0.337891,3.597561,0.304878,0.487805,-5.818750,39.750000,-3.931250,0.0,1.000000,0.000000,0.000000,0.000000
1782117328.670009,1831471,-0.952148,-0.026855,-0.334961,3.963415,0.000000,0.426829,-5.818750,39.750000,-3.931250,0.0,1.000000,0.000000,0.000000,0.000000
1782117328.682009,1831483,-0.946289,-0.020020,-0.329590,4.939024,0.304878,0.304878,-5.650000,39.881252,-3.812500,0.0,1.000000,0.000000,0.000000,0.000000
1782117328.690009,1831491,-0.943848,-0.020996,-0.324707,5.792683,1.158537,0.182927,-5.650000,39.881252,-3.812500,0.0,1.000000,0.000000,0.000000,0.000000
1782117328.700009,1831501,-0.945801,-0.020996,-0.320801,5.792683,1.951220,0.000000,-5.581250,39.893749,-3.887500,0.0,1.000000,0.000000,0.000000,0.000000
1782117328.710009,1831511,-0.947754,-0.016602,-0.316406,5.182927,2.134146,-0.121951,-5.581250,39.893749,-3.887500,0.0,1.000000,0.000000,0.000000,0.000000
1782117328.719009,1831520,-0.951172,-0.012207,-0.312012,4.634146,1.768293,-0.243902,-5.612500,39.900002,-3.881250,0.0,1.000000,0.000000,0.000000,0.000000
1782117328.729009,1831530,-0.953613,-0.003906,-0.307617,4.024390,1.341463,-0.182927,-5.612500,39.900002,-3.881250,0.0,1.000000,0.000000,0.000000,0.000000
1782117328.739009,1831540,-0.958496,0.003906,-0.302734,3.475610,0.792683,0.060976,-5.762500,39.756252,-4.000000,0.0,1.000000,0.000000,0.000000,0.000000
1782117328.749009,1831550,-0.961426,0.007324,-0.297852,3.170732,0.243902,0.304878,-5.762500,39.756252,-4.000000,0.0,1.000000,0.000000,0.000000,0.000000
1782117328.759009,1831560,-0.965332,0.010254,-0.297852,2.926829,-0.243902,0.365854,-5.793750,39.681252,-3.975000,0.0,1.000000,0.000000,0.000000,0.000000
1782117328.770009,1831571,-0.967285,0.011719,-0.294922,2.682927,-0.487805,0.243902,-5.793750,39.681252,-3.975000,0.0,1.000000,0.000000,0.000000,0.000000
1782117328.779009,1831580,-0.968750,0.003906,-0.290039,2.560976,-0.670732,0.182927,-5.600000,39.850002,-3.962500,0.0,1.000000,0.000000,0.000000,0.000000
1782117328.789009,1831590,-0.969727,-0.001465,-0.287109,2.439024,-0.853659,0.182927,-5.600000,39.850002,-3.962500,0.0,1.000000,0.000000,0.000000,0.000000
1782117328.799009,1831600,-0.968750,-0.004395,-0.288086,2.134146,-1.097561,0.121951,-5.793750,39.706249,-3.893750,0.0,1.000000,0.000000,0.000000,0.000000
1782117328.809009,1831610,-0.967773,-0.006836,-0.293457,2.012195,-1.341463,0.304878,-5.793750,39.706249,-3.893750,0.0,1.000000,0.000000,0.000000,0.000000
1782117328.820009,1831621,-0.965820,-0.008789,-0.298828,2.012195,-1.707317,0.487805,-5.775000,39.662502,-3.931250,0.0,1.000000,0.000000,0.000000,0.000000
1782117328.830009,1831631,-0.960938,-0.007812,-0.304199,2.134146,-2.195122,0.548781,-5.775000,39.662502,-3.931250,0.0,1.000000,0.000000,0.000000,0.000000
1782117328.839009,1831640,-0.956543,-0.008301,-0.309082,2.560976,-2.439024,0.609756,-5.862500,39.631252,-3.925000,0.0,1.000000,0.000000,0.000000,0.000000
1782117328.849009,1831650,-0.950684,-0.009277,-0.307617,3.658537,-2.804878,0.731707,-5.862500,39.631252,-3.925000,0.0,1.000000,0.000000,0.000000,0.000000
1782117328.859009,1831660,-0.950684,-0.008301,-0.303711,4.878049,-2.743902,1.036585,-5.762500,39.718750,-3.843750,0.0,1.000000,0.000000,0.000000,0.000000
1782117328.869009,1831670,-0.948242,-0.009766,-0.301270,5.853659,-2.439024,1.219512,-5.762500,39.718750,-3.843750,0.0,1.000000,0.000000,0.000000,0.000000
1782117328.879009,1831680,-0.953125,-0.010742,-0.302734,6.341464,-2.012195,1.219512,-5.831250,39.674999,-3.806250,0.0,1.000000,0.000000,0.000000,0.000000
1782117328.889009,1831690,-0.959473,-0.012695,-0.304199,6.829268,-1.768293,1.524390,-5.831250,39.674999,-3.806250,0.0,1.000000,0.000000,0.000000,0.000000
1782117328.899009,1831700,-0.961426,-0.011230,-0.305176,7.317073,-1.768293,1.585366,-5.762500,39.656250,-3.718750,0.0,1.000000,0.000000,0.000000,0.000000
1782117328.909009,1831710,-0.963379,-0.005371,-0.305664,7.682927,-1.951220,1.463415,-5.793750,39.606251,-3.737500,0.0,1.000000,0.000000,0.000000,0.000000
1782117328.919009,1831720,-0.962402,0.001953,-0.305176,8.109756,-1.829268,1.341463,-5.793750,39.606251,-3.737500,0.0,1.000000,0.000000,0.000000,0.000000
1782117328.929009,1831730,-0.962891,0.007812,-0.302734,8.719512,-1.890244,1.219512,-5.412500,39.962502,-3.581250,0.0,1.000000,0.000000,0.000000,0.000000
1782117328.939009,1831740,-0.961426,0.012207,-0.299316,9.512196,-2.134146,1.280488,-5.412500,39.962502,-3.581250,0.0,1.000000,0.000000,0.000000,0.000000
1782117328.949009,1831750,-0.960449,0.014160,-0.296387,10.243902,-2.195122,1.219512,-5.612500,39.668751,-3.562500,0.0,1.000000,0.000000,0.000000,0.000000
1782117328.959009,1831760,-0.961914,0.010254,-0.295898,10.731708,-2.256098,1.402439,-5.612500,39.668751,-3.562500,0.0,1.000000,0.000000,0.000000,0.000000
1782117328.969009,1831770,-0.964844,0.006348,-0.293945,10.975610,-2.500000,1.463415,-5.650000,39.668751,-3.468750,0.0,1.000000,0.000000,0.000000,0.000000
1782117328.979009,1831780,-0.965332,0.001953,-0.293457,11.158537,-2.804878,1.524390,-5.650000,39.668751,-3.468750,0.0,1.000000,0.000000,0.000000,0.000000
1782117328.989009,1831790,-0.963379,0.001953,-0.295410,11.463415,-3.292683,1.646341,-5.337500,39.931252,-3.293750,0.0,1.000000,0.000000,0.000000,0.000000
1782117328.999009,1831800,-0.957031,0.000000,-0.299316,11.951220,-3.719512,1.829268,-5.337500,39.931252,-3.293750,0.0,1.000000,0.000000,0.000000,0.000000
1782117329.009009,1831810,-0.957031,0.000000,-0.299316,11.951220,-3.719512,1.829268,-5.481250,39.737499,-3.275000,0.0,1.000000,0.000000,0.000000,0.000000
1782117329.019009,1831820,-0.953613,0.000488,-0.296875,12.682927,-3.902439,1.768293,-5.481250,39.737499,-3.275000,0.0,1.000000,0.000000,0.000000,0.000000
1782117329.029009,1831830,-0.953613,-0.000977,-0.296387,13.719513,-4.146341,2.012195,-5.468750,39.681252,-3.156250,0.0,1.000000,0.000000,0.000000,0.000000
1782117329.039009,1831840,-0.953613,-0.006348,-0.298340,14.695123,-4.207317,2.134146,-5.468750,39.681252,-3.156250,0.0,1.000000,0.000000,0.000000,0.000000
1782117329.049009,1831850,-0.953125,-0.012207,-0.297363,15.365854,-3.963415,2.012195,-5.387500,39.674999,-3.025000,0.0,1.000000,0.000000,0.000000,0.000000
1782117329.060009,1831861,-0.955078,-0.014160,-0.297363,15.548780,-3.780488,1.951220,-5.387500,39.674999,-3.025000,0.0,1.000000,0.000000,0.000000,0.000000
1782117329.070009,1831871,-0.959961,-0.015137,-0.300781,15.548780,-3.536585,2.134146,-5.375000,39.731251,-2.918750,0.0,1.000000,0.000000,0.000000,0.000000
1782117329.080009,1831881,-0.959961,-0.015625,-0.305176,15.609756,-3.414634,2.195122,-5.375000,39.731251,-2.918750,0.0,1.000000,0.000000,0.000000,0.000000
1782117329.090009,1831891,-0.955078,-0.012695,-0.307617,15.548780,-3.170732,2.134146,-5.312500,39.700001,-2.756250,0.0,1.000000,0.000000,0.000000,0.000000
1782117329.099009,1831900,-0.950684,-0.007812,-0.305664,15.426829,-2.743902,2.073171,-5.312500,39.700001,-2.756250,0.0,1.000000,0.000000,0.000000,0.000000
1782117329.109009,1831910,-0.951660,-0.010742,-0.303223,15.182927,-2.439024,2.012195,-5.262500,39.643749,-2.637500,0.0,1.000000,0.000000,0.000000,0.000000
1782117329.119009,1831920,-0.951172,-0.016113,-0.306641,15.304878,-1.890244,1.890244,-5.262500,39.643749,-2.637500,0.0,1.000000,0.000000,0.000000,0.000000
1782117329.129009,1831930,-0.952637,-0.023438,-0.309082,15.670732,-1.402439,1.646341,-5.187500,39.587502,-2.581250,0.0,1.000000,0.000000,0.000000,0.000000
1782117329.139009,1831940,-0.958008,-0.027832,-0.305176,16.097561,-1.280488,1.463415,-5.187500,39.587502,-2.581250,0.0,1.000000,0.000000,0.000000,0.000000
1782117329.150009,1831951,-0.959473,-0.028320,-0.300781,16.463415,-1.341463,1.341463,-5.012500,39.806252,-2.443750,0.0,1.000000,0.000000,0.000000,0.000000
1782117329.160009,1831961,-0.961914,-0.028809,-0.296387,16.829269,-1.768293,1.341463,-5.012500,39.806252,-2.443750,0.0,1.000000,0.000000,0.000000,0.000000
1782117329.170009,1831971,-0.962891,-0.028809,-0.293457,17.256098,-2.134146,1.524390,-5.050000,39.637501,-2.406250,0.0,1.000000,0.000000,0.000000,0.000000
1782117329.180009,1831981,-0.961426,-0.024414,-0.292969,17.134148,-2.378049,1.646341,-4.731250,39.912502,-2.200000,0.0,1.000000,0.000000,0.000000,0.000000
1782117329.189009,1831990,-0.954590,-0.020508,-0.291992,16.463415,-2.439024,1.707317,-4.731250,39.912502,-2.200000,0.0,1.000000,0.000000,0.000000,0.000000
1782117329.200009,1832001,-0.951660,-0.020020,-0.295898,15.609756,-2.134146,1.646341,-4.931250,39.637501,-2.093750,0.0,1.000000,0.000000,0.000000,0.000000
1782117329.210009,1832011,-0.949707,-0.017578,-0.297852,14.939025,-1.707317,1.463415,-4.931250,39.637501,-2.093750,0.0,1.000000,0.000000,0.000000,0.000000
1782117329.219009,1832020,-0.947754,-0.010742,-0.295410,14.573171,-1.280488,1.402439,-4.756250,39.806252,-1.975000,0.0,1.000000,0.000000,0.000000,0.000000
1782117329.230009,1832031,-0.955078,-0.002441,-0.291992,14.268293,-1.280488,1.524390,-4.756250,39.806252,-1.975000,0.0,1.000000,0.000000,0.000000,0.000000
1782117329.239009,1832040,-0.958496,-0.004883,-0.286621,14.085366,-1.463415,1.890244,-4.743750,39.687500,-2.012500,0.0,1.000000,0.000000,0.000000,0.000000
1782117329.249009,1832050,-0.965820,-0.007324,-0.282715,13.780488,-1.524390,2.073171,-4.743750,39.687500,-2.012500,0.0,1.000000,0.000000,0.000000,0.000000
1782117329.259009,1832060,-0.986328,-0.009277,-0.280273,13.658537,-1.524390,2.621951,-4.618750,39.818752,-1.862500,0.0,1.000000,0.000000,0.000000,0.000000
1782117329.269009,1832070,-0.996582,-0.022949,-0.275879,14.085366,-2.621951,3.292683,-4.618750,39.818752,-1.862500,0.0,1.000000,0.000000,0.000000,0.000000
1782117329.279009,1832080,-0.991699,-0.044922,-0.270996,15.609756,-4.146341,3.414634,-4.412500,39.924999,-1.693750,0.0,1.000000,0.000000,0.000000,0.000000
1782117329.289009,1832090,-0.985840,-0.053223,-0.263672,18.170732,-5.548780,3.292683,-4.412500,39.924999,-1.693750,0.0,1.000000,0.000000,0.000000,0.000000
1782117329.299009,1832100,-0.977051,-0.059082,-0.251953,21.646341,-6.707317,3.597561,-4.387500,39.875000,-1.525000,0.0,1.000000,0.000000,0.000000,0.000000
1782117329.309009,1832110,-0.969238,-0.064453,-0.247559,25.426830,-7.317073,4.024390,-4.387500,39.875000,-1.525000,0.0,1.000000,0.000000,0.000000,0.000000
1782117329.319009,1832120,-0.965332,-0.064453,-0.245117,28.292683,-7.317073,4.512195,-4.243750,39.918751,-1.250000,0.0,1.000000,0.000000,0.000000,0.000000
1782117329.329009,1832130,-0.969238,-0.070801,-0.254883,30.487806,-7.134147,4.939024,-4.243750,39.918751,-1.250000,0.0,1.000000,0.000000,0.000000,0.000000
1782117329.339009,1832140,-0.973145,-0.077637,-0.269531,32.500000,-7.621952,5.487805,-3.893750,40.068752,-0.975000,0.0,1.000000,0.000000,0.000000,0.000000
1782117329.350009,1832151,-0.976074,-0.070801,-0.278809,34.695122,-8.902439,5.975610,-3.893750,40.068752,-0.975000,0.0,1.000000,0.000000,0.000000,0.000000
1782117329.359009,1832160,-0.975098,-0.059570,-0.277832,36.646343,-10.000000,6.402439,-3.906250,39.868752,-0.712500,0.0,1.000000,0.000000,0.000000,0.000000
1782117329.369009,1832170,-0.977051,-0.047363,-0.270020,37.987804,-11.097561,6.585366,-3.906250,39.868752,-0.712500,0.0,1.000000,0.000000,0.000000,0.000000
1782117329.379009,1832180,-0.972656,-0.036133,-0.262207,38.048782,-12.012196,6.707317,-3.781250,39.781250,-0.387500,0.0,1.000000,0.000000,0.000000,0.000000
1782117329.389009,1832190,-0.967285,-0.026855,-0.256348,37.012196,-12.378049,6.585366,-3.781250,39.781250,-0.387500,0.0,1.000000,0.000000,0.000000,0.000000
1782117329.399009,1832200,-0.963379,-0.024902,-0.254883,35.182926,-11.890244,6.341464,-3.625000,39.674999,-0.081250,0.0,1.000000,0.000000,0.000000,0.000000
1782117329.410009,1832211,-0.960449,-0.025391,-0.262207,33.170731,-11.036586,6.219512,-3.625000,39.674999,-0.081250,0.0,1.000000,0.000000,0.000000,0.000000
1782117329.419009,1832220,-0.953125,-0.024414,-0.276367,31.219513,-10.182927,6.158537,-3.100000,40.056252,0.281250,0.0,1.000000,0.000000,0.000000,0.000000
1782117329.429009,1832230,-0.948242,-0.018555,-0.290039,29.451220,-9.146341,6.036585,-3.100000,40.056252,0.281250,0.0,1.000000,0.000000,0.000000,0.000000
1782117329.439009,1832240,-0.946777,-0.009766,-0.297363,27.987806,-7.804878,5.914634,-3.293750,39.718750,0.493750,0.0,1.000000,0.000000,0.000000,0.000000
1782117329.450009,1832251,-0.948242,-0.000977,-0.304199,26.707317,-6.524390,5.731708,-3.293750,39.718750,0.493750,0.0,1.000000,0.000000,0.000000,0.000000
1782117329.459009,1832260,-0.951660,0.001465,-0.309082,26.036587,-5.487805,5.487805,-3.087500,39.718750,0.781250,0.0,1.000000,0.000000,0.000000,0.000000
1782117329.469009,1832270,-0.955078,-0.000488,-0.316406,25.487806,-4.390244,5.243903,-3.087500,39.718750,0.781250,0.0,1.000000,0.000000,0.000000,0.000000
1782117329.479009,1832280,-0.959961,-0.005371,-0.323242,24.512196,-3.658537,4.756098,-2.918750,39.700001,0.962500,0.0,1.000000,0.000000,0.000000,0.000000
1782117329.490009,1832291,-0.954590,-0.011719,-0.320801,22.987806,-2.987805,3.902439,-2.718750,39.712502,1.168750,0.0,1.000000,0.000000,0.000000,0.000000
1782117329.499009,1832300,-0.945312,-0.016602,-0.308105,21.829269,-1.646341,2.682927,-2.718750,39.712502,1.168750,0.0,1.000000,0.000000,0.000000,0.000000
1782117329.509009,1832310,-0.942383,-0.037598,-0.299805,20.304878,1.158537,1.829268,-2.662500,39.718750,1.237500,0.0,1.000000,0.000000,0.000000,0.000000
1782117329.519009,1832320,-0.954102,-0.061035,-0.308594,18.597561,3.841464,1.463415,-2.662500,39.718750,1.237500,0.0,1.000000,0.000000,0.000000,0.000000
1782117329.529009,1832330,-0.966309,-0.076172,-0.333496,17.317074,5.548780,1.829268,-2.512500,39.743752,1.225000,0.0,1.000000,0.000000,0.000000,0.000000
1782117329.539009,1832340,-0.970703,-0.063477,-0.355957,16.951220,5.975610,2.378049,-2.512500,39.743752,1.225000,0.0,1.000000,0.000000,0.000000,0.000000
1782117329.549009,1832350,-0.960938,-0.041992,-0.359863,17.682928,4.939024,2.439024,-2.437500,39.718750,1.143750,0.0,1.000000,0.000000,0.000000,0.000000
1782117329.559009,1832360,-0.954590,-0.024902,-0.346680,19.268293,4.024390,2.134146,-2.437500,39.718750,1.143750,0.0,1.000000,0.000000,0.000000,0.000000
1782117329.570009,1832371,-0.952637,-0.001465,-0.330566,20.548780,3.658537,1.829268,-2.006250,40.043751,1.387500,0.0,1.000000,0.000000,0.000000,0.000000
1782117329.579009,1832380,-0.948730,0.026855,-0.314453,21.097561,3.963415,1.585366,-2.006250,40.043751,1.387500,0.0,1.000000,0.000000,0.000000,0.000000
1782117329.589009,1832390,-0.956543,0.026855,-0.292969,19.695122,5.365854,1.646341,-2.137500,39.912502,1.312500,0.0,1.000000,0.000000,0.000000,0.000000
1782117329.599009,1832400,-0.976074,0.026855,-0.273926,16.280489,4.573171,1.707317,-2.137500,39.912502,1.312500,0.0,1.000000,0.000000,0.000000,0.000000
1782117329.611009,1832412,-0.987793,0.021484,-0.259766,10.731708,2.500000,1.463415,-2.093750,39.856251,1.262500,0.0,1.000000,0.000000,0.000000,0.000000
1782117329.620009,1832421,-0.997070,0.029297,-0.247559,5.548780,0.182927,1.341463,-2.093750,39.856251,1.262500,0.0,1.000000,0.000000,0.000000,0.000000
1782117329.630009,1832431,-0.991211,0.042480,-0.230957,0.548781,-2.743902,1.402439,-1.981250,39.937500,1.300000,0.0,1.000000,0.000000,0.000000,0.000000
1782117329.640009,1832441,-0.979492,0.038574,-0.226074,-4.695122,-4.451220,0.609756,-1.981250,39.937500,1.300000,0.0,1.000000,0.000000,0.000000,0.000000
1782117329.652009,1832453,-0.974121,0.019043,-0.236816,-9.451220,-4.695122,0.000000,-2.025000,39.962502,1.318750,0.0,1.000000,0.000000,0.000000,0.000000
1782117329.659009,1832460,-0.973633,-0.003906,-0.252441,-12.743903,-4.695122,-0.365854,-2.025000,39.962502,1.318750,0.0,1.000000,0.000000,0.000000,0.000000
1782117329.670009,1832471,-0.974609,-0.021973,-0.264160,-14.695123,-4.756098,-0.731707,-2.056250,39.931252,1.306250,0.0,1.000000,0.000000,0.000000,0.000000
1782117329.680009,1832481,-0.978516,-0.036621,-0.271484,-16.219513,-5.060976,-1.158537,-2.056250,39.931252,1.306250,0.0,1.000000,0.000000,0.000000,0.000000
1782117329.692009,1832493,-0.979492,-0.046387,-0.268555,-17.500000,-5.731708,-1.402439,-2.162500,39.775002,1.300000,0.0,1.000000,0.000000,0.000000,0.000000
1782117329.699009,1832500,-0.972168,-0.051270,-0.263184,-18.048780,-6.158537,-1.402439,-2.162500,39.775002,1.300000,0.0,1.000000,0.000000,0.000000,0.000000
1782117329.709009,1832510,-0.967773,-0.052734,-0.263672,-18.170732,-6.097561,-1.158537,-2.187500,39.837502,1.237500,0.0,1.000000,0.000000,0.000000,0.000000
1782117329.719009,1832520,-0.961426,-0.050293,-0.269531,-18.170732,-5.853659,-0.670732,-2.187500,39.837502,1.237500,0.0,1.000000,0.000000,0.000000,0.000000
1782117329.732009,1832533,-0.959473,-0.035156,-0.270996,-17.987804,-5.731708,-0.182927,-2.368750,39.693752,1.225000,0.0,1.000000,0.000000,0.000000,0.000000
1782117329.739009,1832540,-0.956055,-0.024414,-0.263672,-17.621952,-5.487805,0.000000,-2.368750,39.693752,1.225000,0.0,1.000000,0.000000,0.000000,0.000000
1782117329.749009,1832550,-0.959961,-0.019043,-0.251953,-17.378050,-4.878049,-0.304878,-2.387500,39.706249,1.237500,0.0,1.000000,0.000000,0.000000,0.000000
1782117329.759009,1832560,-0.963867,-0.026367,-0.241699,-17.439024,-4.329268,-0.670732,-2.387500,39.706249,1.237500,0.0,1.000000,0.000000,0.000000,0.000000
1782117329.770009,1832571,-0.969238,-0.041504,-0.232910,-17.500000,-3.536585,-1.341463,-2.575000,39.568752,1.175000,0.0,1.000000,0.000000,0.000000,0.000000
1782117329.779009,1832580,-0.975098,-0.057617,-0.231445,-17.682928,-2.621951,-2.073171,-2.575000,39.568752,1.175000,0.0,1.000000,0.000000,0.000000,0.000000
1782117329.789009,1832590,-0.980469,-0.069336,-0.230469,-17.865854,-2.134146,-2.621951,-2.500000,39.743752,1.162500,0.0,1.000000,0.000000,0.000000,0.000000
1782117329.800009,1832601,-0.983398,-0.072754,-0.226562,-18.048780,-2.073171,-2.804878,-2.525000,39.750000,1.137500,0.0,1.000000,0.000000,0.000000,0.000000
1782117329.813009,1832614,-0.984863,-0.066895,-0.226562,-17.560976,-2.500000,-2.682927,-2.525000,39.750000,1.137500,0.0,1.000000,0.000000,0.000000,0.000000
1782117329.819009,1832620,-0.979980,-0.054199,-0.227539,-16.158537,-3.292683,-1.951220,-2.768750,39.568752,1.031250,0.0,1.000000,0.000000,0.000000,0.000000
1782117329.829009,1832630,-0.975098,-0.050293,-0.229004,-14.939025,-4.024390,-1.036585,-2.768750,39.568752,1.031250,0.0,1.000000,0.000000,0.000000,0.000000
1782117329.839009,1832640,-0.972656,-0.044434,-0.235352,-13.841464,-4.634146,-0.670732,-2.681250,39.743752,1.018750,0.0,1.000000,0.000000,0.000000,0.000000
1782117329.851009,1832652,-0.967285,-0.034180,-0.233398,-12.073171,-4.939024,-0.670732,-2.681250,39.743752,1.018750,0.0,1.000000,0.000000,0.000000,0.000000
1782117329.859009,1832660,-0.967285,-0.034180,-0.233398,-12.073171,-4.939024,-0.670732,-2.762500,39.725002,1.037500,0.0,1.000000,0.000000,0.000000,0.000000
1782117329.870009,1832671,-0.961914,-0.049316,-0.229004,-9.390244,-2.195122,-1.158537,-2.762500,39.725002,1.037500,0.0,1.000000,0.000000,0.000000,0.000000
1782117329.880009,1832681,-0.961914,-0.049316,-0.229004,-9.390244,-2.195122,-1.158537,-2.756250,39.687500,0.993750,0.0,1.000000,0.000000,0.000000,0.000000
1782117329.892009,1832693,-0.970703,-0.075195,-0.246582,-8.780488,0.609756,-0.914634,-2.756250,39.687500,0.993750,0.0,1.000000,0.000000,0.000000,0.000000
1782117329.900009,1832701,-0.970703,-0.075195,-0.246582,-8.780488,0.609756,-0.914634,-2.800000,39.768749,0.968750,0.0,1.000000,0.000000,0.000000,0.000000
1782117329.909009,1832710,-0.969727,-0.072754,-0.248535,-8.231708,0.914634,-0.792683,-2.800000,39.768749,0.968750,0.0,1.000000,0.000000,0.000000,0.000000
1782117329.919009,1832720,-0.974121,-0.061035,-0.243164,-6.951220,0.914634,-0.365854,-2.968750,39.631252,0.843750,0.0,1.000000,0.000000,0.000000,0.000000
1782117329.931009,1832732,-0.978027,-0.046387,-0.234863,-1.890244,-0.121951,0.914634,-2.968750,39.631252,0.843750,0.0,1.000000,0.000000,0.000000,0.000000
1782117329.939009,1832740,-0.978027,-0.046387,-0.234863,-1.890244,-0.121951,0.914634,-3.025000,39.537502,0.818750,0.0,1.000000,0.000000,0.000000,0.000000
1782117329.949009,1832750,-0.978027,-0.050293,-0.234863,0.121951,-0.365854,1.158537,-3.025000,39.537502,0.818750,0.0,1.000000,0.000000,0.000000,0.000000
1782117329.959009,1832760,-0.977051,-0.049316,-0.232422,1.463415,-0.487805,0.975610,-3.068750,39.450001,0.831250,0.0,1.000000,0.000000,0.000000,0.000000
1782117329.970009,1832771,-0.976074,-0.053223,-0.229004,2.439024,-0.304878,0.792683,-3.068750,39.450001,0.831250,0.0,1.000000,0.000000,0.000000,0.000000
1782117329.979009,1832780,-0.977539,-0.057617,-0.228516,3.048780,0.121951,0.975610,-2.837500,39.725002,0.850000,0.0,1.000000,0.000000,0.000000,0.000000
1782117329.989009,1832790,-0.979492,-0.061035,-0.231934,3.414634,0.182927,1.097561,-2.837500,39.725002,0.850000,0.0,1.000000,0.000000,0.000000,0.000000
1782117329.999009,1832800,-0.978027,-0.054688,-0.235352,3.902439,0.060976,1.158537,-3.087500,39.424999,0.781250,0.0,1.000000,0.000000,0.000000,0.000000
1782117330.011009,1832812,-0.982422,-0.020508,-0.227539,4.817073,-0.487805,1.951220,-3.087500,39.424999,0.781250,0.0,1.000000,0.000000,0.000000,0.000000
1782117330.019009,1832820,-0.982422,-0.020508,-0.227539,4.817073,-0.487805,1.951220,-3.043750,39.443752,0.825000,0.0,1.000000,0.000000,0.000000,0.000000
1782117330.029009,1832830,-0.983398,-0.010742,-0.217285,4.756098,-1.341463,2.317073,-3.043750,39.443752,0.825000,0.0,1.000000,0.000000,0.000000,0.000000
1782117330.039009,1832840,-0.986328,-0.002441,-0.213867,4.085366,-2.439024,2.560976,-3.000000,39.456249,0.806250,0.0,1.000000,0.000000,0.000000,0.000000
1782117330.051009,1832852,-0.980957,0.005859,-0.206543,0.792683,-3.475610,2.378049,-2.762500,39.643749,0.925000,0.0,1.000000,0.000000,0.000000,0.000000
1782117330.060009,1832861,-0.980957,0.005859,-0.206543,0.792683,-3.475610,2.378049,-2.762500,39.643749,0.925000,0.0,1.000000,0.000000,0.000000,0.000000
1782117330.069009,1832870,-0.979980,-0.006836,-0.208008,-1.097561,-3.597561,2.012195,-2.762500,39.643749,0.925000,0.0,1.000000,0.000000,0.000000,0.000000
1782117330.080009,1832881,-0.979980,-0.024414,-0.215820,-2.560976,-3.414634,1.768293,-2.950000,39.387501,0.862500,0.0,1.000000,0.000000,0.000000,0.000000
1782117330.091009,1832892,-0.979492,-0.037109,-0.224121,-3.475610,-3.292683,1.646341,-3.025000,39.368752,0.931250,0.0,1.000000,0.000000,0.000000,0.000000
1782117330.099009,1832900,-0.978027,-0.045898,-0.229492,-4.207317,-3.292683,1.463415,-3.025000,39.368752,0.931250,0.0,1.000000,0.000000,0.000000,0.000000
1782117330.109009,1832910,-0.979492,-0.050781,-0.235352,-4.939024,-3.353659,1.219512,-2.956250,39.437500,0.956250,0.0,1.000000,0.000000,0.000000,0.000000
1782117330.119009,1832920,-0.976562,-0.047363,-0.240723,-5.304878,-3.719512,1.158537,-2.956250,39.437500,0.956250,0.0,1.000000,0.000000,0.000000,0.000000
1782117330.131009,1832932,-0.971191,-0.041504,-0.237793,-5.000000,-3.841464,1.097561,-2.962500,39.375000,0.987500,0.0,1.000000,0.000000,0.000000,0.000000
1782117330.139009,1832940,-0.966797,-0.039062,-0.232422,-4.695122,-3.353659,1.219512,-2.962500,39.375000,0.987500,0.0,1.000000,0.000000,0.000000,0.000000
1782117330.149009,1832950,-0.970215,-0.041016,-0.232910,-4.573171,-2.682927,1.402439,-2.931250,39.406250,1.012500,0.0,1.000000,0.000000,0.000000,0.000000
1782117330.159009,1832960,-0.972168,-0.040039,-0.237793,-4.756098,-2.195122,1.463415,-2.931250,39.406250,1.012500,0.0,1.000000,0.000000,0.000000,0.000000
1782117330.171009,1832972,-0.975098,-0.032715,-0.238281,-4.939024,-1.890244,1.524390,-2.975000,39.412502,0.987500,0.0,1.000000,0.000000,0.000000,0.000000
1782117330.179009,1832980,-0.977539,-0.031250,-0.237305,-4.451220,-2.256098,1.585366,-2.975000,39.412502,0.987500,0.0,1.000000,0.000000,0.000000,0.000000
1782117330.189009,1832990,-0.977539,-0.028809,-0.237305,-3.963415,-2.560976,1.463415,-2.756250,39.693752,1.125000,0.0,1.000000,0.000000,0.000000,0.000000
1782117330.199009,1833000,-0.977539,-0.026367,-0.234375,-3.597561,-2.682927,1.280488,-2.756250,39.693752,1.125000,0.0,1.000000,0.000000,0.000000,0.000000
1782117330.209009,1833010,-0.979004,-0.023438,-0.224121,-3.231707,-2.865854,1.158537,-3.031250,39.387501,1.006250,0.0,1.000000,0.000000,0.000000,0.000000
1782117330.219009,1833020,-0.977539,-0.027832,-0.218750,-2.926829,-2.682927,0.975610,-3.031250,39.387501,1.006250,0.0,1.000000,0.000000,0.000000,0.000000
1782117330.229009,1833030,-0.978516,-0.033203,-0.218262,-2.987805,-2.073171,0.975610,-2.987500,39.406250,0.981250,0.0,1.000000,0.000000,0.000000,0.000000
1782117330.239009,1833040,-0.979004,-0.038574,-0.225098,-3.780488,-1.524390,0.975610,-2.987500,39.406250,0.981250,0.0,1.000000,0.000000,0.000000,0.000000
1782117330.251009,1833052,-0.976562,-0.035156,-0.233398,-4.695122,-1.524390,1.036585,-3.087500,39.343750,1.012500,0.0,1.000000,0.000000,0.000000,0.000000
1782117330.259009,1833060,-0.976074,-0.020508,-0.236328,-5.060976,-1.829268,1.097561,-3.087500,39.343750,1.012500,0.0,1.000000,0.000000,0.000000,0.000000
1782117330.270009,1833071,-0.969238,-0.006348,-0.234863,-4.878049,-1.951220,1.097561,-2.987500,39.400002,1.018750,0.0,1.000000,0.000000,0.000000,0.000000
1782117330.280009,1833081,-0.966797,-0.002441,-0.231445,-4.634146,-1.402439,1.036585,-2.987500,39.400002,1.018750,0.0,1.000000,0.000000,0.000000,0.000000
1782117330.292009,1833093,-0.969238,-0.004883,-0.231445,-5.000000,-0.670732,1.097561,-3.131250,39.337502,0.987500,0.0,1.000000,0.000000,0.000000,0.000000
1782117330.300009,1833101,-0.971191,-0.011719,-0.236328,-5.731708,-0.121951,0.975610,-3.131250,39.337502,0.987500,0.0,1.000000,0.000000,0.000000,0.000000
1782117330.309009,1833110,-0.970215,-0.017578,-0.244629,-6.829268,0.243902,0.731707,-3.125000,39.387501,0.937500,0.0,1.000000,0.000000,0.000000,0.000000
1782117330.320009,1833121,-0.971191,-0.020020,-0.246094,-7.804878,0.365854,0.670732,-3.125000,39.387501,0.937500,0.0,1.000000,0.000000,0.000000,0.000000
1782117330.332009,1833133,-0.973145,-0.020996,-0.244141,-7.987805,0.243902,0.731707,-3.218750,39.356251,0.931250,0.0,1.000000,0.000000,0.000000,0.000000
1782117330.339009,1833140,-0.973145,-0.018066,-0.238770,-7.439024,0.121951,0.670732,-3.218750,39.356251,0.931250,0.0,1.000000,0.000000,0.000000,0.000000
1782117330.349009,1833150,-0.971680,-0.021973,-0.237305,-6.768293,0.426829,0.487805,-3.156250,39.387501,0.875000,0.0,1.000000,0.000000,0.000000,0.000000
1782117330.360009,1833161,-0.970703,-0.031250,-0.240234,-6.463415,1.036585,0.426829,-3.287500,39.318752,0.818750,0.0,1.000000,0.000000,0.000000,0.000000
1782117330.371009,1833172,-0.973145,-0.033203,-0.244629,-6.524390,1.463415,0.304878,-3.287500,39.318752,0.818750,0.0,1.000000,0.000000,0.000000,0.000000
1782117330.380009,1833181,-0.971680,-0.029297,-0.245117,-6.646342,1.768293,0.243902,-3.337500,39.262501,0.781250,0.0,1.000000,0.000000,0.000000,0.000000
1782117330.389009,1833190,-0.972656,-0.026855,-0.245117,-6.585366,1.829268,0.182927,-3.337500,39.262501,0.781250,0.0,1.000000,0.000000,0.000000,0.000000
1782117330.399009,1833200,-0.973145,-0.022461,-0.245117,-6.341464,1.707317,0.182927,-3.143750,39.562500,0.768750,0.0,1.000000,0.000000,0.000000,0.000000
1782117330.411009,1833212,-0.974609,-0.017090,-0.244141,-5.914634,1.341463,0.365854,-3.143750,39.562500,0.768750,0.0,1.000000,0.000000,0.000000,0.000000
1782117330.419009,1833220,-0.975098,-0.015625,-0.240723,-5.365854,1.036585,0.487805,-3.331250,39.431252,0.712500,0.0,1.000000,0.000000,0.000000,0.000000
1782117330.429009,1833230,-0.975098,-0.016113,-0.236328,-5.000000,0.853659,0.487805,-3.331250,39.431252,0.712500,0.0,1.000000,0.000000,0.000000,0.000000
1782117330.439009,1833240,-0.977051,-0.018555,-0.233887,-5.000000,0.914634,0.487805,-3.031250,39.700001,0.725000,0.0,1.000000,0.000000,0.000000,0.000000
1782117330.452009,1833253,-0.976074,-0.020508,-0.232422,-5.365854,1.036585,0.548781,-3.031250,39.700001,0.725000,0.0,1.000000,0.000000,0.000000,0.000000
1782117330.460009,1833261,-0.979004,-0.023438,-0.230957,-6.097561,1.097561,0.548781,-3.387500,39.424999,0.575000,0.0,1.000000,0.000000,0.000000,0.000000
1782117330.470009,1833271,-0.979492,-0.024414,-0.228516,-6.707317,0.975610,0.609756,-3.387500,39.424999,0.575000,0.0,1.000000,0.000000,0.000000,0.000000
1782117330.480009,1833281,-0.980469,-0.024902,-0.228027,-6.768293,0.975610,0.792683,-3.381250,39.443752,0.568750,0.0,1.000000,0.000000,0.000000,0.000000
1782117330.493009,1833294,-0.980469,-0.027832,-0.229004,-6.341464,0.731707,0.853659,-3.381250,39.443752,0.568750,0.0,1.000000,0.000000,0.000000,0.000000
1782117330.499009,1833300,-0.975586,-0.026855,-0.235840,-5.792683,0.487805,0.914634,-3.375000,39.475002,0.531250,0.0,1.000000,0.000000,0.000000,0.000000
1782117330.509009,1833310,-0.975586,-0.027832,-0.239746,-4.939024,0.243902,0.914634,-3.375000,39.475002,0.531250,0.0,1.000000,0.000000,0.000000,0.000000
1782117330.519009,1833320,-0.976074,-0.023926,-0.239746,-4.329268,0.182927,0.670732,-3.493750,39.393749,0.475000,0.0,1.000000,0.000000,0.000000,0.000000
1782117330.532009,1833333,-0.972168,-0.020996,-0.235352,-3.841464,0.304878,0.609756,-3.493750,39.393749,0.475000,0.0,1.000000,0.000000,0.000000,0.000000
1782117330.539009,1833340,-0.967773,-0.021484,-0.233887,-3.597561,0.792683,0.792683,-3.462500,39.443752,0.525000,0.0,1.000000,0.000000,0.000000,0.000000
1782117330.549009,1833350,-0.968750,-0.031250,-0.237793,-3.597561,1.463415,0.975610,-3.462500,39.443752,0.525000,0.0,1.000000,0.000000,0.000000,0.000000
1782117330.559009,1833360,-0.969727,-0.034668,-0.242676,-3.780488,1.890244,1.097561,-3.606250,39.356251,0.443750,0.0,1.000000,0.000000,0.000000,0.000000
1782117330.573009,1833374,-0.972656,-0.035156,-0.243652,-3.536585,2.073171,1.402439,-3.525000,39.375000,0.375000,0.0,1.000000,0.000000,0.000000,0.000000
1782117330.579009,1833380,-0.974609,-0.035645,-0.242676,-2.743902,2.134146,1.524390,-3.525000,39.375000,0.375000,0.0,1.000000,0.000000,0.000000,0.000000
1782117330.589009,1833390,-0.976074,-0.033691,-0.243652,-1.463415,2.073171,1.646341,-3.525000,39.375000,0.375000,0.0,1.000000,0.000000,0.000000,0.000000
1782117330.599009,1833400,-0.975098,-0.030762,-0.243164,-0.182927,1.951220,1.707317,-3.600000,39.343750,0.350000,0.0,1.000000,0.000000,0.000000,0.000000
1782117330.610009,1833411,-0.974609,-0.029785,-0.240723,0.975610,1.768293,1.768293,-3.600000,39.343750,0.350000,0.0,1.000000,0.000000,0.000000,0.000000
1782117330.619009,1833420,-0.971191,-0.027344,-0.240723,1.646341,1.768293,1.707317,-3.650000,39.356251,0.300000,0.0,1.000000,0.000000,0.000000,0.000000
1782117330.629009,1833430,-0.970703,-0.025391,-0.239258,2.500000,1.890244,1.768293,-3.650000,39.356251,0.300000,0.0,1.000000,0.000000,0.000000,0.000000
1782117330.639009,1833440,-0.969727,-0.026367,-0.237793,3.048780,2.195122,1.890244,-3.606250,39.325001,0.212500,0.0,1.000000,0.000000,0.000000,0.000000
1782117330.650009,1833451,-0.972168,-0.027832,-0.240234,3.475610,2.500000,1.890244,-3.606250,39.325001,0.212500,0.0,1.000000,0.000000,0.000000,0.000000
1782117330.659009,1833460,-0.972656,-0.034668,-0.243652,3.841464,2.621951,2.012195,-3.556250,39.368752,0.318750,0.0,1.000000,0.000000,0.000000,0.000000
1782117330.670009,1833471,-0.973633,-0.031738,-0.244629,4.573171,2.865854,2.073171,-3.181250,39.775002,0.331250,0.0,1.000000,0.000000,0.000000,0.000000
1782117330.679009,1833480,-0.978027,-0.025879,-0.244629,5.182927,3.048780,2.134146,-3.181250,39.775002,0.331250,0.0,1.000000,0.000000,0.000000,0.000000
1782117330.692009,1833493,-0.973145,-0.022461,-0.248535,5.670732,2.804878,2.134146,-3.487500,39.462502,0.200000,0.0,1.000000,0.000000,0.000000,0.000000
1782117330.700009,1833501,-0.970703,-0.012207,-0.252930,5.426829,2.987805,1.951220,-3.487500,39.462502,0.200000,0.0,1.000000,0.000000,0.000000,0.000000
1782117330.709009,1833510,-0.970703,-0.012207,-0.252930,5.426829,2.987805,1.951220,-3.437500,39.543751,0.256250,0.0,1.000000,0.000000,0.000000,0.000000
1782117330.720009,1833521,-0.968262,-0.009277,-0.250000,5.487805,3.109756,1.829268,-3.437500,39.543751,0.256250,0.0,1.000000,0.000000,0.000000,0.000000
1782117330.729009,1833530,-0.968262,-0.011719,-0.244629,6.097561,3.292683,1.829268,-3.456250,39.562500,0.281250,0.0,1.000000,0.000000,0.000000,0.000000
1782117330.739009,1833540,-0.968262,-0.017090,-0.242676,6.768293,3.597561,1.951220,-3.456250,39.562500,0.281250,0.0,1.000000,0.000000,0.000000,0.000000
1782117330.749009,1833550,-0.968262,-0.022461,-0.245117,6.829268,4.085366,2.134146,-3.293750,39.637501,0.237500,0.0,1.000000,0.000000,0.000000,0.000000
1782117330.759009,1833560,-0.970215,-0.026367,-0.250488,6.280488,4.451220,2.195122,-3.293750,39.637501,0.237500,0.0,1.000000,0.000000,0.000000,0.000000
1782117330.771009,1833572,-0.970215,-0.026855,-0.254395,5.609756,4.512195,2.134146,-3.387500,39.600002,0.175000,0.0,1.000000,0.000000,0.000000,0.000000
1782117330.779009,1833580,-0.971680,-0.023926,-0.255859,5.060976,4.634146,2.195122,-3.387500,39.600002,0.175000,0.0,1.000000,0.000000,0.000000,0.000000
1782117330.790009,1833591,-0.971191,-0.022949,-0.252441,5.548780,4.573171,2.378049,-3.281250,39.662502,0.187500,0.0,1.000000,0.000000,0.000000,0.000000
1782117330.799009,1833600,-0.972168,-0.021973,-0.250000,6.280488,4.573171,2.560976,-3.281250,39.662502,0.187500,0.0,1.000000,0.000000,0.000000,0.000000
1782117330.813009,1833614,-0.975098,-0.022949,-0.250000,7.073171,4.451220,2.743902,-3.212500,39.693752,0.168750,0.0,1.000000,0.000000,0.000000,0.000000
1782117330.819009,1833620,-0.975098,-0.020508,-0.250488,7.743903,4.024390,2.865854,-3.212500,39.693752,0.168750,0.0,1.000000,0.000000,0.000000,0.000000
1782117330.829009,1833630,-0.971680,-0.020508,-0.252441,8.292683,3.780488,2.743902,-3.212500,39.681252,0.137500,0.0,1.000000,0.000000,0.000000,0.000000
1782117330.839009,1833640,-0.967773,-0.018066,-0.253906,8.414635,3.963415,2.621951,-3.212500,39.681252,0.137500,0.0,1.000000,0.000000,0.000000,0.000000
1782117330.851009,1833652,-0.970215,-0.013672,-0.253418,8.292683,4.024390,2.743902,-3.237500,39.674999,0.131250,0.0,1.000000,0.000000,0.000000,0.000000
1782117330.859009,1833660,-0.971191,-0.011230,-0.253418,7.987805,3.841464,2.865854,-3.237500,39.674999,0.131250,0.0,1.000000,0.000000,0.000000,0.000000
1782117330.869009,1833670,-0.970215,-0.009766,-0.253418,7.987805,3.597561,2.926829,-3.087500,39.756252,0.062500,0.0,1.000000,0.000000,0.000000,0.000000
1782117330.880009,1833681,-0.971680,-0.011230,-0.254395,8.231708,3.597561,3.048780,-3.087500,39.756252,0.062500,0.0,1.000000,0.000000,0.000000,0.000000
1782117330.892009,1833693,-0.974609,-0.013672,-0.257812,8.414635,3.536585,3.353659,-3.137500,39.662502,0.100000,0.0,1.000000,0.000000,0.000000,0.000000
1782117330.900009,1833701,-0.974121,-0.017090,-0.261230,8.170732,3.170732,3.292683,-3.137500,39.662502,0.100000,0.0,1.000000,0.000000,0.000000,0.000000
1782117330.911009,1833712,-0.970703,-0.016602,-0.267090,7.987805,2.987805,3.048780,-2.993750,39.762501,0.068750,0.0,1.000000,0.000000,0.000000,0.000000
1782117330.919009,1833720,-0.968750,-0.013672,-0.270996,7.743903,2.865854,2.987805,-2.993750,39.762501,0.068750,0.0,1.000000,0.000000,0.000000,0.000000
1782117330.931009,1833732,-0.968750,-0.010254,-0.274902,7.743903,2.621951,2.926829,-2.975000,39.806252,0.075000,0.0,1.000000,0.000000,0.000000,0.000000
1782117330.939009,1833740,-0.966309,-0.007324,-0.275879,8.109756,2.317073,3.048780,-2.975000,39.806252,0.075000,0.0,1.000000,0.000000,0.000000,0.000000
1782117330.949009,1833750,-0.966797,-0.004395,-0.277344,8.475610,2.195122,3.170732,-2.925000,39.881252,0.125000,0.0,1.000000,0.000000,0.000000,0.000000
1782117330.959009,1833760,-0.968750,-0.004883,-0.273438,8.841464,1.829268,3.231707,-2.925000,39.881252,0.125000,0.0,1.000000,0.000000,0.000000,0.000000
1782117330.969009,1833770,-0.966797,-0.004395,-0.267578,8.902439,1.646341,3.109756,-2.950000,39.843750,0.093750,0.0,1.000000,0.000000,0.000000,0.000000
1782117330.979009,1833780,-0.966309,-0.006836,-0.265137,8.597561,1.829268,3.109756,-2.806250,39.862499,0.212500,0.0,1.000000,0.000000,0.000000,0.000000
1782117330.989009,1833790,-0.966797,-0.010254,-0.266113,8.109756,2.012195,3.048780,-2.806250,39.862499,0.212500,0.0,1.000000,0.000000,0.000000,0.000000
1782117330.999009,1833800,-0.967285,-0.008301,-0.269531,7.317073,2.195122,2.987805,-2.787500,39.912502,0.087500,0.0,1.000000,0.000000,0.000000,0.000000
1782117331.011009,1833812,-0.966797,-0.005371,-0.274414,6.402439,2.317073,2.804878,-2.787500,39.912502,0.087500,0.0,1.000000,0.000000,0.000000,0.000000
1782117331.019009,1833820,-0.966797,0.000000,-0.276855,5.609756,2.378049,2.682927,-2.631250,39.968750,0.100000,0.0,1.000000,0.000000,0.000000,0.000000
1782117331.029009,1833830,-0.967773,0.002441,-0.281738,5.000000,2.378049,2.560976,-2.631250,39.968750,0.100000,0.0,1.000000,0.000000,0.000000,0.000000
1782117331.039009,1833840,-0.967285,0.006348,-0.281250,4.451220,2.256098,2.378049,-2.725000,39.881252,0.112500,0.0,1.000000,0.000000,0.000000,0.000000
1782117331.049009,1833850,-0.965332,0.006348,-0.282227,3.902439,2.073171,2.073171,-2.725000,39.881252,0.112500,0.0,1.000000,0.000000,0.000000,0.000000
1782117331.060009,1833861,-0.962891,0.007812,-0.285156,3.597561,2.012195,1.829268,-2.693750,39.887501,0.075000,0.0,1.000000,0.000000,0.000000,0.000000
1782117331.070009,1833871,-0.962891,0.009766,-0.283691,2.804878,2.073171,1.707317,-2.693750,39.887501,0.075000,0.0,1.000000,0.000000,0.000000,0.000000
1782117331.080009,1833881,-0.964844,0.009766,-0.278320,2.134146,1.829268,1.646341,-2.231250,40.400002,0.175000,0.0,1.000000,0.000000,0.000000,0.000000
1782117331.089009,1833890,-0.962402,0.007812,-0.275879,1.402439,1.585366,1.585366,-2.231250,40.400002,0.175000,0.0,1.000000,0.000000,0.000000,0.000000
1782117331.099009,1833900,-0.961914,0.004395,-0.273438,0.487805,1.768293,1.585366,-2.668750,39.975002,0.043750,0.0,1.000000,0.000000,0.000000,0.000000
1782117331.110009,1833911,-0.962891,-0.000977,-0.272461,-0.670732,1.890244,1.524390,-2.668750,39.975002,0.043750,0.0,1.000000,0.000000,0.000000,0.000000
1782117331.120009,1833921,-0.961914,-0.002930,-0.276855,-2.012195,1.829268,1.280488,-2.556250,40.081249,0.068750,0.0,1.000000,0.000000,0.000000,0.000000
1782117331.129009,1833930,-0.962402,-0.008301,-0.284180,-2.926829,1.829268,0.975610,-2.556250,40.081249,0.068750,0.0,1.000000,0.000000,0.000000,0.000000
1782117331.140009,1833941,-0.959961,-0.006836,-0.290039,-3.658537,2.134146,0.670732,-2.593750,40.031250,0.100000,0.0,1.000000,0.000000,0.000000,0.000000
1782117331.149009,1833950,-0.957520,-0.005371,-0.292969,-3.963415,2.256098,0.426829,-2.593750,40.031250,0.100000,0.0,1.000000,0.000000,0.000000,0.000000
1782117331.160009,1833961,-0.955078,-0.006348,-0.294434,-4.390244,2.621951,0.121951,-2.675000,40.025002,-0.031250,0.0,1.000000,0.000000,0.000000,0.000000
1782117331.169009,1833970,-0.952637,-0.006348,-0.293945,-4.634146,2.926829,-0.060976,-2.675000,40.025002,-0.031250,0.0,1.000000,0.000000,0.000000,0.000000
1782117331.179009,1833980,-0.952148,-0.010254,-0.291016,-4.634146,3.475610,-0.121951,-2.731250,40.025002,-0.112500,0.0,1.000000,0.000000,0.000000,0.000000
