Unix_Time_s,IMU1_RefTime,ax_g,ay_g,az_g,gx_dps,gy_dps,gz_dps,mx_uT,my_uT,mz_uT,temp_C,qw,qx,qy,qz
1782117324.249009,1823109,0.910645,-0.017578,-0.410645,0.000000,0.060976,-0.243902,16.000000,-37.343750,2.881250,0.0,1.000000,0.000000,0.000000,0.000000
1782117324.259009,1823119,0.911133,-0.014648,-0.409668,0.060976,-0.060976,-0.304878,16.081251,-37.181252,2.793750,0.0,1.000000,0.000000,0.000000,0.000000
1782117324.269009,1823129,0.912598,-0.016113,-0.411133,0.000000,-0.060976,-0.243902,16.081251,-37.181252,2.793750,0.0,1.000000,0.000000,0.000000,0.000000
1782117324.282009,1823142,0.912598,-0.017090,-0.410156,-0.060976,-0.060976,-0.243902,16.062500,-37.250000,2.937500,0.0,1.000000,0.000000,0.000000,0.000000
1782117324.289009,1823149,0.913574,-0.018066,-0.407227,-0.121951,0.000000,-0.304878,16.056250,-37.162502,2.843750,0.0,1.000000,0.000000,0.000000,0.000000
1782117324.299009,1823159,0.913574,-0.018555,-0.408203,-0.121951,0.060976,-0.365854,16.056250,-37.162502,2.843750,0.0,1.000000,0.000000,0.000000,0.000000
1782117324.310009,1823170,0.912109,-0.017090,-0.409180,-0.121951,0.182927,-0.304878,16.018751,-37.306252,2.850000,0.0,1.000000,0.000000,0.000000,0.000000
1782117324.321009,1823181,0.911133,-0.017578,-0.409668,-0.182927,0.060976,-0.365854,16.018751,-37.306252,2.850000,0.0,1.000000,0.000000,0.000000,0.000000
1782117324.329009,1823189,0.910645,-0.016602,-0.411133,-0.243902,-0.060976,-0.304878,16.062500,-37.156250,2.806250,0.0,1.000000,0.000000,0.000000,0.000000
1782117324.340009,1823200,0.910156,-0.016113,-0.413086,-0.182927,-0.121951,-0.243902,16.062500,-37.156250,2.806250,0.0,1.000000,0.000000,0.000000,0.000000
1782117324.349009,1823209,0.910156,-0.014648,-0.412109,-0.182927,-0.121951,-0.243902,16.043751,-37.231251,2.818750,0.0,1.000000,0.000000,0.000000,0.000000
1782117324.362009,1823222,0.910645,-0.015137,-0.410645,-0.121951,-0.182927,-0.243902,16.043751,-37.231251,2.818750,0.0,1.000000,0.000000,0.000000,0.000000
1782117324.369009,1823229,0.911133,-0.016113,-0.409668,-0.182927,-0.243902,-0.304878,16.137501,-37.106251,2.793750,0.0,1.000000,0.000000,0.000000,0.000000
1782117324.379009,1823239,0.912598,-0.017578,-0.411133,-0.182927,-0.121951,-0.426829,16.137501,-37.106251,2.793750,0.0,1.000000,0.000000,0.000000,0.000000
1782117324.389009,1823249,0.910645,-0.016602,-0.410156,-0.060976,0.000000,-0.426829,16.025000,-37.306252,2.837500,0.0,1.000000,0.000000,0.000000,0.000000
1782117324.402009,1823262,0.912109,-0.016113,-0.411133,0.060976,0.000000,-0.426829,16.025000,-37.306252,2.837500,0.0,1.000000,0.000000,0.000000,0.000000
1782117324.409009,1823269,0.911133,-0.017090,-0.411133,0.121951,-0.060976,-0.426829,16.068750,-37.168751,2.825000,0.0,1.000000,0.000000,0.000000,0.000000
1782117324.419009,1823279,0.912598,-0.016602,-0.411133,0.182927,-0.060976,-0.426829,16.068750,-37.168751,2.825000,0.0,1.000000,0.000000,0.000000,0.000000
1782117324.429009,1823289,0.912598,-0.016113,-0.409668,0.121951,-0.060976,-0.365854,16.106251,-37.068752,2.762500,0.0,1.000000,0.000000,0.000000,0.000000
1782117324.441009,1823301,0.913086,-0.017090,-0.408691,0.060976,-0.182927,-0.365854,16.106251,-37.068752,2.762500,0.0,1.000000,0.000000,0.000000,0.000000
1782117324.449009,1823309,0.910645,-0.014648,-0.407227,0.000000,-0.060976,-0.365854,16.087500,-37.212502,2.831250,0.0,1.000000,0.000000,0.000000,0.000000
1782117324.459009,1823319,0.909180,-0.016602,-0.408203,-0.060976,-0.182927,-0.487805,16.087500,-37.212502,2.831250,0.0,1.000000,0.000000,0.000000,0.000000
1782117324.469009,1823329,0.910156,-0.016602,-0.407715,0.000000,-0.365854,-0.548781,16.006250,-37.299999,2.906250,0.0,1.000000,0.000000,0.000000,0.000000
1782117324.482009,1823342,0.911133,-0.017578,-0.409180,0.121951,-0.487805,-0.548781,16.006250,-37.299999,2.906250,0.0,1.000000,0.000000,0.000000,0.000000
1782117324.489009,1823349,0.913574,-0.019043,-0.409180,0.304878,-0.548781,-0.609756,16.068750,-37.174999,2.831250,0.0,1.000000,0.000000,0.000000,0.000000
1782117324.499009,1823359,0.915039,-0.017090,-0.410645,0.487805,-0.487805,-0.670732,16.068750,-37.174999,2.831250,0.0,1.000000,0.000000,0.000000,0.000000
1782117324.509009,1823369,0.915039,-0.016602,-0.410156,0.609756,-0.365854,-0.670732,16.018751,-37.293751,2.893750,0.0,1.000000,0.000000,0.000000,0.000000
1782117324.522009,1823382,0.911133,-0.016602,-0.407715,0.792683,-0.304878,-0.792683,16.018751,-37.293751,2.893750,0.0,1.000000,0.000000,0.000000,0.000000
1782117324.530009,1823390,0.911133,-0.016602,-0.407715,0.792683,-0.304878,-0.792683,16.193750,-37.056252,2.718750,0.0,1.000000,0.000000,0.000000,0.000000
1782117324.540009,1823400,0.911621,-0.017578,-0.407227,0.853659,-0.365854,-0.853659,16.193750,-37.056252,2.718750,0.0,1.000000,0.000000,0.000000,0.000000
1782117324.550009,1823410,0.911133,-0.017090,-0.407715,0.914634,-0.365854,-0.853659,16.081251,-37.174999,2.800000,0.0,1.000000,0.000000,0.000000,0.000000
1782117324.561009,1823421,0.913574,-0.014648,-0.408691,1.158537,-0.304878,-0.853659,16.081251,-37.174999,2.800000,0.0,1.000000,0.000000,0.000000,0.000000
1782117324.569009,1823429,0.913574,-0.014648,-0.408691,1.158537,-0.304878,-0.853659,16.106251,-37.131252,2.731250,0.0,1.000000,0.000000,0.000000,0.000000
1782117324.580009,1823440,0.912598,-0.014160,-0.408691,1.219512,-0.243902,-0.731707,16.106251,-37.131252,2.731250,0.0,1.000000,0.000000,0.000000,0.000000
1782117324.590009,1823450,0.912109,-0.014160,-0.410156,1.036585,-0.243902,-0.670732,16.075001,-37.181252,2.775000,0.0,1.000000,0.000000,0.000000,0.000000
1782117324.602009,1823462,0.912109,-0.013184,-0.410645,0.792683,-0.243902,-0.609756,16.075001,-37.181252,2.775000,0.0,1.000000,0.000000,0.000000,0.000000
1782117324.609009,1823469,0.912109,-0.013672,-0.412109,0.548781,-0.182927,-0.548781,16.125000,-37.156250,2.825000,0.0,1.000000,0.000000,0.000000,0.000000
1782117324.619009,1823479,0.911621,-0.014648,-0.410645,0.243902,-0.182927,-0.487805,16.125000,-37.156250,2.825000,0.0,1.000000,0.000000,0.000000,0.000000
1782117324.629009,1823489,0.913574,-0.013184,-0.410156,-0.182927,-0.060976,-0.365854,16.075001,-37.200001,2.812500,0.0,1.000000,0.000000,0.000000,0.000000
1782117324.640009,1823500,0.913574,-0.012207,-0.411621,-0.792683,0.060976,-0.121951,16.075001,-37.200001,2.812500,0.0,1.000000,0.000000,0.000000,0.000000
1782117324.649009,1823509,0.913574,-0.012207,-0.411621,-0.792683,0.060976,-0.121951,16.137501,-37.131252,2.762500,0.0,1.000000,0.000000,0.000000,0.000000
1782117324.659009,1823519,0.911621,-0.010254,-0.411133,-1.097561,0.121951,0.060976,16.137501,-37.131252,2.762500,0.0,1.000000,0.000000,0.000000,0.000000
1782117324.669009,1823529,0.913086,-0.011230,-0.410645,-1.219512,0.121951,0.182927,16.081251,-37.162502,2.843750,0.0,1.000000,0.000000,0.000000,0.000000
1782117324.681009,1823541,0.911621,-0.012207,-0.409668,-1.341463,0.182927,0.243902,16.081251,-37.162502,2.843750,0.0,1.000000,0.000000,0.000000,0.000000
1782117324.689009,1823549,0.910645,-0.011230,-0.411133,-1.524390,0.121951,0.365854,16.106251,-37.162502,2.800000,0.0,1.000000,0.000000,0.000000,0.000000
1782117324.699009,1823559,0.910645,-0.012207,-0.411133,-1.646341,0.121951,0.304878,16.106251,-37.162502,2.800000,0.0,1.000000,0.000000,0.000000,0.000000
1782117324.709009,1823569,0.909668,-0.013672,-0.413086,-1.646341,0.121951,0.243902,16.037500,-37.187500,2.831250,0.0,1.000000,0.000000,0.000000,0.000000
1782117324.722009,1823582,0.910645,-0.014648,-0.414551,-1.646341,0.060976,0.243902,16.037500,-37.187500,2.831250,0.0,1.000000,0.000000,0.000000,0.000000
1782117324.730009,1823590,0.910645,-0.015137,-0.413086,-1.585366,0.060976,0.182927,16.100000,-37.174999,2.887500,0.0,1.000000,0.000000,0.000000,0.000000
1782117324.740009,1823600,0.912598,-0.017090,-0.411133,-1.341463,0.000000,0.121951,16.100000,-37.174999,2.887500,0.0,1.000000,0.000000,0.000000,0.000000
1782117324.750009,1823610,0.912598,-0.018555,-0.411133,-1.158537,0.121951,0.121951,16.050001,-37.231251,2.912500,0.0,1.000000,0.000000,0.000000,0.000000
1782117324.759009,1823619,0.913086,-0.018066,-0.409180,-1.097561,0.182927,0.121951,16.050001,-37.231251,2.912500,0.0,1.000000,0.000000,0.000000,0.000000
1782117324.769009,1823629,0.913086,-0.017578,-0.408203,-1.097561,0.182927,0.121951,16.075001,-37.143749,2.837500,0.0,1.000000,0.000000,0.000000,0.000000
1782117324.779009,1823639,0.911621,-0.016602,-0.408203,-1.036585,0.121951,0.060976,16.075001,-37.143749,2.837500,0.0,1.000000,0.000000,0.000000,0.000000
1782117324.789009,1823649,0.913574,-0.015625,-0.407715,-0.914634,0.060976,0.000000,16.056250,-37.193752,2.900000,0.0,1.000000,0.000000,0.000000,0.000000
1782117324.799009,1823659,0.914551,-0.017578,-0.406250,-0.792683,0.000000,-0.060976,16.056250,-37.193752,2.900000,0.0,1.000000,0.000000,0.000000,0.000000
1782117324.809009,1823669,0.914062,-0.016602,-0.407227,-0.670732,0.060976,-0.060976,16.068750,-37.093750,2.825000,0.0,1.000000,0.000000,0.000000,0.000000
1782117324.819009,1823679,0.914551,-0.017090,-0.406250,-0.548781,0.060976,-0.060976,16.068750,-37.093750,2.825000,0.0,1.000000,0.000000,0.000000,0.000000
1782117324.829009,1823689,0.913574,-0.016602,-0.407227,-0.548781,0.243902,-0.121951,15.993751,-37.212502,2.875000,0.0,1.000000,0.000000,0.000000,0.000000
1782117324.841009,1823701,0.912598,-0.016113,-0.406250,-0.548781,0.121951,-0.182927,15.993751,-37.212502,2.875000,0.0,1.000000,0.000000,0.000000,0.000000
1782117324.849009,1823709,0.913574,-0.015625,-0.406738,-0.548781,0.121951,-0.182927,16.018751,-37.174999,2.918750,0.0,1.000000,0.000000,0.000000,0.000000
1782117324.859009,1823719,0.913574,-0.015137,-0.406738,-0.487805,0.121951,-0.243902,16.018751,-37.174999,2.918750,0.0,1.000000,0.000000,0.000000,0.000000
1782117324.869009,1823729,0.914551,-0.017578,-0.407227,-0.182927,0.121951,-0.304878,16.043751,-37.237499,2.962500,0.0,1.000000,0.000000,0.000000,0.000000
1782117324.879009,1823739,0.914551,-0.018066,-0.408691,-0.060976,0.121951,-0.304878,16.043751,-37.237499,2.962500,0.0,1.000000,0.000000,0.000000,0.000000
1782117324.889009,1823749,0.913574,-0.017578,-0.409668,0.060976,0.121951,-0.365854,16.062500,-37.243752,2.943750,0.0,1.000000,0.000000,0.000000,0.000000
1782117324.899009,1823759,0.913086,-0.017578,-0.409668,0.121951,0.182927,-0.426829,16.062500,-37.243752,2.943750,0.0,1.000000,0.000000,0.000000,0.000000
1782117324.909009,1823769,0.913574,-0.017578,-0.411133,0.182927,0.243902,-0.426829,16.006250,-37.218750,2.925000,0.0,1.000000,0.000000,0.000000,0.000000
1782117324.919009,1823779,0.911621,-0.016113,-0.410156,0.304878,0.304878,-0.487805,16.006250,-37.218750,2.925000,0.0,1.000000,0.000000,0.000000,0.000000
1782117324.929009,1823789,0.911133,-0.017578,-0.411133,0.426829,0.304878,-0.487805,16.031250,-37.218750,2.943750,0.0,1.000000,0.000000,0.000000,0.000000
1782117324.939009,1823799,0.912109,-0.016602,-0.409668,0.487805,0.243902,-0.487805,16.031250,-37.218750,2.943750,0.0,1.000000,0.000000,0.000000,0.000000
1782117324.949009,1823809,0.911133,-0.015625,-0.410156,0.487805,0.182927,-0.426829,16.050001,-37.218750,2.943750,0.0,1.000000,0.000000,0.000000,0.000000
1782117324.959009,1823819,0.912109,-0.015625,-0.409668,0.426829,0.121951,-0.365854,16.050001,-37.218750,2.943750,0.0,1.000000,0.000000,0.000000,0.000000
1782117324.969009,1823829,0.911133,-0.015625,-0.408691,0.304878,0.121951,-0.365854,16.031250,-37.206249,2.975000,0.0,1.000000,0.000000,0.000000,0.000000
1782117324.979009,1823839,0.910645,-0.015625,-0.408691,0.121951,0.182927,-0.365854,16.031250,-37.206249,2.975000,0.0,1.000000,0.000000,0.000000,0.000000
1782117324.990009,1823850,0.911133,-0.016113,-0.409668,0.060976,0.182927,-0.426829,16.043751,-37.193752,2.943750,0.0,1.000000,0.000000,0.000000,0.000000
1782117324.999009,1823859,0.912598,-0.016113,-0.410156,0.000000,0.304878,-0.426829,16.043751,-37.193752,2.943750,0.0,1.000000,0.000000,0.000000,0.000000
1782117325.010009,1823870,0.912598,-0.014648,-0.410156,0.060976,0.243902,-0.426829,16.087500,-37.137501,2.906250,0.0,1.000000,0.000000,0.000000,0.000000
1782117325.019009,1823879,0.911133,-0.014648,-0.410156,0.060976,0.243902,-0.426829,16.087500,-37.137501,2.906250,0.0,1.000000,0.000000,0.000000,0.000000
1782117325.029009,1823889,0.913086,-0.014648,-0.411621,0.060976,0.182927,-0.426829,16.137501,-37.000000,2.843750,0.0,1.000000,0.000000,0.000000,0.000000
1782117325.040009,1823900,0.913574,-0.015625,-0.409180,0.182927,0.182927,-0.426829,16.137501,-37.000000,2.843750,0.0,1.000000,0.000000,0.000000,0.000000
1782117325.050009,1823910,0.911621,-0.015137,-0.407715,0.182927,0.182927,-0.365854,16.056250,-37.156250,2.956250,0.0,1.000000,0.000000,0.000000,0.000000
1782117325.059009,1823919,0.913086,-0.015137,-0.408691,0.121951,0.060976,-0.487805,16.056250,-37.156250,2.956250,0.0,1.000000,0.000000,0.000000,0.000000
1782117325.069009,1823929,0.912109,-0.017578,-0.405762,0.060976,0.121951,-0.426829,16.056250,-37.137501,2.962500,0.0,1.000000,0.000000,0.000000,0.000000
1782117325.080009,1823940,0.911621,-0.018555,-0.406250,0.182927,0.121951,-0.487805,16.056250,-37.137501,2.962500,0.0,1.000000,0.000000,0.000000,0.000000
1782117325.091009,1823951,0.912109,-0.021484,-0.407227,0.365854,0.000000,-0.609756,16.087500,-37.106251,2.956250,0.0,1.000000,0.000000,0.000000,0.000000
1782117325.100009,1823960,0.915527,-0.020508,-0.409180,0.548781,0.000000,-0.609756,16.087500,-37.106251,2.956250,0.0,1.000000,0.000000,0.000000,0.000000
1782117325.109009,1823969,0.915527,-0.019531,-0.407715,0.670732,0.121951,-0.548781,16.106251,-37.137501,2.918750,0.0,1.000000,0.000000,0.000000,0.000000
1782117325.119009,1823979,0.915039,-0.018066,-0.406250,0.731707,0.121951,-0.487805,16.106251,-37.137501,2.918750,0.0,1.000000,0.000000,0.000000,0.000000
1782117325.130009,1823990,0.914551,-0.015625,-0.404297,0.670732,0.121951,-0.365854,16.000000,-37.162502,2.962500,0.0,1.000000,0.000000,0.000000,0.000000
1782117325.140009,1824000,0.915527,-0.012695,-0.404297,0.548781,0.243902,-0.426829,16.000000,-37.162502,2.962500,0.0,1.000000,0.000000,0.000000,0.000000
1782117325.150009,1824010,0.914551,-0.011719,-0.401855,0.365854,0.304878,-0.487805,16.075001,-37.156250,2.912500,0.0,1.000000,0.000000,0.000000,0.000000
1782117325.159009,1824019,0.914551,-0.011230,-0.402344,0.182927,0.304878,-0.487805,16.075001,-37.156250,2.912500,0.0,1.000000,0.000000,0.000000,0.000000
1782117325.170009,1824030,0.914551,-0.014160,-0.404297,0.000000,0.304878,-0.487805,16.025000,-37.218750,3.000000,0.0,1.000000,0.000000,0.000000,0.000000
1782117325.180009,1824040,0.914551,-0.016602,-0.404785,0.121951,0.182927,-0.365854,16.025000,-37.218750,3.000000,0.0,1.000000,0.000000,0.000000,0.000000
1782117325.189009,1824049,0.914062,-0.017578,-0.404297,0.121951,0.182927,-0.304878,16.006250,-37.181252,3.031250,0.0,1.000000,0.000000,0.000000,0.000000
1782117325.199009,1824059,0.914062,-0.016602,-0.406250,0.060976,0.121951,-0.304878,16.006250,-37.181252,3.031250,0.0,1.000000,0.000000,0.000000,0.000000
1782117325.209009,1824069,0.913086,-0.016113,-0.407715,0.000000,0.060976,-0.304878,16.037500,-37.200001,3.025000,0.0,1.000000,0.000000,0.000000,0.000000
1782117325.219009,1824079,0.911621,-0.017578,-0.407227,0.060976,0.060976,-0.365854,16.037500,-37.200001,3.025000,0.0,1.000000,0.000000,0.000000,0.000000
1782117325.229009,1824089,0.913086,-0.016602,-0.405762,0.182927,0.000000,-0.365854,16.043751,-37.168751,3.000000,0.0,1.000000,0.000000,0.000000,0.000000
1782117325.239009,1824099,0.915039,-0.017090,-0.405273,0.182927,0.060976,-0.365854,16.043751,-37.168751,3.000000,0.0,1.000000,0.000000,0.000000,0.000000
1782117325.249009,1824109,0.912598,-0.018066,-0.405273,0.243902,0.121951,-0.426829,16.056250,-37.193752,3.018750,0.0,1.000000,0.000000,0.000000,0.000000
1782117325.259009,1824119,0.911621,-0.020020,-0.405273,0.426829,0.000000,-0.426829,16.056250,-37.193752,3.018750,0.0,1.000000,0.000000,0.000000,0.000000
1782117325.269009,1824129,0.913086,-0.018555,-0.405762,0.487805,-0.182927,-0.487805,16.043751,-37.187500,2.981250,0.0,1.000000,0.000000,0.000000,0.000000
1782117325.279009,1824139,0.914551,-0.019043,-0.404297,0.426829,-0.182927,-0.426829,16.043751,-37.187500,2.981250,0.0,1.000000,0.000000,0.000000,0.000000
1782117325.290009,1824150,0.916504,-0.016602,-0.403809,0.426829,-0.060976,-0.426829,16.000000,-37.218750,3.018750,0.0,1.000000,0.000000,0.000000,0.000000
1782117325.299009,1824159,0.916504,-0.014648,-0.401855,0.243902,-0.060976,-0.426829,16.000000,-37.218750,3.018750,0.0,1.000000,0.000000,0.000000,0.000000
1782117325.309009,1824169,0.914062,-0.012207,-0.402832,0.000000,-0.060976,-0.426829,16.056250,-37.131252,2.943750,0.0,1.000000,0.000000,0.000000,0.000000
1782117325.319009,1824179,0.915527,-0.011719,-0.402832,-0.121951,-0.060976,-0.365854,16.056250,-37.131252,2.943750,0.0,1.000000,0.000000,0.000000,0.000000
1782117325.331009,1824191,0.915039,-0.012695,-0.403809,-0.426829,-0.121951,-0.304878,16.018751,-37.250000,2.993750,0.0,1.000000,0.000000,0.000000,0.000000
1782117325.339009,1824199,0.915039,-0.014160,-0.402832,-0.609756,-0.121951,-0.121951,16.018751,-37.250000,2.993750,0.0,1.000000,0.000000,0.000000,0.000000
1782117325.349009,1824209,0.914551,-0.014648,-0.404297,-0.731707,-0.121951,-0.060976,16.112501,-37.100002,2.918750,0.0,1.000000,0.000000,0.000000,0.000000
1782117325.359009,1824219,0.914062,-0.015625,-0.404785,-0.792683,-0.121951,-0.060976,16.112501,-37.100002,2.918750,0.0,1.000000,0.000000,0.000000,0.000000
1782117325.369009,1824229,0.915039,-0.015625,-0.405762,-0.670732,-0.060976,-0.060976,15.993751,-37.250000,3.037500,0.0,1.000000,0.000000,0.000000,0.000000
1782117325.379009,1824239,0.914062,-0.016113,-0.405762,-0.731707,0.000000,0.000000,15.993751,-37.250000,3.037500,0.0,1.000000,0.000000,0.000000,0.000000
1782117325.389009,1824249,0.914062,-0.017090,-0.407715,-0.792683,0.000000,-0.060976,16.025000,-37.150002,3.025000,0.0,1.000000,0.000000,0.000000,0.000000
1782117325.399009,1824259,0.912109,-0.017578,-0.406738,-0.670732,-0.060976,-0.060976,16.025000,-37.150002,3.025000,0.0,1.000000,0.000000,0.000000,0.000000
1782117325.411009,1824271,0.912598,-0.017090,-0.406250,-0.365854,-0.182927,-0.121951,15.975000,-37.256252,3.062500,0.0,1.000000,0.000000,0.000000,0.000000
1782117325.420009,1824280,0.912598,-0.017090,-0.406250,-0.365854,-0.182927,-0.121951,15.975000,-37.256252,3.062500,0.0,1.000000,0.000000,0.000000,0.000000
1782117325.429009,1824289,0.912598,-0.015137,-0.406738,-0.304878,-0.304878,-0.121951,16.037500,-37.156250,3.018750,0.0,1.000000,0.000000,0.000000,0.000000
1782117325.439009,1824299,0.913086,-0.014648,-0.406738,-0.243902,-0.365854,-0.121951,16.037500,-37.156250,3.018750,0.0,1.000000,0.000000,0.000000,0.000000
1782117325.449009,1824309,0.913086,-0.014160,-0.404785,-0.182927,-0.304878,-0.182927,16.031250,-37.231251,2.987500,0.0,1.000000,0.000000,0.000000,0.000000
1782117325.459009,1824319,0.913574,-0.013184,-0.402832,-0.243902,-0.304878,-0.243902,16.031250,-37.231251,2.987500,0.0,1.000000,0.000000,0.000000,0.000000
1782117325.469009,1824329,0.913574,-0.013672,-0.402832,-0.365854,-0.243902,-0.304878,16.218750,-36.950001,2.906250,0.0,1.000000,0.000000,0.000000,0.000000
1782117325.479009,1824339,0.914062,-0.016602,-0.404785,-0.365854,-0.304878,-0.304878,16.218750,-36.950001,2.906250,0.0,1.000000,0.000000,0.000000,0.000000
1782117325.489009,1824349,0.914551,-0.018555,-0.404785,-0.365854,-0.426829,-0.304878,15.981250,-37.250000,3.100000,0.0,1.000000,0.000000,0.000000,0.000000
1782117325.499009,1824359,0.914551,-0.017578,-0.406738,-0.304878,-0.365854,-0.243902,15.981250,-37.250000,3.100000,0.0,1.000000,0.000000,0.000000,0.000000
1782117325.509009,1824369,0.915039,-0.017090,-0.405273,-0.182927,-0.365854,-0.243902,16.043751,-37.218750,3.031250,0.0,1.000000,0.000000,0.000000,0.000000
1782117325.519009,1824379,0.914551,-0.016602,-0.405273,-0.182927,-0.426829,-0.243902,16.043751,-37.218750,3.031250,0.0,1.000000,0.000000,0.000000,0.000000
1782117325.530009,1824390,0.915527,-0.016602,-0.402832,-0.304878,-0.426829,-0.182927,15.968750,-37.268749,3.075000,0.0,1.000000,0.000000,0.000000,0.000000
1782117325.539009,1824399,0.915527,-0.016602,-0.402832,-0.304878,-0.426829,-0.182927,15.968750,-37.268749,3.075000,0.0,1.000000,0.000000,0.000000,0.000000
1782117325.550009,1824410,0.914551,-0.017090,-0.403809,-0.243902,-0.426829,-0.304878,16.018751,-37.187500,3.012500,0.0,1.000000,0.000000,0.000000,0.000000
1782117325.559009,1824419,0.915527,-0.016602,-0.405273,-0.243902,-0.487805,-0.243902,16.018751,-37.187500,3.012500,0.0,1.000000,0.000000,0.000000,0.000000
1782117325.573009,1824433,0.915527,-0.017090,-0.404297,-0.182927,-0.426829,-0.243902,16.081251,-37.043751,2.987500,0.0,1.000000,0.000000,0.000000,0.000000
1782117325.580009,1824440,0.915039,-0.017090,-0.404785,-0.121951,-0.426829,-0.243902,16.081251,-37.043751,2.987500,0.0,1.000000,0.000000,0.000000,0.000000
1782117325.590009,1824450,0.915039,-0.017090,-0.403809,-0.182927,-0.487805,-0.243902,16.056250,-37.162502,2.993750,0.0,1.000000,0.000000,0.000000,0.000000
1782117325.600009,1824460,0.914551,-0.016113,-0.403809,-0.182927,-0.487805,-0.243902,16.056250,-37.162502,2.993750,0.0,1.000000,0.000000,0.000000,0.000000
1782117325.609009,1824469,0.914062,-0.016602,-0.403320,-0.182927,-0.487805,-0.182927,16.062500,-37.131252,3.000000,0.0,1.000000,0.000000,0.000000,0.000000
1782117325.619009,1824479,0.914551,-0.017090,-0.403320,-0.182927,-0.487805,-0.304878,16.062500,-37.131252,3.000000,0.0,1.000000,0.000000,0.000000,0.000000
1782117325.629009,1824489,0.915039,-0.016602,-0.402832,-0.182927,-0.426829,-0.304878,15.981250,-37.200001,3.025000,0.0,1.000000,0.000000,0.000000,0.000000
1782117325.639009,1824499,0.914551,-0.017090,-0.404785,-0.121951,-0.487805,-0.304878,15.981250,-37.200001,3.025000,0.0,1.000000,0.000000,0.000000,0.000000
1782117325.652009,1824512,0.914551,-0.017090,-0.404785,-0.060976,-0.548781,-0.304878,15.962501,-37.262501,3.037500,0.0,1.000000,0.000000,0.000000,0.000000
1782117325.659009,1824519,0.914551,-0.019043,-0.404785,0.000000,-0.548781,-0.365854,15.962501,-37.262501,3.037500,0.0,1.000000,0.000000,0.000000,0.000000
1782117325.669009,1824529,0.912598,-0.020020,-0.404297,0.182927,-0.548781,-0.304878,16.056250,-37.150002,2.993750,0.0,1.000000,0.000000,0.000000,0.000000
1782117325.679009,1824539,0.911133,-0.019531,-0.405273,0.426829,-0.609756,-0.365854,16.056250,-37.150002,2.993750,0.0,1.000000,0.000000,0.000000,0.000000
1782117325.691009,1824551,0.912109,-0.020020,-0.406738,0.609756,-0.609756,-0.426829,16.018751,-37.193752,3.031250,0.0,1.000000,0.000000,0.000000,0.000000
1782117325.699009,1824559,0.911621,-0.019043,-0.408203,0.914634,-0.670732,-0.548781,16.018751,-37.193752,3.031250,0.0,1.000000,0.000000,0.000000,0.000000
1782117325.709009,1824569,0.913086,-0.018555,-0.408691,1.097561,-0.731707,-0.670732,16.050001,-37.156250,2.987500,0.0,1.000000,0.000000,0.000000,0.000000
1782117325.719009,1824579,0.914062,-0.019043,-0.408691,1.280488,-0.731707,-0.792683,16.050001,-37.156250,2.987500,0.0,1.000000,0.000000,0.000000,0.000000
1782117325.731009,1824591,0.912598,-0.017090,-0.405762,1.219512,-0.670732,-0.792683,16.081251,-37.181252,2.987500,0.0,1.000000,0.000000,0.000000,0.000000
1782117325.739009,1824599,0.915039,-0.016602,-0.404297,1.097561,-0.670732,-0.670732,16.081251,-37.181252,2.987500,0.0,1.000000,0.000000,0.000000,0.000000
1782117325.749009,1824609,0.914062,-0.015625,-0.402832,0.792683,-0.670732,-0.487805,16.062500,-37.212502,3.025000,0.0,1.000000,0.000000,0.000000,0.000000
1782117325.759009,1824619,0.914062,-0.013672,-0.402832,0.548781,-0.670732,-0.426829,16.062500,-37.212502,3.025000,0.0,1.000000,0.000000,0.000000,0.000000
1782117325.772009,1824632,0.914551,-0.013672,-0.404785,0.304878,-0.670732,-0.365854,16.018751,-37.268749,3.000000,0.0,1.000000,0.000000,0.000000,0.000000
1782117325.779009,1824639,0.914062,-0.012695,-0.409668,0.304878,-0.609756,-0.487805,16.018751,-37.268749,3.000000,0.0,1.000000,0.000000,0.000000,0.000000
1782117325.789009,1824649,0.914062,-0.014648,-0.411133,0.365854,-0.548781,-0.548781,16.031250,-37.100002,2.887500,0.0,1.000000,0.000000,0.000000,0.000000
1782117325.799009,1824659,0.915039,-0.015625,-0.410645,0.548781,-0.548781,-0.609756,16.031250,-37.100002,2.887500,0.0,1.000000,0.000000,0.000000,0.000000
1782117325.812009,1824672,0.914062,-0.019043,-0.408203,0.731707,-0.426829,-0.609756,16.068750,-37.268749,2.987500,0.0,1.000000,0.000000,0.000000,0.000000
1782117325.820009,1824680,0.914062,-0.019531,-0.406250,0.792683,-0.304878,-0.548781,16.050001,-37.237499,2.887500,0.0,1.000000,0.000000,0.000000,0.000000
1782117325.829009,1824689,0.913086,-0.018066,-0.407227,0.670732,-0.304878,-0.548781,16.050001,-37.237499,2.887500,0.0,1.000000,0.000000,0.000000,0.000000
1782117325.839009,1824699,0.912598,-0.016602,-0.408203,0.487805,-0.304878,-0.487805,16.018751,-37.262501,2.931250,0.0,1.000000,0.000000,0.000000,0.000000
1782117325.851009,1824711,0.911133,-0.016113,-0.410645,0.304878,-0.365854,-0.548781,16.018751,-37.262501,2.931250,0.0,1.000000,0.000000,0.000000,0.000000
1782117325.860009,1824720,0.911133,-0.015137,-0.410645,0.365854,-0.426829,-0.487805,16.056250,-37.181252,2.837500,0.0,1.000000,0.000000,0.000000,0.000000
1782117325.869009,1824729,0.911621,-0.013184,-0.411133,0.365854,-0.487805,-0.487805,16.056250,-37.181252,2.837500,0.0,1.000000,0.000000,0.000000,0.000000
1782117325.879009,1824739,0.911621,-0.014648,-0.408691,0.304878,-0.487805,-0.487805,16.012501,-37.243752,2.893750,0.0,1.000000,0.000000,0.000000,0.000000
1782117325.892009,1824752,0.912109,-0.014160,-0.408203,0.243902,-0.426829,-0.487805,16.012501,-37.243752,2.893750,0.0,1.000000,0.000000,0.000000,0.000000
1782117325.899009,1824759,0.912598,-0.015625,-0.407227,0.121951,-0.426829,-0.426829,16.068750,-37.206249,2.868750,0.0,1.000000,0.000000,0.000000,0.000000
1782117325.909009,1824769,0.913086,-0.015625,-0.407227,-0.121951,-0.487805,-0.365854,16.068750,-37.206249,2.868750,0.0,1.000000,0.000000,0.000000,0.000000
1782117325.919009,1824779,0.913574,-0.016602,-0.406738,-0.182927,-0.487805,-0.365854,15.987500,-37.262501,2.887500,0.0,1.000000,0.000000,0.000000,0.000000
1782117325.933009,1824793,0.914062,-0.017090,-0.406738,-0.182927,-0.487805,-0.365854,15.987500,-37.262501,2.887500,0.0,1.000000,0.000000,0.000000,0.000000
1782117325.939009,1824799,0.914551,-0.019531,-0.407227,-0.121951,-0.426829,-0.365854,16.087500,-37.137501,2.768750,0.0,1.000000,0.000000,0.000000,0.000000
1782117325.949009,1824809,0.915039,-0.020020,-0.407227,0.000000,-0.426829,-0.365854,16.087500,-37.137501,2.768750,0.0,1.000000,0.000000,0.000000,0.000000
1782117325.960009,1824820,0.915527,-0.019531,-0.406250,0.060976,-0.304878,-0.365854,16.056250,-37.206249,2.912500,0.0,1.000000,0.000000,0.000000,0.000000
1782117325.970009,1824830,0.914551,-0.020020,-0.406250,0.060976,-0.243902,-0.365854,16.056250,-37.206249,2.912500,0.0,1.000000,0.000000,0.000000,0.000000
1782117325.980009,1824840,0.914062,-0.019043,-0.406250,0.060976,-0.182927,-0.304878,16.125000,-37.168751,2.837500,0.0,1.000000,0.000000,0.000000,0.000000
1782117325.990009,1824850,0.914551,-0.016113,-0.406250,0.121951,-0.121951,-0.365854,16.125000,-37.168751,2.837500,0.0,1.000000,0.000000,0.000000,0.000000
1782117326.000009,1824860,0.912598,-0.017578,-0.406738,0.243902,-0.182927,-0.426829,16.062500,-37.250000,2.875000,0.0,1.000000,0.000000,0.000000,0.000000
1782117326.010009,1824870,0.913086,-0.017578,-0.409180,0.243902,-0.182927,-0.426829,16.062500,-37.250000,2.875000,0.0,1.000000,0.000000,0.000000,0.000000
1782117326.020009,1824880,0.913574,-0.019531,-0.407715,0.243902,-0.182927,-0.426829,16.112501,-37.137501,2.800000,0.0,1.000000,0.000000,0.000000,0.000000
1782117326.029009,1824889,0.913574,-0.019043,-0.408691,0.182927,-0.121951,-0.426829,16.112501,-37.137501,2.800000,0.0,1.000000,0.000000,0.000000,0.000000
1782117326.039009,1824899,0.913574,-0.018555,-0.408691,0.182927,-0.121951,-0.365854,16.062500,-37.218750,2.868750,0.0,1.000000,0.000000,0.000000,0.000000
1782117326.049009,1824909,0.912598,-0.017578,-0.408203,0.182927,-0.060976,-0.426829,16.062500,-37.218750,2.868750,0.0,1.000000,0.000000,0.000000,0.000000
1782117326.059009,1824919,0.911621,-0.016113,-0.407715,0.243902,-0.060976,-0.426829,16.018751,-37.168751,2.818750,0.0,1.000000,0.000000,0.000000,0.000000
1782117326.069009,1824929,0.912109,-0.014648,-0.408203,0.243902,-0.121951,-0.426829,16.018751,-37.168751,2.818750,0.0,1.000000,0.000000,0.000000,0.000000
1782117326.079009,1824939,0.913086,-0.015137,-0.405762,0.121951,-0.182927,-0.487805,16.106251,-37.174999,2.843750,0.0,1.000000,0.000000,0.000000,0.000000
1782117326.089009,1824949,0.914062,-0.015137,-0.406738,0.000000,-0.121951,-0.487805,16.106251,-37.174999,2.843750,0.0,1.000000,0.000000,0.000000,0.000000
1782117326.099009,1824959,0.913574,-0.017090,-0.407227,-0.060976,-0.243902,-0.426829,16.256250,-36.956249,2.687500,0.0,1.000000,0.000000,0.000000,0.000000
1782117326.109009,1824969,0.912109,-0.018066,-0.409668,0.000000,-0.121951,-0.426829,16.256250,-36.956249,2.687500,0.0,1.000000,0.000000,0.000000,0.000000
1782117326.119009,1824979,0.913574,-0.019043,-0.410645,0.121951,-0.121951,-0.365854,16.075001,-37.193752,2.900000,0.0,1.000000,0.000000,0.000000,0.000000
1782117326.129009,1824989,0.914551,-0.017578,-0.409180,0.121951,-0.121951,-0.365854,16.075001,-37.193752,2.900000,0.0,1.000000,0.000000,0.000000,0.000000
1782117326.139009,1824999,0.913574,-0.019043,-0.408691,0.000000,0.000000,-0.304878,16.131250,-37.162502,2.862500,0.0,1.000000,0.000000,0.000000,0.000000
1782117326.149009,1825009,0.910645,-0.017578,-0.408203,-0.060976,0.060976,-0.304878,16.131250,-37.162502,2.862500,0.0,1.000000,0.000000,0.000000,0.000000
1782117326.159009,1825019,0.912598,-0.017090,-0.407715,-0.182927,0.060976,-0.304878,16.081251,-37.200001,2.875000,0.0,1.000000,0.000000,0.000000,0.000000
1782117326.169009,1825029,0.912598,-0.017578,-0.409180,-0.182927,0.060976,-0.365854,16.081251,-37.200001,2.875000,0.0,1.000000,0.000000,0.000000,0.000000
1782117326.181009,1825041,0.911621,-0.016602,-0.412598,-0.060976,0.000000,-0.304878,16.075001,-37.168751,2.837500,0.0,1.000000,0.000000,0.000000,0.000000
1782117326.189009,1825049,0.910645,-0.016113,-0.412109,-0.060976,0.000000,-0.304878,16.075001,-37.168751,2.837500,0.0,1.000000,0.000000,0.000000,0.000000
1782117326.199009,1825059,0.913574,-0.015625,-0.413574,0.000000,0.060976,-0.365854,16.106251,-37.125000,2.843750,0.0,1.000000,0.000000,0.000000,0.000000
1782117326.210009,1825070,0.911621,-0.015137,-0.412109,0.060976,0.121951,-0.365854,16.106251,-37.125000,2.843750,0.0,1.000000,0.000000,0.000000,0.000000
1782117326.220009,1825080,0.911621,-0.014648,-0.410156,-0.060976,0.182927,-0.304878,16.087500,-37.087502,2.787500,0.0,1.000000,0.000000,0.000000,0.000000
1782117326.229009,1825089,0.912109,-0.014648,-0.409668,-0.243902,0.243902,-0.243902,16.087500,-37.087502,2.787500,0.0,1.000000,0.000000,0.000000,0.000000
1782117326.239009,1825099,0.912109,-0.015137,-0.408691,-0.487805,0.182927,-0.243902,16.068750,-37.193752,2.900000,0.0,1.000000,0.000000,0.000000,0.000000
1782117326.249009,1825109,0.913086,-0.015625,-0.409668,-0.548781,0.182927,-0.182927,16.068750,-37.193752,2.900000,0.0,1.000000,0.000000,0.000000,0.000000
1782117326.259009,1825119,0.912109,-0.015625,-0.409180,-0.670732,0.182927,-0.182927,16.037500,-37.156250,2.850000,0.0,1.000000,0.000000,0.000000,0.000000
1782117326.270009,1825130,0.912598,-0.014648,-0.409180,-0.792683,0.060976,-0.121951,16.037500,-37.156250,2.850000,0.0,1.000000,0.000000,0.000000,0.000000
1782117326.279009,1825139,0.914062,-0.014648,-0.408691,-0.792683,0.121951,0.000000,16.100000,-37.181252,2.850000,0.0,1.000000,0.000000,0.000000,0.000000
1782117326.289009,1825149,0.914551,-0.015625,-0.406738,-0.914634,0.182927,0.060976,16.100000,-37.181252,2.850000,0.0,1.000000,0.000000,0.000000,0.000000
1782117326.299009,1825159,0.913574,-0.015625,-0.405762,-0.975610,0.304878,0.121951,16.075001,-37.174999,2.887500,0.0,1.000000,0.000000,0.000000,0.000000
1782117326.309009,1825169,0.913086,-0.015137,-0.406738,-1.158537,0.365854,0.060976,16.075001,-37.174999,2.887500,0.0,1.000000,0.000000,0.000000,0.000000
1782117326.319009,1825179,0.913086,-0.014160,-0.406250,-1.280488,0.426829,0.121951,16.050001,-37.118752,2.925000,0.0,1.000000,0.000000,0.000000,0.000000
1782117326.329009,1825189,0.913574,-0.015137,-0.405762,-1.402439,0.365854,0.000000,16.050001,-37.118752,2.925000,0.0,1.000000,0.000000,0.000000,0.000000
1782117326.339009,1825199,0.913086,-0.016113,-0.406250,-1.463415,0.304878,0.121951,16.075001,-37.168751,2.868750,0.0,1.000000,0.000000,0.000000,0.000000
1782117326.349009,1825209,0.913086,-0.017578,-0.407227,-1.524390,0.304878,0.121951,16.075001,-37.168751,2.868750,0.0,1.000000,0.000000,0.000000,0.000000
1782117326.359009,1825219,0.914062,-0.018066,-0.407227,-1.463415,0.304878,0.121951,16.081251,-37.200001,2.937500,0.0,1.000000,0.000000,0.000000,0.000000
1782117326.369009,1825229,0.913086,-0.019043,-0.407227,-1.402439,0.243902,0.121951,16.081251,-37.200001,2.937500,0.0,1.000000,0.000000,0.000000,0.000000
1782117326.380009,1825240,0.913574,-0.019043,-0.404297,-1.402439,0.243902,0.060976,16.068750,-37.125000,2.937500,0.0,1.000000,0.000000,0.000000,0.000000
1782117326.389009,1825249,0.913574,-0.019043,-0.404297,-1.402439,0.243902,0.060976,16.068750,-37.125000,2.937500,0.0,1.000000,0.000000,0.000000,0.000000
1782117326.399009,1825259,0.915039,-0.020020,-0.405273,-1.280488,0.182927,0.000000,16.056250,-37.137501,2.981250,0.0,1.000000,0.000000,0.000000,0.000000
1782117326.410009,1825270,0.916016,-0.019531,-0.403809,-1.097561,0.304878,0.000000,16.056250,-37.137501,2.981250,0.0,1.000000,0.000000,0.000000,0.000000
1782117326.420009,1825280,0.915527,-0.018066,-0.404297,-0.853659,0.304878,-0.060976,16.056250,-37.168751,3.000000,0.0,1.000000,0.000000,0.000000,0.000000
1782117326.430009,1825290,0.916504,-0.018555,-0.403809,-0.548781,0.365854,-0.121951,16.056250,-37.168751,3.000000,0.0,1.000000,0.000000,0.000000,0.000000
1782117326.440009,1825300,0.916504,-0.018555,-0.403809,-0.548781,0.365854,-0.121951,16.006250,-37.106251,3.000000,0.0,1.000000,0.000000,0.000000,0.000000
1782117326.450009,1825310,0.916504,-0.018066,-0.403320,-0.426829,0.426829,-0.182927,16.006250,-37.106251,3.000000,0.0,1.000000,0.000000,0.000000,0.000000
1782117326.460009,1825320,0.912598,-0.017090,-0.403809,-0.487805,0.487805,-0.121951,16.137501,-37.049999,2.950000,0.0,1.000000,0.000000,0.000000,0.000000
1782117326.469009,1825329,0.913574,-0.015137,-0.405273,-0.487805,0.365854,-0.243902,16.137501,-37.049999,2.950000,0.0,1.000000,0.000000,0.000000,0.000000
1782117326.479009,1825339,0.914551,-0.015625,-0.404297,-0.487805,0.426829,-0.304878,16.031250,-37.168751,3.050000,0.0,1.000000,0.000000,0.000000,0.000000
1782117326.489009,1825349,0.915039,-0.015625,-0.404297,-0.548781,0.426829,-0.304878,16.031250,-37.168751,3.050000,0.0,1.000000,0.000000,0.000000,0.000000
1782117326.499009,1825359,0.914062,-0.016113,-0.404297,-0.426829,0.426829,-0.243902,16.018751,-37.181252,3.018750,0.0,1.000000,0.000000,0.000000,0.000000
1782117326.509009,1825369,0.912598,-0.016602,-0.403809,-0.243902,0.365854,-0.304878,16.018751,-37.181252,3.018750,0.0,1.000000,0.000000,0.000000,0.000000
1782117326.519009,1825379,0.913086,-0.018066,-0.403809,-0.060976,0.243902,-0.426829,16.043751,-37.131252,3.075000,0.0,1.000000,0.000000,0.000000,0.000000
1782117326.529009,1825389,0.917480,-0.020508,-0.402344,0.182927,0.182927,-0.487805,16.043751,-37.131252,3.075000,0.0,1.000000,0.000000,0.000000,0.000000
1782117326.539009,1825399,0.918457,-0.020996,-0.401855,0.487805,0.365854,-0.487805,16.037500,-37.150002,3.025000,0.0,1.000000,0.000000,0.000000,0.000000
1782117326.549009,1825409,0.919922,-0.021484,-0.401855,0.853659,0.609756,-0.548781,16.037500,-37.150002,3.025000,0.0,1.000000,0.000000,0.000000,0.000000
1782117326.559009,1825419,0.919434,-0.019531,-0.399902,1.036585,0.731707,-0.487805,15.975000,-37.200001,3.087500,0.0,1.000000,0.000000,0.000000,0.000000
1782117326.569009,1825429,0.916504,-0.018066,-0.400391,0.975610,0.792683,-0.548781,15.975000,-37.200001,3.087500,0.0,1.000000,0.000000,0.000000,0.000000
1782117326.579009,1825439,0.916992,-0.016602,-0.401367,1.036585,0.792683,-0.609756,16.000000,-37.162502,3.087500,0.0,1.000000,0.000000,0.000000,0.000000
1782117326.589009,1825449,0.918457,-0.015625,-0.400391,0.853659,0.792683,-0.548781,16.000000,-37.162502,3.087500,0.0,1.000000,0.000000,0.000000,0.000000
1782117326.599009,1825459,0.917969,-0.017090,-0.401855,0.731707,0.853659,-0.426829,16.000000,-37.181252,3.062500,0.0,1.000000,0.000000,0.000000,0.000000
1782117326.609009,1825469,0.916504,-0.014160,-0.402832,0.365854,0.792683,-0.304878,16.000000,-37.181252,3.062500,0.0,1.000000,0.000000,0.000000,0.000000
1782117326.620009,1825480,0.912598,-0.011719,-0.402832,0.182927,0.670732,-0.243902,16.012501,-37.150002,3.100000,0.0,1.000000,0.000000,0.000000,0.000000
1782117326.629009,1825489,0.912109,-0.011719,-0.400879,0.000000,0.426829,-0.182927,16.012501,-37.150002,3.100000,0.0,1.000000,0.000000,0.000000,0.000000
1782117326.639009,1825499,0.910645,-0.013184,-0.403809,-0.243902,0.243902,-0.304878,16.025000,-37.018749,3.062500,0.0,1.000000,0.000000,0.000000,0.000000
1782117326.650009,1825510,0.912598,-0.014160,-0.406250,-0.548781,0.304878,-0.243902,16.025000,-37.018749,3.062500,0.0,1.000000,0.000000,0.000000,0.000000
1782117326.659009,1825519,0.910645,-0.013184,-0.405273,-0.792683,0.243902,-0.182927,15.975000,-37.181252,3.168750,0.0,1.000000,0.000000,0.000000,0.000000
1782117326.670009,1825530,0.911133,-0.014648,-0.403809,-0.914634,0.121951,-0.243902,15.975000,-37.181252,3.168750,0.0,1.000000,0.000000,0.000000,0.000000
1782117326.680009,1825540,0.916016,-0.018555,-0.403809,-0.731707,0.060976,-0.304878,16.056250,-37.043751,3.031250,0.0,1.000000,0.000000,0.000000,0.000000
1782117326.689009,1825549,0.917480,-0.020508,-0.400879,-0.426829,0.365854,-0.243902,16.056250,-37.043751,3.031250,0.0,1.000000,0.000000,0.000000,0.000000
1782117326.700009,1825560,0.917480,-0.023926,-0.400879,0.121951,0.548781,-0.426829,16.006250,-37.150002,3.143750,0.0,1.000000,0.000000,0.000000,0.000000
1782117326.709009,1825569,0.917480,-0.026367,-0.399414,0.792683,0.487805,-0.609756,16.006250,-37.150002,3.143750,0.0,1.000000,0.000000,0.000000,0.000000
1782117326.719009,1825579,0.915039,-0.025879,-0.400879,1.280488,0.304878,-0.670732,16.037500,-37.200001,3.162500,0.0,1.000000,0.000000,0.000000,0.000000
1782117326.729009,1825589,0.915039,-0.024902,-0.400879,1.646341,0.243902,-0.731707,16.037500,-37.200001,3.162500,0.0,1.000000,0.000000,0.000000,0.000000
1782117326.739009,1825599,0.913086,-0.025391,-0.401855,1.951220,0.182927,-0.792683,16.018751,-37.125000,3.162500,0.0,1.000000,0.000000,0.000000,0.000000
1782117326.749009,1825609,0.915527,-0.022461,-0.401855,2.012195,0.060976,-0.853659,16.018751,-37.125000,3.162500,0.0,1.000000,0.000000,0.000000,0.000000
1782117326.759009,1825619,0.917480,-0.020020,-0.399414,2.012195,0.060976,-0.914634,16.025000,-37.181252,3.106250,0.0,1.000000,0.000000,0.000000,0.000000
1782117326.769009,1825629,0.917480,-0.017578,-0.398438,1.890244,0.121951,-0.853659,16.025000,-37.181252,3.106250,0.0,1.000000,0.000000,0.000000,0.000000
1782117326.780009,1825640,0.919922,-0.016113,-0.396973,1.768293,0.243902,-0.853659,16.012501,-37.218750,3.150000,0.0,1.000000,0.000000,0.000000,0.000000
1782117326.789009,1825649,0.918457,-0.011719,-0.397949,1.524390,0.243902,-0.792683,16.012501,-37.218750,3.150000,0.0,1.000000,0.000000,0.000000,0.000000
1782117326.799009,1825659,0.917480,-0.010254,-0.395996,1.219512,0.243902,-0.731707,16.031250,-37.156250,3.106250,0.0,1.000000,0.000000,0.000000,0.000000
1782117326.809009,1825669,0.914551,-0.010742,-0.396484,0.670732,0.060976,-0.609756,16.031250,-37.156250,3.106250,0.0,1.000000,0.000000,0.000000,0.000000
1782117326.819009,1825679,0.913574,-0.011230,-0.400391,0.060976,-0.365854,-0.487805,15.987500,-37.181252,3.075000,0.0,1.000000,0.000000,0.000000,0.000000
1782117326.829009,1825689,0.913574,-0.009277,-0.401367,-0.548781,-0.609756,-0.548781,15.987500,-37.181252,3.075000,0.0,1.000000,0.000000,0.000000,0.000000
1782117326.839009,1825699,0.916992,-0.009766,-0.401367,-0.670732,-0.548781,-0.609756,15.987500,-37.125000,3.112500,0.0,1.000000,0.000000,0.000000,0.000000
1782117326.850009,1825710,0.920898,-0.016602,-0.396973,-0.304878,-0.304878,-0.670732,15.987500,-37.125000,3.112500,0.0,1.000000,0.000000,0.000000,0.000000
1782117326.860009,1825720,0.918457,-0.022461,-0.397461,-0.182927,-0.060976,-0.487805,16.068750,-37.106251,3.093750,0.0,1.000000,0.000000,0.000000,0.000000
1782117326.869009,1825729,0.915039,-0.021484,-0.397949,-0.121951,-0.182927,-0.426829,16.068750,-37.106251,3.093750,0.0,1.000000,0.000000,0.000000,0.000000
1782117326.879009,1825739,0.915527,-0.020508,-0.403320,0.000000,-0.426829,-0.548781,16.012501,-37.100002,3.087500,0.0,1.000000,0.000000,0.000000,0.000000
1782117326.889009,1825749,0.913574,-0.020020,-0.402344,0.121951,-0.426829,-0.548781,16.012501,-37.100002,3.087500,0.0,1.000000,0.000000,0.000000,0.000000
1782117326.901009,1825761,0.912109,-0.019531,-0.402344,0.060976,-0.609756,-0.548781,16.012501,-37.200001,3.143750,0.0,1.000000,0.000000,0.000000,0.000000
1782117326.909009,1825769,0.915039,-0.018066,-0.399414,0.000000,-0.670732,-0.365854,16.012501,-37.200001,3.143750,0.0,1.000000,0.000000,0.000000,0.000000
1782117326.919009,1825779,0.916992,-0.016113,-0.397949,-0.121951,-0.548781,-0.243902,16.037500,-37.112499,3.087500,0.0,1.000000,0.000000,0.000000,0.000000
1782117326.929009,1825789,0.916016,-0.015625,-0.400391,-0.182927,-0.548781,-0.304878,16.037500,-37.112499,3.087500,0.0,1.000000,0.000000,0.000000,0.000000
1782117326.940009,1825800,0.914062,-0.013672,-0.402344,-0.182927,-0.609756,-0.243902,16.000000,-37.218750,3.168750,0.0,1.000000,0.000000,0.000000,0.000000
1782117326.950009,1825810,0.915527,-0.013184,-0.400879,-0.426829,-0.792683,-0.304878,16.000000,-37.218750,3.168750,0.0,1.000000,0.000000,0.000000,0.000000
1782117326.959009,1825819,0.916992,-0.013184,-0.398926,-0.670732,-0.792683,-0.243902,16.018751,-37.162502,3.162500,0.0,1.000000,0.000000,0.000000,0.000000
1782117326.969009,1825829,0.916992,-0.015137,-0.399414,-0.914634,-0.670732,-0.304878,16.018751,-37.162502,3.162500,0.0,1.000000,0.000000,0.000000,0.000000
1782117326.980009,1825840,0.914062,-0.018066,-0.399902,-0.975610,-0.731707,-0.304878,15.993751,-37.168751,3.200000,0.0,1.000000,0.000000,0.000000,0.000000
1782117326.989009,1825849,0.915039,-0.020020,-0.402344,-0.914634,-0.670732,-0.304878,15.993751,-37.168751,3.200000,0.0,1.000000,0.000000,0.000000,0.000000
1782117326.999009,1825859,0.913086,-0.020996,-0.406738,-0.731707,-0.853659,-0.365854,15.993751,-37.118752,3.168750,0.0,1.000000,0.000000,0.000000,0.000000
1782117327.009009,1825869,0.911621,-0.021484,-0.408203,-0.609756,-1.097561,-0.304878,15.993751,-37.118752,3.168750,0.0,1.000000,0.000000,0.000000,0.000000
1782117327.019009,1825879,0.919434,-0.019531,-0.412109,-0.487805,-1.463415,-0.365854,16.000000,-37.187500,3.187500,0.0,1.000000,0.000000,0.000000,0.000000
1782117327.029009,1825889,0.923340,-0.017578,-0.411133,-0.426829,-0.975610,-0.365854,16.000000,-37.187500,3.187500,0.0,1.000000,0.000000,0.000000,0.000000
1782117327.039009,1825899,0.918945,-0.018555,-0.411621,-0.243902,-0.609756,-0.182927,16.018751,-37.156250,3.125000,0.0,1.000000,0.000000,0.000000,0.000000
1782117327.049009,1825909,0.914062,-0.017090,-0.418457,-0.060976,-0.365854,-0.182927,16.018751,-37.156250,3.125000,0.0,1.000000,0.000000,0.000000,0.000000
1782117327.060009,1825920,0.914062,-0.011719,-0.423340,0.304878,-0.121951,-0.426829,15.956250,-37.156250,3.137500,0.0,1.000000,0.000000,0.000000,0.000000
1782117327.069009,1825929,0.909180,-0.011230,-0.423828,0.792683,0.060976,-0.426829,15.956250,-37.156250,3.137500,0.0,1.000000,0.000000,0.000000,0.000000
1782117327.079009,1825939,0.907227,-0.017578,-0.421875,1.280488,-0.121951,-0.121951,16.043751,-37.025002,3.068750,0.0,1.000000,0.000000,0.000000,0.000000
1782117327.090009,1825950,0.904297,-0.016113,-0.429199,1.280488,-0.426829,0.487805,16.043751,-37.025002,3.068750,0.0,1.000000,0.000000,0.000000,0.000000
1782117327.099009,1825959,0.904785,-0.003906,-0.437500,1.158537,-0.792683,0.548781,16.000000,-37.174999,3.131250,0.0,1.000000,0.000000,0.000000,0.000000
1782117327.109009,1825969,0.905762,0.007324,-0.436035,0.975610,-0.121951,0.243902,16.000000,-37.174999,3.131250,0.0,1.000000,0.000000,0.000000,0.000000
1782117327.119009,1825979,0.893555,0.008301,-0.435547,0.609756,0.792683,0.121951,16.037500,-37.112499,3.056250,0.0,1.000000,0.000000,0.000000,0.000000
1782117327.129009,1825989,0.884277,0.006348,-0.435059,0.121951,0.548781,0.121951,16.037500,-37.112499,3.056250,0.0,1.000000,0.000000,0.000000,0.000000
1782117327.139009,1825999,0.882812,0.001953,-0.440918,-0.304878,-0.121951,-0.243902,15.956250,-37.181252,3.093750,0.0,1.000000,0.000000,0.000000,0.000000
1782117327.149009,1826009,0.890625,-0.005859,-0.445801,-0.365854,-0.548781,-0.853659,15.956250,-37.181252,3.093750,0.0,1.000000,0.000000,0.000000,0.000000
1782117327.159009,1826019,0.892090,-0.017090,-0.446289,0.000000,-0.182927,-1.219512,15.993751,-37.106251,3.093750,0.0,1.000000,0.000000,0.000000,0.000000
1782117327.169009,1826029,0.882812,-0.024414,-0.447266,0.304878,0.060976,-1.097561,15.993751,-37.106251,3.093750,0.0,1.000000,0.000000,0.000000,0.000000
1782117327.181009,1826041,0.883301,-0.024902,-0.446777,1.036585,-0.426829,-1.341463,15.975000,-37.193752,3.062500,0.0,1.000000,0.000000,0.000000,0.000000
1782117327.190009,1826050,0.882324,-0.026367,-0.443848,2.012195,-0.731707,-1.768293,15.975000,-37.193752,3.062500,0.0,1.000000,0.000000,0.000000,0.000000
1782117327.199009,1826059,0.890137,-0.028320,-0.444336,3.048780,-1.158537,-2.012195,16.175001,-36.799999,2.918750,0.0,1.000000,0.000000,0.000000,0.000000
1782117327.209009,1826069,0.900391,-0.025879,-0.447754,4.268293,-1.524390,-1.951220,16.175001,-36.799999,2.918750,0.0,1.000000,0.000000,0.000000,0.000000
1782117327.221009,1826081,0.918945,-0.012695,-0.455566,4.878049,-1.768293,-1.890244,15.931251,-37.168751,3.062500,0.0,1.000000,0.000000,0.000000,0.000000
1782117327.230009,1826090,0.920898,-0.002441,-0.456055,4.634146,-0.609756,-1.463415,15.931251,-37.168751,3.062500,0.0,1.000000,0.000000,0.000000,0.000000
1782117327.239009,1826099,0.910156,0.000488,-0.450195,4.207317,0.914634,-0.914634,16.000000,-36.987499,2.981250,0.0,1.000000,0.000000,0.000000,0.000000
1782117327.250009,1826110,0.906250,-0.002441,-0.441895,4.268293,1.707317,-0.731707,16.000000,-36.987499,2.981250,0.0,1.000000,0.000000,0.000000,0.000000
1782117327.259009,1826119,0.904297,-0.011719,-0.436523,4.024390,2.682927,-0.487805,15.918750,-37.093750,3.043750,0.0,1.000000,0.000000,0.000000,0.000000
1782117327.269009,1826129,0.904785,-0.018066,-0.439453,3.841464,3.475610,-0.365854,15.918750,-37.093750,3.043750,0.0,1.000000,0.000000,0.000000,0.000000
1782117327.279009,1826139,0.907227,-0.020996,-0.438965,4.268293,4.634146,-0.487805,16.037500,-36.718750,2.850000,0.0,1.000000,0.000000,0.000000,0.000000
1782117327.289009,1826149,0.891602,-0.024902,-0.447266,4.268293,6.219512,-0.243902,16.037500,-36.718750,2.850000,0.0,1.000000,0.000000,0.000000,0.000000
1782117327.299009,1826159,0.881348,-0.026367,-0.460938,4.390244,5.914634,-0.060976,15.825000,-37.068752,3.150000,0.0,1.000000,0.000000,0.000000,0.000000
1782117327.309009,1826169,0.891602,-0.021973,-0.468750,5.182927,4.634146,0.182927,15.825000,-37.068752,3.150000,0.0,1.000000,0.000000,0.000000,0.000000
1782117327.319009,1826179,0.919922,-0.018066,-0.469238,6.097561,3.475610,0.000000,15.931251,-36.743752,3.018750,0.0,1.000000,0.000000,0.000000,0.000000
1782117327.329009,1826189,0.942871,-0.017578,-0.460449,6.829268,4.878049,-0.182927,15.931251,-36.743752,3.018750,0.0,1.000000,0.000000,0.000000,0.000000
1782117327.341009,1826201,0.921387,-0.028809,-0.443848,8.292683,12.317074,0.609756,15.775001,-37.025002,3.187500,0.0,1.000000,0.000000,0.000000,0.000000
1782117327.349009,1826209,0.921387,-0.028809,-0.443848,8.292683,12.317074,0.609756,15.775001,-37.025002,3.187500,0.0,1.000000,0.000000,0.000000,0.000000
1782117327.359009,1826219,0.901367,-0.032715,-0.447754,9.085366,12.500000,1.097561,15.793750,-36.737499,3.175000,0.0,1.000000,0.000000,0.000000,0.000000
1782117327.369009,1826229,0.888672,-0.034180,-0.443359,10.670732,12.317074,1.463415,15.793750,-36.737499,3.175000,0.0,1.000000,0.000000,0.000000,0.000000
1782117327.383009,1826243,0.876953,-0.036621,-0.446777,14.573171,13.231708,1.341463,15.618751,-36.968750,3.375000,0.0,1.000000,0.000000,0.000000,0.000000
1782117327.389009,1826249,0.900391,-0.037109,-0.473145,16.524391,11.585366,-0.182927,15.618751,-36.968750,3.375000,0.0,1.000000,0.000000,0.000000,0.000000
1782117327.399009,1826259,0.922363,-0.022461,-0.488281,18.048780,14.329268,-0.975610,15.531250,-36.868752,3.418750,0.0,1.000000,0.000000,0.000000,0.000000
1782117327.409009,1826269,0.898926,0.009766,-0.480469,18.414635,21.036587,0.000000,15.531250,-36.868752,3.418750,0.0,1.000000,0.000000,0.000000,0.000000
1782117327.421009,1826281,0.835449,0.033691,-0.472656,17.621952,23.841463,1.463415,15.518750,-36.756252,3.450000,0.0,1.000000,0.000000,0.000000,0.000000
1782117327.429009,1826289,0.805664,0.047852,-0.463379,15.121951,19.512196,2.134146,15.675000,-36.356251,3.331250,0.0,1.000000,0.000000,0.000000,0.000000
1782117327.440009,1826300,0.821777,0.043945,-0.458984,9.756098,13.048780,2.865854,15.675000,-36.356251,3.331250,0.0,1.000000,0.000000,0.000000,0.000000
1782117327.449009,1826309,0.869141,0.015137,-0.456543,5.000000,6.707317,3.841464,15.343750,-36.825001,3.756250,0.0,1.000000,0.000000,0.000000,0.000000
1782117327.460009,1826320,0.913574,-0.031738,-0.435059,2.317073,4.329268,5.000000,15.343750,-36.825001,3.756250,0.0,1.000000,0.000000,0.000000,0.000000
1782117327.469009,1826329,0.943359,-0.084473,-0.417480,2.134146,5.548780,7.012195,15.225000,-36.725002,3.843750,0.0,1.000000,0.000000,0.000000,0.000000
1782117327.480009,1826340,0.963867,-0.111816,-0.406250,4.634146,7.195122,6.951220,15.225000,-36.725002,3.843750,0.0,1.000000,0.000000,0.000000,0.000000
1782117327.489009,1826349,0.979492,-0.112305,-0.402832,6.158537,8.597561,6.036585,15.175000,-36.787502,3.875000,0.0,1.000000,0.000000,0.000000,0.000000
1782117327.499009,1826359,0.986328,-0.097168,-0.386719,8.414635,11.219512,4.573171,15.175000,-36.787502,3.875000,0.0,1.000000,0.000000,0.000000,0.000000
1782117327.510009,1826370,0.960449,-0.083984,-0.366211,11.219512,15.914635,4.146341,15.225000,-36.443752,3.793750,0.0,1.000000,0.000000,0.000000,0.000000
1782117327.519009,1826379,0.914551,-0.071777,-0.334473,12.865854,16.219513,3.536585,15.225000,-36.443752,3.793750,0.0,1.000000,0.000000,0.000000,0.000000
1782117327.529009,1826389,0.899902,-0.069824,-0.305664,14.451220,11.890244,2.073171,14.943750,-36.706249,4.062500,0.0,1.000000,0.000000,0.000000,0.000000
1782117327.542009,1826402,0.909180,-0.071289,-0.278809,16.524391,8.597561,1.219512,14.943750,-36.706249,4.062500,0.0,1.000000,0.000000,0.000000,0.000000
1782117327.550009,1826410,0.917480,-0.086426,-0.261719,18.597561,6.646342,0.121951,14.825000,-36.700001,3.962500,0.0,1.000000,0.000000,0.000000,0.000000
1782117327.559009,1826419,0.924805,-0.102051,-0.245605,20.304878,5.060976,-0.609756,14.825000,-36.700001,3.962500,0.0,1.000000,0.000000,0.000000,0.000000
1782117327.569009,1826429,0.943848,-0.100098,-0.229980,21.463415,3.292683,-0.975610,14.675000,-36.931252,3.881250,0.0,1.000000,0.000000,0.000000,0.000000
1782117327.580009,1826440,0.978516,-0.090332,-0.221191,22.682928,3.109756,-0.975610,14.675000,-36.931252,3.881250,0.0,1.000000,0.000000,0.000000,0.000000
1782117327.589009,1826449,0.993652,-0.072754,-0.212891,23.536587,4.390244,-0.731707,14.643750,-36.850002,3.687500,0.0,1.000000,0.000000,0.000000,0.000000
1782117327.599009,1826459,1.003906,-0.052246,-0.196289,24.634148,4.878049,-1.524390,14.643750,-36.850002,3.687500,0.0,1.000000,0.000000,0.000000,0.000000
1782117327.609009,1826469,1.000977,-0.043457,-0.183105,24.024391,4.817073,-2.317073,14.406250,-37.081249,3.681250,0.0,1.000000,0.000000,0.000000,0.000000
1782117327.619009,1826479,0.990234,-0.034668,-0.162598,22.865854,4.512195,-2.987805,14.406250,-37.081249,3.681250,0.0,1.000000,0.000000,0.000000,0.000000
1782117327.630009,1826490,0.979492,-0.024414,-0.156250,19.024391,3.780488,-2.804878,14.493751,-36.875000,3.462500,0.0,1.000000,0.000000,0.000000,0.000000
1782117327.639009,1826499,0.971680,-0.025391,-0.161621,14.329268,1.158537,-2.621951,14.493751,-36.875000,3.462500,0.0,1.000000,0.000000,0.000000,0.000000
1782117327.650009,1826510,0.979492,-0.024414,-0.157715,9.573171,-0.304878,-0.426829,14.625000,-36.637501,3.300000,0.0,1.000000,0.000000,0.000000,0.000000
1782117327.659009,1826519,0.986328,-0.041504,-0.172852,5.365854,-1.524390,0.365854,14.625000,-36.637501,3.300000,0.0,1.000000,0.000000,0.000000,0.000000
1782117327.669009,1826529,0.987305,-0.052246,-0.176758,2.804878,-3.231707,1.158537,14.643750,-36.712502,3.287500,0.0,1.000000,0.000000,0.000000,0.000000
1782117327.679009,1826539,0.988770,-0.056641,-0.178223,1.341463,-3.353659,0.975610,14.643750,-36.712502,3.287500,0.0,1.000000,0.000000,0.000000,0.000000
1782117327.689009,1826549,0.987793,-0.051758,-0.158691,1.341463,-3.170732,-0.792683,14.637500,-36.743752,3.250000,0.0,1.000000,0.000000,0.000000,0.000000
1782117327.699009,1826559,1.003906,-0.056152,-0.149902,2.073171,-4.451220,-2.987805,14.637500,-36.743752,3.250000,0.0,1.000000,0.000000,0.000000,0.000000
1782117327.709009,1826569,1.017090,-0.061523,-0.143555,3.048780,-3.658537,-3.841464,14.737500,-36.674999,3.118750,0.0,1.000000,0.000000,0.000000,0.000000
1782117327.719009,1826579,1.013672,-0.069824,-0.149414,3.353659,-3.780488,-3.658537,14.737500,-36.674999,3.118750,0.0,1.000000,0.000000,0.000000,0.000000
1782117327.729009,1826589,1.010742,-0.080078,-0.164062,2.743902,-5.060976,-3.841464,14.825000,-36.631252,2.975000,0.0,1.000000,0.000000,0.000000,0.000000
1782117327.739009,1826599,1.007812,-0.073242,-0.179199,1.707317,-5.853659,-4.390244,14.825000,-36.631252,2.975000,0.0,1.000000,0.000000,0.000000,0.000000
1782117327.749009,1826609,0.992676,-0.052246,-0.185547,0.426829,-5.609756,-4.939024,14.950000,-36.600002,2.850000,0.0,1.000000,0.000000,0.000000,0.000000
1782117327.759009,1826619,0.982422,-0.029785,-0.193359,-0.121951,-6.524390,-5.914634,14.950000,-36.600002,2.850000,0.0,1.000000,0.000000,0.000000,0.000000
1782117327.769009,1826629,0.991699,-0.031738,-0.202637,-0.182927,-8.048780,-6.402439,15.012500,-36.593750,2.812500,0.0,1.000000,0.000000,0.000000,0.000000
1782117327.779009,1826639,0.996582,-0.035156,-0.217773,-0.487805,-9.390244,-6.219512,15.012500,-36.593750,2.812500,0.0,1.000000,0.000000,0.000000,0.000000
1782117327.789009,1826649,0.991211,-0.043945,-0.217285,-0.304878,-9.146341,-6.158537,15.262500,-36.318752,2.562500,0.0,1.000000,0.000000,0.000000,0.000000
1782117327.799009,1826659,0.973145,-0.048828,-0.223145,-1.158537,-9.634147,-6.097561,15.262500,-36.318752,2.562500,0.0,1.000000,0.000000,0.000000,0.000000
1782117327.809009,1826669,0.967773,-0.053711,-0.220215,-2.560976,-10.731708,-5.792683,15.168750,-36.556252,2.650000,0.0,1.000000,0.000000,0.000000,0.000000
1782117327.819009,1826679,0.982422,-0.043945,-0.226562,-4.451220,-11.890244,-6.097561,15.168750,-36.556252,2.650000,0.0,1.000000,0.000000,0.000000,0.000000
1782117327.830009,1826690,1.000000,-0.036133,-0.230469,-6.280488,-11.280488,-6.707317,15.350000,-36.468750,2.487500,0.0,1.000000,0.000000,0.000000,0.000000
1782117327.839009,1826699,1.003418,-0.035156,-0.236816,-8.170732,-10.243902,-6.890244,15.350000,-36.468750,2.487500,0.0,1.000000,0.000000,0.000000,0.000000
1782117327.849009,1826709,0.999023,-0.042480,-0.249023,-9.573171,-8.963415,-6.280488,15.393750,-36.562500,2.568750,0.0,1.000000,0.000000,0.000000,0.000000
1782117327.859009,1826719,0.979492,-0.039062,-0.256836,-10.975610,-7.926829,-4.634146,15.393750,-36.562500,2.568750,0.0,1.000000,0.000000,0.000000,0.000000
1782117327.870009,1826730,0.967285,-0.040527,-0.266113,-12.804878,-9.207317,-2.987805,15.562500,-36.343750,2.518750,0.0,1.000000,0.000000,0.000000,0.000000
1782117327.879009,1826739,0.958984,-0.032227,-0.285156,-14.512196,-9.878049,-2.134146,15.562500,-36.343750,2.518750,0.0,1.000000,0.000000,0.000000,0.000000
1782117327.889009,1826749,0.951660,-0.029785,-0.291504,-16.280489,-10.060976,-1.585366,15.562500,-36.525002,2.568750,0.0,1.000000,0.000000,0.000000,0.000000
1782117327.900009,1826760,0.944336,-0.028320,-0.297363,-18.109756,-9.939025,-1.463415,15.562500,-36.525002,2.568750,0.0,1.000000,0.000000,0.000000,0.000000
1782117327.909009,1826769,0.949707,-0.031738,-0.305664,-19.268293,-9.939025,-2.378049,15.700000,-36.443752,2.581250,0.0,1.000000,0.000000,0.000000,0.000000
1782117327.919009,1826779,0.953125,-0.037598,-0.313477,-20.426830,-9.207317,-2.743902,15.700000,-36.443752,2.581250,0.0,1.000000,0.000000,0.000000,0.000000
1782117327.929009,1826789,0.979980,-0.041504,-0.309570,-21.768293,-7.987805,-1.524390,15.793750,-36.450001,2.662500,0.0,1.000000,0.000000,0.000000,0.000000
1782117327.939009,1826799,0.977539,-0.040039,-0.321777,-21.768293,-3.841464,-1.341463,15.793750,-36.450001,2.662500,0.0,1.000000,0.000000,0.000000,0.000000
1782117327.950009,1826810,0.964844,-0.036133,-0.329590,-20.975611,-1.219512,-1.402439,15.875000,-36.525002,2.781250,0.0,1.000000,0.000000,0.000000,0.000000
1782117327.959009,1826819,0.958984,-0.032715,-0.336426,-20.243902,0.304878,-0.365854,15.875000,-36.525002,2.781250,0.0,1.000000,0.000000,0.000000,0.000000
1782117327.969009,1826829,0.925293,-0.034180,-0.346191,-20.000000,2.073171,0.487805,16.037500,-36.506252,2.881250,0.0,1.000000,0.000000,0.000000,0.000000
1782117327.979009,1826839,0.915039,-0.017090,-0.362305,-20.975611,-0.487805,-1.280488,16.037500,-36.506252,2.881250,0.0,1.000000,0.000000,0.000000,0.000000
1782117327.989009,1826849,0.996582,0.004395,-0.378906,-22.926830,-5.182927,-0.548781,16.087500,-36.543751,3.000000,0.0,1.000000,0.000000,0.000000,0.000000
1782117327.999009,1826859,1.037109,0.019531,-0.376953,-25.000000,0.000000,1.707317,16.087500,-36.543751,3.000000,0.0,1.000000,0.000000,0.000000,0.000000
1782117328.009009,1826869,0.993164,0.010742,-0.353516,-25.182928,7.621952,4.573171,16.212500,-36.556252,3.275000,0.0,1.000000,0.000000,0.000000,0.000000
1782117328.019009,1826879,0.938965,-0.021484,-0.327148,-24.878050,7.439024,8.475610,16.212500,-36.556252,3.275000,0.0,1.000000,0.000000,0.000000,0.000000
1782117328.030009,1826890,0.906250,-0.050293,-0.322266,-24.573172,3.719512,9.085366,16.218750,-36.631252,3.587500,0.0,1.000000,0.000000,0.000000,0.000000
1782117328.039009,1826899,0.900391,-0.073242,-0.336914,-25.609756,0.548781,9.329268,16.218750,-36.631252,3.587500,0.0,1.000000,0.000000,0.000000,0.000000
1782117328.049009,1826909,0.922363,-0.084961,-0.361328,-26.463415,-1.280488,11.280488,16.300001,-36.606251,3.831250,0.0,1.000000,0.000000,0.000000,0.000000
1782117328.060009,1826920,0.907715,-0.088379,-0.394531,-28.109756,1.097561,14.451220,16.300001,-36.606251,3.831250,0.0,1.000000,0.000000,0.000000,0.000000
1782117328.070009,1826930,0.861816,-0.059570,-0.435547,-28.719513,1.890244,12.621951,16.256250,-36.700001,4.031250,0.0,1.000000,0.000000,0.000000,0.000000
1782117328.079009,1826939,0.840820,-0.019531,-0.459473,-28.597561,-1.036585,10.000000,16.256250,-36.700001,4.031250,0.0,1.000000,0.000000,0.000000,0.000000
1782117328.089009,1826949,0.849121,-0.003418,-0.459961,-26.341463,-3.597561,6.829268,16.212500,-36.750000,4.125000,0.0,1.000000,0.000000,0.000000,0.000000
1782117328.099009,1826959,0.870117,-0.019043,-0.457520,-21.768293,-6.097561,3.597561,16.212500,-36.750000,4.125000,0.0,1.000000,0.000000,0.000000,0.000000
1782117328.109009,1826969,0.946289,-0.056641,-0.478027,-14.817074,-9.817074,-1.036585,16.406250,-36.556252,4.025000,0.0,1.000000,0.000000,0.000000,0.000000
1782117328.119009,1826979,0.971680,-0.111816,-0.483398,-6.585366,-5.609756,-3.902439,16.406250,-36.556252,4.025000,0.0,1.000000,0.000000,0.000000,0.000000
1782117328.129009,1826989,0.902832,-0.183105,-0.438477,3.902439,2.012195,-1.890244,16.418751,-36.825001,4.125000,0.0,1.000000,0.000000,0.000000,0.000000
1782117328.139009,1826999,0.814453,-0.220703,-0.422852,13.597561,0.304878,0.548781,16.418751,-36.825001,4.125000,0.0,1.000000,0.000000,0.000000,0.000000
1782117328.150009,1827010,0.805176,-0.163574,-0.441406,18.719513,-6.524390,2.073171,16.500000,-36.743752,3.850000,0.0,1.000000,0.000000,0.000000,0.000000
1782117328.159009,1827019,0.840820,-0.049805,-0.466797,16.829269,-10.853659,3.658537,16.500000,-36.743752,3.850000,0.0,1.000000,0.000000,0.000000,0.000000
1782117328.169009,1827029,0.856445,0.051270,-0.495117,11.219512,-10.365854,3.597561,16.556250,-36.662502,3.418750,0.0,1.000000,0.000000,0.000000,0.000000
1782117328.179009,1827039,0.842773,0.119141,-0.505371,6.829268,-9.634147,0.609756,16.556250,-36.662502,3.418750,0.0,1.000000,0.000000,0.000000,0.000000
1782117328.189009,1827049,0.841797,0.123535,-0.478027,5.121951,-12.500000,-1.646341,16.487501,-36.837502,3.300000,0.0,1.000000,0.000000,0.000000,0.000000
1782117328.199009,1827059,0.885742,0.079590,-0.438965,4.939024,-15.121951,-1.463415,16.487501,-36.837502,3.300000,0.0,1.000000,0.000000,0.000000,0.000000
1782117328.209009,1827069,0.899414,0.033203,-0.410645,5.000000,-12.865854,-1.158537,16.500000,-36.837502,3.000000,0.0,1.000000,0.000000,0.000000,0.000000
1782117328.219009,1827079,0.896973,0.010254,-0.406250,3.719512,-12.256098,-0.304878,16.500000,-36.837502,3.000000,0.0,1.000000,0.000000,0.000000,0.000000
1782117328.229009,1827089,0.897461,0.021484,-0.412109,0.731707,-13.719513,0.243902,16.531250,-36.862499,2.787500,0.0,1.000000,0.000000,0.000000,0.000000
1782117328.239009,1827099,0.903809,0.042480,-0.421387,-3.414634,-14.451220,0.670732,16.531250,-36.862499,2.787500,0.0,1.000000,0.000000,0.000000,0.000000
1782117328.249009,1827109,0.903320,0.058105,-0.427246,-7.378049,-13.902439,0.609756,16.531250,-36.806252,2.568750,0.0,1.000000,0.000000,0.000000,0.000000
1782117328.260009,1827120,0.941406,0.057129,-0.430664,-10.670732,-13.963415,2.256098,16.531250,-36.806252,2.568750,0.0,1.000000,0.000000,0.000000,0.000000
1782117328.270009,1827130,0.868164,0.027832,-0.471191,-12.926829,-10.060976,-0.914634,16.575001,-36.887501,2.550000,0.0,1.000000,0.000000,0.000000,0.000000
1782117328.280009,1827140,0.911621,-0.009766,-0.483398,-11.463415,-14.451220,-0.426829,16.575001,-36.887501,2.550000,0.0,1.000000,0.000000,0.000000,0.000000
1782117328.289009,1827149,0.911621,-0.009766,-0.483398,-11.463415,-14.451220,-0.426829,16.606251,-36.875000,2.400000,0.0,1.000000,0.000000,0.000000,0.000000
1782117328.299009,1827159,0.944336,-0.036621,-0.488281,-9.512196,-12.560976,1.158537,16.606251,-36.875000,2.400000,0.0,1.000000,0.000000,0.000000,0.000000
1782117328.310009,1827170,0.920410,-0.049805,-0.460938,-6.585366,-8.597561,1.890244,16.662500,-36.868752,2.256250,0.0,1.000000,0.000000,0.000000,0.000000
1782117328.319009,1827179,0.926270,-0.064453,-0.463867,-7.500000,-5.365854,7.500000,16.662500,-36.868752,2.256250,0.0,1.000000,0.000000,0.000000,0.000000
1782117328.330009,1827190,0.852051,-0.035156,-0.482422,-5.548780,-2.378049,3.048780,16.556250,-36.956249,2.206250,0.0,1.000000,0.000000,0.000000,0.000000
1782117328.339009,1827199,0.864746,-0.037598,-0.485840,-3.963415,-7.134147,2.256098,16.556250,-36.956249,2.206250,0.0,1.000000,0.000000,0.000000,0.000000
1782117328.349009,1827209,0.909668,-0.032227,-0.486816,-2.560976,-6.402439,2.682927,16.562500,-37.018749,2.162500,0.0,1.000000,0.000000,0.000000,0.000000
1782117328.360009,1827220,0.898926,-0.025391,-0.477539,-1.097561,-2.621951,2.073171,16.562500,-37.018749,2.162500,0.0,1.000000,0.000000,0.000000,0.000000
1782117328.369009,1827229,0.891113,-0.018555,-0.466309,0.000000,-1.707317,1.158537,16.612501,-36.950001,1.993750,0.0,1.000000,0.000000,0.000000,0.000000
1782117328.379009,1827239,0.899902,-0.012207,-0.461914,-0.121951,-1.890244,1.402439,16.612501,-36.950001,1.993750,0.0,1.000000,0.000000,0.000000,0.000000
1782117328.390009,1827250,0.898438,0.002930,-0.469727,-0.975610,-0.975610,2.012195,16.525000,-37.018749,1.968750,0.0,1.000000,0.000000,0.000000,0.000000
1782117328.399009,1827259,0.887695,0.019531,-0.473145,-2.073171,-0.914634,2.073171,16.525000,-37.018749,1.968750,0.0,1.000000,0.000000,0.000000,0.000000
1782117328.410009,1827270,0.875000,0.017090,-0.474121,-2.865854,-1.890244,1.341463,16.518751,-36.993752,1.906250,0.0,1.000000,0.000000,0.000000,0.000000
1782117328.420009,1827280,0.868652,0.009766,-0.480957,-4.268293,-2.743902,1.036585,16.518751,-36.993752,1.906250,0.0,1.000000,0.000000,0.000000,0.000000
1782117328.429009,1827289,0.862793,-0.002441,-0.493164,-5.792683,-3.780488,1.097561,16.475000,-37.043751,1.893750,0.0,1.000000,0.000000,0.000000,0.000000
1782117328.439009,1827299,0.869629,-0.005859,-0.493164,-7.317073,-4.878049,1.585366,16.475000,-37.043751,1.893750,0.0,1.000000,0.000000,0.000000,0.000000
1782117328.449009,1827309,0.867188,-0.009277,-0.492188,-8.414635,-4.573171,1.341463,16.487501,-37.025002,1.900000,0.0,1.000000,0.000000,0.000000,0.000000
1782117328.459009,1827319,0.865723,-0.020508,-0.492676,-8.475610,-4.939024,1.158537,16.487501,-37.025002,1.900000,0.0,1.000000,0.000000,0.000000,0.000000
1782117328.469009,1827329,0.872070,-0.029297,-0.496582,-7.560976,-5.609756,0.609756,16.450001,-37.100002,1.812500,0.0,1.000000,0.000000,0.000000,0.000000
1782117328.479009,1827339,0.878906,-0.034668,-0.494629,-6.219512,-5.731708,-0.060976,16.450001,-37.100002,1.812500,0.0,1.000000,0.000000,0.000000,0.000000
1782117328.489009,1827349,0.882812,-0.039551,-0.491211,-4.817073,-5.670732,-0.975610,16.443750,-37.006252,1.850000,0.0,1.000000,0.000000,0.000000,0.000000
1782117328.499009,1827359,0.880371,-0.043945,-0.491211,-3.048780,-5.304878,-1.585366,16.443750,-37.006252,1.850000,0.0,1.000000,0.000000,0.000000,0.000000
1782117328.510009,1827370,0.874023,-0.051758,-0.487793,-1.158537,-5.365854,-2.256098,16.450001,-37.062500,1.737500,0.0,1.000000,0.000000,0.000000,0.000000
1782117328.519009,1827379,0.878906,-0.060059,-0.482422,1.036585,-6.341464,-2.926829,16.450001,-37.062500,1.737500,0.0,1.000000,0.000000,0.000000,0.000000
1782117328.529009,1827389,0.889160,-0.060547,-0.470215,2.987805,-6.097561,-3.597561,16.500000,-37.043751,1.700000,0.0,1.000000,0.000000,0.000000,0.000000
1782117328.539009,1827399,0.893555,-0.052734,-0.463867,4.207317,-5.182927,-4.024390,16.500000,-37.043751,1.700000,0.0,1.000000,0.000000,0.000000,0.000000
1782117328.550009,1827410,0.889648,-0.037109,-0.460938,4.268293,-4.756098,-3.841464,16.518751,-37.049999,1.568750,0.0,1.000000,0.000000,0.000000,0.000000
1782117328.560009,1827420,0.891602,-0.019531,-0.455078,3.170732,-4.878049,-3.597561,16.518751,-37.049999,1.568750,0.0,1.000000,0.000000,0.000000,0.000000
1782117328.569009,1827429,0.900879,-0.016113,-0.459473,1.219512,-4.573171,-3.170732,16.581251,-36.968750,1.443750,0.0,1.000000,0.000000,0.000000,0.000000
1782117328.579009,1827439,0.904785,-0.008789,-0.453125,0.060976,-4.024390,-2.987805,16.581251,-36.968750,1.443750,0.0,1.000000,0.000000,0.000000,0.000000
1782117328.589009,1827449,0.909180,-0.003906,-0.440430,-0.609756,-3.109756,-2.560976,16.525000,-37.056252,1.425000,0.0,1.000000,0.000000,0.000000,0.000000
1782117328.599009,1827459,0.897461,-0.003418,-0.436035,-0.975610,-2.378049,-2.500000,16.525000,-37.056252,1.425000,0.0,1.000000,0.000000,0.000000,0.000000
1782117328.609009,1827469,0.893066,-0.008301,-0.436523,-1.646341,-2.682927,-2.378049,16.581251,-36.950001,1.343750,0.0,1.000000,0.000000,0.000000,0.000000
1782117328.619009,1827479,0.895020,-0.011230,-0.439941,-2.317073,-2.865854,-2.317073,16.581251,-36.950001,1.343750,0.0,1.000000,0.000000,0.000000,0.000000
1782117328.631009,1827491,0.899902,-0.017578,-0.441895,-2.987805,-2.865854,-2.378049,16.681250,-36.837502,1.300000,0.0,1.000000,0.000000,0.000000,0.000000
1782117328.639009,1827499,0.909180,-0.030762,-0.440430,-2.987805,-2.439024,-2.195122,16.681250,-36.837502,1.300000,0.0,1.000000,0.000000,0.000000,0.000000
1782117328.649009,1827509,0.908691,-0.036133,-0.440918,-2.317073,-1.646341,-2.195122,16.750000,-36.668751,1.156250,0.0,1.000000,0.000000,0.000000,0.000000
1782117328.659009,1827519,0.906250,-0.039551,-0.440918,-1.036585,-1.158537,-2.317073,16.750000,-36.668751,1.156250,0.0,1.000000,0.000000,0.000000,0.000000
1782117328.670009,1827530,0.902344,-0.040039,-0.439941,0.487805,-0.731707,-2.560976,16.681250,-36.924999,1.387500,0.0,1.000000,0.000000,0.000000,0.000000
1782117328.679009,1827539,0.901855,-0.044922,-0.440430,2.439024,-0.609756,-2.682927,16.681250,-36.924999,1.387500,0.0,1.000000,0.000000,0.000000,0.000000
1782117328.690009,1827550,0.902344,-0.042480,-0.436523,4.939024,-0.853659,-3.109756,16.662500,-36.781250,1.337500,0.0,1.000000,0.000000,0.000000,0.000000
1782117328.700009,1827560,0.907227,-0.021973,-0.439453,6.280488,-0.853659,-3.109756,16.662500,-36.781250,1.337500,0.0,1.000000,0.000000,0.000000,0.000000
1782117328.710009,1827570,0.907227,-0.013672,-0.437988,6.951220,-0.243902,-3.414634,16.681250,-36.924999,1.300000,0.0,1.000000,0.000000,0.000000,0.000000
1782117328.719009,1827579,0.903320,-0.003906,-0.431152,7.195122,0.060976,-3.475610,16.681250,-36.924999,1.300000,0.0,1.000000,0.000000,0.000000,0.000000
1782117328.729009,1827589,0.903809,0.006836,-0.426758,6.829268,0.426829,-3.536585,16.737501,-36.781250,1.156250,0.0,1.000000,0.000000,0.000000,0.000000
1782117328.739009,1827599,0.905762,0.012695,-0.421875,5.731708,0.792683,-3.475610,16.737501,-36.781250,1.156250,0.0,1.000000,0.000000,0.000000,0.000000
1782117328.749009,1827609,0.906738,0.017578,-0.422363,4.573171,1.036585,-3.475610,16.681250,-36.856251,1.200000,0.0,1.000000,0.000000,0.000000,0.000000
1782117328.759009,1827619,0.906738,0.012207,-0.424805,3.414634,1.158537,-3.231707,16.681250,-36.856251,1.200000,0.0,1.000000,0.000000,0.000000,0.000000
1782117328.769009,1827629,0.907715,0.003418,-0.426758,2.439024,1.280488,-2.804878,16.775000,-36.731251,1.100000,0.0,1.000000,0.000000,0.000000,0.000000
1782117328.779009,1827639,0.905273,-0.000977,-0.427246,1.402439,1.280488,-2.378049,16.775000,-36.731251,1.100000,0.0,1.000000,0.000000,0.000000,0.000000
1782117328.789009,1827649,0.910645,-0.006348,-0.427246,0.182927,1.280488,-1.707317,16.718750,-36.799999,1.225000,0.0,1.000000,0.000000,0.000000,0.000000
1782117328.799009,1827659,0.908691,-0.008301,-0.428711,-0.975610,1.768293,-1.158537,16.718750,-36.799999,1.225000,0.0,1.000000,0.000000,0.000000,0.000000
1782117328.809009,1827669,0.908691,-0.011230,-0.429199,-2.073171,1.951220,-0.914634,16.806250,-36.712502,1.181250,0.0,1.000000,0.000000,0.000000,0.000000
1782117328.820009,1827680,0.910645,-0.014648,-0.429688,-2.804878,2.134146,-0.670732,16.806250,-36.712502,1.181250,0.0,1.000000,0.000000,0.000000,0.000000
1782117328.830009,1827690,0.907227,-0.017090,-0.430176,-3.109756,2.439024,-0.731707,16.718750,-36.793751,1.325000,0.0,1.000000,0.000000,0.000000,0.000000
1782117328.839009,1827699,0.909668,-0.019531,-0.429199,-2.743902,2.560976,-0.609756,16.718750,-36.793751,1.325000,0.0,1.000000,0.000000,0.000000,0.000000
1782117328.850009,1827710,0.910156,-0.024414,-0.425293,-2.073171,2.804878,-0.182927,16.800001,-36.731251,1.356250,0.0,1.000000,0.000000,0.000000,0.000000
1782117328.860009,1827720,0.917480,-0.022949,-0.423340,-1.829268,3.475610,0.000000,16.800001,-36.731251,1.356250,0.0,1.000000,0.000000,0.000000,0.000000
1782117328.869009,1827729,0.906738,-0.014648,-0.425293,-1.646341,4.390244,-0.060976,16.787500,-36.825001,1.450000,0.0,1.000000,0.000000,0.000000,0.000000
1782117328.879009,1827739,0.902344,-0.009766,-0.428223,-1.829268,4.573171,-0.121951,16.787500,-36.825001,1.450000,0.0,1.000000,0.000000,0.000000,0.000000
1782117328.889009,1827749,0.905273,-0.007324,-0.426270,-2.012195,4.512195,-0.182927,16.806250,-36.706249,1.443750,0.0,1.000000,0.000000,0.000000,0.000000
1782117328.899009,1827759,0.909180,-0.004883,-0.427734,-2.621951,4.695122,-0.182927,16.806250,-36.706249,1.443750,0.0,1.000000,0.000000,0.000000,0.000000
1782117328.911009,1827771,0.907715,-0.010254,-0.431152,-3.353659,4.878049,-0.060976,16.712500,-36.781250,1.656250,0.0,1.000000,0.000000,0.000000,0.000000
1782117328.919009,1827779,0.903320,-0.015625,-0.430664,-4.024390,4.817073,0.182927,16.712500,-36.781250,1.656250,0.0,1.000000,0.000000,0.000000,0.000000
1782117328.929009,1827789,0.905762,-0.019043,-0.432617,-4.695122,4.634146,0.365854,16.800001,-36.668751,1.637500,0.0,1.000000,0.000000,0.000000,0.000000
1782117328.939009,1827799,0.906738,-0.021484,-0.434082,-5.243903,4.634146,0.548781,16.800001,-36.668751,1.637500,0.0,1.000000,0.000000,0.000000,0.000000
1782117328.950009,1827810,0.904785,-0.019531,-0.433594,-5.792683,4.756098,0.731707,16.681250,-36.781250,1.831250,0.0,1.000000,0.000000,0.000000,0.000000
1782117328.959009,1827819,0.902832,-0.010742,-0.431641,-6.890244,4.695122,1.036585,16.681250,-36.781250,1.831250,0.0,1.000000,0.000000,0.000000,0.000000
1782117328.969009,1827829,0.902344,-0.000977,-0.430176,-7.987805,4.573171,1.158537,16.812500,-36.393749,1.743750,0.0,1.000000,0.000000,0.000000,0.000000
1782117328.980009,1827840,0.899902,0.004395,-0.427734,-9.390244,4.390244,1.219512,16.756250,-36.556252,1.956250,0.0,1.000000,0.000000,0.000000,0.000000
1782117328.991009,1827851,0.896973,0.004883,-0.426270,-10.853659,4.146341,1.341463,16.756250,-36.556252,1.956250,0.0,1.000000,0.000000,0.000000,0.000000
1782117328.999009,1827859,0.898438,0.002441,-0.424805,-12.195122,3.963415,1.280488,16.756250,-36.556252,1.956250,0.0,1.000000,0.000000,0.000000,0.000000
1782117329.009009,1827869,0.897949,-0.003418,-0.423340,-13.231708,3.963415,1.341463,16.618750,-36.731251,2.193750,0.0,1.000000,0.000000,0.000000,0.000000
1782117329.019009,1827879,0.899902,-0.009277,-0.419922,-13.841464,4.024390,1.402439,16.618750,-36.731251,2.193750,0.0,1.000000,0.000000,0.000000,0.000000
1782117329.031009,1827891,0.902832,-0.014160,-0.421387,-13.963415,3.902439,1.280488,16.556250,-36.818752,2.418750,0.0,1.000000,0.000000,0.000000,0.000000
1782117329.039009,1827899,0.905273,-0.017090,-0.424805,-13.963415,3.719512,1.280488,16.600000,-36.743752,2.525000,0.0,1.000000,0.000000,0.000000,0.000000
1782117329.049009,1827909,0.900879,-0.020996,-0.424805,-14.024390,3.780488,1.341463,16.600000,-36.743752,2.525000,0.0,1.000000,0.000000,0.000000,0.000000
1782117329.059009,1827919,0.897461,-0.021484,-0.425293,-14.085366,3.597561,1.585366,16.493750,-36.762501,2.756250,0.0,1.000000,0.000000,0.000000,0.000000
1782117329.070009,1827930,0.901855,-0.023926,-0.422852,-14.024390,3.231707,1.646341,16.493750,-36.762501,2.756250,0.0,1.000000,0.000000,0.000000,0.000000
1782117329.080009,1827940,0.909668,-0.021973,-0.419922,-14.085366,3.109756,1.768293,16.493750,-36.743752,2.887500,0.0,1.000000,0.000000,0.000000,0.000000
1782117329.089009,1827949,0.914062,-0.016113,-0.415527,-14.207317,3.292683,1.951220,16.493750,-36.743752,2.887500,0.0,1.000000,0.000000,0.000000,0.000000
1782117329.099009,1827959,0.916016,-0.009277,-0.416992,-14.329268,3.475610,2.073171,16.375000,-36.862499,3.100000,0.0,1.000000,0.000000,0.000000,0.000000
1782117329.109009,1827969,0.917480,-0.002930,-0.417480,-14.451220,3.719512,1.890244,16.375000,-36.862499,3.100000,0.0,1.000000,0.000000,0.000000,0.000000
1782117329.119009,1827979,0.912598,0.002441,-0.416504,-14.146341,3.902439,1.707317,16.368750,-36.775002,3.206250,0.0,1.000000,0.000000,0.000000,0.000000
1782117329.129009,1827989,0.911621,0.000488,-0.417480,-13.231708,3.536585,1.402439,16.368750,-36.775002,3.206250,0.0,1.000000,0.000000,0.000000,0.000000
1782117329.139009,1827999,0.911621,-0.000977,-0.415527,-12.560976,3.414634,1.402439,16.250000,-36.856251,3.393750,0.0,1.000000,0.000000,0.000000,0.000000
1782117329.152009,1828012,0.916504,0.000488,-0.410156,-11.280488,3.597561,1.402439,16.250000,-36.856251,3.393750,0.0,1.000000,0.000000,0.000000,0.000000
1782117329.159009,1828019,0.916504,0.000488,-0.410156,-11.280488,3.597561,1.402439,16.318750,-36.700001,3.462500,0.0,1.000000,0.000000,0.000000,0.000000
1782117329.169009,1828029,0.918457,0.006836,-0.409668,-11.219512,4.085366,1.402439,16.318750,-36.700001,3.462500,0.0,1.000000,0.000000,0.000000,0.000000
1782117329.179009,1828039,0.920410,0.011719,-0.410645,-11.585366,4.695122,1.402439,16.162500,-36.850002,3.687500,0.0,1.000000,0.000000,0.000000,0.000000
1782117329.190009,1828050,0.919922,0.019531,-0.407715,-13.475610,6.280488,1.768293,16.162500,-36.850002,3.687500,0.0,1.000000,0.000000,0.000000,0.000000
1782117329.199009,1828059,0.919922,0.019531,-0.407715,-13.475610,6.280488,1.768293,16.293751,-36.618752,3.650000,0.0,1.000000,0.000000,0.000000,0.000000
1782117329.210009,1828070,0.913086,0.029785,-0.404297,-15.121951,5.914634,2.073171,16.293751,-36.618752,3.650000,0.0,1.000000,0.000000,0.000000,0.000000
1782117329.219009,1828079,0.911133,0.037598,-0.410156,-16.219513,5.975610,2.073171,16.187500,-36.787502,3.956250,0.0,1.000000,0.000000,0.000000,0.000000
1782117329.232009,1828092,0.908203,0.045410,-0.415527,-17.743902,6.097561,2.195122,16.187500,-36.787502,3.956250,0.0,1.000000,0.000000,0.000000,0.000000
1782117329.240009,1828100,0.899902,0.052734,-0.419922,-20.000000,6.036585,2.560976,16.018751,-36.831249,4.293750,0.0,1.000000,0.000000,0.000000,0.000000
1782117329.249009,1828109,0.893555,0.043457,-0.417480,-22.500000,5.365854,2.804878,16.018751,-36.831249,4.293750,0.0,1.000000,0.000000,0.000000,0.000000
1782117329.259009,1828119,0.897461,0.023926,-0.417480,-24.512196,4.573171,3.170732,15.993751,-36.862499,4.512500,0.0,1.000000,0.000000,0.000000,0.000000
1782117329.272009,1828132,0.907715,-0.004395,-0.428711,-24.817074,3.902439,3.048780,15.993751,-36.862499,4.512500,0.0,1.000000,0.000000,0.000000,0.000000
1782117329.279009,1828139,0.920898,-0.028809,-0.430176,-23.109756,3.963415,3.292683,16.056250,-36.674999,4.631250,0.0,1.000000,0.000000,0.000000,0.000000
1782117329.289009,1828149,0.931641,-0.038574,-0.423340,-20.365854,5.000000,3.658537,16.056250,-36.674999,4.631250,0.0,1.000000,0.000000,0.000000,0.000000
1782117329.299009,1828159,0.935059,-0.031738,-0.411621,-17.804878,6.280488,3.963415,15.800000,-36.981251,5.031250,0.0,1.000000,0.000000,0.000000,0.000000
1782117329.310009,1828170,0.934082,-0.020508,-0.404297,-16.219513,7.500000,4.146341,15.800000,-36.981251,5.031250,0.0,1.000000,0.000000,0.000000,0.000000
1782117329.319009,1828179,0.931152,-0.000488,-0.395020,-15.609756,8.475610,4.390244,15.831250,-36.812500,5.081250,0.0,1.000000,0.000000,0.000000,0.000000
1782117329.329009,1828189,0.930664,0.019531,-0.389160,-16.097561,9.146341,4.573171,15.831250,-36.812500,5.081250,0.0,1.000000,0.000000,0.000000,0.000000
1782117329.339009,1828199,0.933105,0.034668,-0.383301,-17.560976,9.939025,4.817073,15.537500,-36.987499,5.550000,0.0,1.000000,0.000000,0.000000,0.000000
1782117329.352009,1828212,0.933594,0.044434,-0.374512,-19.573172,10.609756,5.426829,15.537500,-36.987499,5.550000,0.0,1.000000,0.000000,0.000000,0.000000
1782117329.359009,1828219,0.931641,0.057129,-0.368164,-22.134148,11.036586,6.341464,15.537500,-36.831249,5.737500,0.0,1.000000,0.000000,0.000000,0.000000
1782117329.369009,1828229,0.923828,0.057129,-0.369141,-25.121952,11.158537,7.256098,15.537500,-36.831249,5.737500,0.0,1.000000,0.000000,0.000000,0.000000
1782117329.379009,1828239,0.916992,0.052246,-0.371094,-26.951220,11.158537,7.865854,15.281250,-37.012501,6.175000,0.0,1.000000,0.000000,0.000000,0.000000
1782117329.391009,1828251,0.913086,0.044922,-0.371582,-27.560976,10.792684,8.292683,15.281250,-37.012501,6.175000,0.0,1.000000,0.000000,0.000000,0.000000
1782117329.399009,1828259,0.915039,0.036133,-0.370117,-28.109756,10.548780,8.536586,15.087501,-37.049999,6.506250,0.0,1.000000,0.000000,0.000000,0.000000
1782117329.409009,1828269,0.921875,0.021973,-0.366211,-28.780489,10.426829,8.841464,15.087501,-37.049999,6.506250,0.0,1.000000,0.000000,0.000000,0.000000
1782117329.419009,1828279,0.929688,0.010254,-0.363770,-29.573172,10.365854,9.329268,15.018750,-36.893749,6.737500,0.0,1.000000,0.000000,0.000000,0.000000
1782117329.429009,1828289,0.937988,-0.004883,-0.365234,-30.365854,10.731708,9.878049,15.018750,-36.893749,6.737500,0.0,1.000000,0.000000,0.000000,0.000000
1782117329.439009,1828299,0.939941,-0.012695,-0.364258,-30.609756,11.402439,10.182927,14.706250,-37.012501,7.237500,0.0,1.000000,0.000000,0.000000,0.000000
1782117329.451009,1828311,0.936035,-0.017090,-0.363281,-30.304878,12.134147,9.939025,14.706250,-37.012501,7.237500,0.0,1.000000,0.000000,0.000000,0.000000
1782117329.460009,1828320,0.941406,-0.024414,-0.362305,-29.451220,12.378049,9.939025,14.493751,-37.200001,7.706250,0.0,1.000000,0.000000,0.000000,0.000000
1782117329.472009,1828332,0.937988,-0.027344,-0.360840,-27.865854,13.109756,9.695122,14.493751,-37.200001,7.706250,0.0,1.000000,0.000000,0.000000,0.000000
1782117329.481009,1828341,0.936035,-0.027832,-0.357910,-26.097561,12.865854,9.268292,14.318750,-37.218750,8.043750,0.0,1.000000,0.000000,0.000000,0.000000
1782117329.490009,1828350,0.938965,-0.028320,-0.353027,-24.451220,12.621951,8.780488,14.318750,-37.218750,8.043750,0.0,1.000000,0.000000,0.000000,0.000000
1782117329.500009,1828360,0.940430,-0.028809,-0.348633,-22.195122,12.439025,8.109756,14.056251,-37.268749,8.325000,0.0,1.000000,0.000000,0.000000,0.000000
1782117329.513009,1828373,0.941406,-0.024414,-0.345703,-19.695122,12.195122,7.560976,14.056251,-37.268749,8.325000,0.0,1.000000,0.000000,0.000000,0.000000
1782117329.519009,1828379,0.933105,-0.021484,-0.344238,-17.195122,11.829268,6.768293,13.862500,-37.225002,8.662500,0.0,1.000000,0.000000,0.000000,0.000000
1782117329.529009,1828389,0.927246,-0.025391,-0.342773,-14.451220,10.853659,5.670732,13.862500,-37.225002,8.662500,0.0,1.000000,0.000000,0.000000,0.000000
1782117329.539009,1828399,0.926758,-0.031250,-0.341797,-10.975610,9.634147,4.512195,13.693750,-37.268749,8.987500,0.0,1.000000,0.000000,0.000000,0.000000
1782117329.551009,1828411,0.933594,-0.031738,-0.342773,-7.134147,8.536586,3.536585,13.693750,-37.268749,8.987500,0.0,1.000000,0.000000,0.000000,0.000000
1782117329.559009,1828419,0.937500,-0.026367,-0.345703,-4.085366,8.292683,2.621951,13.687500,-37.112499,9.025001,0.0,1.000000,0.000000,0.000000,0.000000
1782117329.569009,1828429,0.933105,-0.023926,-0.349609,-1.829268,8.231708,1.829268,13.687500,-37.112499,9.025001,0.0,1.000000,0.000000,0.000000,0.000000
1782117329.579009,1828439,0.931641,-0.020020,-0.346191,-0.365854,8.048780,1.219512,13.731250,-36.912502,9.037500,0.0,1.000000,0.000000,0.000000,0.000000
1782117329.591009,1828451,0.929688,-0.009277,-0.343262,0.670732,7.987805,0.304878,13.731250,-36.912502,9.037500,0.0,1.000000,0.000000,0.000000,0.000000
1782117329.599009,1828459,0.925781,-0.002930,-0.336914,0.792683,7.682927,-0.426829,13.575000,-37.093750,9.225000,0.0,1.000000,0.000000,0.000000,0.000000
1782117329.609009,1828469,0.922363,-0.001465,-0.332520,1.097561,7.073171,-1.402439,13.575000,-37.093750,9.225000,0.0,1.000000,0.000000,0.000000,0.000000
1782117329.619009,1828479,0.931152,0.002441,-0.329590,1.036585,6.036585,-2.378049,13.981250,-36.250000,8.906250,0.0,1.000000,0.000000,0.000000,0.000000
1782117329.632009,1828492,0.938477,-0.007812,-0.335449,1.280488,5.426829,-2.987805,13.981250,-36.250000,8.906250,0.0,1.000000,0.000000,0.000000,0.000000
1782117329.640009,1828500,0.939941,-0.003906,-0.336426,1.646341,5.182927,-3.353659,13.512500,-36.950001,9.350000,0.0,1.000000,0.000000,0.000000,0.000000
1782117329.649009,1828509,0.937988,0.007324,-0.334473,1.524390,4.817073,-3.414634,13.512500,-36.950001,9.350000,0.0,1.000000,0.000000,0.000000,0.000000
1782117329.659009,1828519,0.932617,0.024414,-0.326172,0.487805,4.512195,-3.414634,13.518750,-37.081249,9.493751,0.0,1.000000,0.000000,0.000000,0.000000
1782117329.672009,1828532,0.930176,0.030762,-0.316406,-1.036585,3.841464,-3.658537,13.518750,-37.081249,9.493751,0.0,1.000000,0.000000,0.000000,0.000000
1782117329.680009,1828540,0.929688,0.024414,-0.312988,-1.646341,2.865854,-3.780488,13.525001,-36.962502,9.500000,0.0,1.000000,0.000000,0.000000,0.000000
1782117329.689009,1828549,0.935547,0.015625,-0.309570,-1.036585,1.890244,-3.841464,13.525001,-36.962502,9.500000,0.0,1.000000,0.000000,0.000000,0.000000
1782117329.699009,1828559,0.941895,0.008789,-0.307617,0.243902,1.280488,-3.780488,13.568750,-36.950001,9.575000,0.0,1.000000,0.000000,0.000000,0.000000
1782117329.709009,1828569,0.947266,0.004395,-0.309570,2.012195,1.158537,-4.024390,13.568750,-36.950001,9.575000,0.0,1.000000,0.000000,0.000000,0.000000
1782117329.719009,1828579,0.952637,0.001953,-0.313477,4.268293,1.219512,-4.268293,13.637500,-36.956249,9.600000,0.0,1.000000,0.000000,0.000000,0.000000
1782117329.729009,1828589,0.958008,0.004395,-0.321289,6.585366,1.341463,-4.695122,13.637500,-36.956249,9.600000,0.0,1.000000,0.000000,0.000000,0.000000
1782117329.739009,1828599,0.957031,0.005859,-0.325195,8.597561,1.707317,-5.182927,13.687500,-36.831249,9.543750,0.0,1.000000,0.000000,0.000000,0.000000
1782117329.750009,1828610,0.952148,0.007324,-0.327148,9.939025,1.768293,-5.609756,13.687500,-36.831249,9.543750,0.0,1.000000,0.000000,0.000000,0.000000
1782117329.759009,1828619,0.945801,0.011230,-0.328613,10.792684,2.195122,-5.914634,13.775001,-36.850002,9.506250,0.0,1.000000,0.000000,0.000000,0.000000
1782117329.769009,1828629,0.935547,0.014160,-0.326172,11.158537,2.439024,-6.097561,13.775001,-36.850002,9.506250,0.0,1.000000,0.000000,0.000000,0.000000
1782117329.779009,1828639,0.931152,0.021484,-0.322266,10.975610,1.951220,-6.219512,13.825000,-36.831249,9.525001,0.0,1.000000,0.000000,0.000000,0.000000
1782117329.789009,1828649,0.931641,0.029297,-0.319824,10.365854,1.097561,-6.341464,13.825000,-36.831249,9.525001,0.0,1.000000,0.000000,0.000000,0.000000
1782117329.799009,1828659,0.935547,0.030762,-0.318359,9.512196,0.365854,-6.402439,13.868751,-36.768749,9.481250,0.0,1.000000,0.000000,0.000000,0.000000
1782117329.809009,1828669,0.939453,0.035156,-0.317871,8.475610,-0.304878,-6.036585,13.868751,-36.768749,9.481250,0.0,1.000000,0.000000,0.000000,0.000000
1782117329.819009,1828679,0.945801,0.040039,-0.323242,7.134147,-0.609756,-5.426829,13.981250,-36.768749,9.393750,0.0,1.000000,0.000000,0.000000,0.000000
1782117329.829009,1828689,0.947266,0.047363,-0.328613,5.853659,-0.609756,-4.756098,13.981250,-36.768749,9.393750,0.0,1.000000,0.000000,0.000000,0.000000
1782117329.839009,1828699,0.948730,0.056641,-0.332031,4.756098,-0.426829,-4.085366,14.037500,-36.693752,9.350000,0.0,1.000000,0.000000,0.000000,0.000000
1782117329.849009,1828709,0.950684,0.061523,-0.333008,3.780488,-0.182927,-3.597561,14.037500,-36.693752,9.350000,0.0,1.000000,0.000000,0.000000,0.000000
1782117329.859009,1828719,0.948242,0.064941,-0.330078,3.109756,0.243902,-3.231707,14.137500,-36.706249,9.287500,0.0,1.000000,0.000000,0.000000,0.000000
1782117329.870009,1828730,0.944824,0.061035,-0.324707,2.439024,0.731707,-2.926829,14.137500,-36.706249,9.287500,0.0,1.000000,0.000000,0.000000,0.000000
1782117329.880009,1828740,0.943848,0.057129,-0.319824,1.768293,1.036585,-2.682927,14.106250,-36.650002,9.293750,0.0,1.000000,0.000000,0.000000,0.000000
1782117329.889009,1828749,0.943848,0.045898,-0.316406,1.402439,1.036585,-2.439024,14.106250,-36.650002,9.293750,0.0,1.000000,0.000000,0.000000,0.000000
1782117329.899009,1828759,0.947266,0.036133,-0.315918,1.097561,0.914634,-2.195122,14.112500,-36.656250,9.350000,0.0,1.000000,0.000000,0.000000,0.000000
1782117329.909009,1828769,0.951172,0.025391,-0.318359,1.219512,0.853659,-2.012195,14.112500,-36.656250,9.350000,0.0,1.000000,0.000000,0.000000,0.000000
1782117329.919009,1828779,0.953125,0.018555,-0.321289,1.585366,0.975610,-1.829268,14.175000,-36.668751,9.331250,0.0,1.000000,0.000000,0.000000,0.000000
1782117329.929009,1828789,0.956055,0.016602,-0.326660,2.317073,1.341463,-1.646341,14.175000,-36.668751,9.331250,0.0,1.000000,0.000000,0.000000,0.000000
1782117329.939009,1828799,0.954590,0.017578,-0.326660,3.170732,1.707317,-1.463415,14.200000,-36.575001,9.356250,0.0,1.000000,0.000000,0.000000,0.000000
1782117329.949009,1828809,0.952148,0.017578,-0.321289,4.268293,2.073171,-1.341463,14.200000,-36.575001,9.356250,0.0,1.000000,0.000000,0.000000,0.000000
1782117329.959009,1828819,0.949219,0.022949,-0.319824,5.121951,2.256098,-1.280488,14.231250,-36.618752,9.318750,0.0,1.000000,0.000000,0.000000,0.000000
1782117329.969009,1828829,0.950195,0.023926,-0.315918,5.792683,2.621951,-1.341463,14.231250,-36.618752,9.318750,0.0,1.000000,0.000000,0.000000,0.000000
1782117329.979009,1828839,0.949219,0.027832,-0.312500,6.097561,2.743902,-1.280488,14.293750,-36.424999,9.250000,0.0,1.000000,0.000000,0.000000,0.000000
1782117329.989009,1828849,0.948730,0.032227,-0.310059,5.853659,2.865854,-1.097561,14.293750,-36.424999,9.250000,0.0,1.000000,0.000000,0.000000,0.000000
1782117329.999009,1828859,0.949219,0.035156,-0.309082,5.243903,2.987805,-0.914634,14.256250,-36.556252,9.306251,0.0,1.000000,0.000000,0.000000,0.000000
1782117330.009009,1828869,0.952148,0.037598,-0.308594,4.512195,2.987805,-0.731707,14.256250,-36.556252,9.306251,0.0,1.000000,0.000000,0.000000,0.000000
1782117330.019009,1828879,0.953613,0.048828,-0.309082,3.597561,3.048780,-0.304878,14.312500,-36.431252,9.243751,0.0,1.000000,0.000000,0.000000,0.000000
1782117330.029009,1828889,0.952637,0.050293,-0.313965,2.560976,3.170732,-0.121951,14.312500,-36.431252,9.243751,0.0,1.000000,0.000000,0.000000,0.000000
1782117330.039009,1828899,0.948242,0.050781,-0.315430,1.585366,3.170732,0.243902,14.243751,-36.575001,9.400001,0.0,1.000000,0.000000,0.000000,0.000000
1782117330.049009,1828909,0.951660,0.049316,-0.320801,1.036585,2.743902,0.487805,14.243751,-36.575001,9.400001,0.0,1.000000,0.000000,0.000000,0.000000
1782117330.060009,1828920,0.955078,0.049316,-0.317383,0.853659,2.621951,0.792683,14.256250,-36.443752,9.362500,0.0,1.000000,0.000000,0.000000,0.000000
1782117330.069009,1828929,0.952637,0.045410,-0.312500,0.609756,2.073171,1.036585,14.256250,-36.443752,9.362500,0.0,1.000000,0.000000,0.000000,0.000000
1782117330.080009,1828940,0.950195,0.041504,-0.301758,0.182927,1.585366,0.975610,14.218750,-36.556252,9.412500,0.0,1.000000,0.000000,0.000000,0.000000
1782117330.090009,1828950,0.948242,0.037598,-0.296875,-0.914634,1.219512,0.792683,14.218750,-36.556252,9.412500,0.0,1.000000,0.000000,0.000000,0.000000
1782117330.099009,1828959,0.946777,0.031250,-0.292969,-1.707317,0.914634,0.609756,14.200000,-36.543751,9.500000,0.0,1.000000,0.000000,0.000000,0.000000
1782117330.109009,1828969,0.947754,0.020020,-0.292480,-1.890244,0.304878,0.182927,14.200000,-36.543751,9.500000,0.0,1.000000,0.000000,0.000000,0.000000
1782117330.119009,1828979,0.950195,0.011719,-0.299316,-1.585366,0.060976,-0.121951,14.193750,-36.525002,9.493751,0.0,1.000000,0.000000,0.000000,0.000000
1782117330.129009,1828989,0.952148,0.008301,-0.306641,-0.731707,-0.182927,-0.243902,14.193750,-36.525002,9.493751,0.0,1.000000,0.000000,0.000000,0.000000
1782117330.139009,1828999,0.954590,0.012207,-0.315918,1.402439,0.000000,-0.487805,14.193750,-36.575001,9.525001,0.0,1.000000,0.000000,0.000000,0.000000
1782117330.149009,1829009,0.951172,0.014648,-0.317871,2.500000,0.304878,-0.487805,14.193750,-36.575001,9.525001,0.0,1.000000,0.000000,0.000000,0.000000
1782117330.162009,1829022,0.947754,0.015625,-0.316406,3.719512,0.060976,-0.548781,14.187500,-36.581249,9.468750,0.0,1.000000,0.000000,0.000000,0.000000
1782117330.169009,1829029,0.949707,0.020020,-0.312988,4.817073,-0.121951,-0.670732,14.187500,-36.581249,9.468750,0.0,1.000000,0.000000,0.000000,0.000000
1782117330.179009,1829039,0.948242,0.022949,-0.310547,5.792683,-0.060976,-0.914634,14.412500,-36.087502,9.162500,0.0,1.000000,0.000000,0.000000,0.000000
1782117330.189009,1829049,0.947754,0.020020,-0.313965,6.463415,-0.365854,-1.219512,14.412500,-36.087502,9.162500,0.0,1.000000,0.000000,0.000000,0.000000
1782117330.199009,1829059,0.946777,0.030273,-0.311035,6.585366,-0.426829,-1.097561,14.193750,-36.556252,9.425000,0.0,1.000000,0.000000,0.000000,0.000000
1782117330.209009,1829069,0.943359,0.033691,-0.313477,6.036585,-0.853659,-0.914634,14.193750,-36.556252,9.425000,0.0,1.000000,0.000000,0.000000,0.000000
1782117330.219009,1829079,0.944336,0.034180,-0.312012,5.243903,-1.158537,-1.036585,14.237500,-36.543751,9.362500,0.0,1.000000,0.000000,0.000000,0.000000
1782117330.229009,1829089,0.945312,0.029297,-0.311523,4.573171,-1.463415,-0.975610,14.237500,-36.543751,9.362500,0.0,1.000000,0.000000,0.000000,0.000000
1782117330.239009,1829099,0.947754,0.032227,-0.312012,3.719512,-1.829268,-0.670732,14.225000,-36.537502,9.400001,0.0,1.000000,0.000000,0.000000,0.000000
1782117330.249009,1829109,0.951660,0.036133,-0.313477,2.621951,-1.829268,-0.487805,14.225000,-36.537502,9.400001,0.0,1.000000,0.000000,0.000000,0.000000
1782117330.262009,1829122,0.950195,0.037598,-0.314453,1.707317,-1.524390,-0.365854,14.306251,-36.462502,9.312500,0.0,1.000000,0.000000,0.000000,0.000000
1782117330.270009,1829130,0.945801,0.030762,-0.315430,1.280488,-1.463415,-0.426829,14.306251,-36.462502,9.312500,0.0,1.000000,0.000000,0.000000,0.000000
1782117330.281009,1829141,0.941406,0.027344,-0.312500,1.341463,-1.646341,-0.426829,14.393750,-36.462502,9.225000,0.0,1.000000,0.000000,0.000000,0.000000
1782117330.290009,1829150,0.943359,0.023926,-0.312988,1.463415,-2.012195,-0.365854,14.393750,-36.462502,9.225000,0.0,1.000000,0.000000,0.000000,0.000000
1782117330.299009,1829159,0.945801,0.023438,-0.312012,1.402439,-2.256098,-0.365854,14.412500,-36.493752,9.243751,0.0,1.000000,0.000000,0.000000,0.000000
1782117330.310009,1829170,0.947266,0.020020,-0.317383,0.914634,-2.378049,-0.304878,14.412500,-36.493752,9.243751,0.0,1.000000,0.000000,0.000000,0.000000
1782117330.320009,1829180,0.946289,0.014160,-0.317383,0.670732,-2.500000,-0.243902,14.350000,-36.531250,9.200000,0.0,1.000000,0.000000,0.000000,0.000000
1782117330.329009,1829189,0.943848,0.010742,-0.317871,0.914634,-2.682927,-0.243902,14.350000,-36.531250,9.200000,0.0,1.000000,0.000000,0.000000,0.000000
1782117330.339009,1829199,0.945312,0.009766,-0.319336,1.158537,-2.865854,-0.304878,14.343750,-36.587502,9.175000,0.0,1.000000,0.000000,0.000000,0.000000
1782117330.349009,1829209,0.944824,0.008301,-0.322754,1.463415,-2.682927,-0.548781,14.343750,-36.587502,9.175000,0.0,1.000000,0.000000,0.000000,0.000000
1782117330.359009,1829219,0.944824,0.008301,-0.325195,2.256098,-2.560976,-0.853659,14.312500,-36.631252,9.187500,0.0,1.000000,0.000000,0.000000,0.000000
1782117330.369009,1829229,0.945312,0.007324,-0.328125,2.987805,-2.621951,-0.975610,14.312500,-36.631252,9.187500,0.0,1.000000,0.000000,0.000000,0.000000
1782117330.380009,1829240,0.945312,0.006836,-0.328125,3.536585,-2.926829,-1.036585,14.462501,-36.518749,9.143750,0.0,1.000000,0.000000,0.000000,0.000000
1782117330.389009,1829249,0.946289,0.007324,-0.325195,4.146341,-2.987805,-1.097561,14.462501,-36.518749,9.143750,0.0,1.000000,0.000000,0.000000,0.000000
1782117330.399009,1829259,0.942871,0.010254,-0.326172,4.878049,-2.865854,-1.280488,14.406250,-36.612499,9.100000,0.0,1.000000,0.000000,0.000000,0.000000
1782117330.409009,1829269,0.944336,0.011230,-0.325195,5.487805,-3.048780,-1.402439,14.406250,-36.612499,9.100000,0.0,1.000000,0.000000,0.000000,0.000000
1782117330.419009,1829279,0.943359,0.016602,-0.324219,5.914634,-2.987805,-1.524390,14.525001,-36.481251,8.931251,0.0,1.000000,0.000000,0.000000,0.000000
1782117330.430009,1829290,0.943359,0.018555,-0.327148,5.975610,-2.865854,-1.524390,14.525001,-36.481251,8.931251,0.0,1.000000,0.000000,0.000000,0.000000
1782117330.440009,1829300,0.944336,0.022949,-0.325684,5.975610,-2.743902,-1.585366,14.481250,-36.625000,8.937500,0.0,1.000000,0.000000,0.000000,0.000000
1782117330.450009,1829310,0.943359,0.026367,-0.328125,5.792683,-2.987805,-1.585366,14.481250,-36.625000,8.937500,0.0,1.000000,0.000000,0.000000,0.000000
1782117330.459009,1829319,0.946289,0.025879,-0.329102,5.426829,-3.170732,-1.463415,14.712501,-36.312500,8.637500,0.0,1.000000,0.000000,0.000000,0.000000
1782117330.470009,1829330,0.945801,0.027344,-0.328125,5.060976,-3.109756,-1.402439,14.712501,-36.312500,8.637500,0.0,1.000000,0.000000,0.000000,0.000000
1782117330.479009,1829339,0.945312,0.028809,-0.330566,4.634146,-3.170732,-1.219512,14.550000,-36.681252,8.781250,0.0,1.000000,0.000000,0.000000,0.000000
1782117330.489009,1829349,0.945312,0.029785,-0.331543,4.085366,-3.353659,-1.036585,14.550000,-36.681252,8.781250,0.0,1.000000,0.000000,0.000000,0.000000
1782117330.499009,1829359,0.943359,0.031738,-0.332031,3.414634,-3.170732,-0.853659,14.737500,-36.400002,8.581250,0.0,1.000000,0.000000,0.000000,0.000000
1782117330.509009,1829369,0.938477,0.030273,-0.334473,2.804878,-3.109756,-0.670732,14.737500,-36.400002,8.581250,0.0,1.000000,0.000000,0.000000,0.000000
1782117330.519009,1829379,0.938965,0.028809,-0.336914,2.439024,-3.414634,-0.609756,14.656250,-36.656250,8.643750,0.0,1.000000,0.000000,0.000000,0.000000
1782117330.529009,1829389,0.941895,0.027832,-0.336426,2.134146,-3.353659,-0.548781,14.656250,-36.656250,8.643750,0.0,1.000000,0.000000,0.000000,0.000000
1782117330.542009,1829402,0.940918,0.026367,-0.337891,2.012195,-2.987805,-0.487805,14.706250,-36.581249,8.568750,0.0,1.000000,0.000000,0.000000,0.000000
1782117330.549009,1829409,0.938477,0.023926,-0.337891,1.829268,-2.987805,-0.243902,14.706250,-36.581249,8.568750,0.0,1.000000,0.000000,0.000000,0.000000
1782117330.561009,1829421,0.939453,0.024414,-0.339355,1.463415,-3.109756,-0.060976,14.712501,-36.593750,8.481250,0.0,1.000000,0.000000,0.000000,0.000000
1782117330.569009,1829429,0.938965,0.025879,-0.337891,1.219512,-3.048780,-0.060976,14.731250,-36.643749,8.481250,0.0,1.000000,0.000000,0.000000,0.000000
1782117330.579009,1829439,0.937012,0.025879,-0.339844,0.792683,-3.170732,0.060976,14.731250,-36.643749,8.481250,0.0,1.000000,0.000000,0.000000,0.000000
1782117330.589009,1829449,0.939453,0.024902,-0.341797,0.548781,-3.292683,0.121951,14.731250,-36.643749,8.481250,0.0,1.000000,0.000000,0.000000,0.000000
1782117330.599009,1829459,0.937500,0.024414,-0.341797,0.548781,-3.170732,0.182927,14.706250,-36.656250,8.406250,0.0,1.000000,0.000000,0.000000,0.000000
1782117330.609009,1829469,0.935059,0.024902,-0.345215,0.609756,-3.231707,0.243902,14.731250,-36.637501,8.381250,0.0,1.000000,0.000000,0.000000,0.000000
1782117330.619009,1829479,0.936523,0.022949,-0.346191,0.792683,-3.475610,0.304878,14.731250,-36.637501,8.381250,0.0,1.000000,0.000000,0.000000,0.000000
1782117330.629009,1829489,0.937500,0.026367,-0.345215,0.914634,-3.414634,0.060976,14.681251,-36.668751,8.343750,0.0,1.000000,0.000000,0.000000,0.000000
1782117330.641009,1829501,0.939453,0.024414,-0.348633,0.914634,-3.414634,0.426829,14.681251,-36.668751,8.343750,0.0,1.000000,0.000000,0.000000,0.000000
1782117330.649009,1829509,0.934082,0.025391,-0.343750,0.670732,-3.414634,0.609756,14.706250,-36.725002,8.275001,0.0,1.000000,0.000000,0.000000,0.000000
1782117330.659009,1829519,0.935059,0.027832,-0.344238,0.243902,-3.719512,0.609756,14.706250,-36.725002,8.275001,0.0,1.000000,0.000000,0.000000,0.000000
1782117330.670009,1829530,0.937988,0.027344,-0.344727,-0.487805,-3.902439,0.609756,14.900001,-36.393749,8.075000,0.0,1.000000,0.000000,0.000000,0.000000
1782117330.681009,1829541,0.943848,0.025879,-0.346191,-0.853659,-4.207317,0.426829,14.900001,-36.393749,8.075000,0.0,1.000000,0.000000,0.000000,0.000000
1782117330.690009,1829550,0.947266,0.024414,-0.346191,-1.036585,-3.963415,0.548781,14.743751,-36.700001,8.200000,0.0,1.000000,0.000000,0.000000,0.000000
1782117330.700009,1829560,0.948730,0.022949,-0.345703,-1.219512,-3.780488,0.609756,14.743751,-36.700001,8.200000,0.0,1.000000,0.000000,0.000000,0.000000
1782117330.710009,1829570,0.947754,0.020020,-0.343262,-1.097561,-3.414634,0.853659,14.656250,-36.843750,8.162500,0.0,1.000000,0.000000,0.000000,0.000000
1782117330.721009,1829581,0.943848,0.018555,-0.339844,-0.975610,-3.292683,0.975610,14.656250,-36.843750,8.162500,0.0,1.000000,0.000000,0.000000,0.000000
1782117330.729009,1829589,0.944336,0.017090,-0.336914,-0.914634,-3.231707,1.158537,14.725000,-36.693752,8.043750,0.0,1.000000,0.000000,0.000000,0.000000
1782117330.739009,1829599,0.945801,0.016602,-0.336426,-0.609756,-2.987805,1.158537,14.725000,-36.693752,8.043750,0.0,1.000000,0.000000,0.000000,0.000000
1782117330.749009,1829609,0.944824,0.011719,-0.338867,-0.487805,-2.804878,1.219512,14.581250,-36.887501,8.156250,0.0,1.000000,0.000000,0.000000,0.000000
1782117330.761009,1829621,0.944336,0.010254,-0.338867,-0.304878,-2.682927,1.280488,14.581250,-36.887501,8.156250,0.0,1.000000,0.000000,0.000000,0.000000
1782117330.769009,1829629,0.945312,0.010254,-0.341797,-0.182927,-2.621951,1.402439,14.600000,-36.856251,8.056251,0.0,1.000000,0.000000,0.000000,0.000000
1782117330.779009,1829639,0.946777,0.009277,-0.340820,0.243902,-2.317073,1.707317,14.600000,-36.856251,8.056251,0.0,1.000000,0.000000,0.000000,0.000000
1782117330.790009,1829650,0.944824,0.008789,-0.341309,0.365854,-1.890244,1.890244,14.625000,-36.887501,8.081250,0.0,1.000000,0.000000,0.000000,0.000000
1782117330.799009,1829659,0.942383,0.009766,-0.343262,0.365854,-1.646341,1.951220,14.625000,-36.887501,8.081250,0.0,1.000000,0.000000,0.000000,0.000000
1782117330.809009,1829669,0.941406,0.010742,-0.344238,0.548781,-1.341463,1.890244,14.593750,-36.850002,8.037500,0.0,1.000000,0.000000,0.000000,0.000000
1782117330.819009,1829679,0.939453,0.011230,-0.348145,0.975610,-1.219512,1.890244,14.593750,-36.850002,8.037500,0.0,1.000000,0.000000,0.000000,0.000000
1782117330.829009,1829689,0.940430,0.012695,-0.348633,1.341463,-1.280488,1.890244,14.531250,-36.962502,8.006250,0.0,1.000000,0.000000,0.000000,0.000000
1782117330.839009,1829699,0.941406,0.015625,-0.349121,1.280488,-1.097561,1.890244,14.531250,-36.962502,8.006250,0.0,1.000000,0.000000,0.000000,0.000000
1782117330.849009,1829709,0.938965,0.018066,-0.351562,0.975610,-0.914634,2.012195,14.550000,-36.862499,7.993750,0.0,1.000000,0.000000,0.000000,0.000000
1782117330.859009,1829719,0.935547,0.018066,-0.350586,0.365854,-0.853659,2.134146,14.550000,-36.862499,7.993750,0.0,1.000000,0.000000,0.000000,0.000000
1782117330.869009,1829729,0.933105,0.018066,-0.348633,-0.426829,-0.914634,2.317073,14.506250,-36.943752,8.000000,0.0,1.000000,0.000000,0.000000,0.000000
1782117330.880009,1829740,0.931152,0.017578,-0.348145,-1.036585,-0.914634,2.317073,14.506250,-36.943752,8.000000,0.0,1.000000,0.000000,0.000000,0.000000
1782117330.889009,1829749,0.931152,0.012695,-0.350586,-1.280488,-1.158537,2.195122,14.481250,-36.993752,8.056251,0.0,1.000000,0.000000,0.000000,0.000000
1782117330.900009,1829760,0.933105,0.009277,-0.353516,-1.341463,-1.463415,2.134146,14.481250,-36.993752,8.056251,0.0,1.000000,0.000000,0.000000,0.000000
1782117330.909009,1829769,0.932129,0.006836,-0.354492,-1.341463,-1.585366,2.012195,14.450000,-37.012501,8.050000,0.0,1.000000,0.000000,0.000000,0.000000
1782117330.922009,1829782,0.932129,0.003418,-0.356445,-1.402439,-1.768293,2.073171,14.450000,-37.012501,8.050000,0.0,1.000000,0.000000,0.000000,0.000000
1782117330.929009,1829789,0.933105,0.000977,-0.356934,-1.341463,-2.012195,2.073171,14.493751,-37.018749,7.950000,0.0,1.000000,0.000000,0.000000,0.000000
1782117330.939009,1829799,0.936035,0.001465,-0.355957,-1.341463,-2.195122,2.073171,14.493751,-37.018749,7.950000,0.0,1.000000,0.000000,0.000000,0.000000
1782117330.949009,1829809,0.936523,0.000977,-0.355469,-1.158537,-2.012195,2.073171,14.393750,-37.075001,8.006250,0.0,1.000000,0.000000,0.000000,0.000000
1782117330.959009,1829819,0.936035,0.000977,-0.354492,-0.975610,-1.768293,1.890244,14.393750,-37.075001,8.006250,0.0,1.000000,0.000000,0.000000,0.000000
1782117330.969009,1829829,0.935059,0.000488,-0.353027,-0.365854,-1.646341,1.646341,14.412500,-37.043751,7.925000,0.0,1.000000,0.000000,0.000000,0.000000
1782117330.979009,1829839,0.934570,0.000000,-0.351074,0.060976,-1.585366,1.524390,14.412500,-37.043751,7.925000,0.0,1.000000,0.000000,0.000000,0.000000
1782117330.989009,1829849,0.932617,0.000977,-0.349609,0.000000,-1.768293,1.463415,14.400001,-37.118752,7.906250,0.0,1.000000,0.000000,0.000000,0.000000
1782117330.999009,1829859,0.932617,-0.000488,-0.349121,-0.365854,-1.951220,1.463415,14.400001,-37.118752,7.906250,0.0,1.000000,0.000000,0.000000,0.000000
1782117331.009009,1829869,0.930664,-0.000488,-0.348633,-0.914634,-2.256098,1.585366,14.368751,-37.087502,7.881250,0.0,1.000000,0.000000,0.000000,0.000000
1782117331.019009,1829879,0.931152,-0.001465,-0.351562,-1.341463,-2.621951,1.524390,14.368751,-37.087502,7.881250,0.0,1.000000,0.000000,0.000000,0.000000
1782117331.029009,1829889,0.932617,-0.000977,-0.355957,-1.646341,-2.926829,1.341463,14.362500,-37.143749,7.906250,0.0,1.000000,0.000000,0.000000,0.000000
1782117331.039009,1829899,0.931641,0.000977,-0.356445,-1.951220,-3.048780,1.280488,14.362500,-37.143749,7.906250,0.0,1.000000,0.000000,0.000000,0.000000
1782117331.049009,1829909,0.929688,0.000977,-0.355469,-2.134146,-3.475610,1.158537,14.312500,-37.218750,7.906250,0.0,1.000000,0.000000,0.000000,0.000000
1782117331.061009,1829921,0.929199,-0.004883,-0.355469,-2.134146,-3.841464,0.731707,14.312500,-37.218750,7.906250,0.0,1.000000,0.000000,0.000000,0.000000
1782117331.070009,1829930,0.929199,-0.009277,-0.354492,-1.646341,-4.085366,0.548781,14.287500,-37.206249,7.875000,0.0,1.000000,0.000000,0.000000,0.000000
1782117331.079009,1829939,0.934082,-0.008789,-0.354004,-1.280488,-4.329268,0.304878,14.287500,-37.206249,7.875000,0.0,1.000000,0.000000,0.000000,0.000000
1782117331.089009,1829949,0.937012,-0.007324,-0.353516,-1.036585,-4.146341,-0.060976,14.312500,-37.193752,7.800000,0.0,1.000000,0.000000,0.000000,0.000000
1782117331.099009,1829959,0.937012,-0.010254,-0.355469,-0.609756,-3.963415,-0.365854,14.312500,-37.193752,7.800000,0.0,1.000000,0.000000,0.000000,0.000000
1782117331.110009,1829970,0.936523,-0.010742,-0.354004,-0.243902,-3.841464,-0.487805,14.368751,-37.156250,7.650000,0.0,1.000000,0.000000,0.000000,0.000000
1782117331.120009,1829980,0.934082,-0.011230,-0.352539,0.487805,-3.719512,-0.670732,14.368751,-37.156250,7.650000,0.0,1.000000,0.000000,0.000000,0.000000
1782117331.129009,1829989,0.934082,-0.010742,-0.348633,1.158537,-3.658537,-0.853659,14.318750,-37.193752,7.725000,0.0,1.000000,0.000000,0.000000,0.000000
1782117331.140009,1830000,0.936035,-0.010742,-0.349121,2.073171,-3.780488,-1.280488,14.318750,-37.193752,7.725000,0.0,1.000000,0.000000,0.000000,0.000000
1782117331.149009,1830009,0.942871,-0.018066,-0.352539,2.987805,-3.536585,-1.646341,14.312500,-37.237499,7.656250,0.0,1.000000,0.000000,0.000000,0.000000
1782117331.160009,1830020,0.946289,-0.016113,-0.354004,4.085366,-3.048780,-1.829268,14.312500,-37.237499,7.656250,0.0,1.000000,0.000000,0.000000,0.000000
1782117331.170009,1830030,0.947754,-0.014160,-0.351562,5.182927,-2.621951,-1.829268,14.375000,-37.287502,7.600000,0.0,1.000000,0.000000,0.000000,0.000000
1782117331.179009,1830039,0.948730,-0.008301,-0.351074,5.853659,-2.073171,-1.768293,14.375000,-37.287502,7.600000,0.0,1.000000,0.000000,0.000000,0.000000
