Unix_Time_s,RelativeTime_s,P_1,P_2,P_3,P_4,P_5,P_6,P_7,P_8,P_9,P_10,P_11,P_12,P_13,P_14,P_15,P_16,P_17,P_18,P_19,P_20,P_21,P_22,P_23,P_24,P_25,P_26,P_27,P_28,P_29,P_30,P_31,P_32,P_33,P_34,P_35,P_36,P_37,P_38,P_39,P_40,P_41,P_42,P_43,P_44,P_45,P_46,P_47,P_48,P_49,P_50,P_51,P_52,P_53,P_54,P_55,P_56,P_57,P_58,P_59,P_60,P_61,P_62,P_63,P_64,P_65,P_66,P_67,P_68,P_69,P_70,P_71,P_72,P_73,P_74,P_75,P_76,P_77,P_78,P_79,P_80,P_81,P_82,P_83,P_84,P_85,P_86,P_87,P_88,P_89,P_90,P_91,P_92,P_93,P_94,P_95,P_96,P_97,P_98,P_99,P_100,P_101,P_102,P_103,P_104,P_105,P_106,P_107,P_108,P_109,P_110,P_111,P_112,P_113,P_114,P_115,P_116,P_117,P_118,P_119,P_120,P_121,P_122,P_123,P_124,P_125,P_126,P_127,P_128,P_129,P_130,P_131,P_132,P_133,P_134,P_135,P_136,P_137,P_138,P_139,P_140,P_141,P_142,P_143,P_144,P_145,P_146,P_147,P_148,P_149,P_150,P_151,P_152,P_153,P_154,P_155,P_156,P_157,P_158,P_159,P_160,P_161,P_162,P_163,P_164,P_165,P_166,P_167,P_168,P_169,P_170,P_171,P_172,P_173,P_174,P_175,P_176,P_177,P_178,P_179,P_180,P_181,P_182,P_183,P_184,P_185,P_186,P_187,P_188,P_189,P_190,P_191,P_192,P_193,P_194,P_195,P_196,P_197,P_198,P_199,P_200,P_201,P_202,P_203,P_204,P_205,P_206,P_207,P_208,P_209,P_210,P_211,P_212,P_213,P_214,P_215,P_216,P_217,P_218,P_219,P_220,P_221,P_222,P_223,P_224,P_225,P_226,P_227,P_228,P_229,P_230,P_231,P_232,P_233,Flex1,Flex2,Bat,IMU1_RefTime,IMU1_Ax,IMU1_Ay,IMU1_Az,IMU1_Wx,IMU1_Wy,IMU1_Wz,IMU1_Roll,IMU1_Pitch,IMU1_Yaw,IMU1_Hx,IMU1_Hy,IMU1_Hz,IMU1_Q0,IMU1_Q1,IMU1_Q2,IMU1_Q3,IMU2_RefTime,IMU2_Ax,IMU2_Ay,IMU2_Az,IMU2_Wx,IMU2_Wy,IMU2_Wz,IMU2_Roll,IMU2_Pitch,IMU2_Yaw,IMU2_Hx,IMU2_Hy,IMU2_Hz,IMU2_Q0,IMU2_Q1,IMU2_Q2,IMU2_Q3,IMU1_FusedRoll,IMU1_FusedPitch,IMU1_FusedYaw,IMU1_FusedQ0,IMU1_FusedQ1,IMU1_FusedQ2,IMU1_FusedQ3,IMU1_MagValid,IMU2_FusedRoll,IMU2_FusedPitch,IMU2_FusedYaw,IMU2_FusedQ0,IMU2_FusedQ1,IMU2_FusedQ2,IMU2_FusedQ3,IMU2_MagValid
1782117324.258188,0.009,1025.0,1026.0,1020.0,1025.0,1017.0,1028.0,1020.0,1021.0,1008.0,1025.0,1018.0,1027.0,1020.0,1022.0,1008.0,1020.0,1025.0,1017.0,1027.0,1020.0,1022.0,1008.0,1020.0,1022.0,1026.0,1017.0,1028.0,1020.0,1021.0,1007.0,1020.0,1020.0,1020.0,1025.0,1017.0,1027.0,1021.0,1022.0,1008.0,1020.0,1021.0,1021.0,1026.0,1017.0,1028.0,1021.0,1022.0,1008.0,1021.0,1020.0,1021.0,1019.0,1025.0,1018.0,1027.0,1020.0,1022.0,1008.0,1020.0,1020.0,1020.0,1019.0,1025.0,1018.0,1027.0,1021.0,1023.0,1008.0,1020.0,1021.0,1022.0,1020.0,1025.0,1018.0,1027.0,1021.0,1022.0,1009.0,1020.0,1021.0,1022.0,1020.0,1026.0,1018.0,1027.0,1021.0,1023.0,1009.0,1020.0,1021.0,1021.0,1019.0,1026.0,1018.0,1027.0,1021.0,1023.0,1009.0,1021.0,1020.0,1021.0,1019.0,1026.0,1018.0,1028.0,1021.0,1023.0,1008.0,1021.0,1021.0,1022.0,1020.0,1027.0,1019.0,1029.0,1021.0,1024.0,1009.0,1021.0,1023.0,1025.0,1026.0,1019.0,1029.0,1021.0,1025.0,1010.0,1021.0,1022.0,1027.0,1018.0,1028.0,1021.0,1024.0,1010.0,1020.0,1027.0,1018.0,1029.0,1022.0,1025.0,1010.0,1021.0,1027.0,1019.0,1029.0,1021.0,1025.0,1010.0,1021.0,1027.0,1019.0,1029.0,1022.0,1026.0,1011.0,1026.0,1019.0,1028.0,1021.0,1023.0,1010.0,1028.0,1020.0,1029.0,1023.0,1027.0,1012.0,1030.0,1021.0,1031.0,1024.0,1030.0,1014.0,1029.0,1020.0,1029.0,1023.0,1026.0,1012.0,1030.0,1021.0,1031.0,1024.0,1027.0,1013.0,1033.0,1023.0,1033.0,1025.0,1029.0,1016.0,1036.0,1024.0,1035.0,1025.0,1029.0,1016.0,1039.0,1026.0,1037.0,1025.0,1030.0,1019.0,1051.0,1028.0,1039.0,1026.0,1029.0,1022.0,1059.0,1032.0,1044.0,1029.0,1030.0,1029.0,1063.0,1031.0,1044.0,1027.0,1027.0,1030.0,1079.0,1042.0,1059.0,1030.0,1029.0,1093.0,1075.0,1041.0,1057.0,1030.0,1029.0,2313,2259,1901,	00:30:15.130,-0.0087890625,0.060546875,1.02099609375,-0.06103515625,0.3662109375,0.1220703125,3.4222412109375,0.50537109375,-61.4520263671875,99.0,-580.0,-4010.0,-0.859161376953125,-0.027923583984375,0.011444091796875,0.510833740234375,3.4212702634619228,0.5074139863371288,-65.66000730304883,-0.8398284349615097,-0.027483258912419407,0.012464812629883214,0.5420124525836617,1,	00:30:15.131,0.0,0.0498046875,1.021484375,-0.06103515625,0.30517578125,0.42724609375,2.779541015625,0.0,69.2138671875,2.0,638.0,-1874.0,0.82281494140625,0.01995849609375,0.0137939453125,0.567779541015625,2.7812007519592177,0.0007157260655622004,62.70981356375617,0.8537091548122343,0.020720813584987622,0.012632977297932295,0.5201843276750526,1
1782117324.268202,0.019,1024.0,1026.0,1019.0,1025.0,1017.0,1027.0,1020.0,1022.0,1008.0,1025.0,1018.0,1027.0,1020.0,1021.0,1008.0,1020.0,1025.0,1018.0,1027.0,1021.0,1022.0,1008.0,1020.0,1021.0,1025.0,1017.0,1028.0,1020.0,1021.0,1008.0,1020.0,1020.0,1020.0,1026.0,1017.0,1028.0,1020.0,1021.0,1008.0,1020.0,1020.0,1021.0,1025.0,1018.0,1027.0,1020.0,1022.0,1008.0,1020.0,1020.0,1021.0,1018.0,1025.0,1018.0,1028.0,1020.0,1022.0,1008.0,1020.0,1020.0,1021.0,1018.0,1025.0,1018.0,1028.0,1021.0,1023.0,1009.0,1020.0,1020.0,1022.0,1020.0,1025.0,1018.0,1028.0,1021.0,1022.0,1008.0,1020.0,1021.0,1022.0,1019.0,1026.0,1018.0,1028.0,1020.0,1022.0,1009.0,1020.0,1021.0,1022.0,1020.0,1026.0,1018.0,1028.0,1021.0,1022.0,1009.0,1020.0,1021.0,1021.0,1020.0,1026.0,1018.0,1028.0,1020.0,1023.0,1009.0,1020.0,1020.0,1022.0,1020.0,1026.0,1019.0,1029.0,1021.0,1025.0,1010.0,1021.0,1023.0,1025.0,1027.0,1018.0,1028.0,1021.0,1024.0,1010.0,1022.0,1023.0,1027.0,1018.0,1028.0,1021.0,1024.0,1010.0,1020.0,1027.0,1019.0,1029.0,1022.0,1025.0,1010.0,1021.0,1027.0,1019.0,1029.0,1022.0,1025.0,1011.0,1021.0,1027.0,1019.0,1029.0,1022.0,1026.0,1011.0,1027.0,1019.0,1028.0,1021.0,1023.0,1010.0,1028.0,1019.0,1030.0,1023.0,1027.0,1012.0,1029.0,1021.0,1031.0,1024.0,1029.0,1014.0,1029.0,1020.0,1030.0,1023.0,1026.0,1012.0,1031.0,1021.0,1031.0,1023.0,1027.0,1013.0,1032.0,1023.0,1033.0,1024.0,1028.0,1015.0,1036.0,1024.0,1035.0,1025.0,1029.0,1016.0,1039.0,1026.0,1037.0,1025.0,1029.0,1019.0,1050.0,1029.0,1039.0,1026.0,1029.0,1022.0,1060.0,1032.0,1044.0,1028.0,1030.0,1028.0,1063.0,1032.0,1043.0,1027.0,1026.0,1030.0,1078.0,1043.0,1058.0,1030.0,1029.0,1093.0,1074.0,1041.0,1057.0,1030.0,1029.0,2313,2259,1901,	00:30:15.140,-0.00927734375,0.06005859375,1.02099609375,-0.06103515625,0.3662109375,0.18310546875,3.328857421875,0.5328369140625,-61.4520263671875,99.0,-583.0,-4011.0,-0.85919189453125,-0.02734375,0.0108642578125,0.510833740234375,3.331361973149139,0.5309973962345644,-65.6587702753722,-0.8398515645226488,-0.026935956304987824,0.011866382783191373,0.5420175207375105,1,	00:30:15.141,0.0,0.0498046875,1.021484375,-0.06103515625,0.30517578125,0.48828125,2.8729248046875,-0.0054931640625,69.2193603515625,1.0,639.0,-1875.0,0.822784423828125,0.0206298828125,0.01422119140625,0.56781005859375,2.871926861356467,-0.0029058110550630066,62.71483678170384,0.8536692663758728,0.021412586997684963,0.01301877991987656,0.5202122606520762,1
1782117324.278674,0.030,1024.0,1026.0,1019.0,1025.0,1017.0,1027.0,1020.0,1021.0,1008.0,1025.0,1017.0,1027.0,1020.0,1022.0,1008.0,1020.0,1025.0,1018.0,1027.0,1020.0,1022.0,1008.0,1020.0,1021.0,1025.0,1017.0,1027.0,1020.0,1021.0,1008.0,1020.0,1020.0,1020.0,1025.0,1018.0,1026.0,1021.0,1022.0,1008.0,1020.0,1020.0,1021.0,1025.0,1018.0,1027.0,1020.0,1022.0,1008.0,1020.0,1020.0,1021.0,1019.0,1025.0,1018.0,1027.0,1020.0,1022.0,1008.0,1020.0,1020.0,1021.0,1018.0,1026.0,1018.0,1027.0,1020.0,1023.0,1009.0,1020.0,1021.0,1021.0,1020.0,1026.0,1018.0,1028.0,1021.0,1022.0,1008.0,1020.0,1020.0,1021.0,1020.0,1026.0,1018.0,1028.0,1020.0,1022.0,1008.0,1020.0,1021.0,1022.0,1020.0,1026.0,1018.0,1028.0,1021.0,1022.0,1009.0,1021.0,1020.0,1021.0,1019.0,1026.0,1018.0,1028.0,1020.0,1023.0,1009.0,1020.0,1021.0,1022.0,1020.0,1026.0,1018.0,1028.0,1021.0,1024.0,1010.0,1021.0,1023.0,1025.0,1026.0,1019.0,1028.0,1021.0,1024.0,1010.0,1021.0,1023.0,1026.0,1019.0,1028.0,1021.0,1023.0,1010.0,1021.0,1027.0,1019.0,1029.0,1022.0,1025.0,1010.0,1021.0,1027.0,1019.0,1028.0,1022.0,1024.0,1010.0,1021.0,1027.0,1019.0,1029.0,1022.0,1025.0,1011.0,1027.0,1018.0,1029.0,1021.0,1022.0,1010.0,1028.0,1020.0,1030.0,1023.0,1026.0,1012.0,1029.0,1021.0,1031.0,1024.0,1029.0,1014.0,1029.0,1020.0,1030.0,1023.0,1026.0,1012.0,1030.0,1021.0,1031.0,1024.0,1026.0,1013.0,1032.0,1023.0,1033.0,1025.0,1029.0,1015.0,1035.0,1024.0,1034.0,1026.0,1029.0,1016.0,1039.0,1027.0,1037.0,1027.0,1029.0,1019.0,1051.0,1028.0,1039.0,1027.0,1029.0,1021.0,1059.0,1032.0,1044.0,1029.0,1030.0,1028.0,1063.0,1031.0,1044.0,1027.0,1027.0,1030.0,1078.0,1042.0,1058.0,1031.0,1029.0,1093.0,1074.0,1041.0,1056.0,1030.0,1028.0,2313,2259,1902,	00:30:15.150,-0.009765625,0.060546875,1.021484375,-0.06103515625,0.42724609375,0.18310546875,3.416748046875,0.560302734375,-61.446533203125,98.0,-577.0,-4014.0,-0.859161376953125,-0.02813720703125,0.01104736328125,0.51080322265625,3.419348837603828,0.5581591417388535,-65.65585229528551,-0.8398396563797628,-0.027709536297252216,0.01208274936825975,0.5419921958274098,1,	00:30:15.152,-0.00048828125,0.05126953125,1.0224609375,-0.06103515625,0.3662109375,0.42724609375,2.867431640625,0.0933837890625,69.224853515625,1.0,641.0,-1874.0,0.822784423828125,0.0201416015625,0.014862060546875,0.56781005859375,2.867280176391416,0.09212192214447798,62.71928372074746,0.8536604671829885,0.020946033787625946,0.01370642011706621,0.5202280312373256,1
1782117324.287939,0.039,1024.0,1026.0,1019.0,1025.0,1018.0,1027.0,1021.0,1021.0,1008.0,1025.0,1017.0,1027.0,1021.0,1022.0,1008.0,1020.0,1025.0,1018.0,1027.0,1021.0,1022.0,1008.0,1021.0,1021.0,1025.0,1017.0,1028.0,1020.0,1021.0,1008.0,1020.0,1020.0,1020.0,1025.0,1018.0,1027.0,1021.0,1021.0,1008.0,1020.0,1020.0,1021.0,1025.0,1018.0,1027.0,1021.0,1022.0,1008.0,1020.0,1020.0,1021.0,1019.0,1025.0,1018.0,1027.0,1021.0,1021.0,1008.0,1020.0,1020.0,1020.0,1019.0,1025.0,1018.0,1027.0,1021.0,1022.0,1009.0,1021.0,1021.0,1021.0,1020.0,1025.0,1018.0,1028.0,1021.0,1022.0,1008.0,1020.0,1021.0,1022.0,1019.0,1025.0,1017.0,1027.0,1021.0,1022.0,1009.0,1020.0,1021.0,1021.0,1020.0,1025.0,1018.0,1028.0,1021.0,1022.0,1009.0,1020.0,1021.0,1022.0,1020.0,1025.0,1018.0,1028.0,1021.0,1023.0,1008.0,1020.0,1021.0,1022.0,1020.0,1027.0,1018.0,1028.0,1022.0,1024.0,1010.0,1021.0,1023.0,1025.0,1026.0,1018.0,1028.0,1022.0,1024.0,1010.0,1021.0,1022.0,1027.0,1018.0,1028.0,1022.0,1023.0,1010.0,1021.0,1027.0,1018.0,1029.0,1023.0,1025.0,1010.0,1021.0,1027.0,1019.0,1029.0,1023.0,1024.0,1010.0,1021.0,1027.0,1020.0,1028.0,1023.0,1025.0,1011.0,1026.0,1019.0,1028.0,1023.0,1022.0,1010.0,1028.0,1019.0,1029.0,1023.0,1027.0,1012.0,1030.0,1021.0,1031.0,1026.0,1029.0,1013.0,1029.0,1020.0,1030.0,1024.0,1026.0,1012.0,1030.0,1021.0,1031.0,1025.0,1027.0,1013.0,1032.0,1022.0,1032.0,1026.0,1029.0,1015.0,1035.0,1024.0,1035.0,1026.0,1029.0,1016.0,1038.0,1026.0,1036.0,1027.0,1029.0,1018.0,1050.0,1029.0,1039.0,1027.0,1029.0,1021.0,1059.0,1032.0,1044.0,1029.0,1030.0,1028.0,1063.0,1030.0,1043.0,1027.0,1027.0,1030.0,1079.0,1042.0,1059.0,1031.0,1029.0,1092.0,1074.0,1040.0,1057.0,1030.0,1028.0,2313,2259,1901,	00:30:15.161,-0.009765625,0.06103515625,1.0205078125,-0.06103515625,0.3662109375,0.18310546875,3.4442138671875,0.472412109375,-61.446533203125,100.0,-581.0,-4014.0,-0.85919189453125,-0.0279541015625,0.011810302734375,0.510772705078125,3.445794785462387,0.4741133331922856,-65.65356201508816,-0.8398588000118362,-0.027506271178103548,0.0128233614186984,0.5419558676594252,1,	00:30:15.162,-0.00146484375,0.05029296875,1.0205078125,0.0,0.244140625,0.48828125,2.779541015625,0.076904296875,69.224853515625,2.0,640.0,-1876.0,0.82275390625,0.01959228515625,0.014312744140625,0.56787109375,2.7778119584437935,0.07486544807772845,62.724152359388746,0.8536526506584287,0.020357314129066703,0.013172555753074843,0.5202780175638997,1
1782117324.298937,0.050,1024.0,1027.0,1019.0,1025.0,1017.0,1027.0,1021.0,1021.0,1008.0,1025.0,1017.0,1027.0,1020.0,1021.0,1008.0,1020.0,1026.0,1017.0,1027.0,1021.0,1022.0,1008.0,1020.0,1021.0,1025.0,1017.0,1028.0,1020.0,1022.0,1008.0,1020.0,1020.0,1020.0,1025.0,1017.0,1027.0,1020.0,1022.0,1008.0,1019.0,1021.0,1021.0,1025.0,1017.0,1027.0,1021.0,1022.0,1009.0,1020.0,1020.0,1021.0,1019.0,1025.0,1018.0,1028.0,1021.0,1021.0,1008.0,1020.0,1019.0,1020.0,1018.0,1025.0,1018.0,1027.0,1020.0,1023.0,1008.0,1021.0,1021.0,1022.0,1020.0,1025.0,1018.0,1027.0,1020.0,1022.0,1008.0,1020.0,1021.0,1022.0,1020.0,1026.0,1017.0,1027.0,1021.0,1023.0,1009.0,1020.0,1021.0,1022.0,1019.0,1025.0,1018.0,1027.0,1021.0,1023.0,1009.0,1020.0,1020.0,1021.0,1019.0,1025.0,1018.0,1028.0,1020.0,1022.0,1009.0,1021.0,1021.0,1022.0,1020.0,1026.0,1018.0,1028.0,1021.0,1025.0,1010.0,1021.0,1023.0,1025.0,1027.0,1019.0,1028.0,1022.0,1024.0,1010.0,1021.0,1023.0,1026.0,1018.0,1028.0,1021.0,1023.0,1010.0,1021.0,1027.0,1018.0,1028.0,1022.0,1025.0,1010.0,1021.0,1027.0,1019.0,1029.0,1022.0,1025.0,1011.0,1021.0,1027.0,1019.0,1029.0,1022.0,1026.0,1011.0,1026.0,1019.0,1028.0,1022.0,1023.0,1010.0,1028.0,1020.0,1030.0,1023.0,1027.0,1012.0,1030.0,1020.0,1031.0,1024.0,1030.0,1013.0,1028.0,1020.0,1030.0,1022.0,1026.0,1012.0,1030.0,1022.0,1031.0,1024.0,1027.0,1013.0,1032.0,1023.0,1033.0,1024.0,1029.0,1015.0,1035.0,1024.0,1035.0,1025.0,1029.0,1017.0,1038.0,1026.0,1037.0,1026.0,1030.0,1019.0,1050.0,1028.0,1039.0,1027.0,1029.0,1022.0,1059.0,1032.0,1044.0,1029.0,1030.0,1028.0,1062.0,1031.0,1044.0,1027.0,1027.0,1030.0,1078.0,1042.0,1058.0,1030.0,1029.0,1092.0,1074.0,1042.0,1056.0,1030.0,1029.0,2313,2259,1901,	00:30:15.171,-0.00927734375,0.060546875,1.021484375,-0.06103515625,0.3662109375,0.18310546875,3.372802734375,0.538330078125,-61.446533203125,100.0,-578.0,-4015.0,-0.85919189453125,-0.0277099609375,0.011016845703125,0.510772705078125,3.375235438582625,0.5367846519378385,-65.65213156450986,-0.8398715855394611,-0.027285565615518505,0.012029900187084575,0.5419654040748004,1,	00:30:15.172,-0.00146484375,0.05078125,1.021484375,0.0,0.30517578125,0.42724609375,2.867431640625,0.087890625,69.2303466796875,2.0,640.0,-1875.0,0.822723388671875,0.020172119140625,0.014862060546875,0.56787109375,2.868875481072428,0.08731219317889029,62.72869640224673,0.8536169216888505,0.020978631417385006,0.013679556164668278,0.520298873507758,1
1782117324.308933,0.060,1024.0,1026.0,1019.0,1025.0,1017.0,1028.0,1020.0,1021.0,1008.0,1025.0,1017.0,1027.0,1020.0,1022.0,1008.0,1020.0,1026.0,1018.0,1027.0,1021.0,1022.0,1008.0,1020.0,1021.0,1025.0,1017.0,1027.0,1020.0,1022.0,1008.0,1020.0,1020.0,1020.0,1025.0,1017.0,1027.0,1020.0,1022.0,1009.0,1020.0,1021.0,1021.0,1025.0,1018.0,1028.0,1020.0,1022.0,1008.0,1020.0,1020.0,1021.0,1019.0,1025.0,1017.0,1028.0,1021.0,1021.0,1008.0,1020.0,1020.0,1021.0,1018.0,1025.0,1018.0,1027.0,1020.0,1022.0,1009.0,1020.0,1021.0,1022.0,1020.0,1025.0,1017.0,1028.0,1021.0,1022.0,1008.0,1020.0,1021.0,1022.0,1019.0,1025.0,1017.0,1028.0,1020.0,1023.0,1008.0,1020.0,1021.0,1022.0,1020.0,1026.0,1018.0,1028.0,1020.0,1022.0,1008.0,1020.0,1021.0,1021.0,1019.0,1025.0,1018.0,1028.0,1021.0,1022.0,1009.0,1020.0,1020.0,1022.0,1020.0,1026.0,1018.0,1028.0,1021.0,1024.0,1010.0,1021.0,1023.0,1025.0,1027.0,1019.0,1028.0,1021.0,1024.0,1010.0,1021.0,1022.0,1026.0,1018.0,1029.0,1021.0,1023.0,1009.0,1021.0,1027.0,1018.0,1029.0,1021.0,1025.0,1010.0,1022.0,1026.0,1019.0,1029.0,1021.0,1025.0,1011.0,1022.0,1027.0,1019.0,1029.0,1022.0,1026.0,1011.0,1027.0,1019.0,1028.0,1021.0,1023.0,1010.0,1028.0,1019.0,1030.0,1022.0,1026.0,1012.0,1029.0,1021.0,1031.0,1024.0,1030.0,1014.0,1028.0,1020.0,1030.0,1023.0,1026.0,1013.0,1030.0,1021.0,1032.0,1023.0,1027.0,1013.0,1032.0,1023.0,1033.0,1024.0,1029.0,1015.0,1035.0,1024.0,1034.0,1025.0,1029.0,1017.0,1038.0,1025.0,1037.0,1025.0,1030.0,1019.0,1049.0,1028.0,1039.0,1026.0,1029.0,1021.0,1059.0,1032.0,1044.0,1027.0,1030.0,1029.0,1062.0,1031.0,1044.0,1026.0,1027.0,1030.0,1078.0,1042.0,1058.0,1030.0,1029.0,1092.0,1074.0,1040.0,1056.0,1029.0,1028.0,2313,2259,1901,	00:30:15.181,-0.0087890625,0.060546875,1.02197265625,-0.06103515625,0.3662109375,0.18310546875,3.40576171875,0.4559326171875,-61.4410400390625,100.0,-579.0,-4017.0,-0.859222412109375,-0.027557373046875,0.01177978515625,0.5107421875,3.404196348729723,0.4535585970338024,-65.64983217986368,-0.8398898676166799,-0.027104627073671148,0.012776414568892839,0.54192906611179,1,	00:30:15.182,-0.00048828125,0.05078125,1.02197265625,0.0,0.3662109375,0.42724609375,2.83447265625,0.0054931640625,69.23583984375,2.0,638.0,-1876.0,0.82269287109375,0.02032470703125,0.01409912109375,0.56793212890625,2.8345562719308304,0.005770297248411277,62.733118987674544,0.8535941705668418,0.02109273945510986,0.012917127681169142,0.5203510700758216,1
1782117324.319992,0.071,1024.0,1026.0,1019.0,1025.0,1016.0,1028.0,1020.0,1021.0,1008.0,1025.0,1018.0,1028.0,1020.0,1021.0,1008.0,1020.0,1025.0,1018.0,1027.0,1020.0,1022.0,1008.0,1020.0,1021.0,1026.0,1018.0,1027.0,1020.0,1021.0,1008.0,1020.0,1020.0,1021.0,1025.0,1018.0,1027.0,1020.0,1022.0,1008.0,1020.0,1020.0,1021.0,1025.0,1018.0,1027.0,1020.0,1022.0,1008.0,1020.0,1020.0,1021.0,1019.0,1025.0,1018.0,1028.0,1020.0,1022.0,1008.0,1020.0,1020.0,1021.0,1018.0,1025.0,1017.0,1028.0,1020.0,1023.0,1009.0,1020.0,1021.0,1022.0,1020.0,1026.0,1018.0,1027.0,1020.0,1022.0,1009.0,1020.0,1021.0,1022.0,1020.0,1025.0,1018.0,1028.0,1021.0,1022.0,1009.0,1020.0,1021.0,1021.0,1020.0,1026.0,1018.0,1028.0,1020.0,1022.0,1009.0,1021.0,1021.0,1021.0,1019.0,1025.0,1017.0,1028.0,1020.0,1022.0,1009.0,1020.0,1021.0,1021.0,1019.0,1026.0,1018.0,1029.0,1021.0,1024.0,1010.0,1021.0,1024.0,1025.0,1027.0,1019.0,1029.0,1021.0,1025.0,1010.0,1021.0,1023.0,1026.0,1018.0,1029.0,1021.0,1023.0,1010.0,1020.0,1027.0,1019.0,1029.0,1021.0,1025.0,1010.0,1021.0,1027.0,1019.0,1029.0,1021.0,1025.0,1010.0,1021.0,1027.0,1019.0,1029.0,1021.0,1025.0,1011.0,1026.0,1019.0,1028.0,1021.0,1022.0,1010.0,1028.0,1020.0,1030.0,1022.0,1027.0,1013.0,1030.0,1021.0,1031.0,1024.0,1030.0,1014.0,1028.0,1020.0,1030.0,1022.0,1025.0,1012.0,1030.0,1022.0,1032.0,1023.0,1027.0,1013.0,1032.0,1023.0,1033.0,1025.0,1029.0,1015.0,1035.0,1024.0,1034.0,1024.0,1029.0,1016.0,1039.0,1026.0,1037.0,1025.0,1029.0,1019.0,1050.0,1028.0,1039.0,1026.0,1029.0,1021.0,1059.0,1032.0,1044.0,1027.0,1030.0,1029.0,1062.0,1030.0,1043.0,1026.0,1026.0,1029.0,1078.0,1043.0,1057.0,1029.0,1029.0,1092.0,1074.0,1040.0,1056.0,1029.0,1029.0,2313,2258,1901,	00:30:15.191,-0.00927734375,0.060546875,1.02099609375,-0.06103515625,0.3662109375,0.1220703125,3.3892822265625,0.54931640625,-61.4410400390625,98.0,-577.0,-4015.0,-0.859222412109375,-0.027862548828125,0.010986328125,0.5107421875,3.389317817040856,0.5476961257675668,-65.64852138929007,-0.8398833951409648,-0.027440741238604367,0.01201565167736446,0.5419395837190067,1,	00:30:15.192,-0.00146484375,0.05029296875,1.0205078125,0.06103515625,0.3662109375,0.48828125,2.8179931640625,0.098876953125,69.2413330078125,2.0,639.0,-1875.0,0.82269287109375,0.019744873046875,0.014678955078125,0.567962646484375,2.8195916237497016,0.09952421740820973,62.73816314681732,0.8535841691762985,0.02055493192531559,0.013548450230655651,0.5203729435717246,1
1782117324.328990,0.080,1024.0,1027.0,1019.0,1025.0,1018.0,1027.0,1020.0,1021.0,1009.0,1025.0,1017.0,1027.0,1020.0,1022.0,1008.0,1020.0,1025.0,1018.0,1027.0,1019.0,1022.0,1009.0,1020.0,1021.0,1026.0,1018.0,1026.0,1020.0,1022.0,1008.0,1020.0,1020.0,1021.0,1025.0,1018.0,1027.0,1021.0,1021.0,1008.0,1020.0,1021.0,1021.0,1025.0,1018.0,1027.0,1020.0,1022.0,1008.0,1020.0,1021.0,1021.0,1019.0,1025.0,1018.0,1027.0,1020.0,1022.0,1008.0,1020.0,1020.0,1021.0,1019.0,1025.0,1018.0,1027.0,1020.0,1022.0,1009.0,1021.0,1021.0,1021.0,1020.0,1025.0,1018.0,1028.0,1021.0,1022.0,1009.0,1020.0,1021.0,1022.0,1020.0,1026.0,1018.0,1027.0,1020.0,1022.0,1009.0,1020.0,1021.0,1022.0,1020.0,1026.0,1018.0,1028.0,1020.0,1022.0,1009.0,1021.0,1020.0,1022.0,1019.0,1026.0,1017.0,1028.0,1021.0,1023.0,1009.0,1021.0,1021.0,1022.0,1020.0,1026.0,1018.0,1028.0,1021.0,1024.0,1010.0,1021.0,1023.0,1025.0,1027.0,1018.0,1028.0,1021.0,1024.0,1009.0,1021.0,1023.0,1027.0,1018.0,1028.0,1021.0,1023.0,1010.0,1021.0,1027.0,1019.0,1028.0,1022.0,1025.0,1011.0,1021.0,1027.0,1019.0,1028.0,1022.0,1026.0,1010.0,1021.0,1027.0,1018.0,1029.0,1022.0,1026.0,1011.0,1027.0,1018.0,1028.0,1021.0,1023.0,1011.0,1028.0,1019.0,1029.0,1022.0,1027.0,1012.0,1030.0,1021.0,1030.0,1023.0,1030.0,1014.0,1029.0,1019.0,1030.0,1022.0,1026.0,1012.0,1031.0,1021.0,1031.0,1023.0,1027.0,1014.0,1033.0,1023.0,1032.0,1024.0,1029.0,1015.0,1035.0,1024.0,1034.0,1025.0,1029.0,1016.0,1039.0,1025.0,1036.0,1024.0,1030.0,1019.0,1050.0,1028.0,1038.0,1025.0,1029.0,1022.0,1058.0,1031.0,1043.0,1027.0,1030.0,1028.0,1063.0,1031.0,1043.0,1026.0,1027.0,1029.0,1079.0,1042.0,1057.0,1029.0,1028.0,1091.0,1074.0,1041.0,1055.0,1029.0,1029.0,2313,2258,1901,	00:30:15.202,-0.0087890625,0.0595703125,1.02001953125,-0.06103515625,0.42724609375,0.18310546875,3.328857421875,0.4833984375,-61.4410400390625,99.0,-575.0,-4015.0,-0.8592529296875,-0.027130126953125,0.01123046875,0.510711669921875,3.329157231343315,0.4822918260038909,-65.6469758695676,-0.8399161366207571,-0.02669077095672262,0.012210235822377334,0.541921946714616,1,	00:30:15.203,-0.00048828125,0.04931640625,1.021484375,0.06103515625,0.42724609375,0.48828125,2.7630615234375,0.032958984375,69.246826171875,3.0,640.0,-1875.0,0.822662353515625,0.019683837890625,0.013916015625,0.5679931640625,2.764319524890403,0.03094090215706511,62.74318634714612,0.8535639477490847,0.02045411726653336,0.012787481295492663,0.5204293386349027,1
1782117324.339734,0.091,1025.0,1025.0,1019.0,1025.0,1017.0,1026.0,1020.0,1022.0,1008.0,1025.0,1018.0,1026.0,1019.0,1022.0,1008.0,1020.0,1025.0,1018.0,1027.0,1021.0,1022.0,1008.0,1020.0,1020.0,1025.0,1018.0,1026.0,1020.0,1022.0,1008.0,1020.0,1020.0,1021.0,1025.0,1018.0,1026.0,1020.0,1021.0,1009.0,1020.0,1020.0,1021.0,1025.0,1018.0,1026.0,1020.0,1022.0,1008.0,1020.0,1020.0,1021.0,1020.0,1025.0,1018.0,1026.0,1020.0,1021.0,1009.0,1020.0,1020.0,1021.0,1018.0,1026.0,1018.0,1026.0,1021.0,1022.0,1009.0,1020.0,1021.0,1022.0,1020.0,1025.0,1018.0,1026.0,1020.0,1022.0,1009.0,1020.0,1021.0,1022.0,1020.0,1026.0,1018.0,1026.0,1020.0,1022.0,1009.0,1020.0,1020.0,1021.0,1020.0,1026.0,1019.0,1026.0,1021.0,1023.0,1009.0,1020.0,1020.0,1022.0,1019.0,1026.0,1019.0,1027.0,1020.0,1022.0,1010.0,1021.0,1021.0,1022.0,1019.0,1027.0,1019.0,1027.0,1021.0,1024.0,1010.0,1021.0,1023.0,1024.0,1026.0,1019.0,1027.0,1022.0,1024.0,1010.0,1021.0,1023.0,1026.0,1020.0,1027.0,1022.0,1023.0,1010.0,1021.0,1027.0,1020.0,1027.0,1021.0,1025.0,1010.0,1021.0,1027.0,1020.0,1028.0,1021.0,1025.0,1010.0,1021.0,1027.0,1020.0,1027.0,1022.0,1025.0,1011.0,1027.0,1020.0,1027.0,1021.0,1022.0,1010.0,1028.0,1021.0,1028.0,1022.0,1027.0,1012.0,1030.0,1022.0,1029.0,1024.0,1029.0,1014.0,1028.0,1021.0,1028.0,1023.0,1025.0,1013.0,1031.0,1022.0,1029.0,1023.0,1026.0,1014.0,1032.0,1024.0,1030.0,1024.0,1028.0,1015.0,1035.0,1025.0,1033.0,1024.0,1029.0,1017.0,1039.0,1027.0,1035.0,1025.0,1029.0,1019.0,1049.0,1029.0,1037.0,1025.0,1029.0,1021.0,1059.0,1032.0,1042.0,1027.0,1030.0,1028.0,1063.0,1032.0,1042.0,1025.0,1027.0,1030.0,1079.0,1042.0,1056.0,1029.0,1029.0,1092.0,1075.0,1041.0,1055.0,1028.0,1028.0,2313,2258,1901,	00:30:15.212,-0.0087890625,0.06005859375,1.02001953125,-0.06103515625,0.3662109375,0.1220703125,3.416748046875,0.5108642578125,-61.435546875,98.0,-581.0,-4013.0,-0.859222412109375,-0.02789306640625,0.01141357421875,0.510711669921875,3.4171312001047136,0.5089043654171624,-65.6447785906893,-0.8399011921819068,-0.02746162293258658,0.012430660942753075,0.5419015826751626,1,	00:30:15.213,-0.0009765625,0.0498046875,1.02099609375,0.06103515625,0.3662109375,0.42724609375,2.83447265625,0.0933837890625,69.2523193359375,2.0,638.0,-1874.0,0.8226318359375,0.0198974609375,0.014739990234375,0.568023681640625,2.835133657203967,0.09324484859409525,62.7477067321248,0.8535373657543048,0.020698089980314575,0.013573978853049548,0.5204433700514072,1
1782117324.349916,0.101,1025.0,1024.0,1019.0,1025.0,1018.0,1026.0,1020.0,1021.0,1008.0,1025.0,1018.0,1025.0,1020.0,1021.0,1009.0,1020.0,1025.0,1019.0,1025.0,1020.0,1022.0,1009.0,1020.0,1021.0,1025.0,1019.0,1026.0,1020.0,1021.0,1008.0,1020.0,1020.0,1020.0,1025.0,1019.0,1026.0,1020.0,1022.0,1009.0,1020.0,1020.0,1021.0,1025.0,1020.0,1025.0,1020.0,1022.0,1009.0,1020.0,1020.0,1021.0,1019.0,1025.0,1019.0,1025.0,1020.0,1021.0,1008.0,1020.0,1020.0,1020.0,1018.0,1026.0,1019.0,1026.0,1020.0,1022.0,1008.0,1021.0,1021.0,1022.0,1020.0,1026.0,1019.0,1026.0,1020.0,1022.0,1009.0,1020.0,1021.0,1021.0,1019.0,1026.0,1019.0,1025.0,1020.0,1022.0,1009.0,1020.0,1021.0,1021.0,1020.0,1025.0,1019.0,1026.0,1020.0,1022.0,1009.0,1020.0,1021.0,1021.0,1019.0,1026.0,1019.0,1026.0,1020.0,1023.0,1009.0,1021.0,1021.0,1021.0,1020.0,1027.0,1020.0,1026.0,1021.0,1024.0,1010.0,1021.0,1024.0,1025.0,1027.0,1020.0,1027.0,1021.0,1024.0,1010.0,1021.0,1023.0,1027.0,1019.0,1027.0,1021.0,1023.0,1010.0,1021.0,1028.0,1020.0,1027.0,1021.0,1025.0,1010.0,1021.0,1027.0,1020.0,1027.0,1021.0,1025.0,1011.0,1022.0,1027.0,1020.0,1027.0,1022.0,1026.0,1011.0,1027.0,1019.0,1026.0,1021.0,1023.0,1010.0,1029.0,1020.0,1028.0,1023.0,1027.0,1012.0,1030.0,1022.0,1030.0,1023.0,1029.0,1014.0,1029.0,1020.0,1028.0,1022.0,1026.0,1012.0,1031.0,1022.0,1029.0,1024.0,1027.0,1013.0,1033.0,1023.0,1030.0,1024.0,1029.0,1015.0,1036.0,1025.0,1032.0,1024.0,1029.0,1016.0,1040.0,1027.0,1034.0,1024.0,1030.0,1018.0,1050.0,1028.0,1037.0,1025.0,1029.0,1021.0,1058.0,1032.0,1042.0,1027.0,1030.0,1028.0,1063.0,1031.0,1041.0,1026.0,1026.0,1029.0,1079.0,1041.0,1056.0,1029.0,1028.0,1092.0,1075.0,1040.0,1055.0,1029.0,1028.0,2313,2258,1901,	00:30:15.222,-0.009765625,0.05908203125,1.02001953125,-0.06103515625,0.42724609375,0.18310546875,3.328857421875,0.5438232421875,-61.435546875,100.0,-577.0,-4019.0,-0.8592529296875,-0.02740478515625,0.0107421875,0.510711669921875,3.3309295502694476,0.5455115044221601,-65.64348388019286,-0.8399214682316766,-0.027002978080731994,0.011754341587830059,0.5419082965153357,1,	00:30:15.223,0.0,0.0498046875,1.02099609375,0.0,0.3662109375,0.48828125,2.7960205078125,0.010986328125,69.2578125,1.0,636.0,-1876.0,0.822601318359375,0.02001953125,0.01397705078125,0.568084716796875,2.7971771352856023,0.013241056463530274,62.75272951462142,0.8535127663222493,0.020778184698200503,0.012806597510238237,0.5204999671717568,1
1782117324.359958,0.111,1025.0,1024.0,1019.0,1025.0,1018.0,1025.0,1019.0,1020.0,1008.0,1026.0,1019.0,1025.0,1020.0,1022.0,1008.0,1020.0,1026.0,1019.0,1026.0,1020.0,1022.0,1009.0,1019.0,1021.0,1026.0,1019.0,1025.0,1020.0,1021.0,1008.0,1020.0,1020.0,1020.0,1025.0,1018.0,1025.0,1020.0,1022.0,1008.0,1020.0,1020.0,1021.0,1026.0,1019.0,1025.0,1020.0,1022.0,1008.0,1019.0,1020.0,1021.0,1019.0,1025.0,1019.0,1026.0,1020.0,1021.0,1008.0,1020.0,1020.0,1021.0,1018.0,1026.0,1019.0,1026.0,1021.0,1022.0,1009.0,1020.0,1021.0,1022.0,1020.0,1026.0,1019.0,1026.0,1020.0,1022.0,1009.0,1020.0,1021.0,1021.0,1019.0,1025.0,1019.0,1026.0,1020.0,1022.0,1009.0,1020.0,1021.0,1021.0,1020.0,1026.0,1019.0,1026.0,1020.0,1022.0,1009.0,1020.0,1021.0,1022.0,1019.0,1026.0,1019.0,1027.0,1021.0,1023.0,1009.0,1020.0,1021.0,1022.0,1020.0,1027.0,1019.0,1026.0,1021.0,1025.0,1010.0,1021.0,1023.0,1025.0,1027.0,1019.0,1027.0,1021.0,1025.0,1009.0,1021.0,1023.0,1027.0,1019.0,1027.0,1021.0,1024.0,1010.0,1020.0,1027.0,1020.0,1028.0,1021.0,1025.0,1010.0,1021.0,1028.0,1020.0,1027.0,1021.0,1025.0,1011.0,1021.0,1027.0,1020.0,1027.0,1021.0,1026.0,1010.0,1026.0,1020.0,1027.0,1021.0,1023.0,1010.0,1028.0,1021.0,1028.0,1022.0,1026.0,1012.0,1030.0,1021.0,1029.0,1024.0,1029.0,1014.0,1029.0,1021.0,1028.0,1023.0,1026.0,1013.0,1031.0,1022.0,1029.0,1023.0,1027.0,1013.0,1033.0,1024.0,1030.0,1024.0,1029.0,1015.0,1035.0,1025.0,1032.0,1025.0,1029.0,1016.0,1040.0,1027.0,1035.0,1025.0,1030.0,1018.0,1049.0,1029.0,1037.0,1025.0,1029.0,1022.0,1059.0,1032.0,1042.0,1027.0,1030.0,1028.0,1062.0,1032.0,1041.0,1026.0,1027.0,1029.0,1079.0,1042.0,1056.0,1029.0,1029.0,1092.0,1074.0,1041.0,1055.0,1029.0,1029.0,2313,2258,1901,	00:30:15.232,-0.00830078125,0.06005859375,1.02099609375,-0.1220703125,0.42724609375,0.18310546875,3.3673095703125,0.4669189453125,-61.435546875,98.0,-580.0,-4013.0,-0.8592529296875,-0.02734375,0.011505126953125,0.51068115234375,3.366737886069952,0.465811044524542,-65.64108015216989,-0.8399380083252626,-0.026888956055342306,0.012507392978215612,0.5418714712307094,1,	00:30:15.233,-0.00048828125,0.05126953125,1.02197265625,0.0,0.3662109375,0.48828125,2.889404296875,0.032958984375,69.2633056640625,3.0,639.0,-1875.0,0.82257080078125,0.02056884765625,0.014556884765625,0.568084716796875,2.8871583346319913,0.03362045279782928,62.757821825673524,0.8534753585242263,0.02135522442201481,0.013368045096974934,0.520523834374675,1
1782117324.370908,0.122,1025.0,1025.0,1019.0,1025.0,1018.0,1025.0,1020.0,1021.0,1008.0,1025.0,1018.0,1025.0,1020.0,1022.0,1009.0,1020.0,1025.0,1019.0,1026.0,1020.0,1022.0,1008.0,1020.0,1021.0,1025.0,1018.0,1026.0,1021.0,1022.0,1008.0,1020.0,1020.0,1021.0,1025.0,1018.0,1026.0,1020.0,1022.0,1008.0,1020.0,1020.0,1021.0,1025.0,1018.0,1026.0,1020.0,1022.0,1009.0,1021.0,1020.0,1021.0,1019.0,1025.0,1018.0,1026.0,1020.0,1022.0,1008.0,1020.0,1020.0,1021.0,1019.0,1026.0,1019.0,1026.0,1020.0,1023.0,1009.0,1020.0,1021.0,1022.0,1020.0,1025.0,1018.0,1026.0,1021.0,1022.0,1009.0,1020.0,1021.0,1021.0,1020.0,1025.0,1018.0,1027.0,1021.0,1022.0,1009.0,1020.0,1021.0,1021.0,1019.0,1025.0,1018.0,1026.0,1020.0,1022.0,1008.0,1020.0,1021.0,1021.0,1019.0,1026.0,1018.0,1026.0,1020.0,1023.0,1009.0,1020.0,1021.0,1022.0,1019.0,1027.0,1020.0,1027.0,1021.0,1024.0,1010.0,1021.0,1023.0,1025.0,1027.0,1019.0,1028.0,1021.0,1024.0,1010.0,1021.0,1023.0,1027.0,1019.0,1027.0,1021.0,1024.0,1010.0,1021.0,1027.0,1019.0,1028.0,1022.0,1025.0,1010.0,1021.0,1027.0,1020.0,1028.0,1021.0,1024.0,1010.0,1021.0,1027.0,1020.0,1028.0,1022.0,1026.0,1011.0,1027.0,1019.0,1027.0,1021.0,1023.0,1010.0,1028.0,1021.0,1028.0,1022.0,1027.0,1012.0,1029.0,1022.0,1030.0,1024.0,1030.0,1014.0,1028.0,1021.0,1029.0,1022.0,1026.0,1012.0,1030.0,1022.0,1030.0,1024.0,1027.0,1013.0,1032.0,1023.0,1031.0,1024.0,1029.0,1015.0,1035.0,1025.0,1033.0,1024.0,1029.0,1017.0,1039.0,1026.0,1035.0,1024.0,1030.0,1018.0,1049.0,1028.0,1038.0,1025.0,1029.0,1022.0,1058.0,1031.0,1043.0,1027.0,1030.0,1027.0,1062.0,1031.0,1042.0,1026.0,1027.0,1029.0,1077.0,1042.0,1058.0,1029.0,1029.0,1093.0,1073.0,1041.0,1056.0,1029.0,1029.0,2313,2258,1901,	00:30:15.242,-0.00927734375,0.0595703125,1.02099609375,-0.06103515625,0.42724609375,0.18310546875,3.3233642578125,0.54931640625,-61.4300537109375,99.0,-578.0,-4016.0,-0.8592529296875,-0.02740478515625,0.01068115234375,0.51068115234375,3.3243959817128923,0.5515667140867437,-65.6393723427682,-0.8399414063613724,-0.026984131056672734,0.011678085004271357,0.5418799801445237,1,	00:30:15.244,-0.0009765625,0.05126953125,1.02197265625,0.0,0.3662109375,0.48828125,2.83447265625,0.10986328125,69.268798828125,2.0,641.0,-1878.0,0.82257080078125,0.019805908203125,0.014862060546875,0.568115234375,2.8335461204674566,0.111346991204199,62.76281519018316,0.8534709400380759,0.020602237827278186,0.01370431585459135,0.520552681324368,1
1782117324.381502,0.132,1024.0,1025.0,1019.0,1025.0,1018.0,1026.0,1020.0,1021.0,1009.0,1025.0,1018.0,1026.0,1020.0,1021.0,1008.0,1020.0,1025.0,1019.0,1026.0,1020.0,1022.0,1008.0,1021.0,1021.0,1025.0,1018.0,1026.0,1020.0,1021.0,1008.0,1020.0,1020.0,1020.0,1025.0,1018.0,1027.0,1020.0,1022.0,1008.0,1020.0,1021.0,1021.0,1025.0,1018.0,1027.0,1020.0,1022.0,1008.0,1020.0,1020.0,1020.0,1019.0,1026.0,1018.0,1027.0,1020.0,1022.0,1008.0,1020.0,1019.0,1020.0,1019.0,1025.0,1018.0,1027.0,1020.0,1022.0,1008.0,1020.0,1021.0,1022.0,1020.0,1025.0,1019.0,1027.0,1021.0,1022.0,1009.0,1021.0,1020.0,1021.0,1019.0,1025.0,1019.0,1027.0,1020.0,1022.0,1008.0,1020.0,1021.0,1021.0,1020.0,1025.0,1018.0,1027.0,1021.0,1022.0,1008.0,1020.0,1020.0,1021.0,1019.0,1025.0,1019.0,1027.0,1021.0,1022.0,1009.0,1021.0,1021.0,1022.0,1020.0,1026.0,1019.0,1027.0,1021.0,1025.0,1010.0,1021.0,1023.0,1025.0,1026.0,1019.0,1027.0,1021.0,1025.0,1010.0,1021.0,1023.0,1026.0,1019.0,1028.0,1021.0,1023.0,1010.0,1021.0,1027.0,1020.0,1028.0,1021.0,1025.0,1010.0,1021.0,1027.0,1019.0,1028.0,1021.0,1025.0,1011.0,1021.0,1027.0,1020.0,1028.0,1022.0,1025.0,1011.0,1026.0,1019.0,1028.0,1021.0,1023.0,1009.0,1028.0,1020.0,1028.0,1022.0,1027.0,1012.0,1030.0,1021.0,1030.0,1024.0,1030.0,1014.0,1029.0,1021.0,1029.0,1023.0,1026.0,1012.0,1030.0,1022.0,1030.0,1023.0,1027.0,1013.0,1032.0,1023.0,1031.0,1024.0,1029.0,1015.0,1035.0,1025.0,1033.0,1024.0,1029.0,1016.0,1039.0,1026.0,1035.0,1024.0,1030.0,1019.0,1050.0,1028.0,1037.0,1025.0,1029.0,1021.0,1058.0,1031.0,1043.0,1027.0,1030.0,1027.0,1062.0,1032.0,1042.0,1025.0,1027.0,1029.0,1078.0,1042.0,1057.0,1029.0,1029.0,1092.0,1074.0,1040.0,1055.0,1028.0,1029.0,2313,2258,1901,	00:30:15.253,-0.00830078125,0.06005859375,1.0205078125,-0.06103515625,0.42724609375,0.18310546875,3.3673095703125,0.472412109375,-61.4300537109375,98.0,-578.0,-4014.0,-0.859283447265625,-0.02734375,0.011444091796875,0.510650634765625,3.365175099129602,0.47393422629357895,-65.63692592803355,-0.8399566463109608,-0.026916350031879272,0.012439476351706075,0.5418427833302758,1,	00:30:15.254,-0.0009765625,0.05078125,1.02197265625,0.0,0.30517578125,0.48828125,2.8509521484375,0.02197265625,69.268798828125,2.0,638.0,-1876.0,0.822540283203125,0.020355224609375,0.014312744140625,0.56817626953125,2.8511888383768595,0.024195426806349583,62.76786372333169,0.8534353535840171,0.021128986085582776,0.013136309895138563,0.5206045529595933,1
1782117324.391320,0.142,1025.0,1025.0,1019.0,1025.0,1019.0,1025.0,1020.0,1021.0,1008.0,1026.0,1019.0,1026.0,1020.0,1021.0,1008.0,1020.0,1025.0,1018.0,1026.0,1020.0,1022.0,1008.0,1020.0,1021.0,1025.0,1019.0,1026.0,1021.0,1021.0,1008.0,1020.0,1019.0,1021.0,1025.0,1019.0,1026.0,1020.0,1022.0,1008.0,1020.0,1020.0,1020.0,1025.0,1019.0,1026.0,1020.0,1022.0,1008.0,1020.0,1020.0,1021.0,1020.0,1025.0,1019.0,1026.0,1020.0,1022.0,1008.0,1020.0,1020.0,1020.0,1018.0,1026.0,1018.0,1026.0,1021.0,1023.0,1009.0,1021.0,1021.0,1022.0,1020.0,1026.0,1019.0,1026.0,1021.0,1021.0,1009.0,1020.0,1021.0,1021.0,1019.0,1026.0,1019.0,1026.0,1020.0,1022.0,1009.0,1020.0,1020.0,1021.0,1019.0,1025.0,1019.0,1027.0,1020.0,1022.0,1009.0,1021.0,1020.0,1021.0,1019.0,1026.0,1019.0,1027.0,1021.0,1023.0,1009.0,1020.0,1021.0,1022.0,1020.0,1027.0,1020.0,1028.0,1021.0,1025.0,1010.0,1021.0,1023.0,1024.0,1026.0,1019.0,1027.0,1021.0,1024.0,1010.0,1021.0,1023.0,1027.0,1019.0,1027.0,1021.0,1024.0,1009.0,1021.0,1027.0,1020.0,1027.0,1021.0,1025.0,1010.0,1021.0,1027.0,1020.0,1028.0,1021.0,1025.0,1010.0,1021.0,1027.0,1020.0,1028.0,1022.0,1025.0,1011.0,1027.0,1019.0,1027.0,1021.0,1023.0,1010.0,1028.0,1020.0,1028.0,1022.0,1026.0,1012.0,1029.0,1022.0,1030.0,1024.0,1029.0,1013.0,1028.0,1021.0,1029.0,1023.0,1026.0,1012.0,1031.0,1022.0,1030.0,1023.0,1027.0,1013.0,1032.0,1023.0,1032.0,1024.0,1028.0,1015.0,1035.0,1024.0,1033.0,1024.0,1029.0,1016.0,1038.0,1026.0,1036.0,1024.0,1030.0,1019.0,1050.0,1028.0,1037.0,1025.0,1029.0,1021.0,1058.0,1032.0,1043.0,1027.0,1030.0,1027.0,1062.0,1031.0,1043.0,1026.0,1026.0,1029.0,1078.0,1042.0,1058.0,1029.0,1029.0,1092.0,1074.0,1040.0,1056.0,1028.0,1028.0,2313,2258,1901,	00:30:15.263,-0.00830078125,0.06005859375,1.02001953125,-0.1220703125,0.3662109375,0.18310546875,3.40576171875,0.3955078125,-61.4300537109375,99.0,-576.0,-4014.0,-0.859283447265625,-0.027313232421875,0.01220703125,0.5106201171875,3.4069200029918854,0.3965146037252747,-65.63455597663399,-0.8399710311542353,-0.026856671784155284,0.013203876251530963,0.5418053558745088,1,	00:30:15.264,-0.00146484375,0.05078125,1.02197265625,0.0,0.30517578125,0.48828125,2.8399658203125,0.1153564453125,69.2742919921875,3.0,639.0,-1877.0,0.822509765625,0.019805908203125,0.014923095703125,0.568206787109375,2.840903706316494,0.11809387131193197,62.77287954140455,0.853424602962468,0.02062517426715673,0.013789799272088664,0.5206254802454819,1
1782117324.401380,0.152,1025.0,1025.0,1019.0,1025.0,1018.0,1026.0,1020.0,1021.0,1008.0,1026.0,1019.0,1026.0,1021.0,1022.0,1008.0,1019.0,1025.0,1018.0,1026.0,1021.0,1022.0,1008.0,1021.0,1021.0,1025.0,1019.0,1027.0,1021.0,1021.0,1008.0,1020.0,1020.0,1020.0,1025.0,1019.0,1026.0,1020.0,1022.0,1008.0,1020.0,1020.0,1021.0,1025.0,1018.0,1026.0,1020.0,1022.0,1009.0,1020.0,1020.0,1021.0,1019.0,1025.0,1018.0,1027.0,1021.0,1022.0,1008.0,1020.0,1020.0,1021.0,1018.0,1026.0,1019.0,1026.0,1021.0,1022.0,1008.0,1020.0,1021.0,1022.0,1020.0,1025.0,1019.0,1027.0,1021.0,1022.0,1009.0,1020.0,1020.0,1021.0,1020.0,1025.0,1019.0,1026.0,1020.0,1022.0,1009.0,1021.0,1021.0,1021.0,1019.0,1025.0,1018.0,1026.0,1021.0,1022.0,1008.0,1020.0,1021.0,1021.0,1019.0,1025.0,1019.0,1026.0,1020.0,1022.0,1009.0,1020.0,1020.0,1022.0,1020.0,1026.0,1019.0,1027.0,1021.0,1024.0,1009.0,1021.0,1022.0,1025.0,1027.0,1019.0,1027.0,1021.0,1024.0,1010.0,1021.0,1022.0,1027.0,1020.0,1027.0,1021.0,1024.0,1010.0,1021.0,1027.0,1019.0,1028.0,1022.0,1025.0,1011.0,1021.0,1027.0,1019.0,1028.0,1021.0,1024.0,1010.0,1021.0,1027.0,1019.0,1028.0,1022.0,1026.0,1011.0,1026.0,1019.0,1027.0,1021.0,1023.0,1010.0,1028.0,1021.0,1028.0,1023.0,1027.0,1012.0,1030.0,1021.0,1029.0,1024.0,1029.0,1014.0,1029.0,1021.0,1029.0,1023.0,1026.0,1013.0,1031.0,1022.0,1030.0,1023.0,1027.0,1014.0,1032.0,1023.0,1031.0,1024.0,1029.0,1015.0,1035.0,1024.0,1033.0,1024.0,1030.0,1017.0,1039.0,1026.0,1035.0,1025.0,1030.0,1019.0,1049.0,1028.0,1037.0,1026.0,1029.0,1021.0,1058.0,1030.0,1042.0,1027.0,1030.0,1028.0,1062.0,1031.0,1042.0,1027.0,1026.0,1030.0,1078.0,1041.0,1057.0,1029.0,1028.0,1092.0,1074.0,1040.0,1055.0,1029.0,1028.0,2313,2258,1901,	00:30:15.273,-0.0087890625,0.0595703125,1.021484375,-0.06103515625,0.42724609375,0.18310546875,3.350830078125,0.472412109375,-61.424560546875,98.0,-576.0,-4016.0,-0.85931396484375,-0.027252197265625,0.011383056640625,0.5106201171875,3.3525206337249474,0.47484977203917345,-65.6328836896255,-0.8399785722745576,-0.02682835653618796,0.012371981618313219,0.541814702159326,1,	00:30:15.275,-0.0009765625,0.05126953125,1.02099609375,0.06103515625,0.30517578125,0.48828125,2.8839111328125,0.0384521484375,69.27978515625,2.0,638.0,-1872.0,0.822479248046875,0.0205078125,0.01458740234375,0.5682373046875,2.8846593922616215,0.04003452161745601,62.77796663128721,0.8533850229302846,0.021305119364426018,0.013408210819309494,0.520672943804237,1
1782117324.411451,0.162,1025.0,1025.0,1019.0,1025.0,1017.0,1026.0,1020.0,1022.0,1008.0,1025.0,1018.0,1026.0,1020.0,1022.0,1008.0,1020.0,1026.0,1018.0,1026.0,1020.0,1022.0,1008.0,1021.0,1021.0,1026.0,1018.0,1026.0,1020.0,1021.0,1008.0,1020.0,1020.0,1020.0,1025.0,1018.0,1026.0,1020.0,1022.0,1008.0,1020.0,1021.0,1020.0,1025.0,1018.0,1026.0,1020.0,1021.0,1008.0,1020.0,1020.0,1021.0,1019.0,1025.0,1018.0,1027.0,1021.0,1022.0,1008.0,1020.0,1020.0,1020.0,1018.0,1026.0,1018.0,1027.0,1021.0,1022.0,1008.0,1020.0,1021.0,1021.0,1020.0,1025.0,1018.0,1026.0,1021.0,1022.0,1009.0,1020.0,1021.0,1022.0,1019.0,1025.0,1019.0,1026.0,1021.0,1022.0,1009.0,1020.0,1020.0,1021.0,1020.0,1026.0,1018.0,1026.0,1020.0,1022.0,1009.0,1020.0,1020.0,1022.0,1019.0,1026.0,1019.0,1027.0,1020.0,1023.0,1010.0,1020.0,1020.0,1022.0,1020.0,1027.0,1019.0,1028.0,1021.0,1025.0,1010.0,1021.0,1023.0,1024.0,1026.0,1018.0,1028.0,1021.0,1025.0,1010.0,1021.0,1022.0,1027.0,1018.0,1028.0,1021.0,1024.0,1010.0,1021.0,1027.0,1019.0,1028.0,1021.0,1025.0,1010.0,1021.0,1027.0,1019.0,1028.0,1021.0,1024.0,1010.0,1021.0,1027.0,1020.0,1028.0,1021.0,1025.0,1011.0,1027.0,1019.0,1027.0,1020.0,1023.0,1010.0,1028.0,1020.0,1028.0,1022.0,1027.0,1013.0,1030.0,1021.0,1030.0,1024.0,1029.0,1014.0,1029.0,1020.0,1028.0,1023.0,1026.0,1013.0,1031.0,1021.0,1030.0,1023.0,1026.0,1013.0,1032.0,1023.0,1032.0,1024.0,1028.0,1015.0,1035.0,1025.0,1033.0,1024.0,1028.0,1018.0,1039.0,1026.0,1035.0,1025.0,1029.0,1019.0,1050.0,1028.0,1037.0,1025.0,1028.0,1022.0,1058.0,1031.0,1043.0,1028.0,1029.0,1028.0,1062.0,1030.0,1042.0,1026.0,1026.0,1030.0,1078.0,1041.0,1057.0,1030.0,1028.0,1092.0,1074.0,1040.0,1055.0,1029.0,1028.0,2313,2258,1901,	00:30:15.284,-0.009765625,0.060546875,1.02001953125,-0.06103515625,0.3662109375,0.1220703125,3.4002685546875,0.5548095703125,-61.424560546875,99.0,-576.0,-4020.0,-0.859283447265625,-0.027984619140625,0.010986328125,0.5106201171875,3.3997301527443957,0.5565764129854206,-65.63102103045804,-0.8399620935654881,-0.02756086826040108,0.011995587279948717,0.5418119468963599,1,	00:30:15.285,-0.0009765625,0.05078125,1.02099609375,0.06103515625,0.30517578125,0.48828125,2.801513671875,0.076904296875,69.2852783203125,3.0,638.0,-1873.0,0.822479248046875,0.01971435546875,0.014434814453125,0.568267822265625,2.800079076320066,0.07642779765571926,62.7829106362939,0.853381954546117,0.020509284442525953,0.013295811126367576,0.5207128098224553,1
1782117324.424508,0.175,1025.0,1025.0,1019.0,1025.0,1019.0,1025.0,1020.0,1021.0,1008.0,1025.0,1018.0,1026.0,1020.0,1021.0,1008.0,1020.0,1025.0,1019.0,1026.0,1020.0,1022.0,1009.0,1020.0,1021.0,1026.0,1019.0,1025.0,1020.0,1021.0,1008.0,1020.0,1020.0,1021.0,1025.0,1019.0,1025.0,1020.0,1021.0,1008.0,1021.0,1020.0,1021.0,1026.0,1019.0,1025.0,1020.0,1021.0,1008.0,1020.0,1020.0,1021.0,1019.0,1025.0,1019.0,1026.0,1020.0,1021.0,1009.0,1020.0,1020.0,1020.0,1018.0,1026.0,1020.0,1026.0,1020.0,1022.0,1009.0,1020.0,1021.0,1021.0,1020.0,1025.0,1019.0,1025.0,1020.0,1022.0,1009.0,1020.0,1020.0,1021.0,1020.0,1026.0,1019.0,1025.0,1020.0,1023.0,1009.0,1020.0,1021.0,1021.0,1020.0,1026.0,1020.0,1026.0,1021.0,1022.0,1009.0,1021.0,1020.0,1021.0,1019.0,1026.0,1019.0,1025.0,1021.0,1022.0,1009.0,1020.0,1020.0,1022.0,1020.0,1026.0,1021.0,1026.0,1021.0,1024.0,1010.0,1021.0,1023.0,1025.0,1027.0,1021.0,1026.0,1021.0,1024.0,1010.0,1021.0,1022.0,1026.0,1021.0,1025.0,1021.0,1023.0,1010.0,1021.0,1027.0,1022.0,1025.0,1021.0,1025.0,1011.0,1022.0,1027.0,1022.0,1025.0,1022.0,1024.0,1011.0,1022.0,1027.0,1022.0,1025.0,1021.0,1026.0,1011.0,1027.0,1022.0,1025.0,1021.0,1022.0,1010.0,1028.0,1022.0,1025.0,1022.0,1026.0,1012.0,1030.0,1024.0,1027.0,1023.0,1029.0,1014.0,1028.0,1023.0,1026.0,1023.0,1026.0,1012.0,1030.0,1024.0,1028.0,1023.0,1027.0,1014.0,1032.0,1025.0,1028.0,1024.0,1028.0,1015.0,1035.0,1027.0,1030.0,1024.0,1029.0,1017.0,1039.0,1029.0,1033.0,1025.0,1029.0,1019.0,1049.0,1031.0,1035.0,1025.0,1029.0,1022.0,1058.0,1033.0,1040.0,1028.0,1029.0,1027.0,1062.0,1032.0,1040.0,1026.0,1026.0,1029.0,1078.0,1042.0,1056.0,1031.0,1029.0,1092.0,1073.0,1040.0,1055.0,1029.0,1028.0,2314,2258,1901,	00:30:15.294,-0.0087890625,0.06005859375,1.0205078125,-0.06103515625,0.3662109375,0.1220703125,3.3563232421875,0.4779052734375,-61.424560546875,100.0,-576.0,-4015.0,-0.85931396484375,-0.027313232421875,0.011383056640625,0.510589599609375,3.3584978327182835,0.4780438488954703,-65.62995167689525,-0.8399904946587758,-0.026887583808823404,0.012376138342358739,0.5417931874060058,1,	00:30:15.295,-0.001953125,0.05126953125,1.02099609375,0.06103515625,0.30517578125,0.48828125,2.8839111328125,0.1153564453125,69.290771484375,3.0,638.0,-1873.0,0.82244873046875,0.0201416015625,0.01513671875,0.56829833984375,2.884434878697258,0.11630602488805421,62.788077580415525,0.8533474590548843,0.020955642477799102,0.013977038995539225,0.5207337299943537,1
1782117324.431656,0.183,1025.0,1021.0,1019.0,1026.0,1021.0,1022.0,1020.0,1021.0,1009.0,1026.0,1022.0,1023.0,1020.0,1021.0,1008.0,1019.0,1026.0,1021.0,1023.0,1020.0,1022.0,1008.0,1020.0,1021.0,1025.0,1021.0,1023.0,1020.0,1022.0,1009.0,1020.0,1020.0,1020.0,1025.0,1021.0,1023.0,1020.0,1022.0,1008.0,1020.0,1020.0,1020.0,1026.0,1021.0,1023.0,1020.0,1022.0,1009.0,1020.0,1020.0,1021.0,1019.0,1025.0,1021.0,1023.0,1021.0,1022.0,1008.0,1020.0,1020.0,1020.0,1018.0,1026.0,1021.0,1023.0,1020.0,1022.0,1008.0,1020.0,1021.0,1022.0,1020.0,1026.0,1021.0,1024.0,1020.0,1022.0,1008.0,1020.0,1021.0,1021.0,1020.0,1026.0,1022.0,1024.0,1021.0,1022.0,1009.0,1020.0,1021.0,1022.0,1020.0,1026.0,1021.0,1024.0,1021.0,1022.0,1009.0,1021.0,1021.0,1021.0,1019.0,1026.0,1021.0,1024.0,1021.0,1023.0,1009.0,1020.0,1021.0,1022.0,1020.0,1027.0,1021.0,1024.0,1021.0,1024.0,1010.0,1022.0,1023.0,1024.0,1027.0,1022.0,1024.0,1022.0,1024.0,1010.0,1021.0,1022.0,1027.0,1022.0,1024.0,1021.0,1023.0,1010.0,1021.0,1027.0,1022.0,1025.0,1021.0,1025.0,1010.0,1021.0,1028.0,1022.0,1024.0,1021.0,1024.0,1010.0,1022.0,1027.0,1022.0,1025.0,1021.0,1025.0,1012.0,1027.0,1023.0,1024.0,1021.0,1023.0,1010.0,1028.0,1023.0,1026.0,1022.0,1026.0,1012.0,1030.0,1024.0,1027.0,1024.0,1029.0,1014.0,1029.0,1023.0,1026.0,1022.0,1026.0,1013.0,1031.0,1024.0,1027.0,1023.0,1026.0,1013.0,1032.0,1026.0,1028.0,1024.0,1028.0,1015.0,1035.0,1028.0,1030.0,1025.0,1028.0,1016.0,1039.0,1029.0,1032.0,1024.0,1030.0,1019.0,1049.0,1030.0,1034.0,1025.0,1028.0,1022.0,1058.0,1032.0,1039.0,1027.0,1030.0,1027.0,1062.0,1032.0,1040.0,1026.0,1026.0,1029.0,1078.0,1041.0,1056.0,1029.0,1029.0,1092.0,1073.0,1040.0,1054.0,1029.0,1028.0,2314,2258,1901,	00:30:15.304,-0.009765625,0.06005859375,1.02001953125,-0.06103515625,0.42724609375,0.1220703125,3.372802734375,0.5712890625,-61.4190673828125,99.0,-579.0,-4014.0,-0.85931396484375,-0.027862548828125,0.0107421875,0.510589599609375,3.3724484370999224,0.5727333804823997,-65.6283498329554,-0.8399784291926055,-0.0274375245837695,0.01174749962476414,0.5417983176315747,1,	00:30:15.305,-0.00048828125,0.05126953125,1.02099609375,0.06103515625,0.3662109375,0.48828125,2.8729248046875,0.0274658203125,69.2962646484375,3.0,638.0,-1876.0,0.822418212890625,0.0205078125,0.01446533203125,0.568359375,2.8750822275409003,0.028590715220981226,62.79312544483469,0.8533166357375178,0.021284038513675812,0.013282286899532028,0.5207891029321478,1
1782117324.443069,0.194,1024.0,1022.0,1019.0,1025.0,1021.0,1023.0,1020.0,1021.0,1009.0,1025.0,1021.0,1023.0,1020.0,1021.0,1009.0,1020.0,1025.0,1021.0,1023.0,1021.0,1022.0,1008.0,1020.0,1021.0,1026.0,1021.0,1023.0,1020.0,1021.0,1008.0,1020.0,1020.0,1020.0,1025.0,1021.0,1023.0,1020.0,1021.0,1008.0,1021.0,1020.0,1021.0,1026.0,1021.0,1023.0,1020.0,1022.0,1008.0,1021.0,1020.0,1021.0,1020.0,1026.0,1021.0,1023.0,1021.0,1022.0,1008.0,1020.0,1020.0,1020.0,1018.0,1026.0,1021.0,1023.0,1020.0,1022.0,1009.0,1021.0,1021.0,1022.0,1020.0,1026.0,1021.0,1023.0,1021.0,1022.0,1009.0,1021.0,1020.0,1021.0,1019.0,1026.0,1021.0,1023.0,1021.0,1022.0,1008.0,1021.0,1020.0,1021.0,1020.0,1026.0,1021.0,1023.0,1021.0,1022.0,1009.0,1021.0,1021.0,1021.0,1019.0,1026.0,1021.0,1024.0,1021.0,1022.0,1009.0,1020.0,1020.0,1022.0,1020.0,1027.0,1021.0,1024.0,1021.0,1024.0,1010.0,1022.0,1023.0,1024.0,1028.0,1021.0,1024.0,1021.0,1024.0,1010.0,1021.0,1022.0,1026.0,1021.0,1024.0,1021.0,1023.0,1010.0,1021.0,1027.0,1022.0,1024.0,1021.0,1025.0,1010.0,1021.0,1028.0,1022.0,1025.0,1022.0,1024.0,1010.0,1022.0,1028.0,1022.0,1025.0,1021.0,1026.0,1011.0,1027.0,1022.0,1024.0,1021.0,1022.0,1010.0,1028.0,1023.0,1025.0,1022.0,1026.0,1013.0,1030.0,1024.0,1027.0,1023.0,1029.0,1014.0,1029.0,1023.0,1026.0,1022.0,1025.0,1013.0,1031.0,1025.0,1027.0,1024.0,1027.0,1014.0,1032.0,1026.0,1029.0,1024.0,1028.0,1015.0,1035.0,1027.0,1029.0,1024.0,1028.0,1016.0,1039.0,1029.0,1032.0,1025.0,1029.0,1019.0,1049.0,1030.0,1034.0,1025.0,1028.0,1021.0,1058.0,1033.0,1040.0,1028.0,1030.0,1027.0,1062.0,1033.0,1039.0,1026.0,1027.0,1029.0,1079.0,1040.0,1056.0,1030.0,1029.0,1091.0,1074.0,1040.0,1054.0,1029.0,1028.0,2314,2258,1901,	00:30:15.314,-0.00927734375,0.0595703125,1.0205078125,-0.06103515625,0.42724609375,0.18310546875,3.3233642578125,0.4998779296875,-61.4190673828125,98.0,-578.0,-4016.0,-0.859344482421875,-0.02716064453125,0.011077880859375,0.510589599609375,3.3246777030320036,0.4983672074295322,-65.62671106626036,-0.8400102922739215,-0.026736065943463522,0.012066477714022745,0.5417769760402563,1,	00:30:15.315,-0.001953125,0.0517578125,1.0205078125,0.0,0.3662109375,0.42724609375,2.9058837890625,0.120849609375,69.3017578125,1.0,639.0,-1875.0,0.8223876953125,0.020263671875,0.0152587890625,0.568359375,2.905383107972653,0.11853999704079125,62.79761505794198,0.8533005108744427,0.02110031543610073,0.01409062465497126,0.5208017560711032,1
1782117324.452538,0.204,1025.0,1022.0,1019.0,1026.0,1021.0,1023.0,1020.0,1021.0,1008.0,1026.0,1021.0,1023.0,1020.0,1021.0,1008.0,1020.0,1025.0,1021.0,1023.0,1020.0,1022.0,1009.0,1020.0,1021.0,1026.0,1021.0,1024.0,1020.0,1021.0,1009.0,1020.0,1020.0,1020.0,1026.0,1021.0,1023.0,1021.0,1022.0,1008.0,1020.0,1020.0,1021.0,1025.0,1021.0,1023.0,1020.0,1021.0,1008.0,1020.0,1020.0,1021.0,1019.0,1026.0,1021.0,1023.0,1020.0,1021.0,1008.0,1020.0,1020.0,1020.0,1018.0,1026.0,1021.0,1024.0,1021.0,1023.0,1009.0,1020.0,1021.0,1022.0,1021.0,1026.0,1021.0,1023.0,1021.0,1022.0,1008.0,1020.0,1020.0,1021.0,1020.0,1026.0,1021.0,1023.0,1020.0,1022.0,1009.0,1020.0,1020.0,1021.0,1020.0,1026.0,1021.0,1024.0,1021.0,1022.0,1009.0,1020.0,1021.0,1021.0,1019.0,1026.0,1021.0,1024.0,1021.0,1022.0,1009.0,1020.0,1021.0,1022.0,1020.0,1027.0,1021.0,1025.0,1021.0,1025.0,1010.0,1021.0,1023.0,1024.0,1027.0,1022.0,1025.0,1021.0,1024.0,1010.0,1021.0,1022.0,1027.0,1021.0,1025.0,1021.0,1023.0,1010.0,1021.0,1027.0,1022.0,1025.0,1021.0,1025.0,1010.0,1021.0,1027.0,1022.0,1025.0,1021.0,1025.0,1011.0,1021.0,1028.0,1021.0,1024.0,1021.0,1025.0,1011.0,1027.0,1022.0,1025.0,1021.0,1023.0,1010.0,1028.0,1023.0,1026.0,1022.0,1026.0,1012.0,1030.0,1024.0,1027.0,1024.0,1029.0,1014.0,1029.0,1023.0,1026.0,1023.0,1026.0,1013.0,1031.0,1024.0,1027.0,1023.0,1026.0,1014.0,1033.0,1026.0,1028.0,1024.0,1028.0,1015.0,1035.0,1027.0,1030.0,1024.0,1029.0,1016.0,1039.0,1029.0,1033.0,1024.0,1029.0,1019.0,1049.0,1030.0,1034.0,1025.0,1029.0,1021.0,1057.0,1033.0,1040.0,1027.0,1030.0,1027.0,1061.0,1032.0,1039.0,1026.0,1026.0,1029.0,1077.0,1040.0,1055.0,1030.0,1029.0,1091.0,1072.0,1040.0,1053.0,1029.0,1028.0,2315,2257,1902,	00:30:15.325,-0.0087890625,0.06103515625,1.0205078125,-0.06103515625,0.3662109375,0.18310546875,3.416748046875,0.494384765625,-61.4190673828125,98.0,-576.0,-4016.0,-0.85931396484375,-0.02783203125,0.011505126953125,0.51055908203125,3.415447107027581,0.49650667643373764,-65.62387753271716,-0.8400025683298306,-0.027392956727534994,0.012508585341676747,0.5417461088127554,1,	00:30:15.326,-0.00048828125,0.05029296875,1.021484375,0.06103515625,0.3662109375,0.42724609375,2.845458984375,0.054931640625,69.3072509765625,3.0,637.0,-1874.0,0.822357177734375,0.0201416015625,0.014495849609375,0.56842041015625,2.8428753122539843,0.0555861684940987,62.80197152196441,0.8532853490747075,0.020920484951945928,0.013338552930791727,0.520853654464997,1
1782117324.462541,0.214,1025.0,1023.0,1019.0,1025.0,1021.0,1023.0,1020.0,1021.0,1008.0,1025.0,1021.0,1023.0,1020.0,1022.0,1009.0,1020.0,1026.0,1021.0,1023.0,1020.0,1022.0,1008.0,1020.0,1021.0,1025.0,1021.0,1023.0,1020.0,1021.0,1008.0,1020.0,1020.0,1020.0,1026.0,1021.0,1024.0,1020.0,1021.0,1008.0,1020.0,1020.0,1021.0,1025.0,1021.0,1024.0,1020.0,1021.0,1008.0,1020.0,1020.0,1020.0,1019.0,1026.0,1021.0,1024.0,1020.0,1021.0,1009.0,1020.0,1020.0,1021.0,1018.0,1026.0,1022.0,1023.0,1021.0,1022.0,1008.0,1020.0,1021.0,1022.0,1020.0,1026.0,1022.0,1023.0,1021.0,1022.0,1008.0,1021.0,1020.0,1021.0,1019.0,1026.0,1021.0,1024.0,1020.0,1022.0,1009.0,1020.0,1020.0,1021.0,1019.0,1026.0,1021.0,1023.0,1021.0,1022.0,1009.0,1020.0,1021.0,1021.0,1019.0,1026.0,1021.0,1024.0,1021.0,1022.0,1009.0,1020.0,1021.0,1022.0,1020.0,1026.0,1022.0,1024.0,1021.0,1024.0,1010.0,1021.0,1023.0,1024.0,1027.0,1022.0,1024.0,1021.0,1024.0,1011.0,1021.0,1022.0,1027.0,1021.0,1024.0,1021.0,1023.0,1010.0,1020.0,1027.0,1022.0,1024.0,1021.0,1025.0,1011.0,1021.0,1027.0,1022.0,1024.0,1021.0,1025.0,1011.0,1021.0,1027.0,1022.0,1025.0,1021.0,1026.0,1011.0,1027.0,1022.0,1024.0,1021.0,1022.0,1010.0,1029.0,1023.0,1026.0,1022.0,1026.0,1013.0,1030.0,1024.0,1027.0,1024.0,1030.0,1014.0,1029.0,1023.0,1026.0,1023.0,1025.0,1013.0,1031.0,1024.0,1028.0,1023.0,1027.0,1014.0,1032.0,1026.0,1028.0,1024.0,1027.0,1015.0,1035.0,1027.0,1030.0,1024.0,1028.0,1017.0,1039.0,1028.0,1032.0,1024.0,1029.0,1019.0,1049.0,1030.0,1035.0,1026.0,1028.0,1021.0,1057.0,1033.0,1040.0,1028.0,1029.0,1028.0,1060.0,1032.0,1039.0,1026.0,1026.0,1029.0,1077.0,1041.0,1056.0,1030.0,1029.0,1092.0,1073.0,1039.0,1053.0,1029.0,1028.0,2315,2257,1901,	00:30:15.335,-0.00830078125,0.06005859375,1.02099609375,-0.1220703125,0.42724609375,0.18310546875,3.33984375,0.450439453125,-61.41357421875,97.0,-579.0,-4015.0,-0.859344482421875,-0.02703857421875,0.011474609375,0.510528564453125,3.3372475845746044,0.45115052828691293,-65.62243129745349,-0.8400355237401926,-0.02660552518092293,0.012471087959880727,0.5417351168693832,1,	00:30:15.336,-0.001953125,0.05078125,1.021484375,0.06103515625,0.3662109375,0.42724609375,2.8509521484375,0.1483154296875,69.3072509765625,1.0,637.0,-1878.0,0.822357177734375,0.01971435546875,0.015228271484375,0.56842041015625,2.8488282650967642,0.15054854270789586,62.80643045569467,0.8532740910927042,0.020532608261619435,0.014073514053260083,0.5208681922234134,1
1782117324.473850,0.225,1024.0,1022.0,1020.0,1025.0,1021.0,1023.0,1020.0,1021.0,1008.0,1025.0,1021.0,1023.0,1020.0,1021.0,1008.0,1020.0,1025.0,1021.0,1023.0,1020.0,1022.0,1009.0,1020.0,1021.0,1025.0,1021.0,1023.0,1020.0,1021.0,1008.0,1020.0,1020.0,1020.0,1025.0,1022.0,1023.0,1020.0,1022.0,1009.0,1020.0,1021.0,1021.0,1025.0,1021.0,1024.0,1021.0,1022.0,1008.0,1020.0,1020.0,1021.0,1019.0,1025.0,1021.0,1024.0,1020.0,1021.0,1008.0,1020.0,1020.0,1020.0,1018.0,1026.0,1021.0,1024.0,1020.0,1022.0,1009.0,1020.0,1021.0,1022.0,1020.0,1025.0,1021.0,1024.0,1021.0,1022.0,1009.0,1020.0,1020.0,1022.0,1019.0,1025.0,1021.0,1023.0,1021.0,1022.0,1009.0,1020.0,1020.0,1021.0,1019.0,1026.0,1021.0,1024.0,1021.0,1022.0,1009.0,1020.0,1020.0,1022.0,1019.0,1026.0,1021.0,1024.0,1021.0,1022.0,1009.0,1020.0,1020.0,1022.0,1020.0,1027.0,1022.0,1024.0,1021.0,1024.0,1010.0,1021.0,1023.0,1025.0,1026.0,1022.0,1024.0,1021.0,1024.0,1010.0,1021.0,1022.0,1026.0,1022.0,1024.0,1021.0,1023.0,1010.0,1021.0,1027.0,1022.0,1025.0,1022.0,1025.0,1010.0,1021.0,1027.0,1022.0,1025.0,1021.0,1025.0,1011.0,1021.0,1027.0,1022.0,1025.0,1021.0,1025.0,1011.0,1026.0,1022.0,1025.0,1021.0,1022.0,1010.0,1028.0,1023.0,1026.0,1022.0,1026.0,1012.0,1030.0,1023.0,1027.0,1024.0,1029.0,1013.0,1029.0,1023.0,1026.0,1022.0,1025.0,1013.0,1031.0,1024.0,1027.0,1023.0,1026.0,1013.0,1033.0,1024.0,1029.0,1024.0,1027.0,1014.0,1035.0,1026.0,1030.0,1024.0,1028.0,1017.0,1039.0,1027.0,1034.0,1025.0,1028.0,1019.0,1048.0,1029.0,1035.0,1026.0,1028.0,1020.0,1057.0,1032.0,1040.0,1028.0,1029.0,1027.0,1060.0,1031.0,1040.0,1026.0,1026.0,1028.0,1077.0,1040.0,1056.0,1030.0,1029.0,1090.0,1073.0,1039.0,1054.0,1029.0,1028.0,2316,2257,1901,	00:30:15.345,-0.0087890625,0.06005859375,1.0205078125,0.0,0.3662109375,0.18310546875,3.3892822265625,0.52734375,-61.41357421875,99.0,-576.0,-4017.0,-0.859344482421875,-0.027801513671875,0.011138916015625,0.510528564453125,3.391925160105671,0.528195586787055,-65.61992300438166,-0.8400213952286834,-0.027370703938728466,0.012164104537741834,0.5417258851898714,1,	00:30:15.346,-0.0009765625,0.05126953125,1.02197265625,0.1220703125,0.30517578125,0.42724609375,2.8729248046875,0.06591796875,69.312744140625,3.0,639.0,-1873.0,0.82232666015625,0.020294189453125,0.01470947265625,0.5684814453125,2.871561019591302,0.06427239495519128,62.810888673160704,0.8532405077082317,0.021093551093473054,0.013535258310499789,0.5209150553502307,1
1782117324.484521,0.236,1025.0,1023.0,1019.0,1025.0,1021.0,1023.0,1020.0,1021.0,1008.0,1025.0,1021.0,1023.0,1021.0,1022.0,1008.0,1020.0,1025.0,1021.0,1023.0,1020.0,1022.0,1009.0,1020.0,1021.0,1025.0,1021.0,1024.0,1021.0,1021.0,1009.0,1020.0,1020.0,1021.0,1026.0,1021.0,1024.0,1021.0,1021.0,1008.0,1020.0,1021.0,1021.0,1026.0,1021.0,1023.0,1020.0,1022.0,1008.0,1020.0,1020.0,1020.0,1019.0,1026.0,1021.0,1024.0,1020.0,1021.0,1008.0,1020.0,1020.0,1020.0,1019.0,1026.0,1021.0,1024.0,1021.0,1022.0,1009.0,1020.0,1021.0,1022.0,1020.0,1026.0,1021.0,1024.0,1021.0,1021.0,1009.0,1020.0,1021.0,1021.0,1019.0,1025.0,1022.0,1024.0,1020.0,1021.0,1008.0,1020.0,1020.0,1021.0,1019.0,1026.0,1021.0,1024.0,1021.0,1022.0,1009.0,1020.0,1021.0,1021.0,1019.0,1026.0,1022.0,1024.0,1020.0,1022.0,1009.0,1020.0,1021.0,1022.0,1020.0,1027.0,1022.0,1025.0,1021.0,1024.0,1011.0,1021.0,1024.0,1024.0,1026.0,1022.0,1025.0,1021.0,1024.0,1010.0,1021.0,1023.0,1026.0,1022.0,1024.0,1021.0,1023.0,1010.0,1021.0,1027.0,1022.0,1025.0,1022.0,1025.0,1011.0,1021.0,1027.0,1022.0,1025.0,1022.0,1024.0,1011.0,1021.0,1027.0,1022.0,1025.0,1021.0,1025.0,1012.0,1027.0,1022.0,1024.0,1021.0,1022.0,1010.0,1028.0,1023.0,1026.0,1022.0,1025.0,1012.0,1030.0,1024.0,1027.0,1024.0,1028.0,1014.0,1029.0,1023.0,1026.0,1022.0,1025.0,1013.0,1031.0,1024.0,1027.0,1023.0,1025.0,1013.0,1031.0,1026.0,1028.0,1024.0,1027.0,1015.0,1035.0,1027.0,1030.0,1024.0,1028.0,1017.0,1038.0,1029.0,1032.0,1024.0,1028.0,1019.0,1048.0,1030.0,1034.0,1025.0,1027.0,1021.0,1057.0,1033.0,1039.0,1027.0,1028.0,1028.0,1060.0,1032.0,1038.0,1026.0,1025.0,1030.0,1077.0,1041.0,1054.0,1029.0,1028.0,1093.0,1074.0,1040.0,1052.0,1029.0,1027.0,2316,2257,1901,	00:30:15.355,-0.00927734375,0.06005859375,1.0205078125,-0.1220703125,0.3662109375,0.1220703125,3.306884765625,0.4998779296875,-61.41357421875,98.0,-575.0,-4014.0,-0.859375,-0.02703857421875,0.010955810546875,0.510528564453125,3.3042084879758455,0.5019052462891891,-65.61926501148294,-0.8400496616751996,-0.026603513560809703,0.011942032709108938,0.5417252134065547,1,	00:30:15.356,-0.0009765625,0.05126953125,1.021484375,0.1220703125,0.30517578125,0.42724609375,2.889404296875,-0.02197265625,69.3182373046875,2.0,635.0,-1872.0,0.822296142578125,0.020843505859375,0.01416015625,0.568511962890625,2.889481424253288,-0.023030463041557904,62.81531370307141,0.853207189406379,0.02162335966871005,0.012967515530789009,0.5209623458589535,1
1782117324.494478,0.245,1024.0,1022.0,1019.0,1024.0,1021.0,1023.0,1020.0,1020.0,1009.0,1025.0,1020.0,1024.0,1020.0,1021.0,1009.0,1020.0,1025.0,1020.0,1024.0,1020.0,1022.0,1010.0,1020.0,1021.0,1025.0,1020.0,1024.0,1020.0,1021.0,1009.0,1020.0,1020.0,1020.0,1025.0,1021.0,1024.0,1020.0,1021.0,1009.0,1020.0,1021.0,1021.0,1025.0,1021.0,1024.0,1021.0,1021.0,1009.0,1021.0,1020.0,1021.0,1019.0,1025.0,1021.0,1024.0,1020.0,1021.0,1008.0,1020.0,1020.0,1020.0,1019.0,1025.0,1021.0,1024.0,1020.0,1022.0,1009.0,1021.0,1021.0,1022.0,1020.0,1025.0,1021.0,1024.0,1021.0,1022.0,1009.0,1020.0,1021.0,1021.0,1019.0,1025.0,1021.0,1024.0,1020.0,1021.0,1009.0,1021.0,1020.0,1021.0,1020.0,1025.0,1022.0,1024.0,1021.0,1022.0,1009.0,1020.0,1021.0,1021.0,1019.0,1025.0,1021.0,1024.0,1020.0,1022.0,1010.0,1021.0,1021.0,1021.0,1020.0,1026.0,1022.0,1025.0,1021.0,1024.0,1011.0,1021.0,1023.0,1024.0,1027.0,1022.0,1025.0,1021.0,1024.0,1011.0,1021.0,1023.0,1026.0,1022.0,1024.0,1020.0,1022.0,1011.0,1021.0,1027.0,1022.0,1025.0,1021.0,1024.0,1011.0,1021.0,1027.0,1022.0,1025.0,1021.0,1024.0,1012.0,1022.0,1027.0,1022.0,1025.0,1021.0,1025.0,1012.0,1026.0,1022.0,1024.0,1021.0,1022.0,1011.0,1028.0,1022.0,1026.0,1022.0,1026.0,1013.0,1029.0,1024.0,1027.0,1023.0,1028.0,1015.0,1028.0,1022.0,1026.0,1023.0,1025.0,1014.0,1030.0,1024.0,1027.0,1023.0,1026.0,1014.0,1032.0,1025.0,1028.0,1024.0,1027.0,1016.0,1035.0,1027.0,1030.0,1024.0,1028.0,1017.0,1038.0,1028.0,1032.0,1024.0,1028.0,1020.0,1048.0,1029.0,1034.0,1025.0,1028.0,1022.0,1057.0,1032.0,1040.0,1027.0,1029.0,1028.0,1059.0,1031.0,1040.0,1026.0,1025.0,1029.0,1076.0,1039.0,1056.0,1029.0,1027.0,1093.0,1072.0,1039.0,1054.0,1028.0,1027.0,2317,2257,1901,	00:30:15.366,-0.009765625,0.060546875,1.021484375,-0.06103515625,0.42724609375,0.18310546875,3.3837890625,0.54931640625,-61.4080810546875,100.0,-578.0,-4013.0,-0.859344482421875,-0.02783203125,0.010986328125,0.510498046875,3.38514612257165,0.5476710922397461,-65.61644425192866,-0.8400360680377605,-0.0274134039540536,0.011988432675448954,0.5417048893644001,1,	00:30:15.367,-0.00146484375,0.05224609375,1.0205078125,0.1220703125,0.30517578125,0.42724609375,2.92236328125,0.06591796875,69.32373046875,4.0,639.0,-1876.0,0.822265625,0.020660400390625,0.014984130859375,0.56854248046875,2.9241967783496587,0.06511899669134606,62.81974774714586,0.8531905493932888,0.021480556816365244,0.013782494942481549,0.5209745818540455,1
1782117324.512051,0.263,1024.0,1022.0,1019.0,1025.0,1021.0,1023.0,1020.0,1021.0,1009.0,1026.0,1021.0,1023.0,1020.0,1021.0,1009.0,1020.0,1025.0,1021.0,1023.0,1021.0,1022.0,1009.0,1020.0,1021.0,1025.0,1021.0,1023.0,1020.0,1021.0,1009.0,1020.0,1020.0,1020.0,1026.0,1021.0,1023.0,1020.0,1021.0,1009.0,1020.0,1020.0,1021.0,1026.0,1021.0,1024.0,1020.0,1022.0,1009.0,1020.0,1021.0,1020.0,1019.0,1025.0,1021.0,1023.0,1020.0,1021.0,1009.0,1020.0,1020.0,1021.0,1018.0,1025.0,1021.0,1023.0,1021.0,1022.0,1009.0,1020.0,1021.0,1021.0,1020.0,1026.0,1021.0,1024.0,1020.0,1022.0,1009.0,1020.0,1021.0,1021.0,1019.0,1025.0,1021.0,1023.0,1020.0,1022.0,1009.0,1020.0,1021.0,1021.0,1019.0,1025.0,1021.0,1024.0,1021.0,1022.0,1009.0,1020.0,1021.0,1021.0,1020.0,1025.0,1021.0,1024.0,1021.0,1022.0,1010.0,1021.0,1021.0,1021.0,1020.0,1027.0,1021.0,1024.0,1021.0,1024.0,1010.0,1021.0,1023.0,1024.0,1027.0,1021.0,1024.0,1021.0,1024.0,1010.0,1022.0,1023.0,1026.0,1022.0,1025.0,1021.0,1023.0,1010.0,1020.0,1027.0,1022.0,1024.0,1021.0,1024.0,1011.0,1022.0,1026.0,1021.0,1025.0,1022.0,1024.0,1012.0,1021.0,1027.0,1021.0,1025.0,1022.0,1025.0,1012.0,1027.0,1022.0,1024.0,1021.0,1022.0,1010.0,1028.0,1022.0,1025.0,1022.0,1026.0,1012.0,1029.0,1023.0,1028.0,1023.0,1029.0,1015.0,1028.0,1022.0,1026.0,1022.0,1025.0,1013.0,1031.0,1024.0,1027.0,1023.0,1026.0,1014.0,1031.0,1024.0,1028.0,1024.0,1028.0,1016.0,1035.0,1026.0,1030.0,1024.0,1028.0,1017.0,1038.0,1027.0,1033.0,1025.0,1029.0,1020.0,1046.0,1028.0,1034.0,1025.0,1028.0,1022.0,1056.0,1030.0,1039.0,1027.0,1029.0,1028.0,1060.0,1030.0,1039.0,1025.0,1026.0,1029.0,1076.0,1039.0,1056.0,1028.0,1028.0,1093.0,1072.0,1038.0,1054.0,1028.0,1027.0,2319,2257,1901,	00:30:15.376,-0.00927734375,0.060546875,1.02099609375,-0.06103515625,0.3662109375,0.18310546875,3.4112548828125,0.46142578125,-61.4080810546875,99.0,-578.0,-4015.0,-0.859375,-0.02764892578125,0.01171875,0.510467529296875,3.411547262607297,0.463612795476651,-65.61416143612628,-0.8400550710703446,-0.02720999964433194,0.012729006616697012,0.5416687787558976,1,	00:30:15.377,-0.00146484375,0.05126953125,1.021484375,0.1220703125,0.30517578125,0.42724609375,2.8399658203125,0.098876953125,69.3292236328125,3.0,639.0,-1876.0,0.822265625,0.0198974609375,0.0147705078125,0.568572998046875,2.8385451159356627,0.09688985078861265,62.82404801516701,0.8531902270413985,0.020697868560634342,0.013630413941515708,0.5210107931068957,1
1782117324.513420,0.264,1024.0,1023.0,1019.0,1025.0,1019.0,1023.0,1020.0,1021.0,1010.0,1025.0,1020.0,1024.0,1020.0,1021.0,1009.0,1020.0,1025.0,1020.0,1024.0,1021.0,1022.0,1009.0,1020.0,1021.0,1025.0,1019.0,1025.0,1020.0,1021.0,1009.0,1020.0,1020.0,1020.0,1025.0,1020.0,1024.0,1020.0,1021.0,1009.0,1020.0,1020.0,1021.0,1026.0,1020.0,1025.0,1020.0,1021.0,1009.0,1020.0,1020.0,1020.0,1019.0,1025.0,1020.0,1024.0,1020.0,1021.0,1010.0,1020.0,1020.0,1020.0,1018.0,1025.0,1020.0,1025.0,1020.0,1022.0,1010.0,1020.0,1021.0,1022.0,1021.0,1025.0,1019.0,1024.0,1020.0,1022.0,1010.0,1020.0,1021.0,1021.0,1019.0,1026.0,1020.0,1025.0,1020.0,1022.0,1010.0,1020.0,1021.0,1021.0,1020.0,1026.0,1020.0,1025.0,1020.0,1022.0,1009.0,1020.0,1021.0,1021.0,1019.0,1026.0,1020.0,1025.0,1021.0,1022.0,1010.0,1020.0,1020.0,1022.0,1020.0,1026.0,1020.0,1025.0,1021.0,1024.0,1011.0,1022.0,1023.0,1024.0,1026.0,1021.0,1025.0,1022.0,1024.0,1011.0,1021.0,1023.0,1026.0,1020.0,1025.0,1021.0,1023.0,1010.0,1021.0,1027.0,1021.0,1025.0,1021.0,1024.0,1011.0,1021.0,1027.0,1021.0,1026.0,1021.0,1024.0,1012.0,1021.0,1027.0,1021.0,1026.0,1021.0,1026.0,1012.0,1027.0,1020.0,1025.0,1021.0,1023.0,1011.0,1028.0,1021.0,1027.0,1022.0,1026.0,1013.0,1030.0,1022.0,1028.0,1023.0,1028.0,1014.0,1028.0,1021.0,1027.0,1022.0,1025.0,1013.0,1031.0,1022.0,1028.0,1023.0,1026.0,1014.0,1031.0,1023.0,1029.0,1024.0,1027.0,1015.0,1035.0,1025.0,1031.0,1024.0,1028.0,1017.0,1039.0,1027.0,1033.0,1025.0,1028.0,1019.0,1047.0,1028.0,1034.0,1025.0,1028.0,1021.0,1055.0,1031.0,1040.0,1027.0,1029.0,1027.0,1060.0,1030.0,1040.0,1026.0,1026.0,1028.0,1076.0,1039.0,1056.0,1030.0,1027.0,1091.0,1072.0,1038.0,1054.0,1029.0,1027.0,2320,2257,1901,	00:30:15.386,-0.00927734375,0.06005859375,1.02001953125,-0.06103515625,0.3662109375,0.1220703125,3.3563232421875,0.538330078125,-61.4080810546875,100.0,-576.0,-4014.0,-0.859375,-0.027587890625,0.010894775390625,0.510467529296875,3.3564448855536106,0.5408635914879097,-65.61320305357724,-0.8400594092366626,-0.027171172539108376,0.011901898491119764,0.5416828049219456,1,	00:30:15.387,-0.00146484375,0.0517578125,1.0224609375,0.1220703125,0.30517578125,0.42724609375,2.9278564453125,0.076904296875,69.3292236328125,4.0,638.0,-1873.0,0.822235107421875,0.0206298828125,0.01507568359375,0.568603515625,2.9285785096049124,0.07741035039214494,62.82860106942927,0.8531508462406164,0.02145622378426909,0.013895586995097497,0.5210375962268953,1
1782117324.524450,0.275,1025.0,1024.0,1019.0,1026.0,1019.0,1025.0,1020.0,1021.0,1009.0,1025.0,1019.0,1025.0,1020.0,1022.0,1009.0,1020.0,1025.0,1019.0,1025.0,1020.0,1022.0,1009.0,1020.0,1021.0,1025.0,1019.0,1025.0,1020.0,1021.0,1009.0,1020.0,1020.0,1020.0,1025.0,1019.0,1025.0,1020.0,1022.0,1009.0,1020.0,1021.0,1020.0,1025.0,1019.0,1025.0,1020.0,1022.0,1009.0,1020.0,1020.0,1021.0,1019.0,1025.0,1019.0,1025.0,1021.0,1021.0,1010.0,1020.0,1019.0,1020.0,1019.0,1025.0,1019.0,1026.0,1020.0,1022.0,1010.0,1020.0,1021.0,1021.0,1020.0,1026.0,1019.0,1025.0,1021.0,1022.0,1009.0,1020.0,1021.0,1021.0,1019.0,1025.0,1019.0,1025.0,1021.0,1021.0,1009.0,1020.0,1021.0,1021.0,1019.0,1025.0,1019.0,1025.0,1021.0,1022.0,1009.0,1020.0,1021.0,1021.0,1020.0,1025.0,1019.0,1025.0,1020.0,1023.0,1010.0,1020.0,1021.0,1022.0,1020.0,1026.0,1019.0,1026.0,1021.0,1025.0,1011.0,1021.0,1023.0,1024.0,1027.0,1020.0,1026.0,1021.0,1024.0,1010.0,1021.0,1022.0,1026.0,1019.0,1026.0,1021.0,1023.0,1010.0,1021.0,1027.0,1020.0,1027.0,1021.0,1025.0,1011.0,1021.0,1027.0,1020.0,1027.0,1021.0,1024.0,1011.0,1021.0,1027.0,1020.0,1027.0,1021.0,1025.0,1012.0,1026.0,1020.0,1027.0,1021.0,1022.0,1010.0,1028.0,1020.0,1028.0,1022.0,1025.0,1013.0,1029.0,1021.0,1030.0,1023.0,1028.0,1014.0,1028.0,1021.0,1028.0,1022.0,1025.0,1013.0,1030.0,1022.0,1029.0,1023.0,1026.0,1014.0,1031.0,1023.0,1030.0,1024.0,1027.0,1015.0,1035.0,1024.0,1032.0,1024.0,1029.0,1017.0,1038.0,1025.0,1034.0,1024.0,1029.0,1019.0,1047.0,1026.0,1035.0,1024.0,1028.0,1021.0,1055.0,1029.0,1040.0,1026.0,1030.0,1027.0,1059.0,1030.0,1040.0,1025.0,1026.0,1028.0,1075.0,1040.0,1055.0,1030.0,1028.0,1091.0,1071.0,1038.0,1054.0,1029.0,1028.0,2321,2257,1901,	00:30:15.396,-0.009765625,0.0595703125,1.02001953125,-0.06103515625,0.42724609375,0.18310546875,3.27392578125,0.582275390625,-61.402587890625,97.0,-579.0,-4016.0,-0.859405517578125,-0.02716064453125,0.01019287109375,0.510498046875,3.2732212105321308,0.5844823459729253,-65.61193653253537,-0.8400774477897949,-0.02676728868119765,0.011188366414345344,0.5416901461431803,1,	00:30:15.397,-0.001953125,0.0517578125,1.021484375,0.1220703125,0.244140625,0.42724609375,2.867431640625,0.1483154296875,69.334716796875,3.0,636.0,-1874.0,0.822235107421875,0.019866943359375,0.01531982421875,0.568603515625,2.869561726605646,0.14866825294603095,62.832874711066495,0.8531499434971761,0.02069227466272768,0.01415853146594997,0.5210628941565262,1
1782117324.533572,0.285,1024.0,1024.0,1019.0,1025.0,1019.0,1024.0,1020.0,1021.0,1009.0,1025.0,1019.0,1024.0,1020.0,1021.0,1009.0,1020.0,1025.0,1019.0,1025.0,1020.0,1021.0,1008.0,1020.0,1021.0,1025.0,1019.0,1025.0,1020.0,1021.0,1009.0,1020.0,1020.0,1020.0,1025.0,1019.0,1025.0,1020.0,1021.0,1009.0,1020.0,1020.0,1021.0,1025.0,1019.0,1025.0,1020.0,1022.0,1008.0,1020.0,1020.0,1021.0,1019.0,1025.0,1019.0,1026.0,1020.0,1021.0,1009.0,1020.0,1020.0,1021.0,1018.0,1025.0,1019.0,1025.0,1021.0,1022.0,1009.0,1020.0,1021.0,1022.0,1019.0,1026.0,1019.0,1025.0,1020.0,1022.0,1009.0,1020.0,1020.0,1021.0,1019.0,1025.0,1019.0,1025.0,1021.0,1022.0,1009.0,1020.0,1020.0,1021.0,1020.0,1026.0,1020.0,1026.0,1020.0,1022.0,1009.0,1020.0,1020.0,1021.0,1019.0,1026.0,1019.0,1026.0,1021.0,1022.0,1009.0,1020.0,1021.0,1021.0,1019.0,1026.0,1020.0,1027.0,1021.0,1024.0,1010.0,1021.0,1023.0,1024.0,1026.0,1019.0,1027.0,1020.0,1024.0,1011.0,1021.0,1022.0,1027.0,1019.0,1027.0,1021.0,1023.0,1010.0,1020.0,1026.0,1020.0,1027.0,1021.0,1025.0,1011.0,1021.0,1027.0,1020.0,1028.0,1021.0,1024.0,1011.0,1021.0,1027.0,1020.0,1028.0,1021.0,1025.0,1011.0,1026.0,1020.0,1027.0,1021.0,1022.0,1010.0,1028.0,1020.0,1029.0,1022.0,1025.0,1012.0,1029.0,1021.0,1030.0,1023.0,1028.0,1014.0,1029.0,1021.0,1028.0,1022.0,1025.0,1012.0,1030.0,1022.0,1030.0,1023.0,1026.0,1014.0,1032.0,1022.0,1031.0,1023.0,1026.0,1015.0,1035.0,1024.0,1032.0,1024.0,1028.0,1016.0,1038.0,1026.0,1035.0,1024.0,1029.0,1019.0,1047.0,1027.0,1036.0,1025.0,1028.0,1021.0,1055.0,1030.0,1040.0,1026.0,1029.0,1027.0,1059.0,1029.0,1041.0,1026.0,1026.0,1028.0,1076.0,1039.0,1056.0,1030.0,1028.0,1091.0,1071.0,1038.0,1054.0,1028.0,1027.0,2321,2257,1901,	00:30:15.406,-0.0087890625,0.05859375,1.02099609375,-0.06103515625,0.3662109375,0.1220703125,3.284912109375,0.494384765625,-61.402587890625,100.0,-578.0,-4017.0,-0.859405517578125,-0.02685546875,0.010894775390625,0.510467529296875,3.2838024675312796,0.49707964507442437,-65.61040269959094,-0.8400970874757827,-0.026432035136302497,0.011878901534319976,0.5416614466911951,1,	00:30:15.408,-0.001953125,0.05126953125,1.0205078125,0.1220703125,0.244140625,0.42724609375,2.8839111328125,0.0604248046875,69.3402099609375,4.0,635.0,-1874.0,0.822174072265625,0.020416259765625,0.0147705078125,0.56866455078125,2.8858416654828525,0.060464774962406466,62.8372905466134,0.8531174106351063,0.021214065652556346,0.013576713138340753,0.5211106599850934,1
1782117324.544309,0.295,1025.0,1024.0,1019.0,1025.0,1018.0,1026.0,1020.0,1021.0,1009.0,1025.0,1019.0,1026.0,1020.0,1021.0,1008.0,1020.0,1026.0,1019.0,1026.0,1021.0,1022.0,1009.0,1020.0,1021.0,1025.0,1019.0,1025.0,1020.0,1021.0,1008.0,1020.0,1020.0,1020.0,1025.0,1019.0,1025.0,1020.0,1022.0,1009.0,1020.0,1020.0,1021.0,1025.0,1019.0,1026.0,1020.0,1021.0,1009.0,1020.0,1020.0,1021.0,1019.0,1025.0,1019.0,1026.0,1020.0,1021.0,1009.0,1020.0,1020.0,1020.0,1019.0,1026.0,1019.0,1026.0,1021.0,1022.0,1009.0,1020.0,1021.0,1021.0,1020.0,1025.0,1019.0,1026.0,1020.0,1022.0,1009.0,1021.0,1021.0,1021.0,1020.0,1026.0,1019.0,1026.0,1020.0,1022.0,1008.0,1020.0,1020.0,1021.0,1019.0,1026.0,1019.0,1026.0,1020.0,1022.0,1009.0,1020.0,1021.0,1021.0,1019.0,1026.0,1019.0,1026.0,1021.0,1022.0,1009.0,1020.0,1021.0,1021.0,1020.0,1027.0,1019.0,1026.0,1021.0,1024.0,1010.0,1021.0,1023.0,1024.0,1027.0,1019.0,1026.0,1021.0,1024.0,1010.0,1021.0,1022.0,1027.0,1019.0,1027.0,1021.0,1023.0,1010.0,1020.0,1028.0,1019.0,1027.0,1021.0,1025.0,1011.0,1021.0,1027.0,1020.0,1027.0,1021.0,1024.0,1011.0,1021.0,1027.0,1020.0,1027.0,1022.0,1024.0,1011.0,1027.0,1020.0,1027.0,1021.0,1023.0,1010.0,1028.0,1020.0,1028.0,1022.0,1026.0,1012.0,1029.0,1021.0,1029.0,1023.0,1028.0,1013.0,1028.0,1021.0,1028.0,1023.0,1025.0,1013.0,1030.0,1022.0,1029.0,1023.0,1026.0,1013.0,1031.0,1023.0,1030.0,1024.0,1027.0,1015.0,1035.0,1023.0,1033.0,1024.0,1028.0,1016.0,1037.0,1026.0,1035.0,1024.0,1028.0,1018.0,1047.0,1027.0,1036.0,1025.0,1027.0,1021.0,1055.0,1031.0,1041.0,1026.0,1029.0,1026.0,1058.0,1030.0,1041.0,1026.0,1026.0,1028.0,1075.0,1040.0,1057.0,1029.0,1028.0,1090.0,1071.0,1038.0,1055.0,1029.0,1028.0,2321,2256,1901,	00:30:15.417,-0.009765625,0.0595703125,1.02099609375,-0.06103515625,0.3662109375,0.18310546875,3.350830078125,0.560302734375,-61.402587890625,98.0,-576.0,-4016.0,-0.859405517578125,-0.02764892578125,0.010711669921875,0.51043701171875,3.3511606402189633,0.5620054414113955,-65.60773720650849,-0.8400828292631658,-0.027232889245177864,0.011720603664510535,0.5416473365302314,1,	00:30:15.418,-0.00146484375,0.0517578125,1.02099609375,0.18310546875,0.30517578125,0.42724609375,2.9443359375,0.1373291015625,69.345703125,3.0,636.0,-1871.0,0.822174072265625,0.02044677734375,0.015594482421875,0.56866455078125,2.94259113641334,0.13664579384828707,62.84180680475788,0.8530946728061221,0.021289534443785132,0.014402758507281095,0.5211226300021552,1
1782117324.554213,0.305,1024.0,1025.0,1019.0,1025.0,1018.0,1026.0,1019.0,1021.0,1009.0,1025.0,1018.0,1026.0,1020.0,1022.0,1008.0,1020.0,1025.0,1018.0,1025.0,1020.0,1022.0,1009.0,1020.0,1021.0,1025.0,1018.0,1026.0,1020.0,1021.0,1009.0,1020.0,1020.0,1020.0,1025.0,1019.0,1026.0,1020.0,1022.0,1009.0,1020.0,1020.0,1021.0,1025.0,1019.0,1025.0,1020.0,1022.0,1009.0,1020.0,1020.0,1021.0,1019.0,1025.0,1018.0,1026.0,1020.0,1021.0,1008.0,1020.0,1019.0,1020.0,1018.0,1025.0,1019.0,1026.0,1020.0,1022.0,1009.0,1020.0,1021.0,1022.0,1020.0,1025.0,1019.0,1026.0,1020.0,1022.0,1009.0,1020.0,1021.0,1021.0,1019.0,1025.0,1019.0,1026.0,1020.0,1022.0,1009.0,1020.0,1020.0,1021.0,1019.0,1025.0,1019.0,1026.0,1020.0,1022.0,1009.0,1020.0,1021.0,1021.0,1019.0,1025.0,1019.0,1026.0,1020.0,1022.0,1009.0,1020.0,1021.0,1022.0,1020.0,1026.0,1020.0,1028.0,1020.0,1024.0,1010.0,1021.0,1023.0,1024.0,1026.0,1020.0,1028.0,1020.0,1024.0,1010.0,1021.0,1022.0,1026.0,1019.0,1026.0,1020.0,1023.0,1010.0,1020.0,1026.0,1019.0,1027.0,1021.0,1024.0,1011.0,1021.0,1027.0,1019.0,1027.0,1021.0,1024.0,1011.0,1021.0,1027.0,1020.0,1028.0,1022.0,1024.0,1011.0,1026.0,1019.0,1027.0,1020.0,1023.0,1010.0,1028.0,1020.0,1028.0,1022.0,1026.0,1013.0,1029.0,1022.0,1030.0,1023.0,1029.0,1014.0,1029.0,1020.0,1028.0,1022.0,1025.0,1012.0,1030.0,1021.0,1030.0,1023.0,1027.0,1014.0,1032.0,1022.0,1031.0,1023.0,1028.0,1015.0,1034.0,1024.0,1033.0,1024.0,1028.0,1017.0,1038.0,1025.0,1035.0,1024.0,1029.0,1019.0,1047.0,1026.0,1037.0,1024.0,1028.0,1021.0,1055.0,1029.0,1041.0,1026.0,1029.0,1026.0,1058.0,1029.0,1041.0,1025.0,1026.0,1028.0,1076.0,1039.0,1056.0,1028.0,1028.0,1090.0,1071.0,1038.0,1054.0,1027.0,1028.0,2321,2256,1901,	00:30:15.427,-0.00927734375,0.0595703125,1.02099609375,-0.06103515625,0.3662109375,0.18310546875,3.3233642578125,0.4779052734375,-61.3970947265625,100.0,-575.0,-4010.0,-0.85943603515625,-0.027069091796875,0.01123046875,0.510406494140625,3.325532994548396,0.477394875700025,-65.60592173446018,-0.8401119003232648,-0.02664543632588264,0.012219449495412368,0.5416204397105646,1,	00:30:15.428,-0.00146484375,0.05078125,1.021484375,0.18310546875,0.30517578125,0.42724609375,2.867431640625,0.0933837890625,69.3511962890625,2.0,636.0,-1873.0,0.8221435546875,0.02008056640625,0.014892578125,0.5687255859375,2.864703025765267,0.09441731601253475,62.84606902383382,0.8530850767020169,0.020901229926468985,0.013734953326399608,0.5211720843953526,1
1782117324.565292,0.316,1024.0,1025.0,1019.0,1025.0,1018.0,1026.0,1020.0,1020.0,1009.0,1025.0,1018.0,1026.0,1020.0,1022.0,1009.0,1019.0,1025.0,1019.0,1026.0,1020.0,1022.0,1009.0,1020.0,1021.0,1025.0,1019.0,1026.0,1020.0,1021.0,1009.0,1020.0,1020.0,1020.0,1024.0,1018.0,1026.0,1020.0,1022.0,1008.0,1020.0,1020.0,1021.0,1025.0,1019.0,1026.0,1020.0,1021.0,1009.0,1020.0,1020.0,1020.0,1019.0,1025.0,1018.0,1026.0,1020.0,1022.0,1009.0,1020.0,1020.0,1020.0,1019.0,1025.0,1019.0,1026.0,1021.0,1022.0,1009.0,1020.0,1021.0,1022.0,1020.0,1025.0,1019.0,1026.0,1020.0,1021.0,1008.0,1020.0,1020.0,1022.0,1019.0,1025.0,1018.0,1026.0,1020.0,1022.0,1009.0,1020.0,1020.0,1021.0,1019.0,1026.0,1018.0,1026.0,1020.0,1022.0,1009.0,1020.0,1020.0,1021.0,1019.0,1025.0,1018.0,1027.0,1020.0,1022.0,1009.0,1020.0,1021.0,1021.0,1020.0,1026.0,1019.0,1027.0,1021.0,1024.0,1010.0,1021.0,1023.0,1024.0,1027.0,1019.0,1027.0,1021.0,1024.0,1010.0,1022.0,1022.0,1026.0,1019.0,1027.0,1021.0,1022.0,1010.0,1021.0,1027.0,1020.0,1028.0,1021.0,1024.0,1011.0,1021.0,1026.0,1019.0,1028.0,1021.0,1024.0,1011.0,1021.0,1027.0,1019.0,1028.0,1021.0,1025.0,1011.0,1026.0,1019.0,1027.0,1021.0,1022.0,1010.0,1028.0,1020.0,1029.0,1022.0,1025.0,1013.0,1029.0,1021.0,1030.0,1024.0,1028.0,1014.0,1028.0,1020.0,1029.0,1022.0,1025.0,1012.0,1030.0,1021.0,1030.0,1023.0,1026.0,1014.0,1031.0,1022.0,1031.0,1023.0,1027.0,1015.0,1034.0,1024.0,1033.0,1024.0,1028.0,1017.0,1037.0,1025.0,1035.0,1024.0,1029.0,1019.0,1046.0,1026.0,1036.0,1024.0,1027.0,1021.0,1054.0,1029.0,1041.0,1026.0,1028.0,1027.0,1058.0,1029.0,1041.0,1024.0,1026.0,1028.0,1075.0,1039.0,1057.0,1028.0,1028.0,1091.0,1072.0,1038.0,1054.0,1027.0,1028.0,2320,2256,1901,	00:30:15.437,-0.0087890625,0.06005859375,1.0205078125,-0.1220703125,0.3662109375,0.18310546875,3.4112548828125,0.5108642578125,-61.3970947265625,98.0,-579.0,-4013.0,-0.859405517578125,-0.027862548828125,0.0113525390625,0.510406494140625,3.410515563101634,0.5117356145417762,-65.60313777919521,-0.840099148971138,-0.027431013280315244,0.012368653211122928,0.5415976143098562,1,	00:30:15.438,-0.0009765625,0.052734375,1.02099609375,0.18310546875,0.30517578125,0.42724609375,2.9498291015625,0.0604248046875,69.3511962890625,2.0,637.0,-1874.0,0.822113037109375,0.0208740234375,0.01507568359375,0.568756103515625,2.9506247848949494,0.060971931093416185,62.85060199454428,0.8530447992592214,0.021692444771344483,0.01387761089154986,0.521201899663249,1
1782117324.574795,0.326,1024.0,1024.0,1019.0,1025.0,1018.0,1025.0,1020.0,1021.0,1009.0,1025.0,1019.0,1025.0,1020.0,1021.0,1009.0,1020.0,1025.0,1019.0,1025.0,1021.0,1021.0,1009.0,1020.0,1020.0,1025.0,1019.0,1025.0,1020.0,1021.0,1009.0,1020.0,1020.0,1020.0,1025.0,1019.0,1025.0,1020.0,1022.0,1009.0,1020.0,1020.0,1020.0,1025.0,1019.0,1025.0,1021.0,1022.0,1008.0,1020.0,1020.0,1021.0,1019.0,1026.0,1019.0,1025.0,1020.0,1021.0,1009.0,1020.0,1020.0,1020.0,1018.0,1025.0,1020.0,1025.0,1020.0,1022.0,1010.0,1020.0,1021.0,1021.0,1021.0,1025.0,1020.0,1025.0,1020.0,1022.0,1009.0,1020.0,1020.0,1021.0,1020.0,1025.0,1020.0,1024.0,1021.0,1022.0,1009.0,1020.0,1021.0,1021.0,1019.0,1025.0,1020.0,1025.0,1020.0,1022.0,1009.0,1020.0,1021.0,1021.0,1019.0,1025.0,1020.0,1025.0,1021.0,1023.0,1010.0,1020.0,1020.0,1021.0,1020.0,1026.0,1020.0,1025.0,1021.0,1025.0,1010.0,1021.0,1023.0,1024.0,1027.0,1021.0,1026.0,1021.0,1024.0,1010.0,1020.0,1023.0,1027.0,1021.0,1025.0,1021.0,1023.0,1010.0,1020.0,1027.0,1021.0,1026.0,1021.0,1025.0,1010.0,1021.0,1027.0,1020.0,1026.0,1021.0,1024.0,1011.0,1021.0,1027.0,1020.0,1026.0,1021.0,1025.0,1011.0,1027.0,1021.0,1026.0,1021.0,1022.0,1010.0,1028.0,1021.0,1027.0,1022.0,1025.0,1012.0,1030.0,1023.0,1029.0,1023.0,1027.0,1014.0,1028.0,1022.0,1027.0,1023.0,1025.0,1013.0,1030.0,1023.0,1028.0,1023.0,1026.0,1014.0,1032.0,1023.0,1029.0,1023.0,1026.0,1014.0,1035.0,1025.0,1031.0,1024.0,1028.0,1017.0,1038.0,1026.0,1033.0,1024.0,1029.0,1019.0,1047.0,1027.0,1034.0,1024.0,1027.0,1021.0,1055.0,1030.0,1040.0,1025.0,1029.0,1026.0,1058.0,1029.0,1039.0,1025.0,1026.0,1028.0,1077.0,1039.0,1056.0,1028.0,1029.0,1091.0,1073.0,1037.0,1054.0,1027.0,1028.0,2320,2256,1901,	00:30:15.447,-0.00927734375,0.0595703125,1.02197265625,-0.1220703125,0.42724609375,0.1220703125,3.31787109375,0.52734375,-61.3970947265625,98.0,-577.0,-4015.0,-0.85943603515625,-0.0272216796875,0.010833740234375,0.510406494140625,3.31824116561758,0.5250826850010389,-65.60248904085486,-0.8401217619284591,-0.026817643269382015,0.01183450847553634,0.5416051915859377,1,	00:30:15.448,-0.0009765625,0.05224609375,1.02197265625,0.18310546875,0.30517578125,0.42724609375,2.8619384765625,0.0384521484375,69.356689453125,4.0,637.0,-1872.0,0.822113037109375,0.020355224609375,0.014495849609375,0.56878662109375,2.8638796578623804,0.04062569218030659,62.85494719871574,0.8530389650154974,0.021138730494994994,0.013332399287538937,0.5212484296068302,1
1782117324.585895,0.337,1026.0,1023.0,1019.0,1025.0,1020.0,1024.0,1020.0,1021.0,1008.0,1025.0,1020.0,1024.0,1020.0,1021.0,1009.0,1020.0,1026.0,1020.0,1024.0,1020.0,1021.0,1008.0,1020.0,1021.0,1025.0,1020.0,1024.0,1020.0,1021.0,1008.0,1019.0,1020.0,1021.0,1025.0,1020.0,1025.0,1021.0,1021.0,1008.0,1020.0,1021.0,1021.0,1026.0,1020.0,1024.0,1020.0,1021.0,1009.0,1020.0,1020.0,1021.0,1019.0,1025.0,1020.0,1024.0,1020.0,1021.0,1008.0,1020.0,1020.0,1020.0,1019.0,1026.0,1020.0,1024.0,1021.0,1022.0,1008.0,1020.0,1021.0,1022.0,1020.0,1026.0,1020.0,1024.0,1021.0,1022.0,1008.0,1020.0,1020.0,1021.0,1020.0,1026.0,1020.0,1024.0,1020.0,1022.0,1009.0,1020.0,1021.0,1021.0,1020.0,1026.0,1020.0,1024.0,1021.0,1022.0,1009.0,1020.0,1020.0,1021.0,1019.0,1026.0,1021.0,1024.0,1020.0,1022.0,1009.0,1020.0,1021.0,1021.0,1019.0,1026.0,1021.0,1025.0,1021.0,1024.0,1010.0,1021.0,1023.0,1024.0,1027.0,1021.0,1026.0,1021.0,1024.0,1010.0,1021.0,1022.0,1027.0,1021.0,1026.0,1021.0,1023.0,1009.0,1021.0,1028.0,1021.0,1026.0,1021.0,1024.0,1010.0,1021.0,1028.0,1021.0,1026.0,1021.0,1024.0,1010.0,1021.0,1027.0,1021.0,1026.0,1021.0,1024.0,1011.0,1027.0,1022.0,1025.0,1020.0,1022.0,1010.0,1029.0,1022.0,1026.0,1022.0,1024.0,1012.0,1030.0,1022.0,1028.0,1023.0,1027.0,1014.0,1030.0,1021.0,1027.0,1022.0,1024.0,1012.0,1031.0,1023.0,1028.0,1023.0,1026.0,1013.0,1032.0,1024.0,1029.0,1023.0,1026.0,1014.0,1036.0,1025.0,1030.0,1023.0,1028.0,1016.0,1039.0,1027.0,1033.0,1024.0,1029.0,1017.0,1048.0,1028.0,1035.0,1024.0,1028.0,1020.0,1056.0,1031.0,1039.0,1026.0,1028.0,1026.0,1059.0,1030.0,1040.0,1025.0,1026.0,1027.0,1077.0,1039.0,1057.0,1028.0,1028.0,1091.0,1073.0,1038.0,1055.0,1028.0,1028.0,2319,2256,1901,	00:30:15.458,-0.0087890625,0.06005859375,1.0205078125,-0.06103515625,0.3662109375,0.18310546875,3.394775390625,0.4779052734375,-61.3916015625,98.0,-578.0,-4017.0,-0.85943603515625,-0.027587890625,0.01153564453125,0.5103759765625,3.394365408647181,0.47860581951566217,-65.59977689835904,-0.8401245790538281,-0.02715646012706749,0.012534450418655226,0.5415681913625444,1,	00:30:15.459,-0.0009765625,0.0517578125,1.02099609375,0.1220703125,0.30517578125,0.48828125,2.9498291015625,0.076904296875,69.3621826171875,3.0,636.0,-1870.0,0.822052001953125,0.02081298828125,0.01519775390625,0.568817138671875,2.950992379301972,0.07517751414622638,62.86006336652186,0.8530032948984179,0.021629411515804445,0.013986816341963292,0.5212695237768454,1
1782117324.595948,0.347,1025.0,1023.0,1019.0,1026.0,1020.0,1024.0,1019.0,1021.0,1008.0,1026.0,1021.0,1024.0,1020.0,1021.0,1008.0,1020.0,1026.0,1020.0,1024.0,1019.0,1022.0,1008.0,1020.0,1022.0,1026.0,1020.0,1024.0,1020.0,1021.0,1008.0,1020.0,1020.0,1020.0,1026.0,1020.0,1024.0,1020.0,1022.0,1008.0,1020.0,1020.0,1021.0,1026.0,1020.0,1024.0,1020.0,1021.0,1008.0,1020.0,1020.0,1021.0,1019.0,1025.0,1020.0,1024.0,1020.0,1021.0,1008.0,1020.0,1020.0,1021.0,1018.0,1026.0,1021.0,1024.0,1021.0,1022.0,1009.0,1021.0,1021.0,1022.0,1020.0,1026.0,1021.0,1024.0,1020.0,1022.0,1009.0,1021.0,1020.0,1022.0,1019.0,1026.0,1021.0,1024.0,1021.0,1022.0,1009.0,1020.0,1020.0,1021.0,1020.0,1026.0,1020.0,1023.0,1020.0,1022.0,1009.0,1020.0,1020.0,1021.0,1019.0,1027.0,1021.0,1024.0,1020.0,1022.0,1009.0,1020.0,1021.0,1021.0,1020.0,1027.0,1021.0,1025.0,1021.0,1024.0,1010.0,1021.0,1023.0,1024.0,1028.0,1021.0,1025.0,1021.0,1024.0,1010.0,1021.0,1022.0,1027.0,1020.0,1025.0,1021.0,1023.0,1010.0,1021.0,1028.0,1021.0,1025.0,1021.0,1024.0,1010.0,1021.0,1027.0,1021.0,1025.0,1021.0,1023.0,1011.0,1021.0,1027.0,1022.0,1025.0,1021.0,1024.0,1012.0,1027.0,1021.0,1025.0,1021.0,1021.0,1010.0,1029.0,1021.0,1026.0,1022.0,1024.0,1012.0,1030.0,1023.0,1027.0,1023.0,1027.0,1014.0,1030.0,1022.0,1026.0,1022.0,1024.0,1013.0,1031.0,1023.0,1027.0,1023.0,1025.0,1014.0,1033.0,1024.0,1029.0,1023.0,1026.0,1015.0,1036.0,1026.0,1031.0,1023.0,1028.0,1017.0,1040.0,1026.0,1033.0,1024.0,1027.0,1018.0,1048.0,1027.0,1034.0,1024.0,1027.0,1021.0,1056.0,1030.0,1039.0,1026.0,1029.0,1026.0,1060.0,1030.0,1038.0,1025.0,1026.0,1028.0,1077.0,1039.0,1056.0,1028.0,1027.0,1091.0,1073.0,1037.0,1054.0,1028.0,1028.0,2319,2256,1901,	00:30:15.468,-0.00927734375,0.0595703125,1.0205078125,-0.06103515625,0.3662109375,0.18310546875,3.3233642578125,0.538330078125,-61.3916015625,98.0,-576.0,-4017.0,-0.859466552734375,-0.027313232421875,0.0107421875,0.5103759765625,3.321248797142936,0.5381056015632043,-65.59837585097348,-0.8401382708136637,-0.02690164129819688,0.011752264973616814,0.5415772076792746,1,	00:30:15.469,-0.0009765625,0.05224609375,1.02197265625,0.18310546875,0.244140625,0.42724609375,2.8839111328125,0.0164794921875,69.36767578125,2.0,635.0,-1873.0,0.822052001953125,0.020599365234375,0.014434814453125,0.568878173828125,2.882667505268496,0.01850402507172547,62.8643977274888,0.852990007166756,0.021378125110584366,0.013254948253186214,0.5213207551855373,1
1782117324.605992,0.357,1026.0,1023.0,1019.0,1026.0,1021.0,1023.0,1020.0,1020.0,1009.0,1026.0,1020.0,1023.0,1020.0,1021.0,1009.0,1020.0,1026.0,1021.0,1023.0,1020.0,1021.0,1008.0,1021.0,1021.0,1026.0,1021.0,1024.0,1020.0,1021.0,1008.0,1020.0,1020.0,1021.0,1025.0,1021.0,1024.0,1020.0,1021.0,1009.0,1020.0,1020.0,1021.0,1026.0,1021.0,1023.0,1020.0,1021.0,1009.0,1020.0,1020.0,1021.0,1019.0,1026.0,1021.0,1024.0,1020.0,1020.0,1009.0,1020.0,1019.0,1020.0,1018.0,1027.0,1021.0,1023.0,1020.0,1022.0,1009.0,1020.0,1021.0,1021.0,1020.0,1026.0,1021.0,1024.0,1021.0,1021.0,1009.0,1021.0,1021.0,1021.0,1020.0,1026.0,1021.0,1024.0,1020.0,1022.0,1009.0,1020.0,1020.0,1021.0,1020.0,1026.0,1021.0,1024.0,1020.0,1021.0,1009.0,1020.0,1020.0,1021.0,1019.0,1026.0,1022.0,1024.0,1020.0,1022.0,1009.0,1020.0,1021.0,1021.0,1020.0,1027.0,1021.0,1024.0,1021.0,1024.0,1010.0,1021.0,1023.0,1024.0,1028.0,1022.0,1024.0,1021.0,1024.0,1011.0,1021.0,1023.0,1027.0,1021.0,1024.0,1020.0,1022.0,1011.0,1020.0,1028.0,1022.0,1024.0,1021.0,1024.0,1010.0,1021.0,1028.0,1021.0,1025.0,1021.0,1023.0,1011.0,1021.0,1028.0,1021.0,1025.0,1021.0,1024.0,1011.0,1028.0,1022.0,1024.0,1021.0,1021.0,1010.0,1029.0,1022.0,1026.0,1021.0,1024.0,1012.0,1031.0,1023.0,1027.0,1023.0,1027.0,1014.0,1030.0,1023.0,1026.0,1022.0,1024.0,1013.0,1032.0,1023.0,1028.0,1023.0,1025.0,1013.0,1034.0,1024.0,1028.0,1023.0,1026.0,1015.0,1037.0,1025.0,1030.0,1024.0,1027.0,1017.0,1040.0,1027.0,1032.0,1024.0,1027.0,1019.0,1049.0,1028.0,1034.0,1024.0,1027.0,1020.0,1057.0,1030.0,1039.0,1026.0,1028.0,1026.0,1060.0,1030.0,1039.0,1025.0,1025.0,1028.0,1077.0,1039.0,1057.0,1028.0,1028.0,1091.0,1072.0,1038.0,1055.0,1027.0,1028.0,2318,2256,1901,	00:30:15.478,-0.00927734375,0.06005859375,1.0205078125,-0.06103515625,0.3662109375,0.18310546875,3.40576171875,0.5108642578125,-61.3861083984375,100.0,-576.0,-4015.0,-0.85943603515625,-0.02783203125,0.0113525390625,0.510345458984375,3.4060232391420473,0.5085622545492983,-65.59555583996782,-0.8401366060258354,-0.027383905168827515,0.012368877862681992,0.5415418874043935,1,	00:30:15.479,-0.0009765625,0.052734375,1.02197265625,0.1220703125,0.30517578125,0.42724609375,2.96630859375,0.0604248046875,69.3731689453125,3.0,638.0,-1871.0,0.822021484375,0.020965576171875,0.015167236328125,0.568878173828125,2.96553783290652,0.06280971103580808,62.8688765086325,0.8529590486564324,0.021792874982546978,0.01396259661756731,0.5213357630268656,1
1782117324.616476,0.367,1025.0,1022.0,1019.0,1026.0,1021.0,1023.0,1020.0,1021.0,1008.0,1026.0,1021.0,1024.0,1020.0,1020.0,1008.0,1020.0,1026.0,1021.0,1024.0,1020.0,1021.0,1008.0,1020.0,1021.0,1026.0,1021.0,1024.0,1020.0,1021.0,1008.0,1020.0,1020.0,1020.0,1026.0,1021.0,1024.0,1021.0,1021.0,1008.0,1020.0,1020.0,1021.0,1026.0,1021.0,1024.0,1020.0,1021.0,1009.0,1020.0,1020.0,1021.0,1019.0,1026.0,1021.0,1024.0,1020.0,1021.0,1008.0,1020.0,1020.0,1020.0,1019.0,1026.0,1021.0,1024.0,1020.0,1022.0,1009.0,1020.0,1021.0,1021.0,1020.0,1026.0,1021.0,1024.0,1020.0,1021.0,1008.0,1020.0,1021.0,1021.0,1019.0,1026.0,1021.0,1024.0,1020.0,1021.0,1009.0,1021.0,1020.0,1021.0,1020.0,1027.0,1021.0,1024.0,1020.0,1022.0,1009.0,1020.0,1021.0,1021.0,1020.0,1026.0,1021.0,1024.0,1020.0,1021.0,1009.0,1020.0,1020.0,1021.0,1020.0,1027.0,1021.0,1024.0,1021.0,1023.0,1009.0,1021.0,1023.0,1024.0,1028.0,1022.0,1025.0,1020.0,1024.0,1010.0,1021.0,1023.0,1027.0,1021.0,1025.0,1020.0,1023.0,1009.0,1020.0,1028.0,1022.0,1025.0,1021.0,1024.0,1011.0,1021.0,1028.0,1022.0,1025.0,1021.0,1023.0,1010.0,1021.0,1028.0,1022.0,1025.0,1021.0,1024.0,1012.0,1027.0,1022.0,1024.0,1020.0,1021.0,1011.0,1029.0,1022.0,1026.0,1021.0,1025.0,1012.0,1030.0,1023.0,1027.0,1023.0,1027.0,1014.0,1029.0,1023.0,1027.0,1022.0,1024.0,1012.0,1031.0,1024.0,1028.0,1023.0,1025.0,1013.0,1033.0,1025.0,1029.0,1023.0,1026.0,1014.0,1035.0,1026.0,1031.0,1024.0,1027.0,1016.0,1039.0,1027.0,1032.0,1024.0,1027.0,1018.0,1047.0,1029.0,1034.0,1024.0,1026.0,1021.0,1055.0,1032.0,1039.0,1025.0,1028.0,1026.0,1058.0,1031.0,1039.0,1024.0,1025.0,1027.0,1076.0,1040.0,1057.0,1029.0,1028.0,1091.0,1072.0,1038.0,1055.0,1027.0,1027.0,2318,2256,1901,	00:30:15.488,-0.0078125,0.0595703125,1.021484375,-0.06103515625,0.3662109375,0.1220703125,3.33984375,0.4449462890625,-61.3861083984375,99.0,-575.0,-4013.0,-0.859466552734375,-0.027069091796875,0.01153564453125,0.51031494140625,3.3419092933938264,0.4461789962586675,-65.59464847809022,-0.8401665879983198,-0.026619241037034804,0.012523122945478846,0.5415299546743156,1,	00:30:15.489,-0.0009765625,0.0517578125,1.02197265625,0.1220703125,0.30517578125,0.48828125,2.87841796875,0.054931640625,69.378662109375,4.0,637.0,-1870.0,0.821990966796875,0.020355224609375,0.014678955078125,0.568939208984375,2.875889233413826,0.054460422805432056,62.87381778749599,0.8529524333992629,0.021162977352250735,0.013493499607450233,0.5213848868314153,1
1782117324.626101,0.377,1025.0,1023.0,1019.0,1026.0,1021.0,1023.0,1019.0,1020.0,1009.0,1026.0,1021.0,1024.0,1020.0,1021.0,1009.0,1020.0,1026.0,1020.0,1024.0,1020.0,1022.0,1009.0,1020.0,1021.0,1026.0,1021.0,1024.0,1021.0,1020.0,1008.0,1020.0,1020.0,1020.0,1026.0,1021.0,1024.0,1020.0,1021.0,1009.0,1020.0,1021.0,1021.0,1026.0,1021.0,1024.0,1021.0,1021.0,1009.0,1020.0,1020.0,1020.0,1019.0,1026.0,1021.0,1024.0,1020.0,1020.0,1008.0,1019.0,1020.0,1021.0,1018.0,1026.0,1021.0,1024.0,1020.0,1022.0,1009.0,1021.0,1021.0,1021.0,1020.0,1026.0,1021.0,1024.0,1020.0,1021.0,1008.0,1020.0,1021.0,1021.0,1019.0,1026.0,1021.0,1024.0,1020.0,1021.0,1009.0,1020.0,1021.0,1021.0,1020.0,1026.0,1021.0,1024.0,1021.0,1021.0,1009.0,1020.0,1021.0,1021.0,1020.0,1026.0,1021.0,1024.0,1020.0,1022.0,1009.0,1020.0,1021.0,1021.0,1020.0,1027.0,1021.0,1025.0,1021.0,1024.0,1010.0,1021.0,1024.0,1024.0,1027.0,1021.0,1025.0,1021.0,1024.0,1010.0,1021.0,1023.0,1027.0,1021.0,1025.0,1021.0,1022.0,1010.0,1020.0,1028.0,1022.0,1025.0,1021.0,1024.0,1010.0,1021.0,1028.0,1022.0,1026.0,1021.0,1023.0,1010.0,1020.0,1028.0,1022.0,1026.0,1022.0,1024.0,1011.0,1027.0,1021.0,1025.0,1020.0,1021.0,1010.0,1029.0,1022.0,1027.0,1022.0,1024.0,1012.0,1030.0,1023.0,1028.0,1023.0,1027.0,1014.0,1029.0,1023.0,1027.0,1022.0,1024.0,1012.0,1031.0,1023.0,1028.0,1023.0,1025.0,1014.0,1032.0,1024.0,1029.0,1023.0,1026.0,1014.0,1035.0,1026.0,1031.0,1024.0,1028.0,1016.0,1038.0,1027.0,1033.0,1024.0,1028.0,1018.0,1046.0,1028.0,1034.0,1024.0,1027.0,1021.0,1054.0,1030.0,1040.0,1025.0,1028.0,1026.0,1057.0,1029.0,1040.0,1025.0,1025.0,1027.0,1075.0,1039.0,1057.0,1028.0,1028.0,1090.0,1072.0,1037.0,1056.0,1028.0,1027.0,2317,2256,1901,	00:30:15.499,-0.0087890625,0.05908203125,1.02099609375,-0.06103515625,0.3662109375,0.1220703125,3.2904052734375,0.52734375,-61.3861083984375,99.0,-573.0,-4017.0,-0.859466552734375,-0.02703857421875,0.010711669921875,0.510345458984375,3.291327840801924,0.5265811567205658,-65.59364100992133,-0.8401696004145419,-0.02662831150824254,0.011694261149812002,0.5415433683664208,1,	00:30:15.500,-0.00244140625,0.052734375,1.02197265625,0.06103515625,0.18310546875,0.48828125,2.9388427734375,0.120849609375,69.3841552734375,3.0,638.0,-1874.0,0.821990966796875,0.020477294921875,0.015472412109375,0.568939208984375,2.9395490427262656,0.12251575276546978,62.87888391375555,0.8529250483113063,0.021326529196044795,0.014290635717008275,0.5214017825500887,1
1782117324.637130,0.388,1025.0,1024.0,1019.0,1025.0,1020.0,1025.0,1020.0,1021.0,1009.0,1025.0,1019.0,1025.0,1020.0,1021.0,1008.0,1020.0,1026.0,1020.0,1025.0,1020.0,1021.0,1008.0,1020.0,1021.0,1026.0,1020.0,1025.0,1020.0,1021.0,1008.0,1019.0,1020.0,1020.0,1026.0,1020.0,1025.0,1020.0,1022.0,1008.0,1020.0,1021.0,1021.0,1025.0,1019.0,1025.0,1020.0,1021.0,1008.0,1020.0,1020.0,1020.0,1019.0,1026.0,1019.0,1025.0,1020.0,1021.0,1008.0,1020.0,1020.0,1020.0,1019.0,1026.0,1020.0,1025.0,1021.0,1022.0,1008.0,1020.0,1021.0,1021.0,1020.0,1026.0,1019.0,1025.0,1020.0,1021.0,1009.0,1020.0,1021.0,1021.0,1020.0,1026.0,1019.0,1025.0,1020.0,1022.0,1009.0,1020.0,1020.0,1021.0,1020.0,1026.0,1019.0,1025.0,1021.0,1021.0,1008.0,1020.0,1020.0,1021.0,1020.0,1026.0,1020.0,1026.0,1021.0,1022.0,1009.0,1020.0,1020.0,1021.0,1020.0,1027.0,1020.0,1026.0,1021.0,1024.0,1010.0,1021.0,1023.0,1024.0,1027.0,1020.0,1027.0,1021.0,1023.0,1010.0,1021.0,1023.0,1026.0,1020.0,1026.0,1021.0,1022.0,1010.0,1020.0,1027.0,1020.0,1027.0,1021.0,1024.0,1011.0,1021.0,1027.0,1020.0,1028.0,1021.0,1023.0,1010.0,1021.0,1028.0,1020.0,1027.0,1021.0,1024.0,1011.0,1027.0,1020.0,1027.0,1021.0,1021.0,1009.0,1029.0,1021.0,1028.0,1022.0,1025.0,1012.0,1029.0,1022.0,1029.0,1023.0,1027.0,1014.0,1029.0,1021.0,1028.0,1022.0,1024.0,1012.0,1030.0,1023.0,1030.0,1023.0,1025.0,1013.0,1032.0,1023.0,1031.0,1024.0,1026.0,1015.0,1034.0,1025.0,1032.0,1024.0,1027.0,1016.0,1037.0,1026.0,1034.0,1024.0,1028.0,1017.0,1045.0,1028.0,1035.0,1024.0,1028.0,1020.0,1054.0,1030.0,1040.0,1026.0,1029.0,1025.0,1058.0,1029.0,1041.0,1025.0,1025.0,1027.0,1077.0,1039.0,1058.0,1030.0,1028.0,1091.0,1073.0,1038.0,1055.0,1029.0,1028.0,2317,2255,1901,	00:30:15.509,-0.00830078125,0.06005859375,1.02099609375,0.0,0.3662109375,0.1220703125,3.36181640625,0.472412109375,-61.3861083984375,98.0,-576.0,-4014.0,-0.8594970703125,-0.02734375,0.011444091796875,0.51031494140625,3.362190295905992,0.4721004062554746,-65.59159460375785,-0.8401719391364417,-0.02689072206205656,0.01242817007797871,0.541510426809314,1,	00:30:15.510,-0.0009765625,0.0517578125,1.02294921875,0.0,0.18310546875,0.48828125,2.889404296875,0.0494384765625,69.3896484375,3.0,639.0,-1871.0,0.82196044921875,0.0205078125,0.014678955078125,0.569000244140625,2.890486954885346,0.04670508042629292,62.88378185562428,0.8529035266209775,0.021305747504513063,0.013504045696479373,0.5214588000509733,1
1782117324.647171,0.398,1025.0,1023.0,1019.0,1026.0,1019.0,1024.0,1020.0,1021.0,1008.0,1026.0,1020.0,1024.0,1020.0,1021.0,1008.0,1020.0,1026.0,1020.0,1024.0,1020.0,1021.0,1008.0,1020.0,1021.0,1026.0,1021.0,1025.0,1020.0,1021.0,1008.0,1020.0,1020.0,1021.0,1026.0,1019.0,1025.0,1020.0,1022.0,1008.0,1020.0,1020.0,1021.0,1026.0,1020.0,1024.0,1020.0,1021.0,1009.0,1020.0,1020.0,1020.0,1019.0,1026.0,1020.0,1024.0,1020.0,1021.0,1008.0,1020.0,1020.0,1020.0,1019.0,1027.0,1020.0,1025.0,1020.0,1022.0,1008.0,1020.0,1021.0,1021.0,1020.0,1026.0,1020.0,1024.0,1021.0,1021.0,1008.0,1020.0,1020.0,1021.0,1019.0,1026.0,1020.0,1024.0,1020.0,1022.0,1009.0,1020.0,1020.0,1021.0,1020.0,1026.0,1020.0,1025.0,1021.0,1022.0,1009.0,1020.0,1020.0,1021.0,1020.0,1026.0,1020.0,1025.0,1021.0,1022.0,1009.0,1020.0,1021.0,1022.0,1020.0,1027.0,1021.0,1025.0,1021.0,1024.0,1009.0,1021.0,1023.0,1024.0,1027.0,1020.0,1025.0,1021.0,1023.0,1010.0,1022.0,1023.0,1027.0,1021.0,1026.0,1020.0,1022.0,1009.0,1021.0,1027.0,1021.0,1026.0,1021.0,1024.0,1010.0,1021.0,1027.0,1021.0,1026.0,1021.0,1023.0,1010.0,1021.0,1028.0,1021.0,1026.0,1021.0,1024.0,1011.0,1027.0,1022.0,1025.0,1021.0,1021.0,1010.0,1028.0,1022.0,1026.0,1022.0,1024.0,1012.0,1030.0,1023.0,1029.0,1023.0,1026.0,1014.0,1028.0,1022.0,1027.0,1022.0,1024.0,1013.0,1030.0,1024.0,1028.0,1023.0,1025.0,1013.0,1031.0,1025.0,1029.0,1023.0,1026.0,1015.0,1034.0,1026.0,1032.0,1024.0,1027.0,1016.0,1037.0,1026.0,1033.0,1024.0,1028.0,1018.0,1045.0,1028.0,1035.0,1025.0,1027.0,1020.0,1053.0,1030.0,1040.0,1026.0,1028.0,1026.0,1058.0,1030.0,1040.0,1026.0,1025.0,1027.0,1077.0,1039.0,1058.0,1029.0,1028.0,1090.0,1072.0,1038.0,1055.0,1029.0,1029.0,2317,2255,1901,	00:30:15.519,-0.00927734375,0.05859375,1.0205078125,-0.1220703125,0.3662109375,0.18310546875,3.284912109375,0.5218505859375,-61.380615234375,99.0,-578.0,-4013.0,-0.8594970703125,-0.0269775390625,0.01068115234375,0.51031494140625,3.283481167507206,0.5244424611956259,-65.5902263474542,-0.8401879202155065,-0.026561025476908588,0.01167207070460388,0.5415187285911943,1,	00:30:15.520,-0.001953125,0.05126953125,1.0224609375,-0.06103515625,0.18310546875,0.48828125,2.8619384765625,0.1373291015625,69.3896484375,4.0,635.0,-1874.0,0.821929931640625,0.019866943359375,0.01519775390625,0.56903076171875,2.8621244577198603,0.13564895380664052,62.88870620990189,0.8528959498163337,0.020689272749104044,0.014037868244066809,0.5214819182245627,1
1782117324.656792,0.408,1025.0,1024.0,1019.0,1025.0,1020.0,1025.0,1020.0,1021.0,1009.0,1026.0,1020.0,1024.0,1020.0,1021.0,1009.0,1020.0,1025.0,1020.0,1025.0,1020.0,1021.0,1009.0,1020.0,1021.0,1026.0,1020.0,1024.0,1020.0,1021.0,1008.0,1020.0,1020.0,1020.0,1026.0,1020.0,1024.0,1020.0,1021.0,1008.0,1020.0,1020.0,1021.0,1026.0,1020.0,1025.0,1020.0,1021.0,1009.0,1020.0,1020.0,1021.0,1019.0,1025.0,1020.0,1024.0,1020.0,1021.0,1008.0,1020.0,1020.0,1021.0,1019.0,1025.0,1020.0,1024.0,1020.0,1022.0,1008.0,1020.0,1020.0,1021.0,1020.0,1025.0,1020.0,1025.0,1021.0,1022.0,1009.0,1020.0,1020.0,1022.0,1020.0,1025.0,1020.0,1024.0,1020.0,1021.0,1009.0,1020.0,1021.0,1021.0,1020.0,1026.0,1021.0,1025.0,1020.0,1022.0,1009.0,1020.0,1020.0,1021.0,1020.0,1026.0,1020.0,1025.0,1021.0,1022.0,1010.0,1020.0,1020.0,1021.0,1020.0,1027.0,1021.0,1026.0,1021.0,1024.0,1010.0,1021.0,1023.0,1024.0,1026.0,1021.0,1026.0,1021.0,1024.0,1010.0,1021.0,1022.0,1027.0,1021.0,1026.0,1021.0,1022.0,1010.0,1020.0,1027.0,1020.0,1026.0,1021.0,1024.0,1010.0,1021.0,1027.0,1021.0,1026.0,1021.0,1023.0,1011.0,1021.0,1027.0,1021.0,1027.0,1021.0,1024.0,1011.0,1027.0,1021.0,1026.0,1021.0,1021.0,1009.0,1028.0,1021.0,1027.0,1021.0,1024.0,1012.0,1029.0,1022.0,1029.0,1023.0,1028.0,1015.0,1028.0,1022.0,1027.0,1023.0,1024.0,1013.0,1030.0,1023.0,1029.0,1023.0,1026.0,1014.0,1031.0,1024.0,1030.0,1023.0,1026.0,1014.0,1034.0,1025.0,1031.0,1024.0,1028.0,1017.0,1037.0,1026.0,1034.0,1024.0,1028.0,1018.0,1045.0,1028.0,1035.0,1024.0,1027.0,1020.0,1053.0,1031.0,1040.0,1026.0,1029.0,1026.0,1057.0,1030.0,1040.0,1026.0,1025.0,1027.0,1077.0,1040.0,1057.0,1030.0,1029.0,1091.0,1072.0,1038.0,1056.0,1029.0,1028.0,2317,2255,1901,	00:30:15.529,-0.009765625,0.0595703125,1.02001953125,-0.06103515625,0.3662109375,0.1220703125,3.3673095703125,0.560302734375,-61.380615234375,98.0,-576.0,-4013.0,-0.8594970703125,-0.02777099609375,0.010772705078125,0.510284423828125,3.3680571250935474,0.561532701269721,-65.58799092680754,-0.840172210554207,-0.027356558973828878,0.011799221706471423,0.5415007420684576,1,	00:30:15.530,-0.00146484375,0.052734375,1.02197265625,-0.06103515625,0.18310546875,0.48828125,2.9388427734375,0.0933837890625,69.3951416015625,3.0,637.0,-1872.0,0.8218994140625,0.0206298828125,0.0152587890625,0.569061279296875,2.94059534180416,0.09100901559629021,62.89383083816947,0.8528533743875953,0.021475853227874504,0.014063695045920872,0.5215190523897302,1
1782117324.666951,0.418,1024.0,1024.0,1019.0,1025.0,1019.0,1025.0,1020.0,1021.0,1008.0,1025.0,1020.0,1024.0,1020.0,1021.0,1009.0,1020.0,1025.0,1020.0,1025.0,1020.0,1022.0,1008.0,1020.0,1021.0,1025.0,1020.0,1025.0,1021.0,1021.0,1008.0,1020.0,1020.0,1020.0,1026.0,1019.0,1025.0,1020.0,1021.0,1008.0,1020.0,1020.0,1021.0,1025.0,1020.0,1025.0,1020.0,1021.0,1008.0,1020.0,1020.0,1021.0,1019.0,1025.0,1020.0,1025.0,1020.0,1021.0,1008.0,1020.0,1020.0,1020.0,1018.0,1026.0,1019.0,1025.0,1020.0,1022.0,1009.0,1020.0,1020.0,1021.0,1020.0,1026.0,1020.0,1025.0,1020.0,1022.0,1008.0,1020.0,1020.0,1021.0,1020.0,1026.0,1020.0,1025.0,1021.0,1022.0,1009.0,1020.0,1020.0,1021.0,1020.0,1025.0,1020.0,1025.0,1020.0,1022.0,1009.0,1020.0,1020.0,1021.0,1020.0,1025.0,1020.0,1025.0,1021.0,1022.0,1010.0,1020.0,1020.0,1021.0,1020.0,1027.0,1020.0,1026.0,1021.0,1024.0,1010.0,1022.0,1023.0,1024.0,1026.0,1021.0,1027.0,1021.0,1024.0,1010.0,1021.0,1022.0,1027.0,1021.0,1026.0,1021.0,1022.0,1010.0,1021.0,1027.0,1021.0,1026.0,1022.0,1024.0,1010.0,1021.0,1026.0,1021.0,1027.0,1021.0,1023.0,1010.0,1021.0,1027.0,1020.0,1026.0,1021.0,1024.0,1011.0,1026.0,1021.0,1026.0,1021.0,1022.0,1010.0,1028.0,1021.0,1028.0,1021.0,1025.0,1012.0,1029.0,1022.0,1029.0,1024.0,1027.0,1014.0,1028.0,1021.0,1028.0,1022.0,1024.0,1012.0,1030.0,1023.0,1029.0,1023.0,1026.0,1013.0,1031.0,1024.0,1030.0,1024.0,1027.0,1014.0,1034.0,1025.0,1032.0,1024.0,1028.0,1016.0,1036.0,1027.0,1034.0,1024.0,1029.0,1018.0,1044.0,1028.0,1035.0,1025.0,1028.0,1020.0,1052.0,1030.0,1040.0,1027.0,1030.0,1026.0,1056.0,1029.0,1040.0,1026.0,1026.0,1027.0,1075.0,1039.0,1057.0,1030.0,1030.0,1091.0,1071.0,1037.0,1055.0,1030.0,1029.0,2317,2255,1901,	00:30:15.540,-0.00927734375,0.06005859375,1.0205078125,0.0,0.3662109375,0.1220703125,3.3673095703125,0.472412109375,-61.380615234375,98.0,-576.0,-4013.0,-0.8594970703125,-0.027374267578125,0.011444091796875,0.51025390625,3.3680933974877134,0.4734472275761029,-65.58655691387578,-0.8401941300642172,-0.026940912109955698,0.012445004949948794,0.5414731137481462,1,	00:30:15.541,-0.00146484375,0.0517578125,1.02197265625,-0.06103515625,0.244140625,0.48828125,2.8509521484375,0.0714111328125,69.400634765625,3.0,637.0,-1873.0,0.8218994140625,0.02008056640625,0.014678955078125,0.569091796875,2.8505237242999697,0.0737398959929832,62.89870413519365,0.8528459479745251,0.02088350914491012,0.013526127001255871,0.5215694699247396,1
1782117324.676739,0.428,1024.0,1024.0,1019.0,1025.0,1019.0,1025.0,1020.0,1021.0,1009.0,1024.0,1019.0,1024.0,1020.0,1021.0,1008.0,1020.0,1025.0,1020.0,1024.0,1020.0,1022.0,1008.0,1020.0,1021.0,1025.0,1019.0,1024.0,1020.0,1022.0,1008.0,1020.0,1020.0,1020.0,1025.0,1019.0,1025.0,1021.0,1022.0,1008.0,1020.0,1021.0,1021.0,1025.0,1020.0,1025.0,1021.0,1022.0,1008.0,1020.0,1020.0,1020.0,1019.0,1025.0,1020.0,1025.0,1020.0,1022.0,1008.0,1020.0,1019.0,1020.0,1019.0,1025.0,1020.0,1025.0,1021.0,1022.0,1009.0,1020.0,1021.0,1021.0,1020.0,1025.0,1020.0,1025.0,1021.0,1022.0,1008.0,1020.0,1020.0,1021.0,1019.0,1025.0,1020.0,1025.0,1021.0,1022.0,1009.0,1020.0,1021.0,1021.0,1020.0,1025.0,1020.0,1025.0,1020.0,1022.0,1009.0,1021.0,1020.0,1021.0,1020.0,1025.0,1020.0,1025.0,1021.0,1022.0,1009.0,1021.0,1021.0,1021.0,1020.0,1026.0,1021.0,1026.0,1021.0,1025.0,1010.0,1021.0,1023.0,1024.0,1026.0,1021.0,1026.0,1021.0,1025.0,1010.0,1021.0,1022.0,1026.0,1021.0,1026.0,1021.0,1023.0,1010.0,1020.0,1027.0,1021.0,1026.0,1021.0,1025.0,1010.0,1021.0,1026.0,1020.0,1026.0,1021.0,1024.0,1010.0,1021.0,1027.0,1020.0,1027.0,1021.0,1025.0,1011.0,1026.0,1021.0,1026.0,1021.0,1022.0,1010.0,1027.0,1022.0,1027.0,1022.0,1026.0,1012.0,1029.0,1022.0,1029.0,1024.0,1028.0,1013.0,1028.0,1022.0,1028.0,1023.0,1025.0,1012.0,1030.0,1023.0,1029.0,1024.0,1026.0,1013.0,1030.0,1024.0,1030.0,1024.0,1027.0,1014.0,1033.0,1025.0,1032.0,1025.0,1029.0,1016.0,1037.0,1026.0,1034.0,1024.0,1029.0,1018.0,1044.0,1027.0,1035.0,1025.0,1028.0,1020.0,1053.0,1030.0,1041.0,1028.0,1030.0,1025.0,1057.0,1030.0,1040.0,1026.0,1027.0,1028.0,1075.0,1040.0,1057.0,1030.0,1030.0,1092.0,1071.0,1038.0,1055.0,1030.0,1029.0,2317,2255,1901,	00:30:15.550,-0.00927734375,0.05908203125,1.02099609375,0.0,0.3662109375,0.18310546875,3.2958984375,0.5328369140625,-61.380615234375,99.0,-575.0,-4016.0,-0.859527587890625,-0.027130126953125,0.01068115234375,0.510284423828125,3.297379093259289,0.5352063091354122,-65.58513630648781,-0.840206916861172,-0.026714288086616605,0.011657626710421023,0.5414820250111259,1,	00:30:15.551,-0.00146484375,0.05126953125,1.02099609375,-0.06103515625,0.18310546875,0.48828125,2.9388427734375,0.1043701171875,69.4061279296875,3.0,637.0,-1870.0,0.82183837890625,0.020538330078125,0.015350341796875,0.569122314453125,2.9364621566736226,0.10524135393314488,62.90380678619716,0.8528103133025935,0.02137908226589742,0.01415266792626415,0.521591033623824,1
1782117324.688019,0.439,1023.0,1024.0,1019.0,1025.0,1019.0,1025.0,1021.0,1021.0,1009.0,1025.0,1019.0,1025.0,1020.0,1022.0,1008.0,1020.0,1025.0,1020.0,1025.0,1020.0,1022.0,1008.0,1020.0,1021.0,1025.0,1019.0,1025.0,1021.0,1021.0,1008.0,1020.0,1020.0,1020.0,1025.0,1019.0,1025.0,1020.0,1022.0,1008.0,1020.0,1020.0,1020.0,1024.0,1020.0,1025.0,1021.0,1021.0,1008.0,1020.0,1020.0,1021.0,1019.0,1025.0,1019.0,1025.0,1020.0,1022.0,1008.0,1019.0,1020.0,1020.0,1019.0,1026.0,1020.0,1025.0,1020.0,1022.0,1008.0,1020.0,1021.0,1021.0,1020.0,1025.0,1019.0,1026.0,1021.0,1021.0,1008.0,1020.0,1021.0,1021.0,1020.0,1025.0,1019.0,1026.0,1020.0,1022.0,1009.0,1020.0,1020.0,1021.0,1020.0,1025.0,1019.0,1025.0,1020.0,1022.0,1009.0,1020.0,1020.0,1021.0,1020.0,1026.0,1019.0,1026.0,1020.0,1022.0,1009.0,1020.0,1021.0,1021.0,1020.0,1026.0,1020.0,1026.0,1021.0,1024.0,1009.0,1021.0,1023.0,1024.0,1027.0,1020.0,1026.0,1021.0,1024.0,1010.0,1021.0,1022.0,1026.0,1020.0,1027.0,1021.0,1023.0,1010.0,1020.0,1027.0,1020.0,1027.0,1021.0,1025.0,1010.0,1021.0,1027.0,1020.0,1027.0,1022.0,1024.0,1011.0,1021.0,1027.0,1021.0,1027.0,1022.0,1024.0,1011.0,1026.0,1020.0,1026.0,1021.0,1022.0,1010.0,1028.0,1021.0,1028.0,1022.0,1025.0,1012.0,1029.0,1022.0,1030.0,1024.0,1028.0,1013.0,1028.0,1021.0,1028.0,1023.0,1024.0,1012.0,1030.0,1022.0,1030.0,1023.0,1026.0,1013.0,1030.0,1024.0,1030.0,1024.0,1026.0,1015.0,1034.0,1025.0,1033.0,1024.0,1028.0,1016.0,1037.0,1026.0,1035.0,1025.0,1028.0,1018.0,1044.0,1027.0,1036.0,1025.0,1027.0,1020.0,1053.0,1030.0,1041.0,1027.0,1029.0,1025.0,1057.0,1029.0,1041.0,1026.0,1026.0,1027.0,1075.0,1040.0,1058.0,1030.0,1030.0,1091.0,1070.0,1038.0,1056.0,1029.0,1029.0,2317,2255,1901,	00:30:15.560,-0.00927734375,0.060546875,1.02001953125,0.0,0.3662109375,0.18310546875,3.3892822265625,0.52734375,-61.3751220703125,97.0,-574.0,-4013.0,-0.8594970703125,-0.02777099609375,0.011138916015625,0.51025390625,3.3879079349732284,0.525113587541038,-65.58226016905422,-0.8402008926325358,-0.027330689202705125,0.012158727974030342,0.5414495902494052,1,	00:30:15.561,-0.001953125,0.05224609375,1.021484375,-0.06103515625,0.18310546875,0.48828125,2.8509521484375,0.1483154296875,69.41162109375,4.0,639.0,-1871.0,0.82183837890625,0.019744873046875,0.015228271484375,0.56915283203125,2.8536444307759505,0.1471676557220328,62.908595860582636,0.8528081522215352,0.02057128703884431,0.014088577950971529,0.5216287852729907,1
1782117324.698507,0.449,1024.0,1025.0,1020.0,1024.0,1018.0,1025.0,1020.0,1021.0,1008.0,1025.0,1019.0,1025.0,1021.0,1021.0,1008.0,1020.0,1025.0,1019.0,1026.0,1021.0,1021.0,1008.0,1020.0,1020.0,1025.0,1018.0,1026.0,1021.0,1021.0,1008.0,1020.0,1019.0,1020.0,1025.0,1019.0,1025.0,1020.0,1022.0,1008.0,1020.0,1020.0,1021.0,1025.0,1019.0,1026.0,1021.0,1022.0,1008.0,1020.0,1020.0,1021.0,1019.0,1024.0,1019.0,1026.0,1020.0,1021.0,1008.0,1019.0,1020.0,1020.0,1019.0,1025.0,1019.0,1026.0,1021.0,1022.0,1008.0,1020.0,1021.0,1021.0,1020.0,1025.0,1019.0,1025.0,1021.0,1022.0,1009.0,1020.0,1020.0,1021.0,1019.0,1025.0,1019.0,1026.0,1021.0,1022.0,1009.0,1020.0,1020.0,1021.0,1020.0,1025.0,1020.0,1025.0,1021.0,1022.0,1008.0,1020.0,1020.0,1021.0,1019.0,1025.0,1019.0,1026.0,1021.0,1022.0,1009.0,1020.0,1020.0,1021.0,1020.0,1026.0,1019.0,1027.0,1022.0,1024.0,1009.0,1021.0,1023.0,1024.0,1026.0,1020.0,1027.0,1021.0,1024.0,1010.0,1021.0,1022.0,1026.0,1020.0,1027.0,1021.0,1023.0,1010.0,1021.0,1026.0,1020.0,1028.0,1021.0,1024.0,1011.0,1020.0,1027.0,1020.0,1027.0,1021.0,1024.0,1010.0,1021.0,1026.0,1020.0,1028.0,1022.0,1024.0,1011.0,1026.0,1020.0,1027.0,1021.0,1022.0,1010.0,1028.0,1021.0,1028.0,1022.0,1025.0,1012.0,1029.0,1022.0,1030.0,1024.0,1028.0,1013.0,1028.0,1021.0,1028.0,1022.0,1024.0,1012.0,1030.0,1023.0,1029.0,1024.0,1026.0,1013.0,1031.0,1023.0,1031.0,1024.0,1027.0,1014.0,1034.0,1025.0,1033.0,1024.0,1028.0,1016.0,1037.0,1026.0,1034.0,1025.0,1028.0,1018.0,1045.0,1027.0,1036.0,1025.0,1028.0,1020.0,1053.0,1030.0,1041.0,1027.0,1030.0,1025.0,1057.0,1029.0,1041.0,1026.0,1027.0,1027.0,1075.0,1039.0,1058.0,1030.0,1029.0,1092.0,1072.0,1038.0,1056.0,1029.0,1029.0,2318,2255,1901,	00:30:15.570,-0.0087890625,0.06005859375,1.0205078125,0.0,0.3662109375,0.1220703125,3.33984375,0.450439453125,-61.3751220703125,97.0,-575.0,-4014.0,-0.859527587890625,-0.027069091796875,0.011505126953125,0.510223388671875,3.340210674559487,0.450493157783914,-65.58123127936517,-0.84022966494529,-0.026628628921444207,0.012480342548444863,0.5414326064410633,1,	00:30:15.571,-0.001953125,0.05126953125,1.02099609375,-0.1220703125,0.18310546875,0.42724609375,2.8948974609375,0.0714111328125,69.4171142578125,3.0,636.0,-1873.0,0.821807861328125,0.02044677734375,0.014892578125,0.5692138671875,2.897127713390891,0.0687701663619408,62.91303916701512,0.8527715824327983,0.02125126367146601,0.013703918897054185,0.5216715581611575,1
1782117324.708389,0.459,1024.0,1024.0,1020.0,1024.0,1018.0,1026.0,1020.0,1021.0,1008.0,1024.0,1018.0,1026.0,1020.0,1022.0,1008.0,1019.0,1025.0,1018.0,1026.0,1020.0,1022.0,1008.0,1021.0,1021.0,1025.0,1019.0,1026.0,1021.0,1021.0,1008.0,1019.0,1020.0,1020.0,1025.0,1019.0,1026.0,1020.0,1022.0,1008.0,1020.0,1020.0,1021.0,1024.0,1019.0,1026.0,1020.0,1021.0,1008.0,1019.0,1020.0,1021.0,1019.0,1025.0,1019.0,1026.0,1020.0,1021.0,1008.0,1020.0,1020.0,1020.0,1019.0,1025.0,1019.0,1026.0,1021.0,1022.0,1008.0,1020.0,1020.0,1021.0,1020.0,1025.0,1019.0,1026.0,1021.0,1022.0,1008.0,1020.0,1021.0,1021.0,1020.0,1025.0,1019.0,1026.0,1021.0,1022.0,1009.0,1020.0,1020.0,1022.0,1020.0,1025.0,1019.0,1026.0,1021.0,1022.0,1009.0,1020.0,1020.0,1021.0,1020.0,1025.0,1019.0,1026.0,1020.0,1022.0,1009.0,1020.0,1021.0,1021.0,1020.0,1026.0,1019.0,1027.0,1022.0,1024.0,1010.0,1021.0,1022.0,1024.0,1026.0,1020.0,1027.0,1021.0,1024.0,1010.0,1020.0,1023.0,1026.0,1019.0,1027.0,1021.0,1023.0,1010.0,1020.0,1027.0,1019.0,1027.0,1021.0,1024.0,1011.0,1021.0,1027.0,1020.0,1028.0,1021.0,1024.0,1010.0,1021.0,1026.0,1020.0,1027.0,1022.0,1024.0,1011.0,1026.0,1020.0,1027.0,1021.0,1022.0,1010.0,1027.0,1019.0,1028.0,1022.0,1025.0,1011.0,1029.0,1021.0,1030.0,1024.0,1028.0,1014.0,1028.0,1020.0,1029.0,1023.0,1024.0,1012.0,1029.0,1021.0,1030.0,1023.0,1026.0,1013.0,1031.0,1023.0,1031.0,1024.0,1027.0,1014.0,1034.0,1024.0,1033.0,1024.0,1028.0,1016.0,1037.0,1026.0,1034.0,1024.0,1029.0,1018.0,1045.0,1026.0,1036.0,1025.0,1028.0,1020.0,1053.0,1029.0,1041.0,1027.0,1030.0,1026.0,1057.0,1029.0,1041.0,1026.0,1027.0,1028.0,1075.0,1040.0,1057.0,1030.0,1029.0,1092.0,1071.0,1038.0,1055.0,1030.0,1029.0,2318,2255,1901,	00:30:15.580,-0.00830078125,0.0595703125,1.02099609375,0.0,0.3662109375,0.1220703125,3.3343505859375,0.5438232421875,-61.3751220703125,99.0,-575.0,-4018.0,-0.859527587890625,-0.027435302734375,0.0107421875,0.510223388671875,3.333566930038199,0.5455084139818827,-65.57985707192258,-0.8402216112646282,-0.027028824015279222,0.011751830614778901,0.541441576823783,1,	00:30:15.582,-0.00244140625,0.052734375,1.02197265625,-0.1220703125,0.1220703125,0.48828125,2.955322265625,0.1373291015625,69.422607421875,3.0,635.0,-1874.0,0.82177734375,0.0205078125,0.01568603515625,0.5692138671875,2.954658553819865,0.1400503255007249,62.91808360515944,0.8527457269146791,0.021354242745471822,0.014497198854851427,0.5216881758012979,1
1782117324.718233,0.469,1024.0,1025.0,1019.0,1024.0,1017.0,1026.0,1020.0,1021.0,1008.0,1025.0,1018.0,1026.0,1020.0,1022.0,1008.0,1020.0,1024.0,1018.0,1026.0,1021.0,1022.0,1008.0,1020.0,1020.0,1025.0,1018.0,1027.0,1021.0,1021.0,1008.0,1020.0,1020.0,1020.0,1024.0,1018.0,1026.0,1020.0,1022.0,1008.0,1020.0,1020.0,1020.0,1025.0,1018.0,1026.0,1020.0,1022.0,1008.0,1020.0,1020.0,1020.0,1019.0,1025.0,1019.0,1026.0,1020.0,1022.0,1008.0,1020.0,1020.0,1020.0,1019.0,1025.0,1018.0,1027.0,1020.0,1022.0,1009.0,1020.0,1021.0,1021.0,1020.0,1025.0,1018.0,1027.0,1021.0,1023.0,1009.0,1020.0,1021.0,1022.0,1020.0,1025.0,1019.0,1026.0,1021.0,1022.0,1009.0,1020.0,1020.0,1021.0,1020.0,1025.0,1018.0,1026.0,1021.0,1022.0,1008.0,1020.0,1020.0,1021.0,1020.0,1025.0,1018.0,1027.0,1021.0,1022.0,1009.0,1020.0,1020.0,1021.0,1020.0,1026.0,1019.0,1027.0,1021.0,1025.0,1010.0,1021.0,1023.0,1024.0,1025.0,1019.0,1028.0,1021.0,1024.0,1010.0,1021.0,1022.0,1026.0,1018.0,1028.0,1021.0,1023.0,1009.0,1020.0,1026.0,1019.0,1028.0,1021.0,1025.0,1010.0,1021.0,1026.0,1019.0,1027.0,1021.0,1024.0,1010.0,1021.0,1026.0,1019.0,1028.0,1021.0,1024.0,1011.0,1026.0,1020.0,1028.0,1021.0,1022.0,1009.0,1028.0,1020.0,1028.0,1022.0,1025.0,1012.0,1029.0,1020.0,1030.0,1023.0,1028.0,1014.0,1027.0,1020.0,1029.0,1022.0,1024.0,1012.0,1029.0,1022.0,1030.0,1023.0,1026.0,1013.0,1031.0,1023.0,1032.0,1024.0,1027.0,1015.0,1033.0,1024.0,1034.0,1024.0,1028.0,1016.0,1037.0,1025.0,1035.0,1025.0,1028.0,1018.0,1044.0,1026.0,1037.0,1025.0,1028.0,1020.0,1052.0,1030.0,1042.0,1027.0,1030.0,1025.0,1057.0,1029.0,1043.0,1026.0,1027.0,1027.0,1074.0,1040.0,1059.0,1030.0,1029.0,1090.0,1070.0,1039.0,1056.0,1030.0,1029.0,2318,2255,1901,	00:30:15.591,-0.0087890625,0.0595703125,1.02099609375,0.0,0.42724609375,0.06103515625,3.3453369140625,0.4559326171875,-61.36962890625,96.0,-575.0,-4019.0,-0.85955810546875,-0.027130126953125,0.011444091796875,0.510223388671875,3.3431591268483345,0.4585675292112272,-65.57891530293968,-0.8402385741033631,-0.026688636270967937,0.012434521114336171,0.5414168800170531,1,	00:30:15.592,-0.00244140625,0.0517578125,1.02099609375,-0.1220703125,0.18310546875,0.48828125,2.8619384765625,0.1373291015625,69.4281005859375,4.0,638.0,-1873.0,0.82177734375,0.019866943359375,0.01519775390625,0.56927490234375,2.862065298640615,0.13603831903435754,62.92283439622478,0.8527406533769772,0.020682877819574872,0.01404665742638797,0.5217358412630401,1
1782117324.728385,0.479,1024.0,1026.0,1020.0,1024.0,1017.0,1028.0,1020.0,1021.0,1009.0,1024.0,1018.0,1027.0,1020.0,1021.0,1008.0,1020.0,1024.0,1018.0,1027.0,1020.0,1022.0,1008.0,1020.0,1020.0,1024.0,1018.0,1027.0,1020.0,1021.0,1008.0,1020.0,1020.0,1020.0,1024.0,1018.0,1028.0,1021.0,1021.0,1008.0,1020.0,1020.0,1021.0,1025.0,1018.0,1028.0,1021.0,1021.0,1009.0,1020.0,1020.0,1021.0,1019.0,1025.0,1018.0,1028.0,1021.0,1022.0,1008.0,1020.0,1020.0,1020.0,1019.0,1025.0,1018.0,1028.0,1021.0,1022.0,1008.0,1021.0,1021.0,1021.0,1020.0,1024.0,1018.0,1028.0,1021.0,1022.0,1008.0,1020.0,1020.0,1021.0,1020.0,1025.0,1018.0,1027.0,1021.0,1022.0,1008.0,1020.0,1020.0,1021.0,1020.0,1025.0,1018.0,1027.0,1021.0,1022.0,1008.0,1019.0,1021.0,1021.0,1020.0,1025.0,1019.0,1028.0,1021.0,1022.0,1009.0,1020.0,1020.0,1021.0,1021.0,1026.0,1018.0,1028.0,1021.0,1025.0,1010.0,1021.0,1022.0,1024.0,1026.0,1018.0,1028.0,1021.0,1024.0,1010.0,1021.0,1022.0,1026.0,1019.0,1028.0,1021.0,1023.0,1009.0,1020.0,1026.0,1019.0,1029.0,1021.0,1024.0,1010.0,1021.0,1026.0,1019.0,1028.0,1021.0,1024.0,1010.0,1021.0,1026.0,1019.0,1028.0,1022.0,1025.0,1010.0,1026.0,1019.0,1029.0,1021.0,1022.0,1009.0,1027.0,1020.0,1029.0,1022.0,1025.0,1012.0,1029.0,1021.0,1031.0,1024.0,1028.0,1013.0,1027.0,1020.0,1030.0,1022.0,1024.0,1012.0,1029.0,1021.0,1031.0,1023.0,1026.0,1013.0,1030.0,1022.0,1033.0,1024.0,1027.0,1015.0,1033.0,1024.0,1035.0,1024.0,1028.0,1016.0,1036.0,1025.0,1035.0,1024.0,1029.0,1018.0,1044.0,1026.0,1037.0,1025.0,1028.0,1020.0,1052.0,1029.0,1042.0,1027.0,1030.0,1025.0,1057.0,1029.0,1043.0,1026.0,1027.0,1027.0,1075.0,1040.0,1058.0,1030.0,1030.0,1090.0,1070.0,1039.0,1056.0,1029.0,1029.0,2318,2255,1901,	00:30:15.601,-0.00830078125,0.06005859375,1.02099609375,0.0,0.42724609375,0.1220703125,3.4332275390625,0.4888916015625,-61.36962890625,98.0,-573.0,-4015.0,-0.859527587890625,-0.027923583984375,0.011627197265625,0.51019287109375,3.4313829071930617,0.48713094281554137,-65.57671955666729,-0.8402232458704617,-0.027470669896153464,0.012641358848894514,0.5413967634192283,1,	00:30:15.602,-0.0009765625,0.052734375,1.021484375,-0.1220703125,0.244140625,0.42724609375,2.9278564453125,0.076904296875,69.4281005859375,4.0,637.0,-1873.0,0.821746826171875,0.0206298828125,0.015106201171875,0.569305419921875,2.929882293679566,0.07803169312885123,62.92735288050932,0.8527013390019832,0.021451113402886544,0.013924632211915576,0.5217723457752089,1
1782117324.738717,0.490,1024.0,1026.0,1019.0,1024.0,1017.0,1028.0,1020.0,1021.0,1008.0,1024.0,1018.0,1027.0,1020.0,1021.0,1008.0,1020.0,1025.0,1018.0,1028.0,1020.0,1022.0,1008.0,1021.0,1020.0,1025.0,1018.0,1027.0,1021.0,1021.0,1008.0,1020.0,1019.0,1020.0,1025.0,1018.0,1027.0,1021.0,1022.0,1008.0,1020.0,1020.0,1021.0,1025.0,1018.0,1027.0,1021.0,1021.0,1008.0,1020.0,1020.0,1020.0,1019.0,1025.0,1018.0,1027.0,1020.0,1021.0,1008.0,1020.0,1020.0,1021.0,1019.0,1025.0,1018.0,1027.0,1020.0,1022.0,1008.0,1020.0,1021.0,1021.0,1020.0,1025.0,1018.0,1028.0,1021.0,1022.0,1008.0,1021.0,1020.0,1021.0,1020.0,1025.0,1018.0,1028.0,1020.0,1022.0,1009.0,1021.0,1020.0,1021.0,1020.0,1025.0,1018.0,1027.0,1021.0,1021.0,1008.0,1020.0,1020.0,1021.0,1020.0,1025.0,1018.0,1028.0,1021.0,1022.0,1009.0,1020.0,1021.0,1021.0,1020.0,1026.0,1019.0,1028.0,1021.0,1024.0,1010.0,1021.0,1023.0,1024.0,1026.0,1019.0,1028.0,1021.0,1024.0,1010.0,1021.0,1023.0,1026.0,1018.0,1028.0,1021.0,1023.0,1010.0,1021.0,1026.0,1019.0,1028.0,1021.0,1025.0,1010.0,1021.0,1026.0,1019.0,1028.0,1021.0,1024.0,1010.0,1021.0,1026.0,1019.0,1028.0,1021.0,1024.0,1011.0,1026.0,1018.0,1029.0,1021.0,1022.0,1010.0,1027.0,1019.0,1029.0,1022.0,1025.0,1011.0,1029.0,1021.0,1031.0,1024.0,1028.0,1013.0,1028.0,1020.0,1030.0,1022.0,1024.0,1012.0,1030.0,1021.0,1030.0,1023.0,1026.0,1013.0,1030.0,1022.0,1032.0,1023.0,1026.0,1014.0,1033.0,1023.0,1034.0,1024.0,1028.0,1015.0,1037.0,1025.0,1035.0,1024.0,1028.0,1018.0,1045.0,1026.0,1037.0,1025.0,1028.0,1020.0,1052.0,1029.0,1042.0,1026.0,1030.0,1025.0,1057.0,1029.0,1043.0,1025.0,1027.0,1026.0,1075.0,1040.0,1059.0,1029.0,1030.0,1090.0,1071.0,1039.0,1057.0,1029.0,1029.0,2319,2255,1901,	00:30:15.611,-0.00927734375,0.0595703125,1.0205078125,0.0,0.42724609375,0.1220703125,3.3453369140625,0.5218505859375,-61.36962890625,98.0,-573.0,-4015.0,-0.85955810546875,-0.027435302734375,0.010986328125,0.51019287109375,3.345321908698621,0.5225115085633734,-65.57600356822424,-0.8402409994333416,-0.027006804731567136,0.011975114284748989,0.5414076948172396,1,	00:30:15.612,-0.0009765625,0.0517578125,1.02099609375,-0.1220703125,0.18310546875,0.48828125,2.8564453125,0.02197265625,69.43359375,4.0,636.0,-1871.0,0.82171630859375,0.0203857421875,0.01434326171875,0.569366455078125,2.8584125426940328,0.02083023645410514,62.93226306036219,0.8526858778337056,0.02117919523660028,0.013174463999852925,0.5218281986730973,1
1782117324.748508,0.499,1025.0,1027.0,1019.0,1025.0,1017.0,1028.0,1020.0,1021.0,1008.0,1025.0,1017.0,1026.0,1021.0,1021.0,1008.0,1020.0,1025.0,1018.0,1026.0,1020.0,1022.0,1008.0,1020.0,1020.0,1025.0,1018.0,1027.0,1020.0,1021.0,1008.0,1020.0,1020.0,1021.0,1025.0,1018.0,1026.0,1020.0,1022.0,1008.0,1020.0,1020.0,1021.0,1025.0,1018.0,1026.0,1020.0,1022.0,1008.0,1020.0,1020.0,1021.0,1020.0,1025.0,1018.0,1026.0,1020.0,1021.0,1008.0,1020.0,1020.0,1020.0,1019.0,1026.0,1019.0,1026.0,1020.0,1022.0,1009.0,1021.0,1020.0,1021.0,1020.0,1025.0,1019.0,1027.0,1021.0,1022.0,1008.0,1021.0,1021.0,1021.0,1020.0,1025.0,1019.0,1027.0,1020.0,1022.0,1008.0,1020.0,1020.0,1021.0,1020.0,1025.0,1019.0,1027.0,1021.0,1022.0,1008.0,1020.0,1020.0,1021.0,1020.0,1025.0,1019.0,1027.0,1021.0,1022.0,1009.0,1020.0,1020.0,1021.0,1020.0,1026.0,1019.0,1028.0,1020.0,1024.0,1009.0,1021.0,1023.0,1024.0,1026.0,1019.0,1028.0,1021.0,1024.0,1009.0,1021.0,1022.0,1026.0,1019.0,1028.0,1020.0,1022.0,1010.0,1021.0,1027.0,1019.0,1028.0,1021.0,1024.0,1010.0,1021.0,1027.0,1019.0,1028.0,1021.0,1024.0,1010.0,1021.0,1027.0,1020.0,1028.0,1021.0,1024.0,1011.0,1027.0,1020.0,1027.0,1021.0,1022.0,1010.0,1028.0,1020.0,1029.0,1022.0,1025.0,1012.0,1030.0,1021.0,1030.0,1023.0,1028.0,1014.0,1028.0,1020.0,1029.0,1022.0,1025.0,1012.0,1030.0,1021.0,1031.0,1023.0,1026.0,1014.0,1031.0,1022.0,1032.0,1024.0,1027.0,1015.0,1034.0,1024.0,1033.0,1024.0,1028.0,1016.0,1037.0,1025.0,1035.0,1024.0,1029.0,1018.0,1045.0,1026.0,1038.0,1025.0,1028.0,1020.0,1052.0,1030.0,1041.0,1026.0,1029.0,1025.0,1057.0,1029.0,1042.0,1025.0,1027.0,1027.0,1075.0,1040.0,1059.0,1030.0,1029.0,1092.0,1071.0,1039.0,1056.0,1029.0,1028.0,2319,2255,1901,	00:30:15.621,-0.00830078125,0.05908203125,1.02001953125,0.06103515625,0.42724609375,0.18310546875,3.3013916015625,0.4449462890625,-61.36962890625,96.0,-574.0,-4014.0,-0.859588623046875,-0.026763916015625,0.0113525390625,0.510162353515625,3.3029517606902066,0.4457681772730542,-65.57428993006722,-0.8402718535291236,-0.026333860769303132,0.012337353239026516,0.5413848258482772,1,	00:30:15.623,-0.00146484375,0.0517578125,1.02099609375,-0.1220703125,0.244140625,0.42724609375,2.911376953125,0.098876953125,69.4390869140625,5.0,635.0,-1873.0,0.821685791015625,0.0203857421875,0.015167236328125,0.569366455078125,2.9103444290458524,0.0976973972417988,62.936706010298124,0.8526645560448343,0.021215036103963653,0.013983735668137865,0.5218405237663485,1
