Unix_Time_s,RelativeTime_s,P_1,P_2,P_3,P_4,P_5,P_6,P_7,P_8,P_9,P_10,P_11,P_12,P_13,P_14,P_15,P_16,P_17,P_18,P_19,P_20,P_21,P_22,P_23,P_24,P_25,P_26,P_27,P_28,P_29,P_30,P_31,P_32,P_33,P_34,P_35,P_36,P_37,P_38,P_39,P_40,P_41,P_42,P_43,P_44,P_45,P_46,P_47,P_48,P_49,P_50,P_51,P_52,P_53,P_54,P_55,P_56,P_57,P_58,P_59,P_60,P_61,P_62,P_63,P_64,P_65,P_66,P_67,P_68,P_69,P_70,P_71,P_72,P_73,P_74,P_75,P_76,P_77,P_78,P_79,P_80,P_81,P_82,P_83,P_84,P_85,P_86,P_87,P_88,P_89,P_90,P_91,P_92,P_93,P_94,P_95,P_96,P_97,P_98,P_99,P_100,P_101,P_102,P_103,P_104,P_105,P_106,P_107,P_108,P_109,P_110,P_111,P_112,P_113,P_114,P_115,P_116,P_117,P_118,P_119,P_120,P_121,P_122,P_123,P_124,P_125,P_126,P_127,P_128,P_129,P_130,P_131,P_132,P_133,P_134,P_135,P_136,P_137,P_138,P_139,P_140,P_141,P_142,P_143,P_144,P_145,P_146,P_147,P_148,P_149,P_150,P_151,P_152,P_153,P_154,P_155,P_156,P_157,P_158,P_159,P_160,P_161,P_162,P_163,P_164,P_165,P_166,P_167,P_168,P_169,P_170,P_171,P_172,P_173,P_174,P_175,P_176,P_177,P_178,P_179,P_180,P_181,P_182,P_183,P_184,P_185,P_186,P_187,P_188,P_189,P_190,P_191,P_192,P_193,P_194,P_195,P_196,P_197,P_198,P_199,P_200,P_201,P_202,P_203,P_204,P_205,P_206,P_207,P_208,P_209,P_210,P_211,P_212,P_213,P_214,P_215,P_216,P_217,P_218,P_219,P_220,P_221,P_222,P_223,P_224,P_225,P_226,P_227,P_228,P_229,P_230,P_231,P_232,P_233,Flex1,Flex2,Bat,IMU1_RefTime,IMU1_Ax,IMU1_Ay,IMU1_Az,IMU1_Wx,IMU1_Wy,IMU1_Wz,IMU1_Roll,IMU1_Pitch,IMU1_Yaw,IMU1_Hx,IMU1_Hy,IMU1_Hz,IMU1_Q0,IMU1_Q1,IMU1_Q2,IMU1_Q3,IMU2_RefTime,IMU2_Ax,IMU2_Ay,IMU2_Az,IMU2_Wx,IMU2_Wy,IMU2_Wz,IMU2_Roll,IMU2_Pitch,IMU2_Yaw,IMU2_Hx,IMU2_Hy,IMU2_Hz,IMU2_Q0,IMU2_Q1,IMU2_Q2,IMU2_Q3,IMU1_FusedRoll,IMU1_FusedPitch,IMU1_FusedYaw,IMU1_FusedQ0,IMU1_FusedQ1,IMU1_FusedQ2,IMU1_FusedQ3,IMU1_MagValid,IMU2_FusedRoll,IMU2_FusedPitch,IMU2_FusedYaw,IMU2_FusedQ0,IMU2_FusedQ1,IMU2_FusedQ2,IMU2_FusedQ3,IMU2_MagValid
1782117324.262189,0.013,1023.0,1024.0,1024.0,1023.0,1023.0,1023.0,1023.0,1024.0,1023.0,1024.0,1024.0,1024.0,1024.0,1024.0,1024.0,1024.0,1023.0,1024.0,1024.0,1023.0,1024.0,1023.0,1023.0,1023.0,1023.0,1024.0,1024.0,1024.0,1024.0,1024.0,1024.0,1024.0,1023.0,1023.0,1023.0,1023.0,1024.0,1024.0,1023.0,1023.0,1023.0,1022.0,1023.0,1023.0,1023.0,1024.0,1024.0,1024.0,1023.0,1022.0,1022.0,1023.0,1023.0,1024.0,1024.0,1023.0,1024.0,1023.0,1023.0,1023.0,1022.0,1023.0,1023.0,1024.0,1023.0,1023.0,1024.0,1023.0,1023.0,1022.0,1022.0,1023.0,1024.0,1023.0,1023.0,1023.0,1024.0,1023.0,1023.0,1022.0,1022.0,1023.0,1023.0,1024.0,1024.0,1024.0,1024.0,1023.0,1023.0,1024.0,1022.0,1023.0,1023.0,1024.0,1023.0,1024.0,1024.0,1023.0,1023.0,1023.0,1022.0,1024.0,1024.0,1024.0,1025.0,1024.0,1025.0,1023.0,1024.0,1024.0,1023.0,1024.0,1023.0,1024.0,1023.0,1023.0,1024.0,1022.0,1023.0,1021.0,1022.0,1023.0,1024.0,1023.0,1024.0,1024.0,1023.0,1023.0,1022.0,1023.0,1024.0,1023.0,1023.0,1024.0,1023.0,1023.0,1024.0,1024.0,1024.0,1024.0,1025.0,1024.0,1024.0,1023.0,1025.0,1024.0,1024.0,1024.0,1024.0,1023.0,1024.0,1025.0,1024.0,1024.0,1025.0,1024.0,1024.0,1025.0,1024.0,1025.0,1027.0,1024.0,1025.0,1028.0,1027.0,1027.0,1028.0,1026.0,1028.0,1033.0,1030.0,1031.0,1032.0,1026.0,1030.0,1036.0,1034.0,1032.0,1037.0,1028.0,1032.0,1039.0,1034.0,1031.0,1039.0,1029.0,1038.0,1045.0,1037.0,1032.0,1042.0,1032.0,1039.0,1045.0,1040.0,1032.0,1044.0,1032.0,1037.0,1039.0,1037.0,1029.0,1042.0,1031.0,1039.0,1039.0,1038.0,1030.0,1042.0,1032.0,1023.0,1023.0,1023.0,1023.0,1024.0,1022.0,1040.0,1043.0,1038.0,1031.0,1044.0,1035.0,1034.0,1038.0,1036.0,1030.0,1042.0,1032.0,1029.0,1031.0,1029.0,1027.0,1033.0,2083,2011,1909,	00:30:17.042,0.05419921875,0.05810546875,1.01806640625,-0.244140625,0.18310546875,0.06103515625,3.2080078125,-3.109130859375,46.988525390625,445.0,-1588.0,-2556.0,0.916107177734375,0.036468505859375,-0.013702392578125,0.399078369140625,3.2089981152443707,-3.106810896583127,42.490358253358174,0.9310554811967006,0.035906858989445394,-0.015114070822446646,0.3627918870017172,1,	00:30:17.043,0.0419921875,0.02978515625,1.005859375,-0.91552734375,-1.28173828125,-0.48828125,1.658935546875,-2.384033203125,167.1405029296875,-434.0,-1215.0,-1975.0,-0.11163330078125,-0.022308349609375,-0.012054443359375,-0.993438720703125,1.660316396487513,-2.3850440446886316,167.6726047696224,-0.10703513076299383,-0.022244735198777277,-0.012167280704393635,-0.9939318939538793,1
1782117324.272721,0.024,1023.0,1023.0,1024.0,1024.0,1023.0,1023.0,1023.0,1024.0,1023.0,1024.0,1024.0,1024.0,1023.0,1024.0,1023.0,1024.0,1023.0,1024.0,1024.0,1023.0,1024.0,1023.0,1024.0,1023.0,1024.0,1024.0,1024.0,1024.0,1024.0,1023.0,1024.0,1023.0,1023.0,1023.0,1024.0,1023.0,1024.0,1024.0,1023.0,1023.0,1022.0,1022.0,1023.0,1024.0,1023.0,1023.0,1024.0,1023.0,1022.0,1023.0,1022.0,1023.0,1023.0,1024.0,1024.0,1023.0,1024.0,1023.0,1023.0,1023.0,1023.0,1023.0,1023.0,1024.0,1023.0,1024.0,1024.0,1023.0,1023.0,1022.0,1022.0,1023.0,1023.0,1024.0,1023.0,1023.0,1024.0,1022.0,1023.0,1023.0,1022.0,1023.0,1023.0,1024.0,1024.0,1023.0,1024.0,1024.0,1024.0,1023.0,1023.0,1023.0,1023.0,1024.0,1024.0,1023.0,1024.0,1023.0,1023.0,1023.0,1023.0,1023.0,1024.0,1024.0,1024.0,1024.0,1024.0,1024.0,1024.0,1024.0,1023.0,1024.0,1022.0,1024.0,1023.0,1023.0,1024.0,1023.0,1023.0,1021.0,1022.0,1022.0,1024.0,1023.0,1023.0,1024.0,1024.0,1023.0,1022.0,1024.0,1024.0,1023.0,1023.0,1024.0,1023.0,1023.0,1024.0,1024.0,1024.0,1024.0,1025.0,1023.0,1024.0,1024.0,1024.0,1024.0,1023.0,1024.0,1023.0,1024.0,1024.0,1025.0,1024.0,1024.0,1025.0,1024.0,1024.0,1025.0,1025.0,1025.0,1026.0,1024.0,1025.0,1028.0,1026.0,1027.0,1029.0,1025.0,1027.0,1032.0,1030.0,1031.0,1032.0,1026.0,1030.0,1037.0,1034.0,1032.0,1037.0,1028.0,1032.0,1039.0,1034.0,1031.0,1038.0,1030.0,1038.0,1045.0,1038.0,1032.0,1041.0,1032.0,1039.0,1045.0,1040.0,1031.0,1044.0,1033.0,1037.0,1039.0,1037.0,1030.0,1041.0,1031.0,1038.0,1040.0,1038.0,1030.0,1041.0,1031.0,1023.0,1023.0,1023.0,1022.0,1024.0,1021.0,1041.0,1042.0,1039.0,1031.0,1044.0,1035.0,1034.0,1037.0,1036.0,1031.0,1042.0,1032.0,1029.0,1031.0,1029.0,1027.0,1033.0,2083,2011,1908,	00:30:17.052,0.05322265625,0.05810546875,1.017578125,-0.244140625,0.18310546875,0.06103515625,3.2464599609375,-3.021240234375,46.988525390625,446.0,-1589.0,-2558.0,0.916107177734375,0.0364990234375,-0.01287841796875,0.3990478515625,3.24769656555462,-3.0231087896891564,42.4888676590487,0.9310737185191936,0.035957130764742266,-0.014311539447984604,0.36277264955979965,1,	00:30:17.053,0.04248046875,0.0302734375,1.00537109375,-0.8544921875,-1.28173828125,-0.54931640625,1.73583984375,-2.43896484375,167.135009765625,-435.0,-1215.0,-1979.0,-0.1116943359375,-0.022857666015625,-0.01263427734375,-0.993408203125,1.7333959614678458,-2.439835714736222,167.6633161390557,-0.10709321789680977,-0.022789231972395612,-0.012747828051222918,-0.9939060249674471,1
1782117324.283680,0.035,1023.0,1024.0,1023.0,1023.0,1023.0,1023.0,1023.0,1024.0,1022.0,1023.0,1024.0,1024.0,1024.0,1025.0,1023.0,1024.0,1023.0,1024.0,1023.0,1023.0,1024.0,1023.0,1024.0,1024.0,1023.0,1024.0,1024.0,1023.0,1024.0,1023.0,1024.0,1023.0,1023.0,1023.0,1023.0,1023.0,1023.0,1024.0,1023.0,1023.0,1023.0,1023.0,1023.0,1024.0,1023.0,1023.0,1024.0,1023.0,1023.0,1022.0,1023.0,1024.0,1024.0,1024.0,1024.0,1024.0,1024.0,1023.0,1023.0,1023.0,1022.0,1023.0,1023.0,1023.0,1023.0,1024.0,1024.0,1023.0,1023.0,1022.0,1022.0,1023.0,1023.0,1023.0,1023.0,1024.0,1024.0,1024.0,1023.0,1022.0,1022.0,1024.0,1024.0,1024.0,1024.0,1023.0,1024.0,1023.0,1024.0,1023.0,1022.0,1023.0,1023.0,1024.0,1024.0,1024.0,1024.0,1023.0,1024.0,1023.0,1022.0,1023.0,1024.0,1024.0,1024.0,1024.0,1025.0,1023.0,1024.0,1024.0,1022.0,1024.0,1022.0,1024.0,1023.0,1023.0,1024.0,1023.0,1023.0,1021.0,1022.0,1023.0,1023.0,1023.0,1023.0,1024.0,1023.0,1023.0,1022.0,1023.0,1024.0,1024.0,1024.0,1024.0,1023.0,1023.0,1024.0,1024.0,1024.0,1024.0,1024.0,1024.0,1024.0,1023.0,1024.0,1024.0,1023.0,1024.0,1023.0,1024.0,1024.0,1024.0,1024.0,1024.0,1025.0,1024.0,1024.0,1025.0,1025.0,1026.0,1026.0,1024.0,1025.0,1027.0,1026.0,1028.0,1028.0,1026.0,1027.0,1032.0,1030.0,1031.0,1032.0,1027.0,1030.0,1036.0,1033.0,1033.0,1037.0,1028.0,1032.0,1039.0,1033.0,1031.0,1038.0,1029.0,1038.0,1045.0,1037.0,1032.0,1042.0,1032.0,1039.0,1045.0,1040.0,1032.0,1044.0,1032.0,1037.0,1040.0,1037.0,1030.0,1042.0,1031.0,1038.0,1040.0,1038.0,1030.0,1042.0,1032.0,1023.0,1024.0,1023.0,1023.0,1024.0,1022.0,1040.0,1042.0,1038.0,1032.0,1045.0,1035.0,1033.0,1038.0,1036.0,1031.0,1042.0,1033.0,1029.0,1031.0,1029.0,1027.0,1033.0,2084,2011,1909,	00:30:17.062,0.0537109375,0.05859375,1.017578125,-0.244140625,0.244140625,0.06103515625,3.3343505859375,-3.01025390625,46.9830322265625,446.0,-1589.0,-2558.0,0.916107177734375,0.037139892578125,-0.012451171875,0.399017333984375,3.3360274206507965,-3.0080817679755505,42.48483863091526,0.9310630771359626,0.03662694603124423,-0.013911019980306916,0.36274853099860294,1,	00:30:17.064,0.04296875,0.029296875,1.00634765625,-0.8544921875,-1.3427734375,-0.54931640625,1.6314697265625,-2.4609375,167.1295166015625,-435.0,-1214.0,-1982.0,-0.111724853515625,-0.022918701171875,-0.011749267578125,-0.993408203125,1.6335510547048395,-2.458716580540603,167.66132762762382,-0.10712756820755816,-0.022859870955901262,-0.011863676956157808,-0.9939116477830886,1
1782117324.292944,0.044,1024.0,1024.0,1023.0,1024.0,1024.0,1023.0,1023.0,1024.0,1023.0,1024.0,1024.0,1024.0,1024.0,1024.0,1023.0,1024.0,1024.0,1024.0,1023.0,1023.0,1024.0,1024.0,1023.0,1023.0,1024.0,1024.0,1024.0,1023.0,1024.0,1023.0,1024.0,1024.0,1023.0,1023.0,1024.0,1024.0,1023.0,1024.0,1023.0,1023.0,1022.0,1022.0,1023.0,1023.0,1023.0,1023.0,1024.0,1023.0,1023.0,1022.0,1022.0,1023.0,1023.0,1023.0,1023.0,1024.0,1024.0,1024.0,1023.0,1023.0,1022.0,1024.0,1023.0,1024.0,1024.0,1023.0,1024.0,1023.0,1023.0,1022.0,1022.0,1023.0,1023.0,1023.0,1024.0,1023.0,1024.0,1023.0,1024.0,1022.0,1023.0,1023.0,1023.0,1024.0,1024.0,1023.0,1024.0,1023.0,1024.0,1023.0,1022.0,1024.0,1023.0,1024.0,1023.0,1024.0,1024.0,1023.0,1024.0,1023.0,1023.0,1024.0,1023.0,1024.0,1024.0,1024.0,1025.0,1023.0,1025.0,1024.0,1023.0,1023.0,1023.0,1024.0,1023.0,1023.0,1024.0,1023.0,1023.0,1021.0,1022.0,1023.0,1024.0,1023.0,1023.0,1024.0,1023.0,1023.0,1022.0,1023.0,1023.0,1023.0,1024.0,1024.0,1023.0,1023.0,1024.0,1024.0,1024.0,1024.0,1025.0,1023.0,1024.0,1023.0,1024.0,1024.0,1024.0,1025.0,1024.0,1024.0,1024.0,1024.0,1024.0,1024.0,1025.0,1024.0,1024.0,1025.0,1024.0,1025.0,1026.0,1024.0,1025.0,1028.0,1026.0,1027.0,1028.0,1026.0,1027.0,1032.0,1029.0,1031.0,1032.0,1026.0,1030.0,1036.0,1034.0,1033.0,1037.0,1028.0,1032.0,1039.0,1034.0,1031.0,1038.0,1029.0,1037.0,1044.0,1038.0,1033.0,1042.0,1032.0,1039.0,1045.0,1040.0,1032.0,1044.0,1032.0,1037.0,1039.0,1037.0,1029.0,1041.0,1031.0,1038.0,1039.0,1038.0,1031.0,1042.0,1032.0,1023.0,1023.0,1023.0,1023.0,1024.0,1022.0,1041.0,1042.0,1039.0,1032.0,1045.0,1035.0,1034.0,1037.0,1036.0,1031.0,1042.0,1032.0,1028.0,1031.0,1029.0,1027.0,1033.0,2084,2011,1908,	00:30:17.073,0.0537109375,0.05810546875,1.017578125,-0.30517578125,0.18310546875,0.06103515625,3.240966796875,-3.0157470703125,46.988525390625,447.0,-1588.0,-2556.0,0.916107177734375,0.03643798828125,-0.01287841796875,0.3990478515625,3.241959744654646,-3.0176235337349073,42.49033758554202,0.9310725297606458,0.035893402838066205,-0.014284646049415666,0.3627830713319718,1,	00:30:17.074,0.0419921875,0.02978515625,1.005859375,-0.8544921875,-1.3427734375,-0.54931640625,1.6864013671875,-2.406005859375,167.1240234375,-432.0,-1215.0,-1976.0,-0.111785888671875,-0.022491455078125,-0.01226806640625,-0.993408203125,1.6867676269370648,-2.4039657719816594,167.6528351196099,-0.10719868005277837,-0.022435686497013514,-0.012375065835398616,-0.9939074105327514,1
1782117324.303947,0.055,1024.0,1024.0,1024.0,1023.0,1023.0,1024.0,1023.0,1024.0,1023.0,1023.0,1024.0,1024.0,1024.0,1025.0,1023.0,1024.0,1023.0,1024.0,1023.0,1023.0,1024.0,1023.0,1023.0,1023.0,1024.0,1024.0,1024.0,1023.0,1024.0,1023.0,1024.0,1024.0,1022.0,1024.0,1024.0,1024.0,1023.0,1024.0,1023.0,1023.0,1023.0,1022.0,1023.0,1023.0,1024.0,1023.0,1024.0,1023.0,1023.0,1022.0,1023.0,1023.0,1023.0,1023.0,1024.0,1023.0,1024.0,1023.0,1024.0,1023.0,1022.0,1023.0,1023.0,1024.0,1023.0,1023.0,1024.0,1023.0,1023.0,1022.0,1022.0,1023.0,1023.0,1023.0,1023.0,1023.0,1024.0,1023.0,1023.0,1022.0,1022.0,1023.0,1024.0,1024.0,1024.0,1023.0,1024.0,1024.0,1024.0,1023.0,1022.0,1024.0,1023.0,1024.0,1024.0,1024.0,1024.0,1023.0,1024.0,1023.0,1022.0,1024.0,1023.0,1024.0,1024.0,1024.0,1024.0,1023.0,1024.0,1024.0,1023.0,1024.0,1023.0,1023.0,1023.0,1022.0,1024.0,1023.0,1023.0,1021.0,1022.0,1023.0,1024.0,1023.0,1023.0,1024.0,1023.0,1023.0,1022.0,1023.0,1024.0,1023.0,1023.0,1024.0,1023.0,1023.0,1024.0,1024.0,1024.0,1024.0,1025.0,1023.0,1024.0,1024.0,1024.0,1024.0,1024.0,1025.0,1024.0,1024.0,1024.0,1024.0,1024.0,1024.0,1025.0,1024.0,1024.0,1025.0,1024.0,1025.0,1027.0,1024.0,1025.0,1027.0,1026.0,1027.0,1028.0,1026.0,1028.0,1033.0,1030.0,1031.0,1032.0,1027.0,1030.0,1037.0,1034.0,1033.0,1036.0,1028.0,1032.0,1038.0,1034.0,1031.0,1037.0,1030.0,1038.0,1044.0,1037.0,1032.0,1042.0,1033.0,1039.0,1045.0,1039.0,1032.0,1044.0,1033.0,1037.0,1038.0,1037.0,1030.0,1042.0,1031.0,1038.0,1039.0,1039.0,1030.0,1042.0,1031.0,1023.0,1023.0,1023.0,1023.0,1025.0,1022.0,1040.0,1042.0,1039.0,1031.0,1045.0,1036.0,1035.0,1038.0,1037.0,1031.0,1042.0,1033.0,1029.0,1031.0,1029.0,1026.0,1033.0,2084,2011,1908,	00:30:17.083,0.05419921875,0.05908203125,1.01708984375,-0.244140625,0.18310546875,0.06103515625,3.328857421875,-3.043212890625,46.988525390625,446.0,-1588.0,-2556.0,0.91607666015625,0.037200927734375,-0.012786865234375,0.3990478515625,3.3263240972791133,-3.044830872564719,42.486459760466424,0.9310497820120484,0.03666418178061715,-0.014239983783521135,0.3627661285890955,1,	00:30:17.084,0.04296875,0.0302734375,1.005859375,-0.91552734375,-1.28173828125,-0.54931640625,1.7413330078125,-2.48291015625,167.113037109375,-435.0,-1215.0,-1982.0,-0.111846923828125,-0.02325439453125,-0.01263427734375,-0.993377685546875,1.739337542366004,-2.4845055859541274,167.64434650187204,-0.10724978492984746,-0.02318430983880505,-0.012753526484466373,-0.993879931869041,1
1782117324.317987,0.069,1024.0,1024.0,1023.0,1024.0,1023.0,1024.0,1024.0,1024.0,1023.0,1023.0,1024.0,1024.0,1024.0,1024.0,1023.0,1024.0,1023.0,1024.0,1023.0,1024.0,1024.0,1023.0,1024.0,1023.0,1023.0,1024.0,1024.0,1024.0,1025.0,1023.0,1024.0,1024.0,1023.0,1023.0,1024.0,1023.0,1023.0,1023.0,1023.0,1024.0,1022.0,1022.0,1023.0,1023.0,1023.0,1023.0,1024.0,1022.0,1023.0,1022.0,1022.0,1023.0,1024.0,1024.0,1023.0,1024.0,1024.0,1023.0,1023.0,1023.0,1022.0,1024.0,1023.0,1024.0,1024.0,1023.0,1024.0,1023.0,1023.0,1022.0,1023.0,1023.0,1023.0,1024.0,1023.0,1023.0,1024.0,1023.0,1023.0,1022.0,1022.0,1023.0,1024.0,1024.0,1024.0,1024.0,1024.0,1023.0,1023.0,1023.0,1023.0,1024.0,1023.0,1024.0,1024.0,1024.0,1024.0,1023.0,1024.0,1023.0,1023.0,1023.0,1023.0,1024.0,1024.0,1024.0,1024.0,1024.0,1024.0,1024.0,1023.0,1024.0,1022.0,1024.0,1023.0,1023.0,1024.0,1023.0,1023.0,1021.0,1022.0,1023.0,1024.0,1023.0,1023.0,1024.0,1023.0,1023.0,1022.0,1023.0,1024.0,1023.0,1023.0,1024.0,1023.0,1023.0,1024.0,1024.0,1024.0,1024.0,1025.0,1024.0,1024.0,1024.0,1024.0,1023.0,1024.0,1025.0,1024.0,1024.0,1023.0,1024.0,1024.0,1024.0,1025.0,1024.0,1024.0,1025.0,1024.0,1025.0,1027.0,1024.0,1025.0,1027.0,1026.0,1027.0,1029.0,1025.0,1027.0,1033.0,1030.0,1031.0,1032.0,1027.0,1030.0,1037.0,1033.0,1032.0,1037.0,1028.0,1032.0,1038.0,1033.0,1032.0,1038.0,1029.0,1037.0,1044.0,1038.0,1032.0,1042.0,1032.0,1038.0,1045.0,1040.0,1032.0,1044.0,1032.0,1036.0,1039.0,1037.0,1029.0,1041.0,1031.0,1038.0,1039.0,1038.0,1030.0,1042.0,1032.0,1023.0,1023.0,1023.0,1022.0,1024.0,1022.0,1040.0,1042.0,1039.0,1031.0,1044.0,1036.0,1034.0,1037.0,1036.0,1031.0,1042.0,1033.0,1029.0,1030.0,1029.0,1027.0,1032.0,2084,2011,1908,	00:30:17.093,0.05322265625,0.05810546875,1.017578125,-0.244140625,0.18310546875,0.06103515625,3.2574462890625,-2.977294921875,46.988525390625,447.0,-1587.0,-2556.0,0.916107177734375,0.036407470703125,-0.01251220703125,0.3990478515625,3.2577548017638196,-2.9798111698328458,42.490648037695834,0.93107803226731,0.0359025256697367,-0.013927134504655896,0.3627819474619114,1,	00:30:17.094,0.0419921875,0.02978515625,1.0068359375,-0.8544921875,-1.28173828125,-0.48828125,1.69189453125,-2.4114990234375,167.113037109375,-435.0,-1215.0,-1979.0,-0.111907958984375,-0.0225830078125,-0.012298583984375,-0.993377685546875,1.6926800779680482,-2.4140156661995076,167.6407050935697,-0.10730124511789897,-0.02252969328620444,-0.012414507031839023,-0.9938937245660295,1
1782117324.323986,0.075,1024.0,1024.0,1024.0,1024.0,1023.0,1024.0,1023.0,1024.0,1023.0,1024.0,1024.0,1024.0,1024.0,1025.0,1023.0,1024.0,1023.0,1024.0,1024.0,1023.0,1024.0,1023.0,1024.0,1023.0,1023.0,1024.0,1024.0,1024.0,1024.0,1023.0,1024.0,1023.0,1023.0,1023.0,1024.0,1023.0,1023.0,1024.0,1023.0,1023.0,1022.0,1022.0,1023.0,1024.0,1023.0,1023.0,1024.0,1024.0,1023.0,1022.0,1022.0,1023.0,1024.0,1024.0,1024.0,1024.0,1024.0,1023.0,1024.0,1023.0,1022.0,1024.0,1023.0,1024.0,1023.0,1023.0,1024.0,1023.0,1024.0,1022.0,1022.0,1023.0,1023.0,1023.0,1023.0,1023.0,1024.0,1023.0,1023.0,1022.0,1022.0,1024.0,1023.0,1024.0,1024.0,1024.0,1024.0,1024.0,1024.0,1023.0,1023.0,1024.0,1023.0,1024.0,1024.0,1023.0,1024.0,1024.0,1024.0,1023.0,1022.0,1023.0,1024.0,1024.0,1024.0,1024.0,1024.0,1024.0,1024.0,1024.0,1023.0,1024.0,1023.0,1024.0,1023.0,1023.0,1024.0,1023.0,1023.0,1021.0,1022.0,1023.0,1024.0,1024.0,1023.0,1024.0,1023.0,1023.0,1022.0,1022.0,1024.0,1023.0,1023.0,1024.0,1023.0,1023.0,1024.0,1024.0,1024.0,1024.0,1025.0,1023.0,1024.0,1024.0,1024.0,1024.0,1024.0,1025.0,1023.0,1024.0,1024.0,1024.0,1024.0,1024.0,1025.0,1024.0,1024.0,1025.0,1024.0,1025.0,1025.0,1025.0,1025.0,1027.0,1026.0,1027.0,1028.0,1025.0,1027.0,1032.0,1029.0,1031.0,1032.0,1027.0,1030.0,1036.0,1034.0,1032.0,1037.0,1028.0,1032.0,1038.0,1033.0,1031.0,1039.0,1030.0,1037.0,1044.0,1038.0,1032.0,1042.0,1032.0,1039.0,1046.0,1039.0,1031.0,1044.0,1033.0,1037.0,1039.0,1037.0,1029.0,1041.0,1031.0,1038.0,1039.0,1038.0,1030.0,1042.0,1032.0,1024.0,1023.0,1023.0,1023.0,1024.0,1022.0,1041.0,1042.0,1038.0,1031.0,1044.0,1035.0,1034.0,1037.0,1036.0,1031.0,1042.0,1032.0,1029.0,1031.0,1029.0,1027.0,1033.0,2084,2011,1908,	00:30:17.103,0.0537109375,0.05810546875,1.017578125,-0.244140625,0.18310546875,0.1220703125,3.2794189453125,-3.065185546875,46.988525390625,445.0,-1587.0,-2559.0,0.91607666015625,0.036895751953125,-0.01312255859375,0.399078369140625,3.2801331549893114,-3.066084407611017,42.49066191474144,0.93104465237696,0.036356432341714616,-0.014557665965339387,0.3627976563723774,1,	00:30:17.104,0.04296875,0.0302734375,1.0068359375,-0.9765625,-1.220703125,-0.54931640625,1.746826171875,-2.4884033203125,167.10205078125,-433.0,-1213.0,-1980.0,-0.1119384765625,-0.023284912109375,-0.012725830078125,-0.99334716796875,1.7489871814928308,-2.489749261656689,167.63203902615518,-0.10735377602880922,-0.02324019556184637,-0.012829786320724845,-0.993866417918207,1
1782117324.333987,0.085,1024.0,1024.0,1023.0,1024.0,1024.0,1023.0,1023.0,1024.0,1023.0,1023.0,1024.0,1024.0,1023.0,1024.0,1024.0,1024.0,1023.0,1024.0,1024.0,1024.0,1024.0,1023.0,1024.0,1024.0,1024.0,1024.0,1024.0,1024.0,1025.0,1023.0,1024.0,1023.0,1022.0,1023.0,1023.0,1023.0,1023.0,1024.0,1023.0,1023.0,1022.0,1023.0,1023.0,1024.0,1022.0,1023.0,1024.0,1023.0,1023.0,1022.0,1022.0,1023.0,1023.0,1024.0,1023.0,1023.0,1024.0,1023.0,1024.0,1023.0,1022.0,1024.0,1023.0,1024.0,1023.0,1023.0,1024.0,1022.0,1023.0,1022.0,1022.0,1023.0,1023.0,1024.0,1023.0,1024.0,1024.0,1023.0,1023.0,1022.0,1022.0,1023.0,1023.0,1024.0,1024.0,1024.0,1024.0,1023.0,1024.0,1023.0,1022.0,1024.0,1023.0,1024.0,1024.0,1023.0,1024.0,1023.0,1024.0,1023.0,1022.0,1023.0,1024.0,1025.0,1024.0,1023.0,1024.0,1024.0,1024.0,1024.0,1023.0,1023.0,1023.0,1024.0,1023.0,1023.0,1024.0,1023.0,1023.0,1021.0,1022.0,1023.0,1024.0,1023.0,1023.0,1024.0,1023.0,1023.0,1022.0,1023.0,1024.0,1024.0,1023.0,1024.0,1022.0,1024.0,1024.0,1024.0,1024.0,1024.0,1024.0,1024.0,1024.0,1023.0,1024.0,1024.0,1024.0,1025.0,1023.0,1024.0,1024.0,1025.0,1024.0,1024.0,1025.0,1024.0,1024.0,1025.0,1024.0,1025.0,1026.0,1024.0,1025.0,1028.0,1026.0,1027.0,1028.0,1026.0,1028.0,1032.0,1029.0,1031.0,1032.0,1026.0,1030.0,1037.0,1034.0,1033.0,1037.0,1028.0,1032.0,1038.0,1033.0,1032.0,1038.0,1029.0,1038.0,1045.0,1037.0,1033.0,1042.0,1032.0,1039.0,1045.0,1040.0,1032.0,1043.0,1033.0,1037.0,1040.0,1037.0,1030.0,1041.0,1031.0,1038.0,1039.0,1038.0,1030.0,1042.0,1032.0,1023.0,1024.0,1023.0,1022.0,1024.0,1022.0,1040.0,1043.0,1038.0,1032.0,1045.0,1035.0,1035.0,1037.0,1036.0,1031.0,1042.0,1032.0,1029.0,1031.0,1030.0,1027.0,1032.0,2084,2011,1908,	00:30:17.113,0.05419921875,0.05810546875,1.01806640625,-0.244140625,0.18310546875,0.06103515625,3.22998046875,-2.9827880859375,46.9940185546875,446.0,-1588.0,-2557.0,0.916107177734375,0.036224365234375,-0.01263427734375,0.399078369140625,3.2321335664899338,-2.98496928833504,42.49377792334126,0.9310745760638369,0.03571099937668386,-0.014049207217970204,0.3628050138953586,1,	00:30:17.114,0.04296875,0.02978515625,1.00732421875,-0.9765625,-1.220703125,-0.48828125,1.669921875,-2.43896484375,167.10205078125,-435.0,-1216.0,-1978.0,-0.11199951171875,-0.022796630859375,-0.0120849609375,-0.993377685546875,1.670421533217803,-2.4415835907903616,167.62974637095894,-0.10739663334264622,-0.022749107114801766,-0.012193312603554524,-0.9938811621113947,1
1782117324.343771,0.095,1023.0,1024.0,1023.0,1023.0,1023.0,1024.0,1023.0,1024.0,1022.0,1023.0,1024.0,1024.0,1023.0,1024.0,1023.0,1024.0,1023.0,1024.0,1024.0,1023.0,1024.0,1023.0,1023.0,1024.0,1024.0,1024.0,1024.0,1024.0,1024.0,1023.0,1024.0,1024.0,1022.0,1023.0,1024.0,1023.0,1024.0,1024.0,1023.0,1023.0,1022.0,1022.0,1023.0,1024.0,1023.0,1023.0,1024.0,1023.0,1023.0,1023.0,1022.0,1024.0,1024.0,1024.0,1024.0,1024.0,1024.0,1023.0,1024.0,1023.0,1022.0,1024.0,1023.0,1024.0,1024.0,1024.0,1024.0,1023.0,1023.0,1023.0,1022.0,1024.0,1023.0,1023.0,1024.0,1023.0,1024.0,1023.0,1023.0,1023.0,1022.0,1023.0,1023.0,1024.0,1024.0,1024.0,1024.0,1023.0,1024.0,1023.0,1023.0,1024.0,1023.0,1024.0,1024.0,1024.0,1024.0,1023.0,1024.0,1023.0,1023.0,1024.0,1023.0,1025.0,1025.0,1024.0,1025.0,1023.0,1024.0,1024.0,1022.0,1024.0,1023.0,1023.0,1023.0,1023.0,1024.0,1023.0,1023.0,1021.0,1022.0,1023.0,1024.0,1022.0,1023.0,1024.0,1023.0,1023.0,1022.0,1023.0,1024.0,1023.0,1023.0,1024.0,1022.0,1023.0,1023.0,1024.0,1024.0,1024.0,1024.0,1023.0,1024.0,1024.0,1024.0,1024.0,1024.0,1024.0,1023.0,1024.0,1023.0,1025.0,1024.0,1024.0,1025.0,1024.0,1024.0,1025.0,1025.0,1025.0,1026.0,1024.0,1025.0,1028.0,1026.0,1027.0,1028.0,1025.0,1027.0,1032.0,1029.0,1031.0,1032.0,1027.0,1030.0,1036.0,1034.0,1033.0,1037.0,1028.0,1032.0,1039.0,1034.0,1031.0,1038.0,1029.0,1038.0,1045.0,1038.0,1032.0,1041.0,1033.0,1039.0,1045.0,1040.0,1032.0,1043.0,1033.0,1037.0,1040.0,1037.0,1029.0,1040.0,1031.0,1038.0,1039.0,1038.0,1030.0,1041.0,1031.0,1023.0,1024.0,1023.0,1022.0,1025.0,1022.0,1040.0,1042.0,1039.0,1031.0,1044.0,1035.0,1034.0,1037.0,1036.0,1030.0,1041.0,1032.0,1029.0,1031.0,1029.0,1027.0,1032.0,2084,2011,1908,	00:30:17.124,0.05322265625,0.0576171875,1.01806640625,-0.244140625,0.18310546875,0.06103515625,3.3123779296875,-3.0157470703125,46.988525390625,447.0,-1586.0,-2558.0,0.91607666015625,0.037017822265625,-0.012603759765625,0.399078369140625,3.3145120009144486,-3.0175120488815548,42.490049271067306,0.9310505645187215,0.03648250595245085,-0.014054136944493065,0.3627896832925999,1,	00:30:17.125,0.0419921875,0.02880859375,1.0068359375,-0.9765625,-1.220703125,-0.48828125,1.614990234375,-2.373046875,167.0965576171875,-432.0,-1218.0,-1977.0,-0.112030029296875,-0.02215576171875,-0.01165771484375,-0.993377685546875,1.614965364305857,-2.374409406829568,167.62642829106915,-0.10744594741741116,-0.022114883428277846,-0.011774996544702989,-0.9938951905361554,1
1782117324.357927,0.109,1023.0,1024.0,1024.0,1023.0,1023.0,1023.0,1023.0,1024.0,1023.0,1023.0,1024.0,1024.0,1024.0,1024.0,1023.0,1024.0,1023.0,1024.0,1024.0,1024.0,1024.0,1023.0,1024.0,1023.0,1024.0,1024.0,1024.0,1024.0,1024.0,1023.0,1024.0,1024.0,1023.0,1023.0,1023.0,1023.0,1023.0,1024.0,1023.0,1023.0,1023.0,1023.0,1023.0,1024.0,1023.0,1023.0,1023.0,1023.0,1024.0,1022.0,1022.0,1024.0,1024.0,1024.0,1023.0,1023.0,1023.0,1023.0,1023.0,1023.0,1022.0,1024.0,1023.0,1024.0,1023.0,1023.0,1024.0,1023.0,1023.0,1022.0,1023.0,1024.0,1023.0,1024.0,1024.0,1024.0,1024.0,1023.0,1024.0,1022.0,1022.0,1024.0,1023.0,1024.0,1024.0,1023.0,1024.0,1024.0,1023.0,1023.0,1023.0,1024.0,1024.0,1024.0,1024.0,1024.0,1024.0,1023.0,1024.0,1023.0,1023.0,1024.0,1024.0,1024.0,1024.0,1024.0,1025.0,1023.0,1024.0,1024.0,1023.0,1024.0,1023.0,1024.0,1022.0,1022.0,1023.0,1023.0,1023.0,1020.0,1022.0,1023.0,1024.0,1023.0,1024.0,1024.0,1023.0,1023.0,1022.0,1023.0,1024.0,1024.0,1023.0,1024.0,1023.0,1023.0,1024.0,1024.0,1024.0,1024.0,1025.0,1023.0,1024.0,1023.0,1024.0,1024.0,1024.0,1024.0,1024.0,1024.0,1024.0,1024.0,1024.0,1024.0,1025.0,1024.0,1024.0,1025.0,1024.0,1025.0,1026.0,1024.0,1025.0,1027.0,1026.0,1028.0,1028.0,1025.0,1027.0,1032.0,1029.0,1030.0,1032.0,1027.0,1030.0,1037.0,1034.0,1033.0,1037.0,1027.0,1032.0,1038.0,1034.0,1030.0,1038.0,1029.0,1037.0,1045.0,1038.0,1033.0,1041.0,1033.0,1040.0,1045.0,1040.0,1031.0,1043.0,1033.0,1037.0,1039.0,1037.0,1030.0,1040.0,1032.0,1038.0,1039.0,1038.0,1030.0,1041.0,1032.0,1023.0,1023.0,1023.0,1023.0,1024.0,1021.0,1040.0,1043.0,1039.0,1031.0,1044.0,1035.0,1034.0,1038.0,1036.0,1031.0,1041.0,1033.0,1029.0,1031.0,1030.0,1027.0,1033.0,2083,2011,1909,	00:30:17.134,0.0537109375,0.0576171875,1.01708984375,-0.244140625,0.18310546875,0.06103515625,3.218994140625,-3.0157470703125,46.9940185546875,445.0,-1588.0,-2555.0,0.916107177734375,0.0362548828125,-0.012939453125,0.39910888671875,3.2203818002034907,-3.0164175683324777,42.495589212192606,0.9310630104672766,0.03571493226604458,-0.014341517847501692,0.36282287003257324,1,	00:30:17.135,0.04248046875,0.029296875,1.00634765625,-0.9765625,-1.28173828125,-0.48828125,1.6754150390625,-2.4444580078125,167.091064453125,-434.0,-1215.0,-1980.0,-0.112091064453125,-0.0228271484375,-0.01214599609375,-0.99334716796875,1.6771718873004828,-2.444046178768974,167.61817137213387,-0.10749532327288944,-0.022778027986923913,-0.012247238053359451,-0.9938691674841051,1
1782117324.364438,0.115,1023.0,1024.0,1024.0,1023.0,1023.0,1024.0,1023.0,1024.0,1022.0,1024.0,1024.0,1024.0,1024.0,1025.0,1023.0,1024.0,1023.0,1024.0,1024.0,1024.0,1024.0,1023.0,1024.0,1023.0,1023.0,1024.0,1023.0,1024.0,1024.0,1023.0,1024.0,1023.0,1022.0,1024.0,1024.0,1023.0,1023.0,1024.0,1023.0,1023.0,1022.0,1023.0,1023.0,1024.0,1023.0,1024.0,1024.0,1023.0,1024.0,1022.0,1022.0,1024.0,1023.0,1024.0,1024.0,1024.0,1024.0,1023.0,1024.0,1023.0,1022.0,1024.0,1023.0,1024.0,1023.0,1023.0,1024.0,1023.0,1023.0,1023.0,1022.0,1023.0,1023.0,1024.0,1023.0,1023.0,1024.0,1023.0,1024.0,1022.0,1022.0,1024.0,1024.0,1024.0,1024.0,1023.0,1024.0,1023.0,1023.0,1023.0,1022.0,1024.0,1023.0,1024.0,1024.0,1023.0,1024.0,1023.0,1024.0,1023.0,1022.0,1023.0,1023.0,1024.0,1024.0,1024.0,1025.0,1023.0,1024.0,1024.0,1023.0,1024.0,1023.0,1023.0,1022.0,1023.0,1024.0,1023.0,1023.0,1021.0,1022.0,1023.0,1024.0,1023.0,1023.0,1024.0,1023.0,1023.0,1022.0,1023.0,1024.0,1023.0,1023.0,1024.0,1023.0,1023.0,1024.0,1024.0,1024.0,1024.0,1025.0,1024.0,1024.0,1024.0,1024.0,1024.0,1024.0,1024.0,1023.0,1024.0,1024.0,1025.0,1024.0,1024.0,1025.0,1023.0,1024.0,1025.0,1025.0,1025.0,1026.0,1024.0,1025.0,1028.0,1026.0,1027.0,1028.0,1026.0,1027.0,1032.0,1030.0,1031.0,1032.0,1027.0,1030.0,1036.0,1033.0,1033.0,1036.0,1028.0,1032.0,1039.0,1034.0,1031.0,1037.0,1030.0,1037.0,1045.0,1038.0,1032.0,1041.0,1033.0,1039.0,1045.0,1040.0,1032.0,1042.0,1033.0,1037.0,1039.0,1037.0,1029.0,1041.0,1032.0,1039.0,1039.0,1038.0,1030.0,1041.0,1032.0,1023.0,1023.0,1023.0,1022.0,1024.0,1022.0,1040.0,1042.0,1038.0,1031.0,1044.0,1035.0,1035.0,1037.0,1037.0,1030.0,1041.0,1032.0,1029.0,1031.0,1029.0,1027.0,1032.0,2083,2011,1907,	00:30:17.144,0.05322265625,0.05859375,1.01708984375,-0.244140625,0.18310546875,0.06103515625,3.306884765625,-2.9827880859375,46.9940185546875,445.0,-1586.0,-2561.0,0.916107177734375,0.03680419921875,-0.01239013671875,0.399078369140625,3.30480795538479,-2.9852880607173753,42.49175220733535,0.9310580577798935,0.036302244125807355,-0.01382234540100341,0.36279744056729224,1,	00:30:17.146,0.041015625,0.02880859375,1.005859375,-0.9765625,-1.220703125,-0.48828125,1.636962890625,-2.3675537109375,167.0855712890625,-434.0,-1215.0,-1979.0,-0.112152099609375,-0.02215576171875,-0.011871337890625,-0.993377685546875,1.6386890558489573,-2.3692275755680927,167.6141374219439,-0.10754871277975109,-0.022093471759757313,-0.011983276179400072,-0.993882062408326,1
1782117324.374908,0.126,1024.0,1023.0,1023.0,1023.0,1023.0,1023.0,1023.0,1024.0,1022.0,1024.0,1024.0,1024.0,1024.0,1024.0,1023.0,1024.0,1024.0,1024.0,1024.0,1023.0,1024.0,1023.0,1024.0,1023.0,1024.0,1024.0,1024.0,1024.0,1024.0,1023.0,1023.0,1023.0,1023.0,1022.0,1024.0,1023.0,1023.0,1024.0,1023.0,1023.0,1022.0,1022.0,1023.0,1023.0,1023.0,1023.0,1023.0,1023.0,1023.0,1022.0,1022.0,1024.0,1023.0,1024.0,1023.0,1023.0,1024.0,1023.0,1024.0,1023.0,1022.0,1023.0,1023.0,1024.0,1023.0,1023.0,1024.0,1023.0,1023.0,1022.0,1023.0,1023.0,1024.0,1024.0,1024.0,1023.0,1024.0,1023.0,1024.0,1022.0,1023.0,1024.0,1024.0,1024.0,1024.0,1023.0,1024.0,1024.0,1024.0,1023.0,1023.0,1023.0,1024.0,1024.0,1024.0,1024.0,1024.0,1023.0,1024.0,1023.0,1023.0,1024.0,1024.0,1024.0,1025.0,1024.0,1024.0,1024.0,1024.0,1024.0,1022.0,1024.0,1023.0,1023.0,1023.0,1023.0,1024.0,1023.0,1022.0,1021.0,1022.0,1023.0,1024.0,1023.0,1023.0,1024.0,1023.0,1024.0,1022.0,1024.0,1024.0,1023.0,1023.0,1024.0,1023.0,1023.0,1023.0,1024.0,1024.0,1024.0,1024.0,1024.0,1024.0,1024.0,1024.0,1024.0,1024.0,1024.0,1023.0,1024.0,1024.0,1024.0,1024.0,1024.0,1025.0,1024.0,1024.0,1025.0,1024.0,1025.0,1026.0,1024.0,1025.0,1027.0,1026.0,1027.0,1028.0,1026.0,1027.0,1032.0,1029.0,1030.0,1031.0,1027.0,1030.0,1036.0,1034.0,1033.0,1036.0,1029.0,1032.0,1038.0,1034.0,1031.0,1037.0,1030.0,1037.0,1045.0,1038.0,1032.0,1041.0,1033.0,1039.0,1045.0,1040.0,1032.0,1042.0,1033.0,1037.0,1039.0,1037.0,1029.0,1040.0,1032.0,1038.0,1039.0,1038.0,1030.0,1041.0,1032.0,1024.0,1023.0,1023.0,1022.0,1024.0,1022.0,1040.0,1042.0,1038.0,1031.0,1044.0,1035.0,1034.0,1037.0,1036.0,1031.0,1041.0,1033.0,1029.0,1031.0,1029.0,1027.0,1032.0,2083,2011,1907,	00:30:17.155,0.0537109375,0.05859375,1.01708984375,-0.244140625,0.244140625,0.1220703125,3.2794189453125,-3.0706787109375,46.9940185546875,446.0,-1588.0,-2559.0,0.91607666015625,0.03692626953125,-0.013153076171875,0.39910888671875,3.281274004642336,-3.0720898382090107,42.49422603294581,0.9310311548275032,0.03638509416261807,-0.014601744915776212,0.3628276487655783,1,	00:30:17.156,0.04150390625,0.0302734375,1.00634765625,-0.9765625,-1.220703125,-0.54931640625,1.7193603515625,-2.373046875,167.0745849609375,-434.0,-1214.0,-1979.0,-0.112213134765625,-0.022247314453125,-0.0125732421875,-0.99334716796875,1.7204117193616906,-2.371933456376793,167.60451857111607,-0.1076159497116271,-0.02219469817756581,-0.012687657985695504,-0.9938637864794698,1
1782117324.386026,0.137,1024.0,1024.0,1024.0,1023.0,1023.0,1024.0,1023.0,1024.0,1022.0,1023.0,1024.0,1024.0,1024.0,1025.0,1023.0,1024.0,1023.0,1024.0,1024.0,1023.0,1024.0,1024.0,1024.0,1023.0,1023.0,1024.0,1024.0,1023.0,1024.0,1023.0,1024.0,1023.0,1022.0,1023.0,1024.0,1023.0,1023.0,1024.0,1023.0,1024.0,1022.0,1023.0,1023.0,1024.0,1024.0,1023.0,1023.0,1023.0,1024.0,1023.0,1022.0,1023.0,1024.0,1024.0,1024.0,1023.0,1024.0,1023.0,1023.0,1023.0,1022.0,1024.0,1023.0,1024.0,1023.0,1023.0,1024.0,1023.0,1023.0,1022.0,1022.0,1024.0,1023.0,1024.0,1023.0,1023.0,1024.0,1023.0,1023.0,1022.0,1023.0,1024.0,1023.0,1024.0,1024.0,1023.0,1024.0,1023.0,1024.0,1023.0,1023.0,1023.0,1024.0,1024.0,1023.0,1024.0,1024.0,1023.0,1023.0,1023.0,1022.0,1023.0,1024.0,1025.0,1024.0,1024.0,1024.0,1024.0,1024.0,1024.0,1023.0,1023.0,1023.0,1023.0,1022.0,1022.0,1024.0,1023.0,1022.0,1021.0,1022.0,1023.0,1024.0,1023.0,1023.0,1024.0,1022.0,1023.0,1022.0,1023.0,1024.0,1023.0,1023.0,1024.0,1024.0,1023.0,1024.0,1024.0,1025.0,1024.0,1025.0,1024.0,1024.0,1023.0,1024.0,1024.0,1024.0,1024.0,1023.0,1024.0,1023.0,1025.0,1024.0,1024.0,1025.0,1024.0,1024.0,1025.0,1024.0,1025.0,1026.0,1024.0,1025.0,1028.0,1026.0,1027.0,1028.0,1025.0,1028.0,1032.0,1029.0,1031.0,1031.0,1027.0,1030.0,1036.0,1034.0,1032.0,1036.0,1029.0,1032.0,1039.0,1033.0,1031.0,1038.0,1029.0,1037.0,1045.0,1038.0,1032.0,1041.0,1033.0,1039.0,1045.0,1039.0,1032.0,1043.0,1033.0,1037.0,1039.0,1036.0,1029.0,1040.0,1031.0,1039.0,1039.0,1038.0,1030.0,1041.0,1032.0,1023.0,1024.0,1023.0,1022.0,1024.0,1022.0,1041.0,1043.0,1039.0,1031.0,1044.0,1035.0,1035.0,1038.0,1036.0,1031.0,1041.0,1032.0,1029.0,1030.0,1029.0,1027.0,1032.0,2083,2011,1908,	00:30:17.165,0.0537109375,0.05810546875,1.01708984375,-0.30517578125,0.18310546875,0.0,3.2574462890625,-2.9827880859375,46.9940185546875,445.0,-1587.0,-2556.0,0.916107177734375,0.03643798828125,-0.01251220703125,0.39910888671875,3.2590863902466585,-2.980789241460929,42.495338568597504,0.9310624698895326,0.035916999955101565,-0.0139294002894339,0.3628203661386793,1,	00:30:17.166,0.04248046875,0.0302734375,1.005859375,-0.9765625,-1.28173828125,-0.54931640625,1.7193603515625,-2.4774169921875,167.069091796875,-433.0,-1211.0,-1979.0,-0.11224365234375,-0.023162841796875,-0.012451171875,-0.99334716796875,1.7179565385523656,-2.4758908734561347,167.59834800159766,-0.1076543530410477,-0.02309463223481847,-0.0125669259001517,-0.9938406565474528,1
1782117324.398781,0.150,1023.0,1024.0,1023.0,1023.0,1023.0,1023.0,1023.0,1024.0,1023.0,1023.0,1024.0,1024.0,1023.0,1024.0,1023.0,1024.0,1023.0,1023.0,1024.0,1024.0,1024.0,1023.0,1024.0,1023.0,1024.0,1024.0,1024.0,1024.0,1024.0,1023.0,1024.0,1023.0,1022.0,1023.0,1023.0,1023.0,1023.0,1024.0,1023.0,1023.0,1022.0,1022.0,1024.0,1023.0,1024.0,1023.0,1024.0,1022.0,1023.0,1022.0,1022.0,1023.0,1023.0,1024.0,1023.0,1023.0,1024.0,1023.0,1023.0,1023.0,1023.0,1024.0,1023.0,1024.0,1024.0,1023.0,1024.0,1023.0,1023.0,1022.0,1022.0,1023.0,1023.0,1024.0,1023.0,1023.0,1024.0,1023.0,1023.0,1022.0,1022.0,1023.0,1023.0,1024.0,1024.0,1023.0,1024.0,1023.0,1023.0,1023.0,1024.0,1024.0,1023.0,1024.0,1023.0,1024.0,1024.0,1023.0,1024.0,1023.0,1022.0,1023.0,1024.0,1024.0,1024.0,1024.0,1024.0,1023.0,1024.0,1024.0,1023.0,1024.0,1023.0,1024.0,1022.0,1023.0,1024.0,1023.0,1023.0,1021.0,1022.0,1023.0,1024.0,1024.0,1024.0,1024.0,1023.0,1023.0,1022.0,1023.0,1024.0,1023.0,1023.0,1024.0,1023.0,1024.0,1024.0,1024.0,1024.0,1024.0,1024.0,1024.0,1024.0,1023.0,1024.0,1024.0,1024.0,1024.0,1024.0,1024.0,1024.0,1025.0,1024.0,1024.0,1025.0,1024.0,1024.0,1025.0,1024.0,1025.0,1026.0,1024.0,1025.0,1028.0,1026.0,1028.0,1028.0,1025.0,1028.0,1032.0,1030.0,1031.0,1032.0,1027.0,1030.0,1036.0,1034.0,1032.0,1036.0,1028.0,1032.0,1038.0,1034.0,1031.0,1037.0,1029.0,1037.0,1045.0,1039.0,1032.0,1040.0,1033.0,1039.0,1045.0,1039.0,1032.0,1043.0,1033.0,1037.0,1040.0,1037.0,1030.0,1041.0,1031.0,1038.0,1039.0,1037.0,1030.0,1041.0,1032.0,1023.0,1023.0,1023.0,1023.0,1024.0,1022.0,1040.0,1043.0,1039.0,1031.0,1045.0,1035.0,1034.0,1037.0,1036.0,1031.0,1042.0,1033.0,1029.0,1031.0,1030.0,1027.0,1033.0,2083,2011,1908,	00:30:17.175,0.05419921875,0.05810546875,1.017578125,-0.30517578125,0.18310546875,0.06103515625,3.2684326171875,-3.0706787109375,46.9940185546875,445.0,-1585.0,-2556.0,0.91607666015625,0.036834716796875,-0.01318359375,0.39910888671875,3.268987968343481,-3.069579073600405,42.495369789205355,0.9310322024314568,0.03627750004081972,-0.01461987199152045,0.3628350043330589,1,	00:30:17.176,0.04248046875,0.029296875,1.00634765625,-0.91552734375,-1.28173828125,-0.54931640625,1.64794921875,-2.4169921875,167.0635986328125,-433.0,-1214.0,-1977.0,-0.1123046875,-0.0225830078125,-0.011932373046875,-0.99334716796875,1.6499805335294193,-2.418551187038572,167.59498528507214,-0.10770551376984464,-0.02253384638958048,-0.01203089691100716,-0.9938546199469928,1
1782117324.405903,0.157,1023.0,1024.0,1024.0,1023.0,1024.0,1023.0,1024.0,1024.0,1022.0,1024.0,1024.0,1024.0,1024.0,1024.0,1023.0,1024.0,1024.0,1024.0,1024.0,1024.0,1024.0,1023.0,1024.0,1023.0,1023.0,1024.0,1024.0,1024.0,1024.0,1023.0,1023.0,1023.0,1023.0,1023.0,1024.0,1023.0,1024.0,1024.0,1023.0,1023.0,1022.0,1022.0,1023.0,1024.0,1024.0,1023.0,1024.0,1023.0,1024.0,1022.0,1022.0,1023.0,1024.0,1024.0,1024.0,1023.0,1024.0,1023.0,1024.0,1023.0,1022.0,1024.0,1023.0,1023.0,1023.0,1023.0,1024.0,1023.0,1023.0,1022.0,1022.0,1024.0,1023.0,1023.0,1024.0,1023.0,1024.0,1023.0,1023.0,1023.0,1023.0,1023.0,1023.0,1024.0,1024.0,1024.0,1024.0,1023.0,1024.0,1023.0,1022.0,1024.0,1024.0,1024.0,1024.0,1024.0,1024.0,1024.0,1024.0,1023.0,1023.0,1024.0,1024.0,1024.0,1025.0,1024.0,1024.0,1024.0,1024.0,1024.0,1023.0,1024.0,1023.0,1024.0,1023.0,1023.0,1024.0,1023.0,1023.0,1021.0,1022.0,1023.0,1024.0,1023.0,1023.0,1024.0,1023.0,1023.0,1022.0,1023.0,1024.0,1023.0,1024.0,1024.0,1023.0,1023.0,1024.0,1024.0,1024.0,1024.0,1024.0,1024.0,1024.0,1024.0,1024.0,1024.0,1024.0,1025.0,1024.0,1024.0,1024.0,1024.0,1024.0,1024.0,1025.0,1024.0,1024.0,1025.0,1024.0,1025.0,1026.0,1024.0,1025.0,1027.0,1026.0,1027.0,1028.0,1026.0,1027.0,1032.0,1029.0,1031.0,1032.0,1027.0,1030.0,1036.0,1034.0,1032.0,1036.0,1028.0,1032.0,1038.0,1033.0,1032.0,1038.0,1029.0,1037.0,1044.0,1038.0,1032.0,1042.0,1033.0,1039.0,1045.0,1040.0,1032.0,1043.0,1033.0,1036.0,1040.0,1037.0,1029.0,1041.0,1032.0,1038.0,1040.0,1038.0,1030.0,1042.0,1031.0,1023.0,1024.0,1023.0,1023.0,1024.0,1022.0,1040.0,1042.0,1039.0,1031.0,1044.0,1035.0,1034.0,1038.0,1037.0,1031.0,1041.0,1033.0,1029.0,1031.0,1030.0,1026.0,1032.0,2083,2011,1907,	00:30:17.185,0.0537109375,0.0576171875,1.0185546875,-0.244140625,0.18310546875,0.1220703125,3.218994140625,-2.98828125,46.99951171875,444.0,-1585.0,-2559.0,0.916107177734375,0.036163330078125,-0.0126953125,0.39910888671875,3.221697391438724,-2.9880766564051435,42.49905911715033,0.9310601684143667,0.03563665487996704,-0.014105868786305674,0.36284709739360005,1,	00:30:17.186,0.04248046875,0.02978515625,1.005859375,-0.91552734375,-1.3427734375,-0.48828125,1.7303466796875,-2.427978515625,167.05810546875,-433.0,-1214.0,-1978.0,-0.11236572265625,-0.02276611328125,-0.01263427734375,-0.993316650390625,1.7327321702303646,-2.4292974529071776,167.5858365337526,-0.10776693544235641,-0.022705831513189875,-0.012736628848025804,-0.9938352535135013,1
1782117324.419983,0.171,1024.0,1024.0,1024.0,1023.0,1023.0,1023.0,1023.0,1024.0,1022.0,1024.0,1024.0,1024.0,1024.0,1025.0,1024.0,1024.0,1023.0,1024.0,1023.0,1023.0,1024.0,1023.0,1023.0,1023.0,1023.0,1024.0,1024.0,1024.0,1024.0,1023.0,1024.0,1023.0,1023.0,1023.0,1024.0,1023.0,1023.0,1024.0,1023.0,1023.0,1022.0,1023.0,1023.0,1024.0,1023.0,1023.0,1024.0,1023.0,1023.0,1022.0,1022.0,1023.0,1023.0,1024.0,1024.0,1024.0,1024.0,1023.0,1023.0,1023.0,1022.0,1024.0,1023.0,1024.0,1023.0,1023.0,1024.0,1023.0,1023.0,1022.0,1022.0,1023.0,1023.0,1024.0,1023.0,1024.0,1024.0,1023.0,1023.0,1022.0,1022.0,1023.0,1023.0,1024.0,1024.0,1024.0,1024.0,1023.0,1024.0,1023.0,1022.0,1023.0,1023.0,1024.0,1024.0,1024.0,1024.0,1023.0,1023.0,1023.0,1022.0,1023.0,1023.0,1024.0,1024.0,1024.0,1024.0,1023.0,1024.0,1024.0,1023.0,1024.0,1023.0,1024.0,1023.0,1023.0,1024.0,1023.0,1022.0,1021.0,1022.0,1023.0,1023.0,1023.0,1023.0,1024.0,1023.0,1023.0,1022.0,1024.0,1024.0,1023.0,1023.0,1024.0,1023.0,1023.0,1024.0,1025.0,1025.0,1024.0,1024.0,1024.0,1024.0,1024.0,1024.0,1024.0,1024.0,1024.0,1023.0,1024.0,1024.0,1024.0,1024.0,1024.0,1025.0,1024.0,1024.0,1025.0,1024.0,1025.0,1026.0,1024.0,1025.0,1028.0,1026.0,1027.0,1029.0,1025.0,1027.0,1031.0,1029.0,1031.0,1032.0,1027.0,1031.0,1037.0,1033.0,1033.0,1037.0,1028.0,1032.0,1038.0,1033.0,1032.0,1038.0,1030.0,1037.0,1045.0,1037.0,1032.0,1042.0,1032.0,1039.0,1045.0,1040.0,1032.0,1043.0,1033.0,1037.0,1040.0,1036.0,1029.0,1041.0,1032.0,1038.0,1039.0,1038.0,1030.0,1042.0,1032.0,1023.0,1023.0,1023.0,1022.0,1024.0,1022.0,1040.0,1042.0,1038.0,1032.0,1044.0,1036.0,1035.0,1038.0,1036.0,1031.0,1042.0,1032.0,1029.0,1031.0,1029.0,1026.0,1033.0,2083,2011,1908,	00:30:17.195,0.05322265625,0.05810546875,1.017578125,-0.244140625,0.18310546875,0.1220703125,3.3123779296875,-2.98828125,46.9940185546875,446.0,-1590.0,-2557.0,0.91607666015625,0.036865234375,-0.01239013671875,0.39910888671875,3.3108046901567696,-2.988468573965355,42.49560637506654,0.9310429895036652,0.03636146333694863,-0.01382799351247744,0.3628299633099404,1,	00:30:17.197,0.04150390625,0.02978515625,1.005859375,-0.79345703125,-1.28173828125,-0.54931640625,1.680908203125,-2.362060546875,167.0526123046875,-433.0,-1216.0,-1979.0,-0.1124267578125,-0.022125244140625,-0.012237548828125,-0.99334716796875,1.681402065958396,-2.361440690197001,167.5817723634427,-0.10782231772569485,-0.022069515484349038,-0.01235485217046079,-0.9938483998650857,1
1782117324.425509,0.177,1024.0,1023.0,1023.0,1023.0,1024.0,1024.0,1023.0,1024.0,1023.0,1023.0,1024.0,1024.0,1024.0,1024.0,1023.0,1024.0,1024.0,1024.0,1024.0,1023.0,1024.0,1023.0,1024.0,1023.0,1024.0,1024.0,1024.0,1024.0,1024.0,1023.0,1024.0,1024.0,1022.0,1023.0,1024.0,1023.0,1023.0,1024.0,1023.0,1023.0,1023.0,1022.0,1024.0,1024.0,1024.0,1023.0,1024.0,1023.0,1023.0,1022.0,1022.0,1024.0,1024.0,1024.0,1024.0,1023.0,1024.0,1023.0,1023.0,1023.0,1023.0,1023.0,1023.0,1024.0,1024.0,1024.0,1024.0,1023.0,1023.0,1022.0,1022.0,1023.0,1023.0,1024.0,1023.0,1023.0,1023.0,1023.0,1023.0,1022.0,1022.0,1023.0,1024.0,1024.0,1024.0,1024.0,1024.0,1023.0,1024.0,1023.0,1023.0,1024.0,1023.0,1024.0,1024.0,1024.0,1024.0,1024.0,1024.0,1023.0,1023.0,1024.0,1024.0,1024.0,1025.0,1024.0,1025.0,1024.0,1024.0,1024.0,1023.0,1023.0,1023.0,1023.0,1022.0,1023.0,1024.0,1023.0,1022.0,1021.0,1022.0,1023.0,1024.0,1023.0,1023.0,1024.0,1023.0,1023.0,1022.0,1023.0,1023.0,1023.0,1023.0,1024.0,1023.0,1023.0,1024.0,1024.0,1024.0,1024.0,1025.0,1023.0,1024.0,1024.0,1025.0,1024.0,1024.0,1024.0,1023.0,1024.0,1023.0,1024.0,1024.0,1024.0,1025.0,1024.0,1024.0,1025.0,1025.0,1025.0,1026.0,1024.0,1025.0,1027.0,1026.0,1027.0,1028.0,1025.0,1028.0,1032.0,1029.0,1031.0,1031.0,1027.0,1030.0,1036.0,1034.0,1033.0,1037.0,1029.0,1032.0,1038.0,1033.0,1031.0,1038.0,1030.0,1038.0,1045.0,1038.0,1032.0,1041.0,1032.0,1039.0,1045.0,1040.0,1031.0,1043.0,1033.0,1037.0,1039.0,1037.0,1029.0,1041.0,1032.0,1038.0,1039.0,1038.0,1030.0,1041.0,1032.0,1023.0,1024.0,1023.0,1023.0,1024.0,1021.0,1040.0,1042.0,1038.0,1031.0,1044.0,1035.0,1034.0,1037.0,1036.0,1031.0,1042.0,1033.0,1028.0,1031.0,1029.0,1027.0,1032.0,2083,2010,1908,	00:30:17.206,0.05322265625,0.056640625,1.01806640625,-0.244140625,0.18310546875,0.06103515625,3.218994140625,-2.98828125,46.99951171875,445.0,-1586.0,-2557.0,0.91607666015625,0.036102294921875,-0.0126953125,0.399139404296875,3.216678148943567,-2.986323912035483,42.50109875378768,0.9310557969031203,0.03559059534562853,-0.014106879168428675,0.3628627957453984,1,	00:30:17.207,0.04248046875,0.029296875,1.005859375,-0.732421875,-1.28173828125,-0.48828125,1.6534423828125,-2.4609375,167.047119140625,-433.0,-1215.0,-1979.0,-0.112457275390625,-0.022979736328125,-0.01190185546875,-0.993316650390625,1.653436601049576,-2.4633271814079776,167.57739551109785,-0.10785088534564434,-0.022927254747598675,-0.012015029716686323,-0.9938300491436182,1
1782117324.435635,0.187,1024.0,1024.0,1023.0,1024.0,1023.0,1024.0,1023.0,1024.0,1023.0,1023.0,1024.0,1024.0,1024.0,1024.0,1023.0,1024.0,1023.0,1024.0,1024.0,1023.0,1024.0,1023.0,1023.0,1023.0,1024.0,1024.0,1024.0,1023.0,1024.0,1023.0,1024.0,1024.0,1023.0,1024.0,1024.0,1023.0,1023.0,1024.0,1023.0,1023.0,1023.0,1022.0,1023.0,1024.0,1023.0,1023.0,1024.0,1023.0,1024.0,1023.0,1022.0,1023.0,1024.0,1024.0,1023.0,1024.0,1024.0,1023.0,1023.0,1023.0,1022.0,1024.0,1023.0,1024.0,1023.0,1023.0,1024.0,1023.0,1024.0,1022.0,1023.0,1024.0,1023.0,1024.0,1023.0,1023.0,1024.0,1023.0,1023.0,1023.0,1022.0,1024.0,1023.0,1024.0,1024.0,1023.0,1024.0,1023.0,1024.0,1023.0,1022.0,1023.0,1023.0,1024.0,1024.0,1023.0,1024.0,1023.0,1024.0,1023.0,1022.0,1023.0,1024.0,1024.0,1024.0,1024.0,1025.0,1024.0,1024.0,1024.0,1023.0,1023.0,1023.0,1024.0,1022.0,1023.0,1024.0,1022.0,1023.0,1021.0,1022.0,1023.0,1024.0,1023.0,1024.0,1024.0,1023.0,1023.0,1022.0,1024.0,1024.0,1023.0,1023.0,1024.0,1023.0,1023.0,1024.0,1024.0,1024.0,1024.0,1025.0,1024.0,1024.0,1024.0,1024.0,1024.0,1024.0,1024.0,1024.0,1024.0,1024.0,1024.0,1024.0,1024.0,1025.0,1024.0,1024.0,1025.0,1024.0,1025.0,1026.0,1024.0,1025.0,1027.0,1026.0,1027.0,1028.0,1025.0,1028.0,1031.0,1029.0,1031.0,1032.0,1027.0,1031.0,1036.0,1034.0,1033.0,1037.0,1028.0,1032.0,1038.0,1033.0,1031.0,1038.0,1029.0,1038.0,1044.0,1038.0,1032.0,1041.0,1032.0,1039.0,1045.0,1040.0,1032.0,1043.0,1033.0,1037.0,1040.0,1037.0,1030.0,1041.0,1032.0,1039.0,1040.0,1038.0,1030.0,1042.0,1032.0,1023.0,1023.0,1023.0,1022.0,1024.0,1022.0,1040.0,1042.0,1039.0,1032.0,1044.0,1035.0,1034.0,1037.0,1036.0,1031.0,1042.0,1032.0,1029.0,1031.0,1029.0,1027.0,1032.0,2082,2010,1908,	00:30:17.216,0.0546875,0.05859375,1.01708984375,-0.30517578125,0.18310546875,0.06103515625,3.27392578125,-3.0487060546875,46.99951171875,444.0,-1587.0,-2557.0,0.91607666015625,0.03680419921875,-0.01300048828125,0.399139404296875,3.2759342337492203,-3.0514496064636836,42.49853016755584,0.931025568985786,0.03627715669701644,-0.014449491562520551,0.36285888440309416,1,	00:30:17.217,0.041015625,0.02978515625,1.00634765625,-0.67138671875,-1.28173828125,-0.54931640625,1.6754150390625,-2.3895263671875,167.0416259765625,-433.0,-1215.0,-1976.0,-0.112518310546875,-0.022369384765625,-0.012176513671875,-0.993316650390625,1.6749776437180035,-2.3887286215297343,167.57033967678368,-0.1079187159981898,-0.022301346173828562,-0.012271089246582049,-0.9938337995182291,1
1782117324.448094,0.199,1023.0,1024.0,1023.0,1023.0,1023.0,1023.0,1024.0,1024.0,1022.0,1024.0,1024.0,1024.0,1023.0,1024.0,1023.0,1023.0,1023.0,1024.0,1024.0,1023.0,1024.0,1023.0,1023.0,1023.0,1023.0,1024.0,1024.0,1023.0,1024.0,1023.0,1024.0,1024.0,1023.0,1023.0,1023.0,1023.0,1023.0,1024.0,1022.0,1023.0,1023.0,1022.0,1023.0,1023.0,1024.0,1023.0,1024.0,1023.0,1023.0,1022.0,1023.0,1023.0,1024.0,1024.0,1024.0,1023.0,1024.0,1023.0,1023.0,1023.0,1023.0,1024.0,1023.0,1024.0,1023.0,1023.0,1024.0,1023.0,1023.0,1022.0,1022.0,1024.0,1023.0,1023.0,1023.0,1023.0,1024.0,1023.0,1024.0,1022.0,1022.0,1024.0,1024.0,1024.0,1024.0,1024.0,1024.0,1023.0,1023.0,1024.0,1022.0,1024.0,1024.0,1024.0,1024.0,1023.0,1024.0,1023.0,1024.0,1023.0,1022.0,1023.0,1024.0,1024.0,1024.0,1024.0,1025.0,1024.0,1024.0,1024.0,1023.0,1024.0,1023.0,1023.0,1022.0,1023.0,1024.0,1023.0,1023.0,1021.0,1022.0,1023.0,1024.0,1023.0,1023.0,1024.0,1023.0,1023.0,1022.0,1024.0,1023.0,1023.0,1023.0,1024.0,1023.0,1024.0,1024.0,1025.0,1024.0,1024.0,1024.0,1023.0,1024.0,1024.0,1024.0,1023.0,1024.0,1025.0,1024.0,1024.0,1024.0,1024.0,1024.0,1024.0,1025.0,1024.0,1024.0,1025.0,1024.0,1025.0,1026.0,1024.0,1025.0,1027.0,1026.0,1027.0,1029.0,1025.0,1028.0,1031.0,1029.0,1030.0,1032.0,1027.0,1031.0,1036.0,1034.0,1032.0,1037.0,1029.0,1032.0,1038.0,1034.0,1031.0,1038.0,1029.0,1038.0,1044.0,1038.0,1032.0,1042.0,1033.0,1039.0,1044.0,1040.0,1031.0,1042.0,1033.0,1037.0,1040.0,1037.0,1029.0,1041.0,1031.0,1038.0,1039.0,1038.0,1030.0,1042.0,1032.0,1023.0,1023.0,1022.0,1022.0,1024.0,1022.0,1040.0,1042.0,1038.0,1031.0,1045.0,1036.0,1034.0,1037.0,1036.0,1030.0,1042.0,1033.0,1029.0,1031.0,1030.0,1026.0,1033.0,2082,2010,1909,	00:30:17.226,0.05322265625,0.0576171875,1.01806640625,-0.3662109375,0.18310546875,0.06103515625,3.2244873046875,-2.9718017578125,46.99951171875,445.0,-1589.0,-2558.0,0.91607666015625,0.0361328125,-0.012542724609375,0.399139404296875,3.2264925345483997,-2.9704604776700614,42.50164525117588,0.9310557785771396,0.035620359589728395,-0.013946667602744028,0.36286611528715856,1,	00:30:17.227,0.0419921875,0.02978515625,1.00634765625,-0.67138671875,-1.28173828125,-0.48828125,1.7578125,-2.4005126953125,167.0306396484375,-434.0,-1215.0,-1979.0,-0.112579345703125,-0.022552490234375,-0.012908935546875,-0.993316650390625,1.7601836235314128,-2.3997660987805336,167.56124965753511,-0.10797925046247606,-0.022478333977941915,-0.012997825692657984,-0.9938139979384478,1
1782117324.456785,0.208,1023.0,1024.0,1024.0,1023.0,1024.0,1024.0,1023.0,1024.0,1023.0,1024.0,1024.0,1024.0,1024.0,1024.0,1023.0,1024.0,1024.0,1024.0,1024.0,1024.0,1024.0,1023.0,1024.0,1023.0,1023.0,1024.0,1024.0,1023.0,1024.0,1023.0,1024.0,1023.0,1023.0,1023.0,1023.0,1023.0,1024.0,1024.0,1023.0,1023.0,1022.0,1023.0,1024.0,1023.0,1024.0,1023.0,1024.0,1023.0,1023.0,1022.0,1022.0,1023.0,1024.0,1023.0,1023.0,1023.0,1024.0,1023.0,1024.0,1023.0,1022.0,1023.0,1023.0,1024.0,1023.0,1024.0,1024.0,1023.0,1023.0,1022.0,1022.0,1024.0,1023.0,1023.0,1023.0,1024.0,1024.0,1023.0,1023.0,1022.0,1022.0,1023.0,1023.0,1024.0,1024.0,1024.0,1024.0,1023.0,1023.0,1023.0,1022.0,1024.0,1024.0,1024.0,1024.0,1024.0,1024.0,1023.0,1024.0,1023.0,1023.0,1024.0,1024.0,1024.0,1024.0,1024.0,1025.0,1024.0,1024.0,1024.0,1023.0,1024.0,1023.0,1023.0,1023.0,1023.0,1024.0,1023.0,1023.0,1021.0,1022.0,1023.0,1024.0,1024.0,1024.0,1024.0,1023.0,1023.0,1022.0,1023.0,1024.0,1023.0,1023.0,1024.0,1023.0,1023.0,1024.0,1024.0,1024.0,1024.0,1025.0,1024.0,1024.0,1024.0,1024.0,1024.0,1024.0,1025.0,1024.0,1024.0,1024.0,1025.0,1024.0,1024.0,1025.0,1024.0,1024.0,1025.0,1025.0,1025.0,1026.0,1024.0,1025.0,1027.0,1026.0,1027.0,1028.0,1025.0,1027.0,1031.0,1029.0,1031.0,1032.0,1027.0,1031.0,1036.0,1034.0,1032.0,1037.0,1028.0,1032.0,1038.0,1034.0,1031.0,1038.0,1030.0,1037.0,1044.0,1038.0,1032.0,1041.0,1032.0,1039.0,1045.0,1040.0,1032.0,1043.0,1032.0,1037.0,1039.0,1037.0,1029.0,1041.0,1032.0,1038.0,1040.0,1039.0,1030.0,1041.0,1032.0,1023.0,1024.0,1023.0,1023.0,1024.0,1022.0,1040.0,1042.0,1039.0,1032.0,1044.0,1035.0,1034.0,1038.0,1036.0,1031.0,1042.0,1032.0,1029.0,1031.0,1030.0,1027.0,1033.0,2082,2010,1908,	00:30:17.236,0.052734375,0.05859375,1.01708984375,-0.30517578125,0.244140625,0.06103515625,3.3123779296875,-2.9608154296875,46.99951171875,445.0,-1588.0,-2556.0,0.91607666015625,0.03680419921875,-0.01214599609375,0.39910888671875,3.3145854187175305,-2.958588987014374,42.49767691618203,0.9310442681759711,0.03629818434036913,-0.013572455934797731,0.3628426669372844,1,	00:30:17.237,0.04248046875,0.03125,1.00732421875,-0.67138671875,-1.28173828125,-0.48828125,1.82373046875,-2.471923828125,167.025146484375,-433.0,-1214.0,-1980.0,-0.11260986328125,-0.023223876953125,-0.01336669921875,-0.9932861328125,1.8241427904493477,-2.470973540243226,167.5529813959832,-0.10802713208364897,-0.023157076209758664,-0.01348334393987089,-0.9937867417063866,1
1782117324.467052,0.218,1024.0,1024.0,1024.0,1023.0,1023.0,1024.0,1023.0,1024.0,1022.0,1024.0,1024.0,1024.0,1024.0,1024.0,1023.0,1024.0,1024.0,1024.0,1023.0,1024.0,1024.0,1023.0,1023.0,1023.0,1023.0,1024.0,1024.0,1023.0,1024.0,1024.0,1023.0,1023.0,1023.0,1024.0,1024.0,1023.0,1023.0,1024.0,1023.0,1023.0,1023.0,1023.0,1023.0,1023.0,1023.0,1023.0,1024.0,1022.0,1023.0,1022.0,1023.0,1024.0,1024.0,1024.0,1023.0,1023.0,1024.0,1023.0,1024.0,1023.0,1022.0,1024.0,1023.0,1024.0,1024.0,1023.0,1024.0,1023.0,1023.0,1022.0,1022.0,1023.0,1023.0,1023.0,1023.0,1024.0,1024.0,1023.0,1023.0,1022.0,1022.0,1023.0,1023.0,1024.0,1024.0,1024.0,1024.0,1024.0,1024.0,1023.0,1023.0,1024.0,1023.0,1024.0,1024.0,1023.0,1024.0,1023.0,1023.0,1023.0,1022.0,1023.0,1024.0,1024.0,1024.0,1024.0,1025.0,1023.0,1024.0,1024.0,1024.0,1024.0,1023.0,1023.0,1023.0,1023.0,1024.0,1023.0,1023.0,1021.0,1022.0,1023.0,1024.0,1024.0,1024.0,1024.0,1023.0,1023.0,1022.0,1023.0,1024.0,1023.0,1023.0,1024.0,1023.0,1023.0,1024.0,1024.0,1024.0,1024.0,1025.0,1024.0,1024.0,1024.0,1024.0,1024.0,1024.0,1024.0,1024.0,1024.0,1024.0,1024.0,1024.0,1024.0,1025.0,1024.0,1024.0,1025.0,1024.0,1026.0,1026.0,1024.0,1025.0,1027.0,1026.0,1027.0,1029.0,1025.0,1028.0,1032.0,1029.0,1031.0,1032.0,1027.0,1030.0,1036.0,1034.0,1033.0,1036.0,1028.0,1032.0,1038.0,1034.0,1031.0,1038.0,1029.0,1037.0,1044.0,1038.0,1032.0,1041.0,1032.0,1038.0,1044.0,1040.0,1031.0,1043.0,1032.0,1037.0,1039.0,1036.0,1030.0,1041.0,1031.0,1038.0,1039.0,1038.0,1030.0,1042.0,1032.0,1023.0,1023.0,1023.0,1022.0,1024.0,1022.0,1040.0,1042.0,1039.0,1031.0,1044.0,1034.0,1035.0,1037.0,1036.0,1031.0,1042.0,1032.0,1029.0,1031.0,1030.0,1026.0,1033.0,2083,2010,1908,	00:30:17.247,0.0537109375,0.05712890625,1.01708984375,-0.30517578125,0.18310546875,0.1220703125,3.22998046875,-3.0047607421875,47.0050048828125,445.0,-1585.0,-2559.0,0.91607666015625,0.03631591796875,-0.012786865234375,0.399169921875,3.232701680711586,-3.003872604602371,42.50310086510631,0.9310391773402562,0.03577639350419565,-0.014198177935562207,0.3628836062275643,1,	00:30:17.248,0.04296875,0.02978515625,1.00732421875,-0.67138671875,-1.220703125,-0.54931640625,1.7303466796875,-2.4609375,167.0196533203125,-434.0,-1211.0,-1980.0,-0.1126708984375,-0.023040771484375,-0.012542724609375,-0.9932861328125,1.7282554439968183,-2.4627932063837137,167.55094543026073,-0.10806536506743764,-0.02299595949368976,-0.012659114112801753,-0.9937971672075169,1
1782117324.477040,0.228,1023.0,1024.0,1023.0,1023.0,1023.0,1024.0,1024.0,1024.0,1022.0,1023.0,1024.0,1024.0,1023.0,1025.0,1023.0,1024.0,1024.0,1024.0,1023.0,1024.0,1024.0,1023.0,1024.0,1023.0,1024.0,1024.0,1024.0,1024.0,1024.0,1023.0,1024.0,1023.0,1023.0,1023.0,1024.0,1023.0,1023.0,1024.0,1023.0,1023.0,1023.0,1022.0,1023.0,1023.0,1023.0,1023.0,1024.0,1023.0,1023.0,1022.0,1022.0,1023.0,1023.0,1023.0,1023.0,1023.0,1024.0,1023.0,1024.0,1023.0,1023.0,1023.0,1023.0,1024.0,1023.0,1023.0,1024.0,1022.0,1023.0,1022.0,1022.0,1023.0,1023.0,1024.0,1023.0,1023.0,1024.0,1023.0,1023.0,1023.0,1023.0,1023.0,1023.0,1024.0,1024.0,1024.0,1024.0,1023.0,1024.0,1023.0,1022.0,1023.0,1023.0,1024.0,1023.0,1023.0,1024.0,1023.0,1024.0,1023.0,1023.0,1024.0,1024.0,1024.0,1024.0,1024.0,1025.0,1024.0,1024.0,1024.0,1022.0,1023.0,1023.0,1024.0,1023.0,1023.0,1023.0,1023.0,1023.0,1021.0,1022.0,1023.0,1024.0,1023.0,1023.0,1024.0,1023.0,1023.0,1022.0,1023.0,1023.0,1024.0,1023.0,1024.0,1023.0,1023.0,1024.0,1024.0,1024.0,1024.0,1024.0,1024.0,1024.0,1023.0,1024.0,1024.0,1024.0,1025.0,1024.0,1024.0,1024.0,1025.0,1024.0,1024.0,1025.0,1024.0,1024.0,1025.0,1025.0,1025.0,1026.0,1024.0,1025.0,1028.0,1026.0,1028.0,1029.0,1026.0,1027.0,1032.0,1029.0,1031.0,1032.0,1027.0,1030.0,1036.0,1034.0,1032.0,1036.0,1028.0,1032.0,1038.0,1034.0,1031.0,1038.0,1029.0,1038.0,1043.0,1038.0,1032.0,1041.0,1033.0,1038.0,1044.0,1040.0,1032.0,1043.0,1032.0,1037.0,1039.0,1036.0,1030.0,1042.0,1031.0,1038.0,1039.0,1038.0,1030.0,1042.0,1032.0,1023.0,1023.0,1023.0,1022.0,1024.0,1021.0,1040.0,1042.0,1038.0,1031.0,1045.0,1035.0,1034.0,1037.0,1036.0,1030.0,1042.0,1032.0,1029.0,1031.0,1029.0,1026.0,1033.0,2083,2010,1909,	00:30:17.257,0.05322265625,0.05908203125,1.01708984375,-0.30517578125,0.18310546875,0.1220703125,3.31787109375,-2.98828125,46.99951171875,443.0,-1587.0,-2557.0,0.91607666015625,0.036956787109375,-0.012359619140625,0.399139404296875,3.3203002165961073,-2.9888358260802708,42.499682109916755,0.9310269561625284,0.03644026240915026,-0.013799617431926849,0.3628642786676887,1,	00:30:17.258,0.04150390625,0.02978515625,1.0068359375,-0.732421875,-1.220703125,-0.42724609375,1.69189453125,-2.3895263671875,167.0196533203125,-434.0,-1214.0,-1977.0,-0.112701416015625,-0.022369384765625,-0.0123291015625,-0.9932861328125,1.6926735608053491,-2.38783114524163,167.54750183919754,-0.10811346977634435,-0.02231270414957262,-0.012420966243842488,-0.9938105153820935,1
1782117324.488092,0.239,1023.0,1024.0,1024.0,1024.0,1024.0,1024.0,1023.0,1024.0,1023.0,1023.0,1024.0,1024.0,1024.0,1024.0,1023.0,1024.0,1024.0,1024.0,1024.0,1024.0,1024.0,1023.0,1024.0,1024.0,1024.0,1024.0,1023.0,1024.0,1024.0,1023.0,1024.0,1024.0,1022.0,1023.0,1024.0,1023.0,1023.0,1024.0,1023.0,1023.0,1022.0,1022.0,1023.0,1023.0,1023.0,1023.0,1024.0,1023.0,1023.0,1022.0,1022.0,1023.0,1024.0,1023.0,1024.0,1024.0,1024.0,1023.0,1023.0,1023.0,1022.0,1024.0,1023.0,1023.0,1023.0,1023.0,1024.0,1023.0,1024.0,1022.0,1023.0,1024.0,1023.0,1024.0,1023.0,1023.0,1024.0,1023.0,1023.0,1023.0,1022.0,1024.0,1024.0,1024.0,1024.0,1024.0,1024.0,1023.0,1024.0,1023.0,1022.0,1023.0,1024.0,1024.0,1024.0,1024.0,1024.0,1023.0,1023.0,1023.0,1023.0,1023.0,1024.0,1024.0,1025.0,1024.0,1024.0,1024.0,1024.0,1024.0,1023.0,1023.0,1023.0,1023.0,1023.0,1024.0,1024.0,1023.0,1023.0,1021.0,1022.0,1024.0,1024.0,1023.0,1024.0,1024.0,1023.0,1023.0,1022.0,1023.0,1024.0,1023.0,1024.0,1024.0,1023.0,1023.0,1024.0,1024.0,1024.0,1024.0,1025.0,1024.0,1024.0,1024.0,1024.0,1024.0,1024.0,1025.0,1024.0,1023.0,1024.0,1024.0,1024.0,1024.0,1025.0,1024.0,1025.0,1024.0,1024.0,1025.0,1026.0,1024.0,1025.0,1027.0,1026.0,1028.0,1028.0,1026.0,1028.0,1031.0,1029.0,1031.0,1032.0,1027.0,1031.0,1035.0,1033.0,1033.0,1037.0,1029.0,1033.0,1037.0,1033.0,1031.0,1038.0,1030.0,1037.0,1043.0,1037.0,1032.0,1041.0,1032.0,1039.0,1043.0,1039.0,1032.0,1043.0,1032.0,1036.0,1039.0,1036.0,1029.0,1041.0,1031.0,1039.0,1038.0,1038.0,1030.0,1042.0,1032.0,1024.0,1023.0,1023.0,1022.0,1024.0,1021.0,1040.0,1042.0,1039.0,1031.0,1044.0,1034.0,1034.0,1037.0,1037.0,1031.0,1042.0,1032.0,1029.0,1030.0,1029.0,1026.0,1033.0,2083,2010,1909,	00:30:17.267,0.0537109375,0.0576171875,1.0166015625,-0.3662109375,0.244140625,0.06103515625,3.22998046875,-3.021240234375,47.0050048828125,447.0,-1587.0,-2557.0,0.91607666015625,0.036346435546875,-0.012908935546875,0.399169921875,3.2314621679223037,-3.0205833153525394,42.50489760196981,0.9310288135985575,0.035819264921001466,-0.014337391587730293,0.36290049285202375,1,	00:30:17.268,0.04150390625,0.03076171875,1.005859375,-0.732421875,-1.15966796875,-0.54931640625,1.768798828125,-2.362060546875,167.0086669921875,-435.0,-1217.0,-1979.0,-0.112762451171875,-0.022216796875,-0.01300048828125,-0.9932861328125,1.7694752418056565,-2.362126883908785,167.5381858758841,-0.10818323080757729,-0.022163318299367865,-0.013109625356885696,-0.9937974208142208,1
1782117324.511049,0.262,1024.0,1024.0,1023.0,1023.0,1023.0,1024.0,1023.0,1024.0,1023.0,1024.0,1024.0,1024.0,1024.0,1024.0,1023.0,1024.0,1024.0,1023.0,1024.0,1023.0,1024.0,1023.0,1024.0,1023.0,1024.0,1024.0,1024.0,1023.0,1024.0,1023.0,1024.0,1023.0,1023.0,1023.0,1024.0,1023.0,1023.0,1024.0,1023.0,1023.0,1023.0,1022.0,1023.0,1023.0,1024.0,1023.0,1024.0,1023.0,1023.0,1022.0,1022.0,1024.0,1024.0,1023.0,1024.0,1023.0,1024.0,1023.0,1023.0,1023.0,1022.0,1024.0,1023.0,1023.0,1023.0,1023.0,1024.0,1023.0,1023.0,1022.0,1022.0,1023.0,1023.0,1023.0,1023.0,1023.0,1024.0,1023.0,1023.0,1022.0,1022.0,1023.0,1024.0,1023.0,1023.0,1024.0,1024.0,1023.0,1024.0,1023.0,1023.0,1024.0,1023.0,1024.0,1024.0,1024.0,1024.0,1023.0,1023.0,1023.0,1023.0,1023.0,1024.0,1025.0,1024.0,1024.0,1024.0,1024.0,1024.0,1024.0,1023.0,1024.0,1023.0,1024.0,1023.0,1023.0,1024.0,1023.0,1022.0,1021.0,1022.0,1023.0,1024.0,1024.0,1024.0,1024.0,1023.0,1023.0,1022.0,1023.0,1024.0,1023.0,1023.0,1024.0,1023.0,1023.0,1024.0,1024.0,1024.0,1024.0,1024.0,1023.0,1024.0,1024.0,1024.0,1024.0,1024.0,1025.0,1023.0,1023.0,1024.0,1024.0,1024.0,1024.0,1025.0,1024.0,1024.0,1025.0,1024.0,1025.0,1025.0,1024.0,1026.0,1027.0,1026.0,1027.0,1028.0,1026.0,1028.0,1032.0,1029.0,1031.0,1031.0,1026.0,1030.0,1036.0,1034.0,1033.0,1036.0,1028.0,1033.0,1038.0,1034.0,1032.0,1038.0,1030.0,1038.0,1044.0,1038.0,1033.0,1041.0,1032.0,1038.0,1044.0,1040.0,1032.0,1042.0,1032.0,1037.0,1039.0,1036.0,1029.0,1040.0,1031.0,1039.0,1039.0,1038.0,1031.0,1041.0,1032.0,1023.0,1023.0,1023.0,1023.0,1024.0,1022.0,1040.0,1043.0,1038.0,1031.0,1044.0,1035.0,1034.0,1037.0,1037.0,1030.0,1041.0,1032.0,1029.0,1031.0,1029.0,1027.0,1033.0,2083,2010,1909,	00:30:17.277,0.05322265625,0.05810546875,1.01708984375,-0.30517578125,0.18310546875,0.06103515625,3.3013916015625,-2.9608154296875,46.99951171875,445.0,-1587.0,-2558.0,0.91607666015625,0.036712646484375,-0.01220703125,0.399139404296875,3.300566127767998,-2.96217721395849,42.50184215168555,0.9310344323303914,0.03619609310075394,-0.013644701814433363,0.36287539289935694,1,	00:30:17.278,0.0419921875,0.0302734375,1.00634765625,-0.67138671875,-1.15966796875,-0.54931640625,1.680908203125,-2.4169921875,167.0086669921875,-432.0,-1216.0,-1978.0,-0.11279296875,-0.02264404296875,-0.01220703125,-0.9932861328125,1.6831333599940146,-2.418667176959732,167.53566663505939,-0.10821342825902026,-0.02257238555245289,-0.012306638806321643,-0.9937951941905294,1
1782117324.512571,0.264,1024.0,1024.0,1024.0,1023.0,1023.0,1024.0,1023.0,1024.0,1022.0,1024.0,1023.0,1024.0,1024.0,1024.0,1023.0,1024.0,1024.0,1024.0,1024.0,1024.0,1024.0,1023.0,1024.0,1023.0,1023.0,1024.0,1024.0,1024.0,1024.0,1023.0,1023.0,1024.0,1023.0,1024.0,1024.0,1023.0,1023.0,1024.0,1023.0,1023.0,1022.0,1022.0,1023.0,1024.0,1023.0,1023.0,1024.0,1023.0,1023.0,1022.0,1023.0,1023.0,1023.0,1023.0,1024.0,1023.0,1024.0,1023.0,1023.0,1023.0,1022.0,1023.0,1023.0,1024.0,1023.0,1023.0,1024.0,1024.0,1023.0,1022.0,1022.0,1023.0,1023.0,1024.0,1023.0,1023.0,1024.0,1023.0,1023.0,1022.0,1022.0,1023.0,1023.0,1024.0,1024.0,1024.0,1024.0,1023.0,1023.0,1023.0,1022.0,1023.0,1023.0,1024.0,1023.0,1024.0,1024.0,1023.0,1024.0,1023.0,1022.0,1023.0,1024.0,1024.0,1025.0,1024.0,1024.0,1024.0,1024.0,1024.0,1024.0,1024.0,1023.0,1024.0,1023.0,1023.0,1024.0,1023.0,1023.0,1020.0,1023.0,1024.0,1023.0,1023.0,1023.0,1024.0,1023.0,1023.0,1022.0,1023.0,1024.0,1023.0,1023.0,1024.0,1023.0,1023.0,1024.0,1025.0,1024.0,1024.0,1025.0,1023.0,1024.0,1023.0,1024.0,1024.0,1023.0,1024.0,1024.0,1024.0,1024.0,1024.0,1024.0,1025.0,1025.0,1024.0,1024.0,1025.0,1024.0,1026.0,1026.0,1024.0,1025.0,1027.0,1026.0,1027.0,1028.0,1025.0,1027.0,1031.0,1029.0,1031.0,1031.0,1026.0,1031.0,1036.0,1034.0,1033.0,1036.0,1028.0,1033.0,1038.0,1034.0,1031.0,1037.0,1029.0,1038.0,1043.0,1038.0,1032.0,1041.0,1032.0,1039.0,1044.0,1039.0,1032.0,1043.0,1033.0,1037.0,1039.0,1036.0,1030.0,1040.0,1031.0,1039.0,1040.0,1038.0,1030.0,1042.0,1031.0,1023.0,1024.0,1023.0,1022.0,1025.0,1022.0,1040.0,1042.0,1038.0,1031.0,1043.0,1035.0,1034.0,1037.0,1037.0,1031.0,1041.0,1032.0,1029.0,1031.0,1030.0,1027.0,1032.0,2083,2010,1909,	00:30:17.287,0.05419921875,0.0576171875,1.017578125,-0.30517578125,0.18310546875,0.06103515625,3.240966796875,-3.0322265625,47.0050048828125,446.0,-1586.0,-2560.0,0.916046142578125,0.0364990234375,-0.01300048828125,0.399169921875,3.24334008905876,-3.0344150086494768,42.50539152931579,0.9310193231881072,0.03595946784631029,-0.014412064166619623,0.36290801717380977,1,	00:30:17.288,0.04248046875,0.03125,1.00634765625,-0.6103515625,-1.15966796875,-0.54931640625,1.768798828125,-2.427978515625,166.9976806640625,-432.0,-1215.0,-1981.0,-0.112884521484375,-0.022796630859375,-0.012939453125,-0.993255615234375,1.7689581077135563,-2.4275334239171182,167.52595444007733,-0.10827935511795672,-0.022731418562576083,-0.013040602181949018,-0.9937750281427403,1
1782117324.519947,0.271,1023.0,1024.0,1023.0,1024.0,1024.0,1024.0,1023.0,1024.0,1022.0,1024.0,1024.0,1024.0,1023.0,1024.0,1023.0,1024.0,1024.0,1023.0,1023.0,1024.0,1024.0,1024.0,1023.0,1023.0,1023.0,1024.0,1024.0,1023.0,1024.0,1024.0,1023.0,1023.0,1022.0,1023.0,1023.0,1023.0,1023.0,1024.0,1022.0,1023.0,1022.0,1022.0,1024.0,1024.0,1023.0,1023.0,1024.0,1023.0,1023.0,1023.0,1022.0,1023.0,1024.0,1023.0,1024.0,1024.0,1024.0,1023.0,1023.0,1023.0,1022.0,1024.0,1023.0,1024.0,1023.0,1023.0,1024.0,1022.0,1023.0,1023.0,1022.0,1023.0,1023.0,1024.0,1023.0,1023.0,1024.0,1023.0,1023.0,1022.0,1022.0,1024.0,1024.0,1024.0,1024.0,1023.0,1024.0,1023.0,1023.0,1023.0,1022.0,1024.0,1023.0,1024.0,1024.0,1023.0,1024.0,1024.0,1023.0,1023.0,1023.0,1023.0,1024.0,1024.0,1024.0,1024.0,1025.0,1023.0,1024.0,1024.0,1023.0,1024.0,1023.0,1024.0,1022.0,1023.0,1024.0,1023.0,1023.0,1021.0,1022.0,1023.0,1024.0,1023.0,1023.0,1024.0,1023.0,1023.0,1022.0,1024.0,1024.0,1023.0,1023.0,1024.0,1023.0,1024.0,1024.0,1024.0,1024.0,1024.0,1025.0,1024.0,1024.0,1024.0,1024.0,1023.0,1024.0,1024.0,1023.0,1024.0,1024.0,1025.0,1024.0,1024.0,1025.0,1024.0,1024.0,1025.0,1025.0,1025.0,1027.0,1024.0,1026.0,1027.0,1026.0,1027.0,1028.0,1025.0,1027.0,1031.0,1029.0,1031.0,1032.0,1027.0,1031.0,1036.0,1034.0,1033.0,1036.0,1028.0,1032.0,1038.0,1034.0,1031.0,1037.0,1029.0,1038.0,1043.0,1038.0,1032.0,1041.0,1031.0,1039.0,1043.0,1039.0,1032.0,1043.0,1032.0,1037.0,1038.0,1037.0,1030.0,1041.0,1031.0,1039.0,1039.0,1038.0,1031.0,1041.0,1031.0,1024.0,1023.0,1023.0,1022.0,1024.0,1022.0,1040.0,1042.0,1039.0,1030.0,1044.0,1035.0,1034.0,1037.0,1037.0,1031.0,1042.0,1032.0,1029.0,1031.0,1030.0,1027.0,1033.0,2083,2010,1909,	00:30:17.298,0.0537109375,0.05810546875,1.017578125,-0.30517578125,0.18310546875,0.06103515625,3.3123779296875,-2.977294921875,47.0050048828125,445.0,-1588.0,-2558.0,0.916046142578125,0.036865234375,-0.012298583984375,0.399169921875,3.3146763828576717,-2.9789750259711347,42.50220016667791,0.9310237586027071,0.0363637678355084,-0.013736463000452321,0.3628825524743927,1,	00:30:17.299,0.04150390625,0.0302734375,1.005859375,-0.6103515625,-1.220703125,-0.48828125,1.7138671875,-2.362060546875,166.9921875,-432.0,-1214.0,-1977.0,-0.1129150390625,-0.022186279296875,-0.01251220703125,-0.9932861328125,1.7113432321388518,-2.3640205687389466,167.52285151937795,-0.10832716537726023,-0.022126542780548684,-0.012600713869133816,-0.9937891443137706,1
1782117324.528460,0.279,1024.0,1024.0,1023.0,1024.0,1023.0,1023.0,1023.0,1024.0,1022.0,1024.0,1024.0,1024.0,1024.0,1025.0,1023.0,1024.0,1024.0,1024.0,1023.0,1023.0,1024.0,1023.0,1023.0,1023.0,1024.0,1024.0,1024.0,1024.0,1024.0,1023.0,1023.0,1023.0,1023.0,1024.0,1024.0,1023.0,1024.0,1024.0,1023.0,1024.0,1023.0,1023.0,1023.0,1024.0,1023.0,1023.0,1024.0,1022.0,1023.0,1022.0,1022.0,1023.0,1023.0,1024.0,1024.0,1024.0,1024.0,1023.0,1023.0,1023.0,1022.0,1024.0,1023.0,1024.0,1023.0,1023.0,1024.0,1024.0,1023.0,1022.0,1022.0,1023.0,1023.0,1024.0,1023.0,1023.0,1024.0,1023.0,1023.0,1022.0,1022.0,1024.0,1023.0,1024.0,1024.0,1024.0,1024.0,1023.0,1023.0,1023.0,1022.0,1024.0,1024.0,1024.0,1023.0,1023.0,1024.0,1023.0,1024.0,1024.0,1022.0,1024.0,1024.0,1024.0,1024.0,1024.0,1025.0,1023.0,1024.0,1024.0,1023.0,1024.0,1023.0,1023.0,1023.0,1023.0,1024.0,1022.0,1023.0,1021.0,1022.0,1023.0,1024.0,1024.0,1023.0,1023.0,1023.0,1023.0,1022.0,1023.0,1024.0,1023.0,1024.0,1024.0,1023.0,1023.0,1024.0,1024.0,1024.0,1024.0,1025.0,1024.0,1024.0,1024.0,1024.0,1024.0,1024.0,1025.0,1024.0,1023.0,1024.0,1024.0,1024.0,1024.0,1025.0,1024.0,1024.0,1025.0,1024.0,1025.0,1026.0,1024.0,1025.0,1027.0,1026.0,1027.0,1028.0,1025.0,1028.0,1031.0,1029.0,1031.0,1031.0,1027.0,1031.0,1035.0,1034.0,1033.0,1037.0,1027.0,1032.0,1038.0,1034.0,1031.0,1038.0,1029.0,1037.0,1043.0,1038.0,1032.0,1042.0,1032.0,1039.0,1043.0,1039.0,1032.0,1043.0,1032.0,1037.0,1038.0,1037.0,1029.0,1041.0,1031.0,1039.0,1039.0,1038.0,1030.0,1041.0,1031.0,1024.0,1023.0,1023.0,1022.0,1024.0,1022.0,1041.0,1042.0,1039.0,1031.0,1044.0,1035.0,1034.0,1037.0,1037.0,1031.0,1041.0,1032.0,1029.0,1031.0,1030.0,1027.0,1032.0,2083,2010,1908,	00:30:17.308,0.052734375,0.05712890625,1.01806640625,-0.30517578125,0.18310546875,0.1220703125,3.218994140625,-2.9608154296875,47.010498046875,444.0,-1586.0,-2560.0,0.91607666015625,0.03607177734375,-0.012481689453125,0.399200439453125,3.221393906711041,-2.961061368531236,42.50819765392062,0.9310394251200398,0.035550075265371385,-0.01388436897260518,0.36291735328998104,1,	00:30:17.309,0.04150390625,0.03076171875,1.005859375,-0.54931640625,-1.0986328125,-0.54931640625,1.7962646484375,-2.3675537109375,166.981201171875,-433.0,-1214.0,-1981.0,-0.11297607421875,-0.022308349609375,-0.01324462890625,-0.993255615234375,1.797654785970606,-2.369574002383182,167.51324683033826,-0.10839289926386858,-0.022257405959848525,-0.01334209681653548,-0.9937693775326596,1
1782117324.539106,0.290,1024.0,1024.0,1023.0,1024.0,1023.0,1024.0,1023.0,1024.0,1023.0,1023.0,1024.0,1024.0,1024.0,1024.0,1023.0,1024.0,1024.0,1024.0,1023.0,1023.0,1024.0,1022.0,1023.0,1023.0,1023.0,1024.0,1024.0,1024.0,1024.0,1023.0,1024.0,1023.0,1023.0,1024.0,1024.0,1023.0,1023.0,1024.0,1023.0,1024.0,1023.0,1022.0,1023.0,1024.0,1023.0,1023.0,1024.0,1022.0,1023.0,1023.0,1022.0,1024.0,1024.0,1024.0,1023.0,1023.0,1024.0,1023.0,1023.0,1023.0,1022.0,1023.0,1023.0,1023.0,1023.0,1023.0,1024.0,1023.0,1023.0,1022.0,1022.0,1023.0,1023.0,1023.0,1023.0,1023.0,1024.0,1023.0,1023.0,1022.0,1022.0,1024.0,1024.0,1024.0,1024.0,1024.0,1024.0,1023.0,1023.0,1023.0,1023.0,1023.0,1024.0,1024.0,1024.0,1023.0,1024.0,1023.0,1024.0,1022.0,1022.0,1023.0,1024.0,1024.0,1024.0,1024.0,1024.0,1024.0,1024.0,1024.0,1023.0,1024.0,1023.0,1024.0,1023.0,1023.0,1024.0,1023.0,1023.0,1021.0,1022.0,1023.0,1024.0,1023.0,1023.0,1024.0,1023.0,1023.0,1022.0,1023.0,1023.0,1023.0,1023.0,1024.0,1023.0,1023.0,1024.0,1024.0,1024.0,1024.0,1025.0,1024.0,1024.0,1024.0,1024.0,1024.0,1024.0,1024.0,1023.0,1024.0,1024.0,1024.0,1024.0,1024.0,1025.0,1024.0,1024.0,1025.0,1024.0,1025.0,1026.0,1024.0,1025.0,1027.0,1026.0,1026.0,1028.0,1025.0,1027.0,1031.0,1029.0,1030.0,1032.0,1026.0,1031.0,1035.0,1033.0,1033.0,1036.0,1028.0,1033.0,1038.0,1034.0,1032.0,1038.0,1029.0,1038.0,1043.0,1038.0,1032.0,1042.0,1032.0,1039.0,1044.0,1040.0,1032.0,1043.0,1032.0,1037.0,1038.0,1037.0,1029.0,1041.0,1030.0,1039.0,1039.0,1038.0,1030.0,1042.0,1031.0,1024.0,1023.0,1023.0,1022.0,1024.0,1022.0,1041.0,1042.0,1039.0,1031.0,1044.0,1034.0,1035.0,1037.0,1037.0,1030.0,1041.0,1031.0,1030.0,1030.0,1030.0,1027.0,1033.0,2083,2010,1909,	00:30:17.318,0.0537109375,0.05859375,1.01708984375,-0.30517578125,0.18310546875,0.1220703125,3.2904052734375,-3.0157470703125,47.0050048828125,445.0,-1586.0,-2559.0,0.916046142578125,0.03680419921875,-0.012664794921875,0.399200439453125,3.2914408722004276,-3.014219701093657,42.50570895624893,0.9310093082713974,0.03628659724488939,-0.014095453616769317,0.3629135833221719,1,	00:30:17.319,0.04150390625,0.02978515625,1.00537109375,-0.48828125,-1.15966796875,-0.54931640625,1.702880859375,-2.373046875,166.981201171875,-433.0,-1216.0,-1980.0,-0.113006591796875,-0.02227783203125,-0.01239013671875,-0.993255615234375,1.701512760678569,-2.374949052382661,167.51117505102928,-0.10842870445297904,-0.022213294079146826,-0.012502806828950457,-0.993777372170548,1
1782117324.548679,0.300,1023.0,1024.0,1023.0,1023.0,1024.0,1024.0,1023.0,1024.0,1022.0,1023.0,1024.0,1024.0,1024.0,1024.0,1024.0,1024.0,1023.0,1024.0,1024.0,1023.0,1024.0,1023.0,1024.0,1023.0,1023.0,1024.0,1024.0,1023.0,1024.0,1023.0,1023.0,1022.0,1022.0,1023.0,1024.0,1023.0,1023.0,1024.0,1023.0,1023.0,1022.0,1022.0,1023.0,1024.0,1024.0,1023.0,1024.0,1023.0,1024.0,1023.0,1022.0,1024.0,1024.0,1024.0,1024.0,1023.0,1024.0,1023.0,1023.0,1023.0,1022.0,1024.0,1024.0,1024.0,1023.0,1023.0,1024.0,1022.0,1023.0,1022.0,1022.0,1023.0,1023.0,1024.0,1023.0,1023.0,1024.0,1023.0,1023.0,1022.0,1022.0,1023.0,1024.0,1024.0,1024.0,1023.0,1024.0,1023.0,1023.0,1023.0,1022.0,1023.0,1024.0,1024.0,1024.0,1024.0,1024.0,1023.0,1023.0,1023.0,1022.0,1023.0,1024.0,1024.0,1024.0,1024.0,1024.0,1023.0,1024.0,1024.0,1023.0,1024.0,1023.0,1024.0,1023.0,1023.0,1024.0,1023.0,1022.0,1021.0,1022.0,1023.0,1024.0,1023.0,1023.0,1024.0,1023.0,1023.0,1022.0,1023.0,1024.0,1023.0,1023.0,1024.0,1023.0,1023.0,1024.0,1024.0,1024.0,1024.0,1025.0,1024.0,1024.0,1024.0,1024.0,1024.0,1024.0,1024.0,1023.0,1023.0,1024.0,1024.0,1024.0,1024.0,1025.0,1024.0,1024.0,1025.0,1024.0,1025.0,1026.0,1024.0,1025.0,1027.0,1026.0,1027.0,1028.0,1025.0,1028.0,1031.0,1029.0,1030.0,1032.0,1027.0,1031.0,1035.0,1034.0,1032.0,1037.0,1028.0,1032.0,1037.0,1034.0,1031.0,1038.0,1029.0,1038.0,1043.0,1038.0,1032.0,1042.0,1031.0,1039.0,1043.0,1039.0,1032.0,1043.0,1032.0,1037.0,1039.0,1037.0,1029.0,1040.0,1030.0,1039.0,1039.0,1039.0,1030.0,1042.0,1031.0,1024.0,1023.0,1023.0,1023.0,1024.0,1022.0,1041.0,1042.0,1039.0,1032.0,1043.0,1034.0,1035.0,1037.0,1037.0,1030.0,1041.0,1032.0,1030.0,1031.0,1030.0,1027.0,1032.0,2083,2010,1908,	00:30:17.328,0.052734375,0.05810546875,1.01611328125,-0.244140625,0.244140625,0.1220703125,3.2574462890625,-2.9278564453125,47.010498046875,445.0,-1588.0,-2558.0,0.91607666015625,0.036224365234375,-0.0120849609375,0.399200439453125,3.2559843868472926,-2.926517643643311,42.50877496640949,0.9310371404067168,0.035722191960292846,-0.013493818102555176,0.36292104521211016,1,	00:30:17.329,0.04150390625,0.03125,1.00634765625,-0.48828125,-1.220703125,-0.48828125,1.7852783203125,-2.3675537109375,166.97021484375,-433.0,-1213.0,-1981.0,-0.113067626953125,-0.022308349609375,-0.013153076171875,-0.993255615234375,1.7870100821159158,-2.3701359499245944,167.5021948719883,-0.108490724529774,-0.022253487734746207,-0.013247102058680925,-0.9937600612128117,1
1782117324.559139,0.310,1024.0,1024.0,1024.0,1023.0,1024.0,1023.0,1023.0,1024.0,1022.0,1024.0,1024.0,1024.0,1023.0,1024.0,1023.0,1024.0,1024.0,1024.0,1023.0,1023.0,1024.0,1022.0,1023.0,1023.0,1024.0,1024.0,1024.0,1024.0,1024.0,1023.0,1023.0,1023.0,1022.0,1023.0,1024.0,1023.0,1023.0,1024.0,1023.0,1023.0,1023.0,1023.0,1023.0,1023.0,1023.0,1023.0,1023.0,1023.0,1023.0,1022.0,1022.0,1023.0,1024.0,1024.0,1023.0,1023.0,1024.0,1023.0,1024.0,1023.0,1023.0,1023.0,1023.0,1024.0,1023.0,1023.0,1024.0,1023.0,1023.0,1022.0,1022.0,1024.0,1023.0,1023.0,1023.0,1023.0,1024.0,1023.0,1023.0,1022.0,1023.0,1024.0,1024.0,1024.0,1023.0,1023.0,1024.0,1023.0,1023.0,1023.0,1022.0,1023.0,1024.0,1024.0,1023.0,1024.0,1024.0,1023.0,1023.0,1023.0,1023.0,1023.0,1024.0,1024.0,1024.0,1024.0,1025.0,1023.0,1024.0,1025.0,1023.0,1024.0,1023.0,1023.0,1023.0,1023.0,1024.0,1023.0,1023.0,1021.0,1022.0,1023.0,1023.0,1023.0,1023.0,1024.0,1022.0,1023.0,1022.0,1024.0,1024.0,1023.0,1023.0,1024.0,1023.0,1023.0,1024.0,1024.0,1024.0,1024.0,1025.0,1024.0,1024.0,1024.0,1024.0,1024.0,1024.0,1024.0,1023.0,1023.0,1024.0,1025.0,1024.0,1024.0,1026.0,1024.0,1024.0,1025.0,1024.0,1025.0,1026.0,1024.0,1025.0,1027.0,1026.0,1027.0,1029.0,1025.0,1028.0,1031.0,1029.0,1031.0,1032.0,1027.0,1031.0,1035.0,1034.0,1033.0,1036.0,1028.0,1033.0,1037.0,1034.0,1032.0,1038.0,1029.0,1037.0,1043.0,1038.0,1032.0,1041.0,1032.0,1039.0,1043.0,1040.0,1032.0,1042.0,1032.0,1037.0,1038.0,1037.0,1029.0,1040.0,1031.0,1039.0,1039.0,1038.0,1031.0,1041.0,1032.0,1024.0,1023.0,1023.0,1023.0,1024.0,1022.0,1041.0,1042.0,1040.0,1031.0,1043.0,1034.0,1035.0,1037.0,1037.0,1031.0,1040.0,1031.0,1030.0,1031.0,1030.0,1026.0,1032.0,2083,2010,1908,	00:30:17.339,0.0537109375,0.05712890625,1.0166015625,-0.30517578125,0.18310546875,0.06103515625,3.218994140625,-3.01025390625,47.010498046875,445.0,-1586.0,-2559.0,0.916046142578125,0.03619384765625,-0.01287841796875,0.39923095703125,3.2170268791246928,-3.009076786916643,42.51134859475449,0.9310163696963978,0.03566648417675068,-0.014287556657195577,0.36294942759092136,1,	00:30:17.340,0.041015625,0.03173828125,1.00634765625,-0.54931640625,-1.15966796875,-0.48828125,1.82373046875,-2.3016357421875,166.9647216796875,-432.0,-1216.0,-1979.0,-0.1131591796875,-0.021759033203125,-0.013519287109375,-0.993255615234375,1.8239341822051447,-2.3001981054062797,167.49522554382114,-0.10855499565573105,-0.02168280181259566,-0.013632602446709573,-0.9937604445610974,1
1782117324.568266,0.319,1024.0,1024.0,1023.0,1024.0,1023.0,1023.0,1023.0,1024.0,1022.0,1024.0,1023.0,1024.0,1024.0,1024.0,1023.0,1024.0,1024.0,1024.0,1024.0,1023.0,1024.0,1023.0,1023.0,1024.0,1024.0,1024.0,1024.0,1024.0,1024.0,1023.0,1024.0,1023.0,1023.0,1024.0,1024.0,1023.0,1023.0,1024.0,1023.0,1023.0,1023.0,1022.0,1023.0,1023.0,1023.0,1023.0,1024.0,1023.0,1023.0,1022.0,1022.0,1023.0,1024.0,1024.0,1023.0,1023.0,1024.0,1023.0,1023.0,1023.0,1022.0,1024.0,1023.0,1024.0,1023.0,1023.0,1024.0,1023.0,1023.0,1022.0,1022.0,1023.0,1023.0,1024.0,1024.0,1024.0,1024.0,1023.0,1023.0,1022.0,1022.0,1023.0,1023.0,1024.0,1024.0,1024.0,1024.0,1023.0,1023.0,1023.0,1023.0,1024.0,1023.0,1024.0,1024.0,1023.0,1024.0,1023.0,1023.0,1023.0,1022.0,1024.0,1024.0,1025.0,1024.0,1024.0,1024.0,1024.0,1024.0,1024.0,1023.0,1023.0,1023.0,1024.0,1023.0,1023.0,1024.0,1023.0,1023.0,1021.0,1022.0,1023.0,1024.0,1023.0,1023.0,1024.0,1023.0,1023.0,1022.0,1023.0,1024.0,1024.0,1023.0,1024.0,1023.0,1023.0,1024.0,1024.0,1024.0,1024.0,1025.0,1024.0,1024.0,1024.0,1024.0,1024.0,1024.0,1024.0,1023.0,1024.0,1024.0,1024.0,1024.0,1024.0,1025.0,1024.0,1024.0,1025.0,1024.0,1025.0,1026.0,1024.0,1026.0,1027.0,1026.0,1027.0,1028.0,1025.0,1028.0,1031.0,1029.0,1031.0,1032.0,1027.0,1031.0,1036.0,1034.0,1032.0,1037.0,1028.0,1033.0,1037.0,1034.0,1031.0,1038.0,1029.0,1037.0,1042.0,1038.0,1032.0,1042.0,1032.0,1039.0,1043.0,1039.0,1032.0,1042.0,1032.0,1037.0,1038.0,1037.0,1030.0,1040.0,1031.0,1039.0,1039.0,1039.0,1030.0,1042.0,1031.0,1023.0,1024.0,1023.0,1022.0,1024.0,1021.0,1041.0,1042.0,1039.0,1031.0,1043.0,1035.0,1035.0,1037.0,1038.0,1030.0,1040.0,1032.0,1029.0,1031.0,1030.0,1027.0,1032.0,2083,2010,1909,	00:30:17.349,0.05322265625,0.05810546875,1.01708984375,-0.3662109375,0.244140625,0.06103515625,3.3013916015625,-2.977294921875,47.0050048828125,445.0,-1587.0,-2557.0,0.916046142578125,0.0367431640625,-0.0123291015625,0.399200439453125,3.299877109207217,-2.976306912797329,42.50757621391368,0.9310122281338968,0.036235756510230234,-0.013759938066246606,0.36292404869297534,1,	00:30:17.350,0.041015625,0.03076171875,1.00732421875,-0.54931640625,-1.15966796875,-0.48828125,1.73583984375,-2.3455810546875,166.9647216796875,-432.0,-1215.0,-1979.0,-0.1131591796875,-0.022064208984375,-0.0126953125,-0.993255615234375,1.7336634428019968,-2.3461484043428533,167.49341900802943,-0.10858079520889571,-0.02199594751190258,-0.012805626369943136,-0.9937617446541857,1
1782117324.579371,0.330,1024.0,1024.0,1023.0,1023.0,1023.0,1024.0,1024.0,1024.0,1022.0,1024.0,1024.0,1024.0,1023.0,1024.0,1023.0,1024.0,1024.0,1024.0,1024.0,1023.0,1024.0,1023.0,1023.0,1023.0,1023.0,1024.0,1024.0,1024.0,1024.0,1023.0,1024.0,1023.0,1023.0,1023.0,1023.0,1024.0,1024.0,1024.0,1023.0,1023.0,1023.0,1022.0,1023.0,1023.0,1023.0,1023.0,1024.0,1023.0,1023.0,1022.0,1022.0,1023.0,1023.0,1024.0,1023.0,1024.0,1024.0,1023.0,1023.0,1023.0,1022.0,1023.0,1023.0,1024.0,1023.0,1023.0,1024.0,1023.0,1023.0,1022.0,1022.0,1024.0,1023.0,1024.0,1024.0,1023.0,1024.0,1023.0,1023.0,1022.0,1023.0,1023.0,1023.0,1024.0,1024.0,1024.0,1024.0,1023.0,1023.0,1023.0,1022.0,1023.0,1023.0,1024.0,1024.0,1023.0,1024.0,1023.0,1023.0,1023.0,1023.0,1023.0,1024.0,1025.0,1025.0,1024.0,1025.0,1023.0,1024.0,1024.0,1022.0,1024.0,1023.0,1023.0,1022.0,1023.0,1024.0,1023.0,1023.0,1021.0,1022.0,1023.0,1023.0,1023.0,1023.0,1024.0,1023.0,1023.0,1022.0,1023.0,1023.0,1023.0,1023.0,1024.0,1023.0,1023.0,1024.0,1024.0,1024.0,1024.0,1025.0,1024.0,1024.0,1024.0,1024.0,1024.0,1024.0,1024.0,1023.0,1024.0,1024.0,1024.0,1023.0,1024.0,1025.0,1024.0,1024.0,1025.0,1024.0,1026.0,1026.0,1024.0,1025.0,1027.0,1025.0,1027.0,1028.0,1025.0,1028.0,1031.0,1029.0,1031.0,1032.0,1027.0,1030.0,1036.0,1033.0,1032.0,1036.0,1028.0,1033.0,1038.0,1034.0,1031.0,1038.0,1030.0,1037.0,1043.0,1038.0,1032.0,1041.0,1032.0,1038.0,1043.0,1040.0,1032.0,1043.0,1032.0,1037.0,1038.0,1038.0,1030.0,1040.0,1031.0,1039.0,1039.0,1039.0,1030.0,1041.0,1031.0,1024.0,1023.0,1023.0,1022.0,1024.0,1022.0,1041.0,1042.0,1040.0,1031.0,1043.0,1034.0,1035.0,1037.0,1037.0,1030.0,1040.0,1032.0,1030.0,1031.0,1029.0,1027.0,1032.0,2083,2010,1909,	00:30:17.359,0.0537109375,0.05810546875,1.01708984375,-0.3662109375,0.18310546875,0.06103515625,3.240966796875,-3.0487060546875,47.010498046875,445.0,-1588.0,-2556.0,0.916015625,0.036529541015625,-0.013092041015625,0.39923095703125,3.2423920188929993,-3.0487996830608544,42.511120952631586,0.9309970838836875,0.03599787187673184,-0.01453020576512115,0.3629565485575921,1,	00:30:17.360,0.04150390625,0.03125,1.00732421875,-0.6103515625,-1.220703125,-0.54931640625,1.8182373046875,-2.384033203125,166.9537353515625,-433.0,-1214.0,-1976.0,-0.11322021484375,-0.0224609375,-0.01336669921875,-0.99322509765625,1.8160847679296954,-2.38286519159336,167.4839138699322,-0.10864160860658378,-0.022393547106601693,-0.013483547210873578,-0.993737250928016,1
1782117324.590425,0.341,1024.0,1024.0,1023.0,1024.0,1023.0,1023.0,1023.0,1024.0,1022.0,1024.0,1024.0,1024.0,1024.0,1024.0,1023.0,1024.0,1023.0,1024.0,1024.0,1024.0,1024.0,1023.0,1023.0,1023.0,1024.0,1024.0,1024.0,1024.0,1024.0,1023.0,1023.0,1023.0,1023.0,1023.0,1023.0,1023.0,1023.0,1024.0,1023.0,1023.0,1022.0,1023.0,1023.0,1023.0,1023.0,1023.0,1024.0,1023.0,1023.0,1023.0,1022.0,1023.0,1024.0,1024.0,1023.0,1024.0,1024.0,1023.0,1023.0,1023.0,1023.0,1024.0,1023.0,1024.0,1023.0,1023.0,1024.0,1023.0,1023.0,1022.0,1022.0,1023.0,1023.0,1024.0,1023.0,1023.0,1024.0,1023.0,1023.0,1022.0,1023.0,1023.0,1024.0,1024.0,1024.0,1023.0,1024.0,1023.0,1023.0,1023.0,1022.0,1023.0,1024.0,1024.0,1023.0,1024.0,1024.0,1023.0,1024.0,1023.0,1022.0,1024.0,1024.0,1024.0,1024.0,1024.0,1024.0,1023.0,1024.0,1024.0,1023.0,1024.0,1023.0,1023.0,1022.0,1023.0,1024.0,1023.0,1023.0,1021.0,1022.0,1023.0,1024.0,1023.0,1023.0,1024.0,1023.0,1023.0,1022.0,1023.0,1024.0,1023.0,1023.0,1024.0,1023.0,1023.0,1024.0,1024.0,1024.0,1024.0,1025.0,1023.0,1023.0,1024.0,1024.0,1024.0,1024.0,1024.0,1024.0,1024.0,1024.0,1024.0,1024.0,1024.0,1025.0,1024.0,1024.0,1025.0,1024.0,1025.0,1026.0,1024.0,1025.0,1027.0,1026.0,1027.0,1028.0,1025.0,1028.0,1032.0,1029.0,1031.0,1031.0,1026.0,1031.0,1036.0,1034.0,1033.0,1036.0,1028.0,1033.0,1038.0,1033.0,1031.0,1037.0,1030.0,1038.0,1043.0,1038.0,1033.0,1040.0,1033.0,1038.0,1042.0,1039.0,1032.0,1042.0,1032.0,1037.0,1038.0,1037.0,1029.0,1039.0,1031.0,1039.0,1039.0,1039.0,1030.0,1040.0,1031.0,1024.0,1023.0,1023.0,1023.0,1024.0,1021.0,1041.0,1042.0,1039.0,1031.0,1042.0,1034.0,1035.0,1038.0,1038.0,1031.0,1040.0,1032.0,1029.0,1031.0,1030.0,1026.0,1032.0,2083,2010,1908,	00:30:17.369,0.05322265625,0.05712890625,1.017578125,-0.3662109375,0.18310546875,0.1220703125,3.197021484375,-2.96630859375,47.0159912109375,446.0,-1585.0,-2557.0,0.916046142578125,0.035888671875,-0.0125732421875,0.39923095703125,3.198501979262739,-2.9648650694058793,42.514548939818106,0.9310252570123001,0.03537685805594493,-0.01398582993547833,0.3629667275113327,1,	00:30:17.371,0.04248046875,0.03125,1.00732421875,-0.6103515625,-1.220703125,-0.54931640625,1.73583984375,-2.449951171875,166.9537353515625,-433.0,-1217.0,-1977.0,-0.113250732421875,-0.022979736328125,-0.01263427734375,-0.99322509765625,1.738116504529015,-2.4515793302651234,167.48107631714944,-0.10867100983547985,-0.022915786179075727,-0.012741302750606177,-0.9937319243988035,1
1782117324.599925,0.351,1024.0,1024.0,1023.0,1023.0,1024.0,1024.0,1023.0,1024.0,1022.0,1024.0,1024.0,1025.0,1024.0,1024.0,1023.0,1024.0,1023.0,1024.0,1023.0,1023.0,1024.0,1023.0,1023.0,1023.0,1023.0,1024.0,1024.0,1024.0,1024.0,1023.0,1023.0,1023.0,1022.0,1023.0,1024.0,1024.0,1024.0,1024.0,1023.0,1023.0,1023.0,1022.0,1023.0,1024.0,1023.0,1023.0,1024.0,1023.0,1023.0,1023.0,1022.0,1023.0,1024.0,1023.0,1024.0,1024.0,1024.0,1023.0,1023.0,1024.0,1022.0,1024.0,1023.0,1024.0,1023.0,1023.0,1024.0,1023.0,1023.0,1022.0,1022.0,1023.0,1023.0,1023.0,1023.0,1023.0,1023.0,1023.0,1023.0,1022.0,1022.0,1023.0,1024.0,1024.0,1024.0,1024.0,1024.0,1023.0,1023.0,1023.0,1023.0,1024.0,1023.0,1024.0,1023.0,1024.0,1024.0,1023.0,1023.0,1023.0,1023.0,1024.0,1024.0,1024.0,1024.0,1024.0,1025.0,1023.0,1024.0,1024.0,1023.0,1023.0,1023.0,1023.0,1023.0,1023.0,1024.0,1023.0,1022.0,1021.0,1022.0,1023.0,1024.0,1024.0,1023.0,1023.0,1023.0,1023.0,1022.0,1023.0,1024.0,1023.0,1023.0,1024.0,1023.0,1023.0,1024.0,1024.0,1024.0,1024.0,1024.0,1024.0,1024.0,1024.0,1024.0,1024.0,1024.0,1024.0,1024.0,1024.0,1024.0,1024.0,1024.0,1024.0,1025.0,1024.0,1024.0,1025.0,1025.0,1026.0,1026.0,1024.0,1025.0,1027.0,1026.0,1027.0,1028.0,1025.0,1028.0,1031.0,1029.0,1032.0,1031.0,1026.0,1031.0,1036.0,1033.0,1034.0,1037.0,1028.0,1032.0,1037.0,1034.0,1031.0,1037.0,1029.0,1037.0,1043.0,1038.0,1033.0,1040.0,1032.0,1039.0,1042.0,1040.0,1032.0,1041.0,1032.0,1037.0,1039.0,1039.0,1030.0,1039.0,1031.0,1039.0,1039.0,1039.0,1031.0,1040.0,1031.0,1024.0,1023.0,1023.0,1023.0,1024.0,1021.0,1041.0,1042.0,1039.0,1031.0,1042.0,1034.0,1034.0,1037.0,1037.0,1030.0,1039.0,1032.0,1030.0,1031.0,1030.0,1027.0,1032.0,2084,2010,1908,	00:30:17.380,0.0537109375,0.0576171875,1.01708984375,-0.30517578125,0.18310546875,0.1220703125,3.251953125,-3.0322265625,47.010498046875,445.0,-1586.0,-2559.0,0.916015625,0.036590576171875,-0.012939453125,0.39923095703125,3.253502943669642,-3.0337220907543343,42.51283236841136,0.9309927747536773,0.036040784917286454,-0.014371905419304512,0.3629696454438216,1,	00:30:17.381,0.04150390625,0.03076171875,1.00537109375,-0.6103515625,-1.220703125,-0.54931640625,1.746826171875,-2.373046875,166.9427490234375,-435.0,-1216.0,-1977.0,-0.11334228515625,-0.022308349609375,-0.012786865234375,-0.99322509765625,1.7469728403228808,-2.373188964779798,167.47458675243368,-0.10873745016317561,-0.022245161905715488,-0.012891624133381479,-0.9937379562696612,1
1782117324.610501,0.361,1024.0,1024.0,1023.0,1024.0,1023.0,1023.0,1023.0,1024.0,1023.0,1024.0,1024.0,1024.0,1024.0,1024.0,1023.0,1024.0,1023.0,1024.0,1023.0,1023.0,1024.0,1023.0,1023.0,1023.0,1024.0,1023.0,1024.0,1023.0,1024.0,1023.0,1024.0,1023.0,1023.0,1023.0,1024.0,1023.0,1024.0,1024.0,1024.0,1023.0,1022.0,1023.0,1023.0,1023.0,1023.0,1023.0,1023.0,1023.0,1023.0,1022.0,1023.0,1023.0,1024.0,1024.0,1023.0,1023.0,1024.0,1023.0,1023.0,1024.0,1023.0,1024.0,1024.0,1023.0,1023.0,1023.0,1024.0,1023.0,1023.0,1022.0,1022.0,1023.0,1023.0,1023.0,1023.0,1023.0,1024.0,1023.0,1023.0,1022.0,1022.0,1024.0,1024.0,1024.0,1024.0,1023.0,1024.0,1023.0,1023.0,1023.0,1023.0,1023.0,1023.0,1024.0,1023.0,1024.0,1024.0,1023.0,1023.0,1023.0,1022.0,1023.0,1024.0,1024.0,1024.0,1024.0,1024.0,1024.0,1024.0,1024.0,1023.0,1024.0,1023.0,1024.0,1023.0,1024.0,1024.0,1023.0,1023.0,1020.0,1023.0,1024.0,1024.0,1024.0,1023.0,1024.0,1023.0,1023.0,1022.0,1023.0,1024.0,1024.0,1023.0,1024.0,1023.0,1023.0,1024.0,1024.0,1024.0,1024.0,1024.0,1024.0,1024.0,1023.0,1024.0,1024.0,1024.0,1025.0,1024.0,1024.0,1024.0,1024.0,1024.0,1024.0,1025.0,1024.0,1024.0,1025.0,1025.0,1026.0,1025.0,1024.0,1025.0,1027.0,1026.0,1028.0,1028.0,1025.0,1027.0,1031.0,1029.0,1031.0,1031.0,1027.0,1031.0,1035.0,1034.0,1033.0,1037.0,1028.0,1032.0,1037.0,1034.0,1031.0,1038.0,1029.0,1037.0,1042.0,1038.0,1032.0,1040.0,1033.0,1038.0,1043.0,1040.0,1032.0,1041.0,1032.0,1037.0,1039.0,1037.0,1030.0,1039.0,1030.0,1039.0,1039.0,1039.0,1030.0,1040.0,1031.0,1024.0,1024.0,1023.0,1022.0,1024.0,1021.0,1041.0,1042.0,1040.0,1031.0,1042.0,1034.0,1035.0,1037.0,1038.0,1030.0,1039.0,1032.0,1030.0,1031.0,1030.0,1026.0,1032.0,2084,2010,1909,	00:30:17.390,0.05322265625,0.05712890625,1.01708984375,-0.30517578125,0.18310546875,0.06103515625,3.1915283203125,-2.96630859375,47.0159912109375,445.0,-1586.0,-2559.0,0.916046142578125,0.03582763671875,-0.012603759765625,0.399261474609375,3.189258713855397,-2.963917222763036,42.51674414205383,0.931021436910541,0.035299036072939924,-0.014006726218338721,0.3629832967038533,1,	00:30:17.391,0.041015625,0.0322265625,1.0068359375,-0.6103515625,-1.28173828125,-0.48828125,1.82373046875,-2.3455810546875,166.937255859375,-431.0,-1217.0,-1978.0,-0.1134033203125,-0.02215576171875,-0.01348876953125,-0.99322509765625,1.823719504750473,-2.346016614381664,167.4659075377082,-0.10880207565185461,-0.02208339147808656,-0.013581431314560573,-0.9937253025248584,1
1782117324.620996,0.372,1024.0,1024.0,1023.0,1024.0,1023.0,1023.0,1023.0,1024.0,1023.0,1024.0,1024.0,1024.0,1023.0,1024.0,1023.0,1024.0,1023.0,1024.0,1024.0,1023.0,1024.0,1023.0,1023.0,1023.0,1024.0,1024.0,1024.0,1024.0,1024.0,1023.0,1023.0,1024.0,1022.0,1023.0,1024.0,1023.0,1023.0,1024.0,1022.0,1023.0,1023.0,1022.0,1023.0,1023.0,1023.0,1024.0,1024.0,1023.0,1023.0,1023.0,1022.0,1024.0,1024.0,1024.0,1023.0,1023.0,1024.0,1023.0,1023.0,1023.0,1023.0,1023.0,1024.0,1023.0,1023.0,1023.0,1024.0,1023.0,1023.0,1022.0,1023.0,1023.0,1023.0,1023.0,1023.0,1023.0,1024.0,1022.0,1023.0,1022.0,1022.0,1023.0,1023.0,1023.0,1024.0,1024.0,1024.0,1023.0,1023.0,1023.0,1022.0,1024.0,1024.0,1024.0,1023.0,1024.0,1024.0,1023.0,1024.0,1023.0,1022.0,1023.0,1024.0,1024.0,1024.0,1024.0,1025.0,1023.0,1024.0,1024.0,1023.0,1023.0,1023.0,1023.0,1022.0,1024.0,1024.0,1023.0,1023.0,1021.0,1022.0,1023.0,1023.0,1023.0,1023.0,1024.0,1023.0,1023.0,1022.0,1023.0,1024.0,1024.0,1024.0,1024.0,1023.0,1023.0,1024.0,1024.0,1024.0,1024.0,1024.0,1024.0,1024.0,1024.0,1024.0,1024.0,1024.0,1025.0,1024.0,1024.0,1024.0,1024.0,1024.0,1024.0,1025.0,1024.0,1024.0,1025.0,1024.0,1026.0,1026.0,1025.0,1025.0,1027.0,1026.0,1027.0,1028.0,1026.0,1028.0,1031.0,1029.0,1030.0,1031.0,1027.0,1031.0,1036.0,1033.0,1033.0,1036.0,1028.0,1032.0,1038.0,1033.0,1032.0,1037.0,1029.0,1037.0,1043.0,1037.0,1032.0,1041.0,1033.0,1039.0,1044.0,1039.0,1032.0,1041.0,1032.0,1037.0,1039.0,1037.0,1030.0,1040.0,1031.0,1038.0,1040.0,1038.0,1030.0,1041.0,1031.0,1024.0,1023.0,1023.0,1022.0,1024.0,1022.0,1040.0,1043.0,1039.0,1031.0,1041.0,1034.0,1035.0,1038.0,1037.0,1030.0,1039.0,1032.0,1029.0,1032.0,1030.0,1026.0,1031.0,2084,2010,1909,	00:30:17.400,0.05322265625,0.0576171875,1.0185546875,-0.30517578125,0.18310546875,0.1220703125,3.2684326171875,-2.999267578125,47.0159912109375,443.0,-1585.0,-2560.0,0.916015625,0.036590576171875,-0.01263427734375,0.39923095703125,3.2691459927876294,-3.000729694433164,42.51374882782371,0.9309949809999648,0.036063887551474924,-0.0140538656824569,0.36297414539733946,1,	00:30:17.401,0.04248046875,0.0322265625,1.00634765625,-0.67138671875,-1.220703125,-0.54931640625,1.8292236328125,-2.449951171875,166.9317626953125,-434.0,-1217.0,-1978.0,-0.113433837890625,-0.023040771484375,-0.013427734375,-0.993194580078125,1.8307943367095865,-2.448613320846988,167.45946306299916,-0.10884033720346645,-0.0229805041474789,-0.013543491470276565,-0.9937012887509797,1
1782117324.630615,0.382,1024.0,1024.0,1024.0,1023.0,1023.0,1024.0,1023.0,1024.0,1022.0,1024.0,1024.0,1024.0,1024.0,1024.0,1023.0,1024.0,1024.0,1024.0,1023.0,1024.0,1024.0,1022.0,1024.0,1023.0,1024.0,1024.0,1024.0,1023.0,1024.0,1023.0,1023.0,1023.0,1023.0,1023.0,1023.0,1023.0,1024.0,1024.0,1023.0,1023.0,1022.0,1023.0,1023.0,1024.0,1023.0,1024.0,1024.0,1024.0,1023.0,1022.0,1022.0,1023.0,1024.0,1024.0,1023.0,1023.0,1024.0,1024.0,1023.0,1023.0,1023.0,1024.0,1023.0,1023.0,1023.0,1024.0,1024.0,1023.0,1023.0,1022.0,1022.0,1023.0,1023.0,1024.0,1023.0,1024.0,1024.0,1023.0,1023.0,1022.0,1022.0,1023.0,1023.0,1023.0,1023.0,1024.0,1024.0,1023.0,1023.0,1023.0,1022.0,1023.0,1024.0,1024.0,1023.0,1024.0,1024.0,1023.0,1023.0,1023.0,1022.0,1024.0,1024.0,1024.0,1024.0,1024.0,1024.0,1023.0,1024.0,1024.0,1023.0,1023.0,1023.0,1023.0,1023.0,1023.0,1023.0,1023.0,1023.0,1021.0,1022.0,1023.0,1023.0,1023.0,1023.0,1024.0,1023.0,1023.0,1022.0,1023.0,1024.0,1023.0,1023.0,1024.0,1023.0,1023.0,1024.0,1025.0,1024.0,1024.0,1025.0,1023.0,1024.0,1024.0,1024.0,1024.0,1024.0,1024.0,1023.0,1024.0,1024.0,1024.0,1024.0,1024.0,1025.0,1024.0,1024.0,1025.0,1024.0,1025.0,1026.0,1025.0,1025.0,1027.0,1026.0,1028.0,1028.0,1025.0,1028.0,1031.0,1029.0,1031.0,1031.0,1027.0,1032.0,1035.0,1034.0,1033.0,1036.0,1028.0,1032.0,1037.0,1033.0,1032.0,1037.0,1030.0,1038.0,1043.0,1037.0,1033.0,1041.0,1032.0,1039.0,1043.0,1039.0,1032.0,1041.0,1032.0,1037.0,1039.0,1037.0,1030.0,1040.0,1031.0,1039.0,1040.0,1038.0,1030.0,1040.0,1032.0,1023.0,1024.0,1023.0,1023.0,1024.0,1021.0,1041.0,1043.0,1039.0,1031.0,1041.0,1035.0,1034.0,1039.0,1037.0,1031.0,1039.0,1032.0,1029.0,1032.0,1030.0,1026.0,1031.0,2084,2010,1909,	00:30:17.410,0.0546875,0.05810546875,1.01806640625,-0.30517578125,0.18310546875,0.1220703125,3.262939453125,-3.0926513671875,47.0159912109375,447.0,-1587.0,-2561.0,0.915985107421875,0.036834716796875,-0.01336669921875,0.399261474609375,3.262619012437259,-3.090462760515811,42.51525712959831,0.9309647904067423,0.03629418818468279,-0.014803515960187507,0.36299882484956053,1,	00:30:17.411,0.041015625,0.03076171875,1.00634765625,-0.67138671875,-1.220703125,-0.54931640625,1.7742919921875,-2.384033203125,166.92626953125,-433.0,-1219.0,-1977.0,-0.113494873046875,-0.022430419921875,-0.01300048828125,-0.993194580078125,1.7723014165117752,-2.3852834701241337,167.45576769828776,-0.10889386591520392,-0.022376222757888788,-0.013096055219022053,-0.9937152127037361,1
1782117324.640646,0.392,1024.0,1024.0,1023.0,1023.0,1023.0,1024.0,1023.0,1024.0,1023.0,1023.0,1024.0,1024.0,1023.0,1024.0,1023.0,1024.0,1024.0,1024.0,1023.0,1024.0,1024.0,1023.0,1023.0,1023.0,1024.0,1024.0,1023.0,1023.0,1024.0,1024.0,1024.0,1023.0,1023.0,1024.0,1024.0,1023.0,1024.0,1024.0,1023.0,1024.0,1023.0,1023.0,1023.0,1024.0,1024.0,1024.0,1024.0,1022.0,1023.0,1023.0,1022.0,1023.0,1024.0,1024.0,1024.0,1023.0,1024.0,1023.0,1024.0,1023.0,1023.0,1024.0,1023.0,1023.0,1023.0,1023.0,1024.0,1023.0,1023.0,1022.0,1022.0,1023.0,1023.0,1023.0,1023.0,1023.0,1024.0,1023.0,1023.0,1022.0,1022.0,1023.0,1023.0,1024.0,1024.0,1024.0,1024.0,1023.0,1023.0,1023.0,1022.0,1024.0,1024.0,1024.0,1024.0,1024.0,1024.0,1023.0,1023.0,1023.0,1023.0,1023.0,1024.0,1024.0,1024.0,1024.0,1025.0,1023.0,1024.0,1024.0,1023.0,1024.0,1023.0,1024.0,1022.0,1024.0,1024.0,1023.0,1023.0,1020.0,1022.0,1024.0,1024.0,1024.0,1023.0,1023.0,1023.0,1023.0,1022.0,1023.0,1024.0,1023.0,1023.0,1024.0,1023.0,1023.0,1024.0,1024.0,1024.0,1024.0,1024.0,1024.0,1024.0,1024.0,1024.0,1024.0,1024.0,1025.0,1024.0,1023.0,1024.0,1024.0,1024.0,1025.0,1025.0,1024.0,1024.0,1025.0,1025.0,1025.0,1026.0,1024.0,1025.0,1027.0,1026.0,1027.0,1028.0,1025.0,1028.0,1031.0,1028.0,1031.0,1032.0,1026.0,1031.0,1036.0,1033.0,1034.0,1036.0,1028.0,1032.0,1038.0,1033.0,1031.0,1037.0,1030.0,1038.0,1043.0,1037.0,1033.0,1040.0,1032.0,1038.0,1044.0,1038.0,1032.0,1041.0,1033.0,1038.0,1039.0,1036.0,1030.0,1039.0,1031.0,1039.0,1040.0,1039.0,1030.0,1040.0,1032.0,1024.0,1023.0,1023.0,1022.0,1024.0,1022.0,1041.0,1043.0,1039.0,1030.0,1041.0,1035.0,1035.0,1038.0,1037.0,1031.0,1039.0,1032.0,1029.0,1031.0,1030.0,1027.0,1031.0,2084,2010,1909,	00:30:17.421,0.05322265625,0.05712890625,1.017578125,-0.3662109375,0.18310546875,0.1220703125,3.218994140625,-3.0047607421875,47.021484375,446.0,-1586.0,-2560.0,0.916015625,0.03619384765625,-0.012847900390625,0.3992919921875,3.2188165508259683,-3.006490424036885,42.51871022532068,0.9309932754849034,0.03567377984827523,-0.014258571081055472,0.3630090847127023,1,	00:30:17.422,0.04150390625,0.03076171875,1.00732421875,-0.67138671875,-1.28173828125,-0.48828125,1.7083740234375,-2.3291015625,166.9207763671875,-434.0,-1218.0,-1979.0,-0.113525390625,-0.021881103515625,-0.012481689453125,-0.99322509765625,1.7062101335200572,-2.3284000522628516,167.45293360505187,-0.10893979078667627,-0.021820470516079996,-0.01257674869993492,-0.9937292460433832,1
1782117324.651274,0.402,1024.0,1024.0,1024.0,1024.0,1024.0,1023.0,1023.0,1024.0,1022.0,1024.0,1024.0,1024.0,1023.0,1024.0,1023.0,1024.0,1023.0,1024.0,1024.0,1023.0,1024.0,1022.0,1023.0,1022.0,1024.0,1024.0,1024.0,1023.0,1023.0,1023.0,1024.0,1023.0,1022.0,1024.0,1024.0,1024.0,1024.0,1024.0,1022.0,1023.0,1023.0,1022.0,1023.0,1024.0,1023.0,1024.0,1024.0,1023.0,1023.0,1022.0,1022.0,1023.0,1024.0,1024.0,1024.0,1023.0,1024.0,1023.0,1023.0,1024.0,1022.0,1024.0,1023.0,1024.0,1023.0,1023.0,1024.0,1023.0,1023.0,1022.0,1023.0,1023.0,1023.0,1024.0,1023.0,1023.0,1024.0,1023.0,1023.0,1022.0,1022.0,1024.0,1024.0,1023.0,1024.0,1024.0,1024.0,1023.0,1023.0,1023.0,1022.0,1023.0,1024.0,1024.0,1023.0,1023.0,1024.0,1023.0,1023.0,1023.0,1023.0,1024.0,1024.0,1024.0,1024.0,1024.0,1024.0,1023.0,1024.0,1024.0,1023.0,1024.0,1023.0,1023.0,1023.0,1023.0,1024.0,1023.0,1022.0,1021.0,1022.0,1023.0,1023.0,1023.0,1023.0,1024.0,1023.0,1023.0,1022.0,1024.0,1024.0,1023.0,1024.0,1024.0,1022.0,1023.0,1024.0,1024.0,1024.0,1024.0,1025.0,1024.0,1024.0,1024.0,1024.0,1024.0,1024.0,1024.0,1024.0,1024.0,1024.0,1025.0,1024.0,1024.0,1025.0,1024.0,1024.0,1025.0,1025.0,1025.0,1026.0,1024.0,1026.0,1026.0,1026.0,1028.0,1028.0,1025.0,1027.0,1031.0,1028.0,1030.0,1032.0,1026.0,1031.0,1036.0,1033.0,1033.0,1037.0,1028.0,1032.0,1037.0,1033.0,1031.0,1037.0,1030.0,1037.0,1043.0,1037.0,1032.0,1041.0,1033.0,1038.0,1043.0,1038.0,1031.0,1041.0,1032.0,1037.0,1038.0,1037.0,1030.0,1040.0,1031.0,1038.0,1039.0,1038.0,1030.0,1041.0,1032.0,1024.0,1024.0,1022.0,1023.0,1024.0,1022.0,1041.0,1043.0,1038.0,1032.0,1041.0,1034.0,1035.0,1038.0,1037.0,1031.0,1039.0,1032.0,1029.0,1031.0,1030.0,1027.0,1031.0,2085,2010,1908,	00:30:17.431,0.0537109375,0.05810546875,1.017578125,-0.30517578125,0.244140625,0.1220703125,3.306884765625,-3.021240234375,47.0159912109375,446.0,-1587.0,-2560.0,0.916015625,0.036956787109375,-0.012664794921875,0.399261474609375,3.3054436783263452,-3.0224090677551185,42.51534856426514,0.9309718345084441,0.03642738634504325,-0.014114616276866967,0.3629948573787346,1,	00:30:17.432,0.04150390625,0.03173828125,1.0068359375,-0.67138671875,-1.28173828125,-0.54931640625,1.7852783203125,-2.3675537109375,166.915283203125,-432.0,-1217.0,-1977.0,-0.11358642578125,-0.022308349609375,-0.01312255859375,-0.993194580078125,1.7872527087109014,-2.368313432703886,167.44347279973093,-0.10900019470632957,-0.022244700820071104,-0.013239544360869283,-0.9937046066636325,1
1782117324.661805,0.413,1024.0,1024.0,1024.0,1023.0,1023.0,1023.0,1024.0,1024.0,1023.0,1024.0,1024.0,1024.0,1023.0,1024.0,1023.0,1024.0,1024.0,1023.0,1024.0,1023.0,1024.0,1022.0,1023.0,1023.0,1024.0,1024.0,1024.0,1023.0,1024.0,1023.0,1023.0,1024.0,1023.0,1023.0,1023.0,1023.0,1024.0,1023.0,1024.0,1023.0,1023.0,1022.0,1023.0,1024.0,1023.0,1023.0,1024.0,1023.0,1023.0,1023.0,1022.0,1023.0,1024.0,1024.0,1024.0,1024.0,1024.0,1023.0,1023.0,1023.0,1022.0,1024.0,1023.0,1024.0,1023.0,1023.0,1024.0,1023.0,1023.0,1022.0,1022.0,1023.0,1023.0,1023.0,1023.0,1023.0,1024.0,1023.0,1023.0,1022.0,1022.0,1024.0,1024.0,1024.0,1024.0,1024.0,1024.0,1023.0,1023.0,1022.0,1023.0,1024.0,1024.0,1024.0,1024.0,1023.0,1024.0,1023.0,1023.0,1023.0,1023.0,1024.0,1024.0,1024.0,1024.0,1024.0,1024.0,1023.0,1024.0,1024.0,1023.0,1024.0,1023.0,1023.0,1023.0,1024.0,1024.0,1023.0,1023.0,1021.0,1022.0,1024.0,1024.0,1023.0,1023.0,1023.0,1023.0,1023.0,1022.0,1023.0,1024.0,1023.0,1024.0,1024.0,1023.0,1023.0,1024.0,1025.0,1024.0,1024.0,1025.0,1024.0,1024.0,1024.0,1024.0,1024.0,1024.0,1024.0,1024.0,1024.0,1024.0,1024.0,1024.0,1024.0,1025.0,1024.0,1024.0,1025.0,1024.0,1025.0,1026.0,1024.0,1026.0,1026.0,1026.0,1027.0,1028.0,1026.0,1027.0,1030.0,1029.0,1031.0,1031.0,1027.0,1031.0,1036.0,1033.0,1033.0,1037.0,1028.0,1033.0,1038.0,1033.0,1031.0,1038.0,1029.0,1038.0,1042.0,1037.0,1032.0,1041.0,1032.0,1039.0,1043.0,1039.0,1032.0,1042.0,1033.0,1037.0,1038.0,1037.0,1029.0,1039.0,1032.0,1039.0,1039.0,1039.0,1030.0,1040.0,1032.0,1024.0,1024.0,1023.0,1023.0,1024.0,1021.0,1041.0,1042.0,1038.0,1032.0,1040.0,1034.0,1035.0,1038.0,1037.0,1031.0,1039.0,1032.0,1030.0,1031.0,1030.0,1027.0,1031.0,2085,2010,1909,	00:30:17.441,0.0537109375,0.05712890625,1.017578125,-0.3662109375,0.244140625,0.1220703125,3.2080078125,-3.0157470703125,47.021484375,446.0,-1588.0,-2558.0,0.916015625,0.036163330078125,-0.012939453125,0.3992919921875,3.2102497750545957,-3.014376070357261,42.521525661802194,0.930984638012296,0.035629418119376234,-0.01434893728293857,0.36303203212449336,1,	00:30:17.442,0.0419921875,0.03125,1.00634765625,-0.732421875,-1.3427734375,-0.54931640625,1.7413330078125,-2.4664306640625,166.9097900390625,-432.0,-1216.0,-1983.0,-0.113616943359375,-0.023101806640625,-0.012664794921875,-0.9931640625,1.7438044009495683,-2.465693033069637,167.43909834298935,-0.10903174392490117,-0.023048243533536152,-0.012768721372704534,-0.9936889941230203,1
1782117324.671209,0.422,1024.0,1024.0,1023.0,1023.0,1023.0,1024.0,1023.0,1023.0,1022.0,1024.0,1024.0,1024.0,1024.0,1024.0,1023.0,1024.0,1024.0,1024.0,1024.0,1023.0,1024.0,1023.0,1023.0,1023.0,1024.0,1024.0,1024.0,1024.0,1024.0,1023.0,1024.0,1023.0,1023.0,1024.0,1024.0,1023.0,1023.0,1024.0,1023.0,1023.0,1023.0,1023.0,1023.0,1024.0,1023.0,1023.0,1023.0,1023.0,1023.0,1022.0,1022.0,1024.0,1024.0,1024.0,1024.0,1024.0,1023.0,1023.0,1023.0,1023.0,1023.0,1024.0,1023.0,1023.0,1023.0,1023.0,1024.0,1022.0,1023.0,1022.0,1023.0,1023.0,1024.0,1024.0,1024.0,1023.0,1023.0,1023.0,1022.0,1022.0,1023.0,1023.0,1024.0,1024.0,1024.0,1024.0,1024.0,1023.0,1023.0,1023.0,1022.0,1024.0,1023.0,1024.0,1024.0,1023.0,1024.0,1023.0,1023.0,1023.0,1023.0,1023.0,1024.0,1024.0,1024.0,1024.0,1025.0,1024.0,1023.0,1024.0,1023.0,1024.0,1023.0,1024.0,1023.0,1023.0,1024.0,1023.0,1022.0,1021.0,1022.0,1023.0,1023.0,1023.0,1023.0,1024.0,1022.0,1023.0,1022.0,1023.0,1024.0,1023.0,1024.0,1024.0,1023.0,1022.0,1024.0,1024.0,1024.0,1024.0,1024.0,1024.0,1023.0,1024.0,1024.0,1024.0,1024.0,1024.0,1024.0,1024.0,1024.0,1025.0,1024.0,1024.0,1024.0,1023.0,1024.0,1025.0,1024.0,1025.0,1026.0,1024.0,1025.0,1027.0,1026.0,1028.0,1028.0,1026.0,1027.0,1031.0,1029.0,1031.0,1031.0,1026.0,1031.0,1036.0,1033.0,1033.0,1036.0,1028.0,1032.0,1037.0,1033.0,1031.0,1037.0,1030.0,1037.0,1043.0,1037.0,1032.0,1041.0,1032.0,1038.0,1043.0,1039.0,1031.0,1042.0,1032.0,1037.0,1039.0,1036.0,1030.0,1040.0,1031.0,1039.0,1039.0,1038.0,1030.0,1040.0,1032.0,1024.0,1023.0,1023.0,1023.0,1024.0,1022.0,1041.0,1042.0,1038.0,1032.0,1040.0,1034.0,1034.0,1039.0,1037.0,1031.0,1038.0,1032.0,1029.0,1032.0,1030.0,1027.0,1030.0,2085,2010,1909,	00:30:17.451,0.052734375,0.05810546875,1.0166015625,-0.30517578125,0.18310546875,0.06103515625,3.2794189453125,-2.955322265625,47.0159912109375,447.0,-1584.0,-2560.0,0.916015625,0.0364990234375,-0.012237548828125,0.3992919921875,3.27826504105179,-2.9546094363737123,42.51853486252294,0.9309908617582775,0.03599301529277055,-0.013648556439450853,0.36300721078214615,1,	00:30:17.452,0.04150390625,0.03173828125,1.00634765625,-0.732421875,-1.28173828125,-0.54931640625,1.7852783203125,-2.4005126953125,166.904296875,-432.0,-1216.0,-1981.0,-0.11370849609375,-0.0225830078125,-0.0130615234375,-0.9931640625,1.7836075704117058,-2.3995517552842975,167.43121849980915,-0.10910233021433757,-0.022513512385797907,-0.013175638197660466,-0.9936881934791922,1
1782117324.681787,0.433,1024.0,1024.0,1023.0,1024.0,1024.0,1024.0,1023.0,1023.0,1023.0,1024.0,1024.0,1024.0,1024.0,1024.0,1024.0,1024.0,1023.0,1024.0,1023.0,1023.0,1024.0,1023.0,1023.0,1023.0,1024.0,1024.0,1024.0,1023.0,1024.0,1023.0,1023.0,1024.0,1022.0,1023.0,1024.0,1023.0,1023.0,1024.0,1023.0,1023.0,1023.0,1022.0,1023.0,1024.0,1024.0,1023.0,1023.0,1023.0,1023.0,1022.0,1022.0,1023.0,1024.0,1024.0,1024.0,1024.0,1024.0,1023.0,1023.0,1023.0,1023.0,1024.0,1023.0,1024.0,1023.0,1024.0,1024.0,1023.0,1023.0,1022.0,1022.0,1023.0,1023.0,1023.0,1023.0,1024.0,1024.0,1023.0,1023.0,1022.0,1022.0,1023.0,1023.0,1024.0,1024.0,1024.0,1024.0,1023.0,1023.0,1023.0,1022.0,1023.0,1023.0,1024.0,1023.0,1024.0,1024.0,1023.0,1023.0,1023.0,1022.0,1024.0,1024.0,1024.0,1024.0,1024.0,1024.0,1024.0,1024.0,1024.0,1023.0,1023.0,1023.0,1024.0,1023.0,1024.0,1023.0,1023.0,1023.0,1021.0,1022.0,1024.0,1024.0,1023.0,1023.0,1024.0,1023.0,1023.0,1022.0,1024.0,1024.0,1023.0,1023.0,1024.0,1023.0,1023.0,1024.0,1024.0,1024.0,1024.0,1024.0,1024.0,1024.0,1024.0,1024.0,1023.0,1024.0,1024.0,1024.0,1024.0,1024.0,1024.0,1024.0,1024.0,1025.0,1024.0,1024.0,1025.0,1025.0,1025.0,1026.0,1024.0,1025.0,1027.0,1026.0,1027.0,1028.0,1026.0,1027.0,1031.0,1028.0,1030.0,1031.0,1027.0,1031.0,1036.0,1034.0,1032.0,1036.0,1028.0,1033.0,1038.0,1033.0,1031.0,1037.0,1029.0,1038.0,1044.0,1037.0,1031.0,1041.0,1033.0,1038.0,1044.0,1038.0,1032.0,1042.0,1032.0,1037.0,1040.0,1037.0,1030.0,1040.0,1031.0,1039.0,1040.0,1038.0,1030.0,1040.0,1032.0,1024.0,1024.0,1023.0,1023.0,1024.0,1022.0,1041.0,1043.0,1039.0,1031.0,1041.0,1034.0,1034.0,1038.0,1037.0,1031.0,1039.0,1032.0,1029.0,1032.0,1030.0,1026.0,1030.0,2085,2010,1909,	00:30:17.462,0.052734375,0.0576171875,1.01708984375,-0.30517578125,0.18310546875,0.1220703125,3.18603515625,-2.9718017578125,47.0269775390625,446.0,-1586.0,-2560.0,0.916015625,0.03582763671875,-0.0126953125,0.399322509765625,3.1859955303905534,-2.9743528166280444,42.524471148260616,0.930994847707952,0.035306408359273636,-0.014099515577007875,0.3630471797583739,1,	00:30:17.463,0.041015625,0.03173828125,1.005859375,-0.732421875,-1.3427734375,-0.54931640625,1.8072509765625,-2.3291015625,166.893310546875,-433.0,-1218.0,-1977.0,-0.11376953125,-0.02197265625,-0.013336181640625,-0.9931640625,1.8076009138976377,-2.326583606977436,167.42401916542732,-0.10917146253360333,-0.021904496304959383,-0.013452206764183305,-0.9936905066181693,1
1782117324.692976,0.444,1024.0,1024.0,1023.0,1023.0,1024.0,1023.0,1023.0,1024.0,1023.0,1024.0,1024.0,1024.0,1023.0,1024.0,1023.0,1024.0,1024.0,1024.0,1024.0,1024.0,1024.0,1023.0,1023.0,1023.0,1024.0,1024.0,1024.0,1023.0,1024.0,1023.0,1023.0,1023.0,1022.0,1023.0,1024.0,1022.0,1023.0,1024.0,1023.0,1023.0,1023.0,1022.0,1024.0,1024.0,1023.0,1023.0,1024.0,1023.0,1023.0,1022.0,1022.0,1023.0,1023.0,1024.0,1023.0,1023.0,1024.0,1023.0,1023.0,1023.0,1023.0,1024.0,1023.0,1023.0,1023.0,1023.0,1024.0,1023.0,1022.0,1022.0,1023.0,1024.0,1024.0,1024.0,1023.0,1023.0,1024.0,1023.0,1023.0,1022.0,1022.0,1024.0,1024.0,1024.0,1023.0,1023.0,1024.0,1023.0,1023.0,1023.0,1022.0,1024.0,1024.0,1024.0,1024.0,1023.0,1024.0,1023.0,1023.0,1023.0,1022.0,1024.0,1024.0,1024.0,1024.0,1024.0,1024.0,1024.0,1023.0,1024.0,1023.0,1023.0,1023.0,1023.0,1023.0,1023.0,1024.0,1023.0,1023.0,1021.0,1021.0,1023.0,1023.0,1023.0,1023.0,1024.0,1023.0,1023.0,1022.0,1024.0,1023.0,1023.0,1024.0,1024.0,1023.0,1023.0,1024.0,1024.0,1024.0,1024.0,1025.0,1024.0,1024.0,1024.0,1024.0,1024.0,1024.0,1024.0,1023.0,1024.0,1024.0,1024.0,1024.0,1024.0,1025.0,1024.0,1024.0,1025.0,1024.0,1026.0,1026.0,1024.0,1025.0,1028.0,1026.0,1028.0,1028.0,1025.0,1028.0,1031.0,1028.0,1030.0,1031.0,1027.0,1031.0,1036.0,1033.0,1033.0,1036.0,1028.0,1033.0,1037.0,1033.0,1031.0,1037.0,1030.0,1038.0,1043.0,1038.0,1031.0,1041.0,1032.0,1038.0,1044.0,1038.0,1031.0,1041.0,1032.0,1037.0,1039.0,1036.0,1029.0,1040.0,1031.0,1039.0,1040.0,1038.0,1029.0,1040.0,1031.0,1024.0,1024.0,1023.0,1023.0,1024.0,1021.0,1041.0,1043.0,1038.0,1031.0,1040.0,1035.0,1035.0,1039.0,1037.0,1031.0,1039.0,1032.0,1030.0,1032.0,1030.0,1026.0,1031.0,2085,2010,1909,	00:30:17.472,0.0537109375,0.05859375,1.01708984375,-0.30517578125,0.18310546875,0.06103515625,3.2684326171875,-3.0047607421875,47.021484375,447.0,-1588.0,-2558.0,0.916015625,0.036590576171875,-0.012664794921875,0.3992919921875,3.26814353424908,-3.005961880652362,42.52073777761171,0.9309715702733774,0.036073112587635146,-0.014097374367461968,0.3630315825474492,1,	00:30:17.473,0.0419921875,0.03271484375,1.005859375,-0.6103515625,-1.3427734375,-0.54931640625,1.8621826171875,-2.406005859375,166.8878173828125,-433.0,-1219.0,-1977.0,-0.113800048828125,-0.022735595703125,-0.01373291015625,-0.993133544921875,1.8622741187012475,-2.4085550348940794,167.4156039744376,-0.10922079975291539,-0.022668358081855987,-0.013846084464262326,-0.9936625425103912,1
1782117324.703020,0.454,1024.0,1024.0,1023.0,1023.0,1024.0,1023.0,1023.0,1024.0,1023.0,1024.0,1023.0,1024.0,1024.0,1024.0,1023.0,1024.0,1024.0,1023.0,1023.0,1023.0,1024.0,1023.0,1023.0,1023.0,1023.0,1024.0,1024.0,1024.0,1024.0,1023.0,1023.0,1024.0,1023.0,1024.0,1024.0,1023.0,1023.0,1023.0,1023.0,1023.0,1023.0,1022.0,1024.0,1023.0,1023.0,1023.0,1024.0,1023.0,1023.0,1022.0,1022.0,1023.0,1023.0,1024.0,1023.0,1023.0,1024.0,1023.0,1023.0,1023.0,1023.0,1024.0,1024.0,1024.0,1023.0,1023.0,1024.0,1023.0,1023.0,1022.0,1022.0,1023.0,1023.0,1024.0,1023.0,1024.0,1024.0,1023.0,1023.0,1022.0,1022.0,1024.0,1024.0,1024.0,1024.0,1024.0,1024.0,1024.0,1023.0,1023.0,1022.0,1024.0,1023.0,1024.0,1024.0,1023.0,1024.0,1023.0,1024.0,1023.0,1023.0,1024.0,1024.0,1024.0,1024.0,1024.0,1024.0,1024.0,1024.0,1024.0,1023.0,1024.0,1023.0,1023.0,1023.0,1023.0,1024.0,1023.0,1023.0,1021.0,1022.0,1023.0,1023.0,1023.0,1023.0,1024.0,1023.0,1023.0,1021.0,1023.0,1024.0,1023.0,1023.0,1024.0,1023.0,1022.0,1024.0,1024.0,1024.0,1024.0,1025.0,1023.0,1023.0,1023.0,1024.0,1024.0,1024.0,1024.0,1024.0,1023.0,1024.0,1024.0,1024.0,1025.0,1025.0,1024.0,1024.0,1025.0,1025.0,1025.0,1026.0,1024.0,1025.0,1028.0,1026.0,1028.0,1028.0,1025.0,1028.0,1031.0,1029.0,1031.0,1031.0,1027.0,1031.0,1036.0,1033.0,1033.0,1036.0,1028.0,1033.0,1038.0,1033.0,1030.0,1038.0,1029.0,1038.0,1043.0,1037.0,1032.0,1041.0,1032.0,1039.0,1043.0,1039.0,1031.0,1042.0,1032.0,1038.0,1039.0,1037.0,1029.0,1040.0,1031.0,1040.0,1040.0,1038.0,1030.0,1040.0,1032.0,1024.0,1024.0,1023.0,1022.0,1024.0,1022.0,1040.0,1043.0,1038.0,1032.0,1041.0,1034.0,1035.0,1039.0,1038.0,1031.0,1038.0,1032.0,1029.0,1032.0,1030.0,1027.0,1031.0,2085,2010,1909,	00:30:17.482,0.0537109375,0.05859375,1.017578125,-0.244140625,0.18310546875,0.1220703125,3.350830078125,-3.0377197265625,47.0159912109375,448.0,-1586.0,-2557.0,0.915985107421875,0.037384033203125,-0.01263427734375,0.3992919921875,3.351117440966237,-3.0369506103009853,42.51755741689285,0.9309457740974497,0.03684460227206936,-0.014087431198758006,0.36302064026131237,1,	00:30:17.483,0.041015625,0.03271484375,1.0068359375,-0.6103515625,-1.3427734375,-0.54931640625,1.856689453125,-2.3291015625,166.88232421875,-433.0,-1216.0,-1977.0,-0.1138916015625,-0.02203369140625,-0.013763427734375,-0.9931640625,1.8549496211831855,-2.3302161093137537,167.40972868390207,-0.10928574143004627,-0.02198282886089781,-0.013856571526951524,-0.9936706584079436,1
1782117324.712908,0.464,1024.0,1024.0,1023.0,1024.0,1024.0,1024.0,1023.0,1024.0,1022.0,1024.0,1024.0,1024.0,1024.0,1024.0,1023.0,1023.0,1023.0,1023.0,1024.0,1024.0,1024.0,1023.0,1023.0,1023.0,1024.0,1024.0,1024.0,1024.0,1024.0,1023.0,1024.0,1023.0,1023.0,1024.0,1024.0,1024.0,1024.0,1024.0,1023.0,1023.0,1022.0,1022.0,1023.0,1024.0,1023.0,1023.0,1024.0,1023.0,1023.0,1023.0,1022.0,1024.0,1024.0,1024.0,1024.0,1023.0,1024.0,1023.0,1023.0,1023.0,1022.0,1024.0,1023.0,1024.0,1023.0,1023.0,1024.0,1023.0,1023.0,1022.0,1022.0,1024.0,1023.0,1024.0,1023.0,1023.0,1024.0,1023.0,1023.0,1022.0,1022.0,1023.0,1024.0,1024.0,1024.0,1024.0,1024.0,1023.0,1023.0,1023.0,1023.0,1023.0,1023.0,1024.0,1024.0,1023.0,1024.0,1023.0,1023.0,1023.0,1023.0,1023.0,1024.0,1025.0,1024.0,1024.0,1025.0,1024.0,1024.0,1024.0,1022.0,1024.0,1023.0,1023.0,1022.0,1023.0,1024.0,1023.0,1022.0,1021.0,1022.0,1023.0,1024.0,1023.0,1023.0,1024.0,1022.0,1023.0,1022.0,1024.0,1023.0,1023.0,1023.0,1024.0,1023.0,1023.0,1024.0,1024.0,1024.0,1024.0,1024.0,1023.0,1024.0,1024.0,1024.0,1024.0,1024.0,1025.0,1024.0,1023.0,1024.0,1024.0,1024.0,1024.0,1025.0,1024.0,1024.0,1024.0,1025.0,1025.0,1026.0,1024.0,1025.0,1027.0,1026.0,1027.0,1028.0,1025.0,1028.0,1030.0,1029.0,1031.0,1031.0,1026.0,1031.0,1036.0,1033.0,1033.0,1037.0,1029.0,1032.0,1037.0,1033.0,1031.0,1038.0,1030.0,1038.0,1043.0,1037.0,1032.0,1041.0,1032.0,1038.0,1043.0,1038.0,1031.0,1042.0,1032.0,1037.0,1039.0,1036.0,1029.0,1040.0,1031.0,1038.0,1040.0,1038.0,1030.0,1040.0,1032.0,1023.0,1024.0,1023.0,1022.0,1025.0,1021.0,1040.0,1043.0,1039.0,1031.0,1041.0,1034.0,1034.0,1038.0,1037.0,1031.0,1039.0,1032.0,1029.0,1032.0,1030.0,1027.0,1031.0,2084,2009,1909,	00:30:17.493,0.0537109375,0.05859375,1.017578125,-0.30517578125,0.18310546875,0.06103515625,3.262939453125,-3.0047607421875,47.021484375,445.0,-1586.0,-2560.0,0.915985107421875,0.036529541015625,-0.012664794921875,0.399322509765625,3.2621353144096568,-3.003484641471744,42.52279942386128,0.9309676798803493,0.0360167358807431,-0.014095623211265108,0.3630472244226393,1,	00:30:17.494,0.0419921875,0.03125,1.00634765625,-0.6103515625,-1.28173828125,-0.54931640625,1.7742919921875,-2.4005126953125,166.8768310546875,-433.0,-1216.0,-1978.0,-0.113922119140625,-0.022552490234375,-0.01300048828125,-0.9931640625,1.7760828176837686,-2.3983784470676626,167.4068337228352,-0.10931544145117836,-0.022498963922949467,-0.01310672308550217,-0.9936660126484591,1
1782117324.723401,0.474,1024.0,1024.0,1023.0,1023.0,1023.0,1024.0,1023.0,1024.0,1022.0,1024.0,1024.0,1024.0,1024.0,1024.0,1023.0,1024.0,1023.0,1024.0,1024.0,1024.0,1024.0,1023.0,1023.0,1023.0,1023.0,1024.0,1024.0,1024.0,1024.0,1023.0,1023.0,1024.0,1023.0,1023.0,1024.0,1023.0,1023.0,1024.0,1023.0,1023.0,1023.0,1022.0,1023.0,1024.0,1023.0,1023.0,1024.0,1023.0,1022.0,1022.0,1022.0,1023.0,1023.0,1024.0,1024.0,1024.0,1024.0,1023.0,1023.0,1023.0,1022.0,1023.0,1023.0,1024.0,1023.0,1023.0,1024.0,1023.0,1023.0,1022.0,1022.0,1023.0,1023.0,1024.0,1023.0,1023.0,1024.0,1023.0,1023.0,1022.0,1022.0,1024.0,1023.0,1024.0,1024.0,1024.0,1024.0,1023.0,1023.0,1023.0,1023.0,1023.0,1023.0,1024.0,1024.0,1023.0,1024.0,1024.0,1023.0,1024.0,1022.0,1023.0,1024.0,1024.0,1024.0,1024.0,1024.0,1024.0,1023.0,1024.0,1023.0,1023.0,1023.0,1023.0,1023.0,1024.0,1024.0,1023.0,1023.0,1021.0,1022.0,1023.0,1024.0,1023.0,1023.0,1024.0,1024.0,1023.0,1022.0,1023.0,1024.0,1024.0,1024.0,1024.0,1023.0,1023.0,1024.0,1024.0,1024.0,1024.0,1024.0,1024.0,1024.0,1024.0,1024.0,1024.0,1024.0,1024.0,1024.0,1024.0,1024.0,1024.0,1023.0,1024.0,1025.0,1024.0,1024.0,1024.0,1024.0,1025.0,1026.0,1024.0,1025.0,1027.0,1026.0,1028.0,1028.0,1026.0,1027.0,1031.0,1029.0,1031.0,1031.0,1027.0,1030.0,1036.0,1033.0,1033.0,1037.0,1029.0,1032.0,1038.0,1033.0,1031.0,1038.0,1030.0,1037.0,1043.0,1036.0,1032.0,1041.0,1033.0,1037.0,1043.0,1038.0,1031.0,1042.0,1033.0,1037.0,1040.0,1036.0,1030.0,1041.0,1032.0,1038.0,1040.0,1037.0,1031.0,1040.0,1032.0,1023.0,1024.0,1023.0,1023.0,1024.0,1021.0,1040.0,1043.0,1039.0,1032.0,1040.0,1035.0,1034.0,1039.0,1037.0,1031.0,1038.0,1032.0,1029.0,1032.0,1030.0,1027.0,1031.0,2084,2009,1909,	00:30:17.503,0.0537109375,0.05712890625,1.01708984375,-0.30517578125,0.18310546875,0.06103515625,3.1695556640625,-3.0267333984375,47.0269775390625,445.0,-1585.0,-2559.0,0.915985107421875,0.035919189453125,-0.01318359375,0.39935302734375,3.1714393291828715,-3.028860173787814,42.528124343147596,0.9309713729963782,0.03536065961660975,-0.014587596166644831,0.36308281211150084,1,	00:30:17.504,0.04345703125,0.03173828125,1.0068359375,-0.67138671875,-1.28173828125,-0.54931640625,1.8017578125,-2.493896484375,166.871337890625,-434.0,-1217.0,-1981.0,-0.11395263671875,-0.0234375,-0.013153076171875,-0.993133544921875,1.8043357199793981,-2.4957467374979805,167.3994640948563,-0.10935850967294494,-0.023371012143759817,-0.013256769214249625,-0.9936391549367853,1
1782117324.732757,0.484,1024.0,1024.0,1023.0,1023.0,1023.0,1024.0,1023.0,1024.0,1022.0,1023.0,1024.0,1024.0,1024.0,1024.0,1023.0,1024.0,1023.0,1024.0,1024.0,1023.0,1024.0,1023.0,1023.0,1023.0,1024.0,1024.0,1024.0,1024.0,1024.0,1023.0,1023.0,1023.0,1023.0,1023.0,1024.0,1023.0,1024.0,1024.0,1023.0,1022.0,1023.0,1023.0,1023.0,1023.0,1023.0,1023.0,1024.0,1023.0,1023.0,1022.0,1022.0,1023.0,1024.0,1024.0,1024.0,1023.0,1024.0,1023.0,1023.0,1023.0,1022.0,1023.0,1023.0,1024.0,1023.0,1023.0,1023.0,1023.0,1023.0,1022.0,1022.0,1023.0,1023.0,1024.0,1023.0,1023.0,1024.0,1023.0,1023.0,1022.0,1022.0,1023.0,1023.0,1024.0,1023.0,1023.0,1024.0,1023.0,1023.0,1023.0,1023.0,1024.0,1023.0,1024.0,1024.0,1024.0,1024.0,1023.0,1024.0,1023.0,1022.0,1023.0,1024.0,1024.0,1024.0,1024.0,1025.0,1024.0,1024.0,1024.0,1023.0,1024.0,1022.0,1024.0,1023.0,1023.0,1024.0,1023.0,1023.0,1021.0,1022.0,1023.0,1024.0,1024.0,1024.0,1024.0,1024.0,1023.0,1021.0,1024.0,1023.0,1023.0,1024.0,1024.0,1023.0,1023.0,1024.0,1024.0,1024.0,1024.0,1024.0,1024.0,1024.0,1023.0,1024.0,1024.0,1024.0,1024.0,1024.0,1023.0,1024.0,1024.0,1024.0,1024.0,1025.0,1024.0,1024.0,1025.0,1025.0,1025.0,1025.0,1024.0,1025.0,1027.0,1026.0,1027.0,1028.0,1026.0,1027.0,1031.0,1029.0,1031.0,1031.0,1027.0,1030.0,1036.0,1033.0,1033.0,1036.0,1028.0,1032.0,1038.0,1034.0,1031.0,1038.0,1030.0,1036.0,1043.0,1037.0,1032.0,1041.0,1033.0,1037.0,1043.0,1038.0,1032.0,1043.0,1033.0,1036.0,1039.0,1037.0,1030.0,1040.0,1031.0,1038.0,1040.0,1038.0,1030.0,1040.0,1032.0,1023.0,1024.0,1023.0,1023.0,1024.0,1021.0,1040.0,1043.0,1038.0,1031.0,1041.0,1035.0,1033.0,1038.0,1037.0,1031.0,1039.0,1033.0,1029.0,1032.0,1030.0,1026.0,1031.0,2084,2009,1909,	00:30:17.513,0.05322265625,0.0576171875,1.017578125,-0.244140625,0.18310546875,0.06103515625,3.2464599609375,-2.9827880859375,47.0269775390625,445.0,-1585.0,-2561.0,0.916015625,0.036346435546875,-0.012542724609375,0.399322509765625,3.2486102226617155,-2.981535248423007,42.524659251916184,0.9309726594991015,0.03583780644404545,-0.013959465364462272,0.3630574227600745,1,	00:30:17.514,0.04150390625,0.03271484375,1.0068359375,-0.67138671875,-1.28173828125,-0.48828125,1.834716796875,-2.4224853515625,166.8603515625,-433.0,-1215.0,-1975.0,-0.114013671875,-0.0228271484375,-0.013458251953125,-0.993133544921875,1.8330172258363722,-2.423767419853966,167.39266171630925,-0.1094231050150431,-0.022775091891943884,-0.013573238993690664,-0.993641608660487,1
1782117324.742976,0.494,1024.0,1024.0,1023.0,1023.0,1024.0,1023.0,1023.0,1024.0,1022.0,1023.0,1024.0,1024.0,1024.0,1024.0,1023.0,1023.0,1024.0,1024.0,1024.0,1024.0,1024.0,1023.0,1024.0,1023.0,1024.0,1024.0,1024.0,1024.0,1024.0,1023.0,1024.0,1023.0,1022.0,1023.0,1024.0,1024.0,1024.0,1024.0,1023.0,1023.0,1023.0,1022.0,1023.0,1024.0,1023.0,1023.0,1024.0,1023.0,1023.0,1023.0,1023.0,1024.0,1023.0,1024.0,1023.0,1023.0,1024.0,1023.0,1023.0,1023.0,1022.0,1024.0,1023.0,1024.0,1023.0,1023.0,1023.0,1023.0,1023.0,1021.0,1022.0,1023.0,1023.0,1023.0,1023.0,1023.0,1024.0,1023.0,1023.0,1022.0,1022.0,1023.0,1023.0,1024.0,1024.0,1023.0,1024.0,1023.0,1023.0,1023.0,1022.0,1024.0,1023.0,1024.0,1023.0,1024.0,1024.0,1023.0,1023.0,1022.0,1022.0,1024.0,1024.0,1024.0,1024.0,1024.0,1024.0,1023.0,1024.0,1024.0,1023.0,1024.0,1023.0,1024.0,1023.0,1023.0,1024.0,1023.0,1023.0,1020.0,1022.0,1023.0,1024.0,1023.0,1024.0,1023.0,1023.0,1023.0,1022.0,1023.0,1023.0,1024.0,1024.0,1024.0,1023.0,1023.0,1024.0,1024.0,1024.0,1023.0,1025.0,1024.0,1024.0,1023.0,1024.0,1024.0,1024.0,1025.0,1023.0,1024.0,1024.0,1024.0,1024.0,1024.0,1025.0,1024.0,1024.0,1025.0,1024.0,1026.0,1026.0,1024.0,1025.0,1028.0,1026.0,1027.0,1028.0,1026.0,1027.0,1031.0,1029.0,1030.0,1032.0,1026.0,1030.0,1036.0,1033.0,1033.0,1037.0,1028.0,1032.0,1038.0,1033.0,1031.0,1038.0,1030.0,1036.0,1043.0,1037.0,1032.0,1042.0,1033.0,1038.0,1044.0,1038.0,1031.0,1042.0,1032.0,1037.0,1040.0,1036.0,1030.0,1041.0,1031.0,1038.0,1039.0,1038.0,1030.0,1040.0,1032.0,1024.0,1024.0,1023.0,1022.0,1024.0,1021.0,1040.0,1043.0,1039.0,1032.0,1040.0,1035.0,1034.0,1039.0,1037.0,1030.0,1040.0,1032.0,1029.0,1032.0,1030.0,1027.0,1031.0,2085,2009,1909,	00:30:17.523,0.0537109375,0.0576171875,1.017578125,-0.244140625,0.18310546875,0.1220703125,3.2244873046875,-3.0706787109375,47.0269775390625,446.0,-1588.0,-2560.0,0.915985107421875,0.036468505859375,-0.0133056640625,0.39935302734375,3.22603437413634,-3.0691612474794896,42.527044445303744,0.9309455369440964,0.03593126720392999,-0.014742548217051713,0.363086778268027,1,	00:30:17.524,0.041015625,0.03173828125,1.0068359375,-0.732421875,-1.28173828125,-0.54931640625,1.8017578125,-2.35107421875,166.8603515625,-433.0,-1215.0,-1977.0,-0.11407470703125,-0.02215576171875,-0.01324462890625,-0.993133544921875,1.7997588317711162,-2.3486562449234003,167.38784138817738,-0.10948323712006898,-0.02209263393776408,-0.013356077984011361,-0.9936533356741111,1
