Unix_Time_s,IMU1_RefTime,ax_g,ay_g,az_g,gx_dps,gy_dps,gz_dps,mx_uT,my_uT,mz_uT,temp_C,qw,qx,qy,qz
1782115716.292671,215710,0.151855,-0.214355,0.972656,-6.707317,-3.292683,-3.780488,11.168750,8.243751,44.262501,0.0,1.000000,0.000000,0.000000,0.000000
1782115716.301671,215719,0.159668,-0.219238,0.960938,-4.390244,-2.804878,-3.658537,10.987500,8.131250,44.362499,0.0,1.000000,0.000000,0.000000,0.000000
1782115716.313671,215731,0.167969,-0.222656,0.946777,-1.768293,-2.560976,-4.207317,10.987500,8.131250,44.362499,0.0,1.000000,0.000000,0.000000,0.000000
1782115716.321671,215739,0.170898,-0.231934,0.943848,1.219512,-1.890244,-4.634146,11.018750,8.175000,44.299999,0.0,1.000000,0.000000,0.000000,0.000000
1782115716.331671,215749,0.169434,-0.238770,0.948242,4.817073,-1.219512,-4.939024,11.018750,8.175000,44.299999,0.0,1.000000,0.000000,0.000000,0.000000
1782115716.342671,215760,0.172363,-0.242188,0.951172,8.231708,-1.646341,-5.670732,11.075000,8.112500,44.299999,0.0,1.000000,0.000000,0.000000,0.000000
1782115716.352671,215770,0.178223,-0.236328,0.960449,11.341464,-2.012195,-6.646342,11.075000,8.112500,44.299999,0.0,1.000000,0.000000,0.000000,0.000000
1782115716.361671,215779,0.191895,-0.222168,0.968750,14.207317,-2.378049,-7.500000,11.256250,8.193750,44.187500,0.0,1.000000,0.000000,0.000000,0.000000
1782115716.371671,215789,0.201660,-0.210938,0.969727,16.646341,-2.012195,-7.926829,11.256250,8.193750,44.187500,0.0,1.000000,0.000000,0.000000,0.000000
1782115716.381671,215799,0.199707,-0.195801,0.972656,18.658537,-1.463415,-7.804878,11.450000,8.137500,44.181252,0.0,1.000000,0.000000,0.000000,0.000000
1782115716.393671,215811,0.193359,-0.173340,0.971680,19.634148,-1.585366,-8.109756,11.450000,8.137500,44.181252,0.0,1.000000,0.000000,0.000000,0.000000
1782115716.402671,215820,0.192871,-0.146484,0.968262,19.085367,-2.439024,-9.024390,11.700000,8.156250,44.056252,0.0,1.000000,0.000000,0.000000,0.000000
1782115716.411671,215829,0.196289,-0.119141,0.968750,17.134148,-2.439024,-9.878049,11.700000,8.156250,44.056252,0.0,1.000000,0.000000,0.000000,0.000000
1782115716.421671,215839,0.197754,-0.097168,0.970215,14.146341,-1.463415,-10.426829,11.912500,8.131250,43.981251,0.0,1.000000,0.000000,0.000000,0.000000
1782115716.434671,215852,0.194824,-0.083496,0.973145,10.487805,-0.365854,-10.426829,11.912500,8.131250,43.981251,0.0,1.000000,0.000000,0.000000,0.000000
1782115716.441671,215859,0.192383,-0.078125,0.975586,6.524390,0.487805,-10.121951,12.018750,8.225000,43.943752,0.0,1.000000,0.000000,0.000000,0.000000
1782115716.451671,215869,0.189453,-0.084473,0.976562,2.500000,0.548781,-9.756098,12.018750,8.225000,43.943752,0.0,1.000000,0.000000,0.000000,0.000000
1782115716.461671,215879,0.192871,-0.092773,0.979004,-1.097561,0.792683,-9.207317,12.025001,8.212501,43.931252,0.0,1.000000,0.000000,0.000000,0.000000
1782115716.475671,215893,0.194824,-0.102539,0.977539,-3.658537,1.036585,-8.719512,12.025001,8.212501,43.931252,0.0,1.000000,0.000000,0.000000,0.000000
1782115716.481671,215899,0.196777,-0.110840,0.976562,-6.097561,0.975610,-7.804878,11.962501,8.268750,43.968750,0.0,1.000000,0.000000,0.000000,0.000000
1782115716.492671,215910,0.195312,-0.124023,0.972656,-7.865854,0.914634,-7.012195,11.962501,8.268750,43.968750,0.0,1.000000,0.000000,0.000000,0.000000
1782115716.501671,215919,0.196777,-0.123535,0.977051,-10.304878,0.182927,-5.792683,12.118751,8.700000,43.737499,0.0,1.000000,0.000000,0.000000,0.000000
1782115716.515671,215933,0.185547,-0.152344,0.966797,-11.097561,1.280488,-5.975610,12.118751,8.700000,43.737499,0.0,1.000000,0.000000,0.000000,0.000000
1782115716.521671,215939,0.179199,-0.166992,0.961914,-11.646341,1.402439,-5.914634,11.931251,8.737500,43.806252,0.0,1.000000,0.000000,0.000000,0.000000
1782115716.531671,215949,0.173828,-0.179199,0.964355,-11.646341,1.951220,-6.219512,11.931251,8.737500,43.806252,0.0,1.000000,0.000000,0.000000,0.000000
1782115716.541671,215959,0.171875,-0.188965,0.968750,-11.341464,2.073171,-6.402439,11.568750,8.418750,44.068752,0.0,1.000000,0.000000,0.000000,0.000000
1782115716.553671,215971,0.170898,-0.198730,0.963379,-11.097561,2.195122,-6.280488,11.568750,8.418750,44.068752,0.0,1.000000,0.000000,0.000000,0.000000
1782115716.561671,215979,0.169922,-0.205566,0.969727,-9.817074,2.621951,-6.341464,11.425000,8.437500,44.181252,0.0,1.000000,0.000000,0.000000,0.000000
1782115716.571671,215989,0.169922,-0.208008,0.970703,-8.780488,2.621951,-6.219512,11.425000,8.437500,44.181252,0.0,1.000000,0.000000,0.000000,0.000000
1782115716.581671,215999,0.166016,-0.210938,0.970703,-7.500000,2.439024,-5.914634,11.350000,8.487500,44.150002,0.0,1.000000,0.000000,0.000000,0.000000
1782115716.593671,216011,0.162109,-0.208008,0.966309,-6.341464,2.012195,-5.609756,11.350000,8.487500,44.150002,0.0,1.000000,0.000000,0.000000,0.000000
1782115716.601671,216019,0.158203,-0.205078,0.966797,-5.000000,2.134146,-5.304878,11.306251,8.575000,44.150002,0.0,1.000000,0.000000,0.000000,0.000000
1782115716.611671,216029,0.154785,-0.191406,0.968262,-5.304878,0.731707,-4.207317,11.306251,8.575000,44.150002,0.0,1.000000,0.000000,0.000000,0.000000
1782115716.621671,216039,0.151367,-0.194336,0.968750,-4.329268,1.646341,-4.390244,11.206250,8.531250,44.218750,0.0,1.000000,0.000000,0.000000,0.000000
1782115716.634671,216052,0.148926,-0.187988,0.967773,-4.268293,1.524390,-4.085366,11.206250,8.531250,44.218750,0.0,1.000000,0.000000,0.000000,0.000000
1782115716.642671,216060,0.147949,-0.187500,0.971191,-4.390244,1.829268,-4.085366,11.156250,8.618751,44.187500,0.0,1.000000,0.000000,0.000000,0.000000
1782115716.651671,216069,0.148926,-0.186523,0.974609,-4.756098,1.585366,-3.902439,11.156250,8.618751,44.187500,0.0,1.000000,0.000000,0.000000,0.000000
1782115716.661671,216079,0.149414,-0.191406,0.976562,-5.000000,1.524390,-3.780488,11.087501,8.587501,44.281250,0.0,1.000000,0.000000,0.000000,0.000000
1782115716.673671,216091,0.146484,-0.199219,0.978516,-5.304878,1.463415,-3.841464,11.087501,8.587501,44.281250,0.0,1.000000,0.000000,0.000000,0.000000
1782115716.682671,216100,0.141113,-0.205566,0.976562,-5.548780,1.219512,-3.841464,11.100000,8.718750,44.275002,0.0,1.000000,0.000000,0.000000,0.000000
1782115716.691671,216109,0.132812,-0.210449,0.973633,-5.853659,1.036585,-3.658537,11.100000,8.718750,44.275002,0.0,1.000000,0.000000,0.000000,0.000000
1782115716.701671,216119,0.125000,-0.209961,0.972168,-6.158537,0.914634,-3.536585,11.018750,8.712501,44.299999,0.0,1.000000,0.000000,0.000000,0.000000
1782115716.712671,216130,0.118652,-0.209961,0.968750,-6.341464,0.731707,-3.536585,11.018750,8.712501,44.299999,0.0,1.000000,0.000000,0.000000,0.000000
1782115716.722671,216140,0.117188,-0.207520,0.966309,-6.463415,0.548781,-3.475610,10.912500,8.743751,44.350002,0.0,1.000000,0.000000,0.000000,0.000000
1782115716.731671,216149,0.121094,-0.206055,0.963867,-6.402439,0.304878,-3.414634,10.912500,8.743751,44.350002,0.0,1.000000,0.000000,0.000000,0.000000
1782115716.741671,216159,0.127441,-0.205078,0.960938,-6.097561,0.182927,-3.658537,10.793750,8.762500,44.325001,0.0,1.000000,0.000000,0.000000,0.000000
1782115716.754671,216172,0.146484,-0.208008,0.964844,-4.817073,0.060976,-4.329268,10.793750,8.762500,44.325001,0.0,1.000000,0.000000,0.000000,0.000000
1782115716.762671,216180,0.146484,-0.208008,0.964844,-4.817073,0.060976,-4.329268,10.756250,8.818750,44.350002,0.0,1.000000,0.000000,0.000000,0.000000
1782115716.771671,216189,0.153320,-0.211426,0.965820,-3.719512,0.060976,-4.695122,10.756250,8.818750,44.350002,0.0,1.000000,0.000000,0.000000,0.000000
1782115716.781671,216199,0.161133,-0.216309,0.965820,-2.743902,0.121951,-4.878049,10.656250,8.775001,44.431252,0.0,1.000000,0.000000,0.000000,0.000000
1782115716.793671,216211,0.165039,-0.217773,0.967773,-1.707317,0.365854,-4.878049,10.656250,8.775001,44.431252,0.0,1.000000,0.000000,0.000000,0.000000
1782115716.801671,216219,0.169922,-0.221680,0.968262,-0.670732,0.609756,-4.695122,10.637500,8.850000,44.443752,0.0,1.000000,0.000000,0.000000,0.000000
1782115716.811671,216229,0.174805,-0.217773,0.970215,0.243902,0.914634,-4.451220,10.637500,8.850000,44.443752,0.0,1.000000,0.000000,0.000000,0.000000
1782115716.821671,216239,0.179199,-0.209961,0.970703,1.097561,1.158537,-4.329268,10.637500,8.818750,44.481251,0.0,1.000000,0.000000,0.000000,0.000000
1782115716.834671,216252,0.187012,-0.187500,0.972656,1.890244,1.341463,-4.085366,10.637500,8.818750,44.481251,0.0,1.000000,0.000000,0.000000,0.000000
1782115716.842671,216260,0.187012,-0.187500,0.972656,1.890244,1.341463,-4.085366,10.700000,8.931251,44.375000,0.0,1.000000,0.000000,0.000000,0.000000
1782115716.851671,216269,0.188477,-0.178711,0.969727,2.012195,1.341463,-3.780488,10.700000,8.931251,44.375000,0.0,1.000000,0.000000,0.000000,0.000000
1782115716.861671,216279,0.187988,-0.165527,0.963379,1.341463,1.219512,-2.256098,10.656250,8.918750,44.437500,0.0,1.000000,0.000000,0.000000,0.000000
1782115716.874671,216292,0.184082,-0.160645,0.963379,0.487805,1.341463,-1.158537,10.656250,8.918750,44.437500,0.0,1.000000,0.000000,0.000000,0.000000
1782115716.881671,216299,0.178711,-0.157715,0.966797,-0.670732,1.463415,0.060976,10.700000,8.968750,44.406250,0.0,1.000000,0.000000,0.000000,0.000000
1782115716.891671,216309,0.173828,-0.157715,0.971191,-2.012195,1.646341,1.280488,10.700000,8.968750,44.406250,0.0,1.000000,0.000000,0.000000,0.000000
1782115716.901671,216319,0.168457,-0.159668,0.975586,-3.475610,1.707317,2.439024,10.600000,8.931251,44.450001,0.0,1.000000,0.000000,0.000000,0.000000
1782115716.914671,216332,0.163086,-0.162598,0.977051,-4.817073,1.585366,3.353659,10.600000,8.931251,44.450001,0.0,1.000000,0.000000,0.000000,0.000000
1782115716.922671,216340,0.159180,-0.164551,0.979492,-5.975610,1.158537,4.085366,10.606250,8.981250,44.424999,0.0,1.000000,0.000000,0.000000,0.000000
1782115716.931671,216349,0.157227,-0.167480,0.979004,-6.829268,0.731707,4.573171,10.606250,8.981250,44.424999,0.0,1.000000,0.000000,0.000000,0.000000
1782115716.941671,216359,0.155762,-0.172363,0.977051,-7.439024,0.243902,4.878049,10.500000,8.887500,44.487499,0.0,1.000000,0.000000,0.000000,0.000000
1782115716.953671,216371,0.154785,-0.179199,0.972168,-7.743903,-0.243902,5.060976,10.500000,8.887500,44.487499,0.0,1.000000,0.000000,0.000000,0.000000
1782115716.961671,216379,0.156250,-0.185547,0.967773,-7.682927,-0.365854,5.060976,10.518750,9.131250,44.437500,0.0,1.000000,0.000000,0.000000,0.000000
1782115716.971671,216389,0.158691,-0.191406,0.968750,-7.682927,-0.487805,4.878049,10.518750,9.131250,44.437500,0.0,1.000000,0.000000,0.000000,0.000000
1782115716.981671,216399,0.161621,-0.196777,0.967773,-7.621952,-0.182927,4.512195,10.337501,8.925000,44.531250,0.0,1.000000,0.000000,0.000000,0.000000
1782115716.994671,216412,0.164551,-0.202148,0.966797,-7.439024,-0.121951,4.024390,10.337501,8.925000,44.531250,0.0,1.000000,0.000000,0.000000,0.000000
1782115717.002671,216420,0.168457,-0.205078,0.967285,-7.012195,-0.060976,3.536585,10.281250,8.950000,44.593750,0.0,1.000000,0.000000,0.000000,0.000000
1782115717.011671,216429,0.169922,-0.207031,0.968262,-6.463415,0.000000,3.292683,10.281250,8.950000,44.593750,0.0,1.000000,0.000000,0.000000,0.000000
1782115717.021671,216439,0.171387,-0.209961,0.968750,-5.792683,0.000000,3.048780,10.175000,8.862500,44.593750,0.0,1.000000,0.000000,0.000000,0.000000
1782115717.032671,216450,0.172852,-0.212402,0.972656,-5.060976,-0.060976,3.109756,10.175000,8.862500,44.593750,0.0,1.000000,0.000000,0.000000,0.000000
1782115717.042671,216460,0.173828,-0.219238,0.977051,-4.329268,-0.243902,3.292683,10.068750,8.837501,44.575001,0.0,1.000000,0.000000,0.000000,0.000000
1782115717.052671,216470,0.173828,-0.222656,0.977539,-3.719512,-0.487805,3.780488,10.068750,8.837501,44.575001,0.0,1.000000,0.000000,0.000000,0.000000
1782115717.061671,216479,0.170410,-0.222656,0.974121,-2.926829,-0.914634,4.207317,9.975000,8.762500,44.681252,0.0,1.000000,0.000000,0.000000,0.000000
1782115717.072671,216490,0.168457,-0.224609,0.969238,-1.829268,-1.341463,4.573171,9.975000,8.762500,44.681252,0.0,1.000000,0.000000,0.000000,0.000000
1782115717.082671,216500,0.164551,-0.224609,0.966797,-0.731707,-1.524390,4.695122,10.012500,8.825000,44.618752,0.0,1.000000,0.000000,0.000000,0.000000
1782115717.092671,216510,0.160156,-0.225098,0.964355,0.243902,-1.463415,4.573171,10.012500,8.825000,44.618752,0.0,1.000000,0.000000,0.000000,0.000000
1782115717.101671,216519,0.158203,-0.222656,0.965332,1.036585,-1.280488,4.573171,10.031250,8.768750,44.656250,0.0,1.000000,0.000000,0.000000,0.000000
1782115717.112671,216530,0.157227,-0.216309,0.969238,1.707317,-1.036585,4.573171,10.031250,8.768750,44.656250,0.0,1.000000,0.000000,0.000000,0.000000
1782115717.121671,216539,0.160156,-0.209473,0.978516,1.890244,-0.914634,4.695122,10.031250,8.668750,44.631252,0.0,1.000000,0.000000,0.000000,0.000000
1782115717.135671,216553,0.163086,-0.206543,0.984863,1.463415,-0.853659,5.121951,10.081250,8.681251,44.643749,0.0,1.000000,0.000000,0.000000,0.000000
1782115717.141671,216559,0.161133,-0.208496,0.987793,1.097561,-0.914634,5.548780,10.081250,8.681251,44.643749,0.0,1.000000,0.000000,0.000000,0.000000
1782115717.153671,216571,0.155273,-0.213379,0.986328,0.914634,-1.341463,5.975610,10.081250,8.681251,44.643749,0.0,1.000000,0.000000,0.000000,0.000000
1782115717.162671,216580,0.150391,-0.216797,0.979492,1.036585,-1.951220,6.341464,10.081250,8.625000,44.637501,0.0,1.000000,0.000000,0.000000,0.000000
1782115717.171671,216589,0.147949,-0.217285,0.971680,1.646341,-2.439024,6.402439,10.081250,8.625000,44.637501,0.0,1.000000,0.000000,0.000000,0.000000
1782115717.182671,216600,0.149414,-0.211426,0.959473,2.500000,-2.804878,6.219512,10.100000,8.600000,44.543751,0.0,1.000000,0.000000,0.000000,0.000000
1782115717.194671,216612,0.150879,-0.205078,0.949219,3.597561,-2.804878,5.792683,10.100000,8.600000,44.543751,0.0,1.000000,0.000000,0.000000,0.000000
1782115717.201671,216619,0.151367,-0.200195,0.943848,4.512195,-2.560976,5.243903,10.193750,8.612500,44.549999,0.0,1.000000,0.000000,0.000000,0.000000
1782115717.212671,216630,0.149414,-0.198242,0.940918,5.243903,-2.073171,4.573171,10.193750,8.612500,44.549999,0.0,1.000000,0.000000,0.000000,0.000000
1782115717.222671,216640,0.146973,-0.199707,0.943359,5.853659,-1.280488,3.841464,10.187500,8.462501,44.562500,0.0,1.000000,0.000000,0.000000,0.000000
1782115717.234671,216652,0.145996,-0.197754,0.950684,6.158537,-0.487805,2.987805,10.187500,8.462501,44.562500,0.0,1.000000,0.000000,0.000000,0.000000
1782115717.242671,216660,0.146484,-0.195312,0.958496,6.402439,0.060976,2.256098,10.300000,8.468750,44.525002,0.0,1.000000,0.000000,0.000000,0.000000
1782115717.251671,216669,0.148438,-0.189941,0.964844,6.768293,0.426829,1.707317,10.300000,8.468750,44.525002,0.0,1.000000,0.000000,0.000000,0.000000
1782115717.261671,216679,0.145020,-0.186523,0.969727,7.195122,0.792683,1.280488,10.343750,8.418750,44.525002,0.0,1.000000,0.000000,0.000000,0.000000
1782115717.271671,216689,0.140625,-0.181641,0.976562,7.317073,0.487805,1.219512,10.343750,8.418750,44.525002,0.0,1.000000,0.000000,0.000000,0.000000
1782115717.281671,216699,0.136230,-0.182617,0.979004,7.195122,0.060976,1.097561,10.406250,8.406250,44.450001,0.0,1.000000,0.000000,0.000000,0.000000
1782115717.291671,216709,0.134277,-0.183105,0.978516,7.317073,-0.609756,0.914634,10.406250,8.406250,44.450001,0.0,1.000000,0.000000,0.000000,0.000000
1782115717.301671,216719,0.137695,-0.182617,0.978516,7.500000,-1.158537,0.792683,10.475000,8.393750,44.450001,0.0,1.000000,0.000000,0.000000,0.000000
1782115717.315671,216733,0.147461,-0.176758,0.976562,7.682927,-1.463415,0.426829,10.587501,8.393750,44.424999,0.0,1.000000,0.000000,0.000000,0.000000
1782115717.321671,216739,0.157227,-0.171387,0.973633,7.865854,-1.768293,0.243902,10.587501,8.393750,44.424999,0.0,1.000000,0.000000,0.000000,0.000000
1782115717.331671,216749,0.166504,-0.166992,0.970703,7.987805,-1.890244,0.000000,10.587501,8.393750,44.424999,0.0,1.000000,0.000000,0.000000,0.000000
1782115717.341671,216759,0.173828,-0.158691,0.969727,8.170732,-1.829268,0.060976,10.650001,8.381250,44.331249,0.0,1.000000,0.000000,0.000000,0.000000
1782115717.351671,216769,0.177734,-0.153809,0.968262,8.048780,-1.463415,0.182927,10.650001,8.381250,44.331249,0.0,1.000000,0.000000,0.000000,0.000000
1782115717.362671,216780,0.178711,-0.148926,0.967285,7.682927,-1.280488,0.243902,10.793750,8.368751,44.381252,0.0,1.000000,0.000000,0.000000,0.000000
1782115717.371671,216789,0.177734,-0.143066,0.968750,7.073171,-0.975610,0.487805,10.793750,8.368751,44.381252,0.0,1.000000,0.000000,0.000000,0.000000
1782115717.381671,216799,0.178223,-0.139160,0.974121,6.158537,-0.670732,0.853659,10.937500,8.550000,44.225002,0.0,1.000000,0.000000,0.000000,0.000000
1782115717.393671,216811,0.179688,-0.134766,0.979492,5.182927,-0.365854,1.341463,10.881250,8.356250,44.243752,0.0,1.000000,0.000000,0.000000,0.000000
1782115717.401671,216819,0.183105,-0.131348,0.989258,4.329268,-0.426829,1.707317,10.881250,8.356250,44.243752,0.0,1.000000,0.000000,0.000000,0.000000
1782115717.412671,216830,0.188477,-0.128906,0.992676,3.414634,-0.548781,2.073171,10.881250,8.356250,44.243752,0.0,1.000000,0.000000,0.000000,0.000000
1782115717.421671,216839,0.194336,-0.128418,0.991211,2.682927,-0.792683,2.439024,10.993751,8.475000,44.225002,0.0,1.000000,0.000000,0.000000,0.000000
1782115717.432671,216850,0.193359,-0.129395,0.985840,2.134146,-1.280488,2.439024,10.993751,8.475000,44.225002,0.0,1.000000,0.000000,0.000000,0.000000
1782115717.441671,216859,0.191406,-0.130371,0.978027,1.707317,-1.402439,2.195122,10.950000,8.287500,44.225002,0.0,1.000000,0.000000,0.000000,0.000000
1782115717.451671,216869,0.187500,-0.129883,0.971680,1.341463,-1.280488,1.768293,10.950000,8.287500,44.225002,0.0,1.000000,0.000000,0.000000,0.000000
1782115717.462671,216880,0.180176,-0.128906,0.966309,0.670732,-0.792683,1.219512,10.987500,8.262500,44.237499,0.0,1.000000,0.000000,0.000000,0.000000
1782115717.473671,216891,0.168945,-0.125977,0.965332,-0.121951,-0.060976,0.731707,10.987500,8.262500,44.237499,0.0,1.000000,0.000000,0.000000,0.000000
1782115717.481671,216899,0.159180,-0.127441,0.966309,-1.097561,0.487805,0.243902,10.956250,8.331250,44.262501,0.0,1.000000,0.000000,0.000000,0.000000
1782115717.491671,216909,0.153320,-0.126465,0.969727,-2.439024,0.731707,-0.182927,10.956250,8.331250,44.262501,0.0,1.000000,0.000000,0.000000,0.000000
1782115717.503671,216921,0.148438,-0.130859,0.972656,-3.963415,0.914634,-0.670732,10.918750,8.218750,44.287502,0.0,1.000000,0.000000,0.000000,0.000000
1782115717.515671,216933,0.148438,-0.137695,0.972656,-5.365854,0.792683,-1.036585,10.937500,8.362500,44.237499,0.0,1.000000,0.000000,0.000000,0.000000
1782115717.521671,216939,0.149902,-0.147949,0.974609,-6.585366,0.792683,-1.219512,10.937500,8.362500,44.237499,0.0,1.000000,0.000000,0.000000,0.000000
1782115717.531671,216949,0.150391,-0.155762,0.975586,-7.256098,0.914634,-1.402439,10.937500,8.362500,44.237499,0.0,1.000000,0.000000,0.000000,0.000000
1782115717.541671,216959,0.151855,-0.166016,0.975098,-7.378049,0.853659,-1.585366,10.875000,8.537500,44.218750,0.0,1.000000,0.000000,0.000000,0.000000
1782115717.551671,216969,0.149902,-0.173340,0.974121,-7.256098,0.731707,-1.707317,10.875000,8.537500,44.218750,0.0,1.000000,0.000000,0.000000,0.000000
1782115717.561671,216979,0.148926,-0.181641,0.974609,-7.012195,0.670732,-1.829268,10.693750,8.331250,44.318752,0.0,1.000000,0.000000,0.000000,0.000000
1782115717.571671,216989,0.145996,-0.185547,0.973145,-6.646342,0.487805,-1.890244,10.693750,8.331250,44.318752,0.0,1.000000,0.000000,0.000000,0.000000
1782115717.581671,216999,0.144043,-0.192383,0.972168,-6.158537,0.304878,-1.890244,10.631250,8.368751,44.406250,0.0,1.000000,0.000000,0.000000,0.000000
1782115717.594671,217012,0.145020,-0.197266,0.971191,-5.548780,-0.060976,-2.012195,10.631250,8.368751,44.406250,0.0,1.000000,0.000000,0.000000,0.000000
1782115717.602671,217020,0.150879,-0.199219,0.971191,-4.939024,-0.304878,-2.195122,10.550000,8.356250,44.393749,0.0,1.000000,0.000000,0.000000,0.000000
1782115717.611671,217029,0.158691,-0.201172,0.971191,-4.207317,-0.365854,-2.317073,10.550000,8.356250,44.393749,0.0,1.000000,0.000000,0.000000,0.000000
1782115717.622671,217040,0.166016,-0.200195,0.970703,-3.353659,-0.426829,-2.317073,10.475000,8.368751,44.375000,0.0,1.000000,0.000000,0.000000,0.000000
1782115717.631671,217049,0.167969,-0.198730,0.972656,-2.621951,-0.609756,-2.134146,10.475000,8.368751,44.375000,0.0,1.000000,0.000000,0.000000,0.000000
1782115717.641671,217059,0.168945,-0.197266,0.970703,-2.073171,-0.792683,-1.829268,10.462501,8.412500,44.381252,0.0,1.000000,0.000000,0.000000,0.000000
1782115717.652671,217070,0.166992,-0.195312,0.968750,-1.768293,-0.792683,-1.341463,10.462501,8.412500,44.381252,0.0,1.000000,0.000000,0.000000,0.000000
1782115717.661671,217079,0.165039,-0.194824,0.967285,-1.524390,-0.548781,-0.731707,10.443750,8.387500,44.431252,0.0,1.000000,0.000000,0.000000,0.000000
1782115717.673671,217091,0.160645,-0.195801,0.965332,-1.585366,-0.609756,-0.243902,10.443750,8.387500,44.431252,0.0,1.000000,0.000000,0.000000,0.000000
1782115717.683671,217101,0.158203,-0.199219,0.967773,-1.890244,-0.548781,0.000000,10.350000,8.343750,44.437500,0.0,1.000000,0.000000,0.000000,0.000000
1782115717.691671,217109,0.158203,-0.199219,0.967773,-1.890244,-0.548781,0.000000,10.350000,8.343750,44.437500,0.0,1.000000,0.000000,0.000000,0.000000
1782115717.701671,217119,0.158203,-0.204102,0.967773,-1.951220,-0.487805,-0.060976,10.412500,8.437500,44.381252,0.0,1.000000,0.000000,0.000000,0.000000
1782115717.711671,217129,0.162109,-0.207520,0.966797,-1.829268,-0.609756,-0.060976,10.412500,8.437500,44.381252,0.0,1.000000,0.000000,0.000000,0.000000
1782115717.721671,217139,0.165527,-0.210938,0.967285,-1.524390,-0.609756,-0.060976,10.375000,8.337501,44.487499,0.0,1.000000,0.000000,0.000000,0.000000
1782115717.731671,217149,0.171875,-0.212891,0.965820,-0.853659,-0.426829,-0.060976,10.375000,8.337501,44.487499,0.0,1.000000,0.000000,0.000000,0.000000
1782115717.741671,217159,0.176270,-0.213867,0.965332,0.121951,-0.304878,0.182927,10.318750,8.425000,44.424999,0.0,1.000000,0.000000,0.000000,0.000000
1782115717.751671,217169,0.179688,-0.214355,0.963379,1.158537,-0.182927,0.426829,10.318750,8.425000,44.424999,0.0,1.000000,0.000000,0.000000,0.000000
1782115717.762671,217180,0.174805,-0.206055,0.959961,3.292683,-0.060976,0.914634,10.393750,8.375000,44.456249,0.0,1.000000,0.000000,0.000000,0.000000
1782115717.771671,217189,0.170898,-0.200684,0.962402,4.024390,0.060976,1.219512,10.543750,8.618751,44.268749,0.0,1.000000,0.000000,0.000000,0.000000
1782115717.781671,217199,0.167969,-0.194336,0.965820,4.390244,0.304878,1.280488,10.543750,8.618751,44.268749,0.0,1.000000,0.000000,0.000000,0.000000
1782115717.791671,217209,0.164062,-0.189453,0.970215,4.573171,0.426829,1.280488,10.543750,8.618751,44.268749,0.0,1.000000,0.000000,0.000000,0.000000
1782115717.801671,217219,0.161621,-0.184570,0.970215,4.512195,0.548781,1.280488,10.506250,8.318750,44.406250,0.0,1.000000,0.000000,0.000000,0.000000
1782115717.811671,217229,0.158203,-0.179199,0.973633,4.207317,0.487805,1.402439,10.681251,8.475000,44.293751,0.0,1.000000,0.000000,0.000000,0.000000
1782115717.821671,217239,0.155762,-0.173828,0.970703,3.780488,0.487805,1.585366,10.681251,8.475000,44.293751,0.0,1.000000,0.000000,0.000000,0.000000
1782115717.831671,217249,0.153320,-0.172363,0.969238,3.536585,0.304878,1.646341,10.606250,8.368751,44.331249,0.0,1.000000,0.000000,0.000000,0.000000
1782115717.842671,217260,0.153320,-0.170410,0.966797,3.292683,0.304878,1.768293,10.606250,8.368751,44.331249,0.0,1.000000,0.000000,0.000000,0.000000
1782115717.851671,217269,0.152344,-0.169922,0.966309,3.109756,0.304878,1.890244,10.693750,8.375000,44.293751,0.0,1.000000,0.000000,0.000000,0.000000
1782115717.861671,217279,0.151855,-0.172363,0.967285,3.109756,0.426829,1.890244,10.693750,8.375000,44.293751,0.0,1.000000,0.000000,0.000000,0.000000
1782115717.871671,217289,0.151367,-0.172363,0.969238,3.353659,0.731707,1.768293,10.800000,8.418750,44.275002,0.0,1.000000,0.000000,0.000000,0.000000
1782115717.881671,217299,0.149902,-0.170898,0.972656,3.414634,0.914634,1.219512,10.800000,8.418750,44.275002,0.0,1.000000,0.000000,0.000000,0.000000
1782115717.891671,217309,0.149414,-0.170410,0.977051,3.353659,1.158537,0.853659,10.943750,8.631250,44.106251,0.0,1.000000,0.000000,0.000000,0.000000
1782115717.901671,217319,0.147461,-0.168457,0.975586,3.231707,1.341463,0.731707,10.943750,8.631250,44.106251,0.0,1.000000,0.000000,0.000000,0.000000
1782115717.911671,217329,0.144043,-0.166504,0.974121,3.048780,1.097561,0.609756,10.862500,8.450000,44.268749,0.0,1.000000,0.000000,0.000000,0.000000
1782115717.922671,217340,0.142090,-0.167480,0.968750,2.682927,0.853659,0.548781,10.862500,8.450000,44.268749,0.0,1.000000,0.000000,0.000000,0.000000
1782115717.931671,217349,0.142578,-0.169922,0.966797,2.317073,0.731707,0.365854,10.868751,8.462501,44.218750,0.0,1.000000,0.000000,0.000000,0.000000
1782115717.941671,217359,0.147949,-0.175781,0.963867,1.951220,0.731707,0.304878,10.868751,8.462501,44.218750,0.0,1.000000,0.000000,0.000000,0.000000
1782115717.951671,217369,0.153809,-0.178223,0.961426,2.073171,0.975610,0.243902,10.925000,8.393750,44.275002,0.0,1.000000,0.000000,0.000000,0.000000
1782115717.962671,217380,0.158691,-0.179199,0.961426,2.743902,1.219512,-0.182927,10.925000,8.393750,44.275002,0.0,1.000000,0.000000,0.000000,0.000000
1782115717.971671,217389,0.161621,-0.183105,0.961426,3.536585,1.585366,-0.670732,11.231250,8.962501,43.937500,0.0,1.000000,0.000000,0.000000,0.000000
1782115717.981671,217399,0.166504,-0.177734,0.967285,4.085366,1.585366,-0.914634,11.231250,8.962501,43.937500,0.0,1.000000,0.000000,0.000000,0.000000
1782115717.991671,217409,0.168945,-0.170898,0.968262,4.451220,1.524390,-0.853659,11.068750,8.462501,44.193752,0.0,1.000000,0.000000,0.000000,0.000000
1782115718.002671,217420,0.172363,-0.161133,0.971680,4.329268,1.219512,-0.365854,11.068750,8.462501,44.193752,0.0,1.000000,0.000000,0.000000,0.000000
1782115718.011671,217429,0.171387,-0.154785,0.977051,3.963415,1.280488,0.365854,11.125000,8.550000,44.162502,0.0,1.000000,0.000000,0.000000,0.000000
1782115718.021671,217439,0.164551,-0.150879,0.989746,3.353659,1.707317,1.097561,11.125000,8.550000,44.162502,0.0,1.000000,0.000000,0.000000,0.000000
1782115718.032671,217450,0.147949,-0.155273,0.993652,3.109756,2.012195,1.341463,11.212501,8.637500,44.106251,0.0,1.000000,0.000000,0.000000,0.000000
1782115718.042671,217460,0.130859,-0.158691,0.988281,3.231707,1.524390,1.219512,11.212501,8.637500,44.106251,0.0,1.000000,0.000000,0.000000,0.000000
1782115718.051671,217469,0.120605,-0.163574,0.986328,3.048780,0.792683,0.548781,11.243751,8.656250,44.068752,0.0,1.000000,0.000000,0.000000,0.000000
1782115718.061671,217479,0.122070,-0.157715,0.980469,2.317073,0.060976,-0.121951,11.243751,8.656250,44.068752,0.0,1.000000,0.000000,0.000000,0.000000
1782115718.071671,217489,0.133789,-0.149902,0.980469,0.975610,-0.426829,-0.914634,11.187500,8.512500,44.131252,0.0,1.000000,0.000000,0.000000,0.000000
1782115718.082671,217500,0.151855,-0.143555,0.983398,-0.670732,-0.609756,-1.585366,11.187500,8.512500,44.131252,0.0,1.000000,0.000000,0.000000,0.000000
1782115718.091671,217509,0.171387,-0.145020,0.988770,-2.500000,-0.731707,-1.829268,11.187500,8.531250,44.125000,0.0,1.000000,0.000000,0.000000,0.000000
1782115718.101671,217519,0.185059,-0.152832,0.990234,-4.207317,-1.036585,-1.524390,11.187500,8.531250,44.125000,0.0,1.000000,0.000000,0.000000,0.000000
1782115718.111671,217529,0.195312,-0.160156,0.990723,-5.121951,-1.097561,-1.097561,11.168750,8.525001,44.118752,0.0,1.000000,0.000000,0.000000,0.000000
1782115718.121671,217539,0.199219,-0.163574,0.984863,-5.426829,-0.731707,-0.365854,11.168750,8.525001,44.118752,0.0,1.000000,0.000000,0.000000,0.000000
1782115718.131671,217549,0.197266,-0.161621,0.978027,-5.365854,-0.243902,1.036585,11.087501,8.618751,44.112499,0.0,1.000000,0.000000,0.000000,0.000000
1782115718.141671,217559,0.187988,-0.159180,0.969727,-4.817073,0.182927,2.987805,11.087501,8.618751,44.112499,0.0,1.000000,0.000000,0.000000,0.000000
1782115718.152671,217570,0.172852,-0.161621,0.961914,-3.658537,0.182927,4.878049,11.043750,8.500000,44.206249,0.0,1.000000,0.000000,0.000000,0.000000
1782115718.161671,217579,0.158203,-0.174316,0.959473,-1.890244,-0.243902,6.097561,11.043750,8.500000,44.206249,0.0,1.000000,0.000000,0.000000,0.000000
1782115718.171671,217589,0.146973,-0.187988,0.959473,0.243902,-0.548781,6.402439,11.068750,8.568750,44.168751,0.0,1.000000,0.000000,0.000000,0.000000
1782115718.181671,217599,0.140137,-0.199219,0.964844,2.500000,-0.792683,5.853659,11.068750,8.568750,44.168751,0.0,1.000000,0.000000,0.000000,0.000000
1782115718.191671,217609,0.137207,-0.196289,0.971191,4.390244,-0.792683,4.817073,11.137500,8.506250,44.143749,0.0,1.000000,0.000000,0.000000,0.000000
1782115718.202671,217620,0.136230,-0.181641,0.975098,5.365854,-0.609756,3.414634,11.137500,8.506250,44.143749,0.0,1.000000,0.000000,0.000000,0.000000
1782115718.211671,217629,0.136719,-0.163086,0.979004,5.000000,-0.243902,1.951220,11.218750,8.506250,44.093750,0.0,1.000000,0.000000,0.000000,0.000000
1782115718.221671,217639,0.136230,-0.146484,0.981445,3.658537,0.304878,0.548781,11.218750,8.506250,44.093750,0.0,1.000000,0.000000,0.000000,0.000000
1782115718.232671,217650,0.133301,-0.137207,0.980469,1.768293,0.792683,-0.487805,11.206250,8.443750,44.143749,0.0,1.000000,0.000000,0.000000,0.000000
1782115718.243671,217661,0.128906,-0.137695,0.978027,-0.121951,0.914634,-1.280488,11.206250,8.443750,44.143749,0.0,1.000000,0.000000,0.000000,0.000000
1782115718.252671,217670,0.126953,-0.146484,0.977539,-1.463415,0.853659,-1.829268,11.318750,8.625000,44.062500,0.0,1.000000,0.000000,0.000000,0.000000
1782115718.262671,217680,0.129395,-0.158203,0.981445,-2.134146,0.670732,-2.195122,11.318750,8.625000,44.062500,0.0,1.000000,0.000000,0.000000,0.000000
1782115718.271671,217689,0.136719,-0.165039,0.985352,-2.378049,0.243902,-2.560976,11.168750,8.468750,44.112499,0.0,1.000000,0.000000,0.000000,0.000000
1782115718.283671,217701,0.145020,-0.166016,0.985352,-2.500000,-0.243902,-2.682927,11.168750,8.468750,44.112499,0.0,1.000000,0.000000,0.000000,0.000000
1782115718.291671,217709,0.153320,-0.162109,0.982910,-2.682927,-0.548781,-2.682927,11.187500,8.581250,44.093750,0.0,1.000000,0.000000,0.000000,0.000000
1782115718.302671,217720,0.156738,-0.156738,0.980469,-2.865854,-0.670732,-2.317073,11.187500,8.581250,44.093750,0.0,1.000000,0.000000,0.000000,0.000000
1782115718.311671,217729,0.157227,-0.158691,0.977539,-3.048780,-0.914634,-1.951220,11.131250,8.537500,44.106251,0.0,1.000000,0.000000,0.000000,0.000000
1782115718.321671,217739,0.156738,-0.164551,0.975586,-3.048780,-1.158537,-1.280488,11.131250,8.537500,44.106251,0.0,1.000000,0.000000,0.000000,0.000000
1782115718.331671,217749,0.152832,-0.172363,0.973145,-2.804878,-1.280488,-0.731707,11.106250,8.556251,44.125000,0.0,1.000000,0.000000,0.000000,0.000000
1782115718.341671,217759,0.148438,-0.182129,0.970703,-2.256098,-1.402439,-0.243902,11.106250,8.556251,44.125000,0.0,1.000000,0.000000,0.000000,0.000000
1782115718.351671,217769,0.147949,-0.188965,0.971191,-1.585366,-1.524390,-0.121951,11.056251,8.506250,44.125000,0.0,1.000000,0.000000,0.000000,0.000000
1782115718.362671,217780,0.148926,-0.192383,0.972168,-0.914634,-1.585366,-0.304878,11.056251,8.506250,44.125000,0.0,1.000000,0.000000,0.000000,0.000000
1782115718.372671,217790,0.152832,-0.197266,0.974121,-0.304878,-1.585366,-0.731707,11.168750,8.743751,44.018749,0.0,1.000000,0.000000,0.000000,0.000000
1782115718.382671,217800,0.157715,-0.196289,0.975098,0.060976,-1.524390,-1.219512,11.168750,8.743751,44.018749,0.0,1.000000,0.000000,0.000000,0.000000
1782115718.391671,217809,0.162598,-0.192871,0.973633,0.304878,-1.524390,-1.585366,11.062500,8.493751,44.168751,0.0,1.000000,0.000000,0.000000,0.000000
1782115718.401671,217819,0.169434,-0.184570,0.973633,0.609756,-1.463415,-1.524390,11.062500,8.493751,44.168751,0.0,1.000000,0.000000,0.000000,0.000000
1782115718.411671,217829,0.170410,-0.179199,0.968750,0.853659,-1.341463,-1.219512,11.068750,8.481250,44.125000,0.0,1.000000,0.000000,0.000000,0.000000
1782115718.422671,217840,0.170898,-0.175781,0.967773,0.975610,-1.219512,-0.975610,11.068750,8.481250,44.125000,0.0,1.000000,0.000000,0.000000,0.000000
1782115718.431671,217849,0.168945,-0.174316,0.966797,0.975610,-0.914634,-0.731707,11.106250,8.456250,44.168751,0.0,1.000000,0.000000,0.000000,0.000000
1782115718.442671,217860,0.167480,-0.173828,0.965820,0.975610,-0.548781,-0.487805,11.106250,8.456250,44.168751,0.0,1.000000,0.000000,0.000000,0.000000
1782115718.451671,217869,0.165527,-0.171387,0.964844,1.097561,-0.121951,-0.304878,11.212501,8.637500,44.043751,0.0,1.000000,0.000000,0.000000,0.000000
1782115718.463671,217881,0.163086,-0.169922,0.966797,1.402439,0.060976,-0.365854,11.212501,8.637500,44.043751,0.0,1.000000,0.000000,0.000000,0.000000
1782115718.471671,217889,0.160645,-0.172852,0.969727,1.707317,0.182927,-0.609756,11.200000,8.668750,44.049999,0.0,1.000000,0.000000,0.000000,0.000000
1782115718.482671,217900,0.159180,-0.174805,0.974121,1.829268,0.304878,-0.792683,11.200000,8.668750,44.049999,0.0,1.000000,0.000000,0.000000,0.000000
1782115718.491671,217909,0.155762,-0.173340,0.978027,1.707317,0.304878,-0.914634,11.250000,8.712501,43.981251,0.0,1.000000,0.000000,0.000000,0.000000
1782115718.501671,217919,0.156250,-0.172363,0.978516,1.585366,0.060976,-0.914634,11.250000,8.712501,43.981251,0.0,1.000000,0.000000,0.000000,0.000000
1782115718.511671,217929,0.158203,-0.169922,0.978516,1.585366,-0.243902,-0.975610,11.168750,8.512500,44.162502,0.0,1.000000,0.000000,0.000000,0.000000
1782115718.522671,217940,0.159180,-0.168945,0.977051,1.585366,-0.365854,-1.219512,11.168750,8.512500,44.162502,0.0,1.000000,0.000000,0.000000,0.000000
1782115718.531671,217949,0.160156,-0.169434,0.976562,1.585366,-0.304878,-1.463415,11.168750,8.525001,44.150002,0.0,1.000000,0.000000,0.000000,0.000000
1782115718.541671,217959,0.162109,-0.170410,0.974609,1.341463,-0.487805,-1.524390,11.168750,8.525001,44.150002,0.0,1.000000,0.000000,0.000000,0.000000
1782115718.551671,217969,0.162109,-0.167969,0.974121,1.341463,-0.609756,-1.463415,11.212501,8.525001,44.075001,0.0,1.000000,0.000000,0.000000,0.000000
1782115718.562671,217980,0.163574,-0.161133,0.976562,1.280488,-0.609756,-1.158537,11.212501,8.525001,44.075001,0.0,1.000000,0.000000,0.000000,0.000000
1782115718.571671,217989,0.163086,-0.158203,0.977051,1.097561,-0.426829,-0.792683,11.212501,8.537500,44.087502,0.0,1.000000,0.000000,0.000000,0.000000
1782115718.581671,217999,0.160645,-0.152344,0.979492,0.487805,-0.426829,-0.365854,11.212501,8.537500,44.087502,0.0,1.000000,0.000000,0.000000,0.000000
1782115718.591671,218009,0.152832,-0.155762,0.975098,0.365854,0.000000,0.000000,11.218750,8.512500,44.118752,0.0,1.000000,0.000000,0.000000,0.000000
1782115718.601671,218019,0.145996,-0.157715,0.973633,0.670732,0.000000,0.243902,11.218750,8.512500,44.118752,0.0,1.000000,0.000000,0.000000,0.000000
1782115718.611671,218029,0.140137,-0.158203,0.977051,0.670732,-0.243902,0.243902,11.243751,8.481250,44.093750,0.0,1.000000,0.000000,0.000000,0.000000
1782115718.621671,218039,0.142578,-0.151855,0.981934,0.609756,-0.853659,0.243902,11.243751,8.481250,44.093750,0.0,1.000000,0.000000,0.000000,0.000000
1782115718.631671,218049,0.140625,-0.154785,0.980957,0.548781,-0.792683,-0.121951,11.268750,8.468750,44.081249,0.0,1.000000,0.000000,0.000000,0.000000
1782115718.641671,218059,0.142090,-0.158203,0.974609,0.426829,-0.670732,-0.487805,11.268750,8.468750,44.081249,0.0,1.000000,0.000000,0.000000,0.000000
1782115718.652671,218070,0.147949,-0.154785,0.970703,-0.060976,-0.731707,-1.097561,11.268750,8.500000,44.118752,0.0,1.000000,0.000000,0.000000,0.000000
1782115718.662671,218080,0.147949,-0.154785,0.970703,-0.060976,-0.731707,-1.097561,11.268750,8.500000,44.118752,0.0,1.000000,0.000000,0.000000,0.000000
1782115718.671671,218089,0.153809,-0.155273,0.971680,-0.487805,-0.548781,-1.524390,11.256250,8.531250,44.125000,0.0,1.000000,0.000000,0.000000,0.000000
1782115718.683671,218101,0.167969,-0.157715,0.977539,-1.219512,0.060976,-1.951220,11.256250,8.531250,44.125000,0.0,1.000000,0.000000,0.000000,0.000000
1782115718.691671,218109,0.175781,-0.159180,0.972656,-1.463415,-0.243902,-1.646341,11.262500,8.531250,44.125000,0.0,1.000000,0.000000,0.000000,0.000000
1782115718.701671,218119,0.177246,-0.161621,0.973633,-1.585366,0.121951,-1.524390,11.262500,8.531250,44.125000,0.0,1.000000,0.000000,0.000000,0.000000
1782115718.711671,218129,0.177246,-0.165039,0.971191,-1.707317,0.243902,-1.219512,11.262500,8.600000,44.118752,0.0,1.000000,0.000000,0.000000,0.000000
1782115718.721671,218139,0.175293,-0.166016,0.974609,-1.768293,0.426829,-0.792683,11.262500,8.600000,44.118752,0.0,1.000000,0.000000,0.000000,0.000000
1782115718.731671,218149,0.171875,-0.166992,0.973633,-1.890244,0.304878,-0.243902,11.200000,8.512500,44.181252,0.0,1.000000,0.000000,0.000000,0.000000
1782115718.742671,218160,0.166992,-0.166016,0.974609,-1.890244,0.304878,0.121951,11.200000,8.512500,44.181252,0.0,1.000000,0.000000,0.000000,0.000000
1782115718.751671,218169,0.159180,-0.170898,0.974609,-1.585366,0.487805,0.304878,11.187500,8.531250,44.143749,0.0,1.000000,0.000000,0.000000,0.000000
1782115718.761671,218179,0.154297,-0.168945,0.974121,-1.646341,0.000000,0.487805,11.187500,8.531250,44.143749,0.0,1.000000,0.000000,0.000000,0.000000
1782115718.771671,218189,0.155273,-0.173828,0.971680,-1.341463,0.060976,0.670732,11.306251,8.775001,44.043751,0.0,1.000000,0.000000,0.000000,0.000000
1782115718.782671,218200,0.149902,-0.173340,0.974121,-1.036585,0.060976,0.487805,11.306251,8.775001,44.043751,0.0,1.000000,0.000000,0.000000,0.000000
1782115718.792671,218210,0.152832,-0.176270,0.972656,-0.792683,0.000000,0.304878,11.175000,8.512500,44.225002,0.0,1.000000,0.000000,0.000000,0.000000
1782115718.803671,218221,0.153809,-0.176758,0.972168,-0.304878,0.243902,0.000000,11.175000,8.512500,44.225002,0.0,1.000000,0.000000,0.000000,0.000000
1782115718.812671,218230,0.152832,-0.172363,0.973633,0.121951,0.365854,-0.304878,11.193750,8.568750,44.187500,0.0,1.000000,0.000000,0.000000,0.000000
1782115718.821671,218239,0.150879,-0.169922,0.974609,0.121951,-0.060976,-0.182927,11.193750,8.568750,44.187500,0.0,1.000000,0.000000,0.000000,0.000000
1782115718.831671,218249,0.156738,-0.166016,0.978516,0.121951,0.304878,-0.548781,11.181251,8.475000,44.237499,0.0,1.000000,0.000000,0.000000,0.000000
1782115718.843671,218261,0.147949,-0.167969,0.979492,0.243902,0.304878,-0.609756,11.181251,8.475000,44.237499,0.0,1.000000,0.000000,0.000000,0.000000
1782115718.851671,218269,0.146973,-0.166016,0.978027,0.000000,-0.121951,-0.548781,11.175000,8.575000,44.181252,0.0,1.000000,0.000000,0.000000,0.000000
1782115718.861671,218279,0.145508,-0.166016,0.978516,0.000000,-0.243902,-0.609756,11.175000,8.575000,44.181252,0.0,1.000000,0.000000,0.000000,0.000000
1782115718.872671,218290,0.143555,-0.163086,0.979492,0.121951,-0.304878,-0.792683,11.193750,8.562500,44.206249,0.0,1.000000,0.000000,0.000000,0.000000
1782115718.883671,218301,0.143066,-0.165039,0.976074,0.243902,-0.304878,-1.158537,11.193750,8.562500,44.206249,0.0,1.000000,0.000000,0.000000,0.000000
1782115718.892671,218310,0.145508,-0.166016,0.972168,-0.060976,-0.548781,-1.219512,11.225000,8.618751,44.168751,0.0,1.000000,0.000000,0.000000,0.000000
1782115718.902671,218320,0.148438,-0.166992,0.976074,-0.182927,-0.487805,-1.463415,11.225000,8.618751,44.168751,0.0,1.000000,0.000000,0.000000,0.000000
1782115718.911671,218329,0.153320,-0.169434,0.975586,-0.243902,-0.548781,-1.524390,11.137500,8.475000,44.193752,0.0,1.000000,0.000000,0.000000,0.000000
1782115718.924671,218342,0.156250,-0.165527,0.979492,-0.365854,-0.670732,-1.402439,11.137500,8.475000,44.193752,0.0,1.000000,0.000000,0.000000,0.000000
1782115718.931671,218349,0.157715,-0.166504,0.978516,-0.487805,-0.853659,-1.097561,11.256250,8.656250,44.187500,0.0,1.000000,0.000000,0.000000,0.000000
1782115718.942671,218360,0.156738,-0.163086,0.979004,-0.365854,-0.914634,-1.097561,11.256250,8.656250,44.187500,0.0,1.000000,0.000000,0.000000,0.000000
1782115718.951671,218369,0.156250,-0.161621,0.966797,-1.707317,-2.195122,0.000000,11.150001,8.518750,44.262501,0.0,1.000000,0.000000,0.000000,0.000000
1782115718.963671,218381,0.151855,-0.165039,0.975586,-1.158537,-1.585366,-0.365854,11.150001,8.518750,44.262501,0.0,1.000000,0.000000,0.000000,0.000000
1782115718.971671,218389,0.150879,-0.169434,0.977051,-0.670732,-1.280488,-0.670732,11.156250,8.537500,44.162502,0.0,1.000000,0.000000,0.000000,0.000000
1782115718.981671,218399,0.151367,-0.166504,0.983887,-0.304878,-1.219512,-0.914634,11.156250,8.537500,44.162502,0.0,1.000000,0.000000,0.000000,0.000000
1782115718.991671,218409,0.151367,-0.165039,0.982910,-0.243902,-1.524390,-0.853659,11.100000,8.468750,44.275002,0.0,1.000000,0.000000,0.000000,0.000000
1782115719.004671,218422,0.148926,-0.165039,0.979980,-0.243902,-1.646341,-0.792683,11.100000,8.468750,44.275002,0.0,1.000000,0.000000,0.000000,0.000000
1782115719.012671,218430,0.147461,-0.167480,0.976562,-0.182927,-1.646341,-0.853659,11.137500,8.481250,44.231251,0.0,1.000000,0.000000,0.000000,0.000000
1782115719.021671,218439,0.145508,-0.167480,0.972656,-0.243902,-1.707317,-0.792683,11.137500,8.481250,44.231251,0.0,1.000000,0.000000,0.000000,0.000000
1782115719.031671,218449,0.143555,-0.166992,0.967285,-0.304878,-1.707317,-0.914634,11.143750,8.393750,44.262501,0.0,1.000000,0.000000,0.000000,0.000000
1782115719.043671,218461,0.143066,-0.166992,0.965820,-0.487805,-1.951220,-0.914634,11.143750,8.393750,44.262501,0.0,1.000000,0.000000,0.000000,0.000000
1782115719.051671,218469,0.145508,-0.171875,0.964844,-0.609756,-1.707317,-1.097561,11.156250,8.450000,44.193752,0.0,1.000000,0.000000,0.000000,0.000000
1782115719.061671,218479,0.153320,-0.176758,0.972168,-1.402439,-2.012195,-0.792683,11.156250,8.450000,44.193752,0.0,1.000000,0.000000,0.000000,0.000000
1782115719.072671,218490,0.158691,-0.180176,0.976562,-2.012195,-2.195122,-0.121951,11.150001,8.412500,44.256252,0.0,1.000000,0.000000,0.000000,0.000000
1782115719.085671,218503,0.158203,-0.190918,0.973633,-1.768293,-2.317073,0.365854,11.118751,8.350000,44.237499,0.0,1.000000,0.000000,0.000000,0.000000
1782115719.092671,218510,0.157227,-0.198242,0.967285,-0.853659,-2.439024,0.304878,11.118751,8.350000,44.237499,0.0,1.000000,0.000000,0.000000,0.000000
1782115719.102671,218520,0.162598,-0.195312,0.971191,-0.121951,-2.926829,0.487805,11.118751,8.350000,44.237499,0.0,1.000000,0.000000,0.000000,0.000000
1782115719.111671,218529,0.166504,-0.193848,0.970703,0.365854,-3.170732,0.792683,11.087501,8.381250,44.275002,0.0,1.000000,0.000000,0.000000,0.000000
1782115719.122671,218540,0.168457,-0.193359,0.971191,0.914634,-2.987805,0.975610,11.087501,8.381250,44.275002,0.0,1.000000,0.000000,0.000000,0.000000
1782115719.132671,218550,0.168945,-0.192383,0.972168,1.463415,-2.926829,1.097561,11.093750,8.237500,44.375000,0.0,1.000000,0.000000,0.000000,0.000000
1782115719.142671,218560,0.168457,-0.187012,0.970703,1.585366,-3.536585,1.402439,11.093750,8.237500,44.375000,0.0,1.000000,0.000000,0.000000,0.000000
1782115719.151671,218569,0.169434,-0.184570,0.962891,1.402439,-3.780488,1.524390,11.093750,8.306251,44.275002,0.0,1.000000,0.000000,0.000000,0.000000
1782115719.161671,218579,0.166992,-0.192383,0.952148,1.829268,-2.804878,0.670732,11.093750,8.306251,44.275002,0.0,1.000000,0.000000,0.000000,0.000000
1782115719.171671,218589,0.170898,-0.190918,0.958496,1.951220,-2.500000,0.243902,11.081250,8.212501,44.281250,0.0,1.000000,0.000000,0.000000,0.000000
1782115719.181671,218599,0.174316,-0.192871,0.959961,2.134146,-2.012195,0.182927,11.081250,8.212501,44.281250,0.0,1.000000,0.000000,0.000000,0.000000
1782115719.191671,218609,0.178223,-0.192383,0.961914,2.804878,-1.463415,0.121951,11.162500,8.237500,44.312500,0.0,1.000000,0.000000,0.000000,0.000000
1782115719.201671,218619,0.180176,-0.188477,0.963379,3.597561,-1.097561,0.365854,11.162500,8.237500,44.312500,0.0,1.000000,0.000000,0.000000,0.000000
1782115719.212671,218630,0.180176,-0.183594,0.962402,4.390244,-1.097561,0.853659,11.168750,8.143750,44.293751,0.0,1.000000,0.000000,0.000000,0.000000
1782115719.221671,218639,0.176758,-0.179199,0.964355,5.487805,-0.609756,1.219512,11.168750,8.143750,44.293751,0.0,1.000000,0.000000,0.000000,0.000000
1782115719.232671,218650,0.174316,-0.174805,0.968262,6.280488,-0.670732,1.585366,11.262500,8.256250,44.187500,0.0,1.000000,0.000000,0.000000,0.000000
1782115719.241671,218659,0.172363,-0.167480,0.972656,6.524390,-0.792683,1.951220,11.262500,8.256250,44.187500,0.0,1.000000,0.000000,0.000000,0.000000
1782115719.251671,218669,0.171387,-0.162109,0.980957,6.890244,-0.182927,2.012195,11.287500,8.156250,44.231251,0.0,1.000000,0.000000,0.000000,0.000000
1782115719.261671,218679,0.168457,-0.156250,0.980469,6.646342,-0.304878,2.256098,11.287500,8.156250,44.231251,0.0,1.000000,0.000000,0.000000,0.000000
1782115719.271671,218689,0.166504,-0.150391,0.981445,6.341464,-0.548781,2.317073,11.418750,8.268750,44.068752,0.0,1.000000,0.000000,0.000000,0.000000
1782115719.281671,218699,0.169434,-0.143555,0.978516,5.792683,-0.853659,2.439024,11.418750,8.268750,44.068752,0.0,1.000000,0.000000,0.000000,0.000000
1782115719.291671,218709,0.173828,-0.135742,0.977051,5.060976,-0.853659,2.439024,11.406250,8.118751,44.156250,0.0,1.000000,0.000000,0.000000,0.000000
1782115719.301671,218719,0.180664,-0.131836,0.973633,4.085366,-0.914634,2.439024,11.406250,8.118751,44.156250,0.0,1.000000,0.000000,0.000000,0.000000
1782115719.312671,218730,0.189453,-0.130859,0.973633,3.292683,-0.731707,2.439024,11.475000,8.181251,44.156250,0.0,1.000000,0.000000,0.000000,0.000000
1782115719.321671,218739,0.196289,-0.131348,0.971680,2.560976,-0.548781,2.560976,11.475000,8.181251,44.156250,0.0,1.000000,0.000000,0.000000,0.000000
1782115719.332671,218750,0.201172,-0.130371,0.971680,2.195122,-0.121951,2.682927,11.468750,8.131250,44.143749,0.0,1.000000,0.000000,0.000000,0.000000
1782115719.342671,218760,0.201172,-0.130371,0.974609,1.829268,0.365854,2.743902,11.468750,8.131250,44.143749,0.0,1.000000,0.000000,0.000000,0.000000
1782115719.351671,218769,0.197754,-0.132324,0.976562,1.280488,0.731707,3.048780,11.575000,8.112500,44.150002,0.0,1.000000,0.000000,0.000000,0.000000
1782115719.361671,218779,0.189941,-0.132812,0.976562,0.914634,1.036585,3.231707,11.575000,8.112500,44.150002,0.0,1.000000,0.000000,0.000000,0.000000
1782115719.374671,218792,0.174805,-0.126465,0.978516,-0.243902,0.670732,3.475610,11.550000,8.112500,44.150002,0.0,1.000000,0.000000,0.000000,0.000000
1782115719.381671,218799,0.174805,-0.126465,0.978516,-0.243902,0.670732,3.475610,11.550000,8.112500,44.150002,0.0,1.000000,0.000000,0.000000,0.000000
1782115719.391671,218809,0.169434,-0.127930,0.976562,-0.975610,0.609756,3.414634,11.650001,8.225000,44.062500,0.0,1.000000,0.000000,0.000000,0.000000
1782115719.401671,218819,0.167969,-0.130371,0.978027,-1.768293,0.548781,3.353659,11.650001,8.225000,44.062500,0.0,1.000000,0.000000,0.000000,0.000000
1782115719.411671,218829,0.165039,-0.136719,0.972168,-2.560976,0.670732,3.170732,11.481250,8.031250,44.112499,0.0,1.000000,0.000000,0.000000,0.000000
1782115719.421671,218839,0.166016,-0.138672,0.973633,-3.048780,0.853659,2.987805,11.481250,8.031250,44.112499,0.0,1.000000,0.000000,0.000000,0.000000
1782115719.431671,218849,0.166504,-0.144531,0.978516,-3.597561,1.219512,2.804878,11.481250,8.018750,44.112499,0.0,1.000000,0.000000,0.000000,0.000000
1782115719.441671,218859,0.166992,-0.147461,0.980957,-3.841464,1.707317,2.682927,11.481250,8.018750,44.112499,0.0,1.000000,0.000000,0.000000,0.000000
1782115719.451671,218869,0.162598,-0.149414,0.980957,-3.658537,1.890244,2.682927,11.468750,8.106250,44.131252,0.0,1.000000,0.000000,0.000000,0.000000
1782115719.461671,218879,0.156250,-0.151367,0.982910,-3.292683,1.707317,2.621951,11.468750,8.106250,44.131252,0.0,1.000000,0.000000,0.000000,0.000000
1782115719.471671,218889,0.144531,-0.150391,0.981445,-2.865854,1.585366,2.378049,11.425000,8.156250,44.143749,0.0,1.000000,0.000000,0.000000,0.000000
1782115719.482671,218900,0.135742,-0.148926,0.979004,-2.743902,1.341463,2.012195,11.393750,8.093750,44.187500,0.0,1.000000,0.000000,0.000000,0.000000
1782115719.493671,218911,0.118652,-0.152344,0.973633,-2.804878,0.548781,1.341463,11.393750,8.093750,44.187500,0.0,1.000000,0.000000,0.000000,0.000000
1782115719.501671,218919,0.118652,-0.152344,0.973633,-2.804878,0.548781,1.341463,11.375000,8.131250,44.156250,0.0,1.000000,0.000000,0.000000,0.000000
1782115719.511671,218929,0.117676,-0.155273,0.974121,-2.926829,0.487805,0.853659,11.375000,8.131250,44.156250,0.0,1.000000,0.000000,0.000000,0.000000
1782115719.522671,218940,0.123535,-0.156738,0.973633,-3.048780,0.365854,0.243902,11.387500,8.187500,44.106251,0.0,1.000000,0.000000,0.000000,0.000000
1782115719.532671,218950,0.134277,-0.161621,0.972656,-2.865854,0.365854,-0.487805,11.387500,8.187500,44.106251,0.0,1.000000,0.000000,0.000000,0.000000
1782115719.541671,218959,0.146484,-0.164062,0.972656,-2.621951,0.426829,-1.036585,11.356250,8.193750,44.081249,0.0,1.000000,0.000000,0.000000,0.000000
1782115719.551671,218969,0.158203,-0.167480,0.971680,-2.317073,0.548781,-1.280488,11.356250,8.193750,44.081249,0.0,1.000000,0.000000,0.000000,0.000000
1782115719.561671,218979,0.167969,-0.169434,0.973145,-2.073171,0.548781,-1.280488,11.356250,8.193750,44.081249,0.0,1.000000,0.000000,0.000000,0.000000
1782115719.571671,218989,0.173828,-0.169922,0.974121,-1.768293,0.426829,-1.097561,11.268750,8.087501,44.131252,0.0,1.000000,0.000000,0.000000,0.000000
1782115719.581671,218999,0.174805,-0.168945,0.974609,-1.524390,0.304878,-0.670732,11.375000,8.387500,44.012501,0.0,1.000000,0.000000,0.000000,0.000000
1782115719.591671,219009,0.172852,-0.171875,0.968750,-1.463415,0.365854,0.000000,11.375000,8.387500,44.012501,0.0,1.000000,0.000000,0.000000,0.000000
1782115719.601671,219019,0.171875,-0.172363,0.967285,-1.463415,0.487805,0.243902,11.250000,8.168750,44.168751,0.0,1.000000,0.000000,0.000000,0.000000
1782115719.611671,219029,0.174316,-0.171875,0.966797,-1.280488,0.731707,0.426829,11.250000,8.168750,44.168751,0.0,1.000000,0.000000,0.000000,0.000000
1782115719.621671,219039,0.175293,-0.172363,0.967773,-0.914634,0.853659,0.365854,11.275001,8.225000,44.162502,0.0,1.000000,0.000000,0.000000,0.000000
1782115719.631671,219049,0.176758,-0.170898,0.968750,-0.548781,1.219512,0.243902,11.275001,8.225000,44.162502,0.0,1.000000,0.000000,0.000000,0.000000
1782115719.641671,219059,0.177734,-0.166504,0.975098,-0.243902,1.463415,0.121951,11.337501,8.350000,44.043751,0.0,1.000000,0.000000,0.000000,0.000000
1782115719.651671,219069,0.176758,-0.164551,0.979004,-0.365854,1.707317,0.121951,11.337501,8.350000,44.043751,0.0,1.000000,0.000000,0.000000,0.000000
1782115719.661671,219079,0.173828,-0.162109,0.982422,-0.609756,1.646341,0.121951,11.518750,8.631250,43.906250,0.0,1.000000,0.000000,0.000000,0.000000
1782115719.671671,219089,0.166504,-0.161621,0.979980,-0.914634,1.463415,0.243902,11.518750,8.631250,43.906250,0.0,1.000000,0.000000,0.000000,0.000000
1782115719.681671,219099,0.159180,-0.160645,0.979004,-1.280488,1.158537,0.365854,11.225000,8.181251,44.125000,0.0,1.000000,0.000000,0.000000,0.000000
1782115719.692671,219110,0.151367,-0.161621,0.975586,-1.646341,0.975610,0.487805,11.225000,8.181251,44.125000,0.0,1.000000,0.000000,0.000000,0.000000
1782115719.702671,219120,0.145508,-0.162109,0.974121,-2.073171,0.853659,0.426829,11.293750,8.300000,44.150002,0.0,1.000000,0.000000,0.000000,0.000000
1782115719.712671,219130,0.144043,-0.163574,0.971191,-2.134146,0.914634,0.182927,11.293750,8.300000,44.150002,0.0,1.000000,0.000000,0.000000,0.000000
1782115719.722671,219140,0.144043,-0.164062,0.971680,-2.073171,0.914634,-0.121951,11.225000,8.218750,44.143749,0.0,1.000000,0.000000,0.000000,0.000000
1782115719.731671,219149,0.146973,-0.163574,0.974121,-1.890244,1.097561,-0.365854,11.225000,8.218750,44.143749,0.0,1.000000,0.000000,0.000000,0.000000
1782115719.742671,219160,0.146973,-0.163086,0.975586,-1.524390,1.158537,-0.548781,11.375000,8.550000,43.968750,0.0,1.000000,0.000000,0.000000,0.000000
1782115719.751671,219169,0.148926,-0.162598,0.980469,-1.280488,1.158537,-0.548781,11.375000,8.550000,43.968750,0.0,1.000000,0.000000,0.000000,0.000000
1782115719.761671,219179,0.147949,-0.159668,0.982422,-1.097561,1.036585,-0.426829,11.187500,8.262500,44.181252,0.0,1.000000,0.000000,0.000000,0.000000
1782115719.772671,219190,0.146484,-0.159180,0.980957,-1.158537,0.731707,-0.121951,11.187500,8.262500,44.181252,0.0,1.000000,0.000000,0.000000,0.000000
1782115719.782671,219200,0.144043,-0.159668,0.974121,-1.219512,0.548781,0.243902,11.262500,8.406250,44.093750,0.0,1.000000,0.000000,0.000000,0.000000
1782115719.791671,219209,0.139160,-0.160645,0.973633,-1.402439,0.304878,0.487805,11.262500,8.406250,44.093750,0.0,1.000000,0.000000,0.000000,0.000000
1782115719.801671,219219,0.137695,-0.164062,0.971191,-1.646341,0.304878,0.426829,11.275001,8.506250,43.993752,0.0,1.000000,0.000000,0.000000,0.000000
1782115719.811671,219229,0.138184,-0.166992,0.972656,-1.768293,0.304878,0.182927,11.275001,8.506250,43.993752,0.0,1.000000,0.000000,0.000000,0.000000
1782115719.821671,219239,0.138672,-0.169922,0.975098,-1.768293,0.243902,-0.182927,11.175000,8.350000,44.150002,0.0,1.000000,0.000000,0.000000,0.000000
1782115719.831671,219249,0.140137,-0.170410,0.977051,-1.646341,0.243902,-0.548781,11.175000,8.350000,44.150002,0.0,1.000000,0.000000,0.000000,0.000000
1782115719.841671,219259,0.143555,-0.169434,0.979004,-1.646341,0.121951,-0.792683,11.125000,8.243751,44.200001,0.0,1.000000,0.000000,0.000000,0.000000
1782115719.851671,219269,0.145508,-0.169922,0.980957,-2.073171,-0.060976,-1.036585,11.125000,8.243751,44.200001,0.0,1.000000,0.000000,0.000000,0.000000
1782115719.861671,219279,0.150391,-0.170898,0.981934,-2.682927,-0.426829,-1.036585,11.337501,8.637500,43.968750,0.0,1.000000,0.000000,0.000000,0.000000
1782115719.871671,219289,0.155273,-0.175781,0.980957,-3.353659,-0.609756,-0.731707,11.337501,8.637500,43.968750,0.0,1.000000,0.000000,0.000000,0.000000
1782115719.881671,219299,0.157227,-0.180664,0.977539,-3.658537,-0.731707,-0.365854,11.043750,8.293750,44.187500,0.0,1.000000,0.000000,0.000000,0.000000
1782115719.892671,219310,0.158691,-0.184082,0.972656,-3.597561,-0.853659,-0.060976,11.043750,8.293750,44.187500,0.0,1.000000,0.000000,0.000000,0.000000
1782115719.901671,219319,0.158203,-0.187500,0.967285,-3.170732,-0.853659,0.243902,11.043750,8.350000,44.150002,0.0,1.000000,0.000000,0.000000,0.000000
1782115719.912671,219330,0.155762,-0.189453,0.965332,-2.621951,-0.792683,0.548781,11.043750,8.350000,44.150002,0.0,1.000000,0.000000,0.000000,0.000000
1782115719.921671,219339,0.153809,-0.190918,0.963867,-1.768293,-0.609756,0.670732,11.062500,8.300000,44.237499,0.0,1.000000,0.000000,0.000000,0.000000
1782115719.931671,219349,0.151855,-0.191895,0.964844,-0.731707,-0.548781,0.731707,11.062500,8.300000,44.237499,0.0,1.000000,0.000000,0.000000,0.000000
1782115719.941671,219359,0.151367,-0.193359,0.966797,0.365854,-0.548781,0.670732,11.062500,8.393750,44.168751,0.0,1.000000,0.000000,0.000000,0.000000
1782115719.951671,219369,0.152832,-0.191406,0.967773,1.524390,-0.426829,0.487805,11.062500,8.393750,44.168751,0.0,1.000000,0.000000,0.000000,0.000000
1782115719.961671,219379,0.153320,-0.189453,0.971191,2.378049,-0.121951,0.304878,10.987500,8.206250,44.200001,0.0,1.000000,0.000000,0.000000,0.000000
1782115719.972671,219390,0.153809,-0.186523,0.974121,2.987805,0.060976,0.182927,10.987500,8.206250,44.200001,0.0,1.000000,0.000000,0.000000,0.000000
1782115719.981671,219399,0.152832,-0.186523,0.976562,3.475610,0.182927,-0.060976,11.175000,8.487500,44.056252,0.0,1.000000,0.000000,0.000000,0.000000
1782115719.991671,219409,0.149414,-0.186523,0.977539,3.719512,0.000000,-0.121951,11.175000,8.487500,44.056252,0.0,1.000000,0.000000,0.000000,0.000000
1782115720.001671,219419,0.145020,-0.187012,0.979004,3.963415,-0.182927,-0.121951,11.187500,8.306251,44.143749,0.0,1.000000,0.000000,0.000000,0.000000
1782115720.011671,219429,0.140625,-0.184082,0.977539,4.146341,-0.243902,-0.121951,11.187500,8.306251,44.143749,0.0,1.000000,0.000000,0.000000,0.000000
1782115720.021671,219439,0.137695,-0.181641,0.975098,4.268293,-0.365854,-0.182927,11.262500,8.375000,44.106251,0.0,1.000000,0.000000,0.000000,0.000000
1782115720.031671,219449,0.135742,-0.179199,0.973145,4.512195,-0.365854,-0.304878,11.262500,8.375000,44.106251,0.0,1.000000,0.000000,0.000000,0.000000
1782115720.041671,219459,0.136719,-0.172852,0.973633,4.634146,-0.670732,-0.304878,11.256250,8.281250,44.143749,0.0,1.000000,0.000000,0.000000,0.000000
1782115720.052671,219470,0.140625,-0.166504,0.968750,4.451220,-1.036585,-0.304878,11.256250,8.281250,44.143749,0.0,1.000000,0.000000,0.000000,0.000000
1782115720.061671,219479,0.144043,-0.161133,0.969727,4.207317,-1.036585,-0.304878,11.368751,8.393750,44.006252,0.0,1.000000,0.000000,0.000000,0.000000
1782115720.072671,219490,0.149902,-0.156738,0.968262,3.475610,-0.975610,-0.182927,11.368751,8.393750,44.006252,0.0,1.000000,0.000000,0.000000,0.000000
1782115720.082671,219500,0.155273,-0.158691,0.972656,2.987805,-0.731707,-0.060976,11.362500,8.331250,44.068752,0.0,1.000000,0.000000,0.000000,0.000000
1782115720.091671,219509,0.161621,-0.162109,0.973633,2.926829,-0.426829,0.121951,11.362500,8.331250,44.068752,0.0,1.000000,0.000000,0.000000,0.000000
1782115720.101671,219519,0.166016,-0.166504,0.973633,3.048780,-0.365854,0.304878,11.575000,8.456250,43.950001,0.0,1.000000,0.000000,0.000000,0.000000
1782115720.111671,219529,0.167969,-0.170410,0.973633,3.109756,-0.609756,0.548781,11.575000,8.456250,43.950001,0.0,1.000000,0.000000,0.000000,0.000000
1782115720.121671,219539,0.169922,-0.172363,0.974609,3.231707,-0.426829,0.670732,11.450000,8.231250,44.025002,0.0,1.000000,0.000000,0.000000,0.000000
1782115720.132671,219550,0.166504,-0.176270,0.973145,3.597561,-0.365854,0.548781,11.450000,8.231250,44.025002,0.0,1.000000,0.000000,0.000000,0.000000
1782115720.141671,219559,0.167480,-0.178711,0.973633,4.451220,-0.426829,0.365854,11.525001,8.281250,44.006252,0.0,1.000000,0.000000,0.000000,0.000000
1782115720.152671,219570,0.171875,-0.177246,0.974609,4.878049,-0.670732,0.182927,11.525001,8.281250,44.006252,0.0,1.000000,0.000000,0.000000,0.000000
1782115720.161671,219579,0.176758,-0.172363,0.981445,5.548780,-0.426829,0.060976,11.662500,8.300000,43.987499,0.0,1.000000,0.000000,0.000000,0.000000
1782115720.171671,219589,0.177734,-0.169434,0.977539,5.853659,-0.731707,0.304878,11.662500,8.300000,43.987499,0.0,1.000000,0.000000,0.000000,0.000000
1782115720.181671,219599,0.177734,-0.164551,0.979492,7.012195,0.121951,0.000000,11.793750,8.368751,43.950001,0.0,1.000000,0.000000,0.000000,0.000000
1782115720.191671,219609,0.170898,-0.157715,0.974121,7.073171,-0.670732,0.548781,11.793750,8.368751,43.950001,0.0,1.000000,0.000000,0.000000,0.000000
1782115720.201671,219619,0.164062,-0.152832,0.969727,7.500000,-0.304878,0.914634,11.856250,8.300000,43.856251,0.0,1.000000,0.000000,0.000000,0.000000
1782115720.211671,219629,0.154785,-0.148438,0.966309,7.378049,-0.304878,1.219512,11.856250,8.300000,43.856251,0.0,1.000000,0.000000,0.000000,0.000000
1782115720.221671,219639,0.146484,-0.146484,0.969727,7.195122,-0.121951,1.280488,11.937500,8.275001,43.943752,0.0,1.000000,0.000000,0.000000,0.000000
1782115720.232671,219650,0.143555,-0.141602,0.974609,6.768293,-0.182927,1.097561,11.937500,8.275001,43.943752,0.0,1.000000,0.000000,0.000000,0.000000
1782115720.241671,219659,0.138184,-0.140625,0.979004,6.158537,-0.304878,0.914634,12.075000,8.281250,43.850002,0.0,1.000000,0.000000,0.000000,0.000000
1782115720.251671,219669,0.139648,-0.142090,0.982422,6.036585,0.060976,0.182927,12.075000,8.281250,43.850002,0.0,1.000000,0.000000,0.000000,0.000000
1782115720.261671,219679,0.144531,-0.131836,0.973633,3.353659,-2.317073,1.646341,12.193750,8.287500,43.781250,0.0,1.000000,0.000000,0.000000,0.000000
1782115720.271671,219689,0.146484,-0.132324,0.987305,3.841464,-1.219512,1.158537,12.193750,8.287500,43.781250,0.0,1.000000,0.000000,0.000000,0.000000
1782115720.281671,219699,0.152832,-0.124023,0.993652,2.500000,-2.012195,1.524390,12.193750,8.231250,43.831249,0.0,1.000000,0.000000,0.000000,0.000000
1782115720.291671,219709,0.154785,-0.126953,1.002441,0.731707,-2.987805,2.195122,12.193750,8.231250,43.831249,0.0,1.000000,0.000000,0.000000,0.000000
1782115720.301671,219719,0.150391,-0.144531,1.013184,-1.402439,-4.146341,2.682927,12.225000,8.225000,43.856251,0.0,1.000000,0.000000,0.000000,0.000000
1782115720.311671,219729,0.136719,-0.154297,1.027832,-2.256098,-7.439024,2.865854,12.225000,8.225000,43.856251,0.0,1.000000,0.000000,0.000000,0.000000
1782115720.322671,219740,0.134277,-0.146484,1.027344,-0.914634,-11.951220,2.682927,12.193750,8.131250,43.881252,0.0,1.000000,0.000000,0.000000,0.000000
1782115720.331671,219749,0.144531,-0.135254,1.009277,0.548781,-12.256098,1.158537,12.193750,8.131250,43.881252,0.0,1.000000,0.000000,0.000000,0.000000
1782115720.341671,219759,0.160645,-0.128906,0.983887,1.890244,-9.939025,-0.426829,12.275001,8.025001,43.887501,0.0,1.000000,0.000000,0.000000,0.000000
1782115720.351671,219769,0.162598,-0.134277,0.962891,2.439024,-6.585366,-1.463415,12.275001,8.025001,43.887501,0.0,1.000000,0.000000,0.000000,0.000000
1782115720.361671,219779,0.177734,-0.142090,0.961914,2.317073,-5.548780,-2.926829,12.287500,7.925000,43.856251,0.0,1.000000,0.000000,0.000000,0.000000
1782115720.371671,219789,0.187500,-0.161621,0.934082,0.000000,-5.304878,-2.804878,12.287500,7.925000,43.856251,0.0,1.000000,0.000000,0.000000,0.000000
1782115720.381671,219799,0.189453,-0.164062,0.946289,1.707317,-3.170732,-3.536585,12.293750,7.900000,43.868752,0.0,1.000000,0.000000,0.000000,0.000000
1782115720.391671,219809,0.189941,-0.160156,0.952637,2.621951,-3.292683,-3.536585,12.293750,7.900000,43.868752,0.0,1.000000,0.000000,0.000000,0.000000
1782115720.401671,219819,0.186035,-0.159668,0.957520,4.085366,-2.743902,-3.170732,12.337501,7.856250,43.862499,0.0,1.000000,0.000000,0.000000,0.000000
1782115720.411671,219829,0.188477,-0.152344,0.962402,4.939024,-2.560976,-2.256098,12.337501,7.856250,43.862499,0.0,1.000000,0.000000,0.000000,0.000000
1782115720.421671,219839,0.184082,-0.145996,0.972168,5.304878,-2.195122,-1.524390,12.450000,7.868750,43.862499,0.0,1.000000,0.000000,0.000000,0.000000
1782115720.431671,219849,0.183594,-0.143066,0.974609,5.121951,-2.621951,-0.609756,12.450000,7.868750,43.862499,0.0,1.000000,0.000000,0.000000,0.000000
1782115720.441671,219859,0.183594,-0.144531,0.975098,5.000000,-2.926829,0.182927,12.550000,7.818750,43.850002,0.0,1.000000,0.000000,0.000000,0.000000
1782115720.452671,219870,0.184570,-0.150879,0.969727,4.634146,-3.719512,1.707317,12.550000,7.818750,43.850002,0.0,1.000000,0.000000,0.000000,0.000000
1782115720.461671,219879,0.187500,-0.150879,0.968262,4.512195,-3.048780,2.560976,12.631250,7.800000,43.756252,0.0,1.000000,0.000000,0.000000,0.000000
1782115720.472671,219890,0.187988,-0.147949,0.965820,5.000000,-2.317073,3.048780,12.631250,7.800000,43.756252,0.0,1.000000,0.000000,0.000000,0.000000
1782115720.481671,219899,0.189453,-0.147949,0.959961,5.548780,-2.012195,3.414634,12.731250,7.862500,43.787502,0.0,1.000000,0.000000,0.000000,0.000000
1782115720.491671,219909,0.183105,-0.154297,0.961426,6.585366,-1.646341,3.292683,12.731250,7.862500,43.787502,0.0,1.000000,0.000000,0.000000,0.000000
1782115720.501671,219919,0.178711,-0.154297,0.965332,7.378049,-1.829268,3.231707,12.806251,7.787500,43.712502,0.0,1.000000,0.000000,0.000000,0.000000
1782115720.512671,219930,0.177246,-0.145508,0.971191,7.865854,-2.195122,3.475610,12.806251,7.787500,43.712502,0.0,1.000000,0.000000,0.000000,0.000000
1782115720.521671,219939,0.176270,-0.134766,0.979004,7.926829,-2.256098,3.902439,12.881250,7.700000,43.681252,0.0,1.000000,0.000000,0.000000,0.000000
1782115720.531671,219949,0.172363,-0.128418,0.978516,8.231708,-1.219512,3.780488,12.881250,7.700000,43.681252,0.0,1.000000,0.000000,0.000000,0.000000
1782115720.541671,219959,0.169434,-0.125977,0.977051,8.536586,-1.036585,3.719512,13.025001,7.687500,43.618752,0.0,1.000000,0.000000,0.000000,0.000000
1782115720.552671,219970,0.163574,-0.122559,0.979004,8.780488,-1.280488,3.719512,13.025001,7.687500,43.618752,0.0,1.000000,0.000000,0.000000,0.000000
1782115720.561671,219979,0.160156,-0.115723,0.980469,9.146341,-1.768293,3.475610,13.087501,7.606250,43.556252,0.0,1.000000,0.000000,0.000000,0.000000
1782115720.572671,219990,0.155762,-0.112793,0.980469,9.390244,-2.500000,3.048780,13.087501,7.606250,43.556252,0.0,1.000000,0.000000,0.000000,0.000000
1782115720.581671,219999,0.151367,-0.111816,0.981445,9.024390,-2.560976,3.048780,13.250000,7.587500,43.518749,0.0,1.000000,0.000000,0.000000,0.000000
1782115720.591671,220009,0.147949,-0.112305,0.979004,8.353659,-2.926829,3.231707,13.250000,7.587500,43.518749,0.0,1.000000,0.000000,0.000000,0.000000
1782115720.601671,220019,0.146973,-0.111816,0.979980,7.865854,-2.560976,3.231707,13.293750,7.487500,43.456249,0.0,1.000000,0.000000,0.000000,0.000000
1782115720.611671,220029,0.143066,-0.113281,0.980957,7.073171,-2.439024,3.109756,13.293750,7.487500,43.456249,0.0,1.000000,0.000000,0.000000,0.000000
1782115720.621671,220039,0.143066,-0.112305,0.982422,6.280488,-2.378049,3.048780,13.500000,7.518750,43.406250,0.0,1.000000,0.000000,0.000000,0.000000
1782115720.631671,220049,0.144531,-0.114258,0.983398,5.548780,-2.500000,2.865854,13.500000,7.518750,43.406250,0.0,1.000000,0.000000,0.000000,0.000000
1782115720.641671,220059,0.147461,-0.115723,0.989258,5.182927,-2.560976,2.621951,13.562500,7.406250,43.468750,0.0,1.000000,0.000000,0.000000,0.000000
1782115720.652671,220070,0.149902,-0.116699,0.995605,5.060976,-2.500000,2.073171,13.562500,7.406250,43.468750,0.0,1.000000,0.000000,0.000000,0.000000
1782115720.661671,220079,0.159668,-0.119629,1.009766,5.365854,-2.439024,1.524390,13.800000,7.693750,43.168751,0.0,1.000000,0.000000,0.000000,0.000000
1782115720.671671,220089,0.171387,-0.123535,1.021484,6.463415,-2.012195,1.036585,13.800000,7.693750,43.168751,0.0,1.000000,0.000000,0.000000,0.000000
1782115720.681671,220099,0.180176,-0.123535,1.020996,8.109756,-1.768293,0.731707,13.693750,7.337500,43.368752,0.0,1.000000,0.000000,0.000000,0.000000
1782115720.691671,220109,0.185059,-0.120117,1.009766,9.573171,-2.378049,0.182927,13.693750,7.337500,43.368752,0.0,1.000000,0.000000,0.000000,0.000000
1782115720.701671,220119,0.196289,-0.114258,0.993164,10.000000,-2.256098,0.000000,13.806251,7.406250,43.200001,0.0,1.000000,0.000000,0.000000,0.000000
1782115720.712671,220130,0.198242,-0.108887,0.983398,9.695122,-1.707317,0.121951,13.806251,7.406250,43.200001,0.0,1.000000,0.000000,0.000000,0.000000
1782115720.722671,220140,0.195312,-0.107422,0.973145,8.780488,-1.829268,0.182927,13.875000,7.293750,43.262501,0.0,1.000000,0.000000,0.000000,0.000000
1782115720.732671,220150,0.199219,-0.109863,0.969238,7.987805,-1.951220,0.426829,13.875000,7.293750,43.262501,0.0,1.000000,0.000000,0.000000,0.000000
1782115720.741671,220159,0.208984,-0.118164,0.981934,7.682927,-2.073171,0.975610,14.037500,7.356250,43.112499,0.0,1.000000,0.000000,0.000000,0.000000
1782115720.751671,220169,0.214844,-0.134277,0.996094,8.841464,-1.341463,0.853659,14.037500,7.356250,43.112499,0.0,1.000000,0.000000,0.000000,0.000000
1782115720.761671,220179,0.214844,-0.148926,0.995605,10.609756,-1.890244,1.707317,14.143750,7.312500,43.106251,0.0,1.000000,0.000000,0.000000,0.000000
1782115720.771671,220189,0.215820,-0.153809,0.991211,13.719513,-1.951220,1.951220,14.143750,7.312500,43.106251,0.0,1.000000,0.000000,0.000000,0.000000
1782115720.781671,220199,0.217773,-0.149902,0.989258,16.829269,-1.402439,2.500000,14.387500,7.300000,43.000000,0.0,1.000000,0.000000,0.000000,0.000000
1782115720.791671,220209,0.218262,-0.140137,0.993652,19.146341,0.121951,2.804878,14.387500,7.300000,43.000000,0.0,1.000000,0.000000,0.000000,0.000000
1782115720.801671,220219,0.246094,-0.094238,1.020996,19.451220,-0.304878,5.182927,14.562500,7.237500,42.956249,0.0,1.000000,0.000000,0.000000,0.000000
1782115720.812671,220230,0.209473,-0.132324,0.919434,17.500000,-0.365854,6.524390,14.562500,7.237500,42.956249,0.0,1.000000,0.000000,0.000000,0.000000
1782115720.821671,220239,0.205078,-0.110840,0.978516,21.402439,4.756098,5.243903,14.862500,7.393750,42.681252,0.0,1.000000,0.000000,0.000000,0.000000
1782115720.831671,220249,0.195312,-0.093750,0.985840,19.512196,5.853659,4.573171,14.862500,7.393750,42.681252,0.0,1.000000,0.000000,0.000000,0.000000
1782115720.841671,220259,0.195312,-0.073730,0.996094,18.048780,5.914634,4.756098,15.043750,7.262500,42.612499,0.0,1.000000,0.000000,0.000000,0.000000
1782115720.853671,220271,0.188965,-0.072754,0.982422,16.341463,6.707317,5.426829,15.043750,7.262500,42.612499,0.0,1.000000,0.000000,0.000000,0.000000
1782115720.861671,220279,0.193848,-0.047852,1.020020,15.853659,7.012195,5.792683,15.300000,7.368750,42.475002,0.0,1.000000,0.000000,0.000000,0.000000
1782115720.871671,220289,0.183105,-0.074219,0.973633,15.731708,6.829268,5.792683,15.300000,7.368750,42.475002,0.0,1.000000,0.000000,0.000000,0.000000
1782115720.881671,220299,0.180176,-0.062012,1.000000,16.402439,5.914634,6.341464,15.500000,7.281250,42.356251,0.0,1.000000,0.000000,0.000000,0.000000
1782115720.893671,220311,0.179199,-0.066895,0.983887,17.195122,5.914634,6.463415,15.500000,7.281250,42.356251,0.0,1.000000,0.000000,0.000000,0.000000
1782115720.901671,220319,0.183105,-0.061523,0.978027,16.768293,5.304878,7.134147,15.750000,7.475000,42.137501,0.0,1.000000,0.000000,0.000000,0.000000
1782115720.911671,220329,0.189453,-0.065430,0.965332,16.219513,5.731708,7.500000,15.750000,7.475000,42.137501,0.0,1.000000,0.000000,0.000000,0.000000
1782115720.921671,220339,0.189941,-0.065918,0.957031,15.609756,6.707317,8.475610,15.918750,7.437500,42.081249,0.0,1.000000,0.000000,0.000000,0.000000
1782115720.932671,220350,0.171387,-0.080566,0.924316,13.231708,6.097561,10.000000,15.918750,7.437500,42.081249,0.0,1.000000,0.000000,0.000000,0.000000
1782115720.941671,220359,0.166504,-0.071777,0.957520,14.878049,7.926829,8.963415,16.175001,7.531250,41.906250,0.0,1.000000,0.000000,0.000000,0.000000
1782115720.951671,220369,0.153809,-0.057129,0.960938,14.329268,7.073171,9.207317,16.175001,7.531250,41.906250,0.0,1.000000,0.000000,0.000000,0.000000
1782115720.961671,220379,0.140137,-0.049316,0.977051,14.817074,7.439024,8.109756,16.343750,7.475000,41.812500,0.0,1.000000,0.000000,0.000000,0.000000
1782115720.974671,220392,0.133789,-0.042969,0.978516,14.634147,7.865854,7.621952,16.587500,7.562500,41.650002,0.0,1.000000,0.000000,0.000000,0.000000
1782115720.981671,220399,0.135254,-0.035156,0.994629,14.390244,7.987805,7.256098,16.587500,7.562500,41.650002,0.0,1.000000,0.000000,0.000000,0.000000
1782115720.991671,220409,0.143555,-0.031250,1.001465,13.963415,7.987805,7.378049,16.587500,7.562500,41.650002,0.0,1.000000,0.000000,0.000000,0.000000
1782115721.001671,220419,0.151855,-0.023926,1.013184,13.719513,8.292683,7.439024,16.750000,7.637500,41.531250,0.0,1.000000,0.000000,0.000000,0.000000
1782115721.013671,220431,0.154297,-0.020508,1.020996,13.597561,8.658537,7.073171,16.950001,7.687500,41.368752,0.0,1.000000,0.000000,0.000000,0.000000
1782115721.021671,220439,0.157715,-0.016113,1.020996,13.048780,9.024390,6.341464,16.950001,7.687500,41.368752,0.0,1.000000,0.000000,0.000000,0.000000
1782115721.031671,220449,0.165039,0.003906,1.029297,11.524390,9.085366,6.158537,16.950001,7.687500,41.368752,0.0,1.000000,0.000000,0.000000,0.000000
1782115721.041671,220459,0.168945,0.013184,1.013184,9.939025,9.451220,6.402439,17.287500,8.162500,41.081249,0.0,1.000000,0.000000,0.000000,0.000000
1782115721.052671,220470,0.145508,0.000488,0.956055,7.073171,10.000000,6.768293,17.287500,8.162500,41.081249,0.0,1.000000,0.000000,0.000000,0.000000
1782115721.061671,220479,0.134277,0.014160,1.005371,5.609756,11.707317,5.548780,17.181250,7.775000,41.187500,0.0,1.000000,0.000000,0.000000,0.000000
1782115721.071671,220489,0.125977,0.010254,0.985840,3.902439,12.195122,5.000000,17.181250,7.775000,41.187500,0.0,1.000000,0.000000,0.000000,0.000000
1782115721.081671,220499,0.122559,0.007324,0.988281,2.500000,11.280488,5.182927,17.300001,8.050000,41.025002,0.0,1.000000,0.000000,0.000000,0.000000
1782115721.093671,220511,0.131836,0.002441,0.989746,1.707317,11.402439,5.365854,17.300001,8.050000,41.025002,0.0,1.000000,0.000000,0.000000,0.000000
1782115721.102671,220520,0.139648,0.006348,0.996582,1.402439,10.914635,5.792683,17.331251,8.050000,41.068752,0.0,1.000000,0.000000,0.000000,0.000000
1782115721.112671,220530,0.133789,0.000977,0.981445,1.158537,10.609756,6.341464,17.331251,8.050000,41.068752,0.0,1.000000,0.000000,0.000000,0.000000
1782115721.121671,220539,0.119141,-0.000488,0.973145,0.792683,10.000000,6.402439,17.412500,8.168750,40.956249,0.0,1.000000,0.000000,0.000000,0.000000
1782115721.134671,220552,0.094238,-0.017578,0.940918,-0.914634,8.597561,7.012195,17.412500,8.168750,40.956249,0.0,1.000000,0.000000,0.000000,0.000000
1782115721.142671,220560,0.094727,-0.022461,0.972168,0.121951,9.573171,5.304878,17.387501,8.187500,40.950001,0.0,1.000000,0.000000,0.000000,0.000000
1782115721.151671,220569,0.094727,-0.038574,0.970703,1.585366,10.243902,3.902439,17.387501,8.187500,40.950001,0.0,1.000000,0.000000,0.000000,0.000000
1782115721.161671,220579,0.096191,-0.035645,0.979492,2.865854,9.268292,3.414634,17.462500,8.243751,40.912502,0.0,1.000000,0.000000,0.000000,0.000000
1782115721.171671,220589,0.089844,-0.042480,0.966797,4.329268,8.658537,3.048780,17.462500,8.243751,40.912502,0.0,1.000000,0.000000,0.000000,0.000000
1782115721.182671,220600,0.083496,-0.037109,0.966797,5.243903,8.353659,2.256098,17.518751,8.387500,40.875000,0.0,1.000000,0.000000,0.000000,0.000000
1782115721.191671,220609,0.080566,-0.024414,0.964844,5.609756,7.804878,2.134146,17.518751,8.387500,40.875000,0.0,1.000000,0.000000,0.000000,0.000000
1782115721.201671,220619,0.078613,-0.014648,0.966797,5.426829,6.707317,2.378049,17.618750,8.550000,40.756252,0.0,1.000000,0.000000,0.000000,0.000000
1782115721.211671,220629,0.082520,-0.011230,0.969727,4.695122,5.792683,2.621951,17.618750,8.550000,40.756252,0.0,1.000000,0.000000,0.000000,0.000000
1782115721.221671,220639,0.078125,-0.004395,0.963867,3.780488,5.792683,2.987805,17.612501,8.568750,40.762501,0.0,1.000000,0.000000,0.000000,0.000000
1782115721.231671,220649,0.072266,-0.000977,0.956543,2.012195,4.573171,2.804878,17.612501,8.568750,40.762501,0.0,1.000000,0.000000,0.000000,0.000000
1782115721.241671,220659,0.073242,-0.003906,0.947266,-0.182927,2.682927,2.378049,17.643751,8.587501,40.693752,0.0,1.000000,0.000000,0.000000,0.000000
1782115721.251671,220669,0.079102,-0.003906,0.940918,-1.707317,1.219512,2.134146,17.643751,8.587501,40.693752,0.0,1.000000,0.000000,0.000000,0.000000
1782115721.261671,220679,0.078613,-0.007324,0.932617,-3.231707,-0.243902,2.134146,17.600000,8.593750,40.700001,0.0,1.000000,0.000000,0.000000,0.000000
1782115721.271671,220689,0.080078,-0.012695,0.924805,-4.451220,-1.829268,2.012195,17.600000,8.593750,40.700001,0.0,1.000000,0.000000,0.000000,0.000000
1782115721.281671,220699,0.083984,-0.021484,0.923340,-5.365854,-4.024390,1.951220,17.737501,8.725000,40.681252,0.0,1.000000,0.000000,0.000000,0.000000
1782115721.291671,220709,0.088379,-0.031738,0.917480,-5.121951,-6.219512,1.829268,17.737501,8.725000,40.681252,0.0,1.000000,0.000000,0.000000,0.000000
1782115721.301671,220719,0.085938,-0.035645,0.906250,-3.597561,-8.475610,1.707317,17.537500,8.512500,40.843750,0.0,1.000000,0.000000,0.000000,0.000000
1782115721.311671,220729,0.078125,-0.037109,0.896973,-2.195122,-10.792684,1.524390,17.537500,8.512500,40.843750,0.0,1.000000,0.000000,0.000000,0.000000
1782115721.321671,220739,0.069824,-0.036133,0.893555,-1.036585,-13.536586,1.097561,17.587500,8.450000,40.831249,0.0,1.000000,0.000000,0.000000,0.000000
1782115721.331671,220749,0.063477,-0.029785,0.897461,-0.609756,-16.646341,0.670732,17.587500,8.450000,40.831249,0.0,1.000000,0.000000,0.000000,0.000000
1782115721.342671,220760,0.102539,-0.037109,0.980469,-0.426829,-17.621952,-1.219512,17.500000,8.168750,40.850002,0.0,1.000000,0.000000,0.000000,0.000000
1782115721.351671,220769,0.102539,-0.037109,0.980469,-0.426829,-17.621952,-1.219512,17.475000,7.962500,40.887501,0.0,1.000000,0.000000,0.000000,0.000000
1782115721.361671,220779,0.188477,-0.060547,1.094238,-1.585366,-12.439025,-1.341463,17.475000,7.962500,40.887501,0.0,1.000000,0.000000,0.000000,0.000000
1782115721.371671,220789,0.314941,-0.099121,1.206055,-0.426829,-6.280488,0.000000,17.475000,7.900000,40.937500,0.0,1.000000,0.000000,0.000000,0.000000
1782115721.381671,220799,0.411621,-0.119629,1.246582,6.402439,1.890244,2.378049,17.475000,7.900000,40.937500,0.0,1.000000,0.000000,0.000000,0.000000
1782115721.391671,220809,0.255371,-0.005371,1.131836,14.024390,9.390244,4.573171,17.643751,7.937500,40.875000,0.0,1.000000,0.000000,0.000000,0.000000
1782115721.402671,220820,0.115723,0.057129,1.067871,8.597561,6.829268,2.926829,17.643751,7.937500,40.875000,0.0,1.000000,0.000000,0.000000,0.000000
1782115721.411671,220829,0.027344,0.073242,1.022949,1.707317,3.902439,1.158537,17.762501,7.993750,40.825001,0.0,1.000000,0.000000,0.000000,0.000000
1782115721.421671,220839,0.001465,0.045898,0.991211,-5.060976,1.646341,0.548781,17.762501,7.993750,40.825001,0.0,1.000000,0.000000,0.000000,0.000000
1782115721.432671,220850,0.028809,0.002441,0.956055,-10.121951,-0.060976,0.853659,17.737501,8.037500,40.799999,0.0,1.000000,0.000000,0.000000,0.000000
1782115721.442671,220860,0.077148,-0.026855,0.921387,-11.524390,-1.402439,1.402439,17.737501,8.037500,40.799999,0.0,1.000000,0.000000,0.000000,0.000000
1782115721.451671,220869,0.127930,-0.037109,0.889648,-10.365854,-2.195122,1.829268,17.587500,8.012500,40.875000,0.0,1.000000,0.000000,0.000000,0.000000
1782115721.463671,220881,0.157227,-0.037598,0.863770,-7.804878,-2.804878,2.378049,17.587500,8.012500,40.875000,0.0,1.000000,0.000000,0.000000,0.000000
1782115721.472671,220890,0.174316,-0.032715,0.869629,-4.939024,-3.048780,3.597561,17.706251,8.287500,40.681252,0.0,1.000000,0.000000,0.000000,0.000000
1782115721.482671,220900,0.178223,-0.032715,0.900391,-2.682927,-2.134146,5.548780,17.706251,8.287500,40.681252,0.0,1.000000,0.000000,0.000000,0.000000
1782115721.491671,220909,0.177734,-0.041016,0.945312,-0.975610,0.121951,7.500000,17.518751,8.000000,40.918751,0.0,1.000000,0.000000,0.000000,0.000000
1782115721.501671,220919,0.164551,-0.051270,0.991211,1.219512,2.560976,8.658537,17.518751,8.000000,40.918751,0.0,1.000000,0.000000,0.000000,0.000000
1782115721.511671,220929,0.145508,-0.055664,1.037109,3.902439,5.060976,8.475610,17.550001,8.006250,40.837502,0.0,1.000000,0.000000,0.000000,0.000000
1782115721.521671,220939,0.117676,-0.062012,1.079102,6.707317,6.707317,6.524390,17.550001,8.006250,40.837502,0.0,1.000000,0.000000,0.000000,0.000000
1782115721.531671,220949,0.082520,-0.055664,1.110352,8.536586,6.219512,3.414634,17.575001,7.856250,40.912502,0.0,1.000000,0.000000,0.000000,0.000000
1782115721.541671,220959,0.066406,-0.030762,1.101562,8.536586,3.902439,0.182927,17.575001,7.856250,40.912502,0.0,1.000000,0.000000,0.000000,0.000000
1782115721.551671,220969,0.064941,0.001465,1.078125,6.707317,1.829268,-2.195122,17.781250,8.143750,40.762501,0.0,1.000000,0.000000,0.000000,0.000000
1782115721.561671,220979,0.074707,0.026367,1.054688,2.500000,-1.036585,-3.475610,17.781250,8.143750,40.762501,0.0,1.000000,0.000000,0.000000,0.000000
1782115721.571671,220989,0.094727,0.037598,1.019043,-2.743902,-3.231707,-3.475610,17.756250,8.000000,40.787502,0.0,1.000000,0.000000,0.000000,0.000000
1782115721.581671,220999,0.115234,0.037109,0.985840,-7.500000,-4.146341,-2.682927,17.756250,8.000000,40.787502,0.0,1.000000,0.000000,0.000000,0.000000
1782115721.591671,221009,0.133301,0.029785,0.970215,-10.792684,-4.451220,-1.463415,17.706251,8.093750,40.806252,0.0,1.000000,0.000000,0.000000,0.000000
1782115721.601671,221019,0.150391,0.020020,0.945801,-11.890244,-3.475610,0.060976,17.706251,8.093750,40.806252,0.0,1.000000,0.000000,0.000000,0.000000
1782115721.611671,221029,0.161133,0.001465,0.930176,-11.402439,-1.402439,1.097561,17.462500,7.937500,40.918751,0.0,1.000000,0.000000,0.000000,0.000000
1782115721.621671,221039,0.170410,-0.028320,0.931152,-9.573171,-0.487805,1.707317,17.462500,7.937500,40.918751,0.0,1.000000,0.000000,0.000000,0.000000
1782115721.631671,221049,0.176270,-0.057617,0.928223,-6.280488,0.000000,2.073171,17.493750,7.993750,40.975002,0.0,1.000000,0.000000,0.000000,0.000000
1782115721.641671,221059,0.175781,-0.080566,0.939941,-2.621951,0.060976,2.439024,17.493750,7.993750,40.975002,0.0,1.000000,0.000000,0.000000,0.000000
1782115721.651671,221069,0.169434,-0.091797,0.963867,0.914634,0.426829,2.195122,17.412500,7.981250,41.000000,0.0,1.000000,0.000000,0.000000,0.000000
1782115721.661671,221079,0.155762,-0.086914,0.997070,4.451220,0.487805,1.890244,17.412500,7.981250,41.000000,0.0,1.000000,0.000000,0.000000,0.000000
1782115721.671671,221089,0.141113,-0.074219,1.021973,7.621952,0.670732,1.463415,17.543751,8.062500,40.906250,0.0,1.000000,0.000000,0.000000,0.000000
1782115721.681671,221099,0.129395,-0.055176,1.038574,9.573171,0.731707,0.853659,17.543751,8.062500,40.906250,0.0,1.000000,0.000000,0.000000,0.000000
1782115721.691671,221109,0.120117,-0.032227,1.046875,10.426829,0.182927,0.000000,17.600000,7.918750,40.924999,0.0,1.000000,0.000000,0.000000,0.000000
1782115721.701671,221119,0.119629,-0.007324,1.045410,10.121951,-0.792683,-1.158537,17.600000,7.918750,40.924999,0.0,1.000000,0.000000,0.000000,0.000000
1782115721.711671,221129,0.125488,0.015625,1.041016,8.353659,-2.500000,-2.378049,17.718750,8.031250,40.793751,0.0,1.000000,0.000000,0.000000,0.000000
1782115721.721671,221139,0.131836,0.034668,1.018555,5.548780,-3.170732,-2.865854,17.718750,8.031250,40.793751,0.0,1.000000,0.000000,0.000000,0.000000
1782115721.731671,221149,0.136230,0.043457,0.991211,2.560976,-3.292683,-2.621951,17.762501,7.975000,40.768749,0.0,1.000000,0.000000,0.000000,0.000000
1782115721.742671,221160,0.134766,0.034180,0.970215,0.060976,-3.231707,-1.951220,17.762501,7.975000,40.768749,0.0,1.000000,0.000000,0.000000,0.000000
1782115721.751671,221169,0.131836,0.015625,0.966309,-2.256098,-2.439024,-0.853659,17.806250,8.037500,40.725002,0.0,1.000000,0.000000,0.000000,0.000000
1782115721.761671,221179,0.130859,-0.006348,0.979980,-4.268293,-1.646341,0.000000,17.806250,8.037500,40.725002,0.0,1.000000,0.000000,0.000000,0.000000
1782115721.771671,221189,0.144043,-0.024902,0.998047,-4.268293,-0.975610,0.670732,17.712500,7.818750,40.856251,0.0,1.000000,0.000000,0.000000,0.000000
1782115721.782671,221200,0.172852,-0.038086,1.022461,-2.439024,0.121951,1.158537,17.712500,7.818750,40.856251,0.0,1.000000,0.000000,0.000000,0.000000
1782115721.791671,221209,0.202148,-0.038574,1.035645,1.280488,1.951220,1.036585,17.800001,8.093750,40.718750,0.0,1.000000,0.000000,0.000000,0.000000
1782115721.801671,221219,0.196289,-0.023438,1.012207,5.731708,3.414634,-0.243902,17.800001,8.093750,40.718750,0.0,1.000000,0.000000,0.000000,0.000000
1782115721.812671,221230,0.146973,-0.000488,0.972168,8.536586,2.926829,-2.134146,17.812500,7.950000,40.725002,0.0,1.000000,0.000000,0.000000,0.000000
1782115721.821671,221239,0.092285,0.024414,0.963379,7.621952,1.158537,-3.475610,17.812500,7.950000,40.725002,0.0,1.000000,0.000000,0.000000,0.000000
1782115721.832671,221250,0.057617,0.042969,0.982422,4.329268,-0.243902,-4.329268,17.875000,8.087501,40.593750,0.0,1.000000,0.000000,0.000000,0.000000
1782115721.842671,221260,0.061035,0.050293,0.996582,0.731707,-0.060976,-5.426829,17.875000,8.087501,40.593750,0.0,1.000000,0.000000,0.000000,0.000000
1782115721.851671,221269,0.102051,0.037598,1.011230,-2.134146,1.524390,-5.914634,17.837500,8.006250,40.706249,0.0,1.000000,0.000000,0.000000,0.000000
1782115721.863671,221281,0.155762,0.016113,1.025879,-4.329268,3.841464,-5.792683,17.837500,8.006250,40.706249,0.0,1.000000,0.000000,0.000000,0.000000
1782115721.872671,221290,0.198242,0.008301,1.031738,-4.451220,6.585366,-6.097561,17.812500,8.168750,40.687500,0.0,1.000000,0.000000,0.000000,0.000000
1782115721.882671,221300,0.225098,0.002441,1.043457,-3.719512,8.109756,-6.829268,17.812500,8.168750,40.687500,0.0,1.000000,0.000000,0.000000,0.000000
1782115721.892671,221310,0.239746,0.003418,1.048340,-3.475610,9.207317,-7.439024,17.743750,8.300000,40.681252,0.0,1.000000,0.000000,0.000000,0.000000
1782115721.901671,221319,0.239258,-0.003418,1.045898,-4.268293,11.036586,-8.109756,17.743750,8.300000,40.681252,0.0,1.000000,0.000000,0.000000,0.000000
1782115721.911671,221329,0.220215,-0.016602,1.035645,-6.463415,13.292684,-7.682927,17.756250,8.525001,40.637501,0.0,1.000000,0.000000,0.000000,0.000000
1782115721.921671,221339,0.193848,-0.018066,1.022461,-8.048780,14.756098,-6.280488,17.756250,8.525001,40.637501,0.0,1.000000,0.000000,0.000000,0.000000
1782115721.932671,221350,0.141113,-0.017578,0.960938,-10.060976,13.231708,-2.378049,17.600000,8.662500,40.725002,0.0,1.000000,0.000000,0.000000,0.000000
1782115721.941671,221359,0.091309,-0.015137,0.988770,-8.292683,14.695123,-2.743902,17.600000,8.662500,40.725002,0.0,1.000000,0.000000,0.000000,0.000000
1782115721.951671,221369,0.046875,-0.036621,0.969727,-9.939025,14.024390,-2.134146,17.506250,8.868751,40.718750,0.0,1.000000,0.000000,0.000000,0.000000
1782115721.961671,221379,0.032715,-0.059082,0.996094,-11.036586,13.536586,-2.743902,17.506250,8.868751,40.718750,0.0,1.000000,0.000000,0.000000,0.000000
1782115721.971671,221389,0.042480,-0.091797,1.004395,-13.414635,12.560976,-2.743902,17.406250,9.025001,40.756252,0.0,1.000000,0.000000,0.000000,0.000000
1782115721.981671,221399,0.069336,-0.118652,0.996582,-15.060976,13.109756,-2.560976,17.406250,9.025001,40.756252,0.0,1.000000,0.000000,0.000000,0.000000
1782115721.991671,221409,0.098633,-0.134277,1.000000,-12.743903,13.719513,-2.560976,17.237501,9.231250,40.775002,0.0,1.000000,0.000000,0.000000,0.000000
1782115722.001671,221419,0.132324,-0.125977,1.005371,-9.085366,12.926829,-0.914634,17.237501,9.231250,40.775002,0.0,1.000000,0.000000,0.000000,0.000000
1782115722.011671,221429,0.147461,-0.100098,1.003906,-4.390244,13.597561,0.609756,17.150000,9.337501,40.793751,0.0,1.000000,0.000000,0.000000,0.000000
1782115722.022671,221440,0.175293,-0.038574,1.049805,-1.707317,13.231708,3.048780,17.150000,9.337501,40.793751,0.0,1.000000,0.000000,0.000000,0.000000
1782115722.031671,221449,0.148438,-0.060547,0.995605,0.853659,17.012196,3.048780,17.200001,9.475000,40.812500,0.0,1.000000,0.000000,0.000000,0.000000
1782115722.042671,221460,0.109375,-0.065430,1.019043,0.426829,16.341463,2.560976,17.200001,9.475000,40.812500,0.0,1.000000,0.000000,0.000000,0.000000
1782115722.051671,221469,0.083008,-0.079590,1.010254,0.487805,16.036585,1.707317,17.212500,9.637500,40.674999,0.0,1.000000,0.000000,0.000000,0.000000
1782115722.062671,221480,0.056152,-0.084473,0.994629,-0.060976,15.426829,1.707317,17.212500,9.637500,40.674999,0.0,1.000000,0.000000,0.000000,0.000000
1782115722.071671,221489,0.037109,-0.101074,0.982422,0.182927,15.243903,1.402439,17.306250,9.900001,40.650002,0.0,1.000000,0.000000,0.000000,0.000000
1782115722.081671,221499,0.025391,-0.114258,0.980469,1.463415,14.695123,0.975610,17.306250,9.900001,40.650002,0.0,1.000000,0.000000,0.000000,0.000000
1782115722.091671,221509,0.026855,-0.122559,0.967285,3.353659,13.475610,0.975610,17.293751,9.981250,40.612499,0.0,1.000000,0.000000,0.000000,0.000000
1782115722.104671,221522,0.040527,-0.108887,0.955078,10.182927,12.378049,2.012195,17.293751,9.981250,40.612499,0.0,1.000000,0.000000,0.000000,0.000000
1782115722.112671,221530,0.040527,-0.108887,0.955078,10.182927,12.378049,2.012195,17.412500,10.175000,40.468750,0.0,1.000000,0.000000,0.000000,0.000000
1782115722.122671,221540,0.036133,-0.091309,0.950195,13.658537,12.195122,1.951220,17.412500,10.175000,40.468750,0.0,1.000000,0.000000,0.000000,0.000000
1782115722.131671,221549,0.038086,-0.066406,0.957520,16.341463,11.768293,1.463415,17.625000,10.275001,40.350002,0.0,1.000000,0.000000,0.000000,0.000000
1782115722.143671,221561,0.063477,-0.046387,1.009277,17.073172,12.500000,0.853659,17.625000,10.275001,40.350002,0.0,1.000000,0.000000,0.000000,0.000000
1782115722.151671,221569,0.074707,-0.013672,1.014160,18.048780,15.426829,-0.182927,17.825001,10.506250,40.100002,0.0,1.000000,0.000000,0.000000,0.000000
1782115722.161671,221579,0.064941,0.031738,1.002441,20.121952,13.963415,-2.012195,17.825001,10.506250,40.100002,0.0,1.000000,0.000000,0.000000,0.000000
1782115722.171671,221589,0.094727,0.063965,1.021973,17.256098,11.951220,-2.134146,18.025000,10.637500,39.975002,0.0,1.000000,0.000000,0.000000,0.000000
1782115722.183671,221601,0.116699,0.058594,1.011230,9.512196,12.865854,-0.060976,18.025000,10.637500,39.975002,0.0,1.000000,0.000000,0.000000,0.000000
1782115722.191671,221609,0.111328,0.007324,0.973145,0.609756,13.841464,3.658537,18.200001,10.731250,39.881252,0.0,1.000000,0.000000,0.000000,0.000000
1782115722.201671,221619,0.091797,-0.039551,1.017578,-2.804878,16.829269,4.817073,18.200001,10.731250,39.881252,0.0,1.000000,0.000000,0.000000,0.000000
1782115722.211671,221629,0.080078,-0.082031,1.032715,-4.634146,16.707317,6.158537,18.137501,10.900001,39.768749,0.0,1.000000,0.000000,0.000000,0.000000
1782115722.224671,221642,0.076660,-0.072266,1.018066,3.353659,16.951220,7.560976,18.137501,10.900001,39.768749,0.0,1.000000,0.000000,0.000000,0.000000
1782115722.231671,221649,0.076660,-0.072266,1.018066,3.353659,16.951220,7.560976,18.193750,11.137500,39.718750,0.0,1.000000,0.000000,0.000000,0.000000
1782115722.241671,221659,0.071777,-0.041992,1.023926,8.719512,16.646341,7.500000,18.193750,11.137500,39.718750,0.0,1.000000,0.000000,0.000000,0.000000
1782115722.252671,221670,0.063477,-0.014648,1.008789,12.012196,16.158537,7.317073,18.325001,11.168750,39.612499,0.0,1.000000,0.000000,0.000000,0.000000
1782115722.263671,221681,0.058594,0.018066,1.007812,11.402439,17.378050,5.731708,18.325001,11.168750,39.612499,0.0,1.000000,0.000000,0.000000,0.000000
1782115722.271671,221689,0.058594,0.018066,1.007812,11.402439,17.378050,5.731708,18.550001,11.393750,39.400002,0.0,1.000000,0.000000,0.000000,0.000000
1782115722.281671,221699,0.050781,0.015625,1.001465,9.390244,19.085367,4.329268,18.550001,11.393750,39.400002,0.0,1.000000,0.000000,0.000000,0.000000
1782115722.291671,221709,0.019531,0.010254,0.980469,5.121951,20.853659,2.134146,18.668751,11.512500,39.256252,0.0,1.000000,0.000000,0.000000,0.000000
1782115722.303671,221721,0.000000,0.011719,0.975586,4.207317,20.853659,1.585366,18.668751,11.512500,39.256252,0.0,1.000000,0.000000,0.000000,0.000000
1782115722.312671,221730,-0.013184,0.020020,0.978516,4.085366,20.182928,1.524390,18.912500,12.062500,38.987499,0.0,1.000000,0.000000,0.000000,0.000000
1782115722.321671,221739,-0.026855,0.024414,0.977051,4.634146,19.329269,1.402439,18.912500,12.062500,38.987499,0.0,1.000000,0.000000,0.000000,0.000000
1782115722.331671,221749,-0.035156,0.029785,0.984375,5.000000,18.170732,1.463415,18.825001,11.937500,39.062500,0.0,1.000000,0.000000,0.000000,0.000000
1782115722.344671,221762,-0.047852,0.027832,0.969727,4.451220,17.012196,1.646341,18.825001,11.937500,39.062500,0.0,1.000000,0.000000,0.000000,0.000000
1782115722.351671,221769,-0.067383,0.023438,0.954102,3.902439,16.036585,1.219512,18.912500,12.243751,38.850002,0.0,1.000000,0.000000,0.000000,0.000000
1782115722.361671,221779,-0.085938,0.020020,0.938477,2.378049,13.536586,0.853659,18.912500,12.243751,38.850002,0.0,1.000000,0.000000,0.000000,0.000000
1782115722.371671,221789,-0.097168,0.018555,0.937988,1.463415,11.219512,-0.304878,18.950001,12.243751,38.862499,0.0,1.000000,0.000000,0.000000,0.000000
1782115722.383671,221801,-0.093262,0.016113,0.926270,0.426829,8.170732,-0.975610,18.950001,12.243751,38.862499,0.0,1.000000,0.000000,0.000000,0.000000
1782115722.392671,221810,-0.081543,0.003906,0.919922,0.548781,5.792683,-1.524390,18.993750,12.418750,38.743752,0.0,1.000000,0.000000,0.000000,0.000000
1782115722.401671,221819,-0.064941,-0.004395,0.921875,0.975610,3.170732,-1.768293,18.993750,12.418750,38.743752,0.0,1.000000,0.000000,0.000000,0.000000
1782115722.411671,221829,-0.047363,-0.009277,0.923828,2.378049,1.158537,-1.890244,18.956251,12.443750,38.799999,0.0,1.000000,0.000000,0.000000,0.000000
1782115722.423671,221841,-0.028320,-0.011230,0.928711,4.024390,-0.548781,-1.341463,18.956251,12.443750,38.799999,0.0,1.000000,0.000000,0.000000,0.000000
1782115722.431671,221849,-0.010742,-0.006348,0.936523,5.304878,-1.707317,-1.097561,19.025000,12.512500,38.737499,0.0,1.000000,0.000000,0.000000,0.000000
1782115722.441671,221859,0.005859,-0.006348,0.947266,5.914634,-2.195122,-0.731707,19.025000,12.512500,38.737499,0.0,1.000000,0.000000,0.000000,0.000000
1782115722.451671,221869,0.020020,-0.007812,0.976074,5.853659,-1.890244,-0.304878,19.081251,12.425000,38.737499,0.0,1.000000,0.000000,0.000000,0.000000
1782115722.463671,221881,0.034180,-0.010742,1.004883,6.219512,-0.792683,0.060976,19.081251,12.425000,38.737499,0.0,1.000000,0.000000,0.000000,0.000000
1782115722.471671,221889,0.033203,-0.004883,1.021484,7.073171,0.304878,0.548781,19.156250,12.450000,38.662502,0.0,1.000000,0.000000,0.000000,0.000000
1782115722.482671,221900,0.027832,0.006836,1.031738,7.500000,1.585366,0.914634,19.156250,12.450000,38.662502,0.0,1.000000,0.000000,0.000000,0.000000
1782115722.491671,221909,0.013184,0.018066,1.041992,7.439024,2.012195,0.975610,19.206251,12.350000,38.693752,0.0,1.000000,0.000000,0.000000,0.000000
1782115722.504671,221922,-0.006348,0.021973,1.045898,6.707317,2.439024,0.670732,19.206251,12.350000,38.693752,0.0,1.000000,0.000000,0.000000,0.000000
1782115722.512671,221930,-0.020508,0.025879,1.045410,5.243903,2.621951,0.487805,19.381250,12.518750,38.537502,0.0,1.000000,0.000000,0.000000,0.000000
1782115722.522671,221940,-0.032715,0.030273,1.033691,3.658537,1.890244,0.426829,19.381250,12.518750,38.537502,0.0,1.000000,0.000000,0.000000,0.000000
1782115722.531671,221949,-0.036133,0.032227,1.021484,2.134146,0.609756,0.548781,19.368750,12.450000,38.525002,0.0,1.000000,0.000000,0.000000,0.000000
1782115722.543671,221961,-0.032227,0.028809,1.007324,0.487805,0.000000,0.670732,19.368750,12.450000,38.525002,0.0,1.000000,0.000000,0.000000,0.000000
1782115722.553671,221971,-0.026855,0.021973,0.994629,-0.487805,0.121951,0.365854,19.343750,12.431251,38.506252,0.0,1.000000,0.000000,0.000000,0.000000
1782115722.561671,221979,-0.026367,0.013184,0.974609,-0.304878,0.182927,0.243902,19.343750,12.431251,38.506252,0.0,1.000000,0.000000,0.000000,0.000000
1782115722.571671,221989,-0.035156,0.008789,0.963867,-0.182927,-0.121951,0.304878,19.387501,12.468750,38.549999,0.0,1.000000,0.000000,0.000000,0.000000
1782115722.584671,222002,-0.042480,0.007812,0.967285,-0.426829,-1.036585,0.548781,19.387501,12.468750,38.549999,0.0,1.000000,0.000000,0.000000,0.000000
1782115722.591671,222009,-0.041504,0.011719,0.978516,-0.426829,-1.890244,0.670732,19.381250,12.368751,38.549999,0.0,1.000000,0.000000,0.000000,0.000000
1782115722.601671,222019,-0.025879,0.013184,0.986816,0.243902,-1.951220,0.548781,19.381250,12.368751,38.549999,0.0,1.000000,0.000000,0.000000,0.000000
1782115722.611671,222029,-0.004395,0.013672,1.000000,1.280488,-1.829268,0.365854,19.375000,12.425000,38.543751,0.0,1.000000,0.000000,0.000000,0.000000
1782115722.624671,222042,0.013184,0.012207,1.002930,2.195122,-1.402439,0.609756,19.375000,12.425000,38.543751,0.0,1.000000,0.000000,0.000000,0.000000
1782115722.632671,222050,0.017090,0.012695,1.004395,2.865854,-0.853659,0.853659,19.418751,12.431251,38.475002,0.0,1.000000,0.000000,0.000000,0.000000
1782115722.641671,222059,0.011719,0.020508,1.000488,3.170732,-0.731707,0.975610,19.418751,12.431251,38.475002,0.0,1.000000,0.000000,0.000000,0.000000
1782115722.651671,222069,-0.004395,0.029785,0.995605,2.865854,-0.975610,0.914634,19.462500,12.356250,38.475002,0.0,1.000000,0.000000,0.000000,0.000000
1782115722.664671,222082,-0.019531,0.035156,0.995605,1.402439,-1.646341,0.792683,19.462500,12.356250,38.475002,0.0,1.000000,0.000000,0.000000,0.000000
1782115722.671671,222089,-0.029785,0.032227,1.000000,-0.731707,-2.195122,0.792683,19.443750,12.337501,38.468750,0.0,1.000000,0.000000,0.000000,0.000000
1782115722.681671,222099,-0.027344,0.024902,1.000977,-2.926829,-2.195122,0.914634,19.443750,12.337501,38.468750,0.0,1.000000,0.000000,0.000000,0.000000
1782115722.692671,222110,-0.023438,0.013672,1.002441,-3.963415,-2.256098,1.158537,19.437500,12.281250,38.518749,0.0,1.000000,0.000000,0.000000,0.000000
1782115722.704671,222122,-0.015625,0.006348,1.000488,-3.658537,-2.500000,1.524390,19.437500,12.281250,38.518749,0.0,1.000000,0.000000,0.000000,0.000000
1782115722.712671,222130,-0.008301,-0.002930,0.997559,-2.865854,-2.682927,1.951220,19.450001,12.275001,38.531250,0.0,1.000000,0.000000,0.000000,0.000000
1782115722.721671,222139,-0.001953,-0.008789,0.994629,-2.073171,-2.865854,2.256098,19.450001,12.275001,38.531250,0.0,1.000000,0.000000,0.000000,0.000000
1782115722.731671,222149,0.007812,-0.011230,0.994629,-0.670732,-2.865854,2.073171,19.318750,12.218750,38.612499,0.0,1.000000,0.000000,0.000000,0.000000
1782115722.743671,222161,0.009766,-0.007812,0.999512,0.548781,-2.682927,1.768293,19.412500,12.243751,38.549999,0.0,1.000000,0.000000,0.000000,0.000000
1782115722.751671,222169,0.006348,0.005371,0.997070,1.768293,-2.743902,1.280488,19.412500,12.243751,38.549999,0.0,1.000000,0.000000,0.000000,0.000000
1782115722.761671,222179,0.001465,0.019043,0.993652,3.048780,-3.109756,0.731707,19.412500,12.243751,38.549999,0.0,1.000000,0.000000,0.000000,0.000000
1782115722.771671,222189,-0.002441,0.033203,0.994141,3.780488,-3.658537,0.243902,19.368750,12.106250,38.581249,0.0,1.000000,0.000000,0.000000,0.000000
1782115722.784671,222202,-0.005371,0.041504,0.995117,3.719512,-3.780488,0.000000,19.475000,12.137500,38.575001,0.0,1.000000,0.000000,0.000000,0.000000
1782115722.791671,222209,-0.004883,0.046387,1.001465,3.231707,-3.658537,-0.121951,19.475000,12.137500,38.575001,0.0,1.000000,0.000000,0.000000,0.000000
1782115722.801671,222219,0.003906,0.052734,1.011230,2.317073,-3.353659,-0.426829,19.475000,12.137500,38.575001,0.0,1.000000,0.000000,0.000000,0.000000
1782115722.811671,222229,0.016602,0.054688,1.014648,1.402439,-2.682927,-0.731707,19.481251,12.043750,38.518749,0.0,1.000000,0.000000,0.000000,0.000000
1782115722.824671,222242,0.024902,0.052734,1.017090,0.121951,-1.829268,-0.853659,19.481251,12.043750,38.518749,0.0,1.000000,0.000000,0.000000,0.000000
1782115722.831671,222249,0.023926,0.046875,1.011230,-1.280488,-1.097561,-0.792683,19.518751,12.093750,38.431252,0.0,1.000000,0.000000,0.000000,0.000000
1782115722.841671,222259,0.010742,0.039551,1.004395,-2.500000,-0.975610,-0.670732,19.518751,12.093750,38.431252,0.0,1.000000,0.000000,0.000000,0.000000
1782115722.851671,222269,-0.004395,0.030762,0.994629,-3.658537,-1.646341,-0.609756,19.481251,12.031250,38.581249,0.0,1.000000,0.000000,0.000000,0.000000
1782115722.863671,222281,-0.022461,0.019531,0.981445,-4.512195,-2.621951,-0.731707,19.387501,11.950000,38.631252,0.0,1.000000,0.000000,0.000000,0.000000
1782115722.871671,222289,-0.038086,0.012695,0.973633,-4.878049,-3.780488,-0.731707,19.387501,11.950000,38.631252,0.0,1.000000,0.000000,0.000000,0.000000
1782115722.881671,222299,-0.039551,-0.001465,0.977539,-4.390244,-4.817073,-0.975610,19.387501,11.950000,38.631252,0.0,1.000000,0.000000,0.000000,0.000000
1782115722.891671,222309,-0.023926,-0.013184,0.988770,-2.743902,-5.243903,-1.158537,19.337500,11.956250,38.625000,0.0,1.000000,0.000000,0.000000,0.000000
1782115722.901671,222319,-0.001465,-0.020996,0.999512,0.304878,-5.304878,-1.463415,19.337500,11.956250,38.625000,0.0,1.000000,0.000000,0.000000,0.000000
1782115722.911671,222329,0.020020,-0.022949,1.012695,3.536585,-4.756098,-1.707317,19.368750,11.900001,38.681252,0.0,1.000000,0.000000,0.000000,0.000000
1782115722.921671,222339,0.030762,-0.020508,1.025391,6.036585,-4.085366,-2.134146,19.368750,11.900001,38.681252,0.0,1.000000,0.000000,0.000000,0.000000
1782115722.932671,222350,0.038086,-0.016113,1.034668,7.500000,-3.353659,-2.865854,19.443750,11.918750,38.612499,0.0,1.000000,0.000000,0.000000,0.000000
1782115722.943671,222361,0.037598,-0.007324,1.041992,8.353659,-2.682927,-3.658537,19.443750,11.918750,38.612499,0.0,1.000000,0.000000,0.000000,0.000000
1782115722.951671,222369,0.034668,0.001953,1.050781,9.390244,-1.951220,-4.390244,19.506250,11.931251,38.581249,0.0,1.000000,0.000000,0.000000,0.000000
1782115722.961671,222379,0.023438,0.007812,1.055664,10.487805,-1.707317,-4.878049,19.506250,11.931251,38.581249,0.0,1.000000,0.000000,0.000000,0.000000
1782115722.971671,222389,0.008301,0.011230,1.043457,10.548780,-1.524390,-5.000000,19.581251,11.943750,38.462502,0.0,1.000000,0.000000,0.000000,0.000000
1782115722.983671,222401,-0.012207,0.023438,1.020020,9.756098,-1.951220,-4.390244,19.581251,11.943750,38.462502,0.0,1.000000,0.000000,0.000000,0.000000
1782115722.991671,222409,-0.024414,0.030273,1.002441,8.536586,-3.414634,-3.658537,19.700001,11.893750,38.450001,0.0,1.000000,0.000000,0.000000,0.000000
1782115723.001671,222419,-0.024414,0.025879,0.987793,6.890244,-4.573171,-2.926829,19.700001,11.893750,38.450001,0.0,1.000000,0.000000,0.000000,0.000000
1782115723.011671,222429,-0.020996,0.021484,0.968262,5.182927,-4.817073,-2.073171,19.781250,11.962501,38.318752,0.0,1.000000,0.000000,0.000000,0.000000
1782115723.021671,222439,-0.023438,0.015625,0.948730,4.207317,-4.878049,-0.487805,19.781250,11.962501,38.318752,0.0,1.000000,0.000000,0.000000,0.000000
1782115723.031671,222449,-0.028320,0.007324,0.936035,4.024390,-5.426829,1.280488,19.825001,11.862500,38.350002,0.0,1.000000,0.000000,0.000000,0.000000
1782115723.041671,222459,-0.029785,0.008789,0.919922,4.390244,-6.463415,2.439024,19.825001,11.862500,38.350002,0.0,1.000000,0.000000,0.000000,0.000000
1782115723.051671,222469,-0.025391,0.020996,0.908203,4.878049,-7.682927,2.682927,19.956251,11.943750,38.281250,0.0,1.000000,0.000000,0.000000,0.000000
1782115723.065671,222483,-0.021484,0.042969,0.902832,5.304878,-8.841464,2.378049,19.956251,11.943750,38.281250,0.0,1.000000,0.000000,0.000000,0.000000
1782115723.073671,222491,-0.017578,0.064941,0.902344,5.426829,-10.060976,2.012195,19.918751,11.625000,38.293751,0.0,1.000000,0.000000,0.000000,0.000000
1782115723.082671,222500,-0.017090,0.083008,0.898926,4.695122,-11.219512,1.524390,19.918751,11.625000,38.293751,0.0,1.000000,0.000000,0.000000,0.000000
1782115723.091671,222509,-0.017090,0.094238,0.910645,3.170732,-12.439025,1.219512,20.262501,11.968750,38.043751,0.0,1.000000,0.000000,0.000000,0.000000
1782115723.103671,222521,-0.020508,0.086426,0.924316,1.524390,-13.963415,0.609756,20.262501,11.968750,38.043751,0.0,1.000000,0.000000,0.000000,0.000000
1782115723.112671,222530,-0.034668,0.069824,0.923828,0.731707,-16.097561,-0.243902,19.968750,11.325000,38.412502,0.0,1.000000,0.000000,0.000000,0.000000
1782115723.121671,222539,-0.054688,0.055664,0.911621,0.487805,-19.268293,-0.914634,19.968750,11.325000,38.412502,0.0,1.000000,0.000000,0.000000,0.000000
1782115723.132671,222550,-0.066895,0.046387,0.903809,0.670732,-22.987806,-1.768293,20.037500,11.225000,38.350002,0.0,1.000000,0.000000,0.000000,0.000000
1782115723.141671,222559,-0.067383,0.036621,0.890625,-0.060976,-27.865854,-2.500000,20.000000,10.968750,38.512501,0.0,1.000000,0.000000,0.000000,0.000000
1782115723.151671,222569,-0.056152,0.030762,0.875488,-1.158537,-32.012196,-3.231707,20.000000,10.968750,38.512501,0.0,1.000000,0.000000,0.000000,0.000000
1782115723.161671,222579,-0.036621,0.028320,0.867676,-2.134146,-34.512196,-3.902439,20.025000,10.825000,38.518749,0.0,1.000000,0.000000,0.000000,0.000000
1782115723.173671,222591,-0.019531,0.024902,0.859375,-3.353659,-36.890244,-3.780488,20.025000,10.825000,38.518749,0.0,1.000000,0.000000,0.000000,0.000000
1782115723.185671,222603,0.001953,0.026367,0.874512,-3.841464,-38.597561,-3.414634,19.800001,10.206250,38.812500,0.0,1.000000,0.000000,0.000000,0.000000
1782115723.191671,222609,0.069824,0.007812,0.929688,-2.073171,-40.548782,-2.560976,19.800001,10.206250,38.812500,0.0,1.000000,0.000000,0.000000,0.000000
1782115723.201671,222619,0.100586,0.005859,0.952148,-0.121951,-40.060978,-2.012195,19.768751,9.787500,38.950001,0.0,1.000000,0.000000,0.000000,0.000000
1782115723.211671,222629,0.118652,0.004395,0.974121,2.256098,-41.036587,-1.341463,19.768751,9.787500,38.950001,0.0,1.000000,0.000000,0.000000,0.000000
1782115723.224671,222642,0.134277,0.004395,0.979492,4.329268,-42.256100,-0.487805,19.687500,9.256250,39.137501,0.0,1.000000,0.000000,0.000000,0.000000
1782115723.233671,222651,0.135254,0.017090,0.986328,5.670732,-42.012196,-0.060976,19.687500,9.256250,39.137501,0.0,1.000000,0.000000,0.000000,0.000000
1782115723.242671,222660,0.117676,0.037109,0.984863,5.000000,-41.280487,0.000000,19.843750,9.106250,39.037502,0.0,1.000000,0.000000,0.000000,0.000000
1782115723.251671,222669,0.095215,0.063477,0.996094,2.560976,-40.731709,0.000000,19.843750,9.106250,39.037502,0.0,1.000000,0.000000,0.000000,0.000000
1782115723.261671,222679,0.083496,0.077148,1.023926,-0.365854,-41.036587,0.243902,19.693750,8.250000,39.343750,0.0,1.000000,0.000000,0.000000,0.000000
1782115723.272671,222690,0.090820,0.077637,1.043945,-3.231707,-40.365856,0.243902,19.693750,8.250000,39.343750,0.0,1.000000,0.000000,0.000000,0.000000
1782115723.281671,222699,0.100098,0.059082,1.052246,-6.646342,-39.268295,0.121951,19.731251,7.931250,39.412502,0.0,1.000000,0.000000,0.000000,0.000000
1782115723.291671,222709,0.121094,0.037109,1.037109,-9.939025,-38.902439,0.365854,19.731251,7.931250,39.412502,0.0,1.000000,0.000000,0.000000,0.000000
1782115723.302671,222720,0.150391,0.029785,1.034668,-12.621951,-39.024391,0.914634,19.500000,7.362500,39.718750,0.0,1.000000,0.000000,0.000000,0.000000
1782115723.311671,222729,0.189453,0.028320,1.041504,-13.414635,-38.231709,1.097561,19.500000,7.362500,39.718750,0.0,1.000000,0.000000,0.000000,0.000000
1782115723.321671,222739,0.217773,0.024414,1.034180,-13.658537,-36.219513,1.402439,19.325001,6.937500,39.924999,0.0,1.000000,0.000000,0.000000,0.000000
1782115723.332671,222750,0.247559,-0.003906,1.091309,-15.914635,-32.926830,2.743902,19.325001,6.937500,39.924999,0.0,1.000000,0.000000,0.000000,0.000000
1782115723.342671,222760,0.321289,-0.030273,1.210449,-18.658537,-26.951220,5.365854,19.050001,6.487500,40.150002,0.0,1.000000,0.000000,0.000000,0.000000
1782115723.352671,222770,0.420898,-0.039551,1.310547,-14.634147,-14.512196,6.524390,19.050001,6.487500,40.150002,0.0,1.000000,0.000000,0.000000,0.000000
1782115723.361671,222779,0.475586,-0.021973,1.340332,-3.353659,-0.792683,5.060976,19.031250,6.475000,40.193752,0.0,1.000000,0.000000,0.000000,0.000000
1782115723.372671,222790,0.464355,0.027832,1.304688,8.658537,6.097561,2.012195,19.031250,6.475000,40.193752,0.0,1.000000,0.000000,0.000000,0.000000
1782115723.384671,222802,0.382812,0.098145,1.213867,12.378049,7.500000,-0.243902,19.006250,6.393750,40.250000,0.0,1.000000,0.000000,0.000000,0.000000
1782115723.392671,222810,0.256836,0.163574,1.123535,6.585366,8.536586,-2.195122,19.006250,6.393750,40.250000,0.0,1.000000,0.000000,0.000000,0.000000
1782115723.401671,222819,0.139648,0.191406,1.044434,-6.341464,8.353659,-4.268293,19.068750,6.531250,40.174999,0.0,1.000000,0.000000,0.000000,0.000000
1782115723.411671,222829,0.067383,0.175781,0.987305,-22.134148,7.073171,-5.182927,19.068750,6.531250,40.174999,0.0,1.000000,0.000000,0.000000,0.000000
1782115723.421671,222839,0.034668,0.123535,0.934082,-35.121952,4.634146,-4.878049,18.781250,6.637500,40.387501,0.0,1.000000,0.000000,0.000000,0.000000
1782115723.431671,222849,0.052734,0.047852,0.897949,-41.951221,-0.060976,-3.353659,18.781250,6.637500,40.387501,0.0,1.000000,0.000000,0.000000,0.000000
1782115723.441671,222859,0.108398,-0.019043,0.862305,-41.585365,-4.024390,-1.402439,18.356251,6.775000,40.562500,0.0,1.000000,0.000000,0.000000,0.000000
1782115723.452671,222870,0.162598,-0.065918,0.831543,-36.158539,-5.487805,-0.121951,18.356251,6.775000,40.562500,0.0,1.000000,0.000000,0.000000,0.000000
1782115723.461671,222879,0.195801,-0.092285,0.812988,-27.804878,-6.463415,0.609756,17.937500,6.562500,40.981251,0.0,1.000000,0.000000,0.000000,0.000000
1782115723.471671,222889,0.211426,-0.112793,0.819824,-18.597561,-7.378049,0.975610,17.937500,6.562500,40.981251,0.0,1.000000,0.000000,0.000000,0.000000
1782115723.482671,222900,0.214355,-0.125000,0.841797,-8.963415,-6.341464,0.487805,17.781250,6.568750,41.049999,0.0,1.000000,0.000000,0.000000,0.000000
1782115723.492671,222910,0.210449,-0.119141,0.875488,-1.829268,-4.573171,-0.365854,17.781250,6.568750,41.049999,0.0,1.000000,0.000000,0.000000,0.000000
1782115723.501671,222919,0.202637,-0.099121,0.927734,2.621951,-2.195122,-1.829268,17.825001,6.662500,40.950001,0.0,1.000000,0.000000,0.000000,0.000000
1782115723.512671,222930,0.205078,-0.071777,0.992188,4.573171,0.304878,-3.963415,17.825001,6.662500,40.950001,0.0,1.000000,0.000000,0.000000,0.000000
1782115723.522671,222940,0.217773,-0.041504,1.056641,4.939024,3.231707,-6.097561,17.818750,6.562500,41.075001,0.0,1.000000,0.000000,0.000000,0.000000
1782115723.531671,222949,0.220703,-0.018066,1.107910,4.756098,5.426829,-7.682927,17.818750,6.562500,41.075001,0.0,1.000000,0.000000,0.000000,0.000000
1782115723.541671,222959,0.214355,0.003906,1.153320,5.000000,5.243903,-9.146341,17.800001,6.612500,41.100002,0.0,1.000000,0.000000,0.000000,0.000000
1782115723.551671,222969,0.195312,0.018066,1.166504,4.146341,3.292683,-9.939025,17.800001,6.612500,41.100002,0.0,1.000000,0.000000,0.000000,0.000000
1782115723.561671,222979,0.170898,0.030273,1.141113,0.487805,0.731707,-9.024390,17.987501,7.012500,40.893749,0.0,1.000000,0.000000,0.000000,0.000000
1782115723.571671,222989,0.154785,0.041016,1.105469,-5.121951,-1.219512,-7.073171,17.987501,7.012500,40.893749,0.0,1.000000,0.000000,0.000000,0.000000
1782115723.581671,222999,0.148438,0.041992,1.072754,-11.097561,-3.109756,-4.573171,17.768751,6.825000,41.131252,0.0,1.000000,0.000000,0.000000,0.000000
1782115723.591671,223009,0.156738,0.031738,1.044922,-16.463415,-3.902439,-2.621951,17.768751,6.825000,41.131252,0.0,1.000000,0.000000,0.000000,0.000000
1782115723.601671,223019,0.178711,0.012695,1.018066,-20.609756,-3.780488,-1.341463,17.625000,6.931250,41.093750,0.0,1.000000,0.000000,0.000000,0.000000
1782115723.611671,223029,0.203125,-0.009277,0.985352,-22.621952,-2.012195,-0.243902,17.625000,6.931250,41.093750,0.0,1.000000,0.000000,0.000000,0.000000
1782115723.621671,223039,0.216309,-0.029297,0.951172,-22.621952,1.036585,0.487805,17.362501,6.931250,41.299999,0.0,1.000000,0.000000,0.000000,0.000000
1782115723.631671,223049,0.216797,-0.041992,0.926758,-20.914635,4.268293,1.036585,17.362501,6.931250,41.299999,0.0,1.000000,0.000000,0.000000,0.000000
1782115723.641671,223059,0.212402,-0.049805,0.922363,-17.560976,6.280488,1.280488,17.112501,6.831250,41.437500,0.0,1.000000,0.000000,0.000000,0.000000
1782115723.651671,223069,0.200195,-0.061035,0.924316,-13.536586,7.073171,1.463415,17.112501,6.831250,41.437500,0.0,1.000000,0.000000,0.000000,0.000000
1782115723.661671,223079,0.181152,-0.061523,0.934570,-9.939025,7.439024,1.646341,16.856251,6.900000,41.593750,0.0,1.000000,0.000000,0.000000,0.000000
1782115723.671671,223089,0.162109,-0.058594,0.944336,-6.524390,7.500000,1.463415,16.856251,6.900000,41.593750,0.0,1.000000,0.000000,0.000000,0.000000
1782115723.681671,223099,0.143066,-0.050293,0.957031,-4.085366,7.256098,0.975610,16.793751,6.962500,41.575001,0.0,1.000000,0.000000,0.000000,0.000000
1782115723.691671,223109,0.135254,-0.042480,0.969727,-3.597561,6.951220,0.304878,16.793751,6.962500,41.575001,0.0,1.000000,0.000000,0.000000,0.000000
1782115723.701671,223119,0.139648,-0.034668,0.988770,-4.695122,6.646342,-0.182927,16.825001,7.262500,41.500000,0.0,1.000000,0.000000,0.000000,0.000000
1782115723.711671,223129,0.160156,-0.034180,1.009277,-6.402439,5.670732,-0.426829,16.825001,7.262500,41.500000,0.0,1.000000,0.000000,0.000000,0.000000
1782115723.721671,223139,0.187012,-0.041016,1.014160,-8.841464,4.207317,0.121951,16.637501,7.062500,41.681252,0.0,1.000000,0.000000,0.000000,0.000000
1782115723.731671,223149,0.200195,-0.045410,0.998047,-10.975610,2.317073,1.097561,16.637501,7.062500,41.681252,0.0,1.000000,0.000000,0.000000,0.000000
1782115723.741671,223159,0.209473,-0.047852,0.975098,-13.048780,0.243902,2.560976,16.456251,7.006250,41.806252,0.0,1.000000,0.000000,0.000000,0.000000
1782115723.751671,223169,0.203613,-0.056641,0.953613,-13.597561,-0.975610,4.451220,16.456251,7.006250,41.806252,0.0,1.000000,0.000000,0.000000,0.000000
1782115723.763671,223181,0.189453,-0.067871,0.936035,-12.926829,-1.280488,5.914634,16.450001,7.193750,41.743752,0.0,1.000000,0.000000,0.000000,0.000000
1782115723.771671,223189,0.172363,-0.073242,0.931152,-11.097561,-0.670732,6.829268,16.450001,7.193750,41.743752,0.0,1.000000,0.000000,0.000000,0.000000
1782115723.782671,223200,0.157715,-0.071289,0.934082,-9.024390,0.365854,7.317073,16.300001,7.018750,41.881252,0.0,1.000000,0.000000,0.000000,0.000000
1782115723.791671,223209,0.145020,-0.070312,0.941406,-7.012195,1.890244,7.439024,16.300001,7.018750,41.881252,0.0,1.000000,0.000000,0.000000,0.000000
1782115723.802671,223220,0.130859,-0.052246,0.959961,-4.878049,3.597561,6.158537,16.193750,7.018750,41.924999,0.0,1.000000,0.000000,0.000000,0.000000
1782115723.811671,223229,0.126953,-0.044922,0.984863,-3.414634,4.512195,4.573171,16.193750,7.018750,41.924999,0.0,1.000000,0.000000,0.000000,0.000000
1782115723.822671,223240,0.122070,-0.046387,1.008789,-2.378049,4.939024,2.743902,16.162500,6.962500,41.943752,0.0,1.000000,0.000000,0.000000,0.000000
1782115723.831671,223249,0.122070,-0.050293,1.021973,-2.743902,4.085366,1.158537,16.162500,6.962500,41.943752,0.0,1.000000,0.000000,0.000000,0.000000
1782115723.842671,223260,0.123535,-0.058105,1.025391,-5.121951,2.500000,0.609756,16.156250,7.037500,41.943752,0.0,1.000000,0.000000,0.000000,0.000000
1782115723.851671,223269,0.129883,-0.065918,1.018066,-7.500000,1.097561,0.548781,16.156250,7.037500,41.943752,0.0,1.000000,0.000000,0.000000,0.000000
1782115723.861671,223279,0.138184,-0.074219,1.004395,-8.841464,-0.243902,0.853659,16.118750,7.193750,41.924999,0.0,1.000000,0.000000,0.000000,0.000000
1782115723.871671,223289,0.145508,-0.079102,0.989746,-9.207317,-1.341463,1.341463,16.118750,7.193750,41.924999,0.0,1.000000,0.000000,0.000000,0.000000
1782115723.881671,223299,0.151855,-0.083984,0.979004,-8.841464,-2.073171,1.890244,15.931251,7.031250,42.012501,0.0,1.000000,0.000000,0.000000,0.000000
1782115723.891671,223309,0.155762,-0.080566,0.975098,-8.109756,-1.768293,2.317073,15.931251,7.031250,42.012501,0.0,1.000000,0.000000,0.000000,0.000000
1782115723.901671,223319,0.163086,-0.082031,0.976562,-6.829268,-0.975610,2.317073,15.837501,6.993750,42.075001,0.0,1.000000,0.000000,0.000000,0.000000
1782115723.911671,223329,0.161621,-0.086914,0.975586,-5.182927,-0.243902,1.951220,15.837501,6.993750,42.075001,0.0,1.000000,0.000000,0.000000,0.000000
1782115723.922671,223340,0.149414,-0.088867,0.972656,-4.085366,0.487805,1.463415,15.943750,7.225000,42.037502,0.0,1.000000,0.000000,0.000000,0.000000
1782115723.931671,223349,0.137695,-0.085938,0.967285,-3.536585,0.670732,0.914634,15.943750,7.225000,42.037502,0.0,1.000000,0.000000,0.000000,0.000000
1782115723.942671,223360,0.134277,-0.082520,0.965332,-3.170732,0.731707,0.060976,15.718750,6.950000,42.156250,0.0,1.000000,0.000000,0.000000,0.000000
1782115723.953671,223371,0.141113,-0.079102,0.969727,-2.743902,1.097561,-1.036585,15.718750,6.950000,42.156250,0.0,1.000000,0.000000,0.000000,0.000000
1782115723.961671,223379,0.153809,-0.080566,0.980469,-1.646341,1.219512,-2.500000,15.781250,7.131250,42.100002,0.0,1.000000,0.000000,0.000000,0.000000
1782115723.971671,223389,0.160156,-0.083984,0.990234,-0.731707,1.158537,-3.841464,15.781250,7.131250,42.100002,0.0,1.000000,0.000000,0.000000,0.000000
1782115723.981671,223399,0.143066,-0.081543,0.996094,-1.036585,1.097561,-4.390244,15.693750,6.993750,42.174999,0.0,1.000000,0.000000,0.000000,0.000000
1782115723.991671,223409,0.132324,-0.076172,1.000977,-2.134146,0.243902,-4.207317,15.693750,6.993750,42.174999,0.0,1.000000,0.000000,0.000000,0.000000
1782115724.001671,223419,0.135742,-0.070801,1.006836,-2.378049,-0.670732,-3.841464,15.687500,7.075000,42.156250,0.0,1.000000,0.000000,0.000000,0.000000
1782115724.011671,223429,0.155273,-0.068359,1.016602,-1.158537,-1.402439,-3.353659,15.687500,7.075000,42.156250,0.0,1.000000,0.000000,0.000000,0.000000
1782115724.021671,223439,0.170898,-0.065918,1.015137,0.243902,-1.707317,-2.804878,15.625000,7.050000,42.212502,0.0,1.000000,0.000000,0.000000,0.000000
1782115724.032671,223450,0.179688,-0.061523,1.001953,0.792683,-2.317073,-2.195122,15.625000,7.050000,42.212502,0.0,1.000000,0.000000,0.000000,0.000000
1782115724.041671,223459,0.181152,-0.054199,0.987305,-0.304878,-2.865854,-1.585366,15.662500,7.075000,42.200001,0.0,1.000000,0.000000,0.000000,0.000000
1782115724.051671,223469,0.183105,-0.053711,0.975098,-2.500000,-2.682927,-0.975610,15.662500,7.075000,42.200001,0.0,1.000000,0.000000,0.000000,0.000000
1782115724.061671,223479,0.186523,-0.061035,0.969238,-4.756098,-2.195122,-0.304878,15.581250,7.062500,42.243752,0.0,1.000000,0.000000,0.000000,0.000000
1782115724.071671,223489,0.184570,-0.071777,0.968750,-6.219512,-1.341463,0.243902,15.581250,7.062500,42.243752,0.0,1.000000,0.000000,0.000000,0.000000
1782115724.081671,223499,0.168945,-0.085938,0.975098,-6.951220,0.548781,1.158537,15.593750,7.175000,42.200001,0.0,1.000000,0.000000,0.000000,0.000000
1782115724.091671,223509,0.168945,-0.085938,0.975098,-6.951220,0.548781,1.158537,15.593750,7.175000,42.200001,0.0,1.000000,0.000000,0.000000,0.000000
1782115724.101671,223519,0.173828,-0.090332,0.982910,-4.634146,0.853659,0.914634,15.362500,6.937500,42.437500,0.0,1.000000,0.000000,0.000000,0.000000
1782115724.111671,223529,0.181152,-0.094727,0.984375,-2.804878,1.097561,0.731707,15.362500,6.937500,42.437500,0.0,1.000000,0.000000,0.000000,0.000000
1782115724.121671,223539,0.175293,-0.100586,0.983887,-1.036585,0.731707,0.670732,15.418750,7.062500,42.350002,0.0,1.000000,0.000000,0.000000,0.000000
1782115724.132671,223550,0.172363,-0.099609,0.983398,-0.182927,0.182927,0.670732,15.418750,7.062500,42.350002,0.0,1.000000,0.000000,0.000000,0.000000
1782115724.141671,223559,0.172363,-0.099609,0.985840,0.000000,-0.365854,0.548781,15.375000,7.037500,42.375000,0.0,1.000000,0.000000,0.000000,0.000000
1782115724.151671,223569,0.178223,-0.098145,0.989746,0.000000,-0.304878,0.487805,15.375000,7.037500,42.375000,0.0,1.000000,0.000000,0.000000,0.000000
1782115724.161671,223579,0.187012,-0.097656,0.999023,0.426829,0.060976,0.121951,15.406250,7.068750,42.368752,0.0,1.000000,0.000000,0.000000,0.000000
1782115724.171671,223589,0.186523,-0.101074,1.003906,1.036585,0.548781,-0.487805,15.406250,7.068750,42.368752,0.0,1.000000,0.000000,0.000000,0.000000
1782115724.182671,223600,0.162598,-0.100586,0.995117,1.158537,0.975610,-1.036585,15.437500,7.000000,42.393749,0.0,1.000000,0.000000,0.000000,0.000000
1782115724.193671,223611,0.149414,-0.099121,0.995117,1.463415,0.304878,-1.951220,15.437500,7.000000,42.393749,0.0,1.000000,0.000000,0.000000,0.000000
1782115724.202671,223620,0.147949,-0.105957,0.996582,2.378049,-0.426829,-2.987805,15.500000,7.087500,42.287502,0.0,1.000000,0.000000,0.000000,0.000000
1782115724.211671,223629,0.142578,-0.113281,0.993652,3.597561,-0.975610,-3.963415,15.500000,7.087500,42.287502,0.0,1.000000,0.000000,0.000000,0.000000
1782115724.221671,223639,0.140137,-0.115723,0.984863,4.695122,-1.829268,-4.695122,15.456250,7.068750,42.356251,0.0,1.000000,0.000000,0.000000,0.000000
1782115724.231671,223649,0.143066,-0.106445,0.978027,5.853659,-2.378049,-5.182927,15.456250,7.068750,42.356251,0.0,1.000000,0.000000,0.000000,0.000000
