Unix_Time_s,IMU1_RefTime,ax_g,ay_g,az_g,gx_dps,gy_dps,gz_dps,mx_uT,my_uT,mz_uT,temp_C,qw,qx,qy,qz
1782115716.292671,219641,-0.193848,0.313965,0.952148,1.036585,3.414634,-10.975610,-2.056250,-5.506250,34.062500,0.0,1.000000,0.000000,0.000000,0.000000
1782115716.301671,219650,-0.187500,0.298340,0.944336,1.524390,3.353659,-11.585366,-2.056250,-5.506250,34.062500,0.0,1.000000,0.000000,0.000000,0.000000
1782115716.311671,219660,-0.181641,0.288574,0.936523,3.536585,3.841464,-12.012196,-1.825000,-5.337500,34.106251,0.0,1.000000,0.000000,0.000000,0.000000
1782115716.321671,219670,-0.182129,0.282715,0.933105,6.829268,4.207317,-11.829268,-1.825000,-5.337500,34.106251,0.0,1.000000,0.000000,0.000000,0.000000
1782115716.331671,219680,-0.194336,0.282715,0.933105,11.585366,4.268293,-10.853659,-1.862500,-5.487500,34.212502,0.0,1.000000,0.000000,0.000000,0.000000
1782115716.341671,219690,-0.202148,0.284180,0.933105,17.378050,3.597561,-9.817074,-1.862500,-5.487500,34.212502,0.0,1.000000,0.000000,0.000000,0.000000
1782115716.351671,219700,-0.207031,0.281738,0.935547,22.926830,2.743902,-9.085366,-1.625000,-5.487500,34.293751,0.0,1.000000,0.000000,0.000000,0.000000
1782115716.361671,219710,-0.207031,0.288086,0.924316,27.256098,1.646341,-8.963415,-1.237500,-5.450000,34.393749,0.0,1.000000,0.000000,0.000000,0.000000
1782115716.371671,219720,-0.205566,0.301758,0.908691,31.158537,1.646341,-9.024390,-1.237500,-5.450000,34.393749,0.0,1.000000,0.000000,0.000000,0.000000
1782115716.381671,219730,-0.210938,0.322754,0.900391,35.426830,1.219512,-8.658537,-0.693750,-5.293750,34.562500,0.0,1.000000,0.000000,0.000000,0.000000
1782115716.391671,219740,-0.217773,0.347656,0.894043,39.451221,0.365854,-8.109756,-0.693750,-5.293750,34.562500,0.0,1.000000,0.000000,0.000000,0.000000
1782115716.401671,219750,-0.220215,0.373047,0.888672,41.524391,0.304878,-7.317073,-0.156250,-5.325000,34.687500,0.0,1.000000,0.000000,0.000000,0.000000
1782115716.411671,219760,-0.222168,0.391602,0.892578,41.097561,-1.158537,-6.707317,-0.156250,-5.325000,34.687500,0.0,1.000000,0.000000,0.000000,0.000000
1782115716.421671,219770,-0.209961,0.404785,0.888672,38.719513,-2.134146,-6.585366,0.543750,-5.200000,34.856251,0.0,1.000000,0.000000,0.000000,0.000000
1782115716.431671,219780,-0.195312,0.416016,0.890625,34.878048,-2.134146,-6.585366,0.543750,-5.200000,34.856251,0.0,1.000000,0.000000,0.000000,0.000000
1782115716.441671,219790,-0.185059,0.430176,0.894531,30.731709,-1.646341,-6.341464,0.968750,-5.218750,34.931252,0.0,1.000000,0.000000,0.000000,0.000000
1782115716.452671,219801,-0.183594,0.445801,0.904785,27.682928,-0.731707,-5.365854,0.968750,-5.218750,34.931252,0.0,1.000000,0.000000,0.000000,0.000000
1782115716.461671,219810,-0.187988,0.452148,0.910156,26.524391,-0.548781,-4.573171,1.400000,-5.175000,35.006252,0.0,1.000000,0.000000,0.000000,0.000000
1782115716.471671,219820,-0.184082,0.458008,0.905762,25.426830,-0.487805,-4.085366,1.400000,-5.175000,35.006252,0.0,1.000000,0.000000,0.000000,0.000000
1782115716.481671,219830,-0.178711,0.461426,0.893066,22.926830,-0.243902,-4.085366,1.787500,-5.150000,35.025002,0.0,1.000000,0.000000,0.000000,0.000000
1782115716.492671,219841,-0.172852,0.469727,0.882812,19.451220,0.426829,-4.085366,1.787500,-5.150000,35.025002,0.0,1.000000,0.000000,0.000000,0.000000
1782115716.501671,219850,-0.170410,0.476562,0.881348,15.304878,0.914634,-3.536585,2.137500,-5.093750,35.037502,0.0,1.000000,0.000000,0.000000,0.000000
1782115716.512671,219861,-0.169434,0.479980,0.882324,11.158537,1.585366,-2.682927,2.137500,-5.093750,35.037502,0.0,1.000000,0.000000,0.000000,0.000000
1782115716.522671,219871,-0.171875,0.480469,0.883301,7.743903,1.341463,-1.524390,2.162500,-5.156250,35.131252,0.0,1.000000,0.000000,0.000000,0.000000
1782115716.532671,219881,-0.172363,0.474121,0.888184,5.000000,0.975610,-0.121951,2.162500,-5.156250,35.131252,0.0,1.000000,0.000000,0.000000,0.000000
1782115716.542671,219891,-0.168457,0.459961,0.888184,2.621951,1.280488,0.975610,2.337500,-5.068750,35.118752,0.0,1.000000,0.000000,0.000000,0.000000
1782115716.551671,219900,-0.164062,0.448730,0.885254,0.548781,1.097561,1.890244,2.337500,-5.068750,35.118752,0.0,1.000000,0.000000,0.000000,0.000000
1782115716.561671,219910,-0.162109,0.439941,0.880859,-1.036585,1.768293,2.743902,2.256250,-5.212500,35.075001,0.0,1.000000,0.000000,0.000000,0.000000
1782115716.574671,219923,-0.167969,0.435059,0.881348,-2.073171,1.951220,3.658537,2.256250,-5.212500,35.075001,0.0,1.000000,0.000000,0.000000,0.000000
1782115716.581671,219930,-0.172363,0.432129,0.883301,-2.378049,2.134146,4.634146,2.312500,-5.006250,35.056252,0.0,1.000000,0.000000,0.000000,0.000000
1782115716.591671,219940,-0.179688,0.427246,0.888184,-2.621951,2.317073,5.731708,2.312500,-5.006250,35.056252,0.0,1.000000,0.000000,0.000000,0.000000
1782115716.601671,219950,-0.184082,0.422852,0.887695,-3.109756,2.012195,6.219512,2.187500,-5.125000,35.012501,0.0,1.000000,0.000000,0.000000,0.000000
1782115716.611671,219960,-0.185547,0.419922,0.889160,-3.109756,1.402439,6.463415,2.187500,-5.125000,35.012501,0.0,1.000000,0.000000,0.000000,0.000000
1782115716.622671,219971,-0.184082,0.415527,0.888672,-2.804878,1.402439,6.463415,2.181250,-5.037500,35.012501,0.0,1.000000,0.000000,0.000000,0.000000
1782115716.631671,219980,-0.181641,0.413574,0.884277,-2.560976,1.280488,6.402439,2.181250,-5.037500,35.012501,0.0,1.000000,0.000000,0.000000,0.000000
1782115716.641671,219990,-0.179199,0.415527,0.888184,-1.219512,1.402439,6.646342,2.018750,-5.081250,35.037502,0.0,1.000000,0.000000,0.000000,0.000000
1782115716.653671,220002,-0.177734,0.408691,0.900391,1.280488,1.341463,6.951220,2.012500,-5.018750,34.956249,0.0,1.000000,0.000000,0.000000,0.000000
1782115716.661671,220010,-0.171387,0.401367,0.905273,2.865854,1.280488,6.951220,2.012500,-5.018750,34.956249,0.0,1.000000,0.000000,0.000000,0.000000
1782115716.671671,220020,-0.165039,0.398926,0.905762,3.170732,1.341463,6.585366,2.012500,-5.018750,34.956249,0.0,1.000000,0.000000,0.000000,0.000000
1782115716.681671,220030,-0.168457,0.396973,0.902832,3.536585,1.829268,6.158537,2.062500,-4.993750,34.987499,0.0,1.000000,0.000000,0.000000,0.000000
1782115716.691671,220040,-0.173828,0.395508,0.902832,4.573171,1.951220,5.914634,2.112500,-4.943750,34.962502,0.0,1.000000,0.000000,0.000000,0.000000
1782115716.701671,220050,-0.183594,0.389648,0.907715,6.219512,1.402439,5.609756,2.112500,-4.943750,34.962502,0.0,1.000000,0.000000,0.000000,0.000000
1782115716.711671,220060,-0.190430,0.381836,0.903809,7.865854,0.609756,4.756098,2.200000,-4.900000,35.000000,0.0,1.000000,0.000000,0.000000,0.000000
1782115716.721671,220070,-0.194336,0.378906,0.903320,8.963415,-0.121951,3.475610,2.200000,-4.900000,35.000000,0.0,1.000000,0.000000,0.000000,0.000000
1782115716.732671,220081,-0.189941,0.377930,0.897461,8.414635,-0.731707,1.768293,2.306250,-4.843750,34.931252,0.0,1.000000,0.000000,0.000000,0.000000
1782115716.742671,220091,-0.187988,0.382812,0.890625,7.682927,-1.158537,0.304878,2.306250,-4.843750,34.931252,0.0,1.000000,0.000000,0.000000,0.000000
1782115716.751671,220100,-0.190918,0.389160,0.891602,7.804878,-1.646341,-1.158537,2.531250,-4.737500,34.943752,0.0,1.000000,0.000000,0.000000,0.000000
1782115716.761671,220110,-0.209473,0.384277,0.891602,9.146341,-2.865854,-2.926829,2.531250,-4.737500,34.943752,0.0,1.000000,0.000000,0.000000,0.000000
1782115716.771671,220120,-0.186035,0.398438,0.919434,9.207317,-3.353659,-4.024390,2.543750,-4.837500,34.943752,0.0,1.000000,0.000000,0.000000,0.000000
1782115716.781671,220130,-0.189453,0.398926,0.914062,8.292683,-3.658537,-5.731708,2.543750,-4.837500,34.943752,0.0,1.000000,0.000000,0.000000,0.000000
1782115716.791671,220140,-0.189453,0.399902,0.903320,8.048780,-4.146341,-7.073171,2.775000,-4.750000,34.912502,0.0,1.000000,0.000000,0.000000,0.000000
1782115716.801671,220150,-0.190430,0.398926,0.897949,7.500000,-4.756098,-7.865854,2.775000,-4.750000,34.912502,0.0,1.000000,0.000000,0.000000,0.000000
1782115716.811671,220160,-0.182617,0.399414,0.896973,6.158537,-4.817073,-8.719512,2.850000,-4.875000,34.868752,0.0,1.000000,0.000000,0.000000,0.000000
1782115716.821671,220170,-0.174316,0.406250,0.893555,4.939024,-3.841464,-8.719512,2.850000,-4.875000,34.868752,0.0,1.000000,0.000000,0.000000,0.000000
1782115716.832671,220181,-0.166504,0.410156,0.898926,5.000000,-4.268293,-8.414635,2.900000,-4.931250,34.875000,0.0,1.000000,0.000000,0.000000,0.000000
1782115716.841671,220190,-0.152344,0.405762,0.907715,5.182927,-4.695122,-7.987805,2.900000,-4.931250,34.875000,0.0,1.000000,0.000000,0.000000,0.000000
1782115716.851671,220200,-0.136230,0.400391,0.906738,4.024390,-4.268293,-7.256098,2.950000,-5.056250,34.781250,0.0,1.000000,0.000000,0.000000,0.000000
1782115716.861671,220210,-0.126465,0.396484,0.901855,2.134146,-3.414634,-5.914634,2.950000,-5.056250,34.781250,0.0,1.000000,0.000000,0.000000,0.000000
1782115716.871671,220220,-0.123535,0.394043,0.902344,1.097561,-2.804878,-4.817073,3.081250,-4.906250,34.862499,0.0,1.000000,0.000000,0.000000,0.000000
1782115716.882671,220231,-0.131348,0.397461,0.903809,1.402439,-1.768293,-3.536585,3.081250,-4.906250,34.862499,0.0,1.000000,0.000000,0.000000,0.000000
1782115716.892671,220241,-0.144531,0.391602,0.907715,3.292683,-1.341463,-2.500000,3.000000,-5.081250,34.799999,0.0,1.000000,0.000000,0.000000,0.000000
1782115716.901671,220250,-0.158691,0.384277,0.909180,5.121951,-1.280488,-2.317073,3.000000,-5.081250,34.799999,0.0,1.000000,0.000000,0.000000,0.000000
1782115716.911671,220260,-0.167480,0.380371,0.901855,6.463415,-1.646341,-2.560976,3.043750,-5.081250,34.737499,0.0,1.000000,0.000000,0.000000,0.000000
1782115716.921671,220270,-0.174316,0.382324,0.898438,8.109756,-1.829268,-2.926829,3.043750,-5.081250,34.737499,0.0,1.000000,0.000000,0.000000,0.000000
1782115716.932671,220281,-0.177734,0.387695,0.891602,9.817074,-1.402439,-3.231707,3.125000,-5.100000,34.775002,0.0,1.000000,0.000000,0.000000,0.000000
1782115716.941671,220290,-0.180664,0.393555,0.892090,11.219512,-1.219512,-3.292683,3.125000,-5.100000,34.775002,0.0,1.000000,0.000000,0.000000,0.000000
1782115716.951671,220300,-0.178711,0.400879,0.892090,12.439025,-1.158537,-3.170732,3.312500,-5.000000,34.743752,0.0,1.000000,0.000000,0.000000,0.000000
1782115716.961671,220310,-0.183105,0.401855,0.897949,13.780488,-1.341463,-3.048780,3.312500,-5.000000,34.743752,0.0,1.000000,0.000000,0.000000,0.000000
1782115716.971671,220320,-0.184570,0.403809,0.905273,14.634147,-2.134146,-3.414634,3.406250,-5.093750,34.756252,0.0,1.000000,0.000000,0.000000,0.000000
1782115716.981671,220330,-0.184570,0.403809,0.905273,14.634147,-2.134146,-3.414634,3.718750,-5.000000,34.737499,0.0,1.000000,0.000000,0.000000,0.000000
1782115716.991671,220340,-0.186035,0.404297,0.897461,14.695123,-2.378049,-4.085366,3.718750,-5.000000,34.737499,0.0,1.000000,0.000000,0.000000,0.000000
1782115717.001671,220350,-0.194824,0.413574,0.891113,15.426829,-1.951220,-4.573171,3.856250,-5.106250,34.712502,0.0,1.000000,0.000000,0.000000,0.000000
1782115717.012671,220361,-0.204102,0.441406,0.901855,18.475611,-3.231707,-5.548780,3.856250,-5.106250,34.712502,0.0,1.000000,0.000000,0.000000,0.000000
1782115717.021671,220370,-0.204102,0.441406,0.901855,18.475611,-3.231707,-5.548780,4.193750,-4.987500,34.693752,0.0,1.000000,0.000000,0.000000,0.000000
1782115717.031671,220380,-0.202148,0.451660,0.909668,18.475611,-4.146341,-5.853659,4.193750,-4.987500,34.693752,0.0,1.000000,0.000000,0.000000,0.000000
1782115717.041671,220390,-0.193359,0.451660,0.915039,17.560976,-4.817073,-5.975610,4.387500,-5.100000,34.650002,0.0,1.000000,0.000000,0.000000,0.000000
1782115717.052671,220401,-0.182129,0.446777,0.904785,16.402439,-5.975610,-5.975610,4.387500,-5.100000,34.650002,0.0,1.000000,0.000000,0.000000,0.000000
1782115717.061671,220410,-0.169922,0.449219,0.891113,16.036585,-6.890244,-5.548780,4.712500,-5.018750,34.631252,0.0,1.000000,0.000000,0.000000,0.000000
1782115717.071671,220420,-0.163086,0.452637,0.889160,17.195122,-7.682927,-4.146341,4.712500,-5.018750,34.631252,0.0,1.000000,0.000000,0.000000,0.000000
1782115717.081671,220430,-0.160156,0.456543,0.888672,18.597561,-8.231708,-2.195122,4.912500,-5.162500,34.593750,0.0,1.000000,0.000000,0.000000,0.000000
1782115717.091671,220440,-0.160156,0.467285,0.891602,19.512196,-9.146341,-0.243902,4.912500,-5.162500,34.593750,0.0,1.000000,0.000000,0.000000,0.000000
1782115717.101671,220450,-0.160156,0.482910,0.895020,20.060976,-10.426829,1.036585,5.218750,-5.218750,34.512501,0.0,1.000000,0.000000,0.000000,0.000000
1782115717.111671,220460,-0.156250,0.502441,0.898926,18.536585,-11.646341,1.707317,5.218750,-5.218750,34.512501,0.0,1.000000,0.000000,0.000000,0.000000
1782115717.121671,220470,-0.146973,0.522461,0.895508,14.451220,-12.378049,1.951220,5.412500,-5.368750,34.525002,0.0,1.000000,0.000000,0.000000,0.000000
1782115717.131671,220480,-0.139160,0.547363,0.890137,8.963415,-13.536586,2.865854,5.412500,-5.368750,34.525002,0.0,1.000000,0.000000,0.000000,0.000000
1782115717.144671,220493,-0.110352,0.572754,0.897949,-7.073171,-14.817074,5.243903,5.393750,-5.581250,34.493752,0.0,1.000000,0.000000,0.000000,0.000000
1782115717.151671,220500,-0.110352,0.572754,0.897949,-7.073171,-14.817074,5.243903,5.393750,-5.581250,34.493752,0.0,1.000000,0.000000,0.000000,0.000000
1782115717.161671,220510,-0.110840,0.555176,0.908691,-15.182927,-14.573171,5.487805,5.281250,-5.768750,34.456249,0.0,1.000000,0.000000,0.000000,0.000000
1782115717.173671,220522,-0.115234,0.525879,0.907715,-21.341463,-15.182927,4.451220,5.281250,-5.768750,34.456249,0.0,1.000000,0.000000,0.000000,0.000000
1782115717.181671,220530,-0.115723,0.489258,0.905762,-25.000000,-16.402439,2.926829,4.925000,-6.056250,34.250000,0.0,1.000000,0.000000,0.000000,0.000000
1782115717.191671,220540,-0.111816,0.439453,0.907227,-25.426830,-17.378050,1.463415,4.925000,-6.056250,34.250000,0.0,1.000000,0.000000,0.000000,0.000000
1782115717.201671,220550,-0.102539,0.400879,0.894531,-23.231709,-18.170732,0.487805,4.431250,-6.412500,34.187500,0.0,1.000000,0.000000,0.000000,0.000000
1782115717.213671,220562,-0.093750,0.383789,0.889160,-18.292683,-18.658537,0.365854,4.431250,-6.412500,34.187500,0.0,1.000000,0.000000,0.000000,0.000000
1782115717.221671,220570,-0.080078,0.381348,0.890137,-12.500000,-19.024391,1.097561,4.212500,-6.606250,34.081249,0.0,1.000000,0.000000,0.000000,0.000000
1782115717.231671,220580,-0.081055,0.383789,0.898926,-6.097561,-19.329269,2.865854,4.212500,-6.606250,34.081249,0.0,1.000000,0.000000,0.000000,0.000000
1782115717.241671,220590,-0.087891,0.390137,0.905762,-0.243902,-20.000000,4.817073,4.050000,-6.993750,33.981251,0.0,1.000000,0.000000,0.000000,0.000000
1782115717.252671,220601,-0.103027,0.403320,0.912598,5.792683,-20.609756,7.012195,3.987500,-7.231250,33.918751,0.0,1.000000,0.000000,0.000000,0.000000
1782115717.261671,220610,-0.104004,0.415039,0.907715,10.365854,-21.402439,7.804878,3.987500,-7.231250,33.918751,0.0,1.000000,0.000000,0.000000,0.000000
1782115717.272671,220621,-0.100098,0.438477,0.901367,13.231708,-21.036587,8.109756,4.150000,-7.531250,33.856251,0.0,1.000000,0.000000,0.000000,0.000000
1782115717.282671,220631,-0.094727,0.461914,0.893555,15.487805,-20.853659,8.597561,4.150000,-7.531250,33.856251,0.0,1.000000,0.000000,0.000000,0.000000
1782115717.293671,220642,-0.093750,0.477539,0.892578,16.036585,-21.158537,9.268292,4.293750,-7.843750,33.818752,0.0,1.000000,0.000000,0.000000,0.000000
1782115717.301671,220650,-0.088379,0.485840,0.892578,14.390244,-20.853659,9.329268,4.293750,-7.843750,33.818752,0.0,1.000000,0.000000,0.000000,0.000000
1782115717.311671,220660,-0.086426,0.497559,0.887207,10.487805,-20.426830,9.085366,4.518750,-8.025001,33.706249,0.0,1.000000,0.000000,0.000000,0.000000
1782115717.321671,220670,-0.083984,0.498047,0.884277,6.524390,-20.914635,8.902439,4.518750,-8.025001,33.706249,0.0,1.000000,0.000000,0.000000,0.000000
1782115717.333671,220682,-0.073730,0.493652,0.877930,2.378049,-21.341463,9.146341,4.487500,-8.375000,33.562500,0.0,1.000000,0.000000,0.000000,0.000000
1782115717.341671,220690,-0.072266,0.486328,0.877441,-0.243902,-20.670732,10.304878,4.487500,-8.375000,33.562500,0.0,1.000000,0.000000,0.000000,0.000000
1782115717.351671,220700,-0.071777,0.477051,0.875977,-2.378049,-20.609756,11.402439,4.393750,-8.625000,33.512501,0.0,1.000000,0.000000,0.000000,0.000000
1782115717.361671,220710,-0.068848,0.473145,0.866699,-5.060976,-19.451220,12.195122,4.393750,-8.625000,33.512501,0.0,1.000000,0.000000,0.000000,0.000000
1782115717.371671,220720,-0.072266,0.472656,0.858398,-7.256098,-18.902439,13.109756,4.362500,-8.887500,33.481251,0.0,1.000000,0.000000,0.000000,0.000000
1782115717.381671,220730,-0.071289,0.469727,0.853516,-7.987805,-18.536585,14.024390,4.362500,-8.887500,33.481251,0.0,1.000000,0.000000,0.000000,0.000000
1782115717.391671,220740,-0.071289,0.463867,0.854004,-8.048780,-17.865854,14.695123,4.237500,-8.962501,33.337502,0.0,1.000000,0.000000,0.000000,0.000000
1782115717.401671,220750,-0.066895,0.460938,0.853516,-8.841464,-16.951220,15.000000,4.237500,-8.962501,33.337502,0.0,1.000000,0.000000,0.000000,0.000000
1782115717.412671,220761,-0.062012,0.455078,0.852539,-9.695122,-15.548780,15.121951,3.856250,-9.437500,33.231251,0.0,1.000000,0.000000,0.000000,0.000000
1782115717.421671,220770,-0.053711,0.443848,0.852539,-11.402439,-14.329268,15.121951,3.856250,-9.437500,33.231251,0.0,1.000000,0.000000,0.000000,0.000000
1782115717.431671,220780,-0.050781,0.430664,0.856445,-13.475610,-13.292684,15.304878,3.606250,-9.643750,33.093750,0.0,1.000000,0.000000,0.000000,0.000000
1782115717.442671,220791,-0.049805,0.417480,0.864746,-13.475610,-12.439025,15.121951,3.606250,-9.643750,33.093750,0.0,1.000000,0.000000,0.000000,0.000000
1782115717.453671,220802,-0.046875,0.405273,0.868652,-12.682927,-11.768293,14.634147,3.375000,-9.750000,32.943752,0.0,1.000000,0.000000,0.000000,0.000000
1782115717.461671,220810,-0.043945,0.390625,0.874023,-10.914635,-11.036586,14.146341,3.375000,-9.750000,32.943752,0.0,1.000000,0.000000,0.000000,0.000000
1782115717.471671,220820,-0.038086,0.383789,0.873535,-9.085366,-10.792684,13.353659,3.150000,-9.931251,32.900002,0.0,1.000000,0.000000,0.000000,0.000000
1782115717.481671,220830,-0.039551,0.386230,0.879883,-7.378049,-10.731708,12.317074,3.150000,-9.931251,32.900002,0.0,1.000000,0.000000,0.000000,0.000000
1782115717.493671,220842,-0.030762,0.385742,0.887207,-5.731708,-10.182927,10.914635,2.887500,-10.193750,32.787502,0.0,1.000000,0.000000,0.000000,0.000000
1782115717.501671,220850,-0.007812,0.377930,0.881348,-4.939024,-4.695122,9.085366,2.887500,-10.193750,32.787502,0.0,1.000000,0.000000,0.000000,0.000000
1782115717.513671,220862,-0.027344,0.382324,0.876465,-3.841464,-5.975610,8.780488,2.850000,-10.206250,32.756252,0.0,1.000000,0.000000,0.000000,0.000000
1782115717.522671,220871,-0.019531,0.385742,0.869141,-1.524390,-6.463415,8.902439,2.850000,-10.206250,32.756252,0.0,1.000000,0.000000,0.000000,0.000000
1782115717.531671,220880,-0.010742,0.381348,0.864746,-0.365854,-5.000000,8.597561,3.006250,-9.950000,32.750000,0.0,1.000000,0.000000,0.000000,0.000000
1782115717.541671,220890,-0.010742,0.376465,0.867676,0.182927,-5.000000,7.865854,3.006250,-9.950000,32.750000,0.0,1.000000,0.000000,0.000000,0.000000
1782115717.551671,220900,-0.006348,0.380371,0.867188,0.548781,-4.146341,6.707317,2.750000,-10.212501,32.606251,0.0,1.000000,0.000000,0.000000,0.000000
1782115717.561671,220910,-0.009277,0.385254,0.866699,1.036585,-2.987805,5.792683,2.750000,-10.212501,32.606251,0.0,1.000000,0.000000,0.000000,0.000000
1782115717.571671,220920,-0.013672,0.388672,0.866699,2.073171,-3.536585,4.817073,2.606250,-10.387500,32.568752,0.0,1.000000,0.000000,0.000000,0.000000
1782115717.581671,220930,-0.012695,0.387695,0.873047,3.109756,-3.719512,3.841464,2.637500,-10.331250,32.531250,0.0,1.000000,0.000000,0.000000,0.000000
1782115717.591671,220940,-0.007812,0.389648,0.881836,4.268293,-3.231707,3.048780,2.637500,-10.331250,32.531250,0.0,1.000000,0.000000,0.000000,0.000000
1782115717.601671,220950,-0.002441,0.398926,0.888184,4.573171,-2.743902,2.073171,2.687500,-10.425000,32.556252,0.0,1.000000,0.000000,0.000000,0.000000
1782115717.614671,220963,0.012695,0.410645,0.882812,4.207317,-1.585366,1.097561,2.687500,-10.425000,32.556252,0.0,1.000000,0.000000,0.000000,0.000000
1782115717.621671,220970,0.011719,0.414551,0.891113,3.414634,-1.707317,0.792683,2.687500,-10.418750,32.500000,0.0,1.000000,0.000000,0.000000,0.000000
1782115717.631671,220980,0.018555,0.418945,0.897461,1.219512,-1.463415,0.487805,2.687500,-10.418750,32.500000,0.0,1.000000,0.000000,0.000000,0.000000
1782115717.641671,220990,0.015625,0.424805,0.895996,-0.609756,-0.670732,0.609756,2.962500,-10.200000,32.531250,0.0,1.000000,0.000000,0.000000,0.000000
1782115717.652671,221001,0.005371,0.421387,0.894043,-0.426829,-0.853659,0.792683,2.962500,-10.200000,32.531250,0.0,1.000000,0.000000,0.000000,0.000000
1782115717.661671,221010,-0.004395,0.410645,0.899414,0.304878,-1.097561,0.365854,3.050000,-10.081250,32.587502,0.0,1.000000,0.000000,0.000000,0.000000
1782115717.672671,221021,-0.012207,0.403809,0.896973,0.304878,-0.548781,-0.365854,3.050000,-10.081250,32.587502,0.0,1.000000,0.000000,0.000000,0.000000
1782115717.681671,221030,-0.021973,0.400879,0.892578,0.060976,0.000000,-1.219512,2.737500,-10.381250,32.500000,0.0,1.000000,0.000000,0.000000,0.000000
1782115717.693671,221042,-0.026855,0.402832,0.894043,0.792683,-0.426829,-2.012195,2.737500,-10.381250,32.500000,0.0,1.000000,0.000000,0.000000,0.000000
1782115717.701671,221050,-0.030273,0.404785,0.897461,1.463415,-0.609756,-2.500000,2.762500,-10.450000,32.525002,0.0,1.000000,0.000000,0.000000,0.000000
1782115717.711671,221060,-0.032715,0.405273,0.895020,1.890244,-0.914634,-2.987805,2.762500,-10.450000,32.525002,0.0,1.000000,0.000000,0.000000,0.000000
1782115717.721671,221070,-0.031250,0.406738,0.893066,2.621951,-0.914634,-3.231707,2.743750,-10.456250,32.468750,0.0,1.000000,0.000000,0.000000,0.000000
1782115717.735671,221084,-0.024414,0.412598,0.888184,2.743902,-0.365854,-3.597561,2.743750,-10.456250,32.468750,0.0,1.000000,0.000000,0.000000,0.000000
1782115717.741671,221090,-0.020996,0.420898,0.886719,2.865854,0.548781,-3.780488,2.856250,-10.418750,32.487499,0.0,1.000000,0.000000,0.000000,0.000000
1782115717.751671,221100,-0.011230,0.422363,0.880859,2.743902,1.585366,-4.146341,2.856250,-10.418750,32.487499,0.0,1.000000,0.000000,0.000000,0.000000
1782115717.761671,221110,-0.011230,0.419922,0.878906,2.317073,1.585366,-4.268293,2.825000,-10.493751,32.487499,0.0,1.000000,0.000000,0.000000,0.000000
1782115717.774671,221123,-0.007812,0.426758,0.875977,1.341463,1.829268,-4.756098,2.825000,-10.493751,32.487499,0.0,1.000000,0.000000,0.000000,0.000000
1782115717.781671,221130,-0.003906,0.433105,0.875488,1.707317,2.439024,-5.060976,3.018750,-10.300000,32.531250,0.0,1.000000,0.000000,0.000000,0.000000
1782115717.791671,221140,-0.002930,0.431641,0.878906,1.280488,2.804878,-5.121951,3.018750,-10.300000,32.531250,0.0,1.000000,0.000000,0.000000,0.000000
1782115717.801671,221150,0.000000,0.431152,0.875488,0.609756,3.841464,-5.426829,2.862500,-10.412500,32.512501,0.0,1.000000,0.000000,0.000000,0.000000
1782115717.814671,221163,-0.009766,0.433105,0.873535,0.304878,4.085366,-5.914634,2.862500,-10.412500,32.512501,0.0,1.000000,0.000000,0.000000,0.000000
1782115717.821671,221170,-0.009277,0.436523,0.859375,-1.524390,3.719512,-6.646342,2.943750,-10.356250,32.612499,0.0,1.000000,0.000000,0.000000,0.000000
1782115717.831671,221180,-0.009277,0.436523,0.859375,-1.524390,3.719512,-6.646342,2.943750,-10.356250,32.612499,0.0,1.000000,0.000000,0.000000,0.000000
1782115717.841671,221190,0.003906,0.444824,0.853516,-5.000000,3.536585,-7.865854,2.925000,-10.275001,32.575001,0.0,1.000000,0.000000,0.000000,0.000000
1782115717.852671,221201,0.018555,0.449219,0.880371,-10.548780,5.609756,-8.292683,2.925000,-10.275001,32.575001,0.0,1.000000,0.000000,0.000000,0.000000
1782115717.861671,221210,0.018555,0.449219,0.880371,-10.548780,5.609756,-8.292683,2.825000,-10.231250,32.600002,0.0,1.000000,0.000000,0.000000,0.000000
1782115717.871671,221220,0.013184,0.444336,0.886230,-12.865854,6.280488,-7.682927,2.750000,-10.162500,32.618752,0.0,1.000000,0.000000,0.000000,0.000000
1782115717.881671,221230,0.010254,0.438965,0.873535,-14.634147,7.012195,-7.012195,2.750000,-10.162500,32.618752,0.0,1.000000,0.000000,0.000000,0.000000
1782115717.892671,221241,0.016113,0.433594,0.868164,-14.756098,8.109756,-7.378049,2.500000,-10.093750,32.625000,0.0,1.000000,0.000000,0.000000,0.000000
1782115717.901671,221250,0.017578,0.431641,0.863770,-13.353659,9.939025,-7.804878,2.500000,-10.093750,32.625000,0.0,1.000000,0.000000,0.000000,0.000000
1782115717.911671,221260,0.027832,0.416504,0.852539,-10.548780,11.219512,-8.536586,2.437500,-9.906250,32.706249,0.0,1.000000,0.000000,0.000000,0.000000
1782115717.921671,221270,0.038574,0.407715,0.829590,-9.329268,13.231708,-8.353659,2.437500,-9.906250,32.706249,0.0,1.000000,0.000000,0.000000,0.000000
1782115717.932671,221281,0.039551,0.401367,0.815918,-9.146341,15.487805,-7.439024,2.375000,-9.775001,32.743752,0.0,1.000000,0.000000,0.000000,0.000000
1782115717.941671,221290,0.039551,0.399902,0.807617,-9.451220,19.390244,-6.402439,2.375000,-9.775001,32.743752,0.0,1.000000,0.000000,0.000000,0.000000
1782115717.951671,221300,0.012695,0.401855,0.805176,-8.963415,21.707317,-4.573171,2.393750,-9.462501,32.856251,0.0,1.000000,0.000000,0.000000,0.000000
1782115717.961671,221310,-0.004883,0.400391,0.794922,-9.512196,22.987806,-3.536585,2.393750,-9.462501,32.856251,0.0,1.000000,0.000000,0.000000,0.000000
1782115717.971671,221320,-0.021484,0.399902,0.796875,-10.426829,24.817074,-2.743902,2.156250,-9.225000,32.950001,0.0,1.000000,0.000000,0.000000,0.000000
1782115717.982671,221331,-0.060547,0.406738,0.905273,-11.463415,24.634148,-1.341463,2.156250,-9.225000,32.950001,0.0,1.000000,0.000000,0.000000,0.000000
1782115717.991671,221340,-0.148438,0.433594,1.077637,-14.878049,21.707317,0.731707,2.081250,-8.856250,33.150002,0.0,1.000000,0.000000,0.000000,0.000000
1782115718.001671,221350,-0.309570,0.411133,1.224609,-14.024390,12.987805,4.207317,2.081250,-8.856250,33.150002,0.0,1.000000,0.000000,0.000000,0.000000
1782115718.011671,221360,-0.428711,0.331055,1.265137,-7.804878,-3.109756,2.256098,1.887500,-8.862500,33.150002,0.0,1.000000,0.000000,0.000000,0.000000
1782115718.022671,221371,-0.380859,0.282227,1.184082,-0.548781,-17.012196,-4.146341,1.887500,-8.862500,33.150002,0.0,1.000000,0.000000,0.000000,0.000000
1782115718.032671,221381,-0.182129,0.322754,1.081055,5.426829,-24.573172,-8.963415,1.962500,-9.106250,33.100002,0.0,1.000000,0.000000,0.000000,0.000000
1782115718.041671,221390,0.024414,0.379395,0.983887,6.280488,-19.573172,-9.939025,1.962500,-9.106250,33.100002,0.0,1.000000,0.000000,0.000000,0.000000
1782115718.051671,221400,0.157227,0.424316,0.934082,0.365854,-8.048780,-7.743903,1.943750,-9.400001,33.100002,0.0,1.000000,0.000000,0.000000,0.000000
1782115718.062671,221411,0.195801,0.445801,0.917480,-5.487805,3.536585,-4.024390,1.943750,-9.400001,33.100002,0.0,1.000000,0.000000,0.000000,0.000000
1782115718.071671,221420,0.140137,0.424316,0.908203,-6.219512,8.597561,-0.243902,1.937500,-9.325000,33.056252,0.0,1.000000,0.000000,0.000000,0.000000
1782115718.082671,221431,0.020020,0.374512,0.892090,-5.000000,6.768293,1.768293,1.937500,-9.325000,33.056252,0.0,1.000000,0.000000,0.000000,0.000000
1782115718.094671,221443,-0.083008,0.346680,0.850098,-3.475610,2.317073,1.280488,1.800000,-9.343750,33.093750,0.0,1.000000,0.000000,0.000000,0.000000
1782115718.102671,221451,-0.137207,0.350586,0.800781,-3.719512,0.609756,-0.548781,1.800000,-9.343750,33.093750,0.0,1.000000,0.000000,0.000000,0.000000
1782115718.112671,221461,-0.163574,0.376953,0.765137,-5.548780,1.036585,-2.743902,1.850000,-9.281250,33.093750,0.0,1.000000,0.000000,0.000000,0.000000
1782115718.121671,221470,-0.171875,0.397461,0.772949,-7.621952,3.963415,-4.268293,1.850000,-9.281250,33.093750,0.0,1.000000,0.000000,0.000000,0.000000
1782115718.131671,221480,-0.178223,0.408203,0.822266,-8.841464,5.304878,-5.670732,1.700000,-9.312500,33.100002,0.0,1.000000,0.000000,0.000000,0.000000
1782115718.141671,221490,-0.183105,0.399902,0.883301,-9.695122,3.170732,-6.829268,1.700000,-9.312500,33.100002,0.0,1.000000,0.000000,0.000000,0.000000
1782115718.151671,221500,-0.160156,0.381836,0.937988,-8.475610,-1.707317,-7.865854,1.606250,-9.356250,33.156250,0.0,1.000000,0.000000,0.000000,0.000000
1782115718.161671,221510,-0.121094,0.372559,0.975586,-5.670732,-6.463415,-7.682927,1.606250,-9.356250,33.156250,0.0,1.000000,0.000000,0.000000,0.000000
1782115718.171671,221520,-0.070312,0.368652,0.993652,-1.463415,-10.304878,-6.707317,1.506250,-9.431251,33.137501,0.0,1.000000,0.000000,0.000000,0.000000
1782115718.181671,221530,-0.021484,0.373535,0.989258,0.975610,-11.890244,-5.121951,1.606250,-9.481250,33.150002,0.0,1.000000,0.000000,0.000000,0.000000
1782115718.191671,221540,0.012207,0.382812,0.978516,2.317073,-10.731708,-3.414634,1.606250,-9.481250,33.150002,0.0,1.000000,0.000000,0.000000,0.000000
1782115718.201671,221550,0.020020,0.388672,0.967285,1.463415,-7.865854,-1.890244,1.625000,-9.631250,33.043751,0.0,1.000000,0.000000,0.000000,0.000000
1782115718.211671,221560,0.007324,0.390625,0.955566,-1.463415,-4.695122,-1.219512,1.625000,-9.631250,33.043751,0.0,1.000000,0.000000,0.000000,0.000000
1782115718.221671,221570,-0.012207,0.387695,0.932617,-4.268293,-1.768293,-1.463415,1.600000,-9.612500,33.112499,0.0,1.000000,0.000000,0.000000,0.000000
1782115718.231671,221580,-0.032227,0.394043,0.907227,-5.792683,0.304878,-2.317073,1.600000,-9.612500,33.112499,0.0,1.000000,0.000000,0.000000,0.000000
1782115718.241671,221590,-0.045410,0.404785,0.881836,-5.365854,2.073171,-3.048780,1.525000,-9.700000,33.081249,0.0,1.000000,0.000000,0.000000,0.000000
1782115718.251671,221600,-0.061035,0.415039,0.877441,-2.987805,2.987805,-2.682927,1.525000,-9.700000,33.081249,0.0,1.000000,0.000000,0.000000,0.000000
1782115718.262671,221611,-0.081543,0.422852,0.889160,-0.792683,2.378049,-2.378049,1.543750,-9.693750,33.118752,0.0,1.000000,0.000000,0.000000,0.000000
1782115718.271671,221620,-0.095703,0.422852,0.900879,0.609756,1.097561,-2.256098,1.543750,-9.693750,33.118752,0.0,1.000000,0.000000,0.000000,0.000000
1782115718.281671,221630,-0.106934,0.425293,0.913086,1.158537,-0.304878,-2.134146,1.612500,-9.575000,33.112499,0.0,1.000000,0.000000,0.000000,0.000000
1782115718.291671,221640,-0.109863,0.421387,0.921387,1.585366,-1.890244,-2.073171,1.612500,-9.575000,33.112499,0.0,1.000000,0.000000,0.000000,0.000000
1782115718.301671,221650,-0.096191,0.411133,0.917969,0.487805,-2.987805,-1.768293,1.487500,-9.762500,33.081249,0.0,1.000000,0.000000,0.000000,0.000000
1782115718.311671,221660,-0.079102,0.406738,0.906250,-2.195122,-2.865854,-0.792683,1.487500,-9.762500,33.081249,0.0,1.000000,0.000000,0.000000,0.000000
1782115718.321671,221670,-0.065918,0.402344,0.903809,-4.390244,-2.439024,0.609756,1.568750,-9.718750,33.150002,0.0,1.000000,0.000000,0.000000,0.000000
1782115718.331671,221680,-0.062500,0.394043,0.910156,-5.182927,-2.500000,2.134146,1.568750,-9.718750,33.150002,0.0,1.000000,0.000000,0.000000,0.000000
1782115718.343671,221692,-0.060547,0.381348,0.919922,-4.451220,-2.378049,3.170732,1.456250,-9.825000,33.168751,0.0,1.000000,0.000000,0.000000,0.000000
1782115718.351671,221700,-0.059570,0.370117,0.920898,-2.621951,-2.134146,3.536585,1.456250,-9.825000,33.168751,0.0,1.000000,0.000000,0.000000,0.000000
1782115718.362671,221711,-0.054199,0.373535,0.927246,0.000000,-1.341463,3.292683,1.400000,-9.818750,33.056252,0.0,1.000000,0.000000,0.000000,0.000000
1782115718.371671,221720,-0.046875,0.388184,0.925293,2.865854,0.426829,3.353659,1.400000,-9.818750,33.056252,0.0,1.000000,0.000000,0.000000,0.000000
1782115718.381671,221730,-0.053711,0.405762,0.916016,4.878049,2.378049,3.658537,1.368750,-9.837501,33.106251,0.0,1.000000,0.000000,0.000000,0.000000
1782115718.391671,221740,-0.060059,0.420898,0.912109,5.792683,3.841464,4.207317,1.368750,-9.837501,33.106251,0.0,1.000000,0.000000,0.000000,0.000000
1782115718.402671,221751,-0.069824,0.424316,0.909668,5.670732,3.780488,4.695122,1.425000,-9.800000,33.137501,0.0,1.000000,0.000000,0.000000,0.000000
1782115718.412671,221761,-0.080566,0.421387,0.916504,3.902439,2.987805,4.756098,1.425000,-9.800000,33.137501,0.0,1.000000,0.000000,0.000000,0.000000
1782115718.422671,221771,-0.094727,0.415527,0.919434,0.670732,2.134146,4.817073,1.443750,-9.712501,33.187500,0.0,1.000000,0.000000,0.000000,0.000000
1782115718.431671,221780,-0.104492,0.403809,0.921875,-1.341463,0.975610,4.573171,1.443750,-9.712501,33.187500,0.0,1.000000,0.000000,0.000000,0.000000
1782115718.441671,221790,-0.101074,0.394043,0.916504,-1.768293,0.975610,4.512195,1.443750,-9.687500,33.143749,0.0,1.000000,0.000000,0.000000,0.000000
1782115718.452671,221801,-0.088867,0.394531,0.915527,-0.304878,1.036585,4.451220,1.443750,-9.687500,33.143749,0.0,1.000000,0.000000,0.000000,0.000000
1782115718.461671,221810,-0.065918,0.396484,0.906250,0.304878,2.012195,4.207317,1.406250,-9.656250,33.131252,0.0,1.000000,0.000000,0.000000,0.000000
1782115718.471671,221820,-0.057617,0.395508,0.911621,-0.548781,2.804878,4.146341,1.393750,-9.625000,33.174999,0.0,1.000000,0.000000,0.000000,0.000000
1782115718.481671,221830,-0.065918,0.392578,0.923828,-2.195122,3.048780,4.817073,1.393750,-9.625000,33.174999,0.0,1.000000,0.000000,0.000000,0.000000
1782115718.491671,221840,-0.092285,0.378418,0.939941,-1.585366,2.134146,5.609756,1.268750,-9.618751,33.118752,0.0,1.000000,0.000000,0.000000,0.000000
1782115718.501671,221850,-0.115234,0.359863,0.945801,-0.060976,1.219512,5.853659,1.268750,-9.618751,33.118752,0.0,1.000000,0.000000,0.000000,0.000000
1782115718.512671,221861,-0.116699,0.352051,0.922852,1.768293,0.914634,5.609756,1.300000,-9.556251,33.150002,0.0,1.000000,0.000000,0.000000,0.000000
1782115718.521671,221870,-0.088867,0.358398,0.888184,2.804878,1.829268,5.121951,1.300000,-9.556251,33.150002,0.0,1.000000,0.000000,0.000000,0.000000
1782115718.531671,221880,-0.055664,0.375000,0.859863,2.621951,4.512195,4.817073,1.325000,-9.493751,33.131252,0.0,1.000000,0.000000,0.000000,0.000000
1782115718.542671,221891,-0.022461,0.389160,0.846680,2.134146,7.378049,5.182927,1.325000,-9.493751,33.131252,0.0,1.000000,0.000000,0.000000,0.000000
1782115718.551671,221900,-0.003906,0.390137,0.852539,1.829268,9.268292,5.731708,1.418750,-9.268750,33.137501,0.0,1.000000,0.000000,0.000000,0.000000
1782115718.561671,221910,-0.003418,0.381836,0.866211,1.890244,9.756098,6.585366,1.418750,-9.268750,33.137501,0.0,1.000000,0.000000,0.000000,0.000000
1782115718.571671,221920,-0.016602,0.366699,0.885742,3.719512,8.841464,7.439024,1.306250,-9.212501,33.187500,0.0,1.000000,0.000000,0.000000,0.000000
1782115718.582671,221931,-0.036621,0.355957,0.907715,5.853659,8.292683,7.926829,1.306250,-9.212501,33.187500,0.0,1.000000,0.000000,0.000000,0.000000
1782115718.591671,221940,-0.059570,0.354980,0.926758,8.536586,7.682927,8.231708,1.362500,-9.068750,33.200001,0.0,1.000000,0.000000,0.000000,0.000000
1782115718.601671,221950,-0.078613,0.364746,0.935059,10.670732,6.646342,8.292683,1.362500,-9.068750,33.200001,0.0,1.000000,0.000000,0.000000,0.000000
1782115718.612671,221961,-0.084473,0.382812,0.935547,11.158537,6.219512,8.658537,1.487500,-8.931251,33.281250,0.0,1.000000,0.000000,0.000000,0.000000
1782115718.621671,221970,-0.083496,0.403320,0.935059,9.939025,6.402439,9.207317,1.487500,-8.931251,33.281250,0.0,1.000000,0.000000,0.000000,0.000000
1782115718.632671,221981,-0.084473,0.413086,0.936523,7.987805,6.768293,10.243902,1.668750,-8.768750,33.343750,0.0,1.000000,0.000000,0.000000,0.000000
1782115718.641671,221990,-0.087891,0.410645,0.938965,5.914634,6.829268,11.280488,1.668750,-8.768750,33.343750,0.0,1.000000,0.000000,0.000000,0.000000
1782115718.651671,222000,-0.084961,0.394043,0.932129,3.719512,6.585366,11.341464,1.612500,-8.731250,33.331249,0.0,1.000000,0.000000,0.000000,0.000000
1782115718.662671,222011,-0.074707,0.382812,0.915039,2.012195,7.256098,10.853659,1.612500,-8.731250,33.331249,0.0,1.000000,0.000000,0.000000,0.000000
1782115718.672671,222021,-0.061523,0.368164,0.895996,1.524390,8.902439,9.512196,1.687500,-8.518750,33.350002,0.0,1.000000,0.000000,0.000000,0.000000
1782115718.681671,222030,-0.050781,0.359863,0.874023,2.073171,10.487805,7.865854,1.687500,-8.518750,33.350002,0.0,1.000000,0.000000,0.000000,0.000000
1782115718.691671,222040,-0.050781,0.359863,0.874023,2.073171,10.487805,7.865854,1.637500,-8.443750,33.412502,0.0,1.000000,0.000000,0.000000,0.000000
1782115718.701671,222050,-0.043945,0.357910,0.863281,3.231707,11.646341,6.646342,1.637500,-8.443750,33.412502,0.0,1.000000,0.000000,0.000000,0.000000
1782115718.712671,222061,-0.050293,0.346680,0.878418,5.548780,12.865854,4.939024,1.687500,-8.225000,33.500000,0.0,1.000000,0.000000,0.000000,0.000000
1782115718.721671,222070,-0.050293,0.346680,0.878418,5.548780,12.865854,4.939024,1.687500,-8.225000,33.500000,0.0,1.000000,0.000000,0.000000,0.000000
1782115718.731671,222080,-0.071289,0.347656,0.894531,6.158537,11.890244,4.085366,1.675000,-8.125000,33.512501,0.0,1.000000,0.000000,0.000000,0.000000
1782115718.742671,222091,-0.097168,0.377441,0.907715,6.646342,8.109756,2.134146,1.825000,-7.912500,33.612499,0.0,1.000000,0.000000,0.000000,0.000000
1782115718.751671,222100,-0.097168,0.377441,0.907715,6.646342,8.109756,2.134146,1.825000,-7.912500,33.612499,0.0,1.000000,0.000000,0.000000,0.000000
1782115718.763671,222112,-0.100586,0.404785,0.911133,4.512195,6.646342,1.951220,1.831250,-7.862500,33.581249,0.0,1.000000,0.000000,0.000000,0.000000
1782115718.771671,222120,-0.100586,0.404785,0.911133,4.512195,6.646342,1.951220,1.831250,-7.862500,33.581249,0.0,1.000000,0.000000,0.000000,0.000000
1782115718.783671,222132,-0.090820,0.413574,0.909668,3.658537,7.560976,1.829268,2.231250,-7.337500,33.718750,0.0,1.000000,0.000000,0.000000,0.000000
1782115718.791671,222140,-0.074707,0.409180,0.914062,2.500000,7.500000,1.524390,2.231250,-7.337500,33.718750,0.0,1.000000,0.000000,0.000000,0.000000
1782115718.801671,222150,-0.058105,0.406250,0.905762,-1.219512,9.146341,1.646341,1.931250,-7.500000,33.650002,0.0,1.000000,0.000000,0.000000,0.000000
1782115718.811671,222160,-0.063477,0.396484,0.904785,-4.146341,10.975610,1.890244,1.931250,-7.500000,33.650002,0.0,1.000000,0.000000,0.000000,0.000000
1782115718.822671,222171,-0.077148,0.374512,0.920898,-3.719512,11.280488,2.073171,2.100000,-7.156250,33.693752,0.0,1.000000,0.000000,0.000000,0.000000
1782115718.831671,222180,-0.094238,0.358398,0.941895,-1.158537,10.182927,1.524390,2.100000,-7.156250,33.693752,0.0,1.000000,0.000000,0.000000,0.000000
1782115718.841671,222190,-0.107910,0.356445,0.951172,1.219512,8.597561,0.548781,1.850000,-7.306250,33.750000,0.0,1.000000,0.000000,0.000000,0.000000
1782115718.851671,222200,-0.114258,0.368652,0.956055,2.500000,7.134147,-0.548781,1.850000,-7.306250,33.750000,0.0,1.000000,0.000000,0.000000,0.000000
1782115718.862671,222211,-0.117188,0.388184,0.956543,3.353659,7.256098,-1.402439,2.168750,-6.900000,33.812500,0.0,1.000000,0.000000,0.000000,0.000000
1782115718.871671,222220,-0.127441,0.399902,0.955078,3.841464,5.792683,-1.585366,2.168750,-6.900000,33.812500,0.0,1.000000,0.000000,0.000000,0.000000
1782115718.881671,222230,-0.128418,0.409668,0.941895,2.682927,4.512195,-1.524390,1.975000,-7.050000,33.837502,0.0,1.000000,0.000000,0.000000,0.000000
1782115718.891671,222240,-0.112793,0.414551,0.924805,1.951220,4.268293,-1.585366,1.975000,-7.050000,33.837502,0.0,1.000000,0.000000,0.000000,0.000000
1782115718.902671,222251,-0.093262,0.414062,0.906250,0.792683,5.609756,-1.707317,2.193750,-6.737500,33.875000,0.0,1.000000,0.000000,0.000000,0.000000
1782115718.911671,222260,-0.081055,0.408203,0.893555,-1.829268,6.585366,-1.707317,2.193750,-6.737500,33.875000,0.0,1.000000,0.000000,0.000000,0.000000
1782115718.921671,222270,-0.075684,0.397949,0.881836,-4.329268,7.378049,-1.402439,1.968750,-6.893750,33.862499,0.0,1.000000,0.000000,0.000000,0.000000
1782115718.931671,222280,-0.086426,0.382812,0.882324,-5.243903,6.585366,-1.341463,1.968750,-6.893750,33.862499,0.0,1.000000,0.000000,0.000000,0.000000
1782115718.943671,222292,-0.100586,0.364258,0.891602,-4.695122,5.609756,-1.829268,2.150000,-6.556250,33.931252,0.0,1.000000,0.000000,0.000000,0.000000
1782115718.951671,222300,-0.114258,0.352539,0.909668,-2.317073,4.451220,-2.500000,2.150000,-6.556250,33.931252,0.0,1.000000,0.000000,0.000000,0.000000
1782115718.961671,222310,-0.120605,0.349121,0.916504,0.182927,3.414634,-3.536585,1.962500,-6.712500,33.968750,0.0,1.000000,0.000000,0.000000,0.000000
1782115718.971671,222320,-0.116211,0.354492,0.916992,1.829268,3.536585,-4.146341,1.962500,-6.712500,33.968750,0.0,1.000000,0.000000,0.000000,0.000000
1782115718.982671,222331,-0.103027,0.357422,0.907715,2.987805,4.390244,-3.658537,2.000000,-6.718750,33.912502,0.0,1.000000,0.000000,0.000000,0.000000
1782115718.992671,222341,-0.085449,0.364258,0.900391,2.682927,6.585366,-2.865854,2.000000,-6.718750,33.912502,0.0,1.000000,0.000000,0.000000,0.000000
1782115719.001671,222350,-0.074219,0.380859,0.890625,2.012195,9.390244,-1.829268,2.050000,-6.581250,34.006252,0.0,1.000000,0.000000,0.000000,0.000000
1782115719.011671,222360,-0.074219,0.407227,0.889648,2.073171,11.280488,-0.609756,2.050000,-6.581250,34.006252,0.0,1.000000,0.000000,0.000000,0.000000
1782115719.023671,222372,-0.091797,0.425293,0.894531,3.353659,11.524390,0.243902,2.062500,-6.537500,34.093750,0.0,1.000000,0.000000,0.000000,0.000000
1782115719.032671,222381,-0.115234,0.432617,0.903320,4.512195,10.792684,0.060976,2.062500,-6.537500,34.093750,0.0,1.000000,0.000000,0.000000,0.000000
1782115719.041671,222390,-0.142578,0.438965,0.894531,4.817073,10.182927,-0.609756,2.225000,-6.243750,34.137501,0.0,1.000000,0.000000,0.000000,0.000000
1782115719.051671,222400,-0.154297,0.452148,0.873535,5.792683,9.512196,-1.768293,2.225000,-6.243750,34.137501,0.0,1.000000,0.000000,0.000000,0.000000
1782115719.063671,222412,-0.147949,0.472656,0.870117,7.743903,10.548780,-2.317073,2.206250,-6.218750,34.168751,0.0,1.000000,0.000000,0.000000,0.000000
1782115719.072671,222421,-0.146484,0.492188,0.886230,7.743903,11.768293,-1.768293,2.431250,-5.931250,34.237499,0.0,1.000000,0.000000,0.000000,0.000000
1782115719.081671,222430,-0.166016,0.501953,0.921387,5.609756,12.256098,-0.121951,2.431250,-5.931250,34.237499,0.0,1.000000,0.000000,0.000000,0.000000
1782115719.092671,222441,-0.197266,0.489258,0.948730,4.451220,9.451220,1.341463,2.456250,-5.818750,34.331249,0.0,1.000000,0.000000,0.000000,0.000000
1782115719.105671,222454,-0.224121,0.462402,0.966309,4.024390,6.219512,2.500000,2.456250,-5.818750,34.331249,0.0,1.000000,0.000000,0.000000,0.000000
1782115719.111671,222460,-0.240234,0.451172,0.973633,3.536585,0.243902,2.865854,2.425000,-5.775000,34.293751,0.0,1.000000,0.000000,0.000000,0.000000
1782115719.122671,222471,-0.222656,0.456543,0.976562,0.792683,-3.231707,2.743902,2.425000,-5.775000,34.293751,0.0,1.000000,0.000000,0.000000,0.000000
1782115719.131671,222480,-0.204590,0.474609,0.992676,-2.012195,-4.146341,3.231707,2.406250,-5.856250,34.331249,0.0,1.000000,0.000000,0.000000,0.000000
1782115719.144671,222493,-0.206543,0.472168,1.013184,-1.768293,-4.939024,5.243903,2.406250,-5.856250,34.331249,0.0,1.000000,0.000000,0.000000,0.000000
1782115719.151671,222500,-0.215332,0.450195,1.037109,1.097561,-7.500000,7.195122,2.412500,-5.893750,34.268749,0.0,1.000000,0.000000,0.000000,0.000000
1782115719.161671,222510,-0.214844,0.432129,1.040039,2.012195,-10.365854,8.719512,2.412500,-5.893750,34.268749,0.0,1.000000,0.000000,0.000000,0.000000
1782115719.172671,222521,-0.204102,0.441406,1.033203,1.158537,-13.780488,10.487805,2.381250,-5.931250,34.174999,0.0,1.000000,0.000000,0.000000,0.000000
1782115719.184671,222533,-0.190430,0.461914,1.029297,0.548781,-16.768293,12.256098,2.381250,-5.931250,34.174999,0.0,1.000000,0.000000,0.000000,0.000000
1782115719.191671,222540,-0.175293,0.470215,1.028320,-0.304878,-19.085367,13.719513,2.587500,-5.987500,34.106251,0.0,1.000000,0.000000,0.000000,0.000000
1782115719.201671,222550,-0.153809,0.479004,1.011719,-1.646341,-21.768293,15.243903,2.587500,-5.987500,34.106251,0.0,1.000000,0.000000,0.000000,0.000000
1782115719.211671,222560,-0.132812,0.481445,0.995117,-5.000000,-24.085367,16.768293,2.250000,-6.487500,33.956249,0.0,1.000000,0.000000,0.000000,0.000000
1782115719.221671,222570,-0.123535,0.479004,0.979004,-9.451220,-26.463415,17.621952,2.250000,-6.487500,33.956249,0.0,1.000000,0.000000,0.000000,0.000000
1782115719.231671,222580,-0.117676,0.474609,0.969727,-13.475610,-28.719513,17.743902,2.018750,-6.931250,33.818752,0.0,1.000000,0.000000,0.000000,0.000000
1782115719.241671,222590,-0.109863,0.462891,0.962891,-15.853659,-31.463415,17.500000,2.018750,-6.931250,33.818752,0.0,1.000000,0.000000,0.000000,0.000000
1782115719.251671,222600,-0.108398,0.443848,0.955566,-17.195122,-33.231709,17.439024,1.650000,-7.375000,33.612499,0.0,1.000000,0.000000,0.000000,0.000000
1782115719.264671,222613,-0.108887,0.415039,0.945312,-15.975610,-33.841465,17.317074,1.650000,-7.375000,33.612499,0.0,1.000000,0.000000,0.000000,0.000000
1782115719.271671,222620,-0.110840,0.383301,0.926758,-14.085366,-34.512196,16.646341,1.318750,-7.825000,33.375000,0.0,1.000000,0.000000,0.000000,0.000000
1782115719.281671,222630,-0.125488,0.351562,0.907227,-14.207317,-35.000000,16.280489,1.318750,-7.825000,33.375000,0.0,1.000000,0.000000,0.000000,0.000000
1782115719.291671,222640,-0.132812,0.325195,0.888672,-14.817074,-35.487804,15.670732,0.887500,-8.487500,33.100002,0.0,1.000000,0.000000,0.000000,0.000000
1782115719.303671,222652,-0.121582,0.306641,0.892578,-13.109756,-35.731709,15.000000,0.887500,-8.487500,33.100002,0.0,1.000000,0.000000,0.000000,0.000000
1782115719.311671,222660,-0.103516,0.287598,0.898926,-10.000000,-36.402439,14.695123,0.612500,-8.968750,32.818752,0.0,1.000000,0.000000,0.000000,0.000000
1782115719.321671,222670,-0.082520,0.276367,0.895020,-7.134147,-35.914635,14.939025,0.612500,-8.968750,32.818752,0.0,1.000000,0.000000,0.000000,0.000000
1782115719.331671,222680,-0.067871,0.275879,0.898438,-3.048780,-36.341465,15.487805,0.406250,-9.331250,32.656250,0.0,1.000000,0.000000,0.000000,0.000000
1782115719.343671,222692,-0.048828,0.281738,0.904785,1.402439,-36.707317,15.548780,0.268750,-9.850000,32.375000,0.0,1.000000,0.000000,0.000000,0.000000
1782115719.351671,222700,-0.026855,0.288086,0.898926,4.634146,-36.097561,15.609756,0.268750,-9.850000,32.375000,0.0,1.000000,0.000000,0.000000,0.000000
1782115719.362671,222711,-0.007812,0.302734,0.891602,7.439024,-33.719513,15.365854,0.331250,-10.156250,32.181252,0.0,1.000000,0.000000,0.000000,0.000000
1782115719.372671,222721,0.003418,0.318359,0.889648,9.695122,-32.743904,15.304878,0.331250,-10.156250,32.181252,0.0,1.000000,0.000000,0.000000,0.000000
1782115719.383671,222732,0.022461,0.325684,0.895508,11.097561,-31.219513,14.573171,0.325000,-10.593750,32.018749,0.0,1.000000,0.000000,0.000000,0.000000
1782115719.392671,222741,0.035156,0.333984,0.894043,10.792684,-29.085367,13.353659,0.325000,-10.593750,32.018749,0.0,1.000000,0.000000,0.000000,0.000000
1782115719.401671,222750,0.046875,0.349121,0.878906,8.963415,-27.560976,11.707317,0.406250,-10.906250,31.862501,0.0,1.000000,0.000000,0.000000,0.000000
1782115719.411671,222760,0.057129,0.366211,0.861816,8.109756,-26.219513,10.182927,0.406250,-10.906250,31.862501,0.0,1.000000,0.000000,0.000000,0.000000
1782115719.424671,222773,0.068359,0.375488,0.857910,7.926829,-24.268293,9.207317,0.631250,-10.956250,31.675001,0.0,1.000000,0.000000,0.000000,0.000000
1782115719.432671,222781,0.077637,0.380859,0.854492,7.560976,-21.951220,8.963415,0.631250,-10.956250,31.675001,0.0,1.000000,0.000000,0.000000,0.000000
1782115719.442671,222791,0.076660,0.375488,0.834961,7.804878,-19.390244,8.414635,0.537500,-11.387500,31.537500,0.0,1.000000,0.000000,0.000000,0.000000
1782115719.451671,222800,0.080078,0.377930,0.816895,9.146341,-18.048780,8.170732,0.537500,-11.387500,31.537500,0.0,1.000000,0.000000,0.000000,0.000000
1782115719.463671,222812,0.096191,0.371094,0.795898,11.219512,-17.256098,8.231708,0.587500,-11.600000,31.443750,0.0,1.000000,0.000000,0.000000,0.000000
1782115719.471671,222820,0.117676,0.360840,0.779785,11.646341,-15.731708,8.414635,0.587500,-11.600000,31.443750,0.0,1.000000,0.000000,0.000000,0.000000
1782115719.481671,222830,0.144043,0.352051,0.772949,11.768293,-13.231708,8.475610,0.862500,-11.537500,31.431250,0.0,1.000000,0.000000,0.000000,0.000000
1782115719.491671,222840,0.173828,0.347656,0.773926,10.914635,-9.634147,7.926829,0.862500,-11.537500,31.431250,0.0,1.000000,0.000000,0.000000,0.000000
1782115719.501671,222850,0.185059,0.360352,0.771484,8.719512,-4.451220,7.073171,0.781250,-11.825000,31.350000,0.0,1.000000,0.000000,0.000000,0.000000
1782115719.511671,222860,0.167969,0.381348,0.768555,7.560976,-0.548781,5.975610,0.781250,-11.825000,31.350000,0.0,1.000000,0.000000,0.000000,0.000000
1782115719.521671,222870,0.167969,0.381348,0.768555,7.560976,-0.548781,5.975610,0.918750,-11.700000,31.368750,0.0,1.000000,0.000000,0.000000,0.000000
1782115719.531671,222880,0.144531,0.399414,0.778809,8.231708,2.134146,4.878049,0.918750,-11.700000,31.368750,0.0,1.000000,0.000000,0.000000,0.000000
1782115719.541671,222890,0.107910,0.409180,0.804688,8.353659,3.475610,4.268293,0.875000,-11.906250,31.362501,0.0,1.000000,0.000000,0.000000,0.000000
1782115719.551671,222900,0.072266,0.412109,0.833984,6.707317,3.292683,3.780488,0.875000,-11.906250,31.362501,0.0,1.000000,0.000000,0.000000,0.000000
1782115719.561671,222910,0.013184,0.404785,0.899414,5.609756,0.609756,2.865854,1.137500,-11.643750,31.487501,0.0,1.000000,0.000000,0.000000,0.000000
1782115719.571671,222920,0.013184,0.404785,0.899414,5.609756,0.609756,2.865854,1.137500,-11.643750,31.487501,0.0,1.000000,0.000000,0.000000,0.000000
1782115719.582671,222931,-0.000488,0.401367,0.929199,6.097561,-0.365854,2.012195,0.950000,-11.850000,31.412500,0.0,1.000000,0.000000,0.000000,0.000000
1782115719.592671,222941,-0.004395,0.403320,0.951660,6.707317,-0.975610,1.768293,0.950000,-11.850000,31.412500,0.0,1.000000,0.000000,0.000000,0.000000
1782115719.602671,222951,0.011230,0.413086,0.965332,6.829268,-1.036585,1.951220,1.118750,-11.700000,31.587500,0.0,1.000000,0.000000,0.000000,0.000000
1782115719.612671,222961,0.031738,0.417480,0.977539,6.890244,-1.097561,2.195122,1.118750,-11.700000,31.587500,0.0,1.000000,0.000000,0.000000,0.000000
1782115719.621671,222970,0.049805,0.425781,0.974609,6.341464,-0.487805,2.621951,1.112500,-11.862500,31.493750,0.0,1.000000,0.000000,0.000000,0.000000
1782115719.631671,222980,0.057129,0.426270,0.963867,6.585366,-0.670732,3.231707,1.112500,-11.862500,31.493750,0.0,1.000000,0.000000,0.000000,0.000000
1782115719.641671,222990,0.055176,0.417480,0.939941,6.585366,-0.975610,3.536585,1.187500,-11.768750,31.537500,0.0,1.000000,0.000000,0.000000,0.000000
1782115719.651671,223000,0.049316,0.413574,0.911133,5.731708,-1.585366,3.780488,1.187500,-11.768750,31.537500,0.0,1.000000,0.000000,0.000000,0.000000
1782115719.661671,223010,0.046875,0.414551,0.883301,4.695122,-2.195122,3.963415,1.243750,-11.843750,31.581251,0.0,1.000000,0.000000,0.000000,0.000000
1782115719.672671,223021,0.050293,0.416504,0.867188,3.414634,-2.865854,3.597561,1.400000,-11.712501,31.593750,0.0,1.000000,0.000000,0.000000,0.000000
1782115719.682671,223031,0.055176,0.421875,0.870117,1.524390,-1.951220,3.048780,1.400000,-11.712501,31.593750,0.0,1.000000,0.000000,0.000000,0.000000
1782115719.691671,223040,0.056641,0.430664,0.890137,-0.121951,-0.243902,2.378049,1.306250,-11.787500,31.562500,0.0,1.000000,0.000000,0.000000,0.000000
1782115719.701671,223050,0.051758,0.440918,0.905273,-1.097561,0.792683,1.707317,1.306250,-11.787500,31.562500,0.0,1.000000,0.000000,0.000000,0.000000
1782115719.711671,223060,0.047852,0.447266,0.906738,-2.073171,1.036585,0.914634,1.312500,-11.756250,31.587500,0.0,1.000000,0.000000,0.000000,0.000000
1782115719.721671,223070,0.047852,0.449707,0.905273,-3.414634,0.487805,0.304878,1.312500,-11.756250,31.587500,0.0,1.000000,0.000000,0.000000,0.000000
1782115719.731671,223080,0.043945,0.443359,0.906738,-5.000000,0.792683,0.487805,1.175000,-11.818750,31.550001,0.0,1.000000,0.000000,0.000000,0.000000
1782115719.741671,223090,0.042480,0.425293,0.900391,-6.707317,0.548781,0.731707,1.175000,-11.818750,31.550001,0.0,1.000000,0.000000,0.000000,0.000000
1782115719.751671,223100,0.038086,0.403809,0.893555,-7.378049,0.670732,1.036585,1.231250,-11.643750,31.600000,0.0,1.000000,0.000000,0.000000,0.000000
1782115719.761671,223110,0.039062,0.383789,0.891602,-6.402439,-0.365854,0.792683,1.231250,-11.643750,31.600000,0.0,1.000000,0.000000,0.000000,0.000000
1782115719.772671,223121,0.044434,0.374512,0.886230,-5.182927,-0.548781,0.792683,1.025000,-11.731250,31.537500,0.0,1.000000,0.000000,0.000000,0.000000
1782115719.781671,223130,0.053223,0.374023,0.890625,-3.841464,-0.426829,0.914634,1.025000,-11.731250,31.537500,0.0,1.000000,0.000000,0.000000,0.000000
1782115719.791671,223140,0.066406,0.380859,0.899902,-1.829268,-0.182927,1.280488,0.956250,-11.775001,31.525000,0.0,1.000000,0.000000,0.000000,0.000000
1782115719.802671,223151,0.078125,0.389160,0.912109,0.548781,0.365854,1.524390,0.956250,-11.775001,31.525000,0.0,1.000000,0.000000,0.000000,0.000000
1782115719.812671,223161,0.087402,0.400391,0.917480,2.621951,0.670732,1.402439,0.931250,-11.806251,31.518751,0.0,1.000000,0.000000,0.000000,0.000000
1782115719.821671,223170,0.086426,0.410156,0.918945,4.512195,0.853659,1.158537,0.931250,-11.806251,31.518751,0.0,1.000000,0.000000,0.000000,0.000000
1782115719.832671,223181,0.082520,0.419434,0.917969,5.609756,1.036585,1.097561,1.025000,-11.737500,31.556250,0.0,1.000000,0.000000,0.000000,0.000000
1782115719.842671,223191,0.069336,0.424316,0.909668,4.695122,1.646341,1.829268,1.025000,-11.737500,31.556250,0.0,1.000000,0.000000,0.000000,0.000000
1782115719.851671,223200,0.055664,0.422852,0.899902,2.743902,1.707317,2.134146,1.112500,-11.700000,31.587500,0.0,1.000000,0.000000,0.000000,0.000000
1782115719.862671,223211,0.052246,0.419922,0.892578,0.792683,1.341463,1.707317,1.112500,-11.700000,31.587500,0.0,1.000000,0.000000,0.000000,0.000000
1782115719.871671,223220,0.055176,0.422852,0.881836,-1.158537,1.829268,1.097561,1.225000,-11.550000,31.625000,0.0,1.000000,0.000000,0.000000,0.000000
1782115719.881671,223230,0.060059,0.427246,0.879883,-2.560976,2.743902,0.609756,1.225000,-11.550000,31.625000,0.0,1.000000,0.000000,0.000000,0.000000
1782115719.891671,223240,0.064941,0.430176,0.885742,-3.719512,3.353659,0.243902,1.050000,-11.725000,31.587500,0.0,1.000000,0.000000,0.000000,0.000000
1782115719.901671,223250,0.065430,0.426270,0.894043,-4.329268,3.780488,0.548781,1.050000,-11.725000,31.587500,0.0,1.000000,0.000000,0.000000,0.000000
1782115719.911671,223260,0.069824,0.416992,0.905273,-4.268293,3.048780,0.731707,0.943750,-11.668750,31.612501,0.0,1.000000,0.000000,0.000000,0.000000
1782115719.921671,223270,0.079102,0.409180,0.900391,-4.817073,2.682927,0.853659,0.943750,-11.668750,31.612501,0.0,1.000000,0.000000,0.000000,0.000000
1782115719.931671,223280,0.090332,0.405762,0.882812,-5.609756,3.536585,1.219512,0.843750,-11.662500,31.650000,0.0,1.000000,0.000000,0.000000,0.000000
1782115719.942671,223291,0.091309,0.403809,0.874512,-6.280488,5.182927,1.951220,0.843750,-11.662500,31.650000,0.0,1.000000,0.000000,0.000000,0.000000
1782115719.952671,223301,0.089355,0.404785,0.873047,-7.865854,6.707317,2.743902,0.700000,-11.662500,31.587500,0.0,1.000000,0.000000,0.000000,0.000000
1782115719.961671,223310,0.081055,0.404785,0.867676,-10.487805,7.865854,3.414634,0.700000,-11.662500,31.587500,0.0,1.000000,0.000000,0.000000,0.000000
1782115719.971671,223320,0.073242,0.405273,0.863281,-13.109756,9.390244,3.597561,0.681250,-11.450000,31.662500,0.0,1.000000,0.000000,0.000000,0.000000
1782115719.981671,223330,0.067383,0.394531,0.856445,-15.609756,11.097561,2.865854,0.687500,-11.137500,31.712500,0.0,1.000000,0.000000,0.000000,0.000000
1782115719.991671,223340,0.067383,0.384277,0.858398,-18.170732,13.902439,1.707317,0.687500,-11.137500,31.712500,0.0,1.000000,0.000000,0.000000,0.000000
1782115720.002671,223351,0.068848,0.377441,0.865234,-19.939024,16.341463,0.243902,0.243750,-11.168750,31.687500,0.0,1.000000,0.000000,0.000000,0.000000
1782115720.011671,223360,0.063965,0.361328,0.870605,-20.853659,18.475611,-1.280488,0.243750,-11.168750,31.687500,0.0,1.000000,0.000000,0.000000,0.000000
1782115720.021671,223370,0.063477,0.339355,0.868164,-22.134148,20.853659,-4.146341,-0.087500,-11.000000,31.800001,0.0,1.000000,0.000000,0.000000,0.000000
1782115720.031671,223380,0.054688,0.330566,0.854004,-22.500000,22.804878,-6.890244,-0.087500,-11.000000,31.800001,0.0,1.000000,0.000000,0.000000,0.000000
1782115720.041671,223390,0.037598,0.317871,0.845703,-21.463415,23.902439,-8.902439,-0.187500,-10.656250,31.856251,0.0,1.000000,0.000000,0.000000,0.000000
1782115720.051671,223400,0.025391,0.300781,0.848633,-17.926830,24.512196,-10.609756,-0.187500,-10.656250,31.856251,0.0,1.000000,0.000000,0.000000,0.000000
1782115720.061671,223410,0.020020,0.291504,0.833984,-12.073171,25.000000,-11.951220,-0.237500,-10.218750,31.968750,0.0,1.000000,0.000000,0.000000,0.000000
1782115720.071671,223420,0.039551,0.291016,0.812500,-4.817073,26.707317,-13.475610,-0.237500,-10.218750,31.968750,0.0,1.000000,0.000000,0.000000,0.000000
1782115720.081671,223430,0.062500,0.301270,0.783203,1.280488,29.756098,-15.121951,-0.225000,-10.025001,32.106251,0.0,1.000000,0.000000,0.000000,0.000000
1782115720.091671,223440,0.074219,0.319824,0.760254,4.878049,32.926830,-15.853659,-0.225000,-10.025001,32.106251,0.0,1.000000,0.000000,0.000000,0.000000
1782115720.101671,223450,0.081543,0.337891,0.743652,6.219512,37.073170,-16.341463,-0.225000,-9.743751,32.237499,0.0,1.000000,0.000000,0.000000,0.000000
1782115720.111671,223460,0.067871,0.356934,0.740234,5.487805,41.768295,-16.158537,-0.225000,-9.743751,32.237499,0.0,1.000000,0.000000,0.000000,0.000000
1782115720.121671,223470,0.039062,0.366211,0.759277,3.841464,46.097561,-15.121951,-0.062500,-9.237500,32.518749,0.0,1.000000,0.000000,0.000000,0.000000
1782115720.131671,223480,-0.015137,0.376465,0.802734,1.646341,48.963417,-13.536586,-0.062500,-9.237500,32.518749,0.0,1.000000,0.000000,0.000000,0.000000
1782115720.143671,223492,-0.078125,0.394531,0.842773,-1.097561,48.658539,-12.500000,0.056250,-8.675000,32.787502,0.0,1.000000,0.000000,0.000000,0.000000
1782115720.151671,223500,-0.145508,0.409180,0.893555,-4.878049,45.853661,-11.768293,0.056250,-8.675000,32.787502,0.0,1.000000,0.000000,0.000000,0.000000
1782115720.161671,223510,-0.203613,0.422852,0.953613,-9.024390,40.426830,-11.463415,0.118750,-7.968750,33.087502,0.0,1.000000,0.000000,0.000000,0.000000
1782115720.172671,223521,-0.235840,0.440918,1.001953,-14.329268,34.451221,-11.768293,0.118750,-7.968750,33.087502,0.0,1.000000,0.000000,0.000000,0.000000
1782115720.181671,223530,-0.236328,0.446289,1.047363,-18.231709,27.682928,-12.317074,-0.087500,-7.556250,33.275002,0.0,1.000000,0.000000,0.000000,0.000000
1782115720.192671,223541,-0.186523,0.441406,1.073242,-22.682928,22.378050,-13.475610,-0.087500,-7.556250,33.275002,0.0,1.000000,0.000000,0.000000,0.000000
1782115720.201671,223550,-0.123047,0.438477,1.081055,-27.378050,20.365854,-13.475610,-0.237500,-7.187500,33.281250,0.0,1.000000,0.000000,0.000000,0.000000
1782115720.212671,223561,-0.064941,0.415527,1.081543,-30.914635,20.670732,-13.048780,-0.237500,-7.187500,33.281250,0.0,1.000000,0.000000,0.000000,0.000000
1782115720.221671,223570,-0.035156,0.383789,1.065918,-33.780487,22.743902,-11.707317,-0.706250,-7.018750,33.299999,0.0,1.000000,0.000000,0.000000,0.000000
1782115720.232671,223581,-0.049316,0.337891,1.050781,-34.268295,24.207317,-10.000000,-0.706250,-7.018750,33.299999,0.0,1.000000,0.000000,0.000000,0.000000
1782115720.242671,223591,-0.092285,0.304688,1.058105,-29.756098,23.353659,-8.597561,-0.962500,-6.606250,33.350002,0.0,1.000000,0.000000,0.000000,0.000000
1782115720.252671,223601,-0.163086,0.300293,1.088867,-21.646341,17.682928,-6.280488,-0.962500,-6.606250,33.350002,0.0,1.000000,0.000000,0.000000,0.000000
1782115720.261671,223610,-0.256836,0.312012,1.119629,-13.414635,7.439024,-1.829268,-1.368750,-6.468750,33.424999,0.0,1.000000,0.000000,0.000000,0.000000
1782115720.271671,223620,-0.334473,0.309570,1.133301,-4.878049,-7.317073,3.048780,-1.518750,-6.393750,33.468750,0.0,1.000000,0.000000,0.000000,0.000000
1782115720.281671,223630,-0.324707,0.320312,1.098145,1.463415,-19.573172,6.524390,-1.518750,-6.393750,33.468750,0.0,1.000000,0.000000,0.000000,0.000000
1782115720.291671,223640,-0.230469,0.349121,1.037598,1.768293,-23.841463,8.292683,-1.531250,-6.700000,33.424999,0.0,1.000000,0.000000,0.000000,0.000000
1782115720.301671,223650,-0.114258,0.370117,0.970215,-2.134146,-21.402439,8.841464,-1.531250,-6.700000,33.424999,0.0,1.000000,0.000000,0.000000,0.000000
1782115720.311671,223660,-0.006348,0.377930,0.914551,-7.134147,-15.000000,8.109756,-1.512500,-6.862500,33.412502,0.0,1.000000,0.000000,0.000000,0.000000
1782115720.321671,223670,0.056641,0.390625,0.870605,-12.500000,-7.134147,7.621952,-1.512500,-6.862500,33.412502,0.0,1.000000,0.000000,0.000000,0.000000
1782115720.331671,223680,0.077637,0.400879,0.845215,-16.402439,-0.914634,7.317073,-1.700000,-7.062500,33.356251,0.0,1.000000,0.000000,0.000000,0.000000
1782115720.341671,223690,0.074219,0.398926,0.842285,-17.804878,3.963415,6.524390,-1.700000,-7.062500,33.356251,0.0,1.000000,0.000000,0.000000,0.000000
1782115720.351671,223700,0.025879,0.386230,0.858398,-17.256098,6.707317,6.219512,-1.943750,-7.081250,33.350002,0.0,1.000000,0.000000,0.000000,0.000000
1782115720.362671,223711,-0.036621,0.360840,0.887695,-15.487805,6.463415,6.951220,-1.943750,-7.081250,33.350002,0.0,1.000000,0.000000,0.000000,0.000000
1782115720.371671,223720,-0.107910,0.329590,0.931152,-14.756098,2.987805,8.353659,-2.181250,-6.968750,33.406250,0.0,1.000000,0.000000,0.000000,0.000000
1782115720.382671,223731,-0.160645,0.305176,0.965332,-16.890244,2.378049,9.024390,-2.181250,-6.968750,33.406250,0.0,1.000000,0.000000,0.000000,0.000000
1782115720.392671,223741,-0.208984,0.299316,0.992188,-21.341463,0.792683,9.268292,-2.362500,-6.875000,33.368752,0.0,1.000000,0.000000,0.000000,0.000000
1782115720.401671,223750,-0.208984,0.299316,0.992188,-21.341463,0.792683,9.268292,-2.362500,-6.875000,33.368752,0.0,1.000000,0.000000,0.000000,0.000000
1782115720.412671,223761,-0.240723,0.320801,1.046387,-35.000000,-1.280488,8.231708,-2.800000,-7.000000,33.268749,0.0,1.000000,0.000000,0.000000,0.000000
1782115720.421671,223770,-0.240723,0.320801,1.046387,-35.000000,-1.280488,8.231708,-2.800000,-7.000000,33.268749,0.0,1.000000,0.000000,0.000000,0.000000
1782115720.431671,223780,-0.229492,0.340332,1.045410,-42.439026,-1.524390,7.682927,-3.437500,-7.193750,33.156250,0.0,1.000000,0.000000,0.000000,0.000000
1782115720.441671,223790,-0.205566,0.342773,1.030273,-46.890244,-1.341463,6.280488,-3.437500,-7.193750,33.156250,0.0,1.000000,0.000000,0.000000,0.000000
1782115720.451671,223800,-0.176758,0.319336,1.009277,-47.804878,-1.097561,4.451220,-4.112500,-7.312500,32.875000,0.0,1.000000,0.000000,0.000000,0.000000
1782115720.461671,223810,-0.137207,0.283691,0.985840,-45.853661,-0.121951,1.829268,-4.112500,-7.312500,32.875000,0.0,1.000000,0.000000,0.000000,0.000000
1782115720.471671,223820,-0.099609,0.247070,0.966309,-42.378048,0.914634,-1.402439,-4.731250,-7.481250,32.737499,0.0,1.000000,0.000000,0.000000,0.000000
1782115720.481671,223830,-0.071289,0.214844,0.946289,-38.292683,2.439024,-3.963415,-4.731250,-7.481250,32.737499,0.0,1.000000,0.000000,0.000000,0.000000
1782115720.491671,223840,-0.077148,0.193359,0.937500,-32.926830,0.365854,-4.939024,-5.162500,-7.450000,32.506252,0.0,1.000000,0.000000,0.000000,0.000000
1782115720.501671,223850,-0.041992,0.159180,0.923340,-25.304878,4.024390,-5.304878,-5.162500,-7.450000,32.506252,0.0,1.000000,0.000000,0.000000,0.000000
1782115720.511671,223860,-0.058594,0.126953,0.921875,-16.646341,5.243903,-4.390244,-5.587500,-7.543750,32.331249,0.0,1.000000,0.000000,0.000000,0.000000
1782115720.521671,223870,-0.083984,0.106445,0.922363,-7.987805,4.451220,-2.987805,-5.587500,-7.543750,32.331249,0.0,1.000000,0.000000,0.000000,0.000000
1782115720.531671,223880,-0.105957,0.104492,0.928711,0.000000,2.500000,-1.463415,-5.568750,-7.450000,32.356251,0.0,1.000000,0.000000,0.000000,0.000000
1782115720.541671,223890,-0.118164,0.120605,0.937012,7.012195,0.609756,-0.121951,-5.568750,-7.450000,32.356251,0.0,1.000000,0.000000,0.000000,0.000000
1782115720.553671,223902,-0.128906,0.149902,0.947754,12.926829,-1.097561,1.341463,-5.637500,-7.468750,32.381252,0.0,1.000000,0.000000,0.000000,0.000000
1782115720.561671,223910,-0.127441,0.175293,0.961914,17.500000,-3.475610,2.256098,-5.637500,-7.468750,32.381252,0.0,1.000000,0.000000,0.000000,0.000000
1782115720.571671,223920,-0.113770,0.199219,0.967285,19.695122,-5.060976,3.048780,-5.325000,-7.387500,32.424999,0.0,1.000000,0.000000,0.000000,0.000000
1782115720.581671,223930,-0.090332,0.222656,0.969727,20.426830,-6.280488,3.170732,-5.175000,-7.568750,32.493752,0.0,1.000000,0.000000,0.000000,0.000000
1782115720.592671,223941,-0.064941,0.247559,0.968750,19.573172,-5.853659,3.109756,-5.175000,-7.568750,32.493752,0.0,1.000000,0.000000,0.000000,0.000000
1782115720.601671,223950,-0.048340,0.270020,0.973633,17.804878,-4.634146,2.987805,-4.837500,-7.462500,32.600002,0.0,1.000000,0.000000,0.000000,0.000000
1782115720.611671,223960,-0.038086,0.289551,0.978027,15.365854,-3.170732,2.804878,-4.837500,-7.462500,32.600002,0.0,1.000000,0.000000,0.000000,0.000000
1782115720.621671,223970,-0.031738,0.305664,0.981934,12.621951,-1.768293,2.865854,-4.650000,-7.462500,32.650002,0.0,1.000000,0.000000,0.000000,0.000000
1782115720.632671,223981,-0.032227,0.315430,0.986328,9.695122,-0.609756,2.743902,-4.650000,-7.462500,32.650002,0.0,1.000000,0.000000,0.000000,0.000000
1782115720.641671,223990,-0.037109,0.316895,0.983398,5.609756,0.121951,2.012195,-4.537500,-7.456250,32.737499,0.0,1.000000,0.000000,0.000000,0.000000
1782115720.652671,224001,-0.048828,0.318359,0.969238,0.487805,1.219512,1.341463,-4.537500,-7.456250,32.737499,0.0,1.000000,0.000000,0.000000,0.000000
1782115720.661671,224010,-0.065430,0.313477,0.959473,-3.231707,2.378049,1.036585,-4.362500,-7.212500,32.762501,0.0,1.000000,0.000000,0.000000,0.000000
1782115720.671671,224020,-0.082520,0.300781,0.956055,-5.365854,2.560976,0.914634,-4.362500,-7.212500,32.762501,0.0,1.000000,0.000000,0.000000,0.000000
1782115720.681671,224030,-0.096191,0.286133,0.953125,-6.524390,1.768293,0.670732,-4.606250,-7.331250,32.674999,0.0,1.000000,0.000000,0.000000,0.000000
1782115720.691671,224040,-0.103027,0.272461,0.952148,-7.256098,0.975610,0.426829,-4.606250,-7.331250,32.674999,0.0,1.000000,0.000000,0.000000,0.000000
1782115720.701671,224050,-0.102539,0.260742,0.948730,-7.682927,0.182927,0.243902,-4.768750,-7.462500,32.681252,0.0,1.000000,0.000000,0.000000,0.000000
1782115720.713671,224062,-0.099609,0.251953,0.946777,-8.048780,-0.304878,0.243902,-4.768750,-7.462500,32.681252,0.0,1.000000,0.000000,0.000000,0.000000
1782115720.721671,224070,-0.097168,0.244629,0.950195,-7.317073,-0.304878,0.853659,-4.943750,-7.437500,32.600002,0.0,1.000000,0.000000,0.000000,0.000000
1782115720.731671,224080,-0.095215,0.240234,0.958984,-5.365854,-0.548781,1.524390,-4.943750,-7.437500,32.600002,0.0,1.000000,0.000000,0.000000,0.000000
1782115720.741671,224090,-0.086426,0.238770,0.963379,-2.865854,-0.365854,2.317073,-5.000000,-7.475000,32.706249,0.0,1.000000,0.000000,0.000000,0.000000
1782115720.751671,224100,-0.085449,0.236816,0.970215,-0.182927,0.243902,3.414634,-5.000000,-7.475000,32.706249,0.0,1.000000,0.000000,0.000000,0.000000
1782115720.761671,224110,-0.083496,0.233398,0.973633,1.280488,0.670732,3.780488,-5.018750,-7.450000,32.662502,0.0,1.000000,0.000000,0.000000,0.000000
1782115720.771671,224120,-0.083008,0.233398,0.969727,0.670732,1.585366,3.658537,-5.018750,-7.450000,32.662502,0.0,1.000000,0.000000,0.000000,0.000000
1782115720.781671,224130,-0.085938,0.243164,0.968262,-0.182927,3.109756,3.841464,-5.068750,-7.525000,32.549999,0.0,1.000000,0.000000,0.000000,0.000000
1782115720.793671,224142,-0.095703,0.250488,0.973145,-0.243902,4.207317,4.207317,-5.068750,-7.525000,32.549999,0.0,1.000000,0.000000,0.000000,0.000000
1782115720.801671,224150,-0.105469,0.256348,0.977051,0.121951,4.817073,4.451220,-5.050000,-7.393750,32.656250,0.0,1.000000,0.000000,0.000000,0.000000
1782115720.811671,224160,-0.113770,0.260742,0.975098,0.060976,4.878049,4.451220,-5.050000,-7.393750,32.656250,0.0,1.000000,0.000000,0.000000,0.000000
1782115720.822671,224171,-0.116211,0.256836,0.963867,-0.792683,5.182927,4.146341,-5.068750,-7.393750,32.668751,0.0,1.000000,0.000000,0.000000,0.000000
1782115720.834671,224183,-0.114746,0.254883,0.950684,-0.548781,4.268293,3.597561,-5.093750,-7.237500,32.674999,0.0,1.000000,0.000000,0.000000,0.000000
1782115720.841671,224190,-0.111816,0.258301,0.943848,0.609756,3.597561,3.109756,-5.093750,-7.237500,32.674999,0.0,1.000000,0.000000,0.000000,0.000000
1782115720.851671,224200,-0.109863,0.265137,0.945312,1.829268,3.231707,2.804878,-5.093750,-7.237500,32.674999,0.0,1.000000,0.000000,0.000000,0.000000
1782115720.861671,224210,-0.110840,0.274414,0.952637,2.073171,3.048780,2.804878,-5.118750,-7.237500,32.662502,0.0,1.000000,0.000000,0.000000,0.000000
1782115720.873671,224222,-0.114258,0.276367,0.959473,1.402439,2.682927,2.743902,-5.106250,-7.200000,32.643749,0.0,1.000000,0.000000,0.000000,0.000000
1782115720.881671,224230,-0.111816,0.275391,0.959961,-0.487805,2.682927,2.256098,-5.106250,-7.200000,32.643749,0.0,1.000000,0.000000,0.000000,0.000000
1782115720.891671,224240,-0.108887,0.268555,0.959961,-2.987805,2.865854,1.890244,-5.100000,-7.118750,32.656250,0.0,1.000000,0.000000,0.000000,0.000000
1782115720.901671,224250,-0.104980,0.258789,0.964355,-4.634146,2.987805,1.646341,-5.100000,-7.118750,32.656250,0.0,1.000000,0.000000,0.000000,0.000000
1782115720.914671,224263,-0.098145,0.250977,0.965820,-6.219512,3.292683,1.341463,-5.175000,-7.062500,32.631252,0.0,1.000000,0.000000,0.000000,0.000000
1782115720.922671,224271,-0.099609,0.242676,0.962891,-7.073171,3.658537,1.585366,-5.175000,-7.062500,32.631252,0.0,1.000000,0.000000,0.000000,0.000000
1782115720.931671,224280,-0.100586,0.231934,0.964844,-5.853659,3.536585,2.073171,-5.218750,-7.006250,32.668751,0.0,1.000000,0.000000,0.000000,0.000000
1782115720.943671,224292,-0.104004,0.219727,0.963379,-4.390244,2.743902,1.768293,-5.218750,-7.006250,32.668751,0.0,1.000000,0.000000,0.000000,0.000000
1782115720.952671,224301,-0.104492,0.215820,0.952148,-3.536585,2.317073,1.219512,-5.287500,-6.943750,32.625000,0.0,1.000000,0.000000,0.000000,0.000000
1782115720.961671,224310,-0.109375,0.213379,0.945801,-1.768293,2.256098,0.975610,-5.287500,-6.943750,32.625000,0.0,1.000000,0.000000,0.000000,0.000000
1782115720.971671,224320,-0.116699,0.213379,0.946289,0.609756,2.134146,0.914634,-4.781250,-6.343750,32.662502,0.0,1.000000,0.000000,0.000000,0.000000
1782115720.981671,224330,-0.124512,0.216797,0.949219,3.048780,2.012195,1.280488,-4.781250,-6.343750,32.662502,0.0,1.000000,0.000000,0.000000,0.000000
1782115720.992671,224341,-0.127930,0.221680,0.957520,5.365854,1.158537,1.402439,-5.325000,-6.925000,32.631252,0.0,1.000000,0.000000,0.000000,0.000000
1782115721.002671,224351,-0.126953,0.229980,0.965820,6.341464,0.670732,1.219512,-5.325000,-6.925000,32.631252,0.0,1.000000,0.000000,0.000000,0.000000
1782115721.011671,224360,-0.125000,0.234863,0.963379,4.878049,0.487805,0.731707,-5.125000,-6.731250,32.581249,0.0,1.000000,0.000000,0.000000,0.000000
1782115721.021671,224370,-0.124023,0.240723,0.957520,3.414634,0.670732,0.304878,-5.125000,-6.731250,32.581249,0.0,1.000000,0.000000,0.000000,0.000000
1782115721.031671,224380,-0.122070,0.246094,0.957031,2.743902,0.975610,0.182927,-5.256250,-6.875000,32.600002,0.0,1.000000,0.000000,0.000000,0.000000
1782115721.042671,224391,-0.119629,0.250977,0.961914,2.621951,0.731707,-0.121951,-5.256250,-6.875000,32.600002,0.0,1.000000,0.000000,0.000000,0.000000
1782115721.051671,224400,-0.112305,0.251953,0.964844,2.378049,0.060976,-0.548781,-5.118750,-6.837500,32.662502,0.0,1.000000,0.000000,0.000000,0.000000
1782115721.061671,224410,-0.098633,0.252930,0.961914,1.402439,-0.243902,-0.975610,-5.118750,-6.837500,32.662502,0.0,1.000000,0.000000,0.000000,0.000000
1782115721.072671,224421,-0.089355,0.251465,0.957520,0.365854,-0.304878,-1.280488,-5.162500,-6.856250,32.612499,0.0,1.000000,0.000000,0.000000,0.000000
1782115721.081671,224430,-0.083984,0.255371,0.950684,-0.853659,-0.182927,-1.158537,-5.162500,-6.856250,32.612499,0.0,1.000000,0.000000,0.000000,0.000000
1782115721.091671,224440,-0.089355,0.255371,0.952637,-1.524390,0.060976,-0.548781,-5.187500,-6.906250,32.575001,0.0,1.000000,0.000000,0.000000,0.000000
1782115721.101671,224450,-0.093750,0.253906,0.958984,-0.975610,0.243902,0.426829,-5.187500,-6.906250,32.575001,0.0,1.000000,0.000000,0.000000,0.000000
1782115721.111671,224460,-0.099121,0.247070,0.967773,-0.060976,-0.243902,0.975610,-5.262500,-6.918750,32.562500,0.0,1.000000,0.000000,0.000000,0.000000
1782115721.121671,224470,-0.095215,0.240234,0.969238,0.060976,-0.365854,0.975610,-5.262500,-6.918750,32.562500,0.0,1.000000,0.000000,0.000000,0.000000
1782115721.131671,224480,-0.083496,0.234863,0.964355,-0.365854,-0.365854,0.548781,-5.193750,-6.806250,32.643749,0.0,1.000000,0.000000,0.000000,0.000000
1782115721.141671,224490,-0.073730,0.236328,0.956055,-1.524390,0.487805,0.609756,-5.193750,-6.806250,32.643749,0.0,1.000000,0.000000,0.000000,0.000000
1782115721.151671,224500,-0.074219,0.239746,0.953125,-1.829268,1.341463,1.402439,-5.312500,-6.956250,32.562500,0.0,1.000000,0.000000,0.000000,0.000000
1782115721.161671,224510,-0.076660,0.239258,0.958496,-0.182927,0.548781,2.256098,-5.312500,-6.956250,32.562500,0.0,1.000000,0.000000,0.000000,0.000000
1782115721.171671,224520,-0.077637,0.238770,0.957031,1.463415,-0.060976,2.987805,-5.200000,-6.818750,32.543751,0.0,1.000000,0.000000,0.000000,0.000000
1782115721.182671,224531,-0.081543,0.239746,0.953125,2.865854,-0.731707,3.597561,-5.331250,-6.968750,32.575001,0.0,1.000000,0.000000,0.000000,0.000000
1782115721.192671,224541,-0.087402,0.237793,0.947754,3.536585,-1.097561,4.085366,-5.331250,-6.968750,32.575001,0.0,1.000000,0.000000,0.000000,0.000000
1782115721.201671,224550,-0.095703,0.243652,0.947266,3.963415,-1.219512,4.329268,-5.162500,-6.850000,32.587502,0.0,1.000000,0.000000,0.000000,0.000000
1782115721.211671,224560,-0.104980,0.249512,0.949707,4.207317,-1.402439,4.573171,-5.162500,-6.850000,32.587502,0.0,1.000000,0.000000,0.000000,0.000000
1782115721.221671,224570,-0.104980,0.249512,0.949707,4.207317,-1.402439,4.573171,-5.237500,-6.925000,32.600002,0.0,1.000000,0.000000,0.000000,0.000000
1782115721.231671,224580,-0.113281,0.255371,0.953125,4.634146,-1.280488,4.695122,-5.237500,-6.925000,32.600002,0.0,1.000000,0.000000,0.000000,0.000000
1782115721.243671,224592,-0.114746,0.259277,0.956543,4.817073,-1.463415,4.390244,-5.025000,-6.762500,32.700001,0.0,1.000000,0.000000,0.000000,0.000000
1782115721.251671,224600,-0.118164,0.261230,0.958984,4.573171,-1.463415,4.085366,-5.025000,-6.762500,32.700001,0.0,1.000000,0.000000,0.000000,0.000000
1782115721.261671,224610,-0.112305,0.259277,0.958008,4.024390,-1.646341,3.353659,-5.087500,-6.900000,32.650002,0.0,1.000000,0.000000,0.000000,0.000000
1782115721.271671,224620,-0.105469,0.260254,0.954590,3.292683,-1.524390,2.743902,-5.087500,-6.900000,32.650002,0.0,1.000000,0.000000,0.000000,0.000000
1782115721.281671,224630,-0.102539,0.265137,0.952148,2.560976,-1.036585,2.439024,-5.018750,-6.787500,32.650002,0.0,1.000000,0.000000,0.000000,0.000000
1782115721.291671,224640,-0.103027,0.268066,0.954102,2.012195,-0.914634,2.378049,-5.018750,-6.787500,32.650002,0.0,1.000000,0.000000,0.000000,0.000000
1782115721.301671,224650,-0.105469,0.268555,0.957520,1.646341,-0.975610,2.560976,-5.106250,-6.918750,32.656250,0.0,1.000000,0.000000,0.000000,0.000000
1782115721.311671,224660,-0.109863,0.264160,0.965820,1.402439,-1.524390,2.560976,-5.106250,-6.918750,32.656250,0.0,1.000000,0.000000,0.000000,0.000000
1782115721.321671,224670,-0.110352,0.262207,0.967285,0.792683,-1.829268,2.134146,-5.106250,-6.956250,32.625000,0.0,1.000000,0.000000,0.000000,0.000000
1782115721.332671,224681,-0.111328,0.260254,0.964355,-0.121951,-1.890244,1.402439,-5.106250,-6.956250,32.625000,0.0,1.000000,0.000000,0.000000,0.000000
1782115721.341671,224690,-0.112305,0.260254,0.959961,-0.975610,-1.341463,0.731707,-5.043750,-6.843750,32.718750,0.0,1.000000,0.000000,0.000000,0.000000
1782115721.351671,224700,-0.111816,0.257324,0.958008,-1.463415,-0.670732,0.426829,-5.043750,-6.843750,32.718750,0.0,1.000000,0.000000,0.000000,0.000000
1782115721.361671,224710,-0.111816,0.251465,0.962402,-1.036585,-0.487805,0.182927,-5.125000,-6.950000,32.618752,0.0,1.000000,0.000000,0.000000,0.000000
1782115721.371671,224720,-0.113281,0.245117,0.967285,-0.121951,-0.914634,-0.121951,-5.125000,-6.950000,32.618752,0.0,1.000000,0.000000,0.000000,0.000000
1782115721.381671,224730,-0.112305,0.238770,0.963867,0.121951,-1.219512,-0.609756,-5.162500,-7.018750,32.668751,0.0,1.000000,0.000000,0.000000,0.000000
1782115721.391671,224740,-0.102051,0.238281,0.957031,0.548781,-1.280488,-1.219512,-5.162500,-7.018750,32.668751,0.0,1.000000,0.000000,0.000000,0.000000
1782115721.401671,224750,-0.099121,0.243164,0.953613,1.036585,-0.914634,-1.097561,-5.150000,-7.018750,32.637501,0.0,1.000000,0.000000,0.000000,0.000000
1782115721.412671,224761,-0.096680,0.243164,0.954590,1.829268,-0.548781,-0.670732,-5.150000,-7.018750,32.637501,0.0,1.000000,0.000000,0.000000,0.000000
1782115721.421671,224770,-0.086914,0.246582,0.955566,2.134146,-0.609756,-0.304878,-5.068750,-6.975000,32.600002,0.0,1.000000,0.000000,0.000000,0.000000
1782115721.431671,224780,-0.076660,0.250977,0.959961,2.560976,-0.548781,0.121951,-5.068750,-6.975000,32.600002,0.0,1.000000,0.000000,0.000000,0.000000
1782115721.441671,224790,-0.073242,0.255371,0.959961,2.073171,-0.426829,0.670732,-5.093750,-7.056250,32.656250,0.0,1.000000,0.000000,0.000000,0.000000
1782115721.451671,224800,-0.074219,0.258301,0.955078,0.487805,-0.304878,1.158537,-5.093750,-7.056250,32.656250,0.0,1.000000,0.000000,0.000000,0.000000
1782115721.461671,224810,-0.083496,0.258789,0.945312,-1.280488,-0.182927,2.134146,-5.043750,-7.018750,32.674999,0.0,1.000000,0.000000,0.000000,0.000000
1782115721.472671,224821,-0.095215,0.261230,0.944824,-2.256098,-0.670732,3.048780,-5.187500,-7.037500,32.662502,0.0,1.000000,0.000000,0.000000,0.000000
1782115721.481671,224830,-0.107422,0.259766,0.947754,-2.195122,-1.402439,3.841464,-5.187500,-7.037500,32.662502,0.0,1.000000,0.000000,0.000000,0.000000
1782115721.491671,224840,-0.113281,0.260254,0.958008,-1.219512,-2.134146,4.390244,-5.100000,-6.968750,32.637501,0.0,1.000000,0.000000,0.000000,0.000000
1782115721.502671,224851,-0.114746,0.251953,0.966309,-0.609756,-2.500000,4.329268,-5.100000,-6.968750,32.637501,0.0,1.000000,0.000000,0.000000,0.000000
1782115721.512671,224861,-0.110352,0.244141,0.963379,-0.731707,-2.560976,4.024390,-5.200000,-7.043750,32.606251,0.0,1.000000,0.000000,0.000000,0.000000
1782115721.521671,224870,-0.102539,0.243652,0.956543,-0.426829,-2.500000,3.597561,-5.200000,-7.043750,32.606251,0.0,1.000000,0.000000,0.000000,0.000000
1782115721.531671,224880,-0.094238,0.242188,0.959473,0.853659,-2.134146,2.926829,-5.206250,-7.062500,32.643749,0.0,1.000000,0.000000,0.000000,0.000000
1782115721.541671,224890,-0.087402,0.240234,0.964355,2.134146,-1.402439,2.317073,-5.206250,-7.062500,32.643749,0.0,1.000000,0.000000,0.000000,0.000000
1782115721.552671,224901,-0.079590,0.242676,0.971680,3.658537,-1.585366,1.646341,-4.975000,-6.843750,32.718750,0.0,1.000000,0.000000,0.000000,0.000000
1782115721.562671,224911,-0.069336,0.247070,0.967285,4.085366,-1.280488,0.975610,-4.975000,-6.843750,32.718750,0.0,1.000000,0.000000,0.000000,0.000000
1782115721.572671,224921,-0.063965,0.256836,0.961914,3.902439,-0.670732,0.609756,-5.081250,-6.950000,32.681252,0.0,1.000000,0.000000,0.000000,0.000000
1782115721.581671,224930,-0.069824,0.262695,0.954590,3.597561,-0.304878,0.975610,-5.081250,-6.950000,32.681252,0.0,1.000000,0.000000,0.000000,0.000000
1782115721.592671,224941,-0.081543,0.265625,0.951660,3.048780,-0.182927,1.646341,-5.012500,-7.031250,32.706249,0.0,1.000000,0.000000,0.000000,0.000000
1782115721.602671,224951,-0.094727,0.268555,0.952148,2.500000,-0.487805,2.500000,-5.012500,-7.031250,32.706249,0.0,1.000000,0.000000,0.000000,0.000000
1782115721.612671,224961,-0.105957,0.270508,0.955078,2.439024,-1.036585,3.109756,-5.025000,-7.018750,32.737499,0.0,1.000000,0.000000,0.000000,0.000000
1782115721.622671,224971,-0.112305,0.270508,0.958008,1.829268,-1.524390,3.597561,-5.025000,-7.018750,32.737499,0.0,1.000000,0.000000,0.000000,0.000000
1782115721.631671,224980,-0.112305,0.270020,0.957520,0.914634,-1.768293,3.780488,-5.006250,-6.975000,32.712502,0.0,1.000000,0.000000,0.000000,0.000000
1782115721.641671,224990,-0.113281,0.268555,0.959473,0.182927,-1.158537,3.780488,-5.006250,-6.975000,32.712502,0.0,1.000000,0.000000,0.000000,0.000000
1782115721.651671,225000,-0.117188,0.266602,0.966309,-1.036585,-0.243902,3.719512,-5.125000,-7.093750,32.700001,0.0,1.000000,0.000000,0.000000,0.000000
1782115721.661671,225010,-0.122559,0.264160,0.977539,-2.439024,0.426829,3.353659,-5.125000,-7.093750,32.700001,0.0,1.000000,0.000000,0.000000,0.000000
1782115721.671671,225020,-0.123047,0.265137,0.981934,-4.756098,0.731707,2.926829,-5.200000,-7.081250,32.687500,0.0,1.000000,0.000000,0.000000,0.000000
1782115721.681671,225030,-0.118164,0.264160,0.982910,-6.158537,0.609756,2.195122,-5.200000,-7.081250,32.687500,0.0,1.000000,0.000000,0.000000,0.000000
1782115721.691671,225040,-0.106934,0.251953,0.978516,-6.524390,0.975610,1.158537,-5.262500,-7.018750,32.668751,0.0,1.000000,0.000000,0.000000,0.000000
1782115721.701671,225050,-0.091797,0.241699,0.966797,-6.768293,1.768293,0.121951,-5.262500,-7.018750,32.668751,0.0,1.000000,0.000000,0.000000,0.000000
1782115721.711671,225060,-0.084961,0.233887,0.958496,-6.585366,2.682927,0.060976,-5.412500,-7.081250,32.606251,0.0,1.000000,0.000000,0.000000,0.000000
1782115721.721671,225070,-0.082520,0.224609,0.961426,-5.000000,3.109756,0.731707,-5.412500,-7.081250,32.606251,0.0,1.000000,0.000000,0.000000,0.000000
1782115721.732671,225081,-0.078613,0.219727,0.968750,-3.292683,3.048780,1.585366,-5.368750,-6.931250,32.562500,0.0,1.000000,0.000000,0.000000,0.000000
1782115721.741671,225090,-0.077637,0.219727,0.971680,-2.195122,2.621951,2.073171,-5.368750,-6.931250,32.562500,0.0,1.000000,0.000000,0.000000,0.000000
1782115721.751671,225100,-0.079102,0.221191,0.971191,-1.951220,2.621951,2.134146,-5.500000,-7.050000,32.593750,0.0,1.000000,0.000000,0.000000,0.000000
1782115721.762671,225111,-0.078125,0.227539,0.972656,-1.951220,2.987805,1.951220,-5.475000,-6.931250,32.575001,0.0,1.000000,0.000000,0.000000,0.000000
1782115721.772671,225121,-0.081543,0.235352,0.970215,-1.829268,3.841464,1.646341,-5.475000,-6.931250,32.575001,0.0,1.000000,0.000000,0.000000,0.000000
1782115721.781671,225130,-0.083008,0.242676,0.971191,-1.219512,4.573171,1.463415,-5.525000,-6.856250,32.512501,0.0,1.000000,0.000000,0.000000,0.000000
1782115721.791671,225140,-0.085449,0.241699,0.971191,-0.731707,4.329268,1.036585,-5.525000,-6.856250,32.512501,0.0,1.000000,0.000000,0.000000,0.000000
1782115721.802671,225151,-0.082520,0.246094,0.966797,-1.280488,3.963415,0.487805,-5.531250,-6.775000,32.568752,0.0,1.000000,0.000000,0.000000,0.000000
1782115721.812671,225161,-0.079590,0.244141,0.958984,-1.707317,3.536585,0.060976,-5.531250,-6.775000,32.568752,0.0,1.000000,0.000000,0.000000,0.000000
1782115721.821671,225170,-0.077637,0.246094,0.956055,-2.012195,3.048780,-0.304878,-5.331250,-6.506250,32.593750,0.0,1.000000,0.000000,0.000000,0.000000
1782115721.831671,225180,-0.081055,0.248535,0.957031,-2.134146,3.109756,-0.304878,-5.331250,-6.506250,32.593750,0.0,1.000000,0.000000,0.000000,0.000000
1782115721.841671,225190,-0.084961,0.252930,0.964355,-1.951220,3.414634,-0.121951,-5.643750,-6.681250,32.493752,0.0,1.000000,0.000000,0.000000,0.000000
1782115721.851671,225200,-0.091309,0.251953,0.972168,-1.890244,3.780488,-0.060976,-5.643750,-6.681250,32.493752,0.0,1.000000,0.000000,0.000000,0.000000
1782115721.861671,225210,-0.096680,0.254395,0.979004,-2.500000,3.780488,-0.548781,-5.518750,-6.568750,32.531250,0.0,1.000000,0.000000,0.000000,0.000000
1782115721.871671,225220,-0.098633,0.252441,0.973633,-4.634146,4.878049,-1.219512,-5.518750,-6.568750,32.531250,0.0,1.000000,0.000000,0.000000,0.000000
1782115721.881671,225230,-0.108398,0.246582,0.968262,-5.304878,5.670732,-1.524390,-5.556250,-6.493750,32.543751,0.0,1.000000,0.000000,0.000000,0.000000
1782115721.891671,225240,-0.114258,0.241211,0.956055,-4.634146,5.975610,-1.707317,-5.556250,-6.493750,32.543751,0.0,1.000000,0.000000,0.000000,0.000000
1782115721.901671,225250,-0.121094,0.233398,0.950684,-3.109756,6.036585,-1.890244,-5.762500,-6.568750,32.493752,0.0,1.000000,0.000000,0.000000,0.000000
1782115721.911671,225260,-0.123535,0.229980,0.950195,-1.341463,5.548780,-1.707317,-5.762500,-6.568750,32.493752,0.0,1.000000,0.000000,0.000000,0.000000
1782115721.922671,225271,-0.125000,0.229004,0.945312,-0.365854,4.329268,-1.158537,-5.787500,-6.543750,32.493752,0.0,1.000000,0.000000,0.000000,0.000000
1782115721.932671,225281,-0.124512,0.229004,0.942383,0.121951,2.987805,-0.304878,-5.787500,-6.543750,32.493752,0.0,1.000000,0.000000,0.000000,0.000000
1782115721.941671,225290,-0.119629,0.226562,0.938477,-0.365854,2.012195,0.426829,-5.525000,-6.212500,32.493752,0.0,1.000000,0.000000,0.000000,0.000000
1782115721.952671,225301,-0.118652,0.233398,0.931641,-0.914634,2.500000,1.829268,-5.525000,-6.212500,32.493752,0.0,1.000000,0.000000,0.000000,0.000000
1782115721.961671,225310,-0.129395,0.237793,0.940918,-0.487805,2.560976,3.353659,-5.837500,-6.481250,32.481251,0.0,1.000000,0.000000,0.000000,0.000000
1782115721.972671,225321,-0.137207,0.237305,0.947266,-0.426829,2.073171,4.268293,-5.837500,-6.481250,32.481251,0.0,1.000000,0.000000,0.000000,0.000000
1782115721.982671,225331,-0.141602,0.237793,0.950195,-0.365854,1.219512,4.695122,-5.812500,-6.393750,32.431252,0.0,1.000000,0.000000,0.000000,0.000000
1782115721.992671,225341,-0.147461,0.232910,0.951660,-0.121951,0.365854,4.634146,-5.812500,-6.393750,32.431252,0.0,1.000000,0.000000,0.000000,0.000000
1782115722.002671,225351,-0.148438,0.226562,0.954102,0.243902,-0.975610,3.719512,-5.881250,-6.443750,32.462502,0.0,1.000000,0.000000,0.000000,0.000000
1782115722.011671,225360,-0.140625,0.227539,0.952148,0.121951,-1.219512,2.560976,-5.881250,-6.443750,32.462502,0.0,1.000000,0.000000,0.000000,0.000000
1782115722.021671,225370,-0.134766,0.235352,0.957031,0.121951,-0.792683,1.829268,-5.581250,-6.162500,32.556252,0.0,1.000000,0.000000,0.000000,0.000000
1782115722.032671,225381,-0.133301,0.241699,0.970703,0.731707,-0.426829,1.219512,-5.581250,-6.162500,32.556252,0.0,1.000000,0.000000,0.000000,0.000000
1782115722.043671,225392,-0.119629,0.242676,0.980469,1.280488,-0.731707,0.304878,-5.943750,-6.481250,32.431252,0.0,1.000000,0.000000,0.000000,0.000000
1782115722.051671,225400,-0.107910,0.240234,0.975586,0.670732,-0.243902,-0.304878,-5.943750,-6.481250,32.431252,0.0,1.000000,0.000000,0.000000,0.000000
1782115722.061671,225410,-0.098633,0.239258,0.972168,0.000000,-0.243902,-0.853659,-5.875000,-6.418750,32.431252,0.0,1.000000,0.000000,0.000000,0.000000
1782115722.071671,225420,-0.088867,0.237793,0.960938,-0.792683,-0.304878,-1.280488,-6.000000,-6.500000,32.375000,0.0,1.000000,0.000000,0.000000,0.000000
1782115722.082671,225431,-0.082031,0.237793,0.956543,-0.548781,0.304878,-1.036585,-6.000000,-6.500000,32.375000,0.0,1.000000,0.000000,0.000000,0.000000
1782115722.091671,225440,-0.084473,0.233398,0.958008,0.000000,0.853659,-0.548781,-5.906250,-6.443750,32.462502,0.0,1.000000,0.000000,0.000000,0.000000
1782115722.101671,225450,-0.084473,0.233398,0.958008,0.000000,0.853659,-0.548781,-5.906250,-6.443750,32.462502,0.0,1.000000,0.000000,0.000000,0.000000
1782115722.111671,225460,-0.089355,0.230957,0.962402,0.609756,0.731707,0.000000,-5.900000,-6.468750,32.400002,0.0,1.000000,0.000000,0.000000,0.000000
1782115722.122671,225471,-0.094238,0.232910,0.958008,-0.304878,-0.365854,0.304878,-5.900000,-6.468750,32.400002,0.0,1.000000,0.000000,0.000000,0.000000
1782115722.131671,225480,-0.094238,0.232910,0.958008,-0.304878,-0.365854,0.304878,-5.706250,-6.237500,32.462502,0.0,1.000000,0.000000,0.000000,0.000000
1782115722.142671,225491,-0.098145,0.235840,0.956055,-1.036585,-0.426829,0.792683,-5.706250,-6.237500,32.462502,0.0,1.000000,0.000000,0.000000,0.000000
1782115722.152671,225501,-0.103516,0.239258,0.958984,-0.914634,-0.487805,1.219512,-5.918750,-6.443750,32.418751,0.0,1.000000,0.000000,0.000000,0.000000
1782115722.163671,225512,-0.110840,0.236816,0.962402,0.000000,-0.548781,1.402439,-5.918750,-6.443750,32.418751,0.0,1.000000,0.000000,0.000000,0.000000
1782115722.172671,225521,-0.110840,0.236816,0.962402,0.000000,-0.548781,1.402439,-5.862500,-6.375000,32.424999,0.0,1.000000,0.000000,0.000000,0.000000
1782115722.182671,225531,-0.114746,0.233398,0.968262,0.487805,-0.792683,1.219512,-5.862500,-6.375000,32.424999,0.0,1.000000,0.000000,0.000000,0.000000
1782115722.192671,225541,-0.115723,0.229980,0.969727,0.426829,-0.731707,0.792683,-5.937500,-6.456250,32.400002,0.0,1.000000,0.000000,0.000000,0.000000
1782115722.204671,225553,-0.121094,0.232422,0.964355,-0.426829,0.548781,0.182927,-5.937500,-6.456250,32.400002,0.0,1.000000,0.000000,0.000000,0.000000
1782115722.212671,225561,-0.121094,0.232422,0.964355,-0.426829,0.548781,0.182927,-5.843750,-6.393750,32.431252,0.0,1.000000,0.000000,0.000000,0.000000
1782115722.222671,225571,-0.126953,0.233398,0.964355,-0.243902,0.670732,0.121951,-5.843750,-6.393750,32.431252,0.0,1.000000,0.000000,0.000000,0.000000
1782115722.232671,225581,-0.128906,0.230957,0.964355,0.304878,0.609756,0.182927,-5.956250,-6.431250,32.450001,0.0,1.000000,0.000000,0.000000,0.000000
1782115722.243671,225592,-0.131836,0.229980,0.959961,0.182927,0.609756,0.609756,-5.956250,-6.431250,32.450001,0.0,1.000000,0.000000,0.000000,0.000000
1782115722.251671,225600,-0.131348,0.225586,0.960449,-0.121951,-0.121951,0.975610,-5.687500,-6.225000,32.443752,0.0,1.000000,0.000000,0.000000,0.000000
1782115722.261671,225610,-0.123535,0.227051,0.958496,-0.731707,-0.792683,0.914634,-5.687500,-6.225000,32.443752,0.0,1.000000,0.000000,0.000000,0.000000
1782115722.271671,225620,-0.118652,0.233398,0.956055,-1.524390,-0.182927,1.158537,-5.968750,-6.493750,32.368752,0.0,1.000000,0.000000,0.000000,0.000000
1782115722.284671,225633,-0.118652,0.238281,0.959961,-1.646341,0.182927,1.524390,-5.962500,-6.437500,32.343750,0.0,1.000000,0.000000,0.000000,0.000000
1782115722.291671,225640,-0.119629,0.235352,0.966797,-1.280488,-0.182927,1.707317,-5.962500,-6.437500,32.343750,0.0,1.000000,0.000000,0.000000,0.000000
1782115722.301671,225650,-0.118164,0.232422,0.968262,-0.792683,-0.975610,1.585366,-5.962500,-6.437500,32.343750,0.0,1.000000,0.000000,0.000000,0.000000
1782115722.311671,225660,-0.112305,0.229004,0.960449,-1.097561,-1.341463,1.036585,-6.075000,-6.475000,32.375000,0.0,1.000000,0.000000,0.000000,0.000000
1782115722.323671,225672,-0.111328,0.228516,0.948730,-2.012195,-1.097561,0.914634,-6.106250,-6.506250,32.318752,0.0,1.000000,0.000000,0.000000,0.000000
1782115722.331671,225680,-0.119629,0.233398,0.946289,-1.646341,-0.609756,1.219512,-6.106250,-6.506250,32.318752,0.0,1.000000,0.000000,0.000000,0.000000
1782115722.341671,225690,-0.125000,0.235352,0.952637,-0.304878,-0.853659,1.158537,-6.106250,-6.506250,32.318752,0.0,1.000000,0.000000,0.000000,0.000000
1782115722.351671,225700,-0.131348,0.240723,0.957520,0.548781,-1.280488,1.097561,-6.156250,-6.500000,32.281250,0.0,1.000000,0.000000,0.000000,0.000000
1782115722.364671,225713,-0.133301,0.239258,0.960938,0.975610,-1.768293,0.975610,-6.156250,-6.537500,32.356251,0.0,1.000000,0.000000,0.000000,0.000000
1782115722.372671,225721,-0.130371,0.236816,0.959961,0.792683,-2.378049,0.426829,-6.156250,-6.537500,32.356251,0.0,1.000000,0.000000,0.000000,0.000000
1782115722.382671,225731,-0.120605,0.242188,0.957520,0.243902,-2.865854,0.060976,-6.087500,-6.506250,32.275002,0.0,1.000000,0.000000,0.000000,0.000000
1782115722.391671,225740,-0.107422,0.243164,0.955566,-0.121951,-2.804878,-0.060976,-6.087500,-6.506250,32.275002,0.0,1.000000,0.000000,0.000000,0.000000
1782115722.404671,225753,-0.097656,0.247559,0.961914,-0.609756,-2.256098,0.304878,-6.093750,-6.562500,32.293751,0.0,1.000000,0.000000,0.000000,0.000000
1782115722.413671,225762,-0.088867,0.248535,0.966309,-0.975610,-1.951220,0.853659,-6.093750,-6.562500,32.293751,0.0,1.000000,0.000000,0.000000,0.000000
1782115722.421671,225770,-0.083496,0.249512,0.973145,-1.036585,-1.707317,1.524390,-6.112500,-6.531250,32.256252,0.0,1.000000,0.000000,0.000000,0.000000
1782115722.431671,225780,-0.076660,0.248047,0.979492,-1.707317,-1.707317,1.829268,-6.112500,-6.531250,32.256252,0.0,1.000000,0.000000,0.000000,0.000000
1782115722.443671,225792,-0.072754,0.246582,0.974609,-3.658537,-0.914634,2.134146,-6.150000,-6.556250,32.225002,0.0,1.000000,0.000000,0.000000,0.000000
1782115722.451671,225800,-0.076660,0.245605,0.972168,-5.182927,0.060976,2.804878,-6.150000,-6.556250,32.225002,0.0,1.000000,0.000000,0.000000,0.000000
1782115722.461671,225810,-0.088379,0.245117,0.973145,-5.853659,0.975610,3.658537,-6.262500,-6.581250,32.174999,0.0,1.000000,0.000000,0.000000,0.000000
1782115722.471671,225820,-0.100098,0.235840,0.974121,-5.365854,0.914634,4.207317,-6.262500,-6.581250,32.174999,0.0,1.000000,0.000000,0.000000,0.000000
1782115722.482671,225831,-0.105957,0.224609,0.972168,-4.817073,0.609756,4.268293,-6.318750,-6.500000,32.218750,0.0,1.000000,0.000000,0.000000,0.000000
1782115722.491671,225840,-0.112793,0.214844,0.968262,-4.756098,0.853659,4.085366,-6.318750,-6.500000,32.218750,0.0,1.000000,0.000000,0.000000,0.000000
1782115722.501671,225850,-0.120117,0.208008,0.959473,-4.756098,1.158537,3.841464,-6.443750,-6.506250,32.131252,0.0,1.000000,0.000000,0.000000,0.000000
1782115722.511671,225860,-0.125977,0.210449,0.951660,-4.573171,1.402439,3.536585,-6.443750,-6.506250,32.131252,0.0,1.000000,0.000000,0.000000,0.000000
1782115722.524671,225873,-0.133301,0.213867,0.953613,-3.841464,1.707317,3.292683,-6.518750,-6.468750,32.125000,0.0,1.000000,0.000000,0.000000,0.000000
1782115722.531671,225880,-0.133301,0.218262,0.957031,-2.743902,1.341463,3.109756,-6.518750,-6.468750,32.125000,0.0,1.000000,0.000000,0.000000,0.000000
1782115722.541671,225890,-0.129883,0.218262,0.961426,-1.768293,0.426829,2.500000,-6.487500,-6.337500,32.118752,0.0,1.000000,0.000000,0.000000,0.000000
1782115722.551671,225900,-0.117676,0.221191,0.963379,-1.524390,-0.121951,1.951220,-6.487500,-6.337500,32.118752,0.0,1.000000,0.000000,0.000000,0.000000
1782115722.563671,225912,-0.106445,0.219727,0.968262,-1.524390,-0.426829,1.463415,-6.612500,-6.487500,32.056252,0.0,1.000000,0.000000,0.000000,0.000000
1782115722.571671,225920,-0.098145,0.218262,0.970703,-2.256098,-0.243902,1.280488,-6.612500,-6.487500,32.056252,0.0,1.000000,0.000000,0.000000,0.000000
1782115722.581671,225930,-0.094727,0.218262,0.973633,-3.109756,-0.060976,1.280488,-6.425000,-6.206250,32.100002,0.0,1.000000,0.000000,0.000000,0.000000
1782115722.591671,225940,-0.090820,0.212891,0.973145,-3.719512,-0.060976,1.219512,-6.425000,-6.206250,32.100002,0.0,1.000000,0.000000,0.000000,0.000000
1782115722.605671,225954,-0.090820,0.205566,0.972656,-3.658537,0.121951,1.280488,-6.781250,-6.568750,32.062500,0.0,1.000000,0.000000,0.000000,0.000000
1782115722.612671,225961,-0.092285,0.199219,0.971191,-3.231707,0.243902,1.097561,-6.781250,-6.568750,32.062500,0.0,1.000000,0.000000,0.000000,0.000000
1782115722.621671,225970,-0.089355,0.197266,0.970703,-2.682927,0.182927,0.975610,-6.568750,-6.281250,32.018749,0.0,1.000000,0.000000,0.000000,0.000000
1782115722.631671,225980,-0.086914,0.200195,0.965332,-2.500000,-0.304878,0.304878,-6.568750,-6.281250,32.018749,0.0,1.000000,0.000000,0.000000,0.000000
1782115722.643671,225992,-0.088867,0.206055,0.960938,-2.439024,0.304878,0.304878,-6.837500,-6.487500,31.962500,0.0,1.000000,0.000000,0.000000,0.000000
1782115722.651671,226000,-0.096680,0.205078,0.962891,-1.524390,0.060976,0.487805,-6.837500,-6.487500,31.962500,0.0,1.000000,0.000000,0.000000,0.000000
1782115722.661671,226010,-0.102051,0.204590,0.964844,-0.609756,-0.426829,0.609756,-6.793750,-6.393750,31.968750,0.0,1.000000,0.000000,0.000000,0.000000
1782115722.671671,226020,-0.105469,0.204102,0.968262,0.487805,-1.097561,0.609756,-6.850000,-6.431250,31.950001,0.0,1.000000,0.000000,0.000000,0.000000
1782115722.684671,226033,-0.104492,0.201172,0.968750,0.792683,-1.524390,0.365854,-6.850000,-6.431250,31.950001,0.0,1.000000,0.000000,0.000000,0.000000
1782115722.691671,226040,-0.103516,0.198730,0.970215,1.219512,-1.463415,0.000000,-6.837500,-6.493750,32.000000,0.0,1.000000,0.000000,0.000000,0.000000
1782115722.701671,226050,-0.102539,0.202637,0.970703,1.524390,-1.036585,-0.304878,-6.837500,-6.493750,32.000000,0.0,1.000000,0.000000,0.000000,0.000000
1782115722.711671,226060,-0.106445,0.203125,0.976562,1.768293,-0.792683,-0.487805,-6.575000,-6.237500,32.025002,0.0,1.000000,0.000000,0.000000,0.000000
1782115722.722671,226071,-0.107910,0.204590,0.978516,1.524390,-0.609756,-0.670732,-6.575000,-6.237500,32.025002,0.0,1.000000,0.000000,0.000000,0.000000
1782115722.732671,226081,-0.106934,0.205566,0.972656,1.158537,-0.548781,-0.853659,-6.618750,-6.343750,32.000000,0.0,1.000000,0.000000,0.000000,0.000000
1782115722.742671,226091,-0.107422,0.209961,0.969727,1.036585,-0.121951,-0.853659,-6.618750,-6.343750,32.000000,0.0,1.000000,0.000000,0.000000,0.000000
1782115722.752671,226101,-0.110352,0.210938,0.969727,1.585366,0.060976,-0.792683,-6.718750,-6.431250,32.018749,0.0,1.000000,0.000000,0.000000,0.000000
1782115722.762671,226111,-0.112793,0.212891,0.963867,1.463415,-0.243902,-0.975610,-6.718750,-6.431250,32.018749,0.0,1.000000,0.000000,0.000000,0.000000
1782115722.772671,226121,-0.113770,0.216797,0.958496,0.914634,-0.182927,-0.975610,-6.700000,-6.462500,31.962500,0.0,1.000000,0.000000,0.000000,0.000000
1782115722.782671,226131,-0.118164,0.219238,0.960449,0.975610,-0.304878,-0.670732,-6.700000,-6.462500,31.962500,0.0,1.000000,0.000000,0.000000,0.000000
1782115722.791671,226140,-0.120117,0.220215,0.968262,1.402439,-0.853659,-0.487805,-6.243750,-5.987500,32.093750,0.0,1.000000,0.000000,0.000000,0.000000
1782115722.804671,226153,-0.122070,0.218750,0.972168,1.646341,-1.402439,-0.365854,-6.243750,-5.987500,32.093750,0.0,1.000000,0.000000,0.000000,0.000000
1782115722.812671,226161,-0.113281,0.214844,0.968262,1.097561,-1.646341,-0.792683,-6.631250,-6.443750,32.000000,0.0,1.000000,0.000000,0.000000,0.000000
1782115722.821671,226170,-0.104980,0.217285,0.962402,0.487805,-0.731707,-1.036585,-6.631250,-6.443750,32.000000,0.0,1.000000,0.000000,0.000000,0.000000
1782115722.832671,226181,-0.105957,0.219238,0.967285,0.670732,-0.060976,-0.670732,-6.750000,-6.550000,32.068752,0.0,1.000000,0.000000,0.000000,0.000000
1782115722.841671,226190,-0.103516,0.216797,0.972656,1.280488,-0.121951,-0.365854,-6.750000,-6.550000,32.068752,0.0,1.000000,0.000000,0.000000,0.000000
1782115722.851671,226200,-0.101074,0.218262,0.967285,1.402439,-0.060976,0.060976,-6.643750,-6.543750,31.956251,0.0,1.000000,0.000000,0.000000,0.000000
1782115722.861671,226210,-0.096191,0.218750,0.967773,1.951220,-0.060976,0.304878,-6.643750,-6.543750,31.956251,0.0,1.000000,0.000000,0.000000,0.000000
1782115722.871671,226220,-0.098633,0.215332,0.963379,1.463415,0.121951,0.670732,-6.700000,-6.537500,32.056252,0.0,1.000000,0.000000,0.000000,0.000000
1782115722.881671,226230,-0.099121,0.217773,0.961914,0.731707,0.182927,0.670732,-6.700000,-6.537500,32.056252,0.0,1.000000,0.000000,0.000000,0.000000
1782115722.892671,226241,-0.104492,0.221680,0.961914,0.426829,0.609756,1.097561,-6.706250,-6.531250,32.018749,0.0,1.000000,0.000000,0.000000,0.000000
1782115722.901671,226250,-0.108887,0.223145,0.967773,1.097561,0.487805,1.402439,-6.706250,-6.531250,32.018749,0.0,1.000000,0.000000,0.000000,0.000000
1782115722.911671,226260,-0.110840,0.222656,0.976562,2.256098,0.000000,1.341463,-6.650000,-6.512500,32.037502,0.0,1.000000,0.000000,0.000000,0.000000
1782115722.921671,226270,-0.108887,0.220215,0.974609,2.012195,-0.365854,1.097561,-6.650000,-6.512500,32.037502,0.0,1.000000,0.000000,0.000000,0.000000
1782115722.931671,226280,-0.108887,0.220215,0.974609,2.012195,-0.365854,1.097561,-6.706250,-6.593750,32.062500,0.0,1.000000,0.000000,0.000000,0.000000
1782115722.941671,226290,-0.104004,0.217773,0.965820,0.548781,-0.243902,0.792683,-6.706250,-6.593750,32.062500,0.0,1.000000,0.000000,0.000000,0.000000
1782115722.951671,226300,-0.103027,0.220215,0.960449,0.000000,0.182927,0.731707,-6.700000,-6.537500,31.993750,0.0,1.000000,0.000000,0.000000,0.000000
1782115722.961671,226310,-0.104980,0.217285,0.965820,0.914634,0.548781,0.914634,-6.700000,-6.537500,31.993750,0.0,1.000000,0.000000,0.000000,0.000000
1782115722.972671,226321,-0.103516,0.216309,0.973633,1.768293,0.426829,0.731707,-6.662500,-6.568750,32.018749,0.0,1.000000,0.000000,0.000000,0.000000
1782115722.981671,226330,-0.102539,0.215332,0.971191,1.829268,0.426829,0.426829,-6.575000,-6.456250,32.031250,0.0,1.000000,0.000000,0.000000,0.000000
1782115722.991671,226340,-0.098145,0.216309,0.970703,1.829268,0.853659,0.365854,-6.575000,-6.456250,32.031250,0.0,1.000000,0.000000,0.000000,0.000000
1782115723.001671,226350,-0.091309,0.215332,0.969727,1.585366,0.975610,0.365854,-6.675000,-6.531250,32.031250,0.0,1.000000,0.000000,0.000000,0.000000
1782115723.012671,226361,-0.085938,0.218750,0.971191,1.524390,1.219512,0.487805,-6.675000,-6.531250,32.031250,0.0,1.000000,0.000000,0.000000,0.000000
1782115723.022671,226371,-0.083984,0.216309,0.976074,1.768293,1.707317,0.792683,-6.537500,-6.393750,32.081249,0.0,1.000000,0.000000,0.000000,0.000000
1782115723.032671,226381,-0.084473,0.213379,0.972168,1.158537,2.012195,1.036585,-6.537500,-6.393750,32.081249,0.0,1.000000,0.000000,0.000000,0.000000
1782115723.042671,226391,-0.086914,0.209961,0.968262,0.609756,1.890244,1.341463,-6.525000,-6.387500,32.012501,0.0,1.000000,0.000000,0.000000,0.000000
1782115723.051671,226400,-0.092773,0.207520,0.962402,0.365854,1.768293,1.707317,-6.525000,-6.387500,32.012501,0.0,1.000000,0.000000,0.000000,0.000000
1782115723.061671,226410,-0.100586,0.206543,0.958496,0.548781,1.341463,1.829268,-6.543750,-6.368750,32.037502,0.0,1.000000,0.000000,0.000000,0.000000
1782115723.072671,226421,-0.104980,0.203613,0.959961,1.036585,0.243902,1.402439,-6.543750,-6.368750,32.037502,0.0,1.000000,0.000000,0.000000,0.000000
1782115723.081671,226430,-0.109375,0.206543,0.958496,1.707317,-0.060976,1.036585,-6.550000,-6.368750,32.068752,0.0,1.000000,0.000000,0.000000,0.000000
1782115723.092671,226441,-0.114258,0.208496,0.962402,2.743902,-0.609756,0.426829,-6.550000,-6.368750,32.068752,0.0,1.000000,0.000000,0.000000,0.000000
1782115723.101671,226450,-0.121582,0.211914,0.967773,3.902439,-0.792683,-0.304878,-6.318750,-6.206250,32.131252,0.0,1.000000,0.000000,0.000000,0.000000
1782115723.111671,226460,-0.125488,0.211426,0.971191,4.756098,-0.792683,-0.914634,-6.318750,-6.206250,32.131252,0.0,1.000000,0.000000,0.000000,0.000000
1782115723.121671,226470,-0.128906,0.210449,0.970215,4.451220,-0.487805,-1.585366,-6.525000,-6.475000,32.150002,0.0,1.000000,0.000000,0.000000,0.000000
1782115723.131671,226480,-0.132324,0.211914,0.969727,4.390244,-0.243902,-1.768293,-6.525000,-6.475000,32.150002,0.0,1.000000,0.000000,0.000000,0.000000
1782115723.141671,226490,-0.134766,0.213379,0.968262,4.512195,-0.426829,-1.890244,-6.381250,-6.437500,32.168751,0.0,1.000000,0.000000,0.000000,0.000000
1782115723.151671,226500,-0.133789,0.215332,0.964844,4.329268,-0.914634,-2.317073,-6.381250,-6.437500,32.168751,0.0,1.000000,0.000000,0.000000,0.000000
1782115723.161671,226510,-0.126953,0.221680,0.961426,4.146341,-0.975610,-2.682927,-6.381250,-6.431250,32.162502,0.0,1.000000,0.000000,0.000000,0.000000
1782115723.171671,226520,-0.124023,0.228027,0.961426,4.390244,-0.609756,-2.560976,-6.381250,-6.431250,32.162502,0.0,1.000000,0.000000,0.000000,0.000000
1782115723.181671,226530,-0.125000,0.231934,0.964355,4.878049,-0.792683,-2.195122,-6.206250,-6.362500,32.262501,0.0,1.000000,0.000000,0.000000,0.000000
1782115723.192671,226541,-0.118164,0.236328,0.961426,4.878049,-0.731707,-1.890244,-6.206250,-6.362500,32.262501,0.0,1.000000,0.000000,0.000000,0.000000
1782115723.201671,226550,-0.113281,0.240234,0.957031,3.719512,-0.487805,-1.524390,-6.331250,-6.562500,32.243752,0.0,1.000000,0.000000,0.000000,0.000000
1782115723.211671,226560,-0.115723,0.243652,0.954102,2.439024,0.000000,-0.853659,-6.331250,-6.562500,32.243752,0.0,1.000000,0.000000,0.000000,0.000000
1782115723.221671,226570,-0.117676,0.244141,0.957031,1.219512,-0.060976,-0.304878,-6.181250,-6.481250,32.212502,0.0,1.000000,0.000000,0.000000,0.000000
1782115723.231671,226580,-0.118164,0.243652,0.957031,0.304878,-0.548781,-0.060976,-6.181250,-6.481250,32.212502,0.0,1.000000,0.000000,0.000000,0.000000
1782115723.241671,226590,-0.120117,0.239746,0.959961,-0.121951,-1.097561,0.182927,-6.293750,-6.593750,32.206249,0.0,1.000000,0.000000,0.000000,0.000000
1782115723.251671,226600,-0.115723,0.241211,0.964355,-0.304878,-1.829268,-0.060976,-6.293750,-6.593750,32.206249,0.0,1.000000,0.000000,0.000000,0.000000
1782115723.261671,226610,-0.107910,0.245117,0.965332,-0.365854,-1.829268,-0.243902,-6.200000,-6.500000,32.293751,0.0,1.000000,0.000000,0.000000,0.000000
1782115723.271671,226620,-0.097168,0.248047,0.967773,-0.060976,-1.158537,-0.182927,-6.256250,-6.581250,32.193752,0.0,1.000000,0.000000,0.000000,0.000000
1782115723.281671,226630,-0.083984,0.245117,0.967773,0.243902,-0.365854,0.365854,-6.256250,-6.581250,32.193752,0.0,1.000000,0.000000,0.000000,0.000000
1782115723.291671,226640,-0.074219,0.233887,0.966309,1.158537,0.000000,0.914634,-6.031250,-6.356250,32.287502,0.0,1.000000,0.000000,0.000000,0.000000
1782115723.301671,226650,-0.067383,0.223633,0.964355,1.524390,0.243902,1.646341,-6.031250,-6.356250,32.287502,0.0,1.000000,0.000000,0.000000,0.000000
1782115723.311671,226660,-0.059082,0.218750,0.951172,1.036585,0.060976,2.317073,-6.250000,-6.550000,32.262501,0.0,1.000000,0.000000,0.000000,0.000000
1782115723.321671,226670,-0.062012,0.229004,0.941895,0.853659,0.609756,3.536585,-6.250000,-6.550000,32.262501,0.0,1.000000,0.000000,0.000000,0.000000
1782115723.332671,226681,-0.078613,0.234863,0.947754,1.341463,0.487805,4.939024,-6.112500,-6.375000,32.331249,0.0,1.000000,0.000000,0.000000,0.000000
1782115723.341671,226690,-0.097168,0.241211,0.951660,1.463415,-0.304878,6.097561,-6.112500,-6.375000,32.331249,0.0,1.000000,0.000000,0.000000,0.000000
1782115723.351671,226700,-0.115234,0.241211,0.952148,1.341463,-1.402439,6.829268,-6.181250,-6.475000,32.231251,0.0,1.000000,0.000000,0.000000,0.000000
1782115723.361671,226710,-0.128906,0.233398,0.949707,1.219512,-2.682927,7.317073,-6.181250,-6.475000,32.231251,0.0,1.000000,0.000000,0.000000,0.000000
1782115723.371671,226720,-0.130859,0.231934,0.940918,0.182927,-3.963415,7.073171,-5.987500,-6.250000,32.312500,0.0,1.000000,0.000000,0.000000,0.000000
1782115723.381671,226730,-0.126953,0.239258,0.937988,0.000000,-4.024390,7.317073,-5.987500,-6.250000,32.312500,0.0,1.000000,0.000000,0.000000,0.000000
1782115723.391671,226740,-0.128906,0.240234,0.956055,1.463415,-3.902439,7.317073,-6.262500,-6.568750,32.287502,0.0,1.000000,0.000000,0.000000,0.000000
1782115723.402671,226751,-0.129395,0.222656,0.972168,4.207317,-3.841464,6.219512,-6.262500,-6.568750,32.287502,0.0,1.000000,0.000000,0.000000,0.000000
1782115723.412671,226761,-0.116699,0.216309,0.987793,6.036585,-3.658537,4.024390,-6.081250,-6.481250,32.350002,0.0,1.000000,0.000000,0.000000,0.000000
1782115723.421671,226770,-0.101074,0.225586,0.997070,3.658537,-2.256098,2.317073,-6.081250,-6.481250,32.350002,0.0,1.000000,0.000000,0.000000,0.000000
1782115723.432671,226781,-0.091309,0.236328,0.995605,-0.060976,-1.158537,1.463415,-6.237500,-6.687500,32.262501,0.0,1.000000,0.000000,0.000000,0.000000
1782115723.442671,226791,-0.077637,0.236328,0.982910,-3.048780,-0.365854,1.219512,-6.237500,-6.687500,32.262501,0.0,1.000000,0.000000,0.000000,0.000000
1782115723.452671,226801,-0.078125,0.236816,0.975098,-4.451220,1.097561,2.012195,-6.293750,-6.656250,32.318752,0.0,1.000000,0.000000,0.000000,0.000000
1782115723.462671,226811,-0.088867,0.232422,0.972656,-5.121951,1.829268,2.621951,-6.293750,-6.656250,32.318752,0.0,1.000000,0.000000,0.000000,0.000000
1782115723.471671,226820,-0.110352,0.230469,0.973145,-5.426829,1.951220,3.109756,-6.293750,-6.556250,32.287502,0.0,1.000000,0.000000,0.000000,0.000000
1782115723.481671,226830,-0.135742,0.227539,0.967773,-5.548780,1.280488,3.109756,-6.293750,-6.556250,32.287502,0.0,1.000000,0.000000,0.000000,0.000000
1782115723.493671,226842,-0.155762,0.217285,0.957031,-6.158537,0.487805,2.500000,-6.481250,-6.656250,32.218750,0.0,1.000000,0.000000,0.000000,0.000000
1782115723.501671,226850,-0.165527,0.213867,0.948730,-6.707317,0.121951,1.768293,-6.481250,-6.656250,32.218750,0.0,1.000000,0.000000,0.000000,0.000000
1782115723.511671,226860,-0.164062,0.214355,0.951172,-5.121951,-0.426829,1.158537,-6.443750,-6.512500,32.231251,0.0,1.000000,0.000000,0.000000,0.000000
1782115723.521671,226870,-0.155762,0.204590,0.958496,-1.707317,-1.097561,0.000000,-6.443750,-6.512500,32.231251,0.0,1.000000,0.000000,0.000000,0.000000
1782115723.531671,226880,-0.137695,0.187012,0.965820,2.439024,-1.585366,-1.646341,-6.506250,-6.475000,32.212502,0.0,1.000000,0.000000,0.000000,0.000000
1782115723.542671,226891,-0.113281,0.179199,0.975098,5.365854,-2.012195,-3.231707,-6.506250,-6.475000,32.212502,0.0,1.000000,0.000000,0.000000,0.000000
1782115723.551671,226900,-0.085449,0.188477,0.979980,5.792683,-1.951220,-4.451220,-6.550000,-6.656250,32.237499,0.0,1.000000,0.000000,0.000000,0.000000
1782115723.561671,226910,-0.070801,0.209961,0.986816,4.878049,-1.890244,-4.512195,-6.568750,-6.750000,32.193752,0.0,1.000000,0.000000,0.000000,0.000000
1782115723.572671,226921,-0.063965,0.232910,1.003906,4.634146,-2.743902,-3.902439,-6.568750,-6.750000,32.193752,0.0,1.000000,0.000000,0.000000,0.000000
1782115723.581671,226930,-0.065430,0.250488,1.023926,4.207317,-3.780488,-2.865854,-6.431250,-6.706250,32.237499,0.0,1.000000,0.000000,0.000000,0.000000
1782115723.591671,226940,-0.073730,0.256348,1.039551,3.719512,-5.060976,-1.585366,-6.431250,-6.706250,32.237499,0.0,1.000000,0.000000,0.000000,0.000000
1782115723.601671,226950,-0.087891,0.249512,1.045410,2.743902,-6.280488,-0.304878,-6.375000,-6.856250,32.237499,0.0,1.000000,0.000000,0.000000,0.000000
1782115723.612671,226961,-0.096191,0.236816,1.044434,2.195122,-7.621952,0.426829,-6.375000,-6.856250,32.237499,0.0,1.000000,0.000000,0.000000,0.000000
1782115723.621671,226970,-0.101074,0.231934,1.034180,0.975610,-8.231708,0.609756,-6.137500,-6.675000,32.262501,0.0,1.000000,0.000000,0.000000,0.000000
1782115723.631671,226980,-0.112793,0.236328,1.018555,-1.829268,-8.536586,1.036585,-6.137500,-6.675000,32.262501,0.0,1.000000,0.000000,0.000000,0.000000
1782115723.641671,226990,-0.124023,0.239746,1.003906,-4.146341,-9.024390,1.646341,-6.375000,-7.012500,32.162502,0.0,1.000000,0.000000,0.000000,0.000000
1782115723.654671,227003,-0.129395,0.239746,0.994141,-5.365854,-10.060976,2.012195,-6.375000,-7.012500,32.162502,0.0,1.000000,0.000000,0.000000,0.000000
1782115723.661671,227010,-0.129395,0.237305,0.972168,-5.731708,-10.853659,1.646341,-6.500000,-7.162500,32.131252,0.0,1.000000,0.000000,0.000000,0.000000
1782115723.671671,227020,-0.127930,0.227539,0.948730,-5.548780,-11.158537,1.036585,-6.500000,-7.162500,32.131252,0.0,1.000000,0.000000,0.000000,0.000000
1782115723.682671,227031,-0.128906,0.217285,0.927734,-5.975610,-12.073171,-0.487805,-6.668750,-7.425000,31.987501,0.0,1.000000,0.000000,0.000000,0.000000
1782115723.691671,227040,-0.114746,0.207031,0.895996,-6.890244,-11.097561,-2.073171,-6.668750,-7.425000,31.987501,0.0,1.000000,0.000000,0.000000,0.000000
1782115723.701671,227050,-0.104004,0.192383,0.877930,-7.439024,-8.109756,-3.353659,-6.800000,-7.656250,31.881250,0.0,1.000000,0.000000,0.000000,0.000000
1782115723.711671,227060,-0.102051,0.177246,0.869629,-7.743903,-4.451220,-4.756098,-6.800000,-7.656250,31.881250,0.0,1.000000,0.000000,0.000000,0.000000
1782115723.721671,227070,-0.103027,0.162598,0.875000,-7.378049,-2.439024,-6.097561,-6.756250,-7.618750,31.868750,0.0,1.000000,0.000000,0.000000,0.000000
1782115723.732671,227081,-0.100586,0.153320,0.891113,-5.792683,-1.707317,-7.621952,-6.756250,-7.618750,31.868750,0.0,1.000000,0.000000,0.000000,0.000000
1782115723.741671,227090,-0.093750,0.147461,0.912598,-3.719512,-1.097561,-9.390244,-6.587500,-7.456250,31.900000,0.0,1.000000,0.000000,0.000000,0.000000
1782115723.751671,227100,-0.083984,0.150391,0.936035,-0.853659,-1.158537,-10.914635,-6.587500,-7.456250,31.900000,0.0,1.000000,0.000000,0.000000,0.000000
1782115723.763671,227112,-0.063965,0.169434,0.959961,2.743902,-0.853659,-11.280488,-7.012500,-7.881250,31.687500,0.0,1.000000,0.000000,0.000000,0.000000
1782115723.772671,227121,-0.044922,0.188477,0.983887,5.975610,0.000000,-9.878049,-7.012500,-7.881250,31.687500,0.0,1.000000,0.000000,0.000000,0.000000
1782115723.783671,227132,-0.033203,0.205566,1.010254,8.231708,-0.121951,-7.804878,-6.675000,-7.650000,31.812500,0.0,1.000000,0.000000,0.000000,0.000000
1782115723.791671,227140,-0.033203,0.205566,1.010254,8.231708,-0.121951,-7.804878,-6.675000,-7.650000,31.812500,0.0,1.000000,0.000000,0.000000,0.000000
1782115723.801671,227150,-0.018066,0.220215,1.025879,8.353659,-0.609756,-5.000000,-6.787500,-7.875000,31.806250,0.0,1.000000,0.000000,0.000000,0.000000
1782115723.812671,227161,-0.025879,0.236816,1.010742,4.085366,-0.670732,0.548781,-6.787500,-7.875000,31.806250,0.0,1.000000,0.000000,0.000000,0.000000
1782115723.821671,227170,-0.025879,0.236816,1.010742,4.085366,-0.670732,0.548781,-6.668750,-7.856250,31.831251,0.0,1.000000,0.000000,0.000000,0.000000
1782115723.831671,227180,-0.044434,0.244629,0.994141,1.402439,-0.243902,2.500000,-6.668750,-7.856250,31.831251,0.0,1.000000,0.000000,0.000000,0.000000
1782115723.841671,227190,-0.063477,0.248535,0.981445,-1.219512,0.365854,3.170732,-6.743750,-7.956250,31.881250,0.0,1.000000,0.000000,0.000000,0.000000
1782115723.854671,227203,-0.082520,0.234863,0.942383,-5.853659,0.670732,0.914634,-6.756250,-7.925000,31.793751,0.0,1.000000,0.000000,0.000000,0.000000
1782115723.861671,227210,-0.082520,0.234863,0.942383,-5.853659,0.670732,0.914634,-6.756250,-7.925000,31.793751,0.0,1.000000,0.000000,0.000000,0.000000
1782115723.871671,227220,-0.083984,0.226074,0.933594,-6.158537,0.914634,-0.975610,-6.768750,-7.800000,31.781250,0.0,1.000000,0.000000,0.000000,0.000000
1782115723.881671,227230,-0.078613,0.215332,0.935059,-4.512195,0.975610,-2.500000,-6.768750,-7.800000,31.781250,0.0,1.000000,0.000000,0.000000,0.000000
1782115723.894671,227243,-0.067871,0.198730,0.954590,-0.975610,0.975610,-2.865854,-6.456250,-7.481250,31.837500,0.0,1.000000,0.000000,0.000000,0.000000
1782115723.901671,227250,-0.067871,0.198730,0.954590,-0.975610,0.975610,-2.865854,-6.456250,-7.481250,31.837500,0.0,1.000000,0.000000,0.000000,0.000000
1782115723.911671,227260,-0.068359,0.200195,0.965820,0.670732,1.158537,-1.463415,-6.537500,-7.587500,31.862501,0.0,1.000000,0.000000,0.000000,0.000000
1782115723.921671,227270,-0.069824,0.204102,0.979492,1.585366,0.670732,-0.060976,-6.537500,-7.587500,31.862501,0.0,1.000000,0.000000,0.000000,0.000000
1782115723.934671,227283,-0.069824,0.224609,0.984863,1.524390,-0.670732,3.109756,-6.731250,-7.800000,31.825001,0.0,1.000000,0.000000,0.000000,0.000000
1782115723.941671,227290,-0.069824,0.224609,0.984863,1.524390,-0.670732,3.109756,-6.731250,-7.800000,31.825001,0.0,1.000000,0.000000,0.000000,0.000000
1782115723.951671,227300,-0.078125,0.231445,0.983887,1.890244,-0.304878,4.512195,-6.756250,-7.806250,31.831251,0.0,1.000000,0.000000,0.000000,0.000000
1782115723.961671,227310,-0.087891,0.236816,0.980469,2.012195,-0.243902,5.060976,-6.756250,-7.806250,31.831251,0.0,1.000000,0.000000,0.000000,0.000000
1782115723.975671,227324,-0.089844,0.247070,0.957031,-1.951220,2.439024,4.756098,-6.781250,-7.868750,31.850000,0.0,1.000000,0.000000,0.000000,0.000000
1782115723.982671,227331,-0.089844,0.247070,0.957031,-1.951220,2.439024,4.756098,-6.781250,-7.868750,31.850000,0.0,1.000000,0.000000,0.000000,0.000000
1782115723.991671,227340,-0.096680,0.244629,0.946289,-3.902439,3.414634,4.085366,-6.812500,-7.743750,31.881250,0.0,1.000000,0.000000,0.000000,0.000000
1782115724.002671,227351,-0.105957,0.237793,0.944336,-3.719512,2.560976,3.170732,-6.812500,-7.743750,31.881250,0.0,1.000000,0.000000,0.000000,0.000000
1782115724.012671,227361,-0.111816,0.230469,0.950195,-3.353659,2.012195,2.256098,-6.918750,-7.781250,31.850000,0.0,1.000000,0.000000,0.000000,0.000000
1782115724.021671,227370,-0.121582,0.223145,0.958496,-2.500000,1.646341,1.646341,-6.918750,-7.781250,31.850000,0.0,1.000000,0.000000,0.000000,0.000000
1782115724.032671,227381,-0.125977,0.210938,0.961426,-1.036585,0.975610,1.097561,-6.912500,-7.706250,31.862501,0.0,1.000000,0.000000,0.000000,0.000000
1782115724.042671,227391,-0.124512,0.206543,0.965332,0.609756,-0.060976,0.548781,-6.912500,-7.706250,31.862501,0.0,1.000000,0.000000,0.000000,0.000000
1782115724.051671,227400,-0.113770,0.200684,0.966797,0.853659,-1.097561,0.182927,-6.975000,-7.743750,31.862501,0.0,1.000000,0.000000,0.000000,0.000000
1782115724.061671,227410,-0.103516,0.199707,0.963379,0.060976,-0.670732,0.243902,-6.975000,-7.743750,31.862501,0.0,1.000000,0.000000,0.000000,0.000000
1782115724.071671,227420,-0.094238,0.200684,0.972168,0.487805,-0.243902,0.548781,-6.950000,-7.800000,31.825001,0.0,1.000000,0.000000,0.000000,0.000000
1782115724.081671,227430,-0.095703,0.199707,0.977539,0.243902,0.000000,1.219512,-6.950000,-7.800000,31.825001,0.0,1.000000,0.000000,0.000000,0.000000
1782115724.091671,227440,-0.098633,0.197754,0.982910,0.060976,0.060976,1.341463,-7.025000,-7.825000,31.837500,0.0,1.000000,0.000000,0.000000,0.000000
1782115724.102671,227451,-0.102539,0.200684,0.985352,-0.426829,0.121951,1.341463,-7.025000,-7.825000,31.837500,0.0,1.000000,0.000000,0.000000,0.000000
1782115724.111671,227460,-0.103516,0.201172,0.984375,-1.036585,0.060976,1.097561,-6.981250,-7.793750,31.831251,0.0,1.000000,0.000000,0.000000,0.000000
1782115724.121671,227470,-0.096680,0.199219,0.980469,-1.646341,-0.182927,0.426829,-6.981250,-7.793750,31.831251,0.0,1.000000,0.000000,0.000000,0.000000
1782115724.134671,227483,-0.094727,0.195801,0.971191,-2.073171,0.121951,-0.182927,-7.043750,-7.831250,31.843750,0.0,1.000000,0.000000,0.000000,0.000000
1782115724.141671,227490,-0.094727,0.193848,0.967285,-0.975610,0.243902,-0.548781,-7.043750,-7.831250,31.843750,0.0,1.000000,0.000000,0.000000,0.000000
1782115724.151671,227500,-0.095703,0.193848,0.963867,0.304878,0.426829,-0.914634,-7.062500,-7.818750,31.875000,0.0,1.000000,0.000000,0.000000,0.000000
1782115724.162671,227511,-0.095703,0.193848,0.967285,1.524390,-0.182927,-1.341463,-7.118750,-7.918750,31.800001,0.0,1.000000,0.000000,0.000000,0.000000
1782115724.171671,227520,-0.096680,0.194336,0.967285,1.768293,-0.731707,-1.707317,-7.118750,-7.918750,31.800001,0.0,1.000000,0.000000,0.000000,0.000000
1782115724.181671,227530,-0.099609,0.189941,0.965332,1.341463,-1.097561,-1.951220,-7.112500,-7.893750,31.781250,0.0,1.000000,0.000000,0.000000,0.000000
1782115724.192671,227541,-0.095215,0.190918,0.965332,0.853659,-1.463415,-2.378049,-7.112500,-7.893750,31.781250,0.0,1.000000,0.000000,0.000000,0.000000
1782115724.201671,227550,-0.094727,0.192871,0.966797,1.158537,-1.341463,-2.439024,-6.918750,-7.743750,31.893751,0.0,1.000000,0.000000,0.000000,0.000000
