Unix_Time_s,EMG_t_s,sample_idx,fs,gain,flags,emg_valid,ch1_raw_uV,ch1_filt_uV,ch1_env_uV,ch2_raw_uV,ch2_filt_uV,ch2_env_uV
1782115716.292671,0.000000,171680,1000,12,0,1,583.798,-7.358,4.172,273.139,-3.100,8.485
1782115716.293671,0.001000,171681,1000,12,0,1,581.685,-10.036,4.396,274.004,2.194,8.405
1782115716.294671,0.002000,171682,1000,12,0,1,578.874,-11.031,4.617,277.535,8.085,8.342
1782115716.295671,0.003000,171683,1000,12,0,1,580.724,-8.287,4.733,283.780,13.096,8.358
1782115716.296671,0.004000,171684,1000,12,0,1,584.447,-1.859,4.737,291.227,16.970,8.549
1782115716.297671,0.005000,171685,1000,12,0,1,586.609,2.284,4.741,295.406,15.701,8.742
1782115716.298671,0.006000,171686,1000,12,0,1,582.573,1.509,4.741,301.844,13.781,8.938
1782115716.299671,0.007000,171687,1000,12,0,1,581.036,1.232,4.723,312.173,15.397,9.199
1782115716.300671,0.008000,171688,1000,12,0,1,581.516,4.467,4.743,315.536,11.200,9.332
1782115716.301671,0.009000,171689,1000,12,0,1,582.117,6.352,4.823,316.256,3.444,9.334
1782115716.302671,0.010000,171690,1000,12,0,1,585.456,9.751,5.003,315.127,-2.686,9.323
1782115716.303671,0.011000,171691,1000,12,0,1,585.456,10.249,5.142,315.127,-6.943,9.368
1782115716.304671,0.012000,171692,1000,12,0,1,586.777,8.961,5.232,315.415,-7.393,9.425
1782115716.305671,0.013000,171693,1000,12,0,1,587.137,8.234,5.262,311.260,-9.864,9.492
1782115716.306671,0.014000,171694,1000,12,0,1,588.242,5.616,5.176,305.807,-11.980,9.559
1782115716.307671,0.015000,171695,1000,12,0,1,590.092,4.788,5.142,304.966,-8.130,9.511
1782115716.308671,0.016000,171696,1000,12,0,1,592.926,3.521,5.082,300.811,-4.906,9.400
1782115716.309671,0.017000,171697,1000,12,0,1,597.250,4.004,5.073,293.509,-5.430,9.337
1782115716.310671,0.018000,171698,1000,12,0,1,599.052,2.500,5.081,282.747,-7.726,9.337
1782115716.311671,0.019000,171699,1000,12,0,1,600.805,0.392,5.078,278.400,-6.266,9.346
1782115716.312671,0.020000,171700,1000,12,0,1,599.292,-2.548,5.088,276.142,-1.374,9.348
1782115716.313671,0.021000,171701,1000,12,0,1,594.343,-8.602,5.192,275.133,1.072,9.329
1782115716.314671,0.022000,171702,1000,12,0,1,591.125,-11.382,5.405,275.685,3.844,9.260
1782115716.315671,0.023000,171703,1000,12,0,1,584.159,-15.086,5.786,281.474,7.994,9.196
1782115716.316671,0.024000,171704,1000,12,0,1,578.226,-18.086,6.305,288.008,11.714,9.232
1782115716.317671,0.025000,171705,1000,12,0,1,572.605,-17.977,6.798,292.668,10.910,9.320
1782115716.318671,0.026000,171706,1000,12,0,1,566.552,-18.520,7.283,299.682,10.334,9.426
1782115716.319671,0.027000,171707,1000,12,0,1,564.077,-15.356,7.595,306.071,9.556,9.505
1782115716.320671,0.028000,171708,1000,12,0,1,563.477,-10.302,7.733,312.797,7.584,9.560
1782115716.321671,0.029000,171709,1000,12,0,1,563.333,-6.009,7.778,313.710,2.945,9.542
1782115716.322671,0.030000,171710,1000,12,0,1,572.485,4.273,7.801,313.206,-3.832,9.557
1782115716.323671,0.031000,171711,1000,12,0,1,581.877,15.021,8.078,313.013,-6.380,9.597
1782115716.324671,0.032000,171712,1000,12,0,1,579.787,12.731,8.268,313.566,-7.212,9.651
1782115716.325671,0.033000,171713,1000,12,0,1,581.132,10.105,8.382,310.659,-7.784,9.580
1782115716.326671,0.034000,171714,1000,12,0,1,581.132,9.177,8.481,309.242,-6.904,9.459
1782115716.327671,0.035000,171715,1000,12,0,1,585.336,8.120,8.557,309.194,-2.046,9.211
1782115716.328671,0.036000,171716,1000,12,0,1,587.930,8.916,8.646,303.861,-1.157,9.050
1782115716.329671,0.037000,171717,1000,12,0,1,592.806,8.148,8.721,293.533,-4.797,8.946
1782115716.330671,0.038000,171718,1000,12,0,1,590.764,5.040,8.743,287.359,-4.797,8.901
1782115716.331671,0.039000,171719,1000,12,0,1,590.332,-0.016,8.733,280.898,-3.776,8.916
1782115716.332671,0.040000,171720,1000,12,0,1,590.140,-0.475,8.704,280.513,-0.381,8.879
1782115716.333671,0.041000,171721,1000,12,0,1,592.494,-0.219,8.620,278.832,2.878,8.759
1782115716.334671,0.042000,171722,1000,12,0,1,591.461,-0.050,8.529,282.147,5.351,8.633
1782115716.335671,0.043000,171723,1000,12,0,1,591.509,-0.438,8.461,289.641,11.720,8.572
1782115716.336671,0.044000,171724,1000,12,0,1,588.410,-1.007,8.434,301.171,17.340,8.758
1782115716.337671,0.045000,171725,1000,12,0,1,583.798,-3.772,8.434,307.897,18.249,9.003
1782115716.338671,0.046000,171726,1000,12,0,1,578.994,-5.423,8.464,315.608,15.870,9.174
1782115716.339671,0.047000,171727,1000,12,0,1,575.583,-5.599,8.501,322.766,14.394,9.279
1782115716.340671,0.048000,171728,1000,12,0,1,578.250,-1.183,8.491,323.342,6.746,9.156
1782115716.341671,0.049000,171729,1000,12,0,1,585.192,7.370,8.516,320.460,-3.317,9.085
1782115716.342671,0.050000,171730,1000,12,0,1,592.902,14.030,8.682,314.286,-12.817,9.254
1782115716.343671,0.051000,171731,1000,12,0,1,600.132,19.003,8.977,312.149,-17.703,9.581
1782115716.344671,0.052000,171732,1000,12,0,1,599.124,15.475,9.107,310.803,-16.800,9.805
1782115716.345671,0.053000,171733,1000,12,0,1,597.298,8.990,9.120,310.803,-14.812,9.854
1782115716.346671,0.054000,171734,1000,12,0,1,591.029,0.969,9.118,309.578,-10.531,9.673
1782115716.347671,0.055000,171735,1000,12,0,1,590.981,-3.888,9.129,307.801,-7.349,9.471
1782115716.348671,0.056000,171736,1000,12,0,1,592.974,-3.019,9.136,300.787,-6.489,9.314
1782115716.349671,0.057000,171737,1000,12,0,1,595.184,-4.028,9.152,295.598,-5.890,9.094
1782115716.350671,0.058000,171738,1000,12,0,1,599.796,-1.722,9.134,286.711,-5.856,8.993
1782115716.351671,0.059000,171739,1000,12,0,1,602.150,-0.980,9.090,280.321,-6.845,9.032
1782115716.352671,0.060000,171740,1000,12,0,1,602.294,-2.588,8.993,279.432,-2.021,9.029
1782115716.353671,0.061000,171741,1000,12,0,1,600.108,-4.700,8.900,278.135,0.625,8.976
1782115716.354671,0.062000,171742,1000,12,0,1,597.202,-7.391,8.871,283.300,5.350,8.947
1782115716.355671,0.063000,171743,1000,12,0,1,591.725,-10.077,8.909,292.308,13.054,9.028
1782115716.356671,0.064000,171744,1000,12,0,1,587.762,-11.889,9.031,295.839,12.629,9.046
1782115716.357671,0.065000,171745,1000,12,0,1,587.498,-8.581,9.087,300.066,10.230,9.088
1782115716.358671,0.066000,171746,1000,12,0,1,584.375,-7.471,9.135,307.008,9.957,9.170
1782115716.359671,0.067000,171747,1000,12,0,1,583.078,-6.124,9.158,313.326,8.768,9.222
1782115716.360671,0.068000,171748,1000,12,0,1,583.534,-2.358,9.158,315.439,4.108,9.175
1782115716.361671,0.069000,171749,1000,12,0,1,581.709,-1.726,9.161,313.686,-3.143,9.143
1782115716.362671,0.070000,171750,1000,12,0,1,579.835,-2.072,9.158,312.485,-8.276,9.216
1782115716.363671,0.071000,171751,1000,12,0,1,581.757,0.167,9.077,313.446,-8.876,9.300
1782115716.364671,0.072000,171752,1000,12,0,1,580.556,0.078,8.933,312.269,-9.018,9.371
1782115716.365671,0.073000,171753,1000,12,0,1,583.006,0.360,8.675,310.491,-8.615,9.382
1782115716.366671,0.074000,171754,1000,12,0,1,584.135,1.498,8.292,305.279,-8.647,9.315
1782115716.367671,0.075000,171755,1000,12,0,1,584.735,-0.472,7.893,302.444,-6.841,9.237
1782115716.368671,0.076000,171756,1000,12,0,1,584.687,-1.538,7.449,296.535,-4.751,9.146
1782115716.369671,0.077000,171757,1000,12,0,1,580.892,-6.096,7.177,290.026,-5.066,9.074
1782115716.370671,0.078000,171758,1000,12,0,1,578.442,-9.333,7.151,280.537,-6.084,9.051
1782115716.371671,0.079000,171759,1000,12,0,1,578.466,-8.581,7.203,277.006,-4.757,9.066
1782115716.372671,0.080000,171760,1000,12,0,1,577.817,-8.040,7.267,276.766,0.878,9.051
1782115716.373671,0.081000,171761,1000,12,0,1,574.190,-9.068,7.067,277.703,4.066,9.024
1782115716.374671,0.082000,171762,1000,12,0,1,567.488,-12.435,7.057,284.189,9.955,9.076
1782115716.375671,0.083000,171763,1000,12,0,1,572.124,-6.387,6.969,290.554,14.353,9.235
1782115716.376671,0.084000,171764,1000,12,0,1,584.471,8.590,6.954,297.520,15.327,9.436
1782115716.377671,0.085000,171765,1000,12,0,1,594.175,18.964,7.364,301.411,13.668,9.627
1782115716.378671,0.086000,171766,1000,12,0,1,595.448,20.585,7.818,305.831,9.485,9.719
1782115716.379671,0.087000,171767,1000,12,0,1,592.686,16.672,8.084,314.310,10.076,9.799
1782115716.380671,0.088000,171768,1000,12,0,1,593.070,15.488,8.345,318.130,7.143,9.828
1782115716.381671,0.089000,171769,1000,12,0,1,590.885,13.144,8.550,321.132,2.914,9.822
1782115716.382671,0.090000,171770,1000,12,0,1,588.506,8.768,8.639,317.986,-3.055,9.831
1782115716.383671,0.091000,171771,1000,12,0,1,587.377,6.690,8.690,313.061,-10.640,9.938
1782115716.384671,0.092000,171772,1000,12,0,1,586.609,4.088,8.710,309.386,-12.815,10.073
1782115716.385671,0.093000,171773,1000,12,0,1,584.663,0.953,8.710,307.657,-11.938,10.078
1782115716.386671,0.094000,171774,1000,12,0,1,586.297,-0.153,8.709,304.318,-9.776,9.873
1782115716.387671,0.095000,171775,1000,12,0,1,585.912,-1.320,8.695,302.252,-6.699,9.576
1782115716.388671,0.096000,171776,1000,12,0,1,586.200,-3.728,8.677,296.319,-4.940,9.336
1782115716.389671,0.097000,171777,1000,12,0,1,588.314,-3.003,8.651,287.095,-7.265,9.169
1782115716.390671,0.098000,171778,1000,12,0,1,589.131,-3.508,8.664,281.018,-6.705,9.168
1782115716.391671,0.099000,171779,1000,12,0,1,591.173,-3.094,8.612,276.190,-4.761,9.181
1782115716.392671,0.100000,171780,1000,12,0,1,589.707,-4.084,8.400,277.415,-0.260,9.000
1782115716.393671,0.101000,171781,1000,12,0,1,589.611,-5.221,7.993,279.889,5.452,8.680
1782115716.394671,0.102000,171782,1000,12,0,1,588.170,-4.701,7.716,282.699,7.285,8.411
1782115716.395671,0.103000,171783,1000,12,0,1,586.369,-5.778,7.654,291.203,12.397,8.333
1782115716.396671,0.104000,171784,1000,12,0,1,583.390,-5.849,7.698,297.160,14.107,8.438
1782115716.397671,0.105000,171785,1000,12,0,1,581.444,-5.850,7.723,299.682,9.898,8.490
1782115716.398671,0.106000,171786,1000,12,0,1,579.979,-4.184,7.733,307.801,9.701,8.551
1782115716.399671,0.107000,171787,1000,12,0,1,580.772,-1.510,7.715,315.103,10.097,8.629
1782115716.400671,0.108000,171788,1000,12,0,1,581.757,1.668,7.715,316.616,4.687,8.615
1782115716.401671,0.109000,171789,1000,12,0,1,584.207,4.614,7.741,315.536,-1.870,8.564
1782115716.402671,0.110000,171790,1000,12,0,1,584.015,5.358,7.770,312.821,-7.562,8.626
1782115716.403671,0.111000,171791,1000,12,0,1,582.093,2.970,7.753,312.053,-9.773,8.736
1782115716.404671,0.112000,171792,1000,12,0,1,579.355,0.082,7.682,309.242,-10.381,8.826
1782115716.405671,0.113000,171793,1000,12,0,1,579.114,-1.230,7.551,305.975,-10.863,8.766
1782115716.406671,0.114000,171794,1000,12,0,1,577.553,-2.800,7.372,302.660,-8.792,8.672
1782115716.407671,0.115000,171795,1000,12,0,1,575.391,-5.764,7.317,298.145,-7.251,8.612
1782115716.408671,0.116000,171796,1000,12,0,1,571.860,-8.921,7.349,289.954,-7.774,8.567
1782115716.409671,0.117000,171797,1000,12,0,1,561.627,-16.928,7.681,280.153,-10.040,8.595
1782115716.410671,0.118000,171798,1000,12,0,1,553.460,-23.517,8.363,272.418,-10.236,8.696
1782115716.411671,0.119000,171799,1000,12,0,1,551.419,-21.792,8.909,269.728,-6.662,8.736
1782115716.412671,0.120000,171800,1000,12,0,1,555.814,-14.680,9.143,268.503,-2.547,8.665
1782115716.413671,0.121000,171801,1000,12,0,1,562.540,-4.713,9.168,277.895,6.924,8.629
1782115716.414671,0.122000,171802,1000,12,0,1,568.065,2.603,9.175,287.792,16.982,8.866
1782115716.415671,0.123000,171803,1000,12,0,1,563.861,1.885,9.179,296.199,19.970,9.224
1782115716.416671,0.124000,171804,1000,12,0,1,561.339,-0.135,9.176,306.047,22.883,9.699
1782115716.417671,0.125000,171805,1000,12,0,1,573.518,11.898,9.329,314.623,22.729,10.172
1782115716.418671,0.126000,171806,1000,12,0,1,589.515,27.507,10.105,315.488,15.408,10.381
1782115716.419671,0.127000,171807,1000,12,0,1,593.983,30.574,10.958,313.758,5.100,10.381
1782115716.420671,0.128000,171808,1000,12,0,1,594.944,27.278,11.542,315.295,-0.395,10.346
1782115716.421671,0.129000,171809,1000,12,0,1,594.295,23.746,11.959,316.857,-3.267,10.334
1782115716.422671,0.130000,171810,1000,12,0,1,591.365,17.502,12.159,316.905,-6.341,10.372
1782115716.423671,0.131000,171811,1000,12,0,1,591.605,14.048,12.254,314.022,-9.266,10.439
1782115716.424671,0.132000,171812,1000,12,0,1,590.452,10.838,12.223,310.972,-11.245,10.465
1782115716.425671,0.133000,171813,1000,12,0,1,590.572,7.177,12.232,307.369,-10.721,10.378
1782115716.426671,0.134000,171814,1000,12,0,1,591.101,5.564,12.197,304.678,-8.876,10.226
1782115716.427671,0.135000,171815,1000,12,0,1,594.752,5.161,11.921,298.121,-8.124,10.107
1782115716.428671,0.136000,171816,1000,12,0,1,594.584,3.471,11.570,290.314,-9.458,10.107
1782115716.429671,0.137000,171817,1000,12,0,1,596.481,1.029,11.328,281.474,-10.134,10.108
1782115716.430671,0.138000,171818,1000,12,0,1,597.322,0.546,11.115,274.364,-10.477,10.166
1782115716.431671,0.139000,171819,1000,12,0,1,596.217,-3.071,10.967,275.493,-4.334,10.176
1782115716.432671,0.140000,171820,1000,12,0,1,595.352,-5.106,10.921,279.721,3.863,10.181
1782115716.433671,0.141000,171821,1000,12,0,1,592.926,-7.696,10.934,283.108,7.894,10.131
1782115716.434671,0.142000,171822,1000,12,0,1,589.972,-10.477,11.019,290.626,12.787,10.131
1782115716.435671,0.143000,171823,1000,12,0,1,589.419,-10.078,11.110,296.799,15.237,10.219
1782115716.436671,0.144000,171824,1000,12,0,1,590.404,-7.937,11.166,301.988,13.716,10.309
1782115716.437671,0.145000,171825,1000,12,0,1,587.305,-8.422,11.228,310.443,14.182,10.459
1782115716.438671,0.146000,171826,1000,12,0,1,583.126,-11.009,11.323,315.992,12.348,10.581
1782115716.439671,0.147000,171827,1000,12,0,1,582.886,-9.107,11.388,319.331,7.403,10.583
1782115716.440671,0.148000,171828,1000,12,0,1,583.654,-6.128,11.410,318.586,1.104,10.542
1782115716.441671,0.149000,171829,1000,12,0,1,585.336,-3.173,11.411,317.025,-5.508,10.549
1782115716.442671,0.150000,171830,1000,12,0,1,585.528,-1.557,11.398,315.343,-8.818,10.622
1782115716.443671,0.151000,171831,1000,12,0,1,588.579,0.835,11.375,313.518,-10.711,10.702
1782115716.444671,0.152000,171832,1000,12,0,1,589.323,2.328,11.360,311.572,-10.285,10.751
1782115716.445671,0.153000,171833,1000,12,0,1,587.233,-0.643,11.331,310.563,-7.784,10.664
1782115716.446671,0.154000,171834,1000,12,0,1,588.194,-0.757,11.302,309.482,-4.000,10.491
1782115716.447671,0.155000,171835,1000,12,0,1,593.383,2.867,11.278,307.801,-0.489,10.398
1782115716.448671,0.156000,171836,1000,12,0,1,597.514,5.555,11.290,295.935,-4.590,10.327
1782115716.449671,0.157000,171837,1000,12,0,1,597.514,3.912,11.302,286.591,-9.127,10.309
1782115716.450671,0.158000,171838,1000,12,0,1,598.091,2.124,11.303,281.907,-6.728,10.332
1782115716.451671,0.159000,171839,1000,12,0,1,600.253,2.815,11.292,280.754,-3.581,10.341
1782115716.452671,0.160000,171840,1000,12,0,1,597.346,-0.329,11.266,280.970,0.215,10.285
1782115716.453671,0.161000,171841,1000,12,0,1,593.863,-4.538,11.277,287.023,5.748,10.224
1782115716.454671,0.162000,171842,1000,12,0,1,590.260,-6.833,11.318,294.638,11.754,10.254
1782115716.455671,0.163000,171843,1000,12,0,1,587.762,-8.202,11.376,300.234,12.821,10.299
1782115716.456671,0.164000,171844,1000,12,0,1,585.096,-8.299,11.429,305.615,11.774,10.358
1782115716.457671,0.165000,171845,1000,12,0,1,584.015,-7.472,11.449,312.869,11.521,10.436
1782115716.458671,0.166000,171846,1000,12,0,1,582.453,-6.093,11.412,319.763,10.564,10.484
1782115716.459671,0.167000,171847,1000,12,0,1,581.180,-5.328,11.184,319.595,4.333,10.406
1782115716.460671,0.168000,171848,1000,12,0,1,580.532,-3.756,10.691,319.115,-2.889,10.313
1782115716.461671,0.169000,171849,1000,12,0,1,584.279,0.563,10.237,319.931,-5.281,10.297
1782115716.462671,0.170000,171850,1000,12,0,1,584.015,2.308,10.030,317.673,-8.970,10.368
1782115716.463671,0.171000,171851,1000,12,0,1,585.336,2.385,10.013,315.488,-10.782,10.434
1782115716.464671,0.172000,171852,1000,12,0,1,585.192,3.071,10.016,315.271,-8.711,10.228
1782115716.465671,0.173000,171853,1000,12,0,1,586.032,2.222,10.017,310.827,-8.214,9.899
1782115716.466671,0.174000,171854,1000,12,0,1,588.915,4.197,10.035,307.609,-7.085,9.409
1782115716.467671,0.175000,171855,1000,12,0,1,589.299,3.586,9.906,300.475,-6.524,8.891
1782115716.468671,0.176000,171856,1000,12,0,1,589.756,2.120,9.115,292.500,-8.431,8.702
1782115716.469671,0.177000,171857,1000,12,0,1,590.764,2.179,8.030,286.038,-7.502,8.736
1782115716.470671,0.178000,171858,1000,12,0,1,589.323,-0.088,7.043,280.778,-6.602,8.786
1782115716.471671,0.179000,171859,1000,12,0,1,587.858,-2.035,6.197,278.352,-4.192,8.794
1782115716.472671,0.180000,171860,1000,12,0,1,587.522,-2.404,5.692,282.555,2.142,8.753
1782115716.473671,0.181000,171861,1000,12,0,1,585.336,-3.423,5.356,288.320,8.430,8.736
1782115716.474671,0.182000,171862,1000,12,0,1,582.453,-5.289,5.186,295.406,12.450,8.769
1782115716.475671,0.183000,171863,1000,12,0,1,579.931,-5.781,5.151,300.883,13.614,8.849
1782115716.476671,0.184000,171864,1000,12,0,1,578.682,-5.159,5.142,304.870,11.203,8.901
1782115716.477671,0.185000,171865,1000,12,0,1,576.040,-4.905,5.137,310.683,9.591,8.930
1782115716.478671,0.186000,171866,1000,12,0,1,573.806,-5.091,5.164,317.337,9.006,8.921
1782115716.479671,0.187000,171867,1000,12,0,1,573.854,-2.848,5.178,320.532,5.636,8.841
1782115716.480671,0.188000,171868,1000,12,0,1,575.824,0.585,5.178,318.250,-1.448,8.719
1782115716.481671,0.189000,171869,1000,12,0,1,576.544,2.640,5.173,314.503,-8.559,8.781
1782115716.482671,0.190000,171870,1000,12,0,1,575.199,1.923,5.130,311.740,-11.799,8.921
1782115716.483671,0.191000,171871,1000,12,0,1,575.439,1.901,5.020,308.377,-13.295,9.049
1782115716.484671,0.192000,171872,1000,12,0,1,578.081,4.082,4.831,308.690,-10.286,8.985
1782115716.485671,0.193000,171873,1000,12,0,1,577.193,3.153,4.638,304.846,-7.956,8.795
1782115716.486671,0.194000,171874,1000,12,0,1,577.457,1.741,4.506,303.141,-5.505,8.613
1782115716.487671,0.195000,171875,1000,12,0,1,581.108,4.170,4.386,296.871,-3.590,8.392
1782115716.488671,0.196000,171876,1000,12,0,1,583.991,5.714,4.179,291.827,-3.830,8.226
1782115716.489671,0.197000,171877,1000,12,0,1,584.975,5.116,4.041,283.828,-3.743,8.176
1782115716.490671,0.198000,171878,1000,12,0,1,587.906,5.919,4.035,280.297,-3.552,8.190
1782115716.491671,0.199000,171879,1000,12,0,1,589.804,6.698,4.120,285.582,5.142,8.186
1782115716.492671,0.200000,171880,1000,12,0,1,593.791,8.206,4.275,287.431,9.301,8.196
1782115716.493671,0.201000,171881,1000,12,0,1,592.470,7.007,4.387,292.332,11.244,8.211
1782115716.494671,0.202000,171882,1000,12,0,1,590.885,3.472,4.402,297.712,14.332,8.331
1782115716.495671,0.203000,171883,1000,12,0,1,589.083,2.320,4.413,302.468,12.763,8.453
1782115716.496671,0.204000,171884,1000,12,0,1,587.377,0.441,4.412,307.008,11.384,8.586
1782115716.497671,0.205000,171885,1000,12,0,1,586.369,0.230,4.394,315.367,11.083,8.728
1782115716.498671,0.206000,171886,1000,12,0,1,587.522,1.557,4.328,322.141,11.149,8.845
1782115716.499671,0.207000,171887,1000,12,0,1,587.834,2.543,4.308,324.711,6.346,8.797
1782115716.500671,0.208000,171888,1000,12,0,1,589.587,3.662,4.329,323.631,0.135,8.745
1782115716.501671,0.209000,171889,1000,12,0,1,588.867,3.220,4.334,322.574,-4.827,8.757
1782115716.502671,0.210000,171890,1000,12,0,1,590.044,2.707,4.351,320.844,-7.497,8.821
1782115716.503671,0.211000,171891,1000,12,0,1,590.644,2.866,4.322,318.298,-9.159,8.878
1782115716.504671,0.212000,171892,1000,12,0,1,590.164,0.816,4.214,314.118,-10.164,8.839
1782115716.505671,0.213000,171893,1000,12,0,1,591.101,0.128,4.052,311.668,-8.594,8.736
1782115716.506671,0.214000,171894,1000,12,0,1,592.182,-0.114,3.878,307.897,-6.361,8.623
1782115716.507671,0.215000,171895,1000,12,0,1,595.160,0.516,3.732,299.922,-7.663,8.537
1782115716.508671,0.216000,171896,1000,12,0,1,594.896,-0.336,3.632,291.323,-9.669,8.515
1782115716.509671,0.217000,171897,1000,12,0,1,594.560,-2.906,3.576,283.396,-10.428,8.620
1782115716.510671,0.218000,171898,1000,12,0,1,595.376,-2.595,3.556,277.343,-10.462,8.737
1782115716.511671,0.219000,171899,1000,12,0,1,593.791,-4.453,3.610,277.295,-6.228,8.749
1782115716.512671,0.220000,171900,1000,12,0,1,593.407,-5.150,3.668,279.625,-0.953,8.658
1782115716.513671,0.221000,171901,1000,12,0,1,589.299,-7.309,3.796,283.756,3.026,8.533
1782115716.514671,0.222000,171902,1000,12,0,1,587.978,-8.472,3.957,292.284,8.685,8.533
1782115716.515671,0.223000,171903,1000,12,0,1,587.498,-6.180,4.040,300.619,12.683,8.642
1782115716.516671,0.224000,171904,1000,12,0,1,588.218,-4.496,4.047,305.975,11.787,8.744
1782115716.517671,0.225000,171905,1000,12,0,1,584.975,-4.522,4.065,309.819,8.773,8.783
1782115716.518671,0.226000,171906,1000,12,0,1,583.534,-5.247,4.122,316.184,7.593,8.768
1782115716.519671,0.227000,171907,1000,12,0,1,586.513,-0.648,4.111,316.256,3.179,8.715
1782115716.520671,0.228000,171908,1000,12,0,1,585.984,0.583,4.112,318.634,-0.809,8.665
1782115716.521671,0.229000,171909,1000,12,0,1,586.080,0.361,4.102,316.809,-3.311,8.658
1782115716.522671,0.230000,171910,1000,12,0,1,586.801,1.806,4.096,314.935,-7.223,8.713
1782115716.523671,0.231000,171911,1000,12,0,1,587.402,1.608,4.074,313.182,-6.543,8.680
1782115716.524671,0.232000,171912,1000,12,0,1,587.065,1.184,4.008,309.843,-6.890,8.555
1782115716.525671,0.233000,171913,1000,12,0,1,589.131,1.495,3.929,307.441,-4.884,8.364
1782115716.526671,0.234000,171914,1000,12,0,1,588.843,1.201,3.865,304.942,-1.781,8.217
1782115716.527671,0.235000,171915,1000,12,0,1,590.332,0.435,3.802,297.040,-3.114,8.116
1782115716.528671,0.236000,171916,1000,12,0,1,591.581,1.375,3.739,289.881,-4.597,8.042
1782115716.529671,0.237000,171917,1000,12,0,1,593.743,1.640,3.724,282.579,-5.255,8.037
1782115716.530671,0.238000,171918,1000,12,0,1,590.260,-1.046,3.726,280.537,-3.264,8.047
1782115716.531671,0.239000,171919,1000,12,0,1,588.843,-3.925,3.749,279.024,-0.337,7.956
1782115716.532671,0.240000,171920,1000,12,0,1,587.281,-3.794,3.777,279.673,1.103,7.781
1782115716.533671,0.241000,171921,1000,12,0,1,585.984,-4.658,3.825,285.269,5.751,7.594
1782115716.534671,0.242000,171922,1000,12,0,1,581.036,-6.742,3.899,292.908,10.264,7.593
1782115716.535671,0.243000,171923,1000,12,0,1,579.114,-7.543,4.018,297.136,9.962,7.640
1782115716.536671,0.244000,171924,1000,12,0,1,579.595,-4.269,4.056,303.645,9.356,7.715
1782115716.537671,0.245000,171925,1000,12,0,1,578.682,-2.841,4.032,312.533,11.147,7.858
1782115716.538671,0.246000,171926,1000,12,0,1,580.436,-0.121,3.951,316.689,8.836,7.938
1782115716.539671,0.247000,171927,1000,12,0,1,579.931,1.777,3.892,319.115,4.301,7.944
1782115716.540671,0.248000,171928,1000,12,0,1,584.447,4.843,3.862,318.874,0.110,7.928
1782115716.541671,0.249000,171929,1000,12,0,1,588.314,9.741,3.990,318.971,-3.393,7.909
1782115716.542671,0.250000,171930,1000,12,0,1,588.458,8.090,3.985,318.826,-3.795,7.817
1782115716.543671,0.251000,171931,1000,12,0,1,591.245,8.880,4.059,318.346,-3.720,7.672
1782115716.544671,0.252000,171932,1000,12,0,1,590.885,7.402,4.163,317.001,-2.252,7.406
1782115716.545671,0.253000,171933,1000,12,0,1,590.140,4.036,4.189,314.815,-0.901,7.184
1782115716.546671,0.254000,171934,1000,12,0,1,589.659,2.411,4.202,311.716,0.579,7.002
1782115716.547671,0.255000,171935,1000,12,0,1,591.869,2.156,4.213,303.237,-1.823,6.829
1782115716.548671,0.256000,171936,1000,12,0,1,594.512,3.729,4.240,293.845,-5.992,6.698
1782115716.549671,0.257000,171937,1000,12,0,1,595.545,3.030,4.247,287.864,-6.276,6.697
1782115716.550671,0.258000,171938,1000,12,0,1,596.649,2.738,4.233,283.276,-5.879,6.748
1782115716.551671,0.259000,171939,1000,12,0,1,596.649,1.952,4.217,283.276,-3.153,6.728
1782115716.552671,0.260000,171940,1000,12,0,1,592.926,-1.647,4.206,290.962,4.688,6.677
1782115716.553671,0.261000,171941,1000,12,0,1,590.140,-4.428,4.233,297.760,10.358,6.712
1782115716.554671,0.262000,171942,1000,12,0,1,589.852,-3.767,4.265,302.973,10.880,6.735
1782115716.555671,0.263000,171943,1000,12,0,1,588.410,-3.597,4.295,308.209,10.389,6.785
1782115716.556671,0.264000,171944,1000,12,0,1,586.321,-4.383,4.340,313.734,8.792,6.839
1782115716.557671,0.265000,171945,1000,12,0,1,585.168,-3.969,4.375,319.427,7.190,6.829
1782115716.558671,0.266000,171946,1000,12,0,1,582.814,-4.459,4.420,320.772,2.482,6.700
1782115716.559671,0.267000,171947,1000,12,0,1,582.213,-4.089,4.439,321.180,-3.102,6.550
1782115716.560671,0.268000,171948,1000,12,0,1,583.270,-1.870,4.432,320.244,-6.987,6.457
1782115716.561671,0.269000,171949,1000,12,0,1,584.711,-0.081,4.387,317.673,-11.090,6.586
1782115716.562671,0.270000,171950,1000,12,0,1,584.279,-0.103,4.326,315.463,-12.411,6.815
1782115716.563671,0.271000,171951,1000,12,0,1,584.519,-0.571,4.201,313.662,-11.484,6.992
1782115716.564671,0.272000,171952,1000,12,0,1,585.696,0.171,4.027,310.491,-10.040,7.029
1782115716.565671,0.273000,171953,1000,12,0,1,588.819,1.879,3.940,307.993,-7.421,6.876
1782115716.566671,0.274000,171954,1000,12,0,1,591.653,3.624,3.922,301.531,-6.640,6.737
1782115716.567671,0.275000,171955,1000,12,0,1,592.326,2.903,3.891,288.897,-11.528,6.820
1782115716.568671,0.276000,171956,1000,12,0,1,595.785,4.008,3.862,283.372,-11.067,6.914
1782115716.569671,0.277000,171957,1000,12,0,1,597.370,4.905,3.922,281.282,-5.490,6.943
1782115716.570671,0.278000,171958,1000,12,0,1,596.818,2.679,3.940,279.697,-2.504,6.951
1782115716.571671,0.279000,171959,1000,12,0,1,596.433,1.683,3.947,279.240,0.578,6.936
1782115716.572671,0.280000,171960,1000,12,0,1,596.025,0.862,3.940,284.068,5.244,6.900
1782115716.573671,0.281000,171961,1000,12,0,1,591.821,-2.189,3.946,292.115,11.658,7.034
1782115716.574671,0.282000,171962,1000,12,0,1,587.810,-5.543,4.020,297.976,13.560,7.225
1782115716.575671,0.283000,171963,1000,12,0,1,588.362,-3.794,4.050,304.102,13.246,7.432
1782115716.576671,0.284000,171964,1000,12,0,1,586.561,-3.066,4.069,314.599,15.833,7.758
1782115716.577671,0.285000,171965,1000,12,0,1,585.240,-3.554,4.100,320.484,14.761,8.022
1782115716.578671,0.286000,171966,1000,12,0,1,586.128,-1.087,4.098,321.373,8.046,8.076
1782115716.579671,0.287000,171967,1000,12,0,1,586.297,-0.002,4.091,319.859,1.010,8.043
1782115716.580671,0.288000,171968,1000,12,0,1,588.314,1.903,4.098,319.451,-3.611,8.046
1782115716.581671,0.289000,171969,1000,12,0,1,590.500,3.982,4.099,320.700,-4.226,8.068
1782115716.582671,0.290000,171970,1000,12,0,1,590.212,3.026,4.086,317.385,-6.406,8.117
1782115716.583671,0.291000,171971,1000,12,0,1,591.365,2.546,4.048,313.518,-8.656,8.168
1782115716.584671,0.292000,171972,1000,12,0,1,592.086,2.335,3.948,310.371,-7.336,8.105
1782115716.585671,0.293000,171973,1000,12,0,1,592.998,1.393,3.807,305.759,-6.655,8.037
1782115716.586671,0.294000,171974,1000,12,0,1,594.776,1.709,3.766,297.160,-8.149,8.011
1782115716.587671,0.295000,171975,1000,12,0,1,595.617,1.192,3.749,291.275,-8.124,7.938
1782115716.588671,0.296000,171976,1000,12,0,1,597.178,1.097,3.752,281.594,-9.145,7.945
1782115716.589671,0.297000,171977,1000,12,0,1,594.728,-1.228,3.747,276.022,-9.864,8.043
1782115716.590671,0.298000,171978,1000,12,0,1,592.998,-4.033,3.728,278.135,-2.698,8.052
1782115716.591671,0.299000,171979,1000,12,0,1,591.293,-4.490,3.522,281.330,3.163,8.050
1782115716.592671,0.300000,171980,1000,12,0,1,591.005,-4.520,3.392,286.471,7.704,8.106
1782115716.593671,0.301000,171981,1000,12,0,1,588.675,-4.543,3.216,290.122,9.699,8.204
1782115716.594671,0.302000,171982,1000,12,0,1,588.338,-4.219,3.098,296.487,10.454,8.330
1782115716.595671,0.303000,171983,1000,12,0,1,588.050,-2.156,3.061,301.027,10.402,8.458
1782115716.596671,0.304000,171984,1000,12,0,1,586.369,-2.364,3.060,310.683,11.113,8.603
1782115716.597671,0.305000,171985,1000,12,0,1,586.321,-1.236,3.050,316.713,11.705,8.757
1782115716.598671,0.306000,171986,1000,12,0,1,584.855,-0.834,3.006,317.361,4.890,8.743
1782115716.599671,0.307000,171987,1000,12,0,1,585.936,0.102,2.975,318.466,0.747,8.699
1782115716.600671,0.308000,171988,1000,12,0,1,589.107,3.837,2.999,317.818,-2.966,8.669
1782115716.601671,0.309000,171989,1000,12,0,1,589.491,3.903,3.037,319.091,-4.034,8.676
1782115716.602671,0.310000,171990,1000,12,0,1,590.812,3.857,3.077,316.713,-4.632,8.676
1782115716.603671,0.311000,171991,1000,12,0,1,591.821,3.930,3.064,312.725,-7.056,8.609
1782115716.604671,0.312000,171992,1000,12,0,1,593.263,3.438,3.056,313.061,-3.146,8.482
1782115716.605671,0.313000,171993,1000,12,0,1,594.319,3.152,3.046,310.924,-0.111,8.354
1782115716.606671,0.314000,171994,1000,12,0,1,596.265,2.953,3.011,301.604,-3.303,8.274
1782115716.607671,0.315000,171995,1000,12,0,1,601.382,5.747,3.068,291.875,-7.296,8.276
1782115716.608671,0.316000,171996,1000,12,0,1,600.901,4.635,3.073,284.141,-8.342,8.352
1782115716.609671,0.317000,171997,1000,12,0,1,599.100,0.606,3.020,279.553,-7.443,8.407
1782115716.610671,0.318000,171998,1000,12,0,1,601.934,2.231,3.025,279.288,-3.551,8.364
1782115716.611671,0.319000,171999,1000,12,0,1,598.787,0.040,3.025,278.472,-1.295,8.217
1782115716.612671,0.320000,172000,1000,12,0,1,596.722,-3.103,3.056,284.189,3.049,8.039
1782115716.613671,0.321000,172001,1000,12,0,1,594.392,-3.398,3.093,291.611,9.039,7.977
1782115716.614671,0.322000,172002,1000,12,0,1,591.629,-5.381,3.185,295.358,8.329,7.937
1782115716.615671,0.323000,172003,1000,12,0,1,590.524,-4.613,3.240,299.009,6.283,7.917
1782115716.616671,0.324000,172004,1000,12,0,1,588.651,-4.522,3.263,308.041,7.926,7.941
1782115716.617671,0.325000,172005,1000,12,0,1,589.083,-3.115,3.267,315.536,9.270,7.882
1782115716.618671,0.326000,172006,1000,12,0,1,592.326,1.090,3.221,318.418,5.611,7.765
1782115716.619671,0.327000,172007,1000,12,0,1,591.581,1.385,3.151,317.962,0.311,7.727
1782115716.620671,0.328000,172008,1000,12,0,1,590.092,-0.450,3.129,315.968,-4.696,7.747
1782115716.621671,0.329000,172009,1000,12,0,1,593.287,1.783,3.130,314.839,-6.909,7.808
1782115716.622671,0.330000,172010,1000,12,0,1,593.383,2.134,3.142,311.572,-8.183,7.858
1782115716.623671,0.331000,172011,1000,12,0,1,591.893,-0.893,3.129,308.401,-8.653,7.780
1782115716.624671,0.332000,172012,1000,12,0,1,593.503,-0.405,3.030,307.320,-5.122,7.575
1782115716.625671,0.333000,172013,1000,12,0,1,595.785,0.749,2.984,303.717,-2.908,7.351
1782115716.626671,0.334000,172014,1000,12,0,1,595.641,-0.199,2.953,296.559,-3.790,7.022
1782115716.627671,0.335000,172015,1000,12,0,1,599.220,1.171,2.914,288.152,-5.665,6.753
1782115716.628671,0.336000,172016,1000,12,0,1,599.508,1.707,2.920,279.985,-7.259,6.735
1782115716.629671,0.337000,172017,1000,12,0,1,601.430,1.331,2.926,277.535,-4.927,6.769
1782115716.630671,0.338000,172018,1000,12,0,1,603.159,3.240,2.950,280.225,1.452,6.753
1782115716.631671,0.339000,172019,1000,12,0,1,599.532,-0.284,2.896,281.714,4.799,6.761
1782115716.632671,0.340000,172020,1000,12,0,1,595.857,-3.750,2.913,287.239,8.206,6.799
1782115716.633671,0.341000,172021,1000,12,0,1,593.791,-4.331,2.954,293.100,11.495,6.883
1782115716.634671,0.342000,172022,1000,12,0,1,590.452,-5.704,3.045,299.226,11.618,7.000
1782115716.635671,0.343000,172023,1000,12,0,1,588.603,-5.722,3.144,304.966,11.209,7.115
1782115716.636671,0.344000,172024,1000,12,0,1,588.098,-4.144,3.189,315.536,12.828,7.252
1782115716.637671,0.345000,172025,1000,12,0,1,586.297,-3.723,3.228,320.388,11.657,7.348
1782115716.638671,0.346000,172026,1000,12,0,1,584.855,-3.803,3.269,321.228,4.706,7.263
1782115716.639671,0.347000,172027,1000,12,0,1,585.552,-1.944,3.276,322.550,0.959,7.130
1782115716.640671,0.348000,172028,1000,12,0,1,585.912,-0.699,3.227,321.373,-3.133,7.133
1782115716.641671,0.349000,172029,1000,12,0,1,586.441,-0.145,3.164,318.010,-7.439,7.196
1782115716.642671,0.350000,172030,1000,12,0,1,588.867,1.645,3.108,317.217,-7.401,7.190
1782115716.643671,0.351000,172031,1000,12,0,1,590.428,2.643,3.064,314.791,-6.324,7.114
1782115716.644671,0.352000,172032,1000,12,0,1,592.806,3.220,3.039,310.803,-6.050,7.011
1782115716.645671,0.353000,172033,1000,12,0,1,593.863,3.321,3.060,304.606,-6.297,6.913
1782115716.646671,0.354000,172034,1000,12,0,1,595.496,2.846,3.068,297.880,-6.839,6.801
1782115716.647671,0.355000,172035,1000,12,0,1,591.845,-0.475,3.064,292.187,-6.121,6.653
1782115716.648671,0.356000,172036,1000,12,0,1,585.456,-7.259,3.229,287.527,-4.769,6.651
1782115716.649671,0.357000,172037,1000,12,0,1,577.913,-12.603,3.689,288.560,-0.214,6.651
1782115716.650671,0.358000,172038,1000,12,0,1,571.043,-16.792,4.353,289.281,4.013,6.662
1782115716.651671,0.359000,172039,1000,12,0,1,568.281,-16.046,4.878,288.752,3.577,6.656
1782115716.652671,0.360000,172040,1000,12,0,1,576.112,-6.206,4.926,289.857,3.543,6.643
1782115716.653671,0.361000,172041,1000,12,0,1,591.845,10.543,5.117,289.137,0.697,6.568
1782115716.654671,0.362000,172042,1000,12,0,1,601.165,20.439,5.857,289.161,-3.118,6.568
1782115716.655671,0.363000,172043,1000,12,0,1,596.193,15.216,6.224,294.565,-2.458,6.577
1782115716.656671,0.364000,172044,1000,12,0,1,588.026,5.863,6.265,307.128,3.865,6.583
1782115716.657671,0.365000,172045,1000,12,0,1,586.369,3.474,6.231,315.367,7.278,6.583
1782115716.658671,0.366000,172046,1000,12,0,1,591.053,7.452,6.286,318.658,4.251,6.504
1782115716.659671,0.367000,172047,1000,12,0,1,591.989,8.464,6.398,317.289,-0.623,6.419
1782115716.660671,0.368000,172048,1000,12,0,1,589.732,4.824,6.426,314.983,-5.730,6.451
1782115716.661671,0.369000,172049,1000,12,0,1,588.651,2.584,6.437,315.055,-5.918,6.502
1782115716.662671,0.370000,172050,1000,12,0,1,592.134,4.058,6.447,315.680,-3.744,6.509
1782115716.663671,0.371000,172051,1000,12,0,1,596.625,6.921,6.504,313.782,-2.426,6.392
1782115716.664671,0.372000,172052,1000,12,0,1,596.001,4.835,6.495,310.779,-1.396,6.285
1782115716.665671,0.373000,172053,1000,12,0,1,591.701,-1.067,6.464,308.353,0.859,6.223
1782115716.666671,0.374000,172054,1000,12,0,1,596.049,0.312,6.432,299.009,-1.521,6.125
1782115716.667671,0.375000,172055,1000,12,0,1,598.571,3.016,6.431,290.674,-5.130,6.027
1782115716.668671,0.376000,172056,1000,12,0,1,599.412,1.512,6.433,283.300,-5.530,6.026
1782115716.669671,0.377000,172057,1000,12,0,1,599.772,1.425,6.433,280.177,-4.803,6.064
1782115716.670671,0.378000,172058,1000,12,0,1,594.848,-3.221,6.449,280.585,-0.543,6.028
1782115716.671671,0.379000,172059,1000,12,0,1,598.499,-1.690,6.449,282.988,2.632,5.960
1782115716.672671,0.380000,172060,1000,12,0,1,600.901,2.734,6.453,287.551,5.994,5.907
1782115716.673671,0.381000,172061,1000,12,0,1,596.169,-2.000,6.458,292.980,8.142,5.893
1782115716.674671,0.382000,172062,1000,12,0,1,593.046,-4.418,6.488,297.640,7.847,5.953
1782115716.675671,0.383000,172063,1000,12,0,1,588.747,-6.633,6.555,301.964,6.242,6.004
1782115716.676671,0.384000,172064,1000,12,0,1,586.657,-7.673,6.644,311.980,8.275,6.093
1782115716.677671,0.385000,172065,1000,12,0,1,586.657,-5.558,6.688,317.625,8.621,6.162
1782115716.678671,0.386000,172066,1000,12,0,1,586.369,-4.562,6.715,317.938,2.362,6.085
1782115716.679671,0.387000,172067,1000,12,0,1,588.194,-2.148,6.719,314.142,-4.501,6.078
1782115716.680671,0.388000,172068,1000,12,0,1,589.179,-0.456,6.704,312.413,-8.936,6.205
1782115716.681671,0.389000,172069,1000,12,0,1,584.759,-3.965,6.727,310.347,-9.557,6.314
1782115716.682671,0.390000,172070,1000,12,0,1,586.297,-3.914,6.729,308.642,-9.363,6.346
1782115716.683671,0.391000,172071,1000,12,0,1,588.555,-0.673,6.702,307.128,-6.599,6.205
1782115716.684671,0.392000,172072,1000,12,0,1,587.281,-2.521,6.662,304.270,-4.341,6.015
1782115716.685671,0.393000,172073,1000,12,0,1,584.855,-4.784,6.648,298.769,-3.740,5.826
1782115716.686671,0.394000,172074,1000,12,0,1,589.395,-1.778,6.626,291.371,-4.540,5.574
1782115716.687671,0.395000,172075,1000,12,0,1,592.566,2.179,6.613,282.771,-6.390,5.401
1782115716.688671,0.396000,172076,1000,12,0,1,595.136,3.122,6.606,275.733,-7.133,5.454
1782115716.689671,0.397000,172077,1000,12,0,1,596.866,4.640,6.632,272.827,-5.114,5.500
1782115716.690671,0.398000,172078,1000,12,0,1,595.040,2.589,6.642,273.139,-1.172,5.484
1782115716.691671,0.399000,172079,1000,12,0,1,594.031,1.063,6.643,277.319,3.628,5.407
1782115716.692671,0.400000,172080,1000,12,0,1,591.845,0.145,6.639,287.431,11.475,5.547
1782115716.693671,0.401000,172081,1000,12,0,1,590.308,-1.162,6.631,294.710,15.307,5.887
1782115716.694671,0.402000,172082,1000,12,0,1,586.945,-2.201,6.622,299.177,13.270,6.119
1782115716.695671,0.403000,172083,1000,12,0,1,585.720,-2.919,6.619,305.087,11.899,6.284
1782115716.696671,0.404000,172084,1000,12,0,1,584.015,-2.056,6.613,315.536,13.725,6.505
1782115716.697671,0.405000,172085,1000,12,0,1,584.711,-1.099,6.614,319.139,11.263,6.641
1782115716.698671,0.406000,172086,1000,12,0,1,588.915,3.784,6.556,320.099,4.630,6.639
1782115716.699671,0.407000,172087,1000,12,0,1,590.044,5.264,6.353,319.139,-0.057,6.639
1782115716.700671,0.408000,172088,1000,12,0,1,589.035,3.421,5.912,319.763,-2.931,6.628
1782115716.701671,0.409000,172089,1000,12,0,1,589.203,2.725,5.473,318.058,-4.081,6.634
1782115716.702671,0.410000,172090,1000,12,0,1,591.005,3.112,5.420,315.656,-5.526,6.661
1782115716.703671,0.411000,172091,1000,12,0,1,593.743,4.387,5.248,313.085,-4.565,6.691
1782115716.704671,0.412000,172092,1000,12,0,1,594.608,3.745,4.412,310.059,-3.226,6.692
1782115716.705671,0.413000,172093,1000,12,0,1,592.950,0.794,3.853,305.735,-2.234,6.691
1782115716.706671,0.414000,172094,1000,12,0,1,593.647,-0.362,3.763,296.487,-4.758,6.702
1782115716.707671,0.415000,172095,1000,12,0,1,595.040,0.447,3.731,287.503,-8.246,6.725
1782115716.708671,0.416000,172096,1000,12,0,1,596.601,0.819,3.581,282.723,-7.115,6.773
1782115716.709671,0.417000,172097,1000,12,0,1,595.376,-0.184,3.375,279.913,-5.348,6.814
1782115716.710671,0.418000,172098,1000,12,0,1,593.815,-2.177,3.320,281.835,-1.231,6.768
1782115716.711671,0.419000,172099,1000,12,0,1,593.695,-1.736,3.309,285.678,3.286,6.732
1782115716.712671,0.420000,172100,1000,12,0,1,594.343,-0.531,3.260,293.605,8.116,6.809
1782115716.713671,0.421000,172101,1000,12,0,1,591.701,-1.581,3.117,301.700,12.154,7.014
1782115716.714671,0.422000,172102,1000,12,0,1,590.140,-2.604,3.064,304.774,9.443,7.137
1782115716.715671,0.423000,172103,1000,12,0,1,585.720,-4.373,3.122,308.690,5.917,7.185
1782115716.716671,0.424000,172104,1000,12,0,1,581.757,-7.124,3.280,316.665,6.558,7.242
1782115716.717671,0.425000,172105,1000,12,0,1,582.910,-4.457,3.313,321.733,5.457,7.246
1782115716.718671,0.426000,172106,1000,12,0,1,583.534,-1.926,3.317,323.150,1.131,7.206
1782115716.719671,0.427000,172107,1000,12,0,1,585.480,-0.072,3.311,321.204,-4.143,7.198
1782115716.720671,0.428000,172108,1000,12,0,1,585.792,1.224,3.284,317.745,-9.053,7.310
1782115716.721671,0.429000,172109,1000,12,0,1,587.498,1.505,3.282,316.737,-9.581,7.426
1782115716.722671,0.430000,172110,1000,12,0,1,585.360,0.220,3.259,313.878,-8.906,7.484
1782115716.723671,0.431000,172111,1000,12,0,1,583.294,-3.330,3.281,311.932,-7.346,7.467
1782115716.724671,0.432000,172112,1000,12,0,1,585.023,-1.898,3.232,310.179,-3.435,7.400
1782115716.725671,0.433000,172113,1000,12,0,1,588.506,0.692,3.095,304.558,-3.002,7.360
1782115716.726671,0.434000,172114,1000,12,0,1,596.169,6.221,3.029,296.367,-4.842,7.298
1782115716.727671,0.435000,172115,1000,12,0,1,598.715,8.393,3.157,288.512,-6.435,7.253
1782115716.728671,0.436000,172116,1000,12,0,1,598.859,5.826,3.198,282.315,-6.838,7.310
1782115716.729671,0.437000,172117,1000,12,0,1,597.802,4.324,3.242,279.937,-4.923,7.315
1782115716.730671,0.438000,172118,1000,12,0,1,596.385,1.743,3.250,281.714,-0.690,7.206
1782115716.731671,0.439000,172119,1000,12,0,1,593.959,-0.062,3.202,285.101,3.171,7.092
1782115716.732671,0.440000,172120,1000,12,0,1,591.029,-2.452,3.173,291.539,6.954,7.036
1782115716.733671,0.441000,172121,1000,12,0,1,588.939,-3.247,3.204,297.040,8.908,7.087
1782115716.734671,0.442000,172122,1000,12,0,1,585.120,-4.840,3.257,302.468,8.123,7.153
1782115716.735671,0.443000,172123,1000,12,0,1,580.604,-7.337,3.351,309.026,8.164,7.226
1782115716.736671,0.444000,172124,1000,12,0,1,578.610,-7.094,3.489,318.034,9.425,7.320
1782115716.737671,0.445000,172125,1000,12,0,1,578.298,-5.290,3.555,322.261,7.855,7.349
1782115716.738671,0.446000,172126,1000,12,0,1,578.970,-3.021,3.553,321.661,1.512,7.282
1782115716.739671,0.447000,172127,1000,12,0,1,580.844,-0.420,3.492,320.772,-2.977,7.259
1782115716.740671,0.448000,172128,1000,12,0,1,583.078,1.985,3.484,320.868,-4.454,7.284
1782115716.741671,0.449000,172129,1000,12,0,1,582.838,1.677,3.489,319.331,-5.130,7.302
1782115716.742671,0.450000,172130,1000,12,0,1,579.210,-2.038,3.501,317.986,-4.465,7.147
1782115716.743671,0.451000,172131,1000,12,0,1,576.232,-5.396,3.579,314.503,-3.618,6.831
1782115716.744671,0.452000,172132,1000,12,0,1,580.291,-2.429,3.582,311.908,-1.994,6.574
1782115716.745671,0.453000,172133,1000,12,0,1,586.489,3.369,3.590,306.600,-0.998,6.357
1782115716.746671,0.454000,172134,1000,12,0,1,590.212,5.746,3.670,299.322,-2.759,6.065
1782115716.747671,0.455000,172135,1000,12,0,1,594.464,7.843,3.830,291.419,-4.527,5.888
1782115716.748671,0.456000,172136,1000,12,0,1,593.022,6.056,3.888,282.291,-7.814,5.954
1782115716.749671,0.457000,172137,1000,12,0,1,594.368,4.624,3.872,280.898,-6.151,6.018
1782115716.750671,0.458000,172138,1000,12,0,1,596.553,6.880,3.963,282.075,-1.398,6.007
1782115716.751671,0.459000,172139,1000,12,0,1,593.407,3.541,3.976,283.492,-0.145,5.979
1782115716.752671,0.460000,172140,1000,12,0,1,591.485,1.239,3.955,289.353,3.622,5.950
1782115716.753671,0.461000,172141,1000,12,0,1,589.083,0.266,3.907,294.758,5.665,5.969
1782115716.754671,0.462000,172142,1000,12,0,1,585.144,-2.581,3.888,301.483,6.346,6.018
1782115716.755671,0.463000,172143,1000,12,0,1,582.934,-3.254,3.913,309.098,7.786,6.110
1782115716.756671,0.464000,172144,1000,12,0,1,580.700,-3.579,3.945,317.842,8.927,6.203
1782115716.757671,0.465000,172145,1000,12,0,1,582.093,-1.562,3.951,323.943,8.776,6.217
1782115716.758671,0.466000,172146,1000,12,0,1,583.798,1.396,3.954,322.814,2.628,6.147
1782115716.759671,0.467000,172147,1000,12,0,1,583.822,1.389,3.959,322.670,-2.025,6.107
1782115716.760671,0.468000,172148,1000,12,0,1,587.450,3.670,3.981,320.340,-4.599,6.139
1782115716.761671,0.469000,172149,1000,12,0,1,591.725,6.803,4.088,317.529,-7.226,6.206
1782115716.762671,0.470000,172150,1000,12,0,1,592.902,5.986,4.174,315.848,-5.762,6.153
1782115716.763671,0.471000,172151,1000,12,0,1,590.620,2.035,4.178,311.284,-5.577,5.960
1782115716.764671,0.472000,172152,1000,12,0,1,589.804,-1.098,4.165,308.618,-3.582,5.831
1782115716.765671,0.473000,172153,1000,12,0,1,591.677,-0.684,4.120,302.853,-2.205,5.779
1782115716.766671,0.474000,172154,1000,12,0,1,596.649,2.139,4.006,295.118,-4.228,5.735
1782115716.767671,0.475000,172155,1000,12,0,1,597.730,2.667,3.974,288.632,-4.369,5.717
1782115716.768671,0.476000,172156,1000,12,0,1,596.289,-0.325,3.965,282.579,-5.020,5.758
1782115716.769671,0.477000,172157,1000,12,0,1,596.529,-0.729,3.967,279.312,-4.416,5.762
1782115716.770671,0.478000,172158,1000,12,0,1,594.656,-1.946,3.972,279.889,-1.651,5.623
1782115716.771671,0.479000,172159,1000,12,0,1,591.821,-4.264,4.012,281.450,0.360,5.458
1782115716.772671,0.480000,172160,1000,12,0,1,587.642,-6.286,4.109,290.866,6.111,5.380
1782115716.773671,0.481000,172161,1000,12,0,1,584.639,-7.628,4.222,295.070,8.113,5.402
1782115716.774671,0.482000,172162,1000,12,0,1,580.484,-8.337,4.376,301.291,6.513,5.459
1782115716.775671,0.483000,172163,1000,12,0,1,574.286,-11.389,4.662,310.491,9.735,5.614
1782115716.776671,0.484000,172164,1000,12,0,1,566.840,-14.663,5.026,322.069,12.618,5.850
1782115716.777671,0.485000,172165,1000,12,0,1,564.510,-14.062,5.273,325.985,10.905,5.981
1782115716.778671,0.486000,172166,1000,12,0,1,561.555,-12.260,5.489,327.858,5.423,5.952
1782115716.779671,0.487000,172167,1000,12,0,1,563.717,-8.762,5.594,326.657,1.215,5.914
1782115716.780671,0.488000,172168,1000,12,0,1,573.638,2.163,5.597,320.676,-6.053,5.975
1782115716.781671,0.489000,172169,1000,12,0,1,582.549,10.709,5.798,314.815,-10.824,6.151
1782115716.782671,0.490000,172170,1000,12,0,1,586.080,12.348,6.045,313.854,-8.712,6.196
1782115716.783671,0.491000,172171,1000,12,0,1,585.120,9.207,6.167,314.671,-3.376,6.085
1782115716.784671,0.492000,172172,1000,12,0,1,584.447,5.657,6.181,314.455,1.566,5.980
1782115716.785671,0.493000,172173,1000,12,0,1,584.855,4.340,6.124,305.375,-0.807,5.869
1782115716.786671,0.494000,172174,1000,12,0,1,590.500,6.821,6.118,294.806,-5.946,5.777
1782115716.787671,0.495000,172175,1000,12,0,1,596.962,11.612,6.290,288.560,-6.200,5.736
1782115716.788671,0.496000,172176,1000,12,0,1,596.649,9.658,6.422,282.507,-6.294,5.801
1782115716.789671,0.497000,172177,1000,12,0,1,594.055,5.312,6.466,280.658,-5.037,5.830
1782115716.790671,0.498000,172178,1000,12,0,1,591.629,2.572,6.470,282.915,-0.502,5.796
1782115716.791671,0.499000,172179,1000,12,0,1,587.137,-1.081,6.468,284.669,1.116,5.752
1782115716.792671,0.500000,172180,1000,12,0,1,585.144,-2.389,6.470,290.290,3.632,5.741
1782115716.793671,0.501000,172181,1000,12,0,1,585.600,-0.287,6.425,299.490,8.168,5.833
1782115716.794671,0.502000,172182,1000,12,0,1,584.255,0.193,6.416,303.621,7.222,5.915
1782115716.795671,0.503000,172183,1000,12,0,1,582.117,-0.641,6.399,309.602,5.262,5.960
1782115716.796671,0.504000,172184,1000,12,0,1,580.868,-0.632,6.348,317.577,6.827,6.025
1782115716.797671,0.505000,172185,1000,12,0,1,580.195,-0.413,6.250,318.466,2.470,6.001
1782115716.798671,0.506000,172186,1000,12,0,1,580.411,0.140,6.191,318.466,-2.766,5.912
1782115716.799671,0.507000,172187,1000,12,0,1,580.436,0.192,6.157,319.475,-3.924,5.874
1782115716.800671,0.508000,172188,1000,12,0,1,580.075,-0.704,6.080,317.649,-5.950,5.930
1782115716.801671,0.509000,172189,1000,12,0,1,580.123,-1.539,6.063,317.025,-5.547,5.982
1782115716.802671,0.510000,172190,1000,12,0,1,581.805,-1.223,6.063,315.896,-3.137,5.977
1782115716.803671,0.511000,172191,1000,12,0,1,583.006,-1.106,6.065,310.972,-3.250,5.940
1782115716.804671,0.512000,172192,1000,12,0,1,584.351,-1.436,6.058,310.683,0.448,5.873
1782115716.805671,0.513000,172193,1000,12,0,1,587.161,-0.200,6.040,308.209,4.527,5.804
1782115716.806671,0.514000,172194,1000,12,0,1,589.683,1.031,6.021,298.769,0.650,5.666
1782115716.807671,0.515000,172195,1000,12,0,1,590.788,1.014,6.018,291.827,-1.787,5.534
1782115716.808671,0.516000,172196,1000,12,0,1,591.845,1.138,6.017,280.802,-6.212,5.591
1782115716.809671,0.517000,172197,1000,12,0,1,590.812,0.285,6.014,279.937,-6.038,5.648
1782115716.810671,0.518000,172198,1000,12,0,1,588.362,-1.753,5.997,281.258,-0.633,5.611
1782115716.811671,0.519000,172199,1000,12,0,1,584.711,-3.776,5.943,282.795,-0.611,5.518
1782115716.812671,0.520000,172200,1000,12,0,1,581.132,-5.412,5.932,290.218,4.216,5.490
1782115716.813671,0.521000,172201,1000,12,0,1,581.132,-3.553,5.946,294.686,5.242,5.484
1782115716.814671,0.522000,172202,1000,12,0,1,580.003,-1.728,5.949,299.874,3.793,5.487
1782115716.815671,0.523000,172203,1000,12,0,1,576.928,-2.793,5.962,309.554,6.938,5.565
1782115716.816671,0.524000,172204,1000,12,0,1,575.031,-2.759,5.967,318.946,9.154,5.682
1782115716.817671,0.525000,172205,1000,12,0,1,575.535,-1.012,5.957,321.589,6.277,5.718
1782115716.818671,0.526000,172206,1000,12,0,1,577.121,1.373,5.960,322.718,1.428,5.677
1782115716.819671,0.527000,172207,1000,12,0,1,580.556,4.172,5.988,324.639,0.386,5.643
1782115716.820671,0.528000,172208,1000,12,0,1,585.456,7.617,6.078,323.703,-1.595,5.643
1782115716.821671,0.529000,172209,1000,12,0,1,586.369,7.092,6.130,323.342,-1.732,5.648
1782115716.822671,0.530000,172210,1000,12,0,1,587.137,4.749,6.103,322.141,-0.161,5.581
1782115716.823671,0.531000,172211,1000,12,0,1,588.362,3.869,6.031,320.364,1.262,5.465
1782115716.824671,0.532000,172212,1000,12,0,1,587.570,0.966,5.917,315.656,1.759,5.392
1782115716.825671,0.533000,172213,1000,12,0,1,590.860,1.349,5.696,310.059,0.825,5.215
1782115716.826671,0.534000,172214,1000,12,0,1,594.007,3.324,5.326,301.676,-1.287,4.904
1782115716.827671,0.535000,172215,1000,12,0,1,596.770,3.724,4.969,294.806,-3.625,4.683
1782115716.828671,0.536000,172216,1000,12,0,1,599.172,4.943,4.709,289.305,-4.030,4.655
1782115716.829671,0.537000,172217,1000,12,0,1,597.538,2.762,4.560,286.302,-4.232,4.690
1782115716.830671,0.538000,172218,1000,12,0,1,595.304,0.053,4.550,287.383,-1.867,4.619
1782115716.831671,0.539000,172219,1000,12,0,1,593.215,-1.119,4.293,292.572,2.140,4.368
1782115716.832671,0.540000,172220,1000,12,0,1,591.461,-1.900,3.931,300.282,6.358,4.286
1782115716.833671,0.541000,172221,1000,12,0,1,590.308,-1.459,3.715,305.087,6.642,4.362
1782115716.834671,0.542000,172222,1000,12,0,1,589.155,-1.127,3.631,308.137,3.157,4.379
1782115716.835671,0.543000,172223,1000,12,0,1,586.489,-1.961,3.590,315.488,3.256,4.402
1782115716.836671,0.544000,172224,1000,12,0,1,583.342,-3.723,3.497,322.478,3.966,4.357
1782115716.837671,0.545000,172225,1000,12,0,1,583.726,-2.689,3.111,323.751,-0.106,4.268
1782115716.838671,0.546000,172226,1000,12,0,1,582.621,-2.315,2.815,325.384,-3.504,4.203
1782115716.839671,0.547000,172227,1000,12,0,1,586.561,-0.029,2.713,325.816,-4.784,4.197
1782115716.840671,0.548000,172228,1000,12,0,1,586.801,1.231,2.694,323.751,-7.224,4.319
1782115716.841671,0.549000,172229,1000,12,0,1,585.888,-2.036,2.705,318.898,-9.484,4.520
1782115716.842671,0.550000,172230,1000,12,0,1,587.305,-1.585,2.693,318.130,-7.515,4.615
1782115716.843671,0.551000,172231,1000,12,0,1,587.666,-2.523,2.716,316.665,-3.041,4.488
1782115716.844671,0.552000,172232,1000,12,0,1,589.083,-2.845,2.746,314.142,-0.614,4.372
1782115716.845671,0.553000,172233,1000,12,0,1,590.885,-1.943,2.758,308.690,0.505,4.308
1782115716.846671,0.554000,172234,1000,12,0,1,595.400,0.456,2.757,299.754,-2.369,4.212
1782115716.847671,0.555000,172235,1000,12,0,1,598.763,3.349,2.797,294.734,-2.617,4.214
1782115716.848671,0.556000,172236,1000,12,0,1,602.222,4.727,2.876,288.176,-3.186,4.220
1782115716.849671,0.557000,172237,1000,12,0,1,599.436,2.854,2.904,286.110,-3.463,4.212
1782115716.850671,0.558000,172238,1000,12,0,1,597.899,-0.139,2.902,285.798,-1.051,4.130
1782115716.851671,0.559000,172239,1000,12,0,1,598.115,1.495,2.902,288.440,-0.052,4.054
1782115716.852671,0.560000,172240,1000,12,0,1,593.815,-1.190,2.901,298.024,6.239,4.125
1782115716.853671,0.561000,172241,1000,12,0,1,591.365,-2.689,2.922,305.327,9.241,4.303
1782115716.854671,0.562000,172242,1000,12,0,1,591.605,-0.423,2.915,309.602,6.806,4.409
1782115716.855671,0.563000,172243,1000,12,0,1,590.068,-0.268,2.916,316.665,6.509,4.458
1782115716.856671,0.564000,172244,1000,12,0,1,589.155,-0.158,2.912,322.790,6.058,4.539
1782115716.857671,0.565000,172245,1000,12,0,1,587.329,-0.746,2.910,326.297,3.450,4.558
1782115716.858671,0.566000,172246,1000,12,0,1,587.714,-0.560,2.907,324.591,-1.952,4.481
1782115716.859671,0.567000,172247,1000,12,0,1,586.537,-0.990,2.910,322.309,-6.848,4.504
1782115716.860671,0.568000,172248,1000,12,0,1,586.849,-1.948,2.913,319.907,-8.538,4.662
1782115716.861671,0.569000,172249,1000,12,0,1,588.026,-1.218,2.868,319.427,-7.316,4.775
1782115716.862671,0.570000,172250,1000,12,0,1,589.780,-1.107,2.769,316.737,-5.310,4.797
1782115716.863671,0.571000,172251,1000,12,0,1,589.155,-2.459,2.745,315.343,-2.616,4.754
1782115716.864671,0.572000,172252,1000,12,0,1,591.869,-2.180,2.751,313.013,1.215,4.726
1782115716.865671,0.573000,172253,1000,12,0,1,593.551,-0.893,2.726,306.648,0.798,4.625
1782115716.866671,0.574000,172254,1000,12,0,1,596.866,0.144,2.698,300.475,-0.026,4.440
1782115716.867671,0.575000,172255,1000,12,0,1,599.628,2.394,2.715,293.773,-0.931,4.352
1782115716.868671,0.576000,172256,1000,12,0,1,601.141,2.683,2.735,285.798,-4.328,4.391
1782115716.869671,0.577000,172257,1000,12,0,1,602.631,3.552,2.717,285.197,-2.781,4.408
1782115716.870671,0.578000,172258,1000,12,0,1,602.631,3.665,2.548,288.608,2.070,4.412
1782115716.871671,0.579000,172259,1000,12,0,1,601.454,2.616,2.371,295.358,6.556,4.501
1782115716.872671,0.580000,172260,1000,12,0,1,602.126,3.674,2.333,302.636,10.215,4.727
1782115716.873671,0.581000,172261,1000,12,0,1,600.829,3.603,2.324,308.570,10.146,4.937
1782115716.874671,0.582000,172262,1000,12,0,1,598.091,1.729,2.333,313.998,8.571,5.078
1782115716.875671,0.583000,172263,1000,12,0,1,597.082,1.414,2.334,319.547,6.730,5.165
1782115716.876671,0.584000,172264,1000,12,0,1,591.869,-1.567,2.297,328.146,7.321,5.264
1782115716.877671,0.585000,172265,1000,12,0,1,588.026,-5.199,2.353,330.068,4.446,5.277
1782115716.878671,0.586000,172266,1000,12,0,1,589.900,-2.557,2.276,331.125,-0.632,5.247
1782115716.879671,0.587000,172267,1000,12,0,1,590.836,-1.016,2.247,327.426,-4.983,5.260
1782115716.880671,0.588000,172268,1000,12,0,1,590.356,-2.015,2.265,324.279,-9.424,5.420
1782115716.881671,0.589000,172269,1000,12,0,1,585.864,-6.030,2.415,320.412,-9.664,5.581
1782115716.882671,0.590000,172270,1000,12,0,1,586.369,-7.422,2.619,316.448,-9.897,5.684
1782115716.883671,0.591000,172271,1000,12,0,1,587.377,-5.674,2.732,315.343,-5.630,5.662
1782115716.884671,0.592000,172272,1000,12,0,1,588.290,-6.106,2.860,312.965,-1.573,5.648
1782115716.885671,0.593000,172273,1000,12,0,1,586.825,-6.878,3.009,307.945,-0.677,5.630
1782115716.886671,0.594000,172274,1000,12,0,1,583.606,-9.975,3.281,299.442,-2.462,5.613
1782115716.887671,0.595000,172275,1000,12,0,1,578.826,-12.831,3.730,290.386,-6.161,5.680
1782115716.888671,0.596000,172276,1000,12,0,1,572.268,-16.464,4.385,286.711,-5.352,5.709
1782115716.889671,0.597000,172277,1000,12,0,1,568.233,-17.212,5.015,287.744,-1.485,5.673
1782115716.890671,0.598000,172278,1000,12,0,1,571.067,-10.909,5.244,289.137,1.158,5.582
1782115716.891671,0.599000,172279,1000,12,0,1,562.876,-11.935,5.502,293.437,3.360,5.440
1782115716.892671,0.600000,172280,1000,12,0,1,562.180,-11.174,5.720,301.724,7.785,5.447
1782115716.893671,0.601000,172281,1000,12,0,1,574.046,4.554,5.745,304.534,6.412,5.505
1782115716.894671,0.602000,172282,1000,12,0,1,581.372,14.372,6.080,308.329,2.947,5.521
1782115716.895671,0.603000,172283,1000,12,0,1,593.383,23.737,6.940,312.197,1.551,5.524
1782115716.896671,0.604000,172284,1000,12,0,1,603.856,33.014,8.364,319.091,1.339,5.518
1782115716.897671,0.605000,172285,1000,12,0,1,604.144,29.437,9.331,321.541,0.363,5.505
1782115716.898671,0.606000,172286,1000,12,0,1,598.355,20.297,9.739,322.069,-3.498,5.509
1782115716.899671,0.607000,172287,1000,12,0,1,589.491,8.654,9.808,324.663,-2.545,5.499
1782115716.900671,0.608000,172288,1000,12,0,1,573.470,-6.831,9.855,329.828,1.712,5.502
1782115716.901671,0.609000,172289,1000,12,0,1,569.458,-13.226,10.029,330.500,4.176,5.534
1782115716.902671,0.610000,172290,1000,12,0,1,589.780,4.539,10.048,322.526,-0.347,5.463
1782115716.903671,0.611000,172291,1000,12,0,1,599.988,15.532,10.278,317.169,-2.586,5.317
1782115716.904671,0.612000,172292,1000,12,0,1,600.949,11.181,10.399,314.983,1.061,5.232
1782115716.905671,0.613000,172293,1000,12,0,1,601.333,8.916,10.475,310.011,1.662,5.155
1782115716.906671,0.614000,172294,1000,12,0,1,606.282,8.934,10.551,301.435,-0.889,5.085
1782115716.907671,0.615000,172295,1000,12,0,1,607.387,8.623,10.621,296.295,-1.990,5.070
1782115716.908671,0.616000,172296,1000,12,0,1,605.225,3.391,10.631,293.028,-0.768,5.063
1782115716.909671,0.617000,172297,1000,12,0,1,604.432,1.166,10.632,291.707,-0.383,4.970
1782115716.910671,0.618000,172298,1000,12,0,1,605.489,1.164,10.629,293.605,1.754,4.828
1782115716.911671,0.619000,172299,1000,12,0,1,599.532,-3.399,10.639,295.286,2.058,4.724
1782115716.912671,0.620000,172300,1000,12,0,1,594.944,-8.062,10.699,302.156,4.103,4.700
1782115716.913671,0.621000,172301,1000,12,0,1,594.055,-7.033,10.739,308.161,5.913,4.760
1782115716.914671,0.622000,172302,1000,12,0,1,592.542,-6.485,10.774,311.932,2.957,4.775
1782115716.915671,0.623000,172303,1000,12,0,1,588.530,-8.260,10.836,319.235,3.280,4.796
1782115716.916671,0.624000,172304,1000,12,0,1,587.498,-7.901,10.894,325.240,3.398,4.820
1782115716.917671,0.625000,172305,1000,12,0,1,585.552,-7.430,10.939,326.033,-0.798,4.820
1782115716.918671,0.626000,172306,1000,12,0,1,585.216,-7.035,10.978,327.402,-3.625,4.808
1782115716.919671,0.627000,172307,1000,12,0,1,588.771,-3.116,10.975,326.417,-5.442,4.853
1782115716.920671,0.628000,172308,1000,12,0,1,591.533,-0.198,10.963,325.624,-6.457,4.930
1782115716.921671,0.629000,172309,1000,12,0,1,592.782,-0.102,10.956,323.006,-5.919,4.914
1782115716.922671,0.630000,172310,1000,12,0,1,591.917,-1.584,10.946,320.652,-4.921,4.748
1782115716.923671,0.631000,172311,1000,12,0,1,595.496,-0.648,10.935,319.883,-0.735,4.527
1782115716.924671,0.632000,172312,1000,12,0,1,594.824,-0.859,10.933,318.971,3.449,4.389
1782115716.925671,0.633000,172313,1000,12,0,1,595.857,-2.656,10.937,310.924,1.882,4.293
1782115716.926671,0.634000,172314,1000,12,0,1,598.715,0.107,10.935,300.451,-3.397,4.194
1782115716.927671,0.635000,172315,1000,12,0,1,597.706,-1.369,10.912,294.037,-4.706,4.199
1782115716.928671,0.636000,172316,1000,12,0,1,596.842,-2.616,10.913,287.479,-5.932,4.281
1782115716.929671,0.637000,172317,1000,12,0,1,594.055,-3.939,10.926,285.558,-5.738,4.300
1782115716.930671,0.638000,172318,1000,12,0,1,590.500,-6.397,10.959,284.717,-4.064,4.129
1782115716.931671,0.639000,172319,1000,12,0,1,586.585,-7.434,10.977,288.128,-2.479,3.912
1782115716.932671,0.640000,172320,1000,12,0,1,586.297,-6.027,10.960,297.856,4.277,3.702
1782115716.933671,0.641000,172321,1000,12,0,1,586.056,-2.835,10.938,306.264,7.984,3.788
1782115716.934671,0.642000,172322,1000,12,0,1,584.687,-2.204,10.908,312.605,7.717,3.936
1782115716.935671,0.643000,172323,1000,12,0,1,583.606,-1.031,10.865,317.289,5.871,4.021
1782115716.936671,0.644000,172324,1000,12,0,1,581.276,-1.360,10.775,323.823,5.092,4.070
1782115716.937671,0.645000,172325,1000,12,0,1,582.021,-0.048,10.621,326.897,3.607,4.009
1782115716.938671,0.646000,172326,1000,12,0,1,584.903,3.553,10.375,326.297,-1.228,3.940
1782115716.939671,0.647000,172327,1000,12,0,1,586.513,4.771,10.108,329.636,-0.678,3.936
1782115716.940671,0.648000,172328,1000,12,0,1,589.635,6.286,10.029,330.500,0.750,3.934
1782115716.941671,0.649000,172329,1000,12,0,1,592.710,7.658,9.945,327.906,-0.694,3.906
1782115716.942671,0.650000,172330,1000,12,0,1,592.326,5.450,9.849,323.582,-1.419,3.753
1782115716.943671,0.651000,172331,1000,12,0,1,589.611,0.923,9.829,320.051,-0.854,3.644
1782115716.944671,0.652000,172332,1000,12,0,1,589.732,-0.911,9.617,316.448,1.131,3.624
1782115716.945671,0.653000,172333,1000,12,0,1,592.782,0.853,9.013,310.491,0.901,3.619
1782115716.946671,0.654000,172334,1000,12,0,1,593.959,1.362,7.712,300.691,-2.701,3.634
1782115716.947671,0.655000,172335,1000,12,0,1,593.287,-0.034,6.492,293.052,-5.544,3.718
1782115716.948671,0.656000,172336,1000,12,0,1,595.809,1.533,5.827,286.519,-6.831,3.809
1782115716.949671,0.657000,172337,1000,12,0,1,597.178,3.396,5.717,285.053,-6.040,3.887
1782115716.950671,0.658000,172338,1000,12,0,1,591.485,-1.008,5.637,284.165,-4.571,3.933
1782115716.951671,0.659000,172339,1000,12,0,1,587.377,-4.596,5.357,289.641,-1.446,3.894
1782115716.952671,0.660000,172340,1000,12,0,1,572.893,-13.173,5.635,299.874,5.848,3.980
1782115716.953671,0.661000,172341,1000,12,0,1,555.574,-26.559,6.406,311.452,11.156,4.266
1782115716.954671,0.662000,172342,1000,12,0,1,539.456,-33.951,7.848,322.069,14.317,4.720
1782115716.955671,0.663000,172343,1000,12,0,1,523.386,-40.895,9.667,334.440,17.154,5.302
1782115716.956671,0.664000,172344,1000,12,0,1,510.944,-42.990,11.350,343.688,17.885,5.873
1782115716.957671,0.665000,172345,1000,12,0,1,505.779,-38.292,12.516,345.970,12.433,6.124
1782115716.958671,0.666000,172346,1000,12,0,1,525.044,-15.069,12.687,342.126,3.069,6.138
1782115716.959671,0.667000,172347,1000,12,0,1,564.270,25.279,13.180,328.771,-10.970,6.331
1782115716.960671,0.668000,172348,1000,12,0,1,599.076,55.661,15.351,319.883,-20.047,6.932
1782115716.961671,0.669000,172349,1000,12,0,1,621.391,68.129,18.118,311.572,-21.716,7.577
1782115716.962671,0.670000,172350,1000,12,0,1,628.285,63.703,20.202,310.924,-18.021,7.973
1782115716.963671,0.671000,172351,1000,12,0,1,616.731,42.373,21.048,314.142,-6.556,7.983
1782115716.964671,0.672000,172352,1000,12,0,1,613.440,26.832,21.368,314.983,0.446,7.972
1782115716.965671,0.673000,172353,1000,12,0,1,617.067,24.310,21.611,307.753,0.805,7.959
1782115716.966671,0.674000,172354,1000,12,0,1,623.408,22.722,21.820,302.853,0.099,7.945
1782115716.967671,0.675000,172355,1000,12,0,1,621.679,17.735,21.939,299.730,2.374,7.951
1782115716.968671,0.676000,172356,1000,12,0,1,611.975,4.455,21.925,296.391,2.006,7.940
1782115716.969671,0.677000,172357,1000,12,0,1,607.171,-2.408,21.924,296.319,2.849,7.912
1782115716.970671,0.678000,172358,1000,12,0,1,608.948,-0.813,21.924,295.430,2.372,7.867
1782115716.971671,0.679000,172359,1000,12,0,1,609.909,0.695,21.924,296.487,0.389,7.822
1782115716.972671,0.680000,172360,1000,12,0,1,606.114,-1.789,21.924,302.516,2.640,7.800
1782115716.973671,0.681000,172361,1000,12,0,1,598.067,-8.354,21.956,307.849,2.974,7.811
1782115716.974671,0.682000,172362,1000,12,0,1,596.097,-9.741,21.999,311.140,0.598,7.796
1782115716.975671,0.683000,172363,1000,12,0,1,596.866,-7.186,22.019,314.335,-2.107,7.797
1782115716.976671,0.684000,172364,1000,12,0,1,599.172,-5.060,22.031,320.844,-1.349,7.785
1782115716.977671,0.685000,172365,1000,12,0,1,600.060,-4.163,22.038,322.502,-2.641,7.765
1782115716.978671,0.686000,172366,1000,12,0,1,599.796,-5.878,22.050,323.174,-5.397,7.757
1782115716.979671,0.687000,172367,1000,12,0,1,600.829,-6.729,22.064,324.111,-4.640,7.743
1782115716.980671,0.688000,172368,1000,12,0,1,598.475,-9.970,22.090,326.921,-1.719,7.725
1782115716.981671,0.689000,172369,1000,12,0,1,599.292,-12.056,22.131,325.120,0.056,7.717
1782115716.982671,0.690000,172370,1000,12,0,1,599.412,-12.080,22.181,319.091,-2.228,7.700
1782115716.983671,0.691000,172371,1000,12,0,1,599.676,-13.629,22.261,314.935,-1.451,7.619
1782115716.984671,0.692000,172372,1000,12,0,1,597.202,-15.049,22.360,312.053,1.593,7.544
1782115716.985671,0.693000,172373,1000,12,0,1,595.472,-16.783,22.485,305.183,1.166,7.500
1782115716.986671,0.694000,172374,1000,12,0,1,600.373,-11.100,22.539,298.481,-0.319,7.466
1782115716.987671,0.695000,172375,1000,12,0,1,604.913,-4.576,22.548,294.878,0.667,7.449
1782115716.988671,0.696000,172376,1000,12,0,1,605.153,-2.761,22.546,292.067,1.444,7.450
1782115716.989671,0.697000,172377,1000,12,0,1,603.832,-2.064,22.538,289.665,0.630,7.450
1782115716.990671,0.698000,172378,1000,12,0,1,600.853,-2.415,22.523,290.602,1.142,7.451
1782115716.991671,0.699000,172379,1000,12,0,1,600.493,-0.649,22.497,296.968,4.616,7.478
1782115716.992671,0.700000,172380,1000,12,0,1,596.289,-0.803,22.484,304.966,8.361,7.569
1782115716.993671,0.701000,172381,1000,12,0,1,592.902,-2.296,22.486,308.522,6.518,7.624
1782115716.994671,0.702000,172382,1000,12,0,1,591.365,-0.761,22.486,310.299,1.748,7.626
1782115716.995671,0.703000,172383,1000,12,0,1,587.978,-1.771,22.487,317.121,1.490,7.628
1782115716.996671,0.704000,172384,1000,12,0,1,584.735,-3.418,22.491,321.589,1.245,7.620
1782115716.997671,0.705000,172385,1000,12,0,1,581.468,-4.958,22.502,319.451,-4.866,7.611
1782115716.998671,0.706000,172386,1000,12,0,1,582.958,-3.831,22.508,319.955,-7.516,7.624
1782115716.999671,0.707000,172387,1000,12,0,1,585.072,-1.109,22.503,319.763,-7.130,7.643
1782115717.000671,0.708000,172388,1000,12,0,1,586.345,-1.265,22.503,316.544,-8.667,7.713
1782115717.001671,0.709000,172389,1000,12,0,1,584.735,-3.212,22.499,315.584,-6.515,7.766
1782115717.002671,0.710000,172390,1000,12,0,1,585.264,-4.737,22.431,311.548,-4.691,7.750
1782115717.003671,0.711000,172391,1000,12,0,1,588.843,-2.074,22.117,312.269,-0.116,7.588
1782115717.004671,0.712000,172392,1000,12,0,1,594.151,1.559,21.590,314.647,8.302,7.406
1782115717.005671,0.713000,172393,1000,12,0,1,598.931,5.077,20.814,313.133,11.068,7.170
1782115717.006671,0.714000,172394,1000,12,0,1,602.583,7.252,19.932,306.095,8.586,6.818
1782115717.007671,0.715000,172395,1000,12,0,1,602.823,6.962,19.208,299.226,4.358,6.617
1782115717.008671,0.716000,172396,1000,12,0,1,606.234,8.769,19.129,296.631,3.739,6.623
1782115717.009671,0.717000,172397,1000,12,0,1,606.258,9.904,18.845,298.721,5.923,6.493
1782115717.010671,0.718000,172398,1000,12,0,1,602.751,6.530,17.147,305.135,9.989,6.010
1782115717.011671,0.719000,172399,1000,12,0,1,594.608,1.017,14.184,311.236,12.311,5.452
1782115717.012671,0.720000,172400,1000,12,0,1,588.530,-3.398,10.966,313.902,9.273,4.995
1782115717.013671,0.721000,172401,1000,12,0,1,580.219,-6.965,9.237,315.055,4.028,4.941
1782115717.014671,0.722000,172402,1000,12,0,1,573.445,-10.686,8.556,315.848,-1.516,4.945
1782115717.015671,0.723000,172403,1000,12,0,1,571.644,-8.803,7.933,318.778,-4.659,4.988
1782115717.016671,0.724000,172404,1000,12,0,1,564.149,-11.232,7.425,321.493,-6.424,5.070
1782115717.017671,0.725000,172405,1000,12,0,1,562.324,-12.170,7.198,324.759,-7.150,5.158
1782115717.018671,0.726000,172406,1000,12,0,1,567.392,-4.623,7.200,322.838,-9.742,5.332
1782115717.019671,0.727000,172407,1000,12,0,1,567.152,-3.619,7.210,324.255,-9.913,5.498
1782115717.020671,0.728000,172408,1000,12,0,1,563.573,-7.025,7.277,327.138,-4.776,5.529
1782115717.021671,0.729000,172409,1000,12,0,1,551.899,-16.148,7.626,328.218,-1.538,5.533
1782115717.022671,0.730000,172410,1000,12,0,1,539.048,-27.145,8.534,328.291,1.993,5.528
1782115717.023671,0.731000,172411,1000,12,0,1,528.671,-32.484,9.620,335.184,10.610,5.713
1782115717.024671,0.732000,172412,1000,12,0,1,528.671,-28.968,10.365,333.263,14.055,6.048
1782115717.025671,0.733000,172413,1000,12,0,1,541.690,-12.291,10.460,325.624,8.369,6.155
1782115717.026671,0.734000,172414,1000,12,0,1,551.178,1.360,10.438,315.848,2.917,6.166
1782115717.027671,0.735000,172415,1000,12,0,1,560.186,10.349,10.523,303.645,-5.421,6.202
1782115717.028671,0.736000,172416,1000,12,0,1,582.693,30.032,11.318,288.224,-15.787,6.548
1782115717.029671,0.737000,172417,1000,12,0,1,599.580,45.397,12.977,280.922,-20.263,7.117
1782115717.030671,0.738000,172418,1000,12,0,1,600.301,42.232,14.216,282.939,-15.512,7.444
1782115717.031671,0.739000,172419,1000,12,0,1,597.971,35.065,14.959,289.233,-8.710,7.545
1782115717.032671,0.740000,172420,1000,12,0,1,587.642,23.988,15.243,297.688,-2.431,7.546
1782115717.033671,0.741000,172421,1000,12,0,1,565.615,2.875,15.126,309.530,4.792,7.574
1782115717.034671,0.742000,172422,1000,12,0,1,554.902,-7.714,15.016,316.905,7.186,7.638
1782115717.035671,0.743000,172423,1000,12,0,1,552.403,-5.934,14.851,323.390,6.503,7.692
1782115717.036671,0.744000,172424,1000,12,0,1,543.900,-10.060,14.836,331.029,7.778,7.770
1782115717.037671,0.745000,172425,1000,12,0,1,531.433,-18.226,15.044,337.587,8.533,7.862
1782115717.038671,0.746000,172426,1000,12,0,1,538.616,-11.203,15.122,332.518,1.288,7.862
1782115717.039671,0.747000,172427,1000,12,0,1,555.238,7.171,15.153,320.580,-11.613,8.031
1782115717.040671,0.748000,172428,1000,12,0,1,558.024,9.847,15.213,322.165,-10.511,8.166
1782115717.041671,0.749000,172429,1000,12,0,1,565.327,11.067,15.293,324.976,-2.598,8.148
1782115717.042671,0.750000,172430,1000,12,0,1,579.090,20.464,15.564,325.072,0.398,8.062
1782115717.043671,0.751000,172431,1000,12,0,1,594.656,27.779,16.049,325.912,5.868,8.052
1782115717.044671,0.752000,172432,1000,12,0,1,587.402,18.242,16.255,328.242,11.433,8.209
1782115717.045671,0.753000,172433,1000,12,0,1,574.743,-1.857,16.255,328.026,15.051,8.478
1782115717.046671,0.754000,172434,1000,12,0,1,576.232,-3.336,16.255,321.012,11.313,8.626
1782115717.047671,0.755000,172435,1000,12,0,1,589.972,6.820,16.268,309.699,2.832,8.607
1782115717.048671,0.756000,172436,1000,12,0,1,607.531,20.902,16.526,302.636,-2.449,8.549
1782115717.049671,0.757000,172437,1000,12,0,1,627.492,34.712,17.239,296.199,-6.283,8.535
1782115717.050671,0.758000,172438,1000,12,0,1,636.236,38.727,18.087,290.674,-11.022,8.589
1782115717.051671,0.759000,172439,1000,12,0,1,628.309,26.276,18.459,293.364,-9.562,8.646
1782115717.052671,0.760000,172440,1000,12,0,1,617.475,11.123,18.514,298.265,-5.823,8.660
1782115717.053671,0.761000,172441,1000,12,0,1,611.470,3.700,18.519,301.916,-5.698,8.697
1782115717.054671,0.762000,172442,1000,12,0,1,607.147,-0.973,18.518,305.327,-6.024,8.660
1782115717.055671,0.763000,172443,1000,12,0,1,604.913,-3.108,18.509,314.383,-2.716,8.526
1782115717.056671,0.764000,172444,1000,12,0,1,604.432,-3.750,18.489,321.373,0.819,8.440
1782115717.057671,0.765000,172445,1000,12,0,1,601.598,-6.206,18.483,321.180,-2.968,8.428
1782115717.058671,0.766000,172446,1000,12,0,1,602.270,-7.510,18.472,320.508,-6.118,8.455
1782115717.059671,0.767000,172447,1000,12,0,1,603.495,-6.973,18.445,321.781,-5.249,8.447
1782115717.060671,0.768000,172448,1000,12,0,1,605.249,-8.163,18.458,322.502,-3.221,8.340
1782115717.061671,0.769000,172449,1000,12,0,1,609.308,-7.047,18.485,321.709,-1.236,8.158
1782115717.062671,0.770000,172450,1000,12,0,1,613.680,-6.286,18.500,321.132,1.588,8.055
1782115717.063671,0.771000,172451,1000,12,0,1,607.339,-13.774,18.576,320.268,5.226,8.069
1782115717.064671,0.772000,172452,1000,12,0,1,602.631,-21.921,18.772,318.538,7.838,8.142
1782115717.065671,0.773000,172453,1000,12,0,1,603.712,-21.034,18.966,312.773,7.264,8.180
1782115717.066671,0.774000,172454,1000,12,0,1,606.738,-18.241,19.074,300.763,0.607,8.130
1782115717.067671,0.775000,172455,1000,12,0,1,603.255,-19.287,19.191,294.710,-2.263,8.073
1782115717.068671,0.776000,172456,1000,12,0,1,601.213,-20.283,19.393,287.960,-3.452,7.970
1782115717.069671,0.777000,172457,1000,12,0,1,595.977,-20.360,19.599,288.056,-3.005,7.857
1782115717.070671,0.778000,172458,1000,12,0,1,579.475,-29.782,20.022,287.503,-0.803,7.828
1782115717.071671,0.779000,172459,1000,12,0,1,551.515,-46.970,20.971,297.280,4.143,7.847
1782115717.072671,0.780000,172460,1000,12,0,1,521.729,-63.087,22.465,311.572,15.258,8.134
1782115717.073671,0.781000,172461,1000,12,0,1,511.977,-60.031,23.572,317.842,15.126,8.275
1782115717.074671,0.782000,172462,1000,12,0,1,507.557,-46.567,24.129,329.564,16.619,8.370
1782115717.075671,0.783000,172463,1000,12,0,1,510.415,-32.772,24.509,341.790,20.900,8.797
1782115717.076671,0.784000,172464,1000,12,0,1,510.127,-19.198,24.658,354.521,22.220,9.333
1782115717.077671,0.785000,172465,1000,12,0,1,487.427,-28.994,24.953,367.973,26.368,10.021
1782115717.078671,0.786000,172466,1000,12,0,1,466.457,-40.608,25.251,370.159,20.925,10.207
1782115717.079671,0.787000,172467,1000,12,0,1,461.005,-35.080,24.920,369.534,12.866,9.964
1782115717.080671,0.788000,172468,1000,12,0,1,457.161,-27.922,24.514,373.137,11.826,9.863
1782115717.081671,0.789000,172469,1000,12,0,1,450.003,-25.494,24.276,379.142,14.666,10.003
1782115717.082671,0.790000,172470,1000,12,0,1,460.668,-11.153,24.090,373.233,9.909,10.095
1782115717.083671,0.791000,172471,1000,12,0,1,489.013,19.679,24.247,359.662,-2.637,10.079
1782115717.084671,0.792000,172472,1000,12,0,1,513.610,43.247,24.982,347.915,-10.373,10.134
1782115717.085671,0.793000,172473,1000,12,0,1,532.034,55.802,26.186,337.418,-15.088,10.315
1782115717.086671,0.794000,172474,1000,12,0,1,540.705,58.610,27.429,330.645,-16.317,10.513
1782115717.087671,0.795000,172475,1000,12,0,1,548.512,57.372,28.488,321.156,-18.517,10.767
1782115717.088671,0.796000,172476,1000,12,0,1,584.543,79.047,30.562,307.296,-26.373,11.393
1782115717.089671,0.797000,172477,1000,12,0,1,639.142,118.154,34.816,293.557,-33.842,12.248
1782115717.090671,0.798000,172478,1000,12,0,1,662.442,127.172,39.163,285.269,-37.207,13.247
1782115717.091671,0.799000,172479,1000,12,0,1,649.807,97.317,41.481,284.020,-34.331,14.104
1782115717.092671,0.800000,172480,1000,12,0,1,641.496,71.378,42.593,284.357,-30.826,14.762
1782115717.093671,0.801000,172481,1000,12,0,1,636.260,56.094,43.147,283.876,-29.674,15.325
1782115717.094671,0.802000,172482,1000,12,0,1,626.363,37.094,43.388,285.438,-27.633,15.732
1782115717.095671,0.803000,172483,1000,12,0,1,613.200,18.526,43.467,296.271,-18.509,15.806
1782115717.096671,0.804000,172484,1000,12,0,1,580.003,-13.228,43.504,316.208,-1.357,15.726
1782115717.097671,0.805000,172485,1000,12,0,1,529.199,-58.722,44.279,327.017,7.923,15.761
1782115717.098671,0.806000,172486,1000,12,0,1,493.721,-86.626,45.848,326.273,4.492,15.770
1782115717.099671,0.807000,172487,1000,12,0,1,470.541,-94.881,47.518,329.756,5.283,15.762
1782115717.100671,0.808000,172488,1000,12,0,1,445.776,-103.317,49.411,344.360,17.842,15.887
1782115717.101671,0.809000,172489,1000,12,0,1,434.270,-100.849,51.294,354.329,28.288,16.327
1782115717.102671,0.810000,172490,1000,12,0,1,448.538,-75.149,52.359,354.857,28.375,16.792
1782115717.103671,0.811000,172491,1000,12,0,1,489.013,-30.047,52.529,349.357,24.125,17.117
1782115717.104671,0.812000,172492,1000,12,0,1,533.787,15.016,52.572,345.754,21.484,17.363
1782115717.105671,0.813000,172493,1000,12,0,1,582.093,52.039,53.083,327.474,10.134,17.418
1782115717.106671,0.814000,172494,1000,12,0,1,603.375,65.237,53.876,305.855,-7.516,17.450
1782115717.107671,0.815000,172495,1000,12,0,1,602.631,49.278,54.317,294.565,-12.123,17.529
1782115717.108671,0.816000,172496,1000,12,0,1,576.280,18.504,54.370,299.730,-3.480,17.515
1782115717.109671,0.817000,172497,1000,12,0,1,552.716,-11.772,54.387,306.888,7.566,17.532
1782115717.110671,0.818000,172498,1000,12,0,1,569.866,1.281,54.375,302.516,4.408,17.537
1782115717.111671,0.819000,172499,1000,12,0,1,591.413,25.884,54.489,298.769,-2.159,17.539
1782115717.112671,0.820000,172500,1000,12,0,1,595.136,28.554,54.631,298.673,-4.240,17.547
1782115717.113671,0.821000,172501,1000,12,0,1,572.749,11.557,54.621,304.342,-3.945,17.541
1782115717.114671,0.822000,172502,1000,12,0,1,551.827,-8.474,54.546,313.734,0.541,17.506
1782115717.115671,0.823000,172503,1000,12,0,1,523.266,-23.957,54.570,327.906,6.501,17.500
1782115717.116671,0.824000,172504,1000,12,0,1,518.414,-26.308,54.636,335.353,8.475,17.541
1782115717.117671,0.825000,172505,1000,12,0,1,538.423,1.784,54.568,331.029,-1.552,17.539
1782115717.118671,0.826000,172506,1000,12,0,1,566.504,28.886,54.646,318.898,-15.637,17.671
1782115717.119671,0.827000,172507,1000,12,0,1,607.195,60.679,55.240,302.684,-29.874,18.164
1782115717.120671,0.828000,172508,1000,12,0,1,631.239,75.204,56.097,292.139,-35.755,18.855
1782115717.121671,0.829000,172509,1000,12,0,1,633.281,60.012,56.345,291.419,-28.811,19.281
1782115717.122671,0.830000,172510,1000,12,0,1,614.449,29.329,55.789,292.908,-18.016,19.328
1782115717.123671,0.831000,172511,1000,12,0,1,599.628,-1.152,55.139,297.856,-5.161,19.224
1782115717.124671,0.832000,172512,1000,12,0,1,592.494,-15.264,54.787,301.892,7.080,19.106
1782115717.125671,0.833000,172513,1000,12,0,1,583.967,-29.793,54.753,300.739,12.602,18.959
1782115717.126671,0.834000,172514,1000,12,0,1,580.484,-36.587,54.930,292.404,10.747,18.759
1782115717.127671,0.835000,172515,1000,12,0,1,592.782,-27.830,54.918,281.402,4.935,18.398
1782115717.128671,0.836000,172516,1000,12,0,1,603.976,-16.019,54.664,271.289,-0.185,18.158
1782115717.129671,0.837000,172517,1000,12,0,1,611.710,-9.917,54.456,268.167,-0.567,18.067
1782115717.130671,0.838000,172518,1000,12,0,1,610.654,-8.747,54.327,268.935,2.271,17.992
1782115717.131671,0.839000,172519,1000,12,0,1,602.222,-14.524,54.246,276.382,7.558,17.904
1782115717.132671,0.840000,172520,1000,12,0,1,585.096,-24.444,54.333,289.017,16.126,17.994
1782115717.133671,0.841000,172521,1000,12,0,1,574.094,-28.958,54.416,297.736,18.956,18.189
1782115717.134671,0.842000,172522,1000,12,0,1,578.274,-17.310,54.127,306.023,18.236,18.313
1782115717.135671,0.843000,172523,1000,12,0,1,576.953,-8.640,53.562,316.833,19.915,18.405
1782115717.136671,0.844000,172524,1000,12,0,1,583.222,-0.343,52.917,319.259,14.954,18.381
1782115717.137671,0.845000,172525,1000,12,0,1,592.374,13.414,52.326,319.187,6.861,18.220
1782115717.138671,0.846000,172526,1000,12,0,1,599.412,18.472,51.184,321.180,3.871,17.842
1782115717.139671,0.847000,172527,1000,12,0,1,618.076,30.975,48.578,317.769,-1.196,17.189
1782115717.140671,0.848000,172528,1000,12,0,1,630.447,37.457,45.436,308.978,-9.332,16.417
1782115717.141671,0.849000,172529,1000,12,0,1,632.176,28.678,43.491,304.126,-11.625,15.769
1782115717.142671,0.850000,172530,1000,12,0,1,622.135,11.084,42.332,304.678,-6.318,15.181
1782115717.143671,0.851000,172531,1000,12,0,1,605.753,-12.831,41.622,304.174,-0.646,14.589
1782115717.144671,0.852000,172532,1000,12,0,1,592.086,-30.233,41.511,302.132,2.914,14.062
1782115717.145671,0.853000,172533,1000,12,0,1,574.887,-46.202,41.940,296.151,3.506,13.825
1782115717.146671,0.854000,172534,1000,12,0,1,552.980,-63.343,42.845,293.196,4.540,13.839
1782115717.147671,0.855000,172535,1000,12,0,1,544.212,-66.304,43.066,288.464,5.326,13.814
1782115717.148671,0.856000,172536,1000,12,0,1,543.203,-56.654,42.057,285.702,4.148,13.812
1782115717.149671,0.857000,172537,1000,12,0,1,531.818,-54.756,40.604,284.141,4.492,13.806
1782115717.150671,0.858000,172538,1000,12,0,1,530.473,-46.690,38.455,287.744,5.818,13.599
1782115717.151671,0.859000,172539,1000,12,0,1,524.515,-35.858,36.071,299.274,13.051,13.127
1782115717.152671,0.860000,172540,1000,12,0,1,524.900,-26.388,34.671,308.113,16.425,12.713
1782115717.153671,0.861000,172541,1000,12,0,1,529.488,-8.321,34.430,312.365,12.436,12.372
1782115717.154671,0.862000,172542,1000,12,0,1,529.608,0.961,34.365,314.046,6.348,12.027
1782115717.155671,0.863000,172543,1000,12,0,1,531.313,9.929,33.597,320.003,3.044,11.949
1782115717.156671,0.864000,172544,1000,12,0,1,538.592,21.616,32.450,322.309,-0.041,11.902
1782115717.157671,0.865000,172545,1000,12,0,1,548.032,32.538,32.025,322.189,-6.372,11.812
1782115717.158671,0.866000,172546,1000,12,0,1,554.133,38.045,32.368,325.120,-6.899,11.842
1782115717.159671,0.867000,172547,1000,12,0,1,558.024,37.635,32.760,330.717,-3.548,11.804
1782115717.160671,0.868000,172548,1000,12,0,1,550.746,28.162,33.001,333.527,-0.543,11.788
1782115717.161671,0.869000,172549,1000,12,0,1,550.073,19.454,32.913,325.720,-5.250,11.807
1782115717.162671,0.870000,172550,1000,12,0,1,561.916,25.580,32.864,320.652,-8.194,11.849
1782115717.163671,0.871000,172551,1000,12,0,1,564.942,23.446,32.990,320.628,-2.617,11.842
1782115717.164671,0.872000,172552,1000,12,0,1,567.873,17.905,33.065,319.619,1.488,11.843
1782115717.165671,0.873000,172553,1000,12,0,1,573.710,17.863,32.988,307.873,-2.599,11.813
1782115717.166671,0.874000,172554,1000,12,0,1,575.679,14.257,32.840,299.274,-7.298,11.797
1782115717.167671,0.875000,172555,1000,12,0,1,574.598,9.111,32.864,294.517,-5.567,11.822
1782115717.168671,0.876000,172556,1000,12,0,1,586.104,14.389,32.673,285.798,-9.302,11.687
1782115717.169671,0.877000,172557,1000,12,0,1,591.125,19.321,31.644,286.711,-7.404,10.947
1782115717.170671,0.878000,172558,1000,12,0,1,586.176,11.689,29.849,288.584,-2.893,9.718
1782115717.171671,0.879000,172559,1000,12,0,1,570.923,-0.739,28.617,295.262,-0.035,8.822
1782115717.172671,0.880000,172560,1000,12,0,1,558.913,-11.227,28.359,302.132,4.503,8.471
1782115717.173671,0.881000,172561,1000,12,0,1,552.788,-11.664,28.407,307.176,3.097,8.450
1782115717.174671,0.882000,172562,1000,12,0,1,559.201,-2.748,28.327,310.347,0.835,8.392
1782115717.175671,0.883000,172563,1000,12,0,1,583.750,21.450,28.176,314.335,-1.941,8.205
1782115717.176671,0.884000,172564,1000,12,0,1,605.513,41.892,28.323,312.461,-7.298,8.129
1782115717.177671,0.885000,172565,1000,12,0,1,599.796,33.550,28.447,308.137,-14.977,8.371
1782115717.178671,0.886000,172566,1000,12,0,1,558.721,-6.449,28.371,317.265,-9.356,8.475
1782115717.179671,0.887000,172567,1000,12,0,1,526.341,-41.291,28.932,326.873,1.315,8.477
1782115717.180671,0.888000,172568,1000,12,0,1,521.801,-42.046,29.511,327.882,2.487,8.478
1782115717.181671,0.889000,172569,1000,12,0,1,535.661,-26.804,29.682,329.155,4.874,8.438
1782115717.182671,0.890000,172570,1000,12,0,1,557.280,-5.457,29.490,325.168,4.922,8.154
1782115717.183671,0.891000,172571,1000,12,0,1,564.774,1.498,29.205,321.901,4.581,7.728
1782115717.184671,0.892000,172572,1000,12,0,1,566.624,-1.936,29.104,316.448,5.205,7.322
1782115717.185671,0.893000,172573,1000,12,0,1,573.518,1.012,29.079,306.095,0.414,6.759
1782115717.186671,0.894000,172574,1000,12,0,1,584.471,6.997,29.095,296.391,-3.537,6.439
1782115717.187671,0.895000,172575,1000,12,0,1,595.929,14.110,29.102,285.342,-7.949,6.464
1782115717.188671,0.896000,172576,1000,12,0,1,608.876,21.232,29.140,276.550,-11.952,6.659
1782115717.189671,0.897000,172577,1000,12,0,1,620.118,27.576,29.071,269.656,-13.709,6.933
1782115717.190671,0.898000,172578,1000,12,0,1,623.697,26.889,28.836,268.287,-13.162,7.057
1782115717.191671,0.899000,172579,1000,12,0,1,626.795,24.946,28.767,275.493,-5.827,6.912
1782115717.192671,0.900000,172580,1000,12,0,1,619.037,17.222,28.827,281.402,-0.997,6.855
1782115717.193671,0.901000,172581,1000,12,0,1,603.712,1.282,28.771,285.990,-0.615,6.855
1782115717.194671,0.902000,172582,1000,12,0,1,590.812,-8.964,28.479,293.028,1.314,6.845
1782115717.195671,0.903000,172583,1000,12,0,1,579.090,-16.204,27.814,300.186,2.952,6.840
1782115717.196671,0.904000,172584,1000,12,0,1,575.199,-16.660,26.438,304.366,2.092,6.816
1782115717.197671,0.905000,172585,1000,12,0,1,572.437,-14.108,24.799,306.095,-0.469,6.775
1782115717.198671,0.906000,172586,1000,12,0,1,565.999,-17.191,23.595,302.084,-5.779,6.799
1782115717.199671,0.907000,172587,1000,12,0,1,563.213,-17.975,22.432,297.232,-10.815,6.939
1782115717.200671,0.908000,172588,1000,12,0,1,575.247,-7.654,21.466,294.638,-10.517,7.049
1782115717.201671,0.909000,172589,1000,12,0,1,594.944,9.187,20.899,295.646,-5.664,6.850
1782115717.202671,0.910000,172590,1000,12,0,1,616.226,22.738,20.813,290.266,-3.656,6.465
1782115717.203671,0.911000,172591,1000,12,0,1,634.650,31.455,21.250,285.558,-2.914,6.235
1782115717.204671,0.912000,172592,1000,12,0,1,638.806,26.166,21.570,282.459,1.880,6.176
1782115717.205671,0.913000,172593,1000,12,0,1,633.569,10.896,21.579,277.847,4.104,6.188
1782115717.206671,0.914000,172594,1000,12,0,1,626.483,-2.844,21.365,274.941,6.880,6.264
1782115717.207671,0.915000,172595,1000,12,0,1,619.661,-13.625,20.953,276.142,12.066,6.429
1782115717.208671,0.916000,172596,1000,12,0,1,619.085,-16.181,20.379,280.393,17.804,6.836
1782115717.209671,0.917000,172597,1000,12,0,1,613.272,-18.896,19.852,285.870,22.314,7.512
1782115717.210671,0.918000,172598,1000,12,0,1,590.885,-34.578,20.054,293.821,25.648,8.342
1782115717.211671,0.919000,172599,1000,12,0,1,569.386,-48.333,21.008,300.691,26.568,9.119
1782115717.212671,0.920000,172600,1000,12,0,1,556.103,-49.315,21.837,307.657,24.366,9.679
1782115717.213671,0.921000,172601,1000,12,0,1,549.785,-43.112,22.429,313.013,20.715,10.106
1782115717.214671,0.922000,172602,1000,12,0,1,550.650,-30.222,22.691,318.922,15.913,10.351
1782115717.215671,0.923000,172603,1000,12,0,1,535.445,-29.968,22.945,337.250,21.492,10.782
1782115717.216671,0.924000,172604,1000,12,0,1,522.450,-34.430,23.369,347.531,23.572,11.238
1782115717.217671,0.925000,172605,1000,12,0,1,530.593,-17.947,23.471,346.138,12.080,11.340
1782115717.218671,0.926000,172606,1000,12,0,1,549.857,5.830,23.398,339.196,-0.351,11.263
1782115717.219671,0.927000,172607,1000,12,0,1,560.378,18.692,23.387,332.206,-10.770,11.318
1782115717.220671,0.928000,172608,1000,12,0,1,566.840,21.361,23.524,327.954,-14.520,11.495
1782115717.221671,0.929000,172609,1000,12,0,1,575.848,25.008,23.788,324.255,-15.061,11.691
1782115717.222671,0.930000,172610,1000,12,0,1,581.661,24.724,23.991,320.051,-14.428,11.850
1782115717.223671,0.931000,172611,1000,12,0,1,588.362,22.843,24.151,315.343,-12.799,11.980
1782115717.224671,0.932000,172612,1000,12,0,1,601.069,26.837,24.444,303.405,-16.263,12.198
1782115717.225671,0.933000,172613,1000,12,0,1,609.789,27.921,24.575,287.888,-23.307,12.633
1782115717.226671,0.934000,172614,1000,12,0,1,611.158,22.121,24.054,279.216,-23.959,13.038
1782115717.227671,0.935000,172615,1000,12,0,1,608.420,14.043,23.665,277.391,-17.930,13.113
1782115717.228671,0.936000,172616,1000,12,0,1,606.858,8.974,23.682,282.915,-8.115,13.096
1782115717.229671,0.937000,172617,1000,12,0,1,613.272,12.533,23.019,281.258,-4.724,13.112
1782115717.230671,0.938000,172618,1000,12,0,1,609.020,11.030,22.292,286.038,-2.678,13.113
1782115717.231671,0.939000,172619,1000,12,0,1,602.414,4.023,21.975,296.367,6.261,13.124
1782115717.232671,0.940000,172620,1000,12,0,1,593.215,0.115,21.961,306.696,10.448,13.189
1782115717.233671,0.941000,172621,1000,12,0,1,582.453,-6.670,21.981,313.446,10.992,13.264
1782115717.234671,0.942000,172622,1000,12,0,1,575.415,-8.095,22.009,321.661,10.182,13.322
1782115717.235671,0.943000,172623,1000,12,0,1,571.692,-6.726,22.029,328.483,9.612,13.391
1782115717.236671,0.944000,172624,1000,12,0,1,565.975,-7.400,22.031,324.375,0.335,13.382
1782115717.237671,0.945000,172625,1000,12,0,1,558.457,-11.093,21.997,318.034,-10.897,13.423
1782115717.238671,0.946000,172626,1000,12,0,1,555.334,-12.438,21.862,316.809,-13.220,13.447
1782115717.239671,0.947000,172627,1000,12,0,1,558.793,-8.303,21.543,324.423,-6.602,13.339
1782115717.240671,0.948000,172628,1000,12,0,1,556.871,-9.462,21.247,324.255,-2.281,13.213
1782115717.241671,0.949000,172629,1000,12,0,1,558.625,-10.975,21.009,323.582,-1.898,13.190
1782115717.242671,0.950000,172630,1000,12,0,1,563.909,-7.687,20.896,324.399,4.099,13.202
1782115717.243671,0.951000,172631,1000,12,0,1,576.160,-1.011,20.896,325.792,8.810,13.260
1782115717.244671,0.952000,172632,1000,12,0,1,592.974,10.425,20.909,316.472,6.503,13.291
1782115717.245671,0.953000,172633,1000,12,0,1,612.023,21.524,21.005,307.296,0.639,13.284
1782115717.246671,0.954000,172634,1000,12,0,1,611.038,17.353,21.016,301.075,0.221,13.281
1782115717.247671,0.955000,172635,1000,12,0,1,613.872,10.934,20.979,293.917,-2.536,13.286
1782115717.248671,0.956000,172636,1000,12,0,1,614.305,11.207,20.897,290.602,-3.438,13.269
1782115717.249671,0.957000,172637,1000,12,0,1,606.930,2.269,20.745,286.759,-4.489,13.196
1782115717.250671,0.958000,172638,1000,12,0,1,591.029,-9.255,20.758,280.273,-10.597,13.198
1782115717.251671,0.959000,172639,1000,12,0,1,581.997,-14.960,20.825,281.811,-10.751,13.261
1782115717.252671,0.960000,172640,1000,12,0,1,591.389,-1.442,20.576,295.286,-1.381,13.252
1782115717.253671,0.961000,172641,1000,12,0,1,582.838,0.878,20.090,308.137,7.186,13.285
1782115717.254671,0.962000,172642,1000,12,0,1,577.289,-4.024,19.754,317.890,9.263,13.346
1782115717.255671,0.963000,172643,1000,12,0,1,576.904,3.219,19.699,322.742,7.722,13.378
1782115717.256671,0.964000,172644,1000,12,0,1,573.998,2.183,19.698,327.786,5.032,13.362
1782115717.257671,0.965000,172645,1000,12,0,1,552.499,-11.513,19.671,329.227,2.482,13.257
1782115717.258671,0.966000,172646,1000,12,0,1,537.366,-26.603,19.896,327.642,-2.580,13.021
1782115717.259671,0.967000,172647,1000,12,0,1,543.300,-18.030,19.880,329.732,-1.970,12.636
1782115717.260671,0.968000,172648,1000,12,0,1,550.145,-9.354,19.314,326.873,-2.251,12.108
1782115717.261671,0.969000,172649,1000,12,0,1,559.514,-3.512,18.071,323.318,-3.796,11.523
1782115717.262671,0.970000,172650,1000,12,0,1,562.372,-1.566,16.673,321.709,-0.392,10.996
1782115717.263671,0.971000,172651,1000,12,0,1,566.504,-4.028,15.528,310.972,-3.826,10.612
1782115717.264671,0.972000,172652,1000,12,0,1,583.606,7.321,14.965,297.376,-10.571,10.478
1782115717.265671,0.973000,172653,1000,12,0,1,608.444,23.941,14.746,284.909,-14.123,10.225
1782115717.266671,0.974000,172654,1000,12,0,1,617.475,28.156,14.477,278.376,-13.374,9.849
1782115717.267671,0.975000,172655,1000,12,0,1,623.264,24.115,14.655,273.523,-10.216,9.807
1782115717.268671,0.976000,172656,1000,12,0,1,638.205,31.992,15.316,270.305,-8.641,9.883
1782115717.269671,0.977000,172657,1000,12,0,1,647.862,36.583,15.948,275.205,-1.840,9.768
1782115717.270671,0.978000,172658,1000,12,0,1,636.428,23.526,16.009,288.176,9.796,9.650
1782115717.271671,0.979000,172659,1000,12,0,1,600.205,-8.841,15.663,302.997,19.954,9.826
1782115717.272671,0.980000,172660,1000,12,0,1,572.052,-33.181,15.973,302.757,15.489,9.858
1782115717.273671,0.981000,172661,1000,12,0,1,558.673,-35.130,16.413,300.282,4.062,9.707
1782115717.274671,0.982000,172662,1000,12,0,1,531.962,-45.858,17.235,312.605,7.690,9.493
1782115717.275671,0.983000,172663,1000,12,0,1,513.442,-52.991,18.374,324.303,12.790,9.085
1782115717.276671,0.984000,172664,1000,12,0,1,508.830,-42.941,19.097,328.459,9.518,8.536
1782115717.277671,0.985000,172665,1000,12,0,1,510.319,-31.011,19.493,327.017,3.058,8.162
1782115717.278671,0.986000,172666,1000,12,0,1,533.211,-5.116,19.465,324.856,-2.715,8.090
1782115717.279671,0.987000,172667,1000,12,0,1,560.378,23.363,19.664,317.697,-8.624,8.154
1782115717.280671,0.988000,172668,1000,12,0,1,576.808,33.814,20.177,316.448,-9.381,8.253
1782115717.281671,0.989000,172669,1000,12,0,1,603.159,46.502,21.214,319.811,-1.405,8.208
1782115717.282671,0.990000,172670,1000,12,0,1,608.324,43.897,22.104,323.534,5.991,8.118
1782115717.283671,0.991000,172671,1000,12,0,1,578.634,5.232,22.096,330.621,16.091,8.286
1782115717.284671,0.992000,172672,1000,12,0,1,560.426,-22.262,22.290,329.900,19.886,8.631
1782115717.285671,0.993000,172673,1000,12,0,1,552.692,-29.396,22.654,322.333,14.402,8.763
1782115717.286671,0.994000,172674,1000,12,0,1,551.443,-30.938,23.049,304.318,1.867,8.767
1782115717.287671,0.995000,172675,1000,12,0,1,564.630,-16.121,23.108,284.669,-14.402,8.868
1782115717.288671,0.996000,172676,1000,12,0,1,569.674,-5.612,23.055,275.829,-19.045,9.077
1782115717.289671,0.997000,172677,1000,12,0,1,564.462,-6.871,23.046,275.829,-15.852,9.303
1782115717.290671,0.998000,172678,1000,12,0,1,564.750,-1.991,23.008,275.925,-13.522,9.492
1782115717.291671,0.999000,172679,1000,12,0,1,559.417,1.133,22.957,288.969,-4.420,9.509
1782115717.292671,1.000000,172680,1000,12,0,1,571.284,14.066,23.017,306.768,9.760,9.591
1782115717.293671,1.001000,172681,1000,12,0,1,592.638,39.756,23.693,313.662,10.533,9.626
1782115717.294671,1.002000,172682,1000,12,0,1,588.699,39.213,24.289,323.078,9.851,9.683
1782115717.295671,1.003000,172683,1000,12,0,1,578.322,26.369,24.384,332.782,12.186,9.834
1782115717.296671,1.004000,172684,1000,12,0,1,580.940,26.836,24.555,339.868,10.410,9.944
1782115717.297671,1.005000,172685,1000,12,0,1,591.605,32.964,24.946,339.244,5.021,9.963
1782115717.298671,1.006000,172686,1000,12,0,1,594.368,31.377,25.288,336.842,-2.316,9.956
1782115717.299671,1.007000,172687,1000,12,0,1,610.629,34.218,25.745,328.339,-9.469,10.026
1782115717.300671,1.008000,172688,1000,12,0,1,616.394,33.734,26.150,321.733,-14.982,10.137
1782115717.301671,1.009000,172689,1000,12,0,1,602.871,9.097,26.096,317.938,-12.896,10.187
1782115717.302671,1.010000,172690,1000,12,0,1,591.341,-11.147,26.143,312.485,-11.507,10.314
1782115717.303671,1.011000,172691,1000,12,0,1,591.365,-18.311,26.271,309.819,-7.323,10.316
1782115717.304671,1.012000,172692,1000,12,0,1,589.251,-23.188,26.469,306.888,-2.083,10.237
1782115717.305671,1.013000,172693,1000,12,0,1,582.669,-31.536,26.838,297.352,-3.850,10.193
1782115717.306671,1.014000,172694,1000,12,0,1,583.030,-32.145,27.218,290.554,-4.903,10.192
1782115717.307671,1.015000,172695,1000,12,0,1,590.260,-23.062,27.365,282.531,-6.125,10.223
1782115717.308671,1.016000,172696,1000,12,0,1,608.804,-5.552,27.116,277.343,-7.978,10.278
1782115717.309671,1.017000,172697,1000,12,0,1,618.724,8.121,27.021,276.838,-5.851,10.308
1782115717.310671,1.018000,172698,1000,12,0,1,616.034,5.843,27.001,280.850,-2.313,10.308
1782115717.311671,1.019000,172699,1000,12,0,1,624.537,13.377,27.062,287.984,2.264,10.299
1782115717.312671,1.020000,172700,1000,12,0,1,646.036,33.403,27.471,289.161,0.545,10.299
1782115717.313671,1.021000,172701,1000,12,0,1,658.623,44.613,28.180,287.672,-6.192,10.322
1782115717.314671,1.022000,172702,1000,12,0,1,644.955,30.309,28.486,290.938,-7.757,10.272
1782115717.315671,1.023000,172703,1000,12,0,1,615.554,0.357,28.284,299.442,-4.297,10.094
1782115717.316671,1.024000,172704,1000,12,0,1,576.568,-32.919,28.386,311.044,2.579,9.922
1782115717.317671,1.025000,172705,1000,12,0,1,537.607,-63.710,29.586,318.946,6.832,9.864
1782115717.318671,1.026000,172706,1000,12,0,1,516.901,-74.447,31.076,324.759,8.895,9.868
1782115717.319671,1.027000,172707,1000,12,0,1,528.551,-55.640,31.636,321.589,6.042,9.902
1782115717.320671,1.028000,172708,1000,12,0,1,555.430,-22.809,31.626,310.972,-3.086,9.814
1782115717.321671,1.029000,172709,1000,12,0,1,565.375,-9.246,31.628,313.085,0.331,9.400
1782115717.322671,1.030000,172710,1000,12,0,1,558.745,-16.454,31.364,319.979,12.419,9.308
1782115717.323671,1.031000,172711,1000,12,0,1,558.120,-19.528,31.091,326.993,21.629,9.781
1782115717.324671,1.032000,172712,1000,12,0,1,583.054,-0.527,30.408,323.943,23.440,10.270
1782115717.325671,1.033000,172713,1000,12,0,1,628.285,36.483,29.918,308.089,11.164,10.232
1782115717.326671,1.034000,172714,1000,12,0,1,647.261,50.122,30.140,296.655,2.292,10.148
1782115717.327671,1.035000,172715,1000,12,0,1,632.729,27.585,30.074,296.920,4.911,10.163
1782115717.328671,1.036000,172716,1000,12,0,1,582.453,-19.289,30.189,303.405,11.759,10.291
1782115717.329671,1.037000,172717,1000,12,0,1,538.471,-60.163,31.190,304.342,12.245,10.364
1782115717.330671,1.038000,172718,1000,12,0,1,511.376,-70.752,32.405,302.684,6.300,10.317
1782115717.331671,1.039000,172719,1000,12,0,1,488.965,-73.964,33.410,312.485,8.935,10.393
1782115717.332671,1.040000,172720,1000,12,0,1,483.344,-61.017,33.944,320.027,10.798,10.470
1782115717.333671,1.041000,172721,1000,12,0,1,501.912,-26.216,34.137,325.144,6.368,10.259
1782115717.334671,1.042000,172722,1000,12,0,1,525.548,10.217,34.023,330.741,3.791,9.881
1782115717.335671,1.043000,172723,1000,12,0,1,557.352,44.748,34.356,330.356,-3.498,9.681
1782115717.336671,1.044000,172724,1000,12,0,1,592.662,77.090,35.777,334.224,-7.323,9.733
1782115717.337671,1.045000,172725,1000,12,0,1,585.984,69.890,37.047,334.704,-9.134,9.605
1782115717.338671,1.046000,172726,1000,12,0,1,560.667,34.572,37.360,333.527,-13.357,9.411
1782115717.339671,1.047000,172727,1000,12,0,1,539.072,10.055,37.375,331.461,-13.824,9.347
1782115717.340671,1.048000,172728,1000,12,0,1,549.329,9.756,37.399,323.775,-17.781,9.488
1782115717.341671,1.049000,172729,1000,12,0,1,580.387,34.486,37.715,314.839,-20.884,9.918
1782115717.342671,1.050000,172730,1000,12,0,1,597.106,41.911,38.126,311.740,-17.043,10.113
1782115717.343671,1.051000,172731,1000,12,0,1,588.603,24.474,37.868,316.064,-5.770,10.035
1782115717.344671,1.052000,172732,1000,12,0,1,576.544,2.885,37.462,323.294,7.650,9.997
1782115717.345671,1.053000,172733,1000,12,0,1,575.968,-4.215,37.281,319.739,10.491,9.958
1782115717.346671,1.054000,172734,1000,12,0,1,558.505,-18.541,37.180,305.519,1.069,9.850
1782115717.347671,1.055000,172735,1000,12,0,1,556.463,-25.361,37.060,295.070,-6.118,9.863
1782115717.348671,1.056000,172736,1000,12,0,1,561.435,-13.043,36.840,294.157,-4.359,9.876
1782115717.349671,1.057000,172737,1000,12,0,1,564.798,-8.182,36.539,294.517,-2.180,9.790
1782115717.350671,1.058000,172738,1000,12,0,1,581.036,10.074,36.254,290.050,-6.256,9.599
1782115717.351671,1.059000,172739,1000,12,0,1,608.972,36.745,36.602,284.597,-13.003,9.602
1782115717.352671,1.060000,172740,1000,12,0,1,650.240,70.250,37.894,280.273,-18.395,9.814
1782115717.353671,1.061000,172741,1000,12,0,1,663.979,80.593,39.486,283.684,-17.999,10.086
1782115717.354671,1.062000,172742,1000,12,0,1,634.770,44.718,39.854,297.760,-7.627,10.139
1782115717.355671,1.063000,172743,1000,12,0,1,593.935,0.522,39.604,312.149,2.884,10.132
1782115717.356671,1.064000,172744,1000,12,0,1,541.402,-45.366,39.862,321.637,7.368,10.162
1782115717.357671,1.065000,172745,1000,12,0,1,501.167,-78.693,41.258,325.168,6.979,10.173
1782115717.358671,1.066000,172746,1000,12,0,1,484.425,-82.480,42.868,319.619,-0.019,10.111
1782115717.359671,1.067000,172747,1000,12,0,1,453.750,-93.413,44.842,319.259,-2.225,10.081
1782115717.360671,1.068000,172748,1000,12,0,1,413.852,-115.871,47.735,332.398,10.678,10.189
1782115717.361671,1.069000,172749,1000,12,0,1,391.465,-119.067,50.583,338.860,20.059,10.571
1782115717.362671,1.070000,172750,1000,12,0,1,414.068,-84.119,51.748,327.089,11.875,10.704
1782115717.363671,1.071000,172751,1000,12,0,1,474.360,-15.942,51.411,309.891,-0.970,10.669
1782115717.364671,1.072000,172752,1000,12,0,1,583.678,79.826,52.461,299.682,-5.354,10.639
1782115717.365671,1.073000,172753,1000,12,0,1,695.951,172.796,57.874,290.842,-6.051,10.656
1782115717.366671,1.074000,172754,1000,12,0,1,707.793,166.387,62.301,293.437,0.310,10.650
1782115717.367671,1.075000,172755,1000,12,0,1,640.631,75.645,62.567,305.927,16.091,10.847
1782115717.368671,1.076000,172756,1000,12,0,1,592.037,9.805,61.691,306.528,18.813,11.098
1782115717.369671,1.077000,172757,1000,12,0,1,541.186,-34.717,61.383,307.224,15.173,11.271
1782115717.370671,1.078000,172758,1000,12,0,1,506.692,-65.186,61.988,325.264,25.964,11.846
1782115717.371671,1.079000,172759,1000,12,0,1,517.742,-43.436,62.278,346.810,38.599,13.043
1782115717.372671,1.080000,172760,1000,12,0,1,485.410,-48.099,62.605,366.988,44.707,14.388
1782115717.373671,1.081000,172761,1000,12,0,1,403.043,-106.648,64.337,381.520,44.550,15.406
1782115717.374671,1.082000,172762,1000,12,0,1,331.101,-146.657,67.597,386.925,34.459,15.815
1782115717.375671,1.083000,172763,1000,12,0,1,339.340,-115.318,69.345,382.409,17.081,15.920
1782115717.376671,1.084000,172764,1000,12,0,1,378.518,-44.129,69.263,360.766,-11.403,15.998
1782115717.377671,1.085000,172765,1000,12,0,1,446.809,28.343,69.270,337.346,-38.991,16.908
1782115717.378671,1.086000,172766,1000,12,0,1,475.081,69.952,69.919,336.001,-41.099,17.801
1782115717.379671,1.087000,172767,1000,12,0,1,489.277,68.878,70.080,330.837,-38.104,18.518
1782115717.380671,1.088000,172768,1000,12,0,1,493.841,68.433,70.034,322.766,-40.689,19.371
1782115717.381671,1.089000,172769,1000,12,0,1,482.719,44.554,69.534,323.558,-31.360,19.832
1782115717.382671,1.090000,172770,1000,12,0,1,471.478,23.070,69.074,331.365,-15.911,19.901
1782115717.383671,1.091000,172771,1000,12,0,1,441.212,-7.841,68.983,334.872,-3.992,19.889
1782115717.384671,1.092000,172772,1000,12,0,1,382.841,-62.178,69.526,330.957,-1.319,19.882
1782115717.385671,1.093000,172773,1000,12,0,1,332.326,-101.027,70.697,327.306,-0.176,19.876
1782115717.386671,1.094000,172774,1000,12,0,1,293.244,-118.871,71.845,325.144,2.195,19.852
1782115717.387671,1.095000,172775,1000,12,0,1,334.296,-69.640,71.840,305.975,-9.925,19.859
1782115717.388671,1.096000,172776,1000,12,0,1,427.232,35.566,71.850,280.513,-30.829,20.244
1782115717.389671,1.097000,172777,1000,12,0,1,456.105,76.783,72.652,282.339,-27.776,20.529
1782115717.390671,1.098000,172778,1000,12,0,1,416.182,40.181,72.861,319.187,6.805,20.397
1782115717.391671,1.099000,172779,1000,12,0,1,342.198,-19.455,72.750,356.179,39.163,20.928
1782115717.392671,1.100000,172780,1000,12,0,1,316.857,-39.018,72.717,378.902,49.863,21.952
1782115717.393671,1.101000,172781,1000,12,0,1,374.891,27.582,72.740,381.761,40.952,22.689
1782115717.394671,1.102000,172782,1000,12,0,1,464.776,116.526,74.582,367.949,15.779,22.773
1782115717.395671,1.103000,172783,1000,12,0,1,521.152,164.395,78.119,351.086,-9.069,22.760
1782115717.396671,1.104000,172784,1000,12,0,1,470.637,111.094,79.640,351.014,-15.715,22.868
1782115717.397671,1.105000,172785,1000,12,0,1,409.096,29.753,79.671,352.239,-14.049,22.938
1782115717.398671,1.106000,172786,1000,12,0,1,396.173,12.158,79.668,342.391,-21.955,23.139
1782115717.399671,1.107000,172787,1000,12,0,1,420.194,26.486,79.748,333.047,-27.692,23.466
1782115717.400671,1.108000,172788,1000,12,0,1,481.831,71.996,80.382,322.381,-29.742,23.824
1782115717.401671,1.109000,172789,1000,12,0,1,525.644,100.921,81.474,315.584,-28.581,24.094
1782115717.402671,1.110000,172790,1000,12,0,1,504.530,63.827,81.368,316.881,-17.549,24.081
1782115717.403671,1.111000,172791,1000,12,0,1,455.264,-0.636,80.566,330.092,1.685,23.948
1782115717.404671,1.112000,172792,1000,12,0,1,405.493,-54.218,80.683,348.444,24.714,24.177
1782115717.405671,1.113000,172793,1000,12,0,1,322.117,-121.277,82.485,367.973,43.035,24.928
1782115717.406671,1.114000,172794,1000,12,0,1,254.787,-173.392,85.814,390.048,59.325,26.282
1782115717.407671,1.115000,172795,1000,12,0,1,255.988,-148.954,87.658,388.078,53.504,27.331
1782115717.408671,1.116000,172796,1000,12,0,1,290.818,-88.702,87.779,380.343,34.128,27.754
1782115717.409671,1.117000,172797,1000,12,0,1,322.982,-36.936,86.936,372.969,20.623,27.905
1782115717.410671,1.118000,172798,1000,12,0,1,341.742,-4.019,85.380,352.095,-5.006,27.873
1782115717.411671,1.119000,172799,1000,12,0,1,388.967,41.569,83.909,322.694,-36.020,28.193
1782115717.412671,1.120000,172800,1000,12,0,1,410.465,71.917,83.682,299.634,-57.969,29.312
1782115717.413671,1.121000,172801,1000,12,0,1,437.561,83.191,84.475,297.232,-58.459,30.456
1782115717.414671,1.122000,172802,1000,12,0,1,474.000,111.835,85.198,313.422,-39.423,30.952
1782115717.415671,1.123000,172803,1000,12,0,1,484.689,108.074,83.037,338.163,-14.612,31.009
1782115717.416671,1.124000,172804,1000,12,0,1,476.066,84.079,80.516,352.792,0.753,31.010
1782115717.417671,1.125000,172805,1000,12,0,1,505.923,88.641,80.781,351.927,-1.131,30.926
1782115717.418671,1.126000,172806,1000,12,0,1,527.230,96.820,81.921,360.214,3.456,30.816
1782115717.419671,1.127000,172807,1000,12,0,1,541.786,85.058,82.654,365.811,10.954,30.780
1782115717.420671,1.128000,172808,1000,12,0,1,531.577,60.794,82.587,365.210,9.666,30.591
1782115717.421671,1.129000,172809,1000,12,0,1,479.116,-2.071,82.359,350.846,0.642,30.100
1782115717.422671,1.130000,172810,1000,12,0,1,354.017,-113.901,83.643,362.400,8.095,29.451
1782115717.423671,1.131000,172811,1000,12,0,1,240.663,-213.087,87.617,393.290,40.603,29.336
1782115717.424671,1.132000,172812,1000,12,0,1,225.674,-204.641,89.912,397.614,45.569,29.638
1782115717.425671,1.133000,172813,1000,12,0,1,276.430,-125.271,90.178,375.347,21.893,29.701
1782115717.426671,1.134000,172814,1000,12,0,1,292.596,-79.054,90.654,350.366,-2.855,29.660
1782115717.427671,1.135000,172815,1000,12,0,1,303.357,-56.784,90.921,325.408,-23.595,29.333
1782115717.428671,1.136000,172816,1000,12,0,1,323.174,-23.319,90.441,310.419,-34.406,29.160
1782115717.429671,1.137000,172817,1000,12,0,1,348.444,6.900,89.920,303.597,-35.148,29.086
1782115717.430671,1.138000,172818,1000,12,0,1,358.172,22.612,89.455,304.678,-30.249,28.830
1782115717.431671,1.139000,172819,1000,12,0,1,360.815,24.539,89.300,312.533,-20.246,28.631
1782115717.432671,1.140000,172820,1000,12,0,1,394.323,49.542,89.515,320.700,-11.502,28.588
1782115717.433671,1.141000,172821,1000,12,0,1,493.481,127.390,91.304,327.882,-6.466,28.597
1782115717.434671,1.142000,172822,1000,12,0,1,547.479,170.221,94.013,328.435,-6.928,28.614
1782115717.435671,1.143000,172823,1000,12,0,1,486.371,95.731,93.902,336.674,-4.149,28.620
1782115717.436671,1.144000,172824,1000,12,0,1,325.672,-59.285,92.765,366.676,18.986,28.744
1782115717.437671,1.145000,172825,1000,12,0,1,219.093,-162.653,95.066,376.116,27.418,28.970
1782115717.438671,1.146000,172826,1000,12,0,1,247.269,-118.461,96.399,360.046,7.054,28.657
1782115717.439671,1.147000,172827,1000,12,0,1,350.293,-2.677,95.787,341.646,-11.306,28.432
1782115717.440671,1.148000,172828,1000,12,0,1,502.296,134.258,97.485,328.579,-20.649,28.565
1782115717.441671,1.149000,172829,1000,12,0,1,622.183,234.124,102.917,311.188,-28.616,28.314
1782115717.442671,1.150000,172830,1000,12,0,1,657.470,231.136,107.843,314.262,-20.869,27.580
1782115717.443671,1.151000,172831,1000,12,0,1,584.639,134.024,109.426,345.441,15.102,27.050
1782115717.444671,1.152000,172832,1000,12,0,1,465.352,-7.574,108.183,363.265,38.559,27.503
1782115717.445671,1.153000,172833,1000,12,0,1,397.806,-83.254,106.310,354.689,30.921,27.819
1782115717.446671,1.154000,172834,1000,12,0,1,431.772,-56.002,105.440,327.834,7.423,27.750
1782115717.447671,1.155000,172835,1000,12,0,1,463.887,-13.167,105.373,300.595,-16.958,27.783
1782115717.448671,1.156000,172836,1000,12,0,1,444.406,-30.971,105.450,301.652,-14.728,27.687
1782115717.449671,1.157000,172837,1000,12,0,1,443.494,-37.396,105.516,306.240,-4.279,27.416
1782115717.450671,1.158000,172838,1000,12,0,1,467.298,-12.907,105.039,309.410,-2.309,27.093
1782115717.451671,1.159000,172839,1000,12,0,1,469.676,-9.515,104.074,310.924,-0.537,26.790
1782115717.452671,1.160000,172840,1000,12,0,1,467.226,-15.774,103.706,321.997,4.534,26.682
1782115717.453671,1.161000,172841,1000,12,0,1,379.863,-80.300,104.325,358.845,31.089,27.041
1782115717.454671,1.162000,172842,1000,12,0,1,267.734,-179.252,107.087,407.991,66.410,28.411
1782115717.455671,1.163000,172843,1000,12,0,1,229.950,-191.367,109.114,433.213,76.891,29.806
1782115717.456671,1.164000,172844,1000,12,0,1,263.531,-131.258,107.931,414.813,45.911,29.329
1782115717.457671,1.165000,172845,1000,12,0,1,292.548,-73.126,106.360,380.127,-0.028,28.336
1782115717.458671,1.166000,172846,1000,12,0,1,246.908,-86.800,106.328,392.906,-0.561,27.922
1782115717.459671,1.167000,172847,1000,12,0,1,240.183,-87.486,106.918,405.997,14.776,27.848
1782115717.460671,1.168000,172848,1000,12,0,1,330.861,11.293,106.929,374.098,-14.388,27.913
1782115717.461671,1.169000,172849,1000,12,0,1,416.350,99.513,107.690,339.364,-46.035,28.206
1782115717.462671,1.170000,172850,1000,12,0,1,429.153,107.625,108.284,339.172,-40.173,27.580
1782115717.463671,1.171000,172851,1000,12,0,1,408.207,72.885,108.135,348.972,-19.700,26.459
1782115717.464671,1.172000,172852,1000,12,0,1,399.704,53.134,107.236,339.124,-18.409,25.995
1782115717.465671,1.173000,172853,1000,12,0,1,395.644,43.624,106.321,328.531,-23.048,26.117
1782115717.466671,1.174000,172854,1000,12,0,1,446.929,74.328,106.175,315.608,-25.037,26.356
1782115717.467671,1.175000,172855,1000,12,0,1,482.791,107.379,106.520,313.254,-23.511,26.564
1782115717.468671,1.176000,172856,1000,12,0,1,448.154,63.234,106.015,326.633,-5.755,26.572
1782115717.469671,1.177000,172857,1000,12,0,1,502.609,82.610,105.976,321.973,-5.062,26.537
1782115717.470671,1.178000,172858,1000,12,0,1,641.856,196.001,109.203,289.930,-32.586,26.899
1782115717.471671,1.179000,172859,1000,12,0,1,670.849,206.650,113.046,275.829,-46.830,27.702
1782115717.472671,1.180000,172860,1000,12,0,1,584.759,93.097,112.664,291.899,-28.661,27.974
1782115717.473671,1.181000,172861,1000,12,0,1,497.540,-12.669,108.574,319.667,-1.903,27.379
1782115717.474671,1.182000,172862,1000,12,0,1,445.920,-66.528,105.068,331.437,9.086,26.641
1782115717.475671,1.183000,172863,1000,12,0,1,384.883,-111.706,104.761,346.282,15.004,26.546
1782115717.476671,1.184000,172864,1000,12,0,1,385.412,-110.241,105.323,344.144,12.903,26.605
1782115717.477671,1.185000,172865,1000,12,0,1,356.899,-104.497,106.051,351.975,10.644,26.438
1782115717.478671,1.186000,172866,1000,12,0,1,308.546,-141.132,107.863,368.333,25.567,26.237
1782115717.479671,1.187000,172867,1000,12,0,1,286.182,-138.706,109.628,377.149,30.199,26.113
1782115717.480671,1.188000,172868,1000,12,0,1,287.840,-117.842,110.841,389.111,36.927,26.284
1782115717.481671,1.189000,172869,1000,12,0,1,308.618,-80.737,111.373,387.550,35.938,26.618
1782115717.482671,1.190000,172870,1000,12,0,1,365.499,-19.845,111.188,361.391,11.285,26.616
1782115717.483671,1.191000,172871,1000,12,0,1,367.877,-2.276,109.720,353.296,2.291,26.602
1782115717.484671,1.192000,172872,1000,12,0,1,374.843,-6.552,107.050,345.273,2.751,26.587
1782115717.485671,1.193000,172873,1000,12,0,1,428.072,40.419,106.344,327.522,-9.482,26.614
1782115717.486671,1.194000,172874,1000,12,0,1,452.381,62.307,106.379,306.288,-22.224,26.664
1782115717.487671,1.195000,172875,1000,12,0,1,469.388,60.978,104.220,301.796,-22.325,26.569
1782115717.488671,1.196000,172876,1000,12,0,1,438.954,35.406,102.986,324.111,1.561,26.551
1782115717.489671,1.197000,172877,1000,12,0,1,413.180,-4.311,102.987,343.496,22.208,26.689
1782115717.490671,1.198000,172878,1000,12,0,1,467.154,41.552,101.392,333.527,10.768,26.572
1782115717.491671,1.199000,172879,1000,12,0,1,534.124,102.039,96.914,315.896,-11.540,26.313
1782115717.492671,1.200000,172880,1000,12,0,1,552.019,110.226,92.557,319.931,-13.859,26.220
1782115717.493671,1.201000,172881,1000,12,0,1,538.135,82.367,91.342,324.904,-9.810,26.170
1782115717.494671,1.202000,172882,1000,12,0,1,524.587,56.521,91.684,325.696,-14.152,25.673
1782115717.495671,1.203000,172883,1000,12,0,1,513.586,38.621,91.089,331.341,-11.948,25.355
1782115717.496671,1.204000,172884,1000,12,0,1,482.527,6.904,90.750,347.963,-0.975,25.333
1782115717.497671,1.205000,172885,1000,12,0,1,439.722,-34.095,90.858,367.829,14.731,25.305
1782115717.498671,1.206000,172886,1000,12,0,1,426.031,-47.563,91.002,362.424,9.481,25.255
1782115717.499671,1.207000,172887,1000,12,0,1,430.306,-36.872,90.997,339.388,-13.610,25.321
1782115717.500671,1.208000,172888,1000,12,0,1,420.698,-40.951,91.163,326.537,-23.169,25.530
1782115717.501671,1.209000,172889,1000,12,0,1,403.379,-54.479,91.478,331.846,-12.616,25.592
1782115717.502671,1.210000,172890,1000,12,0,1,412.363,-47.109,91.694,322.526,-9.630,25.621
1782115717.503671,1.211000,172891,1000,12,0,1,490.526,17.034,91.020,308.401,-16.823,25.352
1782115717.504671,1.212000,172892,1000,12,0,1,603.543,110.398,88.801,307.056,-9.032,23.583
1782115717.505671,1.213000,172893,1000,12,0,1,665.228,147.216,87.102,306.119,-0.739,20.927
1782115717.506671,1.214000,172894,1000,12,0,1,620.502,82.252,85.892,327.738,20.454,20.103
1782115717.507671,1.215000,172895,1000,12,0,1,531.626,-25.900,85.346,361.895,54.153,21.513
1782115717.508671,1.216000,172896,1000,12,0,1,506.812,-64.360,84.947,372.392,59.987,23.125
1782115717.509671,1.217000,172897,1000,12,0,1,437.849,-106.333,85.376,366.603,44.451,23.873
1782115717.510671,1.218000,172898,1000,12,0,1,319.619,-202.188,90.023,388.486,48.775,24.766
1782115717.511671,1.219000,172899,1000,12,0,1,180.732,-286.189,97.694,425.214,70.276,25.879
1782115717.512671,1.220000,172900,1000,12,0,1,61.541,-345.018,108.135,440.803,68.248,27.030
1782115717.513671,1.221000,172901,1000,12,0,1,109.102,-253.853,113.472,409.312,25.075,27.119
1782115717.514671,1.222000,172902,1000,12,0,1,265.669,-49.471,113.439,362.976,-32.724,27.387
1782115717.515671,1.223000,172903,1000,12,0,1,306.288,34.900,113.378,366.363,-40.363,27.785
1782115717.516671,1.224000,172904,1000,12,0,1,292.404,25.993,112.950,375.491,-27.026,27.823
1782115717.517671,1.225000,172905,1000,12,0,1,280.585,28.474,111.997,363.745,-38.638,28.158
1782115717.518671,1.226000,172906,1000,12,0,1,302.156,46.337,111.831,356.275,-43.170,28.801
1782115717.519671,1.227000,172907,1000,12,0,1,339.292,83.954,111.851,365.763,-30.611,29.116
1782115717.520671,1.228000,172908,1000,12,0,1,397.614,123.218,109.754,345.513,-36.181,29.201
1782115717.521671,1.229000,172909,1000,12,0,1,504.818,196.790,109.391,295.646,-72.727,30.242
1782115717.522671,1.230000,172910,1000,12,0,1,657.061,297.381,116.455,257.574,-93.116,32.735
1782115717.523671,1.231000,172911,1000,12,0,1,754.946,341.751,126.073,244.939,-84.623,34.853
1782115717.524671,1.232000,172912,1000,12,0,1,757.708,284.260,131.993,240.975,-66.081,36.061
1782115717.525671,1.233000,172913,1000,12,0,1,713.246,183.557,133.590,240.615,-47.595,36.623
1782115717.526671,1.234000,172914,1000,12,0,1,678.776,105.028,133.506,256.301,-20.139,36.688
1782115717.527671,1.235000,172915,1000,12,0,1,620.718,27.950,132.745,285.510,16.201,36.729
1782115717.528671,1.236000,172916,1000,12,0,1,534.724,-63.959,131.547,300.787,34.801,36.880
1782115717.529671,1.237000,172917,1000,12,0,1,429.538,-152.606,131.854,316.328,43.483,37.145
1782115717.530671,1.238000,172918,1000,12,0,1,342.967,-212.053,134.191,339.772,57.935,37.677
1782115717.531671,1.239000,172919,1000,12,0,1,356.275,-175.962,136.000,342.799,53.084,38.080
1782115717.532671,1.240000,172920,1000,12,0,1,460.692,-50.533,136.159,321.541,23.044,38.186
1782115717.533671,1.241000,172921,1000,12,0,1,537.919,41.992,136.288,303.045,-2.760,38.187
1782115717.534671,1.242000,172922,1000,12,0,1,583.654,77.657,136.727,310.443,-2.099,38.186
1782115717.535671,1.243000,172923,1000,12,0,1,617.451,96.095,137.281,322.093,8.706,38.182
1782115717.536671,1.244000,172924,1000,12,0,1,586.200,55.412,137.222,310.155,-1.912,38.054
1782115717.537671,1.245000,172925,1000,12,0,1,532.923,-16.225,136.970,310.491,-5.355,37.930
1782115717.538671,1.246000,172926,1000,12,0,1,532.923,-32.014,136.954,310.491,1.114,37.930
1782115717.539671,1.247000,172927,1000,12,0,1,532.923,-34.764,137.040,310.491,1.995,37.800
1782115717.540671,1.248000,172928,1000,12,0,1,231.295,-267.017,142.026,389.711,65.938,38.904
1782115717.541671,1.249000,172929,1000,12,0,1,258.318,-306.205,147.779,390.528,84.416,40.662
1782115717.542671,1.250000,172930,1000,12,0,1,271.265,-171.892,148.951,387.790,54.039,41.327
1782115717.543671,1.251000,172931,1000,12,0,1,279.745,-190.663,150.923,376.284,51.936,41.952
1782115717.544671,1.252000,172932,1000,12,0,1,262.762,-133.329,151.886,365.475,26.237,42.068
1782115717.545671,1.253000,172933,1000,12,0,1,363.649,-58.527,152.014,340.637,8.952,42.053
1782115717.546671,1.254000,172934,1000,12,0,1,532.466,128.024,153.085,294.445,-35.153,42.346
1782115717.547671,1.255000,172935,1000,12,0,1,603.351,191.040,155.376,250.464,-70.676,43.459
1782115717.548671,1.256000,172936,1000,12,0,1,599.508,159.832,156.867,246.428,-68.085,44.493
1782115717.549671,1.257000,172937,1000,12,0,1,528.863,92.617,157.327,271.145,-37.375,44.765
1782115717.550671,1.258000,172938,1000,12,0,1,423.629,-22.323,157.252,301.411,-3.977,44.648
1782115717.551671,1.259000,172939,1000,12,0,1,337.875,-80.793,157.478,335.785,21.965,44.720
1782115717.552671,1.260000,172940,1000,12,0,1,306.360,-100.448,157.977,373.401,49.652,45.248
1782115717.553671,1.261000,172941,1000,12,0,1,315.199,-56.486,158.160,393.483,54.992,45.850
1782115717.554671,1.262000,172942,1000,12,0,1,330.164,-25.926,157.431,389.831,38.989,46.162
1782115717.555671,1.263000,172943,1000,12,0,1,342.487,6.131,156.050,388.174,21.134,46.259
1782115717.556671,1.264000,172944,1000,12,0,1,361.127,26.936,155.663,378.302,6.712,46.178
1782115717.557671,1.265000,172945,1000,12,0,1,484.233,124.873,156.619,319.211,-46.491,46.011
1782115717.558671,1.266000,172946,1000,12,0,1,585.216,213.763,159.250,267.110,-93.843,47.129
1782115717.559671,1.267000,172947,1000,12,0,1,584.135,178.320,160.531,256.733,-88.883,48.370
1782115717.560671,1.268000,172948,1000,12,0,1,571.332,124.487,158.942,257.886,-67.963,48.831
1782115717.561671,1.269000,172949,1000,12,0,1,542.459,71.187,154.032,293.533,-24.199,47.931
1782115717.562671,1.270000,172950,1000,12,0,1,521.801,21.561,146.132,339.965,32.752,47.177
1782115717.563671,1.271000,172951,1000,12,0,1,481.038,-23.355,141.692,350.630,47.997,47.531
1782115717.564671,1.272000,172952,1000,12,0,1,477.291,-46.010,141.668,340.325,36.535,47.586
1782115717.565671,1.273000,172953,1000,12,0,1,513.202,-11.265,141.591,324.111,20.815,47.334
1782115717.566671,1.274000,172954,1000,12,0,1,472.583,-38.634,141.649,323.847,16.372,47.236
1782115717.567671,1.275000,172955,1000,12,0,1,479.140,-47.711,141.752,318.202,13.509,46.958
1782115717.568671,1.276000,172956,1000,12,0,1,587.690,56.145,141.823,293.292,-11.097,46.586
1782115717.569671,1.277000,172957,1000,12,0,1,692.540,147.631,142.859,272.587,-31.225,46.594
1782115717.570671,1.278000,172958,1000,12,0,1,638.782,99.571,142.490,276.934,-27.603,46.477
1782115717.571671,1.279000,172959,1000,12,0,1,502.729,-45.520,139.894,314.743,4.824,45.329
1782115717.572671,1.280000,172960,1000,12,0,1,426.535,-114.391,134.400,340.853,29.045,43.569
1782115717.573671,1.281000,172961,1000,12,0,1,354.737,-151.120,127.217,357.115,32.325,42.141
1782115717.574671,1.282000,172962,1000,12,0,1,258.703,-210.063,124.301,384.427,46.392,41.613
1782115717.575671,1.283000,172963,1000,12,0,1,215.922,-216.914,125.371,402.250,52.389,41.728
1782115717.576671,1.284000,172964,1000,12,0,1,259.399,-143.519,126.131,394.371,34.696,41.919
1782115717.577671,1.285000,172965,1000,12,0,1,387.694,-5.369,126.072,366.772,1.846,41.857
1782115717.578671,1.286000,172966,1000,12,0,1,546.735,143.008,127.363,315.223,-44.016,42.030
1782115717.579671,1.287000,172967,1000,12,0,1,577.553,166.667,127.715,293.196,-63.541,42.538
1782115717.580671,1.288000,172968,1000,12,0,1,490.934,55.403,124.391,308.161,-37.019,42.068
1782115717.581671,1.289000,172969,1000,12,0,1,436.239,-22.174,121.917,336.410,-1.631,41.393
1782115717.582671,1.290000,172970,1000,12,0,1,493.577,11.932,121.719,358.917,26.077,41.429
1782115717.583671,1.291000,172971,1000,12,0,1,449.163,-10.117,121.582,372.056,38.962,41.792
1782115717.584671,1.292000,172972,1000,12,0,1,336.626,-125.801,122.385,374.722,39.662,42.166
1782115717.585671,1.293000,172973,1000,12,0,1,315.175,-136.354,123.148,371.936,32.860,42.403
1782115717.586671,1.294000,172974,1000,12,0,1,337.659,-87.524,123.520,361.367,19.214,42.490
1782115717.587671,1.295000,172975,1000,12,0,1,365.018,-42.984,123.648,344.096,-0.362,42.483
1782115717.588671,1.296000,172976,1000,12,0,1,357.139,-23.039,123.608,339.172,-10.210,42.507
1782115717.589671,1.297000,172977,1000,12,0,1,316.857,-43.894,123.666,354.737,0.341,42.506
1782115717.590671,1.298000,172978,1000,12,0,1,223.056,-95.795,118.536,386.949,22.557,41.593
1782115717.591671,1.299000,172979,1000,12,0,1,193.655,-108.408,111.403,376.428,11.868,39.878
1782115717.592671,1.300000,172980,1000,12,0,1,302.709,17.782,108.748,319.523,-47.742,39.717
1782115717.593671,1.301000,172981,1000,12,0,1,446.232,165.483,107.920,282.099,-85.078,40.845
1782115717.594671,1.302000,172982,1000,12,0,1,498.453,211.565,110.392,285.582,-75.592,42.057
1782115717.595671,1.303000,172983,1000,12,0,1,529.247,204.018,113.800,272.659,-71.738,43.245
1782115717.596671,1.304000,172984,1000,12,0,1,530.881,181.830,115.255,270.521,-68.318,44.031
1782115717.597671,1.305000,172985,1000,12,0,1,503.858,121.243,113.348,294.806,-33.523,43.143
1782115717.598671,1.306000,172986,1000,12,0,1,482.455,72.943,111.550,306.960,-10.629,42.082
1782115717.599671,1.307000,172987,1000,12,0,1,554.469,100.816,111.692,307.513,-4.282,41.753
1782115717.600671,1.308000,172988,1000,12,0,1,603.351,131.571,113.187,314.767,7.937,41.764
1782115717.601671,1.309000,172989,1000,12,0,1,438.858,-26.726,112.672,350.173,40.384,42.038
1782115717.602671,1.310000,172990,1000,12,0,1,321.661,-172.686,114.410,369.414,63.728,42.416
1782115717.603671,1.311000,172991,1000,12,0,1,383.634,-103.962,115.074,354.665,45.871,42.199
1782115717.604671,1.312000,172992,1000,12,0,1,468.331,-10.979,115.026,330.404,20.939,41.942
1782115717.605671,1.313000,172993,1000,12,0,1,561.147,67.556,115.419,302.204,-4.180,41.839
1782115717.606671,1.314000,172994,1000,12,0,1,642.409,133.272,116.886,276.238,-24.994,41.978
1782115717.607671,1.315000,172995,1000,12,0,1,613.632,97.035,116.356,256.733,-36.381,41.778
1782115717.608671,1.316000,172996,1000,12,0,1,519.543,-7.889,112.366,258.751,-30.086,39.841
1782115717.609671,1.317000,172997,1000,12,0,1,449.018,-76.394,110.031,286.062,-0.588,37.807
1782115717.610671,1.318000,172998,1000,12,0,1,425.382,-88.628,109.334,313.302,25.805,36.746
1782115717.611671,1.319000,172999,1000,12,0,1,408.904,-83.900,109.514,331.029,36.937,36.957
1782115717.612671,1.320000,173000,1000,12,0,1,432.780,-53.535,109.733,346.498,42.111,37.147
1782115717.613671,1.321000,173001,1000,12,0,1,432.780,-31.084,109.772,346.498,34.466,36.845
1782115717.614671,1.322000,173002,1000,12,0,1,432.780,-32.306,109.674,346.498,22.595,36.621
1782115717.615671,1.323000,173003,1000,12,0,1,409.745,-38.933,109.800,373.329,36.362,36.862
1782115717.616671,1.324000,173004,1000,12,0,1,394.059,-56.335,109.953,374.314,35.136,37.124
1782115717.617671,1.325000,173005,1000,12,0,1,372.320,-64.074,110.120,368.813,17.083,37.153
1782115717.618671,1.326000,173006,1000,12,0,1,376.956,-61.575,110.178,362.328,9.985,37.147
1782115717.619671,1.327000,173007,1000,12,0,1,364.586,-58.816,108.501,362.664,4.720,36.889
1782115717.620671,1.328000,173008,1000,12,0,1,321.060,-92.860,108.382,366.531,9.736,36.708
1782115717.621671,1.329000,173009,1000,12,0,1,277.151,-121.798,109.553,377.773,17.634,36.786
1782115717.622671,1.330000,173010,1000,12,0,1,272.106,-111.839,109.500,380.704,21.899,36.687
1782115717.623671,1.331000,173011,1000,12,0,1,342.967,-37.048,107.522,337.466,-12.839,36.447
1782115717.624671,1.332000,173012,1000,12,0,1,494.442,105.010,104.398,268.599,-72.333,37.282
1782115717.625671,1.333000,173013,1000,12,0,1,649.351,235.665,105.208,242.513,-88.402,38.618
1782115717.626671,1.334000,173014,1000,12,0,1,728.355,281.021,110.618,226.059,-81.882,40.017
1782115717.627671,1.335000,173015,1000,12,0,1,677.095,201.269,114.218,227.356,-69.643,41.211
1782115717.628671,1.336000,173016,1000,12,0,1,605.393,93.872,113.195,259.279,-27.924,40.929
1782115717.629671,1.337000,173017,1000,12,0,1,578.682,51.121,110.949,301.724,16.335,39.997
1782115717.630671,1.338000,173018,1000,12,0,1,494.730,-19.326,110.706,325.240,37.666,40.009
1782115717.631671,1.339000,173019,1000,12,0,1,383.754,-119.759,111.950,348.468,47.739,40.574
1782115717.632671,1.340000,173020,1000,12,0,1,379.983,-113.170,113.076,339.364,34.676,40.702
1782115717.633671,1.341000,173021,1000,12,0,1,425.502,-43.511,113.234,310.107,-4.066,40.332
1782115717.634671,1.342000,173022,1000,12,0,1,390.144,-50.862,112.059,313.085,-10.033,39.965
1782115717.635671,1.343000,173023,1000,12,0,1,323.919,-103.661,111.356,344.192,16.017,39.759
1782115717.636671,1.344000,173024,1000,12,0,1,323.342,-93.310,111.450,373.209,38.121,40.030
1782115717.637671,1.345000,173025,1000,12,0,1,344.240,-55.029,111.556,380.944,40.675,40.441
