Unix_Time_s,IMU1_RefTime,ax_g,ay_g,az_g,gx_dps,gy_dps,gz_dps,mx_uT,my_uT,mz_uT,temp_C,qw,qx,qy,qz
1782117442.712288,1946080,-0.965332,0.038086,-0.273438,0.670732,-0.426829,0.975610,-4.850000,40.137501,-2.962500,0.0,1.000000,0.000000,0.000000,0.000000
1782117442.722288,1946090,-0.964355,0.037109,-0.271973,0.792683,-0.426829,0.975610,-4.943750,40.075001,-3.031250,0.0,1.000000,0.000000,0.000000,0.000000
1782117442.736288,1946104,-0.964355,0.036621,-0.271484,0.670732,-0.365854,0.914634,-4.943750,40.075001,-3.031250,0.0,1.000000,0.000000,0.000000,0.000000
1782117442.742288,1946110,-0.965820,0.036133,-0.271973,0.426829,-0.243902,0.914634,-4.893750,40.137501,-3.043750,0.0,1.000000,0.000000,0.000000,0.000000
1782117442.752288,1946120,-0.966309,0.036621,-0.272949,0.304878,-0.304878,0.914634,-4.893750,40.137501,-3.043750,0.0,1.000000,0.000000,0.000000,0.000000
1782117442.763288,1946131,-0.965820,0.036621,-0.273926,0.182927,-0.304878,0.975610,-4.925000,40.100002,-3.012500,0.0,1.000000,0.000000,0.000000,0.000000
1782117442.776288,1946144,-0.966797,0.036133,-0.275391,0.304878,-0.121951,0.975610,-4.925000,40.100002,-3.012500,0.0,1.000000,0.000000,0.000000,0.000000
1782117442.783288,1946151,-0.966797,0.036133,-0.275391,0.304878,-0.121951,0.975610,-4.881250,40.150002,-3.012500,0.0,1.000000,0.000000,0.000000,0.000000
1782117442.792288,1946160,-0.967285,0.038086,-0.273438,0.365854,-0.182927,0.853659,-4.881250,40.150002,-3.012500,0.0,1.000000,0.000000,0.000000,0.000000
1782117442.804288,1946172,-0.966309,0.038086,-0.269531,0.609756,-0.548781,0.853659,-5.006250,40.056252,-3.056250,0.0,1.000000,0.000000,0.000000,0.000000
1782117442.815288,1946183,-0.966309,0.038086,-0.269531,0.609756,-0.548781,0.853659,-4.943750,40.062500,-3.012500,0.0,1.000000,0.000000,0.000000,0.000000
1782117442.822288,1946190,-0.965820,0.038086,-0.271484,0.670732,-0.487805,0.853659,-4.943750,40.062500,-3.012500,0.0,1.000000,0.000000,0.000000,0.000000
1782117442.832288,1946200,-0.966309,0.038574,-0.270996,0.609756,-0.548781,0.975610,-4.943750,40.062500,-3.012500,0.0,1.000000,0.000000,0.000000,0.000000
1782117442.842288,1946210,-0.965820,0.036621,-0.271973,0.487805,-0.548781,1.036585,-4.962500,40.012501,-3.000000,0.0,1.000000,0.000000,0.000000,0.000000
1782117442.852288,1946220,-0.965820,0.037109,-0.273926,0.487805,-0.609756,1.097561,-4.962500,40.012501,-3.000000,0.0,1.000000,0.000000,0.000000,0.000000
1782117442.862288,1946230,-0.967285,0.037109,-0.275391,0.487805,-0.609756,1.097561,-4.981250,40.043751,-3.037500,0.0,1.000000,0.000000,0.000000,0.000000
1782117442.872288,1946240,-0.967773,0.037598,-0.275391,0.548781,-0.731707,1.036585,-4.981250,40.043751,-3.037500,0.0,1.000000,0.000000,0.000000,0.000000
1782117442.882288,1946250,-0.966797,0.039062,-0.275391,0.609756,-0.792683,0.975610,-4.918750,40.125000,-2.950000,0.0,1.000000,0.000000,0.000000,0.000000
1782117442.892288,1946260,-0.964355,0.040527,-0.273926,0.548781,-0.853659,0.975610,-5.012500,40.037502,-2.968750,0.0,1.000000,0.000000,0.000000,0.000000
1782117442.902288,1946270,-0.965332,0.040039,-0.272461,0.365854,-0.792683,0.853659,-5.012500,40.037502,-2.968750,0.0,1.000000,0.000000,0.000000,0.000000
1782117442.912288,1946280,-0.963379,0.041992,-0.271973,0.060976,-0.670732,0.853659,-4.887500,40.118752,-2.925000,0.0,1.000000,0.000000,0.000000,0.000000
1782117442.922288,1946290,-0.962891,0.040039,-0.272461,-0.182927,-0.548781,0.853659,-4.887500,40.118752,-2.925000,0.0,1.000000,0.000000,0.000000,0.000000
1782117442.932288,1946300,-0.965820,0.040039,-0.273926,-0.609756,-0.365854,0.853659,-4.937500,40.037502,-3.062500,0.0,1.000000,0.000000,0.000000,0.000000
1782117442.942288,1946310,-0.966797,0.039551,-0.275391,-0.853659,-0.365854,0.792683,-4.937500,40.037502,-3.062500,0.0,1.000000,0.000000,0.000000,0.000000
1782117442.952288,1946320,-0.965820,0.040039,-0.275391,-0.914634,-0.487805,0.792683,-4.812500,40.218750,-2.968750,0.0,1.000000,0.000000,0.000000,0.000000
1782117442.963288,1946331,-0.965820,0.038574,-0.271484,-0.853659,-0.548781,0.731707,-4.812500,40.218750,-2.968750,0.0,1.000000,0.000000,0.000000,0.000000
1782117442.972288,1946340,-0.966309,0.038574,-0.270508,-0.853659,-0.609756,0.731707,-4.912500,40.062500,-2.981250,0.0,1.000000,0.000000,0.000000,0.000000
1782117442.983288,1946351,-0.965332,0.038574,-0.272461,-0.914634,-0.487805,0.731707,-4.912500,40.062500,-2.981250,0.0,1.000000,0.000000,0.000000,0.000000
1782117442.992288,1946360,-0.965820,0.038086,-0.272949,-0.914634,-0.487805,0.731707,-4.918750,40.131252,-3.037500,0.0,1.000000,0.000000,0.000000,0.000000
1782117443.002288,1946370,-0.965820,0.038086,-0.275391,-0.792683,-0.548781,0.731707,-4.918750,40.131252,-3.037500,0.0,1.000000,0.000000,0.000000,0.000000
1782117443.013288,1946381,-0.966309,0.037598,-0.273926,-0.670732,-0.548781,0.792683,-4.912500,40.043751,-2.943750,0.0,1.000000,0.000000,0.000000,0.000000
1782117443.022288,1946390,-0.964844,0.038574,-0.271484,-0.548781,-0.670732,0.731707,-4.912500,40.043751,-2.943750,0.0,1.000000,0.000000,0.000000,0.000000
1782117443.033288,1946401,-0.965332,0.039551,-0.271484,-0.365854,-0.609756,0.792683,-4.862500,40.125000,-3.025000,0.0,1.000000,0.000000,0.000000,0.000000
1782117443.043288,1946411,-0.966309,0.038574,-0.270996,-0.243902,-0.487805,0.853659,-4.862500,40.125000,-3.025000,0.0,1.000000,0.000000,0.000000,0.000000
1782117443.052288,1946420,-0.967773,0.037109,-0.270996,-0.182927,-0.487805,0.914634,-4.956250,40.087502,-3.000000,0.0,1.000000,0.000000,0.000000,0.000000
1782117443.062288,1946430,-0.966309,0.036133,-0.271484,-0.182927,-0.487805,0.914634,-4.956250,40.087502,-3.000000,0.0,1.000000,0.000000,0.000000,0.000000
1782117443.073288,1946441,-0.967285,0.037598,-0.272461,-0.182927,-0.609756,0.914634,-4.931250,40.062500,-3.031250,0.0,1.000000,0.000000,0.000000,0.000000
1782117443.082288,1946450,-0.965820,0.038574,-0.273926,-0.182927,-0.609756,0.975610,-4.931250,40.062500,-3.031250,0.0,1.000000,0.000000,0.000000,0.000000
1782117443.092288,1946460,-0.965332,0.039551,-0.272949,-0.121951,-0.792683,0.975610,-4.975000,40.087502,-3.012500,0.0,1.000000,0.000000,0.000000,0.000000
1782117443.102288,1946470,-0.965332,0.037598,-0.272461,0.000000,-0.853659,0.975610,-4.975000,40.087502,-3.012500,0.0,1.000000,0.000000,0.000000,0.000000
1782117443.112288,1946480,-0.963867,0.037598,-0.272949,0.121951,-0.792683,0.914634,-4.975000,40.037502,-3.031250,0.0,1.000000,0.000000,0.000000,0.000000
1782117443.122288,1946490,-0.963867,0.036133,-0.270020,0.426829,-0.670732,0.914634,-4.975000,40.037502,-3.031250,0.0,1.000000,0.000000,0.000000,0.000000
1782117443.132288,1946500,-0.965332,0.035156,-0.271484,0.670732,-0.548781,0.975610,-5.006250,39.937500,-3.000000,0.0,1.000000,0.000000,0.000000,0.000000
1782117443.142288,1946510,-0.966797,0.033691,-0.271484,0.792683,-0.548781,0.975610,-5.006250,39.937500,-3.000000,0.0,1.000000,0.000000,0.000000,0.000000
1782117443.152288,1946520,-0.965332,0.035645,-0.272949,0.731707,-0.731707,1.036585,-4.950000,40.081249,-2.943750,0.0,1.000000,0.000000,0.000000,0.000000
1782117443.162288,1946530,-0.965332,0.038086,-0.273438,0.853659,-0.792683,1.158537,-4.950000,40.081249,-2.943750,0.0,1.000000,0.000000,0.000000,0.000000
1782117443.172288,1946540,-0.966797,0.040039,-0.272949,0.914634,-0.853659,1.158537,-4.981250,39.993752,-3.025000,0.0,1.000000,0.000000,0.000000,0.000000
1782117443.183288,1946551,-0.964844,0.041504,-0.271484,1.158537,-0.914634,1.280488,-4.625000,40.381252,-2.887500,0.0,1.000000,0.000000,0.000000,0.000000
1782117443.193288,1946561,-0.966309,0.041016,-0.270508,1.463415,-0.853659,1.280488,-4.625000,40.381252,-2.887500,0.0,1.000000,0.000000,0.000000,0.000000
1782117443.202288,1946570,-0.966797,0.038574,-0.268555,1.585366,-0.792683,1.280488,-4.956250,40.012501,-2.968750,0.0,1.000000,0.000000,0.000000,0.000000
1782117443.212288,1946580,-0.966309,0.037598,-0.269043,1.585366,-0.792683,1.280488,-4.956250,40.012501,-2.968750,0.0,1.000000,0.000000,0.000000,0.000000
1782117443.222288,1946590,-0.965332,0.037109,-0.269043,1.585366,-0.731707,1.280488,-4.650000,40.293751,-2.906250,0.0,1.000000,0.000000,0.000000,0.000000
1782117443.232288,1946600,-0.967773,0.035645,-0.268555,1.646341,-0.670732,1.341463,-4.650000,40.293751,-2.906250,0.0,1.000000,0.000000,0.000000,0.000000
1782117443.242288,1946610,-0.969238,0.035645,-0.269043,1.585366,-0.792683,1.341463,-4.931250,40.037502,-2.875000,0.0,1.000000,0.000000,0.000000,0.000000
1782117443.252288,1946620,-0.968262,0.037109,-0.268066,1.524390,-0.975610,1.280488,-4.931250,40.037502,-2.875000,0.0,1.000000,0.000000,0.000000,0.000000
1782117443.262288,1946630,-0.968262,0.038086,-0.268066,1.280488,-1.036585,1.219512,-4.881250,40.125000,-2.825000,0.0,1.000000,0.000000,0.000000,0.000000
1782117443.272288,1946640,-0.969727,0.039551,-0.266602,1.158537,-1.036585,1.219512,-4.881250,40.125000,-2.825000,0.0,1.000000,0.000000,0.000000,0.000000
1782117443.282288,1946650,-0.968750,0.041504,-0.265625,1.036585,-1.097561,1.219512,-4.806250,40.118752,-2.831250,0.0,1.000000,0.000000,0.000000,0.000000
1782117443.292288,1946660,-0.965332,0.041992,-0.264160,0.975610,-1.158537,1.097561,-4.806250,40.118752,-2.831250,0.0,1.000000,0.000000,0.000000,0.000000
1782117443.302288,1946670,-0.965820,0.040039,-0.266113,0.792683,-0.975610,1.097561,-4.875000,40.081249,-2.850000,0.0,1.000000,0.000000,0.000000,0.000000
1782117443.312288,1946680,-0.966309,0.040527,-0.267578,0.670732,-0.914634,1.158537,-4.875000,40.081249,-2.850000,0.0,1.000000,0.000000,0.000000,0.000000
1782117443.322288,1946690,-0.965820,0.040527,-0.269531,0.670732,-0.853659,1.097561,-4.887500,40.068752,-2.893750,0.0,1.000000,0.000000,0.000000,0.000000
1782117443.332288,1946700,-0.967285,0.038574,-0.267090,0.731707,-0.792683,1.097561,-4.887500,40.068752,-2.893750,0.0,1.000000,0.000000,0.000000,0.000000
1782117443.342288,1946710,-0.968262,0.039062,-0.268066,0.853659,-0.792683,1.158537,-4.937500,40.025002,-2.825000,0.0,1.000000,0.000000,0.000000,0.000000
1782117443.352288,1946720,-0.967285,0.037109,-0.266602,0.914634,-0.792683,1.097561,-4.937500,40.025002,-2.825000,0.0,1.000000,0.000000,0.000000,0.000000
1782117443.362288,1946730,-0.967285,0.037598,-0.265625,1.036585,-0.792683,1.158537,-4.925000,40.100002,-2.812500,0.0,1.000000,0.000000,0.000000,0.000000
1782117443.373288,1946741,-0.965820,0.036621,-0.266602,1.158537,-0.792683,1.219512,-4.925000,40.100002,-2.812500,0.0,1.000000,0.000000,0.000000,0.000000
1782117443.382288,1946750,-0.965820,0.036133,-0.266113,1.280488,-0.609756,1.280488,-4.793750,40.106251,-2.800000,0.0,1.000000,0.000000,0.000000,0.000000
1782117443.392288,1946760,-0.966309,0.034668,-0.267090,1.463415,-0.548781,1.280488,-4.793750,40.106251,-2.800000,0.0,1.000000,0.000000,0.000000,0.000000
1782117443.402288,1946770,-0.968262,0.036133,-0.264648,1.524390,-0.609756,1.280488,-4.825000,40.125000,-2.837500,0.0,1.000000,0.000000,0.000000,0.000000
1782117443.412288,1946780,-0.967773,0.037109,-0.264160,1.768293,-0.609756,1.280488,-4.825000,40.125000,-2.837500,0.0,1.000000,0.000000,0.000000,0.000000
1782117443.423288,1946791,-0.967285,0.038574,-0.266113,1.890244,-0.548781,1.280488,-4.931250,39.987499,-2.812500,0.0,1.000000,0.000000,0.000000,0.000000
1782117443.432288,1946800,-0.967773,0.040039,-0.266602,2.073171,-0.487805,1.280488,-4.931250,39.987499,-2.812500,0.0,1.000000,0.000000,0.000000,0.000000
1782117443.442288,1946810,-0.968262,0.041016,-0.267090,1.890244,-0.487805,1.219512,-4.887500,40.068752,-2.737500,0.0,1.000000,0.000000,0.000000,0.000000
1782117443.452288,1946820,-0.967285,0.042480,-0.266113,1.768293,-0.487805,1.158537,-4.887500,40.068752,-2.737500,0.0,1.000000,0.000000,0.000000,0.000000
1782117443.462288,1946830,-0.966309,0.042480,-0.263672,1.707317,-0.426829,1.219512,-4.887500,39.975002,-2.762500,0.0,1.000000,0.000000,0.000000,0.000000
1782117443.472288,1946840,-0.966797,0.042969,-0.262207,1.585366,-0.243902,1.280488,-4.793750,40.037502,-2.743750,0.0,1.000000,0.000000,0.000000,0.000000
1782117443.482288,1946850,-0.966309,0.042480,-0.261719,1.402439,-0.121951,1.280488,-4.793750,40.037502,-2.743750,0.0,1.000000,0.000000,0.000000,0.000000
1782117443.492288,1946860,-0.968750,0.040039,-0.264160,1.158537,-0.060976,1.280488,-4.900000,39.993752,-2.787500,0.0,1.000000,0.000000,0.000000,0.000000
1782117443.502288,1946870,-0.968750,0.041016,-0.265625,1.219512,-0.121951,1.219512,-4.900000,39.993752,-2.787500,0.0,1.000000,0.000000,0.000000,0.000000
1782117443.513288,1946881,-0.968750,0.039551,-0.265137,1.341463,-0.121951,1.158537,-4.518750,40.362499,-2.681250,0.0,1.000000,0.000000,0.000000,0.000000
1782117443.523288,1946891,-0.967773,0.039062,-0.264160,1.707317,-0.121951,1.097561,-4.518750,40.362499,-2.681250,0.0,1.000000,0.000000,0.000000,0.000000
1782117443.533288,1946901,-0.968262,0.039062,-0.263672,1.951220,0.000000,1.097561,-4.587500,40.331249,-2.687500,0.0,1.000000,0.000000,0.000000,0.000000
1782117443.543288,1946911,-0.967285,0.040527,-0.263184,2.012195,-0.121951,1.036585,-4.587500,40.331249,-2.687500,0.0,1.000000,0.000000,0.000000,0.000000
1782117443.553288,1946921,-0.967285,0.040527,-0.263184,2.012195,-0.121951,1.036585,-4.743750,40.193752,-2.706250,0.0,1.000000,0.000000,0.000000,0.000000
1782117443.562288,1946930,-0.966797,0.043457,-0.263672,1.890244,-0.243902,0.914634,-4.743750,40.193752,-2.706250,0.0,1.000000,0.000000,0.000000,0.000000
1782117443.572288,1946940,-0.965820,0.046387,-0.260742,1.829268,-0.060976,0.914634,-4.800000,40.087502,-2.731250,0.0,1.000000,0.000000,0.000000,0.000000
1782117443.582288,1946950,-0.967285,0.045410,-0.260742,1.707317,0.121951,0.975610,-4.800000,40.087502,-2.731250,0.0,1.000000,0.000000,0.000000,0.000000
1782117443.592288,1946960,-0.967773,0.044434,-0.260254,1.463415,0.243902,1.036585,-4.731250,40.150002,-2.743750,0.0,1.000000,0.000000,0.000000,0.000000
1782117443.602288,1946970,-0.968262,0.043457,-0.261719,1.280488,0.304878,1.097561,-4.731250,40.150002,-2.743750,0.0,1.000000,0.000000,0.000000,0.000000
1782117443.612288,1946980,-0.969727,0.043945,-0.264160,1.158537,0.365854,1.036585,-4.775000,40.106251,-2.787500,0.0,1.000000,0.000000,0.000000,0.000000
1782117443.622288,1946990,-0.970703,0.043457,-0.263184,1.097561,0.182927,0.914634,-4.775000,40.106251,-2.787500,0.0,1.000000,0.000000,0.000000,0.000000
1782117443.632288,1947000,-0.968750,0.043945,-0.262695,0.975610,0.060976,0.792683,-4.762500,40.106251,-2.737500,0.0,1.000000,0.000000,0.000000,0.000000
1782117443.642288,1947010,-0.968262,0.044922,-0.260742,0.975610,0.060976,0.731707,-4.762500,40.106251,-2.737500,0.0,1.000000,0.000000,0.000000,0.000000
1782117443.652288,1947020,-0.968262,0.045410,-0.261230,0.975610,0.121951,0.792683,-4.781250,40.118752,-2.756250,0.0,1.000000,0.000000,0.000000,0.000000
1782117443.662288,1947030,-0.969238,0.045898,-0.262695,0.914634,0.121951,0.792683,-4.781250,40.118752,-2.756250,0.0,1.000000,0.000000,0.000000,0.000000
1782117443.672288,1947040,-0.968262,0.042969,-0.263672,0.792683,0.121951,0.792683,-4.812500,40.131252,-2.787500,0.0,1.000000,0.000000,0.000000,0.000000
1782117443.682288,1947050,-0.968262,0.042969,-0.264648,0.548781,0.121951,0.731707,-4.812500,40.131252,-2.787500,0.0,1.000000,0.000000,0.000000,0.000000
1782117443.692288,1947060,-0.967285,0.043457,-0.266602,0.426829,0.121951,0.731707,-4.831250,40.037502,-2.718750,0.0,1.000000,0.000000,0.000000,0.000000
1782117443.702288,1947070,-0.966797,0.042969,-0.265625,0.548781,0.121951,0.792683,-4.831250,40.037502,-2.718750,0.0,1.000000,0.000000,0.000000,0.000000
1782117443.712288,1947080,-0.967285,0.042480,-0.268066,0.670732,0.060976,0.853659,-4.775000,40.118752,-2.706250,0.0,1.000000,0.000000,0.000000,0.000000
1782117443.722288,1947090,-0.967285,0.041992,-0.267578,0.670732,0.060976,0.853659,-4.775000,40.118752,-2.706250,0.0,1.000000,0.000000,0.000000,0.000000
1782117443.732288,1947100,-0.969238,0.042480,-0.269531,0.731707,0.060976,0.914634,-4.643750,40.275002,-2.681250,0.0,1.000000,0.000000,0.000000,0.000000
1782117443.742288,1947110,-0.970703,0.041504,-0.270996,0.914634,-0.121951,0.853659,-4.643750,40.275002,-2.681250,0.0,1.000000,0.000000,0.000000,0.000000
1782117443.752288,1947120,-0.968750,0.041504,-0.270020,1.036585,-0.304878,0.853659,-4.775000,40.106251,-2.756250,0.0,1.000000,0.000000,0.000000,0.000000
1782117443.763288,1947131,-0.969238,0.041504,-0.266602,1.219512,-0.548781,0.853659,-4.762500,40.125000,-2.731250,0.0,1.000000,0.000000,0.000000,0.000000
1782117443.772288,1947140,-0.966309,0.041992,-0.268066,1.280488,-0.670732,0.792683,-4.762500,40.125000,-2.731250,0.0,1.000000,0.000000,0.000000,0.000000
1782117443.783288,1947151,-0.963379,0.041992,-0.268066,1.341463,-0.426829,0.792683,-4.800000,40.100002,-2.700000,0.0,1.000000,0.000000,0.000000,0.000000
1782117443.793288,1947161,-0.962402,0.039062,-0.269531,1.219512,-0.121951,0.914634,-4.800000,40.100002,-2.700000,0.0,1.000000,0.000000,0.000000,0.000000
1782117443.805288,1947173,-0.964355,0.038574,-0.270020,0.853659,-0.060976,0.731707,-4.768750,40.093750,-2.675000,0.0,1.000000,0.000000,0.000000,0.000000
1782117443.812288,1947180,-0.963379,0.039062,-0.275391,0.609756,0.000000,0.670732,-4.768750,40.093750,-2.675000,0.0,1.000000,0.000000,0.000000,0.000000
1782117443.822288,1947190,-0.963867,0.041016,-0.274902,0.609756,0.060976,0.670732,-4.687500,40.206249,-2.718750,0.0,1.000000,0.000000,0.000000,0.000000
1782117443.832288,1947200,-0.967285,0.041992,-0.273438,0.670732,0.182927,0.731707,-4.687500,40.206249,-2.718750,0.0,1.000000,0.000000,0.000000,0.000000
1782117443.842288,1947210,-0.970703,0.042969,-0.270996,0.609756,-0.060976,0.792683,-4.756250,40.093750,-2.737500,0.0,1.000000,0.000000,0.000000,0.000000
1782117443.852288,1947220,-0.969238,0.043945,-0.269043,0.670732,-0.365854,0.853659,-4.756250,40.093750,-2.737500,0.0,1.000000,0.000000,0.000000,0.000000
1782117443.864288,1947232,-0.969238,0.041992,-0.267090,0.792683,-0.426829,0.914634,-4.768750,40.118752,-2.756250,0.0,1.000000,0.000000,0.000000,0.000000
1782117443.873288,1947241,-0.970215,0.040527,-0.268066,0.792683,-0.548781,0.975610,-4.768750,40.118752,-2.756250,0.0,1.000000,0.000000,0.000000,0.000000
1782117443.882288,1947250,-0.968262,0.037598,-0.266113,1.097561,-0.792683,1.036585,-4.493750,40.393749,-2.656250,0.0,1.000000,0.000000,0.000000,0.000000
1782117443.895288,1947263,-0.963379,0.036621,-0.267578,1.219512,-0.609756,0.914634,-4.493750,40.393749,-2.656250,0.0,1.000000,0.000000,0.000000,0.000000
1782117443.903288,1947271,-0.965332,0.036621,-0.270508,1.219512,-0.243902,0.914634,-4.737500,40.087502,-2.743750,0.0,1.000000,0.000000,0.000000,0.000000
1782117443.912288,1947280,-0.967773,0.035645,-0.272461,1.280488,0.000000,0.914634,-4.737500,40.087502,-2.743750,0.0,1.000000,0.000000,0.000000,0.000000
1782117443.922288,1947290,-0.967773,0.035645,-0.272461,1.097561,0.060976,0.731707,-4.775000,40.087502,-2.731250,0.0,1.000000,0.000000,0.000000,0.000000
1782117443.932288,1947300,-0.969238,0.037109,-0.271973,1.158537,-0.060976,0.548781,-4.775000,40.087502,-2.731250,0.0,1.000000,0.000000,0.000000,0.000000
1782117443.942288,1947310,-0.969727,0.039551,-0.270020,1.219512,-0.304878,0.548781,-4.806250,40.062500,-2.668750,0.0,1.000000,0.000000,0.000000,0.000000
1782117443.952288,1947320,-0.968262,0.039551,-0.265625,1.402439,-0.609756,0.731707,-4.806250,40.062500,-2.668750,0.0,1.000000,0.000000,0.000000,0.000000
1782117443.962288,1947330,-0.963379,0.038574,-0.263672,1.280488,-0.731707,0.792683,-4.843750,40.018749,-2.693750,0.0,1.000000,0.000000,0.000000,0.000000
1782117443.973288,1947341,-0.962402,0.036621,-0.266602,0.670732,-0.548781,0.731707,-4.843750,40.018749,-2.693750,0.0,1.000000,0.000000,0.000000,0.000000
1782117443.982288,1947350,-0.963867,0.036621,-0.265137,0.304878,-0.487805,0.731707,-4.768750,40.062500,-2.712500,0.0,1.000000,0.000000,0.000000,0.000000
1782117443.993288,1947361,-0.964355,0.037109,-0.268066,0.182927,-0.304878,0.792683,-4.768750,40.062500,-2.712500,0.0,1.000000,0.000000,0.000000,0.000000
1782117444.003288,1947371,-0.964844,0.037598,-0.270996,0.243902,-0.243902,0.792683,-4.431250,40.431252,-2.562500,0.0,1.000000,0.000000,0.000000,0.000000
1782117444.012288,1947380,-0.965820,0.035645,-0.273438,0.060976,-0.121951,0.731707,-4.431250,40.431252,-2.562500,0.0,1.000000,0.000000,0.000000,0.000000
1782117444.022288,1947390,-0.965820,0.038086,-0.273438,-0.182927,-0.243902,0.609756,-4.568750,40.293751,-2.656250,0.0,1.000000,0.000000,0.000000,0.000000
1782117444.033288,1947401,-0.963379,0.038574,-0.267578,-0.243902,-0.182927,0.426829,-4.568750,40.293751,-2.656250,0.0,1.000000,0.000000,0.000000,0.000000
1782117444.042288,1947410,-0.964844,0.037598,-0.265625,-0.243902,0.060976,0.487805,-4.793750,40.018749,-2.737500,0.0,1.000000,0.000000,0.000000,0.000000
1782117444.052288,1947420,-0.966309,0.036621,-0.265625,-0.304878,0.121951,0.548781,-4.793750,40.018749,-2.737500,0.0,1.000000,0.000000,0.000000,0.000000
1782117444.063288,1947431,-0.966797,0.034180,-0.269531,-0.548781,0.060976,0.731707,-4.800000,40.018749,-2.675000,0.0,1.000000,0.000000,0.000000,0.000000
1782117444.072288,1947440,-0.968262,0.035156,-0.269531,-0.609756,0.000000,0.670732,-4.725000,40.112499,-2.650000,0.0,1.000000,0.000000,0.000000,0.000000
1782117444.082288,1947450,-0.967285,0.034668,-0.272949,-0.426829,-0.121951,0.853659,-4.725000,40.112499,-2.650000,0.0,1.000000,0.000000,0.000000,0.000000
1782117444.092288,1947460,-0.966309,0.034180,-0.274414,-0.182927,-0.243902,0.975610,-4.812500,40.012501,-2.793750,0.0,1.000000,0.000000,0.000000,0.000000
1782117444.102288,1947470,-0.967773,0.035156,-0.274414,0.243902,-0.365854,0.975610,-4.812500,40.012501,-2.793750,0.0,1.000000,0.000000,0.000000,0.000000
1782117444.112288,1947480,-0.967285,0.033691,-0.273926,0.426829,-0.426829,0.975610,-4.643750,40.174999,-2.662500,0.0,1.000000,0.000000,0.000000,0.000000
1782117444.122288,1947490,-0.966797,0.033203,-0.270020,0.792683,-0.426829,0.975610,-4.643750,40.174999,-2.662500,0.0,1.000000,0.000000,0.000000,0.000000
1782117444.132288,1947500,-0.966797,0.032715,-0.268555,0.975610,-0.426829,0.975610,-4.743750,40.081249,-2.662500,0.0,1.000000,0.000000,0.000000,0.000000
1782117444.143288,1947511,-0.966309,0.031250,-0.268555,1.097561,-0.182927,0.975610,-4.743750,40.081249,-2.662500,0.0,1.000000,0.000000,0.000000,0.000000
1782117444.152288,1947520,-0.968262,0.031250,-0.269531,0.914634,-0.060976,1.036585,-4.743750,40.118752,-2.656250,0.0,1.000000,0.000000,0.000000,0.000000
1782117444.162288,1947530,-0.972168,0.032715,-0.273926,0.853659,-0.060976,1.219512,-4.743750,40.118752,-2.656250,0.0,1.000000,0.000000,0.000000,0.000000
1782117444.172288,1947540,-0.972656,0.032715,-0.278809,0.975610,-0.365854,1.402439,-4.750000,40.087502,-2.650000,0.0,1.000000,0.000000,0.000000,0.000000
1782117444.182288,1947550,-0.965820,0.032715,-0.289551,0.670732,-0.182927,1.280488,-4.750000,40.087502,-2.650000,0.0,1.000000,0.000000,0.000000,0.000000
1782117444.192288,1947560,-0.968750,0.036133,-0.293945,0.609756,0.000000,1.524390,-4.687500,40.118752,-2.687500,0.0,1.000000,0.000000,0.000000,0.000000
1782117444.202288,1947570,-0.975098,0.034180,-0.291992,1.341463,-0.365854,2.073171,-4.687500,40.118752,-2.687500,0.0,1.000000,0.000000,0.000000,0.000000
1782117444.212288,1947580,-0.977539,0.031250,-0.294434,1.829268,-0.975610,2.317073,-4.700000,40.125000,-2.712500,0.0,1.000000,0.000000,0.000000,0.000000
1782117444.222288,1947590,-0.972656,0.029297,-0.297363,2.317073,-1.646341,2.621951,-4.700000,40.125000,-2.712500,0.0,1.000000,0.000000,0.000000,0.000000
1782117444.232288,1947600,-0.965820,0.025879,-0.295410,2.256098,-1.890244,2.560976,-4.193750,40.600002,-2.531250,0.0,1.000000,0.000000,0.000000,0.000000
1782117444.242288,1947610,-0.957520,0.028320,-0.298340,1.585366,-2.134146,2.317073,-4.193750,40.600002,-2.531250,0.0,1.000000,0.000000,0.000000,0.000000
1782117444.252288,1947620,-0.950684,0.029785,-0.300781,1.402439,-2.317073,2.256098,-4.612500,40.193752,-2.581250,0.0,1.000000,0.000000,0.000000,0.000000
1782117444.262288,1947630,-0.946777,0.031250,-0.305176,1.158537,-2.195122,2.195122,-4.612500,40.193752,-2.581250,0.0,1.000000,0.000000,0.000000,0.000000
1782117444.273288,1947641,-0.952637,0.032227,-0.309082,0.853659,-2.012195,2.317073,-4.687500,40.062500,-2.512500,0.0,1.000000,0.000000,0.000000,0.000000
1782117444.282288,1947650,-0.958984,0.029785,-0.307617,0.548781,-2.378049,2.500000,-4.687500,40.062500,-2.512500,0.0,1.000000,0.000000,0.000000,0.000000
1782117444.292288,1947660,-0.961426,0.026855,-0.306641,0.243902,-2.865854,2.378049,-4.625000,40.106251,-2.562500,0.0,1.000000,0.000000,0.000000,0.000000
1782117444.303288,1947671,-0.961914,0.024414,-0.302734,-0.243902,-3.170732,2.134146,-4.625000,40.106251,-2.562500,0.0,1.000000,0.000000,0.000000,0.000000
1782117444.312288,1947680,-0.959961,0.024414,-0.297363,-0.792683,-3.475610,2.073171,-4.587500,40.106251,-2.518750,0.0,1.000000,0.000000,0.000000,0.000000
1782117444.322288,1947690,-0.959961,0.023438,-0.292480,-1.158537,-3.658537,2.256098,-4.587500,40.106251,-2.518750,0.0,1.000000,0.000000,0.000000,0.000000
1782117444.332288,1947700,-0.961914,0.025391,-0.289062,-1.158537,-3.780488,2.621951,-4.662500,39.993752,-2.562500,0.0,1.000000,0.000000,0.000000,0.000000
1782117444.342288,1947710,-0.961914,0.022949,-0.288574,-0.914634,-4.085366,3.048780,-4.662500,39.993752,-2.562500,0.0,1.000000,0.000000,0.000000,0.000000
1782117444.352288,1947720,-0.961426,0.021973,-0.288574,-0.731707,-4.573171,3.414634,-4.575000,40.068752,-2.468750,0.0,1.000000,0.000000,0.000000,0.000000
1782117444.362288,1947730,-0.961426,0.021973,-0.288574,-0.731707,-4.573171,3.414634,-4.618750,40.006252,-2.393750,0.0,1.000000,0.000000,0.000000,0.000000
1782117444.372288,1947740,-0.960449,0.019043,-0.290039,-0.365854,-5.182927,3.841464,-4.618750,40.006252,-2.393750,0.0,1.000000,0.000000,0.000000,0.000000
1782117444.383288,1947751,-0.959961,0.012695,-0.295898,1.280488,-6.158537,4.451220,-4.462500,40.118752,-2.262500,0.0,1.000000,0.000000,0.000000,0.000000
1782117444.392288,1947760,-0.959961,0.012695,-0.295898,1.280488,-6.158537,4.451220,-4.462500,40.118752,-2.262500,0.0,1.000000,0.000000,0.000000,0.000000
1782117444.403288,1947771,-0.966797,0.010254,-0.297363,2.560976,-6.890244,4.634146,-4.225000,40.206249,-2.231250,0.0,1.000000,0.000000,0.000000,0.000000
1782117444.413288,1947781,-0.968750,0.008789,-0.297852,4.085366,-8.048780,4.573171,-4.225000,40.206249,-2.231250,0.0,1.000000,0.000000,0.000000,0.000000
1782117444.423288,1947791,-0.970703,0.009277,-0.300293,5.365854,-9.146341,4.390244,-4.368750,39.968750,-2.156250,0.0,1.000000,0.000000,0.000000,0.000000
1782117444.432288,1947800,-0.967285,0.009277,-0.303711,6.219512,-10.182927,4.268293,-4.368750,39.968750,-2.156250,0.0,1.000000,0.000000,0.000000,0.000000
1782117444.442288,1947810,-0.968750,0.012207,-0.308594,6.646342,-11.158537,3.902439,-4.193750,40.043751,-1.950000,0.0,1.000000,0.000000,0.000000,0.000000
1782117444.452288,1947820,-0.968750,0.022461,-0.313477,6.829268,-12.378049,3.780488,-4.193750,40.043751,-1.950000,0.0,1.000000,0.000000,0.000000,0.000000
1782117444.463288,1947831,-0.964355,0.037598,-0.312500,7.195122,-13.902439,3.719512,-4.112500,39.993752,-1.743750,0.0,1.000000,0.000000,0.000000,0.000000
1782117444.472288,1947840,-0.957520,0.049805,-0.313965,8.048780,-15.121951,4.085366,-4.112500,39.993752,-1.743750,0.0,1.000000,0.000000,0.000000,0.000000
1782117444.482288,1947850,-0.944824,0.055664,-0.325195,8.048780,-16.097561,4.817073,-4.043750,39.956249,-1.493750,0.0,1.000000,0.000000,0.000000,0.000000
1782117444.493288,1947861,-0.944824,0.059570,-0.328613,7.500000,-15.609756,5.731708,-4.043750,39.956249,-1.493750,0.0,1.000000,0.000000,0.000000,0.000000
1782117444.502288,1947870,-0.949219,0.057617,-0.335938,5.000000,-18.292683,5.365854,-3.975000,39.943752,-1.368750,0.0,1.000000,0.000000,0.000000,0.000000
1782117444.512288,1947880,-0.936035,0.056641,-0.342285,4.024390,-19.451220,4.878049,-3.975000,39.943752,-1.368750,0.0,1.000000,0.000000,0.000000,0.000000
1782117444.522288,1947890,-0.928711,0.053711,-0.336914,4.329268,-20.243902,4.268293,-3.950000,39.812500,-1.050000,0.0,1.000000,0.000000,0.000000,0.000000
1782117444.532288,1947900,-0.934570,0.054199,-0.323242,5.000000,-21.158537,3.902439,-3.950000,39.812500,-1.050000,0.0,1.000000,0.000000,0.000000,0.000000
1782117444.543288,1947911,-0.946777,0.055176,-0.312988,5.365854,-22.621952,3.536585,-3.906250,39.706249,-0.887500,0.0,1.000000,0.000000,0.000000,0.000000
1782117444.552288,1947920,-0.969238,0.058594,-0.296387,5.609756,-24.878050,3.292683,-3.906250,39.706249,-0.887500,0.0,1.000000,0.000000,0.000000,0.000000
1782117444.562288,1947930,-0.979492,0.073242,-0.278320,5.670732,-27.378050,2.865854,-3.893750,39.612499,-0.568750,0.0,1.000000,0.000000,0.000000,0.000000
1782117444.572288,1947940,-1.000977,0.088379,-0.247559,6.097561,-28.109756,3.048780,-3.893750,39.612499,-0.568750,0.0,1.000000,0.000000,0.000000,0.000000
1782117444.583288,1947951,-1.023926,0.087402,-0.203613,5.365854,-30.121952,1.951220,-3.968750,39.406250,-0.312500,0.0,1.000000,0.000000,0.000000,0.000000
1782117444.592288,1947960,-1.039551,0.088379,-0.163574,4.329268,-32.012196,0.487805,-3.968750,39.406250,-0.312500,0.0,1.000000,0.000000,0.000000,0.000000
1782117444.602288,1947970,-1.044922,0.084961,-0.151855,4.878049,-31.524391,0.487805,-3.850000,39.406250,-0.012500,0.0,1.000000,0.000000,0.000000,0.000000
1782117444.613288,1947981,-1.064453,0.069824,-0.136230,8.475610,-29.085367,1.280488,-3.850000,39.406250,-0.012500,0.0,1.000000,0.000000,0.000000,0.000000
1782117444.623288,1947991,-1.079102,0.037598,-0.108887,9.573171,-33.231709,0.121951,-3.956250,39.137501,0.243750,0.0,1.000000,0.000000,0.000000,0.000000
1782117444.633288,1948001,-1.060059,0.012695,-0.099121,8.414635,-36.097561,-2.560976,-3.956250,39.137501,0.243750,0.0,1.000000,0.000000,0.000000,0.000000
1782117444.642288,1948010,-1.044922,0.001465,-0.140137,6.036585,-34.512196,-4.573171,-3.950000,38.943752,0.512500,0.0,1.000000,0.000000,0.000000,0.000000
1782117444.653288,1948021,-1.013672,-0.002441,-0.194824,4.085366,-29.634148,-6.036585,-4.568750,38.256252,0.675000,0.0,1.000000,0.000000,0.000000,0.000000
1782117444.664288,1948032,-0.975098,0.001953,-0.245117,2.439024,-23.231709,-6.768293,-4.568750,38.256252,0.675000,0.0,1.000000,0.000000,0.000000,0.000000
1782117444.672288,1948040,-0.934570,0.021484,-0.279297,2.134146,-16.890244,-7.560976,-4.193750,38.756252,1.006250,0.0,1.000000,0.000000,0.000000,0.000000
1782117444.682288,1948050,-0.890625,0.041016,-0.286133,2.256098,-11.280488,-8.353659,-4.193750,38.756252,1.006250,0.0,1.000000,0.000000,0.000000,0.000000
1782117444.692288,1948060,-0.856445,0.061523,-0.280273,1.890244,-3.841464,-9.329268,-4.775000,38.387501,0.962500,0.0,1.000000,0.000000,0.000000,0.000000
1782117444.703288,1948071,-0.849121,0.075195,-0.259766,2.560976,3.841464,-8.353659,-4.775000,38.387501,0.962500,0.0,1.000000,0.000000,0.000000,0.000000
1782117444.712288,1948080,-0.887695,0.068359,-0.228027,5.731708,10.243902,-5.365854,-4.862500,38.625000,0.818750,0.0,1.000000,0.000000,0.000000,0.000000
1782117444.722288,1948090,-0.940430,0.039551,-0.187988,10.731708,12.134147,-2.195122,-4.862500,38.625000,0.818750,0.0,1.000000,0.000000,0.000000,0.000000
1782117444.732288,1948100,-0.981445,0.001465,-0.138672,17.012196,10.731708,0.121951,-4.593750,39.106251,0.850000,0.0,1.000000,0.000000,0.000000,0.000000
1782117444.742288,1948110,-1.012695,-0.037109,-0.107422,24.390244,9.268292,0.853659,-4.593750,39.106251,0.850000,0.0,1.000000,0.000000,0.000000,0.000000
1782117444.752288,1948120,-1.032715,-0.052734,-0.089355,32.256100,7.560976,0.609756,-4.387500,39.412502,0.800000,0.0,1.000000,0.000000,0.000000,0.000000
1782117444.762288,1948130,-1.038086,-0.042969,-0.087402,39.390244,4.573171,0.853659,-4.387500,39.412502,0.800000,0.0,1.000000,0.000000,0.000000,0.000000
1782117444.772288,1948140,-1.026855,-0.010742,-0.089844,46.158539,1.585366,2.012195,-4.462500,39.350002,0.843750,0.0,1.000000,0.000000,0.000000,0.000000
1782117444.785288,1948153,-1.008301,0.030762,-0.093262,50.670734,-0.853659,3.475610,-4.462500,39.350002,0.843750,0.0,1.000000,0.000000,0.000000,0.000000
1782117444.793288,1948161,-0.990723,0.070312,-0.084473,52.317074,-2.378049,4.024390,-3.987500,39.612499,1.118750,0.0,1.000000,0.000000,0.000000,0.000000
1782117444.802288,1948170,-0.983398,0.103516,-0.067383,50.853661,-2.012195,3.353659,-3.987500,39.612499,1.118750,0.0,1.000000,0.000000,0.000000,0.000000
1782117444.813288,1948181,-0.988281,0.130371,-0.046387,46.036587,-0.365854,1.829268,-4.043750,39.256252,1.281250,0.0,1.000000,0.000000,0.000000,0.000000
1782117444.822288,1948190,-0.989746,0.153320,-0.034180,38.841465,0.975610,0.243902,-4.043750,39.256252,1.281250,0.0,1.000000,0.000000,0.000000,0.000000
1782117444.832288,1948200,-0.993164,0.164551,-0.029785,30.670732,2.621951,-0.914634,-3.918750,39.331249,1.406250,0.0,1.000000,0.000000,0.000000,0.000000
1782117444.842288,1948210,-0.997559,0.166504,-0.030762,22.804878,4.390244,-1.890244,-3.918750,39.331249,1.406250,0.0,1.000000,0.000000,0.000000,0.000000
1782117444.854288,1948222,-0.987305,0.160645,-0.031738,15.548780,5.243903,-2.378049,-4.012500,39.156250,1.325000,0.0,1.000000,0.000000,0.000000,0.000000
1782117444.865288,1948233,-0.968262,0.150879,-0.032715,8.902439,6.646342,-2.621951,-4.012500,39.156250,1.325000,0.0,1.000000,0.000000,0.000000,0.000000
1782117444.872288,1948240,-0.948730,0.144531,-0.036621,2.560976,9.146341,-2.682927,-3.862500,39.412502,1.231250,0.0,1.000000,0.000000,0.000000,0.000000
1782117444.883288,1948251,-0.949219,0.136719,-0.039062,-2.560976,12.317074,-2.682927,-3.862500,39.412502,1.231250,0.0,1.000000,0.000000,0.000000,0.000000
1782117444.892288,1948260,-0.970215,0.123535,-0.041992,-6.036585,15.060976,-2.195122,-3.831250,39.543751,1.125000,0.0,1.000000,0.000000,0.000000,0.000000
1782117444.903288,1948271,-0.998047,0.105957,-0.041992,-7.926829,15.853659,-2.012195,-3.831250,39.543751,1.125000,0.0,1.000000,0.000000,0.000000,0.000000
1782117444.912288,1948280,-1.008789,0.086914,-0.038574,-8.048780,14.939025,-2.500000,-4.175000,39.256252,0.825000,0.0,1.000000,0.000000,0.000000,0.000000
1782117444.922288,1948290,-1.006348,0.071289,-0.026855,-6.951220,14.390244,-3.353659,-4.175000,39.256252,0.825000,0.0,1.000000,0.000000,0.000000,0.000000
1782117444.932288,1948300,-1.012207,0.064453,-0.018555,-5.609756,14.390244,-3.719512,-4.000000,39.487499,0.587500,0.0,1.000000,0.000000,0.000000,0.000000
1782117444.943288,1948311,-1.022949,0.055664,-0.018066,-3.597561,13.719513,-2.926829,-4.000000,39.487499,0.587500,0.0,1.000000,0.000000,0.000000,0.000000
1782117444.952288,1948320,-1.031250,0.043945,-0.014648,-0.609756,11.524390,-1.158537,-4.181250,39.237499,0.350000,0.0,1.000000,0.000000,0.000000,0.000000
1782117444.963288,1948331,-1.029297,0.036621,-0.006836,3.048780,8.597561,0.609756,-4.150000,39.243752,0.218750,0.0,1.000000,0.000000,0.000000,0.000000
1782117444.973288,1948341,-1.018555,0.043457,0.001465,6.097561,5.853659,1.646341,-4.150000,39.243752,0.218750,0.0,1.000000,0.000000,0.000000,0.000000
1782117444.984288,1948352,-1.006348,0.064453,0.015137,6.585366,4.695122,2.378049,-4.081250,39.268749,0.250000,0.0,1.000000,0.000000,0.000000,0.000000
1782117444.992288,1948360,-1.031250,0.088379,0.005859,4.146341,6.341464,4.268293,-4.081250,39.268749,0.250000,0.0,1.000000,0.000000,0.000000,0.000000
1782117445.002288,1948370,-1.083496,0.101074,-0.018066,2.865854,6.402439,7.378049,-3.737500,39.525002,0.293750,0.0,1.000000,0.000000,0.000000,0.000000
1782117445.012288,1948380,-1.114746,0.097656,-0.024902,3.597561,2.743902,9.573171,-3.737500,39.525002,0.293750,0.0,1.000000,0.000000,0.000000,0.000000
1782117445.025288,1948393,-1.096191,0.092773,-0.028320,4.573171,-2.073171,9.146341,-3.725000,39.475002,0.337500,0.0,1.000000,0.000000,0.000000,0.000000
1782117445.032288,1948400,-1.039551,0.105957,-0.041992,2.195122,-4.207317,6.341464,-3.725000,39.475002,0.337500,0.0,1.000000,0.000000,0.000000,0.000000
1782117445.042288,1948410,-0.999023,0.132812,-0.070801,-4.024390,-1.890244,3.231707,-3.600000,39.562500,0.450000,0.0,1.000000,0.000000,0.000000,0.000000
1782117445.052288,1948420,-0.984375,0.147461,-0.100586,-11.158537,0.853659,1.768293,-3.600000,39.562500,0.450000,0.0,1.000000,0.000000,0.000000,0.000000
1782117445.062288,1948430,-0.985840,0.145508,-0.115723,-17.012196,1.768293,1.036585,-3.693750,39.487499,0.450000,0.0,1.000000,0.000000,0.000000,0.000000
1782117445.072288,1948440,-0.979980,0.126953,-0.113770,-21.219513,0.731707,0.060976,-3.693750,39.487499,0.450000,0.0,1.000000,0.000000,0.000000,0.000000
1782117445.082288,1948450,-0.964844,0.106445,-0.107910,-25.426830,0.487805,-1.768293,-3.606250,39.549999,0.468750,0.0,1.000000,0.000000,0.000000,0.000000
1782117445.092288,1948460,-0.952148,0.092773,-0.107910,-30.914635,2.256098,-3.902439,-3.606250,39.549999,0.468750,0.0,1.000000,0.000000,0.000000,0.000000
1782117445.102288,1948470,-0.954102,0.073730,-0.121582,-35.487804,5.365854,-4.390244,-3.837500,39.218750,0.281250,0.0,1.000000,0.000000,0.000000,0.000000
1782117445.112288,1948480,-0.980469,0.049805,-0.140625,-37.439026,6.402439,-3.109756,-3.837500,39.218750,0.281250,0.0,1.000000,0.000000,0.000000,0.000000
1782117445.122288,1948490,-0.997070,0.020996,-0.154785,-35.975609,5.243903,-0.731707,-3.987500,39.075001,0.206250,0.0,1.000000,0.000000,0.000000,0.000000
1782117445.132288,1948500,-1.007812,-0.008301,-0.159668,-32.621952,3.292683,1.280488,-3.987500,39.075001,0.206250,0.0,1.000000,0.000000,0.000000,0.000000
1782117445.142288,1948510,-0.995117,-0.023438,-0.161621,-28.414635,2.073171,2.439024,-4.062500,38.962502,0.037500,0.0,1.000000,0.000000,0.000000,0.000000
1782117445.152288,1948520,-0.989258,-0.016602,-0.168457,-25.731709,2.378049,2.439024,-4.062500,38.962502,0.037500,0.0,1.000000,0.000000,0.000000,0.000000
1782117445.163288,1948531,-0.991699,0.001465,-0.185059,-23.658537,2.560976,3.292683,-4.081250,38.956249,-0.037500,0.0,1.000000,0.000000,0.000000,0.000000
1782117445.172288,1948540,-1.004883,0.007812,-0.192871,-20.609756,1.463415,5.243903,-4.081250,38.956249,-0.037500,0.0,1.000000,0.000000,0.000000,0.000000
1782117445.183288,1948551,-1.023926,0.003418,-0.190918,-15.975610,-0.975610,7.012195,-4.068750,39.000000,0.068750,0.0,1.000000,0.000000,0.000000,0.000000
1782117445.192288,1948560,-1.026855,-0.000977,-0.175781,-11.036586,-4.146341,7.621952,-4.068750,39.000000,0.068750,0.0,1.000000,0.000000,0.000000,0.000000
1782117445.203288,1948571,-1.017578,0.000977,-0.172852,-7.926829,-5.914634,6.768293,-3.900000,39.118752,0.137500,0.0,1.000000,0.000000,0.000000,0.000000
1782117445.213288,1948581,-1.019531,0.008301,-0.177246,-6.646342,-6.158537,5.609756,-3.681250,39.325001,0.181250,0.0,1.000000,0.000000,0.000000,0.000000
1782117445.222288,1948590,-1.019531,0.008301,-0.177246,-6.646342,-6.158537,5.609756,-3.681250,39.325001,0.181250,0.0,1.000000,0.000000,0.000000,0.000000
1782117445.232288,1948600,-1.008301,0.009277,-0.190430,-5.975610,-8.353659,4.695122,-3.681250,39.325001,0.181250,0.0,1.000000,0.000000,0.000000,0.000000
1782117445.242288,1948610,-0.990234,0.000977,-0.207520,-3.658537,-9.878049,4.634146,-3.837500,39.075001,0.337500,0.0,1.000000,0.000000,0.000000,0.000000
1782117445.252288,1948620,-0.962402,-0.006348,-0.227051,-1.341463,-10.853659,3.658537,-3.831250,38.987499,0.368750,0.0,1.000000,0.000000,0.000000,0.000000
1782117445.262288,1948630,-0.942383,0.001465,-0.234863,0.304878,-9.512196,2.012195,-3.831250,38.987499,0.368750,0.0,1.000000,0.000000,0.000000,0.000000
1782117445.273288,1948641,-0.935059,0.029297,-0.249512,0.975610,-7.500000,0.670732,-3.812500,38.987499,0.493750,0.0,1.000000,0.000000,0.000000,0.000000
1782117445.282288,1948650,-0.939453,0.056152,-0.260742,2.317073,-3.902439,1.463415,-3.812500,38.987499,0.493750,0.0,1.000000,0.000000,0.000000,0.000000
1782117445.292288,1948660,-0.970215,0.066406,-0.250488,4.146341,-1.585366,2.926829,-3.825000,38.918751,0.481250,0.0,1.000000,0.000000,0.000000,0.000000
1782117445.302288,1948670,-0.969727,0.067871,-0.236816,4.024390,-2.743902,3.292683,-3.825000,38.918751,0.481250,0.0,1.000000,0.000000,0.000000,0.000000
1782117445.314288,1948682,-0.949219,0.072754,-0.226562,2.804878,-0.975610,3.963415,-3.787500,38.918751,0.606250,0.0,1.000000,0.000000,0.000000,0.000000
1782117445.322288,1948690,-0.975586,0.088867,-0.233398,1.097561,5.243903,4.756098,-3.787500,38.918751,0.606250,0.0,1.000000,0.000000,0.000000,0.000000
1782117445.332288,1948700,-1.022461,0.085938,-0.240234,-0.548781,8.841464,6.585366,-3.718750,39.025002,0.537500,0.0,1.000000,0.000000,0.000000,0.000000
1782117445.343288,1948711,-0.997559,0.062500,-0.228516,-1.768293,7.195122,5.426829,-3.718750,39.025002,0.537500,0.0,1.000000,0.000000,0.000000,0.000000
1782117445.352288,1948720,-0.951660,0.051758,-0.245117,-5.792683,7.621952,1.158537,-3.575000,39.137501,0.493750,0.0,1.000000,0.000000,0.000000,0.000000
1782117445.362288,1948730,-0.933105,0.064453,-0.271973,-10.792684,12.012196,-2.378049,-3.575000,39.137501,0.493750,0.0,1.000000,0.000000,0.000000,0.000000
1782117445.373288,1948741,-0.917969,0.065430,-0.284180,-15.060976,16.219513,-4.573171,-3.331250,39.656250,0.368750,0.0,1.000000,0.000000,0.000000,0.000000
1782117445.383288,1948751,-0.904785,0.047363,-0.291504,-17.378050,20.914635,-6.646342,-3.331250,39.656250,0.368750,0.0,1.000000,0.000000,0.000000,0.000000
1782117445.393288,1948761,-0.943848,0.016113,-0.282227,-20.914635,21.890244,-10.487805,-3.893750,39.281250,0.000000,0.0,1.000000,0.000000,0.000000,0.000000
1782117445.402288,1948770,-0.907715,-0.005859,-0.303223,-18.170732,26.463415,-9.085366,-3.893750,39.281250,0.000000,0.0,1.000000,0.000000,0.000000,0.000000
1782117445.413288,1948781,-0.941406,-0.032715,-0.302734,-13.719513,32.987804,-7.926829,-4.156250,39.243752,-0.437500,0.0,1.000000,0.000000,0.000000,0.000000
1782117445.422288,1948790,-0.983887,-0.036133,-0.280273,-11.280488,32.500000,-7.378049,-4.156250,39.243752,-0.437500,0.0,1.000000,0.000000,0.000000,0.000000
1782117445.432288,1948800,-1.000000,-0.018555,-0.256348,-9.817074,29.390245,-6.524390,-4.200000,39.337502,-0.775000,0.0,1.000000,0.000000,0.000000,0.000000
1782117445.442288,1948810,-1.013184,-0.002930,-0.234375,-8.292683,25.121952,-5.487805,-4.200000,39.337502,-0.775000,0.0,1.000000,0.000000,0.000000,0.000000
1782117445.452288,1948820,-1.011230,0.018555,-0.221680,-7.073171,20.182928,-4.451220,-4.368750,39.318752,-1.131250,0.0,1.000000,0.000000,0.000000,0.000000
1782117445.462288,1948830,-1.004883,0.046387,-0.213379,-5.792683,16.341463,-3.536585,-4.368750,39.318752,-1.131250,0.0,1.000000,0.000000,0.000000,0.000000
1782117445.472288,1948840,-0.984863,0.065430,-0.218750,-5.243903,14.024390,-3.475610,-4.475000,39.306252,-1.368750,0.0,1.000000,0.000000,0.000000,0.000000
1782117445.482288,1948850,-0.972656,0.076660,-0.234375,-4.939024,13.902439,-4.329268,-4.475000,39.306252,-1.368750,0.0,1.000000,0.000000,0.000000,0.000000
1782117445.492288,1948860,-0.970703,0.068359,-0.260742,-2.987805,15.731708,-4.878049,-4.581250,39.350002,-1.687500,0.0,1.000000,0.000000,0.000000,0.000000
1782117445.502288,1948870,-0.981934,0.054199,-0.282227,0.853659,17.317074,-5.365854,-4.581250,39.350002,-1.687500,0.0,1.000000,0.000000,0.000000,0.000000
1782117445.512288,1948880,-0.996094,0.042480,-0.295410,4.817073,17.621952,-5.670732,-4.681250,39.337502,-1.875000,0.0,1.000000,0.000000,0.000000,0.000000
1782117445.522288,1948890,-1.028809,0.036133,-0.280762,4.939024,11.707317,-7.621952,-4.681250,39.337502,-1.875000,0.0,1.000000,0.000000,0.000000,0.000000
1782117445.532288,1948900,-0.959961,0.054199,-0.292480,6.768293,10.914635,-5.548780,-4.581250,39.531250,-2.006250,0.0,1.000000,0.000000,0.000000,0.000000
1782117445.542288,1948910,-0.963867,0.060547,-0.275879,5.060976,11.158537,-4.756098,-4.581250,39.531250,-2.006250,0.0,1.000000,0.000000,0.000000,0.000000
1782117445.553288,1948921,-0.956543,0.063965,-0.270020,0.914634,9.207317,-3.780488,-4.856250,39.331249,-2.168750,0.0,1.000000,0.000000,0.000000,0.000000
1782117445.563288,1948931,-0.942871,0.050781,-0.277832,-1.524390,9.390244,-2.378049,-4.812500,39.462502,-2.156250,0.0,1.000000,0.000000,0.000000,0.000000
1782117445.572288,1948940,-0.943848,0.020996,-0.288086,-2.682927,11.280488,-1.890244,-4.812500,39.462502,-2.156250,0.0,1.000000,0.000000,0.000000,0.000000
1782117445.582288,1948950,-0.958496,-0.011719,-0.301758,-2.804878,13.231708,-2.012195,-4.868750,39.456249,-2.387500,0.0,1.000000,0.000000,0.000000,0.000000
1782117445.593288,1948961,-0.977539,-0.038574,-0.309082,-2.134146,14.207317,-2.865854,-4.868750,39.456249,-2.387500,0.0,1.000000,0.000000,0.000000,0.000000
1782117445.602288,1948970,-0.990234,-0.055176,-0.313477,-2.195122,13.841464,-4.329268,-4.718750,39.687500,-2.468750,0.0,1.000000,0.000000,0.000000,0.000000
1782117445.612288,1948980,-0.998535,-0.050293,-0.316406,-2.500000,11.768293,-5.914634,-4.718750,39.687500,-2.468750,0.0,1.000000,0.000000,0.000000,0.000000
1782117445.622288,1948990,-0.985840,-0.020020,-0.316895,-2.743902,9.451220,-6.646342,-5.087500,39.356251,-2.700000,0.0,1.000000,0.000000,0.000000,0.000000
1782117445.633288,1949001,-0.972168,0.029297,-0.307129,-3.414634,7.195122,-6.402439,-5.087500,39.356251,-2.700000,0.0,1.000000,0.000000,0.000000,0.000000
1782117445.642288,1949010,-0.961914,0.073730,-0.292969,-4.451220,5.731708,-5.304878,-4.931250,39.668751,-2.756250,0.0,1.000000,0.000000,0.000000,0.000000
1782117445.652288,1949020,-0.958984,0.085449,-0.287109,-5.304878,4.756098,-3.780488,-4.931250,39.668751,-2.756250,0.0,1.000000,0.000000,0.000000,0.000000
1782117445.662288,1949030,-0.959961,0.065430,-0.296875,-5.121951,4.024390,-2.500000,-5.237500,39.375000,-2.962500,0.0,1.000000,0.000000,0.000000,0.000000
1782117445.672288,1949040,-0.963379,0.042969,-0.312988,-4.024390,2.865854,-1.524390,-5.237500,39.375000,-2.962500,0.0,1.000000,0.000000,0.000000,0.000000
1782117445.682288,1949050,-0.963379,0.019043,-0.328125,-2.926829,1.280488,-0.975610,-5.262500,39.431252,-2.968750,0.0,1.000000,0.000000,0.000000,0.000000
1782117445.692288,1949060,-0.960938,0.002441,-0.339844,-2.500000,-0.243902,-0.792683,-5.262500,39.431252,-2.968750,0.0,1.000000,0.000000,0.000000,0.000000
1782117445.702288,1949070,-0.951660,-0.005371,-0.351562,-2.256098,-1.219512,-0.914634,-5.312500,39.418751,-3.031250,0.0,1.000000,0.000000,0.000000,0.000000
1782117445.712288,1949080,-0.938965,-0.005859,-0.355469,-2.134146,-1.158537,-1.219512,-5.312500,39.418751,-3.031250,0.0,1.000000,0.000000,0.000000,0.000000
1782117445.722288,1949090,-0.923340,-0.000977,-0.350098,-2.378049,-0.243902,-1.646341,-5.343750,39.400002,-2.962500,0.0,1.000000,0.000000,0.000000,0.000000
1782117445.733288,1949101,-0.910645,0.001953,-0.350098,-3.231707,1.402439,-1.768293,-5.343750,39.400002,-2.962500,0.0,1.000000,0.000000,0.000000,0.000000
1782117445.742288,1949110,-0.908691,0.004395,-0.354004,-4.634146,2.926829,-1.402439,-5.450000,39.268749,-3.031250,0.0,1.000000,0.000000,0.000000,0.000000
1782117445.753288,1949121,-0.909180,0.006348,-0.362305,-6.585366,4.085366,-0.975610,-5.450000,39.268749,-3.031250,0.0,1.000000,0.000000,0.000000,0.000000
1782117445.762288,1949130,-0.906738,0.007324,-0.366699,-8.719512,4.817073,-0.792683,-5.500000,39.331249,-3.125000,0.0,1.000000,0.000000,0.000000,0.000000
1782117445.773288,1949141,-0.902344,0.006348,-0.361328,-10.365854,5.487805,-0.975610,-5.500000,39.331249,-3.125000,0.0,1.000000,0.000000,0.000000,0.000000
1782117445.783288,1949151,-0.902344,0.000000,-0.351074,-10.365854,6.341464,-1.280488,-5.156250,39.693752,-3.150000,0.0,1.000000,0.000000,0.000000,0.000000
1782117445.793288,1949161,-0.903320,-0.005859,-0.340820,-9.573171,7.378049,-1.829268,-5.156250,39.693752,-3.150000,0.0,1.000000,0.000000,0.000000,0.000000
1782117445.802288,1949170,-0.910156,-0.007812,-0.329102,-8.414635,8.841464,-2.317073,-5.518750,39.387501,-3.400000,0.0,1.000000,0.000000,0.000000,0.000000
1782117445.812288,1949180,-0.930176,-0.009766,-0.318359,-7.621952,9.878049,-2.317073,-5.518750,39.387501,-3.400000,0.0,1.000000,0.000000,0.000000,0.000000
1782117445.822288,1949190,-0.949707,-0.009277,-0.311523,-7.500000,10.060976,-2.195122,-5.425000,39.556252,-3.625000,0.0,1.000000,0.000000,0.000000,0.000000
1782117445.833288,1949201,-0.966309,-0.007324,-0.303711,-7.317073,9.573171,-1.768293,-5.687500,39.325001,-3.781250,0.0,1.000000,0.000000,0.000000,0.000000
1782117445.842288,1949210,-0.978516,-0.004883,-0.297363,-6.890244,8.658537,-1.585366,-5.687500,39.325001,-3.781250,0.0,1.000000,0.000000,0.000000,0.000000
1782117445.852288,1949220,-0.979004,0.007324,-0.292969,-6.219512,7.621952,-1.463415,-5.706250,39.375000,-3.950000,0.0,1.000000,0.000000,0.000000,0.000000
1782117445.862288,1949230,-0.977539,0.025391,-0.285156,-5.060976,6.890244,-1.402439,-5.706250,39.375000,-3.950000,0.0,1.000000,0.000000,0.000000,0.000000
1782117445.873288,1949241,-0.978516,0.040527,-0.281738,-4.085366,6.585366,-1.097561,-5.706250,39.424999,-4.106250,0.0,1.000000,0.000000,0.000000,0.000000
1782117445.882288,1949250,-0.979980,0.049805,-0.278809,-3.353659,6.158537,-0.670732,-5.706250,39.424999,-4.106250,0.0,1.000000,0.000000,0.000000,0.000000
1782117445.892288,1949260,-0.980469,0.050293,-0.281250,-3.109756,5.914634,-0.121951,-5.800000,39.400002,-4.250000,0.0,1.000000,0.000000,0.000000,0.000000
1782117445.902288,1949270,-0.980469,0.046387,-0.283203,-3.780488,5.731708,0.060976,-5.800000,39.400002,-4.250000,0.0,1.000000,0.000000,0.000000,0.000000
1782117445.912288,1949280,-0.977539,0.041992,-0.286621,-4.817073,5.792683,0.060976,-5.725000,39.506252,-4.318750,0.0,1.000000,0.000000,0.000000,0.000000
1782117445.922288,1949290,-0.977539,0.034668,-0.290527,-5.426829,5.609756,0.000000,-5.725000,39.506252,-4.318750,0.0,1.000000,0.000000,0.000000,0.000000
1782117445.933288,1949301,-0.974609,0.025391,-0.294922,-5.731708,5.304878,-0.060976,-5.643750,39.625000,-4.387500,0.0,1.000000,0.000000,0.000000,0.000000
1782117445.942288,1949310,-0.970703,0.017578,-0.290527,-5.609756,4.817073,-0.182927,-5.643750,39.625000,-4.387500,0.0,1.000000,0.000000,0.000000,0.000000
1782117445.953288,1949321,-0.967285,0.007812,-0.285156,-5.731708,4.573171,-0.182927,-5.800000,39.431252,-4.568750,0.0,1.000000,0.000000,0.000000,0.000000
1782117445.962288,1949330,-0.969727,-0.001953,-0.287109,-5.670732,4.573171,-0.182927,-5.800000,39.431252,-4.568750,0.0,1.000000,0.000000,0.000000,0.000000
1782117445.972288,1949340,-0.972168,-0.007324,-0.290039,-5.365854,4.451220,0.000000,-5.812500,39.493752,-4.581250,0.0,1.000000,0.000000,0.000000,0.000000
1782117445.983288,1949351,-0.970215,-0.009766,-0.296387,-4.756098,4.207317,0.121951,-5.812500,39.493752,-4.581250,0.0,1.000000,0.000000,0.000000,0.000000
1782117445.993288,1949361,-0.969238,-0.007324,-0.302734,-4.024390,3.780488,0.304878,-5.887500,39.525002,-4.718750,0.0,1.000000,0.000000,0.000000,0.000000
1782117446.002288,1949370,-0.965332,0.000000,-0.306152,-2.865854,2.926829,0.548781,-5.887500,39.525002,-4.718750,0.0,1.000000,0.000000,0.000000,0.000000
1782117446.012288,1949380,-0.962402,0.013184,-0.305176,-1.585366,2.195122,0.914634,-5.887500,39.443752,-4.800000,0.0,1.000000,0.000000,0.000000,0.000000
1782117446.022288,1949390,-0.962402,0.021484,-0.302246,-0.243902,1.646341,1.219512,-5.887500,39.443752,-4.800000,0.0,1.000000,0.000000,0.000000,0.000000
1782117446.033288,1949401,-0.958984,0.028809,-0.297852,0.975610,1.219512,1.402439,-5.875000,39.418751,-4.831250,0.0,1.000000,0.000000,0.000000,0.000000
1782117446.042288,1949410,-0.958984,0.028809,-0.297852,0.975610,1.219512,1.402439,-5.875000,39.418751,-4.831250,0.0,1.000000,0.000000,0.000000,0.000000
1782117446.052288,1949420,-0.954590,0.028320,-0.299316,1.646341,1.219512,1.280488,-5.862500,39.500000,-4.843750,0.0,1.000000,0.000000,0.000000,0.000000
1782117446.062288,1949430,-0.952637,0.025879,-0.301270,2.012195,1.402439,1.219512,-5.862500,39.500000,-4.843750,0.0,1.000000,0.000000,0.000000,0.000000
1782117446.075288,1949443,-0.956543,0.023438,-0.302734,2.317073,1.280488,1.402439,-5.875000,39.475002,-4.825000,0.0,1.000000,0.000000,0.000000,0.000000
1782117446.082288,1949450,-0.957520,0.023438,-0.306152,2.073171,0.548781,1.402439,-5.875000,39.475002,-4.825000,0.0,1.000000,0.000000,0.000000,0.000000
1782117446.092288,1949460,-0.955078,0.027344,-0.306152,1.585366,-0.182927,1.280488,-5.781250,39.593750,-4.862500,0.0,1.000000,0.000000,0.000000,0.000000
1782117446.102288,1949470,-0.955566,0.032715,-0.308105,0.853659,-0.548781,1.402439,-5.781250,39.593750,-4.862500,0.0,1.000000,0.000000,0.000000,0.000000
1782117446.113288,1949481,-0.961426,0.031738,-0.312988,0.121951,-1.097561,1.707317,-5.900000,39.406250,-4.900000,0.0,1.000000,0.000000,0.000000,0.000000
1782117446.122288,1949490,-0.961426,0.021973,-0.316895,-0.182927,-1.524390,1.707317,-5.900000,39.406250,-4.900000,0.0,1.000000,0.000000,0.000000,0.000000
1782117446.133288,1949501,-0.959473,0.022949,-0.317871,-0.243902,-1.890244,1.402439,-5.668750,39.706249,-4.750000,0.0,1.000000,0.000000,0.000000,0.000000
1782117446.142288,1949510,-0.958984,0.022461,-0.316406,0.000000,-1.951220,1.158537,-5.825000,39.481251,-4.787500,0.0,1.000000,0.000000,0.000000,0.000000
1782117446.154288,1949522,-0.958008,0.021484,-0.312012,0.182927,-1.890244,1.097561,-5.825000,39.481251,-4.787500,0.0,1.000000,0.000000,0.000000,0.000000
1782117446.162288,1949530,-0.955078,0.022949,-0.315918,-0.121951,-1.524390,1.219512,-5.568750,39.737499,-4.725000,0.0,1.000000,0.000000,0.000000,0.000000
1782117446.172288,1949540,-0.951172,0.020996,-0.320312,-0.914634,-1.097561,1.402439,-5.568750,39.737499,-4.725000,0.0,1.000000,0.000000,0.000000,0.000000
1782117446.182288,1949550,-0.951660,0.023438,-0.326172,-1.829268,-0.609756,1.585366,-5.806250,39.543751,-4.800000,0.0,1.000000,0.000000,0.000000,0.000000
1782117446.193288,1949561,-0.952148,0.023438,-0.329590,-2.134146,-0.365854,1.890244,-5.806250,39.543751,-4.800000,0.0,1.000000,0.000000,0.000000,0.000000
1782117446.202288,1949570,-0.948730,0.022949,-0.330078,-1.524390,-0.426829,2.012195,-5.781250,39.575001,-4.793750,0.0,1.000000,0.000000,0.000000,0.000000
1782117446.213288,1949581,-0.945801,0.024902,-0.328125,-0.548781,-0.548781,2.134146,-5.781250,39.575001,-4.793750,0.0,1.000000,0.000000,0.000000,0.000000
1782117446.223288,1949591,-0.945312,0.023926,-0.320312,0.487805,-0.731707,2.134146,-5.593750,39.787502,-4.756250,0.0,1.000000,0.000000,0.000000,0.000000
1782117446.232288,1949600,-0.943848,0.020996,-0.312012,1.158537,-0.609756,1.951220,-5.593750,39.787502,-4.756250,0.0,1.000000,0.000000,0.000000,0.000000
1782117446.242288,1949610,-0.946289,0.018066,-0.305664,1.341463,-0.304878,1.890244,-5.731250,39.593750,-4.756250,0.0,1.000000,0.000000,0.000000,0.000000
1782117446.252288,1949620,-0.950684,0.012695,-0.303223,0.975610,0.182927,1.829268,-5.731250,39.593750,-4.756250,0.0,1.000000,0.000000,0.000000,0.000000
1782117446.262288,1949630,-0.952637,0.011719,-0.304199,0.426829,0.243902,1.768293,-5.762500,39.568752,-4.737500,0.0,1.000000,0.000000,0.000000,0.000000
1782117446.273288,1949641,-0.955566,0.014648,-0.305176,0.060976,0.000000,1.768293,-5.762500,39.568752,-4.737500,0.0,1.000000,0.000000,0.000000,0.000000
1782117446.282288,1949650,-0.956543,0.023438,-0.306641,0.000000,-0.487805,1.829268,-5.650000,39.706249,-4.718750,0.0,1.000000,0.000000,0.000000,0.000000
1782117446.292288,1949660,-0.955566,0.032715,-0.306152,0.182927,-0.914634,2.073171,-5.650000,39.706249,-4.718750,0.0,1.000000,0.000000,0.000000,0.000000
1782117446.303288,1949671,-0.958008,0.042480,-0.305664,0.487805,-1.280488,2.256098,-5.693750,39.625000,-4.743750,0.0,1.000000,0.000000,0.000000,0.000000
1782117446.315288,1949683,-0.959473,0.048340,-0.302246,0.853659,-1.890244,2.500000,-5.693750,39.625000,-4.743750,0.0,1.000000,0.000000,0.000000,0.000000
1782117446.322288,1949690,-0.956055,0.051758,-0.297363,1.097561,-2.256098,2.560976,-5.650000,39.625000,-4.762500,0.0,1.000000,0.000000,0.000000,0.000000
1782117446.332288,1949700,-0.952148,0.047852,-0.294434,1.097561,-1.829268,2.560976,-5.650000,39.625000,-4.762500,0.0,1.000000,0.000000,0.000000,0.000000
1782117446.343288,1949711,-0.952637,0.038574,-0.293945,0.914634,-0.914634,2.439024,-5.706250,39.575001,-4.712500,0.0,1.000000,0.000000,0.000000,0.000000
1782117446.354288,1949722,-0.956055,0.029297,-0.297363,0.304878,-0.304878,2.256098,-5.706250,39.575001,-4.712500,0.0,1.000000,0.000000,0.000000,0.000000
1782117446.363288,1949731,-0.959473,0.025879,-0.302734,-0.426829,-0.121951,1.890244,-5.693750,39.575001,-4.712500,0.0,1.000000,0.000000,0.000000,0.000000
1782117446.372288,1949740,-0.960938,0.026367,-0.307617,-0.731707,-0.365854,1.646341,-5.693750,39.575001,-4.712500,0.0,1.000000,0.000000,0.000000,0.000000
1782117446.383288,1949751,-0.966797,0.034180,-0.308105,-0.670732,-0.609756,1.768293,-5.650000,39.612499,-4.731250,0.0,1.000000,0.000000,0.000000,0.000000
1782117446.394288,1949762,-0.975586,0.039551,-0.306641,-0.365854,-1.158537,2.195122,-5.656250,39.618752,-4.750000,0.0,1.000000,0.000000,0.000000,0.000000
1782117446.402288,1949770,-0.975098,0.039551,-0.299805,0.426829,-2.073171,2.378049,-5.656250,39.618752,-4.750000,0.0,1.000000,0.000000,0.000000,0.000000
1782117446.412288,1949780,-0.970703,0.036621,-0.295410,1.036585,-2.500000,2.134146,-5.656250,39.618752,-4.750000,0.0,1.000000,0.000000,0.000000,0.000000
1782117446.422288,1949790,-0.966797,0.036621,-0.291504,1.341463,-2.560976,1.768293,-5.625000,39.606251,-4.675000,0.0,1.000000,0.000000,0.000000,0.000000
1782117446.435288,1949803,-0.966309,0.037109,-0.288086,1.402439,-2.621951,1.524390,-5.662500,39.593750,-4.768750,0.0,1.000000,0.000000,0.000000,0.000000
1782117446.442288,1949810,-0.961914,0.038086,-0.283203,1.402439,-2.743902,1.585366,-5.662500,39.593750,-4.768750,0.0,1.000000,0.000000,0.000000,0.000000
1782117446.452288,1949820,-0.956543,0.040039,-0.280273,1.463415,-2.743902,1.585366,-5.612500,39.650002,-4.631250,0.0,1.000000,0.000000,0.000000,0.000000
1782117446.462288,1949830,-0.956543,0.040527,-0.278320,1.463415,-2.317073,1.707317,-5.612500,39.650002,-4.631250,0.0,1.000000,0.000000,0.000000,0.000000
1782117446.475288,1949843,-0.960449,0.035645,-0.280273,1.768293,-1.890244,1.829268,-5.593750,39.600002,-4.556250,0.0,1.000000,0.000000,0.000000,0.000000
1782117446.482288,1949850,-0.960449,0.030762,-0.283691,1.829268,-1.829268,1.829268,-5.593750,39.600002,-4.556250,0.0,1.000000,0.000000,0.000000,0.000000
1782117446.492288,1949860,-0.961914,0.024902,-0.289062,1.646341,-1.768293,1.768293,-5.318750,39.900002,-4.518750,0.0,1.000000,0.000000,0.000000,0.000000
1782117446.503288,1949871,-0.963379,0.024414,-0.293945,1.463415,-1.829268,1.646341,-5.318750,39.900002,-4.518750,0.0,1.000000,0.000000,0.000000,0.000000
1782117446.514288,1949882,-0.965820,0.030273,-0.294922,1.158537,-2.195122,1.585366,-5.306250,39.850002,-4.506250,0.0,1.000000,0.000000,0.000000,0.000000
1782117446.522288,1949890,-0.963379,0.036133,-0.292480,1.097561,-2.500000,1.585366,-5.306250,39.850002,-4.506250,0.0,1.000000,0.000000,0.000000,0.000000
1782117446.532288,1949900,-0.957520,0.042480,-0.288574,1.036585,-2.500000,1.341463,-5.456250,39.725002,-4.475000,0.0,1.000000,0.000000,0.000000,0.000000
1782117446.542288,1949910,-0.950684,0.045410,-0.287598,1.097561,-1.890244,1.341463,-5.456250,39.725002,-4.475000,0.0,1.000000,0.000000,0.000000,0.000000
1782117446.554288,1949922,-0.954102,0.045410,-0.286621,0.975610,-1.463415,1.341463,-5.556250,39.587502,-4.475000,0.0,1.000000,0.000000,0.000000,0.000000
1782117446.563288,1949931,-0.955566,0.044434,-0.290039,0.426829,-1.158537,1.341463,-5.556250,39.587502,-4.475000,0.0,1.000000,0.000000,0.000000,0.000000
1782117446.573288,1949941,-0.959961,0.042480,-0.292969,-0.182927,-0.975610,1.524390,-5.468750,39.637501,-4.381250,0.0,1.000000,0.000000,0.000000,0.000000
1782117446.582288,1949950,-0.964355,0.041992,-0.296875,-0.548781,-1.158537,1.585366,-5.468750,39.637501,-4.381250,0.0,1.000000,0.000000,0.000000,0.000000
1782117446.595288,1949963,-0.964844,0.043457,-0.299805,-0.731707,-1.463415,1.524390,-5.468750,39.637501,-4.431250,0.0,1.000000,0.000000,0.000000,0.000000
1782117446.602288,1949970,-0.958984,0.044434,-0.297852,-0.548781,-1.707317,1.402439,-5.468750,39.637501,-4.431250,0.0,1.000000,0.000000,0.000000,0.000000
1782117446.612288,1949980,-0.953613,0.041504,-0.295410,-0.304878,-1.707317,1.219512,-5.418750,39.693752,-4.375000,0.0,1.000000,0.000000,0.000000,0.000000
1782117446.622288,1949990,-0.948242,0.037598,-0.292969,-0.304878,-1.158537,0.670732,-5.418750,39.693752,-4.375000,0.0,1.000000,0.000000,0.000000,0.000000
1782117446.635288,1950003,-0.947266,0.034180,-0.291504,-0.304878,-0.304878,0.670732,-5.568750,39.606251,-4.362500,0.0,1.000000,0.000000,0.000000,0.000000
1782117446.643288,1950011,-0.954102,0.032227,-0.289062,-0.426829,0.243902,0.792683,-5.568750,39.606251,-4.362500,0.0,1.000000,0.000000,0.000000,0.000000
1782117446.652288,1950020,-0.955078,0.028320,-0.291992,-0.792683,0.243902,1.158537,-5.450000,39.674999,-4.412500,0.0,1.000000,0.000000,0.000000,0.000000
1782117446.662288,1950030,-0.953125,0.026855,-0.293457,-0.853659,-0.060976,1.280488,-5.450000,39.674999,-4.412500,0.0,1.000000,0.000000,0.000000,0.000000
1782117446.674288,1950042,-0.950684,0.028320,-0.296875,-0.243902,-0.365854,1.524390,-5.537500,39.606251,-4.425000,0.0,1.000000,0.000000,0.000000,0.000000
1782117446.682288,1950050,-0.955078,0.029785,-0.296875,0.975610,-0.853659,1.951220,-5.537500,39.606251,-4.425000,0.0,1.000000,0.000000,0.000000,0.000000
1782117446.692288,1950060,-0.956055,0.026367,-0.294434,2.804878,-1.585366,2.256098,-5.481250,39.693752,-4.375000,0.0,1.000000,0.000000,0.000000,0.000000
1782117446.702288,1950070,-0.956543,0.019531,-0.296387,4.512195,-1.646341,2.743902,-5.481250,39.693752,-4.375000,0.0,1.000000,0.000000,0.000000,0.000000
1782117446.714288,1950082,-0.962891,0.017578,-0.294922,6.524390,-1.707317,3.414634,-5.543750,39.575001,-4.350000,0.0,1.000000,0.000000,0.000000,0.000000
1782117446.722288,1950090,-0.969727,0.013672,-0.290039,8.719512,-1.707317,4.024390,-5.543750,39.575001,-4.350000,0.0,1.000000,0.000000,0.000000,0.000000
1782117446.732288,1950100,-0.972656,0.009766,-0.286133,9.573171,-1.524390,4.024390,-5.300000,39.768749,-4.231250,0.0,1.000000,0.000000,0.000000,0.000000
1782117446.742288,1950110,-0.970703,0.013184,-0.285156,9.878049,-1.463415,3.658537,-5.387500,39.631252,-4.187500,0.0,1.000000,0.000000,0.000000,0.000000
1782117446.755288,1950123,-0.968262,0.016113,-0.283691,10.121951,-1.158537,3.292683,-5.387500,39.631252,-4.187500,0.0,1.000000,0.000000,0.000000,0.000000
1782117446.763288,1950131,-0.969727,0.022949,-0.279785,9.634147,-0.853659,2.500000,-5.256250,39.706249,-4.137500,0.0,1.000000,0.000000,0.000000,0.000000
1782117446.773288,1950141,-0.974121,0.032715,-0.272461,8.353659,-0.731707,1.707317,-5.256250,39.706249,-4.137500,0.0,1.000000,0.000000,0.000000,0.000000
1782117446.782288,1950150,-0.975586,0.041992,-0.266113,6.280488,-0.914634,1.158537,-5.056250,39.943752,-4.087500,0.0,1.000000,0.000000,0.000000,0.000000
1782117446.793288,1950161,-0.971191,0.052246,-0.264160,3.841464,-1.097561,0.609756,-5.056250,39.943752,-4.087500,0.0,1.000000,0.000000,0.000000,0.000000
1782117446.803288,1950171,-0.968750,0.059570,-0.260254,1.158537,-0.975610,0.426829,-5.218750,39.812500,-4.037500,0.0,1.000000,0.000000,0.000000,0.000000
1782117446.812288,1950180,-0.967285,0.065430,-0.259277,-0.731707,-0.548781,0.670732,-5.218750,39.812500,-4.037500,0.0,1.000000,0.000000,0.000000,0.000000
1782117446.822288,1950190,-0.967773,0.064941,-0.262207,-1.585366,-0.243902,0.975610,-5.268750,39.756252,-4.087500,0.0,1.000000,0.000000,0.000000,0.000000
1782117446.836288,1950204,-0.968750,0.059082,-0.266113,-1.341463,-0.060976,1.463415,-5.268750,39.756252,-4.087500,0.0,1.000000,0.000000,0.000000,0.000000
1782117446.842288,1950210,-0.970215,0.049316,-0.269531,-0.792683,-0.060976,1.829268,-5.043750,39.956249,-4.025000,0.0,1.000000,0.000000,0.000000,0.000000
1782117446.852288,1950220,-0.968750,0.039062,-0.273926,-0.365854,-0.304878,1.890244,-5.043750,39.956249,-4.025000,0.0,1.000000,0.000000,0.000000,0.000000
1782117446.862288,1950230,-0.966309,0.033203,-0.281738,0.182927,-0.548781,1.768293,-5.287500,39.674999,-4.131250,0.0,1.000000,0.000000,0.000000,0.000000
1782117446.874288,1950242,-0.967285,0.030762,-0.287109,1.036585,-0.548781,1.890244,-5.287500,39.674999,-4.131250,0.0,1.000000,0.000000,0.000000,0.000000
1782117446.882288,1950250,-0.967285,0.030762,-0.287109,1.036585,-0.548781,1.890244,-5.262500,39.712502,-4.018750,0.0,1.000000,0.000000,0.000000,0.000000
1782117446.892288,1950260,-0.966309,0.024902,-0.294434,2.256098,-0.121951,1.707317,-5.262500,39.712502,-4.018750,0.0,1.000000,0.000000,0.000000,0.000000
1782117446.902288,1950270,-0.966309,0.024902,-0.294434,2.256098,-0.121951,1.707317,-5.225000,39.731251,-4.012500,0.0,1.000000,0.000000,0.000000,0.000000
1782117446.914288,1950282,-0.965332,0.018555,-0.293945,2.926829,0.182927,1.280488,-5.225000,39.731251,-4.012500,0.0,1.000000,0.000000,0.000000,0.000000
1782117446.922288,1950290,-0.965332,0.016602,-0.293945,3.475610,0.548781,0.914634,-5.287500,39.662502,-4.006250,0.0,1.000000,0.000000,0.000000,0.000000
1782117446.932288,1950300,-0.960449,0.019531,-0.296387,3.780488,0.670732,0.670732,-5.287500,39.662502,-4.006250,0.0,1.000000,0.000000,0.000000,0.000000
1782117446.942288,1950310,-0.958984,0.028809,-0.296875,3.597561,0.792683,0.731707,-5.318750,39.618752,-4.062500,0.0,1.000000,0.000000,0.000000,0.000000
1782117446.954288,1950322,-0.957520,0.042969,-0.296387,3.292683,0.426829,0.975610,-5.318750,39.618752,-4.062500,0.0,1.000000,0.000000,0.000000,0.000000
1782117446.962288,1950330,-0.956543,0.052246,-0.295898,2.987805,0.243902,1.341463,-5.237500,39.768749,-4.043750,0.0,1.000000,0.000000,0.000000,0.000000
1782117446.973288,1950341,-0.952148,0.059082,-0.292480,2.621951,0.365854,1.524390,-5.237500,39.768749,-4.043750,0.0,1.000000,0.000000,0.000000,0.000000
1782117446.983288,1950351,-0.953613,0.058594,-0.291016,2.317073,0.975610,1.707317,-5.300000,39.718750,-4.062500,0.0,1.000000,0.000000,0.000000,0.000000
1782117446.995288,1950363,-0.956543,0.056152,-0.293457,1.768293,1.524390,1.707317,-5.368750,39.625000,-4.087500,0.0,1.000000,0.000000,0.000000,0.000000
1782117447.003288,1950371,-0.956543,0.047363,-0.295898,1.463415,1.829268,1.524390,-5.368750,39.625000,-4.087500,0.0,1.000000,0.000000,0.000000,0.000000
1782117447.012288,1950380,-0.954590,0.041016,-0.299316,1.402439,1.890244,1.097561,-5.368750,39.625000,-4.087500,0.0,1.000000,0.000000,0.000000,0.000000
1782117447.022288,1950390,-0.952637,0.038574,-0.297852,1.341463,2.256098,0.670732,-5.243750,39.731251,-4.075000,0.0,1.000000,0.000000,0.000000,0.000000
1782117447.035288,1950403,-0.953125,0.038086,-0.294434,1.280488,2.439024,0.609756,-5.256250,39.681252,-4.125000,0.0,1.000000,0.000000,0.000000,0.000000
1782117447.042288,1950410,-0.953613,0.037109,-0.294434,1.219512,2.621951,0.731707,-5.256250,39.681252,-4.125000,0.0,1.000000,0.000000,0.000000,0.000000
1782117447.053288,1950421,-0.956055,0.035156,-0.292969,1.158537,2.621951,0.853659,-5.218750,39.743752,-4.106250,0.0,1.000000,0.000000,0.000000,0.000000
1782117447.062288,1950430,-0.958008,0.031738,-0.292969,0.975610,2.439024,0.975610,-5.218750,39.743752,-4.106250,0.0,1.000000,0.000000,0.000000,0.000000
1782117447.074288,1950442,-0.954590,0.029785,-0.297852,0.975610,2.256098,0.914634,-5.000000,39.987499,-4.106250,0.0,1.000000,0.000000,0.000000,0.000000
1782117447.082288,1950450,-0.951660,0.029297,-0.302734,1.036585,2.134146,0.853659,-5.000000,39.987499,-4.106250,0.0,1.000000,0.000000,0.000000,0.000000
1782117447.093288,1950461,-0.947266,0.031738,-0.303223,1.280488,2.134146,0.731707,-5.156250,39.812500,-4.175000,0.0,1.000000,0.000000,0.000000,0.000000
1782117447.102288,1950470,-0.949707,0.039551,-0.307129,1.280488,2.195122,0.914634,-5.156250,39.812500,-4.175000,0.0,1.000000,0.000000,0.000000,0.000000
1782117447.112288,1950480,-0.951172,0.043945,-0.312012,1.158537,2.439024,1.280488,-5.193750,39.750000,-4.193750,0.0,1.000000,0.000000,0.000000,0.000000
1782117447.122288,1950490,-0.954102,0.042969,-0.314453,1.219512,2.560976,1.463415,-5.193750,39.750000,-4.193750,0.0,1.000000,0.000000,0.000000,0.000000
1782117447.132288,1950500,-0.954102,0.039062,-0.319336,1.036585,2.926829,1.341463,-5.168750,39.881252,-4.212500,0.0,1.000000,0.000000,0.000000,0.000000
1782117447.142288,1950510,-0.951172,0.035156,-0.320801,1.097561,3.231707,1.036585,-5.168750,39.881252,-4.212500,0.0,1.000000,0.000000,0.000000,0.000000
1782117447.152288,1950520,-0.951172,0.030273,-0.315918,1.768293,3.597561,0.853659,-5.150000,39.856251,-4.293750,0.0,1.000000,0.000000,0.000000,0.000000
1782117447.164288,1950532,-0.953613,0.027832,-0.310547,2.621951,3.841464,0.792683,-5.150000,39.856251,-4.293750,0.0,1.000000,0.000000,0.000000,0.000000
1782117447.173288,1950541,-0.953125,0.024902,-0.307129,3.414634,4.085366,0.914634,-5.062500,39.893749,-4.256250,0.0,1.000000,0.000000,0.000000,0.000000
1782117447.182288,1950550,-0.953125,0.023438,-0.307617,3.658537,4.390244,0.975610,-5.062500,39.893749,-4.256250,0.0,1.000000,0.000000,0.000000,0.000000
1782117447.192288,1950560,-0.957520,0.026367,-0.307617,3.536585,4.573171,1.158537,-5.193750,39.856251,-4.306250,0.0,1.000000,0.000000,0.000000,0.000000
1782117447.202288,1950570,-0.962402,0.029297,-0.307617,3.292683,4.451220,1.341463,-5.193750,39.856251,-4.306250,0.0,1.000000,0.000000,0.000000,0.000000
1782117447.212288,1950580,-0.967285,0.032227,-0.307129,3.170732,3.963415,1.463415,-5.156250,39.837502,-4.362500,0.0,1.000000,0.000000,0.000000,0.000000
1782117447.222288,1950590,-0.971680,0.036621,-0.304199,3.231707,3.109756,1.524390,-5.156250,39.837502,-4.362500,0.0,1.000000,0.000000,0.000000,0.000000
1782117447.232288,1950600,-0.975098,0.042480,-0.295898,3.658537,1.951220,1.646341,-5.175000,39.793751,-4.418750,0.0,1.000000,0.000000,0.000000,0.000000
1782117447.244288,1950612,-0.974121,0.047852,-0.287598,3.841464,0.792683,1.524390,-5.175000,39.793751,-4.418750,0.0,1.000000,0.000000,0.000000,0.000000
1782117447.252288,1950620,-0.964355,0.057617,-0.282227,3.475610,0.060976,1.402439,-5.131250,39.956249,-4.412500,0.0,1.000000,0.000000,0.000000,0.000000
1782117447.262288,1950630,-0.962402,0.060059,-0.280273,2.317073,-0.121951,1.402439,-5.131250,39.956249,-4.412500,0.0,1.000000,0.000000,0.000000,0.000000
1782117447.272288,1950640,-0.958984,0.066406,-0.279297,0.487805,-0.365854,1.219512,-5.200000,39.825001,-4.375000,0.0,1.000000,0.000000,0.000000,0.000000
1782117447.282288,1950650,-0.957520,0.066895,-0.283203,-1.524390,-0.731707,1.158537,-5.200000,39.825001,-4.375000,0.0,1.000000,0.000000,0.000000,0.000000
1782117447.292288,1950660,-0.960938,0.061035,-0.291504,-3.048780,-1.158537,1.219512,-5.168750,39.875000,-4.393750,0.0,1.000000,0.000000,0.000000,0.000000
1782117447.302288,1950670,-0.963867,0.052246,-0.297852,-4.085366,-1.890244,1.036585,-5.168750,39.875000,-4.393750,0.0,1.000000,0.000000,0.000000,0.000000
1782117447.312288,1950680,-0.958008,0.046875,-0.302734,-4.146341,-2.865854,0.853659,-5.031250,40.006252,-4.368750,0.0,1.000000,0.000000,0.000000,0.000000
1782117447.322288,1950690,-0.951660,0.040527,-0.305176,-3.597561,-3.353659,0.731707,-5.143750,39.918751,-4.368750,0.0,1.000000,0.000000,0.000000,0.000000
1782117447.332288,1950700,-0.949707,0.033203,-0.308594,-3.170732,-3.231707,0.853659,-5.143750,39.918751,-4.368750,0.0,1.000000,0.000000,0.000000,0.000000
1782117447.342288,1950710,-0.952148,0.026855,-0.312988,-2.743902,-2.987805,1.036585,-5.143750,39.875000,-4.343750,0.0,1.000000,0.000000,0.000000,0.000000
1782117447.352288,1950720,-0.951660,0.019531,-0.318359,-2.317073,-2.804878,1.341463,-5.143750,39.875000,-4.343750,0.0,1.000000,0.000000,0.000000,0.000000
1782117447.363288,1950731,-0.951172,0.013672,-0.326172,-1.707317,-2.560976,1.524390,-5.168750,39.793751,-4.306250,0.0,1.000000,0.000000,0.000000,0.000000
1782117447.372288,1950740,-0.950684,0.012695,-0.328125,-0.548781,-2.439024,1.768293,-5.168750,39.793751,-4.306250,0.0,1.000000,0.000000,0.000000,0.000000
1782117447.382288,1950750,-0.954102,0.011719,-0.326660,1.097561,-2.378049,2.012195,-4.875000,40.075001,-4.218750,0.0,1.000000,0.000000,0.000000,0.000000
1782117447.392288,1950760,-0.956543,0.023926,-0.320801,2.500000,-2.500000,2.134146,-4.875000,40.075001,-4.218750,0.0,1.000000,0.000000,0.000000,0.000000
1782117447.403288,1950771,-0.953613,0.036133,-0.309570,3.780488,-2.804878,2.195122,-4.975000,40.012501,-4.168750,0.0,1.000000,0.000000,0.000000,0.000000
1782117447.412288,1950780,-0.951660,0.042480,-0.299316,4.390244,-2.682927,2.195122,-4.975000,40.012501,-4.168750,0.0,1.000000,0.000000,0.000000,0.000000
1782117447.422288,1950790,-0.953125,0.050293,-0.293945,4.207317,-2.560976,2.378049,-5.068750,39.918751,-4.193750,0.0,1.000000,0.000000,0.000000,0.000000
1782117447.432288,1950800,-0.953613,0.056152,-0.290527,3.475610,-2.804878,2.500000,-5.068750,39.918751,-4.193750,0.0,1.000000,0.000000,0.000000,0.000000
1782117447.442288,1950810,-0.953125,0.060547,-0.288086,2.317073,-2.987805,2.560976,-5.087500,39.881252,-4.087500,0.0,1.000000,0.000000,0.000000,0.000000
1782117447.452288,1950820,-0.953125,0.057617,-0.289062,1.036585,-3.109756,2.500000,-5.087500,39.881252,-4.087500,0.0,1.000000,0.000000,0.000000,0.000000
1782117447.463288,1950831,-0.952148,0.051270,-0.292480,0.060976,-3.170732,2.195122,-4.981250,39.937500,-4.106250,0.0,1.000000,0.000000,0.000000,0.000000
1782117447.472288,1950840,-0.953613,0.045898,-0.297363,-0.304878,-3.170732,1.829268,-4.981250,39.937500,-4.106250,0.0,1.000000,0.000000,0.000000,0.000000
1782117447.483288,1950851,-0.959473,0.041504,-0.295898,-0.365854,-3.292683,1.402439,-4.993750,39.906250,-4.037500,0.0,1.000000,0.000000,0.000000,0.000000
1782117447.493288,1950861,-0.960449,0.037109,-0.288574,-0.182927,-3.475610,1.036585,-4.993750,39.906250,-4.037500,0.0,1.000000,0.000000,0.000000,0.000000
1782117447.502288,1950870,-0.961914,0.034668,-0.285156,0.060976,-3.597561,0.853659,-4.993750,39.881252,-4.037500,0.0,1.000000,0.000000,0.000000,0.000000
1782117447.512288,1950880,-0.964844,0.032227,-0.283203,0.060976,-3.353659,1.036585,-4.993750,39.881252,-4.037500,0.0,1.000000,0.000000,0.000000,0.000000
1782117447.522288,1950890,-0.968262,0.034180,-0.288574,-0.426829,-3.170732,1.402439,-5.018750,39.812500,-3.987500,0.0,1.000000,0.000000,0.000000,0.000000
1782117447.532288,1950900,-0.967285,0.036621,-0.295898,-1.219512,-2.926829,1.585366,-5.018750,39.812500,-3.987500,0.0,1.000000,0.000000,0.000000,0.000000
1782117447.542288,1950910,-0.965332,0.040527,-0.302734,-1.402439,-2.500000,1.707317,-4.987500,39.900002,-3.950000,0.0,1.000000,0.000000,0.000000,0.000000
1782117447.552288,1950920,-0.966797,0.041992,-0.303711,-0.731707,-2.317073,1.829268,-4.987500,39.900002,-3.950000,0.0,1.000000,0.000000,0.000000,0.000000
1782117447.562288,1950930,-0.965332,0.042969,-0.301758,0.426829,-2.439024,1.768293,-4.981250,39.850002,-3.937500,0.0,1.000000,0.000000,0.000000,0.000000
1782117447.573288,1950941,-0.965332,0.044434,-0.295410,1.585366,-2.743902,1.829268,-4.981250,39.850002,-3.937500,0.0,1.000000,0.000000,0.000000,0.000000
1782117447.582288,1950950,-0.965332,0.041504,-0.284668,2.378049,-3.109756,1.768293,-4.981250,39.812500,-3.843750,0.0,1.000000,0.000000,0.000000,0.000000
1782117447.592288,1950960,-0.962402,0.041504,-0.278809,2.621951,-3.231707,1.402439,-4.981250,39.812500,-3.843750,0.0,1.000000,0.000000,0.000000,0.000000
1782117447.603288,1950971,-0.962402,0.042969,-0.275879,2.256098,-3.170732,1.280488,-4.987500,39.818752,-3.818750,0.0,1.000000,0.000000,0.000000,0.000000
1782117447.612288,1950980,-0.965820,0.044434,-0.273438,1.463415,-2.987805,1.280488,-4.987500,39.818752,-3.818750,0.0,1.000000,0.000000,0.000000,0.000000
1782117447.622288,1950990,-0.971191,0.048828,-0.276367,0.000000,-3.048780,1.280488,-4.831250,39.906250,-3.787500,0.0,1.000000,0.000000,0.000000,0.000000
1782117447.632288,1951000,-0.970703,0.052246,-0.279785,-1.402439,-3.536585,1.280488,-4.925000,39.806252,-3.756250,0.0,1.000000,0.000000,0.000000,0.000000
1782117447.643288,1951011,-0.966309,0.055664,-0.284180,-2.256098,-3.963415,1.097561,-4.925000,39.806252,-3.756250,0.0,1.000000,0.000000,0.000000,0.000000
1782117447.652288,1951020,-0.959961,0.057617,-0.287109,-2.500000,-4.085366,0.792683,-4.775000,39.975002,-3.700000,0.0,1.000000,0.000000,0.000000,0.000000
1782117447.662288,1951030,-0.953125,0.055664,-0.288574,-2.743902,-3.780488,0.548781,-4.775000,39.975002,-3.700000,0.0,1.000000,0.000000,0.000000,0.000000
1782117447.672288,1951040,-0.949219,0.050293,-0.289551,-2.743902,-2.987805,0.304878,-4.850000,39.950001,-3.687500,0.0,1.000000,0.000000,0.000000,0.000000
