Unix_Time_s,IMU1_RefTime,ax_g,ay_g,az_g,gx_dps,gy_dps,gz_dps,mx_uT,my_uT,mz_uT,temp_C,qw,qx,qy,qz
1782117442.712288,1942139,0.915527,-0.015137,-0.405273,0.182927,-0.182927,-0.243902,16.312500,-36.556252,1.875000,0.0,1.000000,0.000000,0.000000,0.000000
1782117442.722288,1942149,0.916016,-0.015625,-0.403320,0.182927,-0.121951,-0.243902,16.312500,-36.556252,1.875000,0.0,1.000000,0.000000,0.000000,0.000000
1782117442.732288,1942159,0.915039,-0.015625,-0.402344,0.000000,0.060976,-0.182927,16.262501,-36.612499,1.943750,0.0,1.000000,0.000000,0.000000,0.000000
1782117442.742288,1942169,0.914062,-0.016602,-0.401855,-0.060976,-0.121951,-0.182927,16.337500,-36.531250,1.875000,0.0,1.000000,0.000000,0.000000,0.000000
1782117442.752288,1942179,0.915527,-0.018555,-0.402832,-0.182927,-0.182927,-0.182927,16.337500,-36.531250,1.875000,0.0,1.000000,0.000000,0.000000,0.000000
1782117442.762288,1942189,0.916992,-0.020020,-0.403320,-0.243902,0.000000,-0.304878,16.275000,-36.600002,1.931250,0.0,1.000000,0.000000,0.000000,0.000000
1782117442.773288,1942200,0.915527,-0.020996,-0.406250,-0.243902,0.121951,-0.243902,16.275000,-36.600002,1.931250,0.0,1.000000,0.000000,0.000000,0.000000
1782117442.783288,1942210,0.915527,-0.018066,-0.406250,-0.243902,0.000000,-0.182927,16.318750,-36.493752,1.950000,0.0,1.000000,0.000000,0.000000,0.000000
1782117442.792288,1942219,0.915527,-0.019043,-0.403320,-0.243902,0.000000,-0.182927,16.318750,-36.493752,1.950000,0.0,1.000000,0.000000,0.000000,0.000000
1782117442.803288,1942230,0.915039,-0.019043,-0.403320,-0.304878,0.060976,-0.182927,16.218750,-36.537502,2.018750,0.0,1.000000,0.000000,0.000000,0.000000
1782117442.813288,1942240,0.914551,-0.018555,-0.402344,-0.243902,0.060976,-0.121951,16.218750,-36.537502,2.018750,0.0,1.000000,0.000000,0.000000,0.000000
1782117442.822288,1942249,0.914551,-0.018555,-0.400879,-0.243902,-0.060976,-0.182927,16.306250,-36.512501,1.900000,0.0,1.000000,0.000000,0.000000,0.000000
1782117442.832288,1942259,0.915527,-0.020020,-0.401367,-0.243902,-0.060976,-0.182927,16.306250,-36.512501,1.900000,0.0,1.000000,0.000000,0.000000,0.000000
1782117442.842288,1942269,0.915527,-0.022461,-0.403809,-0.182927,-0.060976,-0.243902,16.262501,-36.612499,1.987500,0.0,1.000000,0.000000,0.000000,0.000000
1782117442.852288,1942279,0.914551,-0.021484,-0.403320,0.000000,0.000000,-0.304878,16.262501,-36.612499,1.987500,0.0,1.000000,0.000000,0.000000,0.000000
1782117442.863288,1942290,0.915527,-0.021973,-0.403320,0.182927,0.000000,-0.304878,16.356251,-36.431252,1.937500,0.0,1.000000,0.000000,0.000000,0.000000
1782117442.872288,1942299,0.916504,-0.021484,-0.403320,0.304878,0.121951,-0.365854,16.356251,-36.431252,1.937500,0.0,1.000000,0.000000,0.000000,0.000000
1782117442.882288,1942309,0.916504,-0.020508,-0.400879,0.365854,0.121951,-0.304878,16.293751,-36.537502,1.975000,0.0,1.000000,0.000000,0.000000,0.000000
1782117442.894288,1942321,0.916992,-0.019531,-0.401367,0.487805,0.121951,-0.304878,16.293751,-36.537502,1.975000,0.0,1.000000,0.000000,0.000000,0.000000
1782117442.902288,1942329,0.914551,-0.018555,-0.399414,0.548781,0.121951,-0.304878,16.300001,-36.525002,1.900000,0.0,1.000000,0.000000,0.000000,0.000000
1782117442.912288,1942339,0.916504,-0.018555,-0.400391,0.487805,-0.060976,-0.426829,16.300001,-36.525002,1.900000,0.0,1.000000,0.000000,0.000000,0.000000
1782117442.922288,1942349,0.916992,-0.020020,-0.400391,0.426829,0.060976,-0.426829,16.400000,-36.312500,1.793750,0.0,1.000000,0.000000,0.000000,0.000000
1782117442.932288,1942359,0.916016,-0.019043,-0.401855,0.426829,0.243902,-0.487805,16.400000,-36.312500,1.793750,0.0,1.000000,0.000000,0.000000,0.000000
1782117442.942288,1942369,0.913086,-0.020020,-0.402344,0.304878,0.121951,-0.426829,16.312500,-36.487499,1.931250,0.0,1.000000,0.000000,0.000000,0.000000
1782117442.952288,1942379,0.915527,-0.020508,-0.402832,0.304878,0.000000,-0.426829,16.312500,-36.487499,1.931250,0.0,1.000000,0.000000,0.000000,0.000000
1782117442.962288,1942389,0.915039,-0.019531,-0.403809,0.365854,0.000000,-0.426829,16.306250,-36.531250,1.918750,0.0,1.000000,0.000000,0.000000,0.000000
1782117442.973288,1942400,0.915039,-0.018555,-0.405273,0.609756,-0.060976,-0.365854,16.306250,-36.531250,1.918750,0.0,1.000000,0.000000,0.000000,0.000000
1782117442.982288,1942409,0.915039,-0.018555,-0.405273,0.609756,-0.060976,-0.365854,16.393751,-36.393749,1.850000,0.0,1.000000,0.000000,0.000000,0.000000
1782117442.992288,1942419,0.913086,-0.020020,-0.403320,0.609756,0.060976,-0.365854,16.393751,-36.393749,1.850000,0.0,1.000000,0.000000,0.000000,0.000000
1782117443.002288,1942429,0.913086,-0.019531,-0.405273,0.487805,0.000000,-0.365854,16.331251,-36.593750,1.937500,0.0,1.000000,0.000000,0.000000,0.000000
1782117443.013288,1942440,0.915039,-0.019043,-0.405273,0.365854,0.060976,-0.365854,16.331251,-36.593750,1.937500,0.0,1.000000,0.000000,0.000000,0.000000
1782117443.022288,1942449,0.914062,-0.018555,-0.403809,0.121951,0.121951,-0.365854,16.362501,-36.462502,1.900000,0.0,1.000000,0.000000,0.000000,0.000000
1782117443.032288,1942459,0.915527,-0.020508,-0.405273,0.000000,0.121951,-0.304878,16.362501,-36.462502,1.900000,0.0,1.000000,0.000000,0.000000,0.000000
1782117443.043288,1942470,0.914551,-0.019531,-0.405762,0.000000,0.121951,-0.365854,16.306250,-36.556252,1.981250,0.0,1.000000,0.000000,0.000000,0.000000
1782117443.053288,1942480,0.916016,-0.019043,-0.405762,0.060976,0.121951,-0.243902,16.306250,-36.556252,1.981250,0.0,1.000000,0.000000,0.000000,0.000000
1782117443.062288,1942489,0.916016,-0.019043,-0.405762,0.060976,0.121951,-0.243902,16.318750,-36.500000,1.912500,0.0,1.000000,0.000000,0.000000,0.000000
1782117443.073288,1942500,0.915039,-0.015625,-0.403809,0.060976,0.182927,-0.121951,16.318750,-36.500000,1.912500,0.0,1.000000,0.000000,0.000000,0.000000
1782117443.082288,1942509,0.916992,-0.016602,-0.403320,-0.304878,0.365854,-0.182927,16.331251,-36.500000,1.943750,0.0,1.000000,0.000000,0.000000,0.000000
1782117443.092288,1942519,0.913574,-0.019531,-0.404297,-0.548781,0.487805,-0.121951,16.331251,-36.500000,1.943750,0.0,1.000000,0.000000,0.000000,0.000000
1782117443.102288,1942529,0.915039,-0.021484,-0.405273,-0.548781,0.426829,-0.121951,16.356251,-36.424999,1.987500,0.0,1.000000,0.000000,0.000000,0.000000
1782117443.112288,1942539,0.913574,-0.020020,-0.406250,-0.548781,0.670732,-0.060976,16.356251,-36.424999,1.987500,0.0,1.000000,0.000000,0.000000,0.000000
1782117443.122288,1942549,0.912109,-0.019043,-0.407227,-0.426829,0.487805,-0.060976,16.337500,-36.468750,2.025000,0.0,1.000000,0.000000,0.000000,0.000000
1782117443.133288,1942560,0.912598,-0.018555,-0.407715,-0.304878,0.304878,-0.121951,16.337500,-36.468750,2.025000,0.0,1.000000,0.000000,0.000000,0.000000
1782117443.142288,1942569,0.912109,-0.019531,-0.406738,-0.182927,0.304878,-0.182927,16.318750,-36.556252,1.937500,0.0,1.000000,0.000000,0.000000,0.000000
1782117443.152288,1942579,0.912598,-0.017578,-0.404785,-0.243902,0.243902,-0.243902,16.318750,-36.556252,1.937500,0.0,1.000000,0.000000,0.000000,0.000000
1782117443.163288,1942590,0.914062,-0.018066,-0.403320,-0.365854,0.182927,-0.243902,16.325001,-36.525002,2.006250,0.0,1.000000,0.000000,0.000000,0.000000
1782117443.173288,1942600,0.915039,-0.018066,-0.403809,-0.426829,0.304878,-0.304878,16.325001,-36.525002,2.006250,0.0,1.000000,0.000000,0.000000,0.000000
1782117443.182288,1942609,0.914551,-0.018066,-0.401855,-0.548781,0.365854,-0.243902,16.400000,-36.393749,1.925000,0.0,1.000000,0.000000,0.000000,0.000000
1782117443.192288,1942619,0.915039,-0.017578,-0.402832,-0.487805,0.182927,-0.304878,16.400000,-36.393749,1.925000,0.0,1.000000,0.000000,0.000000,0.000000
1782117443.202288,1942629,0.916504,-0.019043,-0.401855,-0.243902,0.243902,-0.365854,16.318750,-36.531250,2.043750,0.0,1.000000,0.000000,0.000000,0.000000
1782117443.215288,1942642,0.918457,-0.020508,-0.401367,-0.182927,0.304878,-0.243902,16.318750,-36.531250,2.043750,0.0,1.000000,0.000000,0.000000,0.000000
1782117443.222288,1942649,0.916992,-0.020508,-0.398926,-0.182927,0.365854,-0.121951,16.325001,-36.518749,2.043750,0.0,1.000000,0.000000,0.000000,0.000000
1782117443.232288,1942659,0.916992,-0.019531,-0.399414,-0.121951,0.548781,-0.182927,16.325001,-36.518749,2.043750,0.0,1.000000,0.000000,0.000000,0.000000
1782117443.242288,1942669,0.916016,-0.019531,-0.398438,-0.182927,0.487805,-0.121951,16.387501,-36.312500,1.912500,0.0,1.000000,0.000000,0.000000,0.000000
1782117443.255288,1942682,0.918457,-0.018555,-0.397461,-0.426829,0.365854,-0.060976,16.387501,-36.312500,1.912500,0.0,1.000000,0.000000,0.000000,0.000000
1782117443.262288,1942689,0.917969,-0.018555,-0.398926,-0.426829,0.609756,-0.121951,16.331251,-36.468750,2.056250,0.0,1.000000,0.000000,0.000000,0.000000
1782117443.272288,1942699,0.916992,-0.019043,-0.400391,-0.487805,0.548781,-0.121951,16.331251,-36.468750,2.056250,0.0,1.000000,0.000000,0.000000,0.000000
1782117443.282288,1942709,0.916504,-0.020020,-0.400879,-0.487805,0.548781,-0.121951,16.443750,-36.362499,2.006250,0.0,1.000000,0.000000,0.000000,0.000000
1782117443.294288,1942721,0.916016,-0.018066,-0.399414,-0.487805,0.426829,0.000000,16.443750,-36.362499,2.006250,0.0,1.000000,0.000000,0.000000,0.000000
1782117443.302288,1942729,0.917480,-0.016602,-0.398926,-0.609756,0.426829,-0.060976,16.293751,-36.506252,2.087500,0.0,1.000000,0.000000,0.000000,0.000000
1782117443.312288,1942739,0.916016,-0.015625,-0.398438,-0.792683,0.548781,0.060976,16.293751,-36.506252,2.087500,0.0,1.000000,0.000000,0.000000,0.000000
1782117443.323288,1942750,0.916016,-0.015137,-0.398926,-0.975610,0.548781,0.060976,16.306250,-36.543751,2.056250,0.0,1.000000,0.000000,0.000000,0.000000
1782117443.334288,1942761,0.916992,-0.015137,-0.399414,-1.097561,0.548781,0.060976,16.306250,-36.543751,2.056250,0.0,1.000000,0.000000,0.000000,0.000000
1782117443.342288,1942769,0.916016,-0.016602,-0.398926,-1.158537,0.548781,0.060976,16.387501,-36.468750,2.100000,0.0,1.000000,0.000000,0.000000,0.000000
1782117443.352288,1942779,0.916016,-0.017578,-0.398926,-1.219512,0.548781,0.182927,16.387501,-36.468750,2.100000,0.0,1.000000,0.000000,0.000000,0.000000
1782117443.362288,1942789,0.916016,-0.019531,-0.398926,-1.280488,0.365854,0.182927,16.256250,-36.587502,2.200000,0.0,1.000000,0.000000,0.000000,0.000000
1782117443.374288,1942801,0.916016,-0.021484,-0.400391,-1.158537,0.304878,0.182927,16.256250,-36.587502,2.200000,0.0,1.000000,0.000000,0.000000,0.000000
1782117443.383288,1942810,0.915527,-0.021973,-0.399902,-1.036585,0.304878,0.243902,16.343750,-36.481251,2.150000,0.0,1.000000,0.000000,0.000000,0.000000
1782117443.393288,1942820,0.916016,-0.020996,-0.399414,-0.914634,0.243902,0.182927,16.343750,-36.481251,2.150000,0.0,1.000000,0.000000,0.000000,0.000000
1782117443.402288,1942829,0.918457,-0.020996,-0.397461,-0.914634,0.365854,0.121951,16.356251,-36.356251,2.131250,0.0,1.000000,0.000000,0.000000,0.000000
1782117443.414288,1942841,0.916992,-0.020020,-0.398438,-0.914634,0.426829,0.182927,16.356251,-36.356251,2.131250,0.0,1.000000,0.000000,0.000000,0.000000
1782117443.422288,1942849,0.916992,-0.018066,-0.396973,-0.853659,0.365854,0.182927,16.306250,-36.518749,2.162500,0.0,1.000000,0.000000,0.000000,0.000000
1782117443.432288,1942859,0.917480,-0.017578,-0.395996,-0.792683,0.365854,0.060976,16.306250,-36.518749,2.162500,0.0,1.000000,0.000000,0.000000,0.000000
1782117443.442288,1942869,0.919434,-0.018066,-0.395508,-0.914634,0.426829,0.121951,16.425001,-36.318752,2.025000,0.0,1.000000,0.000000,0.000000,0.000000
1782117443.455288,1942882,0.918457,-0.019531,-0.395020,-1.036585,0.365854,0.121951,16.425001,-36.318752,2.025000,0.0,1.000000,0.000000,0.000000,0.000000
1782117443.462288,1942889,0.920410,-0.021484,-0.395020,-1.036585,0.426829,0.182927,16.325001,-36.525002,2.156250,0.0,1.000000,0.000000,0.000000,0.000000
1782117443.473288,1942900,0.918945,-0.020508,-0.392090,-1.036585,0.426829,0.243902,16.325001,-36.525002,2.156250,0.0,1.000000,0.000000,0.000000,0.000000
1782117443.482288,1942909,0.918945,-0.021973,-0.393555,-0.975610,0.365854,0.182927,16.325001,-36.531250,2.268750,0.0,1.000000,0.000000,0.000000,0.000000
1782117443.495288,1942922,0.917480,-0.022461,-0.393555,-0.975610,0.304878,0.182927,16.325001,-36.531250,2.268750,0.0,1.000000,0.000000,0.000000,0.000000
1782117443.502288,1942929,0.916992,-0.022949,-0.394043,-0.975610,0.243902,0.182927,16.375000,-36.512501,2.231250,0.0,1.000000,0.000000,0.000000,0.000000
1782117443.513288,1942940,0.916016,-0.021484,-0.395996,-0.914634,0.121951,0.182927,16.375000,-36.512501,2.231250,0.0,1.000000,0.000000,0.000000,0.000000
1782117443.522288,1942949,0.916016,-0.023438,-0.395508,-0.792683,0.000000,0.060976,16.281250,-36.512501,2.200000,0.0,1.000000,0.000000,0.000000,0.000000
1782117443.534288,1942961,0.917969,-0.022949,-0.394531,-0.670732,-0.060976,0.000000,16.281250,-36.512501,2.200000,0.0,1.000000,0.000000,0.000000,0.000000
1782117443.543288,1942970,0.917969,-0.022461,-0.394043,-0.609756,0.000000,0.000000,16.256250,-36.556252,2.193750,0.0,1.000000,0.000000,0.000000,0.000000
1782117443.553288,1942980,0.916992,-0.022461,-0.393066,-0.609756,0.000000,0.000000,16.256250,-36.556252,2.193750,0.0,1.000000,0.000000,0.000000,0.000000
1782117443.562288,1942989,0.916504,-0.022949,-0.392090,-0.731707,-0.243902,0.000000,16.256250,-36.581249,2.250000,0.0,1.000000,0.000000,0.000000,0.000000
1782117443.576288,1943003,0.918457,-0.022461,-0.391113,-0.731707,-0.365854,-0.060976,16.256250,-36.581249,2.250000,0.0,1.000000,0.000000,0.000000,0.000000
1782117443.584288,1943011,0.918457,-0.023926,-0.392578,-0.853659,-0.426829,-0.060976,16.256250,-36.575001,2.212500,0.0,1.000000,0.000000,0.000000,0.000000
1782117443.592288,1943019,0.919922,-0.021973,-0.393066,-1.036585,-0.609756,0.000000,16.256250,-36.575001,2.212500,0.0,1.000000,0.000000,0.000000,0.000000
1782117443.602288,1943029,0.921875,-0.021484,-0.390625,-1.036585,-0.670732,0.060976,16.318750,-36.556252,2.250000,0.0,1.000000,0.000000,0.000000,0.000000
1782117443.615288,1943042,0.920410,-0.021484,-0.390137,-1.036585,-0.426829,0.000000,16.318750,-36.556252,2.250000,0.0,1.000000,0.000000,0.000000,0.000000
1782117443.622288,1943049,0.920898,-0.021973,-0.388672,-1.097561,-0.365854,0.000000,16.250000,-36.606251,2.281250,0.0,1.000000,0.000000,0.000000,0.000000
1782117443.632288,1943059,0.919922,-0.022461,-0.391602,-1.097561,-0.365854,0.000000,16.250000,-36.606251,2.281250,0.0,1.000000,0.000000,0.000000,0.000000
1782117443.642288,1943069,0.920898,-0.023438,-0.392578,-1.158537,-0.426829,0.000000,16.243750,-36.625000,2.275000,0.0,1.000000,0.000000,0.000000,0.000000
1782117443.655288,1943082,0.921875,-0.024414,-0.393066,-1.280488,-0.365854,0.121951,16.243750,-36.625000,2.275000,0.0,1.000000,0.000000,0.000000,0.000000
1782117443.662288,1943089,0.918457,-0.023926,-0.393066,-1.280488,-0.365854,0.060976,16.287500,-36.606251,2.237500,0.0,1.000000,0.000000,0.000000,0.000000
1782117443.672288,1943099,0.918945,-0.022949,-0.394043,-1.341463,-0.426829,0.182927,16.287500,-36.606251,2.237500,0.0,1.000000,0.000000,0.000000,0.000000
1782117443.682288,1943109,0.919434,-0.022461,-0.395020,-1.402439,-0.426829,0.121951,16.256250,-36.674999,2.262500,0.0,1.000000,0.000000,0.000000,0.000000
1782117443.694288,1943121,0.918457,-0.022461,-0.395508,-1.402439,-0.304878,0.060976,16.256250,-36.674999,2.262500,0.0,1.000000,0.000000,0.000000,0.000000
1782117443.702288,1943129,0.917969,-0.021973,-0.395508,-1.524390,-0.365854,0.060976,16.268751,-36.562500,2.231250,0.0,1.000000,0.000000,0.000000,0.000000
1782117443.712288,1943139,0.916992,-0.022949,-0.396973,-1.585366,-0.304878,0.000000,16.268751,-36.562500,2.231250,0.0,1.000000,0.000000,0.000000,0.000000
1782117443.722288,1943149,0.915527,-0.022461,-0.398926,-1.463415,-0.243902,0.000000,16.237501,-36.687500,2.350000,0.0,1.000000,0.000000,0.000000,0.000000
1782117443.736288,1943163,0.914551,-0.022949,-0.398926,-1.219512,-0.304878,-0.060976,16.262501,-36.631252,2.312500,0.0,1.000000,0.000000,0.000000,0.000000
1782117443.742288,1943169,0.916504,-0.023438,-0.400879,-1.036585,-0.365854,-0.182927,16.262501,-36.631252,2.312500,0.0,1.000000,0.000000,0.000000,0.000000
1782117443.753288,1943180,0.917969,-0.022949,-0.400879,-0.792683,-0.426829,-0.121951,16.262501,-36.631252,2.312500,0.0,1.000000,0.000000,0.000000,0.000000
1782117443.762288,1943189,0.916016,-0.022461,-0.397949,-0.609756,-0.365854,-0.060976,16.193750,-36.674999,2.318750,0.0,1.000000,0.000000,0.000000,0.000000
1782117443.774288,1943201,0.915039,-0.021973,-0.398926,-0.548781,-0.670732,-0.121951,16.193750,-36.674999,2.318750,0.0,1.000000,0.000000,0.000000,0.000000
1782117443.783288,1943210,0.916992,-0.022461,-0.398926,-0.731707,-0.731707,-0.182927,16.250000,-36.650002,2.350000,0.0,1.000000,0.000000,0.000000,0.000000
1782117443.793288,1943220,0.917480,-0.023926,-0.399414,-0.731707,-0.426829,-0.304878,16.250000,-36.650002,2.350000,0.0,1.000000,0.000000,0.000000,0.000000
1782117443.805288,1943232,0.916992,-0.023438,-0.399902,-0.731707,-0.426829,-0.182927,16.231251,-36.656250,2.312500,0.0,1.000000,0.000000,0.000000,0.000000
1782117443.816288,1943243,0.916016,-0.021973,-0.399414,-0.548781,-0.426829,-0.243902,16.237501,-36.587502,2.318750,0.0,1.000000,0.000000,0.000000,0.000000
1782117443.822288,1943249,0.916504,-0.020020,-0.399414,-0.548781,-0.487805,-0.304878,16.237501,-36.587502,2.318750,0.0,1.000000,0.000000,0.000000,0.000000
1782117443.832288,1943259,0.915039,-0.018555,-0.397949,-0.487805,-0.426829,-0.304878,16.237501,-36.587502,2.318750,0.0,1.000000,0.000000,0.000000,0.000000
1782117443.843288,1943270,0.915527,-0.018555,-0.396973,-0.365854,-0.548781,-0.365854,16.243750,-36.618752,2.300000,0.0,1.000000,0.000000,0.000000,0.000000
1782117443.855288,1943282,0.915039,-0.020508,-0.400879,-0.243902,-0.670732,-0.426829,16.243750,-36.618752,2.300000,0.0,1.000000,0.000000,0.000000,0.000000
1782117443.862288,1943289,0.916016,-0.022461,-0.401855,-0.060976,-0.731707,-0.426829,16.231251,-36.593750,2.281250,0.0,1.000000,0.000000,0.000000,0.000000
1782117443.872288,1943299,0.916504,-0.023438,-0.401855,0.000000,-0.670732,-0.426829,16.231251,-36.593750,2.281250,0.0,1.000000,0.000000,0.000000,0.000000
1782117443.882288,1943309,0.915527,-0.023438,-0.402832,0.060976,-0.548781,-0.487805,16.193750,-36.612499,2.331250,0.0,1.000000,0.000000,0.000000,0.000000
1782117443.892288,1943319,0.916016,-0.021973,-0.400879,0.121951,-0.670732,-0.487805,16.193750,-36.612499,2.331250,0.0,1.000000,0.000000,0.000000,0.000000
1782117443.902288,1943329,0.919434,-0.021973,-0.398438,0.182927,-0.487805,-0.487805,16.181250,-36.618752,2.312500,0.0,1.000000,0.000000,0.000000,0.000000
1782117443.912288,1943339,0.915039,-0.020996,-0.401367,0.121951,-0.487805,-0.426829,16.181250,-36.618752,2.312500,0.0,1.000000,0.000000,0.000000,0.000000
1782117443.922288,1943349,0.914062,-0.018555,-0.404297,-0.060976,-0.853659,-0.365854,16.200001,-36.700001,2.362500,0.0,1.000000,0.000000,0.000000,0.000000
1782117443.934288,1943361,0.915039,-0.014648,-0.405273,-0.121951,-1.219512,-0.548781,16.200001,-36.700001,2.362500,0.0,1.000000,0.000000,0.000000,0.000000
1782117443.942288,1943369,0.921387,-0.013672,-0.400879,0.182927,-1.036585,-0.670732,16.256250,-36.643749,2.312500,0.0,1.000000,0.000000,0.000000,0.000000
1782117443.952288,1943379,0.922363,-0.019531,-0.393066,0.731707,-0.670732,-0.792683,16.256250,-36.643749,2.312500,0.0,1.000000,0.000000,0.000000,0.000000
1782117443.962288,1943389,0.917969,-0.023438,-0.395508,0.548781,-0.365854,-0.426829,16.187500,-36.668751,2.268750,0.0,1.000000,0.000000,0.000000,0.000000
1782117443.975288,1943402,0.916504,-0.016602,-0.398438,0.487805,-0.365854,-0.426829,16.187500,-36.668751,2.268750,0.0,1.000000,0.000000,0.000000,0.000000
1782117443.983288,1943410,0.913086,-0.013184,-0.404785,0.182927,-0.548781,-0.792683,16.218750,-36.625000,2.256250,0.0,1.000000,0.000000,0.000000,0.000000
1782117443.993288,1943420,0.914062,-0.017578,-0.402832,0.243902,-0.609756,-0.670732,16.218750,-36.625000,2.256250,0.0,1.000000,0.000000,0.000000,0.000000
1782117444.002288,1943429,0.917480,-0.020508,-0.401855,0.121951,-0.548781,-0.426829,16.400000,-36.375000,2.125000,0.0,1.000000,0.000000,0.000000,0.000000
1782117444.012288,1943439,0.915527,-0.017090,-0.400391,0.121951,-0.304878,-0.243902,16.400000,-36.375000,2.125000,0.0,1.000000,0.000000,0.000000,0.000000
1782117444.022288,1943449,0.911621,-0.014648,-0.402832,0.000000,-0.548781,-0.304878,16.181250,-36.662502,2.318750,0.0,1.000000,0.000000,0.000000,0.000000
1782117444.032288,1943459,0.912598,-0.013184,-0.405762,-0.243902,-0.914634,-0.548781,16.181250,-36.662502,2.318750,0.0,1.000000,0.000000,0.000000,0.000000
1782117444.042288,1943469,0.918457,-0.015137,-0.402832,-0.182927,-0.792683,-0.487805,16.181250,-36.662502,2.243750,0.0,1.000000,0.000000,0.000000,0.000000
1782117444.054288,1943481,0.916504,-0.017090,-0.401855,-0.304878,-0.426829,-0.365854,16.181250,-36.662502,2.243750,0.0,1.000000,0.000000,0.000000,0.000000
1782117444.062288,1943489,0.912598,-0.016602,-0.404297,-0.426829,-0.548781,-0.243902,16.150000,-36.681252,2.268750,0.0,1.000000,0.000000,0.000000,0.000000
1782117444.072288,1943499,0.916016,-0.014160,-0.407715,-0.487805,-0.792683,-0.426829,16.150000,-36.681252,2.268750,0.0,1.000000,0.000000,0.000000,0.000000
1782117444.083288,1943510,0.915527,-0.014648,-0.408203,-0.304878,-0.487805,-0.609756,16.168751,-36.643749,2.312500,0.0,1.000000,0.000000,0.000000,0.000000
1782117444.093288,1943520,0.913574,-0.016113,-0.405762,0.000000,-0.487805,-0.548781,16.218750,-36.587502,2.287500,0.0,1.000000,0.000000,0.000000,0.000000
1782117444.102288,1943529,0.913086,-0.019043,-0.402832,0.304878,-0.609756,-0.426829,16.218750,-36.587502,2.287500,0.0,1.000000,0.000000,0.000000,0.000000
1782117444.112288,1943539,0.916504,-0.019531,-0.406250,0.243902,-0.731707,-0.487805,16.218750,-36.587502,2.287500,0.0,1.000000,0.000000,0.000000,0.000000
1782117444.122288,1943549,0.915039,-0.019531,-0.406738,0.182927,-0.487805,-0.487805,16.262501,-36.637501,2.262500,0.0,1.000000,0.000000,0.000000,0.000000
1782117444.132288,1943559,0.914551,-0.019043,-0.412598,0.121951,-0.487805,-0.304878,16.262501,-36.637501,2.262500,0.0,1.000000,0.000000,0.000000,0.000000
1782117444.142288,1943569,0.916504,-0.012695,-0.411133,0.000000,-0.426829,-0.304878,16.225000,-36.674999,2.275000,0.0,1.000000,0.000000,0.000000,0.000000
1782117444.152288,1943579,0.910645,-0.010254,-0.410156,-0.304878,-0.365854,-0.243902,16.225000,-36.674999,2.275000,0.0,1.000000,0.000000,0.000000,0.000000
1782117444.162288,1943589,0.902832,-0.005859,-0.417480,-0.975610,-0.792683,0.000000,16.243750,-36.593750,2.218750,0.0,1.000000,0.000000,0.000000,0.000000
1782117444.172288,1943599,0.907715,-0.006348,-0.415527,-1.097561,-1.280488,-0.121951,16.243750,-36.593750,2.218750,0.0,1.000000,0.000000,0.000000,0.000000
1782117444.182288,1943609,0.909180,-0.011719,-0.412598,-1.219512,-1.524390,-0.060976,16.212500,-36.612499,2.243750,0.0,1.000000,0.000000,0.000000,0.000000
1782117444.192288,1943619,0.905273,-0.017090,-0.410645,-1.219512,-1.768293,0.243902,16.212500,-36.612499,2.243750,0.0,1.000000,0.000000,0.000000,0.000000
1782117444.202288,1943629,0.906250,-0.020996,-0.414551,-1.158537,-2.195122,0.182927,16.250000,-36.625000,2.212500,0.0,1.000000,0.000000,0.000000,0.000000
1782117444.212288,1943639,0.918945,-0.019531,-0.417969,-0.731707,-2.195122,0.060976,16.250000,-36.625000,2.212500,0.0,1.000000,0.000000,0.000000,0.000000
1782117444.223288,1943650,0.927246,-0.019043,-0.421387,-0.121951,-1.341463,-0.121951,16.231251,-36.700001,2.181250,0.0,1.000000,0.000000,0.000000,0.000000
1782117444.232288,1943659,0.921387,-0.024414,-0.422852,0.609756,-0.060976,-0.060976,16.231251,-36.700001,2.181250,0.0,1.000000,0.000000,0.000000,0.000000
1782117444.243288,1943670,0.912598,-0.025391,-0.431641,1.646341,0.548781,0.000000,16.475000,-36.281250,2.043750,0.0,1.000000,0.000000,0.000000,0.000000
1782117444.252288,1943679,0.913574,-0.016602,-0.433105,2.560976,0.914634,-0.182927,16.475000,-36.281250,2.043750,0.0,1.000000,0.000000,0.000000,0.000000
1782117444.262288,1943689,0.911621,-0.018555,-0.428711,3.414634,1.585366,-0.670732,16.200001,-36.681252,2.206250,0.0,1.000000,0.000000,0.000000,0.000000
1782117444.272288,1943699,0.900391,-0.022461,-0.434082,4.085366,2.012195,-0.731707,16.281250,-36.625000,2.125000,0.0,1.000000,0.000000,0.000000,0.000000
1782117444.282288,1943709,0.899902,-0.018066,-0.436523,4.573171,1.890244,-0.792683,16.281250,-36.625000,2.125000,0.0,1.000000,0.000000,0.000000,0.000000
1782117444.292288,1943719,0.912109,-0.008301,-0.434082,5.060976,2.012195,-0.792683,16.281250,-36.625000,2.125000,0.0,1.000000,0.000000,0.000000,0.000000
1782117444.302288,1943729,0.909180,0.003906,-0.430176,4.939024,2.804878,-0.792683,16.293751,-36.668751,2.225000,0.0,1.000000,0.000000,0.000000,0.000000
1782117444.312288,1943739,0.900879,0.008789,-0.431152,4.024390,3.170732,-0.426829,16.456251,-36.306252,2.056250,0.0,1.000000,0.000000,0.000000,0.000000
1782117444.322288,1943749,0.893066,0.019531,-0.433105,3.048780,2.682927,-0.426829,16.456251,-36.306252,2.056250,0.0,1.000000,0.000000,0.000000,0.000000
1782117444.332288,1943759,0.895996,0.018555,-0.435547,2.073171,2.012195,-0.731707,16.343750,-36.493752,2.175000,0.0,1.000000,0.000000,0.000000,0.000000
1782117444.342288,1943769,0.902344,0.008301,-0.439453,1.341463,1.768293,-0.670732,16.343750,-36.493752,2.175000,0.0,1.000000,0.000000,0.000000,0.000000
1782117444.352288,1943779,0.903320,-0.006836,-0.435547,1.402439,2.621951,-0.426829,16.287500,-36.600002,2.243750,0.0,1.000000,0.000000,0.000000,0.000000
1782117444.362288,1943789,0.903809,-0.023438,-0.437012,2.012195,3.109756,-0.243902,16.287500,-36.600002,2.243750,0.0,1.000000,0.000000,0.000000,0.000000
1782117444.372288,1943799,0.906250,-0.036621,-0.437500,3.048780,3.780488,-0.060976,16.443750,-36.412502,2.275000,0.0,1.000000,0.000000,0.000000,0.000000
1782117444.383288,1943810,0.903809,-0.040039,-0.440430,4.024390,4.268293,0.304878,16.443750,-36.412502,2.275000,0.0,1.000000,0.000000,0.000000,0.000000
1782117444.392288,1943819,0.900391,-0.037109,-0.445312,5.304878,4.878049,0.365854,16.356251,-36.512501,2.362500,0.0,1.000000,0.000000,0.000000,0.000000
1782117444.402288,1943829,0.900879,-0.032715,-0.444824,6.341464,5.426829,0.365854,16.356251,-36.512501,2.362500,0.0,1.000000,0.000000,0.000000,0.000000
1782117444.412288,1943839,0.901367,-0.025879,-0.446777,7.195122,6.158537,0.182927,16.281250,-36.612499,2.512500,0.0,1.000000,0.000000,0.000000,0.000000
1782117444.422288,1943849,0.904785,-0.018066,-0.450195,7.500000,7.317073,-0.060976,16.281250,-36.612499,2.512500,0.0,1.000000,0.000000,0.000000,0.000000
1782117444.432288,1943859,0.903320,-0.010742,-0.451660,7.743903,8.719512,-0.243902,16.318750,-36.537502,2.500000,0.0,1.000000,0.000000,0.000000,0.000000
1782117444.442288,1943869,0.899414,-0.008789,-0.447754,8.048780,9.634147,-0.365854,16.318750,-36.537502,2.500000,0.0,1.000000,0.000000,0.000000,0.000000
1782117444.452288,1943879,0.900391,-0.008301,-0.443848,8.658537,10.121951,-0.731707,16.312500,-36.575001,2.681250,0.0,1.000000,0.000000,0.000000,0.000000
1782117444.462288,1943889,0.907715,-0.010254,-0.440430,9.634147,10.365854,-1.341463,16.312500,-36.575001,2.681250,0.0,1.000000,0.000000,0.000000,0.000000
1782117444.472288,1943899,0.924316,-0.014160,-0.438965,10.670732,10.792684,-1.768293,16.362501,-36.468750,2.750000,0.0,1.000000,0.000000,0.000000,0.000000
1782117444.482288,1943909,0.935547,-0.017578,-0.432129,11.524390,12.317074,-1.951220,16.362501,-36.468750,2.750000,0.0,1.000000,0.000000,0.000000,0.000000
1782117444.492288,1943919,0.932617,-0.022461,-0.423828,12.621951,14.695123,-1.890244,16.337500,-36.556252,2.900000,0.0,1.000000,0.000000,0.000000,0.000000
1782117444.503288,1943930,0.924316,-0.031250,-0.419434,13.963415,16.463415,-1.951220,16.337500,-36.556252,2.900000,0.0,1.000000,0.000000,0.000000,0.000000
1782117444.512288,1943939,0.909180,-0.031738,-0.424805,15.853659,17.439024,-2.012195,16.450001,-36.412502,3.075000,0.0,1.000000,0.000000,0.000000,0.000000
1782117444.522288,1943949,0.894043,-0.024902,-0.431152,17.865854,18.353659,-2.317073,16.450001,-36.412502,3.075000,0.0,1.000000,0.000000,0.000000,0.000000
1782117444.532288,1943959,0.889648,-0.027344,-0.437012,19.268293,18.902439,-2.865854,16.412500,-36.456249,3.200000,0.0,1.000000,0.000000,0.000000,0.000000
1782117444.542288,1943969,0.894043,-0.033203,-0.443848,19.756098,19.512196,-3.536585,16.412500,-36.456249,3.200000,0.0,1.000000,0.000000,0.000000,0.000000
1782117444.552288,1943979,0.895508,-0.039062,-0.437500,20.182928,20.304878,-3.048780,16.593750,-36.225002,3.331250,0.0,1.000000,0.000000,0.000000,0.000000
1782117444.562288,1943989,0.891602,-0.041504,-0.427734,20.243902,20.792683,-2.073171,16.593750,-36.225002,3.331250,0.0,1.000000,0.000000,0.000000,0.000000
1782117444.572288,1943999,0.899902,-0.038574,-0.411621,20.426830,20.792683,-1.890244,16.593750,-36.287502,3.568750,0.0,1.000000,0.000000,0.000000,0.000000
1782117444.582288,1944009,0.912598,-0.041992,-0.395996,20.609756,20.487804,-2.804878,16.593750,-36.287502,3.568750,0.0,1.000000,0.000000,0.000000,0.000000
1782117444.592288,1944019,0.955566,-0.062012,-0.376465,21.585367,20.487804,-2.195122,16.693750,-36.193752,3.700000,0.0,1.000000,0.000000,0.000000,0.000000
1782117444.602288,1944029,0.975098,-0.081543,-0.366699,22.621952,21.707317,-1.829268,16.693750,-36.193752,3.700000,0.0,1.000000,0.000000,0.000000,0.000000
1782117444.614288,1944041,0.961426,-0.096191,-0.368164,22.500000,23.475611,0.000000,16.668751,-36.168751,3.912500,0.0,1.000000,0.000000,0.000000,0.000000
1782117444.623288,1944050,0.930176,-0.098145,-0.368164,20.000000,23.231709,3.292683,16.668751,-36.168751,3.912500,0.0,1.000000,0.000000,0.000000,0.000000
1782117444.634288,1944061,0.894531,-0.081543,-0.372559,16.646341,21.158537,6.219512,16.756250,-36.043751,4.075000,0.0,1.000000,0.000000,0.000000,0.000000
1782117444.642288,1944069,0.879883,-0.054688,-0.369141,13.170732,17.012196,7.804878,16.756250,-36.043751,4.075000,0.0,1.000000,0.000000,0.000000,0.000000
1782117444.653288,1944080,0.877441,-0.045410,-0.369629,10.243902,13.719513,8.475610,16.562500,-36.174999,4.325000,0.0,1.000000,0.000000,0.000000,0.000000
1782117444.666288,1944093,0.893555,-0.036621,-0.350586,8.109756,9.634147,7.621952,16.562500,-36.174999,4.325000,0.0,1.000000,0.000000,0.000000,0.000000
1782117444.674288,1944101,0.914551,-0.045410,-0.330566,6.463415,7.621952,5.792683,16.568750,-35.950001,4.218750,0.0,1.000000,0.000000,0.000000,0.000000
1782117444.682288,1944109,0.921875,-0.059082,-0.319824,5.548780,7.134147,3.902439,16.568750,-35.950001,4.218750,0.0,1.000000,0.000000,0.000000,0.000000
1782117444.692288,1944119,0.913574,-0.066406,-0.319336,5.548780,5.853659,2.804878,16.368750,-36.293751,4.450000,0.0,1.000000,0.000000,0.000000,0.000000
1782117444.702288,1944129,0.902344,-0.060547,-0.313477,6.097561,3.414634,1.707317,16.368750,-36.293751,4.450000,0.0,1.000000,0.000000,0.000000,0.000000
1782117444.712288,1944139,0.898438,-0.053223,-0.308594,6.890244,0.548781,0.609756,16.231251,-36.387501,4.412500,0.0,1.000000,0.000000,0.000000,0.000000
1782117444.722288,1944149,0.904297,-0.045898,-0.300781,7.682927,-1.890244,-0.609756,16.231251,-36.387501,4.412500,0.0,1.000000,0.000000,0.000000,0.000000
1782117444.732288,1944159,0.914551,-0.041504,-0.284668,8.414635,-3.902439,-1.524390,16.093750,-36.556252,4.325000,0.0,1.000000,0.000000,0.000000,0.000000
1782117444.742288,1944169,0.931641,-0.047363,-0.270996,8.536586,-4.817073,-1.707317,16.093750,-36.556252,4.325000,0.0,1.000000,0.000000,0.000000,0.000000
1782117444.752288,1944179,0.942871,-0.055176,-0.253906,7.926829,-6.036585,-1.219512,15.968750,-36.637501,4.212500,0.0,1.000000,0.000000,0.000000,0.000000
1782117444.762288,1944189,0.956055,-0.063965,-0.247559,7.073171,-7.865854,-0.731707,15.968750,-36.637501,4.212500,0.0,1.000000,0.000000,0.000000,0.000000
1782117444.773288,1944200,0.974121,-0.073242,-0.244141,6.158537,-8.658537,0.000000,15.950000,-36.662502,4.106250,0.0,1.000000,0.000000,0.000000,0.000000
1782117444.784288,1944211,1.003418,-0.083008,-0.237305,5.670732,-7.012195,-0.487805,15.950000,-36.662502,4.106250,0.0,1.000000,0.000000,0.000000,0.000000
1782117444.793288,1944220,1.003418,-0.083008,-0.237305,5.670732,-7.012195,-0.487805,15.900001,-36.674999,3.943750,0.0,1.000000,0.000000,0.000000,0.000000
1782117444.803288,1944230,1.009766,-0.095215,-0.235840,6.097561,-5.243903,-1.097561,15.900001,-36.674999,3.943750,0.0,1.000000,0.000000,0.000000,0.000000
1782117444.812288,1944239,1.008789,-0.110840,-0.237305,7.621952,-4.085366,-0.975610,15.862500,-36.674999,3.850000,0.0,1.000000,0.000000,0.000000,0.000000
1782117444.822288,1944249,1.011719,-0.108887,-0.231934,10.000000,-3.048780,-0.914634,15.862500,-36.674999,3.850000,0.0,1.000000,0.000000,0.000000,0.000000
1782117444.832288,1944259,1.012695,-0.092285,-0.239746,12.012196,-0.548781,-0.426829,15.937500,-36.575001,3.687500,0.0,1.000000,0.000000,0.000000,0.000000
1782117444.842288,1944269,0.997070,-0.069824,-0.237305,13.841464,1.951220,-0.304878,15.937500,-36.575001,3.687500,0.0,1.000000,0.000000,0.000000,0.000000
1782117444.853288,1944280,0.981934,-0.059570,-0.222168,15.304878,2.317073,-0.548781,15.918750,-36.625000,3.625000,0.0,1.000000,0.000000,0.000000,0.000000
1782117444.864288,1944291,0.976074,-0.061523,-0.207520,16.463415,1.585366,-0.426829,15.918750,-36.625000,3.625000,0.0,1.000000,0.000000,0.000000,0.000000
1782117444.872288,1944299,0.974121,-0.067383,-0.202637,16.646341,0.426829,0.243902,15.887500,-36.549999,3.506250,0.0,1.000000,0.000000,0.000000,0.000000
1782117444.882288,1944309,0.971680,-0.059570,-0.204102,15.914635,-0.609756,0.975610,15.887500,-36.549999,3.506250,0.0,1.000000,0.000000,0.000000,0.000000
1782117444.892288,1944319,0.973633,-0.024414,-0.181152,12.865854,-3.292683,0.000000,15.793750,-36.612499,3.325000,0.0,1.000000,0.000000,0.000000,0.000000
1782117444.902288,1944329,0.979004,-0.019043,-0.162109,10.487805,-4.146341,-1.646341,15.793750,-36.612499,3.325000,0.0,1.000000,0.000000,0.000000,0.000000
1782117444.912288,1944339,0.994141,-0.033203,-0.150391,8.109756,-4.573171,-3.292683,15.806251,-36.556252,3.181250,0.0,1.000000,0.000000,0.000000,0.000000
1782117444.922288,1944349,0.996582,-0.042480,-0.141602,6.707317,-3.658537,-4.634146,15.806251,-36.556252,3.181250,0.0,1.000000,0.000000,0.000000,0.000000
1782117444.932288,1944359,0.979980,-0.047852,-0.134766,4.634146,-3.231707,-5.609756,15.818750,-36.581249,3.137500,0.0,1.000000,0.000000,0.000000,0.000000
1782117444.942288,1944369,0.969727,-0.043457,-0.138672,2.134146,-5.121951,-6.158537,15.818750,-36.581249,3.137500,0.0,1.000000,0.000000,0.000000,0.000000
1782117444.952288,1944379,0.991211,-0.037109,-0.129883,-0.365854,-8.048780,-6.707317,15.931251,-36.450001,3.037500,0.0,1.000000,0.000000,0.000000,0.000000
1782117444.963288,1944390,1.028809,-0.037109,-0.129883,-2.804878,-9.207317,-7.134147,15.931251,-36.450001,3.037500,0.0,1.000000,0.000000,0.000000,0.000000
1782117444.972288,1944399,1.052734,-0.044434,-0.135742,-4.634146,-7.987805,-7.317073,16.031250,-36.406250,2.987500,0.0,1.000000,0.000000,0.000000,0.000000
1782117444.982288,1944409,1.056152,-0.051758,-0.144043,-5.182927,-5.853659,-7.073171,16.031250,-36.406250,2.987500,0.0,1.000000,0.000000,0.000000,0.000000
1782117444.992288,1944419,1.040527,-0.061035,-0.155273,-5.487805,-4.085366,-6.341464,16.075001,-36.381252,2.956250,0.0,1.000000,0.000000,0.000000,0.000000
1782117445.002288,1944429,1.025879,-0.064453,-0.179688,-5.731708,-3.353659,-5.792683,16.075001,-36.381252,2.956250,0.0,1.000000,0.000000,0.000000,0.000000
1782117445.012288,1944439,1.026855,-0.063965,-0.201660,-6.280488,-2.012195,-5.487805,16.125000,-36.362499,2.843750,0.0,1.000000,0.000000,0.000000,0.000000
1782117445.023288,1944450,1.020020,-0.053223,-0.222656,-6.585366,-1.158537,-5.000000,16.125000,-36.362499,2.843750,0.0,1.000000,0.000000,0.000000,0.000000
1782117445.032288,1944459,1.007324,-0.042969,-0.230957,-7.073171,-0.487805,-4.451220,16.262501,-36.337502,2.893750,0.0,1.000000,0.000000,0.000000,0.000000
1782117445.042288,1944469,0.993652,-0.039062,-0.229980,-7.682927,-0.670732,-3.353659,16.262501,-36.337502,2.893750,0.0,1.000000,0.000000,0.000000,0.000000
1782117445.052288,1944479,0.976562,-0.030273,-0.237305,-8.963415,-1.585366,-2.195122,16.331251,-36.325001,2.937500,0.0,1.000000,0.000000,0.000000,0.000000
1782117445.063288,1944490,0.969238,-0.026855,-0.253418,-11.036586,-3.109756,-2.134146,16.331251,-36.325001,2.937500,0.0,1.000000,0.000000,0.000000,0.000000
1782117445.072288,1944499,0.972168,-0.030273,-0.265625,-12.926829,-4.207317,-2.682927,16.431250,-36.225002,2.937500,0.0,1.000000,0.000000,0.000000,0.000000
1782117445.082288,1944509,0.972168,-0.037109,-0.275879,-13.963415,-3.475610,-2.682927,16.431250,-36.225002,2.937500,0.0,1.000000,0.000000,0.000000,0.000000
1782117445.092288,1944519,0.957520,-0.036133,-0.283203,-14.756098,-1.463415,-2.073171,16.587500,-36.174999,3.012500,0.0,1.000000,0.000000,0.000000,0.000000
1782117445.103288,1944530,0.929199,-0.028809,-0.289551,-15.914635,-0.792683,-1.097561,16.587500,-36.174999,3.012500,0.0,1.000000,0.000000,0.000000,0.000000
1782117445.112288,1944539,0.913086,-0.031250,-0.295410,-17.439024,-2.621951,-0.731707,16.656250,-36.174999,3.118750,0.0,1.000000,0.000000,0.000000,0.000000
1782117445.122288,1944549,0.921875,-0.034180,-0.313477,-19.024391,-5.853659,-0.487805,16.656250,-36.174999,3.118750,0.0,1.000000,0.000000,0.000000,0.000000
1782117445.132288,1944559,0.943359,-0.031250,-0.328613,-20.243902,-7.012195,-0.243902,16.668751,-36.068752,3.200000,0.0,1.000000,0.000000,0.000000,0.000000
1782117445.144288,1944571,0.946289,-0.033691,-0.331543,-21.707317,-5.975610,0.243902,16.668751,-36.068752,3.200000,0.0,1.000000,0.000000,0.000000,0.000000
1782117445.152288,1944579,0.940430,-0.039551,-0.333984,-22.682928,-4.329268,1.158537,16.756250,-36.043751,3.281250,0.0,1.000000,0.000000,0.000000,0.000000
1782117445.163288,1944590,0.942871,-0.042969,-0.344238,-23.841463,-4.024390,1.280488,16.756250,-36.043751,3.281250,0.0,1.000000,0.000000,0.000000,0.000000
1782117445.172288,1944599,0.973145,-0.049805,-0.358887,-24.268293,-4.207317,0.792683,16.681250,-36.100002,3.418750,0.0,1.000000,0.000000,0.000000,0.000000
1782117445.185288,1944612,0.997070,-0.069336,-0.369141,-23.658537,-1.585366,0.609756,16.681250,-36.100002,3.418750,0.0,1.000000,0.000000,0.000000,0.000000
1782117445.192288,1944619,0.985840,-0.079102,-0.375000,-22.378050,2.378049,1.707317,16.806250,-36.006252,3.475000,0.0,1.000000,0.000000,0.000000,0.000000
1782117445.203288,1944630,0.950195,-0.072266,-0.374512,-21.829269,4.695122,3.597561,16.806250,-36.006252,3.475000,0.0,1.000000,0.000000,0.000000,0.000000
1782117445.213288,1944640,0.931152,-0.047852,-0.385742,-22.439024,5.304878,5.914634,16.693750,-36.131252,3.700000,0.0,1.000000,0.000000,0.000000,0.000000
1782117445.225288,1944652,0.912598,-0.009766,-0.395996,-23.170732,6.768293,6.646342,16.693750,-36.131252,3.700000,0.0,1.000000,0.000000,0.000000,0.000000
1782117445.232288,1944659,0.906250,0.015137,-0.379883,-23.048780,6.219512,7.012195,16.625000,-36.125000,3.887500,0.0,1.000000,0.000000,0.000000,0.000000
1782117445.242288,1944669,0.894531,0.028320,-0.372070,-22.500000,4.634146,7.621952,16.625000,-36.125000,3.887500,0.0,1.000000,0.000000,0.000000,0.000000
1782117445.252288,1944679,0.865234,0.036133,-0.373047,-23.231709,2.012195,7.804878,16.556250,-36.106251,4.150000,0.0,1.000000,0.000000,0.000000,0.000000
1782117445.262288,1944689,0.838379,0.051270,-0.395508,-26.707317,-2.134146,7.926829,16.556250,-36.106251,4.150000,0.0,1.000000,0.000000,0.000000,0.000000
1782117445.273288,1944700,0.838867,0.053223,-0.402832,-31.524391,-7.865854,7.804878,16.406250,-36.200001,4.262500,0.0,1.000000,0.000000,0.000000,0.000000
1782117445.282288,1944709,0.878418,0.036133,-0.398438,-35.853661,-13.536586,5.853659,16.406250,-36.200001,4.262500,0.0,1.000000,0.000000,0.000000,0.000000
1782117445.292288,1944719,0.924805,-0.011719,-0.401367,-36.890244,-16.158537,3.536585,16.512501,-36.056252,4.206250,0.0,1.000000,0.000000,0.000000,0.000000
1782117445.304288,1944731,0.937012,-0.069336,-0.400879,-34.024391,-15.060976,2.500000,16.512501,-36.056252,4.206250,0.0,1.000000,0.000000,0.000000,0.000000
1782117445.314288,1944741,0.924805,-0.112793,-0.393066,-29.146341,-14.939025,2.256098,16.400000,-36.218750,4.312500,0.0,1.000000,0.000000,0.000000,0.000000
1782117445.322288,1944749,0.914551,-0.129395,-0.400391,-23.414635,-16.097561,1.890244,16.400000,-36.218750,4.312500,0.0,1.000000,0.000000,0.000000,0.000000
1782117445.332288,1944759,0.924316,-0.110840,-0.397461,-17.560976,-17.195122,0.609756,16.368750,-36.243752,4.162500,0.0,1.000000,0.000000,0.000000,0.000000
1782117445.345288,1944772,0.944824,-0.088867,-0.391113,-13.231708,-17.682928,-0.243902,16.368750,-36.243752,4.162500,0.0,1.000000,0.000000,0.000000,0.000000
1782117445.352288,1944779,0.950195,-0.061523,-0.378418,-9.451220,-14.939025,-0.853659,16.318750,-36.318752,4.075000,0.0,1.000000,0.000000,0.000000,0.000000
1782117445.362288,1944789,0.932129,-0.043945,-0.368652,-7.073171,-12.804878,-0.548781,16.318750,-36.318752,4.075000,0.0,1.000000,0.000000,0.000000,0.000000
1782117445.372288,1944799,0.914551,-0.028320,-0.351562,-5.426829,-12.500000,0.060976,16.293751,-36.356251,3.893750,0.0,1.000000,0.000000,0.000000,0.000000
1782117445.383288,1944810,0.910645,-0.018066,-0.337402,-5.487805,-13.170732,0.670732,16.293751,-36.356251,3.893750,0.0,1.000000,0.000000,0.000000,0.000000
1782117445.392288,1944819,0.917480,-0.011230,-0.338867,-6.463415,-14.451220,0.853659,16.318750,-36.406250,3.725000,0.0,1.000000,0.000000,0.000000,0.000000
1782117445.402288,1944829,0.931641,-0.010254,-0.340332,-8.170732,-14.695123,0.853659,16.318750,-36.406250,3.725000,0.0,1.000000,0.000000,0.000000,0.000000
1782117445.412288,1944839,0.934082,-0.020996,-0.342773,-9.634147,-13.536586,0.914634,16.187500,-36.475002,3.656250,0.0,1.000000,0.000000,0.000000,0.000000
1782117445.425288,1944852,0.922363,-0.036621,-0.349609,-10.731708,-12.378049,1.463415,16.206251,-36.412502,3.387500,0.0,1.000000,0.000000,0.000000,0.000000
1782117445.432288,1944859,0.906738,-0.049805,-0.362793,-10.670732,-12.439025,1.768293,16.206251,-36.412502,3.387500,0.0,1.000000,0.000000,0.000000,0.000000
1782117445.442288,1944869,0.909180,-0.049316,-0.372070,-10.792684,-12.682927,1.768293,16.206251,-36.412502,3.387500,0.0,1.000000,0.000000,0.000000,0.000000
1782117445.452288,1944879,0.940918,-0.045410,-0.390625,-10.548780,-13.048780,0.609756,16.225000,-36.481251,3.306250,0.0,1.000000,0.000000,0.000000,0.000000
1782117445.462288,1944889,0.945801,-0.044434,-0.401367,-9.451220,-9.939025,0.000000,16.225000,-36.481251,3.306250,0.0,1.000000,0.000000,0.000000,0.000000
1782117445.472288,1944899,0.891602,-0.045898,-0.405273,-8.841464,-7.743903,0.548781,16.212500,-36.400002,3.087500,0.0,1.000000,0.000000,0.000000,0.000000
1782117445.482288,1944909,0.858398,-0.042480,-0.430176,-9.085366,-10.182927,1.036585,16.212500,-36.400002,3.087500,0.0,1.000000,0.000000,0.000000,0.000000
1782117445.492288,1944919,0.874023,-0.023926,-0.459961,-8.597561,-12.682927,0.914634,16.181250,-36.450001,3.068750,0.0,1.000000,0.000000,0.000000,0.000000
1782117445.502288,1944929,0.881836,-0.017578,-0.475098,-6.036585,-13.353659,-1.768293,16.181250,-36.450001,3.068750,0.0,1.000000,0.000000,0.000000,0.000000
1782117445.512288,1944939,0.906250,-0.030762,-0.466309,-3.231707,-14.695123,-2.134146,16.156250,-36.424999,2.843750,0.0,1.000000,0.000000,0.000000,0.000000
1782117445.522288,1944949,0.920898,-0.033691,-0.448242,-1.036585,-12.926829,-1.707317,16.156250,-36.424999,2.843750,0.0,1.000000,0.000000,0.000000,0.000000
1782117445.532288,1944959,0.923828,-0.031250,-0.437012,0.243902,-11.097561,-1.829268,16.218750,-36.250000,2.562500,0.0,1.000000,0.000000,0.000000,0.000000
1782117445.542288,1944969,0.935547,-0.025391,-0.440430,0.975610,-10.670732,-1.890244,16.218750,-36.250000,2.562500,0.0,1.000000,0.000000,0.000000,0.000000
1782117445.553288,1944980,0.941406,-0.007324,-0.442871,1.097561,-10.304878,-1.463415,16.125000,-36.431252,2.518750,0.0,1.000000,0.000000,0.000000,0.000000
1782117445.562288,1944989,0.946289,0.012695,-0.425781,1.524390,-9.207317,-0.914634,16.125000,-36.431252,2.518750,0.0,1.000000,0.000000,0.000000,0.000000
1782117445.573288,1945000,0.931641,0.022949,-0.409668,1.829268,-8.048780,-1.402439,16.087500,-36.368752,2.250000,0.0,1.000000,0.000000,0.000000,0.000000
1782117445.582288,1945009,0.947754,0.031250,-0.396973,0.975610,-8.902439,-1.402439,16.087500,-36.368752,2.250000,0.0,1.000000,0.000000,0.000000,0.000000
1782117445.593288,1945020,0.958496,0.032227,-0.395996,-1.219512,-8.048780,-0.975610,16.093750,-36.431252,2.187500,0.0,1.000000,0.000000,0.000000,0.000000
1782117445.602288,1945029,0.988281,0.018555,-0.404785,-4.085366,-6.402439,1.524390,16.093750,-36.431252,2.187500,0.0,1.000000,0.000000,0.000000,0.000000
1782117445.612288,1945039,0.904785,0.002441,-0.435547,-7.073171,-1.524390,2.560976,16.131250,-36.293751,2.087500,0.0,1.000000,0.000000,0.000000,0.000000
1782117445.622288,1945049,0.856445,-0.001953,-0.469238,-4.390244,-6.829268,-2.378049,16.131250,-36.293751,2.087500,0.0,1.000000,0.000000,0.000000,0.000000
1782117445.633288,1945060,0.926270,-0.034180,-0.469238,-3.109756,-10.365854,-0.243902,16.125000,-36.306252,2.037500,0.0,1.000000,0.000000,0.000000,0.000000
1782117445.642288,1945069,0.908203,-0.040039,-0.468750,-0.731707,-5.000000,0.000000,16.125000,-36.306252,2.037500,0.0,1.000000,0.000000,0.000000,0.000000
1782117445.652288,1945079,0.865723,-0.041992,-0.463379,1.280488,-4.390244,-0.487805,16.087500,-36.299999,1.925000,0.0,1.000000,0.000000,0.000000,0.000000
1782117445.662288,1945089,0.867188,-0.036621,-0.469727,2.073171,-5.853659,-0.304878,16.087500,-36.299999,1.925000,0.0,1.000000,0.000000,0.000000,0.000000
1782117445.672288,1945099,0.875000,-0.022949,-0.480957,1.768293,-5.365854,-0.426829,16.031250,-36.299999,1.837500,0.0,1.000000,0.000000,0.000000,0.000000
1782117445.682288,1945109,0.875000,-0.008301,-0.494629,1.219512,-4.634146,-0.487805,16.031250,-36.299999,1.837500,0.0,1.000000,0.000000,0.000000,0.000000
1782117445.692288,1945119,0.875000,0.005371,-0.494141,1.158537,-4.024390,-0.304878,16.062500,-36.256252,1.756250,0.0,1.000000,0.000000,0.000000,0.000000
1782117445.702288,1945129,0.871582,0.022461,-0.484863,1.097561,-3.902439,-0.060976,16.062500,-36.256252,1.756250,0.0,1.000000,0.000000,0.000000,0.000000
1782117445.712288,1945139,0.873535,0.035645,-0.471680,1.219512,-3.353659,-0.365854,15.962501,-36.312500,1.637500,0.0,1.000000,0.000000,0.000000,0.000000
1782117445.723288,1945150,0.881836,0.044922,-0.459961,1.097561,-3.048780,-0.609756,15.962501,-36.312500,1.637500,0.0,1.000000,0.000000,0.000000,0.000000
1782117445.734288,1945161,0.875000,0.043457,-0.456055,-0.121951,-2.439024,-0.426829,15.981250,-36.231251,1.600000,0.0,1.000000,0.000000,0.000000,0.000000
1782117445.742288,1945169,0.873535,0.038574,-0.455078,-1.646341,-2.317073,-0.304878,15.981250,-36.231251,1.600000,0.0,1.000000,0.000000,0.000000,0.000000
1782117445.754288,1945181,0.873047,0.010742,-0.457031,-2.682927,-2.682927,-0.914634,16.118750,-36.025002,1.418750,0.0,1.000000,0.000000,0.000000,0.000000
1782117445.763288,1945190,0.873047,0.010742,-0.457031,-2.682927,-2.682927,-0.914634,16.118750,-36.025002,1.418750,0.0,1.000000,0.000000,0.000000,0.000000
1782117445.772288,1945199,0.877441,-0.004883,-0.459961,-1.341463,-2.134146,-1.463415,16.162500,-35.993752,1.362500,0.0,1.000000,0.000000,0.000000,0.000000
1782117445.782288,1945209,0.869141,-0.019043,-0.463867,0.609756,-1.646341,-1.829268,16.162500,-35.993752,1.362500,0.0,1.000000,0.000000,0.000000,0.000000
1782117445.793288,1945220,0.866699,-0.026367,-0.464355,2.804878,-2.134146,-1.951220,16.118750,-36.012501,1.418750,0.0,1.000000,0.000000,0.000000,0.000000
1782117445.803288,1945230,0.870605,-0.024414,-0.456543,4.695122,-2.378049,-2.256098,16.087500,-36.181252,1.456250,0.0,1.000000,0.000000,0.000000,0.000000
1782117445.812288,1945239,0.865723,-0.012207,-0.454102,5.304878,-3.719512,-2.804878,16.087500,-36.181252,1.456250,0.0,1.000000,0.000000,0.000000,0.000000
1782117445.822288,1945249,0.874023,-0.011230,-0.461426,4.878049,-4.695122,-3.231707,16.087500,-36.181252,1.456250,0.0,1.000000,0.000000,0.000000,0.000000
1782117445.833288,1945260,0.877441,-0.013672,-0.466797,4.512195,-5.060976,-3.170732,16.156250,-36.131252,1.362500,0.0,1.000000,0.000000,0.000000,0.000000
1782117445.842288,1945269,0.877930,-0.012695,-0.464355,4.268293,-5.365854,-2.987805,16.156250,-36.131252,1.362500,0.0,1.000000,0.000000,0.000000,0.000000
1782117445.852288,1945279,0.882324,-0.010254,-0.454102,4.329268,-5.731708,-2.926829,16.231251,-36.025002,1.193750,0.0,1.000000,0.000000,0.000000,0.000000
1782117445.862288,1945289,0.892578,-0.004883,-0.445312,4.207317,-5.914634,-3.048780,16.125000,-36.137501,1.100000,0.0,1.000000,0.000000,0.000000,0.000000
1782117445.872288,1945299,0.906250,0.000977,-0.435547,4.024390,-5.853659,-3.231707,16.125000,-36.137501,1.100000,0.0,1.000000,0.000000,0.000000,0.000000
1782117445.882288,1945309,0.917480,0.003906,-0.430176,3.292683,-5.792683,-3.048780,16.243750,-36.031250,0.975000,0.0,1.000000,0.000000,0.000000,0.000000
1782117445.892288,1945319,0.920898,0.004883,-0.427734,2.012195,-5.731708,-2.682927,16.243750,-36.031250,0.975000,0.0,1.000000,0.000000,0.000000,0.000000
1782117445.902288,1945329,0.923340,0.002930,-0.425293,0.853659,-5.609756,-2.317073,16.212500,-36.156250,0.956250,0.0,1.000000,0.000000,0.000000,0.000000
1782117445.914288,1945341,0.923828,-0.001953,-0.428223,-0.243902,-5.365854,-1.829268,16.212500,-36.156250,0.956250,0.0,1.000000,0.000000,0.000000,0.000000
1782117445.922288,1945349,0.930176,-0.002930,-0.426758,-0.914634,-4.817073,-1.280488,16.425001,-35.793751,0.687500,0.0,1.000000,0.000000,0.000000,0.000000
1782117445.933288,1945360,0.933105,-0.000977,-0.421875,-1.219512,-3.536585,-0.975610,16.425001,-35.793751,0.687500,0.0,1.000000,0.000000,0.000000,0.000000
1782117445.942288,1945369,0.927734,-0.003418,-0.414551,-1.524390,-2.378049,-0.670732,16.243750,-36.106251,0.793750,0.0,1.000000,0.000000,0.000000,0.000000
1782117445.953288,1945380,0.918945,-0.004395,-0.411621,-2.012195,-1.646341,-0.243902,16.243750,-36.106251,0.793750,0.0,1.000000,0.000000,0.000000,0.000000
1782117445.962288,1945389,0.916016,-0.007324,-0.417480,-2.682927,-1.585366,0.060976,16.306250,-35.987499,0.787500,0.0,1.000000,0.000000,0.000000,0.000000
1782117445.972288,1945399,0.913574,-0.012207,-0.428223,-3.536585,-1.097561,0.365854,16.306250,-35.987499,0.787500,0.0,1.000000,0.000000,0.000000,0.000000
1782117445.982288,1945409,0.909180,-0.016113,-0.437988,-3.902439,-0.548781,0.670732,16.256250,-36.174999,0.862500,0.0,1.000000,0.000000,0.000000,0.000000
1782117445.992288,1945419,0.909180,-0.021484,-0.437500,-3.475610,-0.426829,0.853659,16.256250,-36.174999,0.862500,0.0,1.000000,0.000000,0.000000,0.000000
1782117446.002288,1945429,0.905762,-0.022461,-0.435547,-2.804878,0.365854,1.158537,16.356251,-36.056252,0.793750,0.0,1.000000,0.000000,0.000000,0.000000
1782117446.012288,1945439,0.897461,-0.019043,-0.437500,-2.439024,0.792683,1.219512,16.356251,-36.056252,0.793750,0.0,1.000000,0.000000,0.000000,0.000000
1782117446.022288,1945449,0.891602,-0.009277,-0.442383,-2.439024,0.731707,1.158537,16.256250,-36.193752,0.856250,0.0,1.000000,0.000000,0.000000,0.000000
1782117446.033288,1945460,0.887695,-0.005371,-0.451660,-2.682927,0.365854,0.914634,16.256250,-36.193752,0.856250,0.0,1.000000,0.000000,0.000000,0.000000
1782117446.042288,1945469,0.888184,0.002930,-0.454102,-2.743902,0.000000,0.792683,16.431250,-35.831249,0.750000,0.0,1.000000,0.000000,0.000000,0.000000
1782117446.052288,1945479,0.893066,0.005371,-0.454590,-2.926829,-0.182927,0.670732,16.431250,-35.831249,0.750000,0.0,1.000000,0.000000,0.000000,0.000000
1782117446.062288,1945489,0.892578,0.006348,-0.448730,-2.926829,0.000000,0.731707,16.212500,-36.162502,0.906250,0.0,1.000000,0.000000,0.000000,0.000000
1782117446.072288,1945499,0.890625,0.007324,-0.439941,-3.170732,-0.182927,0.731707,16.212500,-36.162502,0.906250,0.0,1.000000,0.000000,0.000000,0.000000
1782117446.082288,1945509,0.888672,0.004883,-0.439453,-3.780488,-0.182927,0.670732,16.262501,-36.018749,0.868750,0.0,1.000000,0.000000,0.000000,0.000000
1782117446.092288,1945519,0.883789,0.005371,-0.445312,-4.573171,-0.548781,0.365854,16.262501,-36.018749,0.868750,0.0,1.000000,0.000000,0.000000,0.000000
1782117446.102288,1945529,0.893555,-0.003906,-0.452148,-5.121951,-1.280488,-0.060976,16.275000,-36.181252,0.975000,0.0,1.000000,0.000000,0.000000,0.000000
1782117446.112288,1945539,0.896484,-0.014160,-0.459961,-5.060976,-1.402439,0.000000,16.275000,-36.181252,0.975000,0.0,1.000000,0.000000,0.000000,0.000000
1782117446.122288,1945549,0.898926,-0.021973,-0.457520,-4.634146,-1.646341,0.365854,16.437500,-35.906250,0.856250,0.0,1.000000,0.000000,0.000000,0.000000
1782117446.133288,1945560,0.898926,-0.021973,-0.447266,-3.841464,-1.402439,0.731707,16.437500,-35.906250,0.856250,0.0,1.000000,0.000000,0.000000,0.000000
1782117446.142288,1945569,0.899414,-0.014160,-0.444336,-3.353659,-1.219512,0.853659,16.293751,-36.137501,1.012500,0.0,1.000000,0.000000,0.000000,0.000000
1782117446.154288,1945581,0.898438,-0.004395,-0.441895,-3.475610,-1.219512,0.731707,16.293751,-36.137501,1.012500,0.0,1.000000,0.000000,0.000000,0.000000
1782117446.163288,1945590,0.899414,0.001953,-0.441895,-3.902439,-1.097561,0.609756,16.425001,-35.893749,0.825000,0.0,1.000000,0.000000,0.000000,0.000000
1782117446.172288,1945599,0.902344,0.005859,-0.442383,-4.207317,-0.792683,0.426829,16.425001,-35.893749,0.825000,0.0,1.000000,0.000000,0.000000,0.000000
1782117446.182288,1945609,0.900879,0.001953,-0.441406,-4.085366,-0.609756,0.487805,16.293751,-36.143749,0.956250,0.0,1.000000,0.000000,0.000000,0.000000
1782117446.193288,1945620,0.903809,-0.002930,-0.443848,-3.841464,-0.365854,0.670732,16.293751,-36.143749,0.956250,0.0,1.000000,0.000000,0.000000,0.000000
1782117446.202288,1945629,0.903320,-0.001953,-0.443848,-3.414634,0.121951,0.853659,16.362501,-36.106251,0.962500,0.0,1.000000,0.000000,0.000000,0.000000
1782117446.212288,1945639,0.896973,-0.004395,-0.440918,-2.804878,0.304878,0.975610,16.362501,-36.106251,0.962500,0.0,1.000000,0.000000,0.000000,0.000000
1782117446.223288,1945650,0.893555,-0.006348,-0.440430,-2.195122,0.243902,0.853659,16.300001,-36.193752,1.031250,0.0,1.000000,0.000000,0.000000,0.000000
1782117446.232288,1945659,0.897949,-0.007324,-0.437988,-2.012195,0.182927,0.548781,16.300001,-36.193752,1.031250,0.0,1.000000,0.000000,0.000000,0.000000
1782117446.242288,1945669,0.901855,-0.010742,-0.440918,-2.134146,0.731707,0.304878,16.512501,-35.825001,0.850000,0.0,1.000000,0.000000,0.000000,0.000000
1782117446.252288,1945679,0.897949,-0.015625,-0.442383,-2.134146,1.280488,0.304878,16.512501,-35.825001,0.850000,0.0,1.000000,0.000000,0.000000,0.000000
1782117446.262288,1945689,0.894043,-0.018555,-0.445312,-1.951220,1.219512,0.365854,16.243750,-36.200001,1.143750,0.0,1.000000,0.000000,0.000000,0.000000
1782117446.273288,1945700,0.895020,-0.017578,-0.441895,-1.646341,0.975610,0.304878,16.243750,-36.200001,1.143750,0.0,1.000000,0.000000,0.000000,0.000000
1782117446.282288,1945709,0.895508,-0.015625,-0.432617,-1.341463,1.158537,0.365854,16.387501,-36.049999,1.075000,0.0,1.000000,0.000000,0.000000,0.000000
1782117446.292288,1945719,0.893066,-0.019043,-0.429688,-0.914634,1.158537,0.426829,16.387501,-36.049999,1.075000,0.0,1.000000,0.000000,0.000000,0.000000
1782117446.303288,1945730,0.895020,-0.022461,-0.425293,-0.670732,0.975610,0.609756,16.268751,-36.225002,1.206250,0.0,1.000000,0.000000,0.000000,0.000000
1782117446.313288,1945740,0.897949,-0.022461,-0.423340,-0.853659,1.158537,0.731707,16.268751,-36.225002,1.206250,0.0,1.000000,0.000000,0.000000,0.000000
1782117446.322288,1945749,0.902344,-0.022461,-0.428223,-1.158537,1.036585,0.731707,16.318750,-36.174999,1.175000,0.0,1.000000,0.000000,0.000000,0.000000
1782117446.332288,1945759,0.911133,-0.022461,-0.432129,-1.341463,1.097561,0.670732,16.318750,-36.174999,1.175000,0.0,1.000000,0.000000,0.000000,0.000000
1782117446.342288,1945769,0.916992,-0.021484,-0.436035,-1.280488,1.524390,0.792683,16.318750,-36.281250,1.200000,0.0,1.000000,0.000000,0.000000,0.000000
1782117446.352288,1945779,0.913086,-0.017578,-0.428711,-0.731707,1.890244,0.914634,16.318750,-36.281250,1.200000,0.0,1.000000,0.000000,0.000000,0.000000
1782117446.362288,1945789,0.908203,-0.019043,-0.418945,-0.182927,2.073171,0.792683,16.331251,-36.218750,1.231250,0.0,1.000000,0.000000,0.000000,0.000000
1782117446.372288,1945799,0.903809,-0.017578,-0.416992,0.060976,2.134146,0.731707,16.331251,-36.218750,1.231250,0.0,1.000000,0.000000,0.000000,0.000000
1782117446.383288,1945810,0.903320,-0.016602,-0.415527,0.121951,1.829268,0.304878,16.256250,-36.343750,1.318750,0.0,1.000000,0.000000,0.000000,0.000000
1782117446.392288,1945819,0.906250,-0.020020,-0.423828,0.060976,1.524390,-0.060976,16.256250,-36.343750,1.318750,0.0,1.000000,0.000000,0.000000,0.000000
1782117446.402288,1945829,0.911621,-0.021484,-0.429688,0.304878,1.402439,-0.304878,16.300001,-36.275002,1.300000,0.0,1.000000,0.000000,0.000000,0.000000
1782117446.412288,1945839,0.909668,-0.022461,-0.435547,0.914634,1.341463,-0.304878,16.300001,-36.275002,1.300000,0.0,1.000000,0.000000,0.000000,0.000000
1782117446.422288,1945849,0.908691,-0.023926,-0.435059,1.524390,0.853659,-0.182927,16.250000,-36.281250,1.337500,0.0,1.000000,0.000000,0.000000,0.000000
1782117446.432288,1945859,0.910645,-0.024902,-0.428711,2.012195,0.731707,-0.060976,16.250000,-36.281250,1.337500,0.0,1.000000,0.000000,0.000000,0.000000
1782117446.442288,1945869,0.909180,-0.022461,-0.419922,2.195122,0.853659,0.121951,16.362501,-36.237499,1.325000,0.0,1.000000,0.000000,0.000000,0.000000
1782117446.452288,1945879,0.908691,-0.016602,-0.412109,1.890244,1.036585,0.060976,16.362501,-36.237499,1.325000,0.0,1.000000,0.000000,0.000000,0.000000
1782117446.462288,1945889,0.906250,-0.012207,-0.409668,1.341463,1.280488,-0.060976,16.250000,-36.281250,1.381250,0.0,1.000000,0.000000,0.000000,0.000000
1782117446.472288,1945899,0.903809,-0.011230,-0.408691,0.792683,1.219512,-0.243902,16.250000,-36.281250,1.381250,0.0,1.000000,0.000000,0.000000,0.000000
1782117446.482288,1945909,0.908203,-0.012695,-0.413574,0.426829,1.158537,-0.426829,16.268751,-36.337502,1.375000,0.0,1.000000,0.000000,0.000000,0.000000
1782117446.492288,1945919,0.911133,-0.015625,-0.418457,0.426829,1.341463,-0.487805,16.268751,-36.337502,1.375000,0.0,1.000000,0.000000,0.000000,0.000000
1782117446.502288,1945929,0.914551,-0.015625,-0.417969,0.609756,1.280488,-0.182927,16.325001,-36.312500,1.356250,0.0,1.000000,0.000000,0.000000,0.000000
1782117446.512288,1945939,0.914551,-0.012207,-0.416504,0.548781,1.585366,0.060976,16.325001,-36.312500,1.356250,0.0,1.000000,0.000000,0.000000,0.000000
1782117446.523288,1945950,0.908691,-0.011230,-0.415527,0.670732,1.585366,0.121951,16.306250,-36.268749,1.412500,0.0,1.000000,0.000000,0.000000,0.000000
1782117446.532288,1945959,0.907715,-0.012695,-0.414551,0.670732,1.402439,0.243902,16.306250,-36.268749,1.412500,0.0,1.000000,0.000000,0.000000,0.000000
1782117446.544288,1945971,0.903320,-0.013184,-0.413086,0.548781,1.524390,0.304878,16.275000,-36.356251,1.487500,0.0,1.000000,0.000000,0.000000,0.000000
1782117446.553288,1945980,0.902344,-0.017090,-0.415527,0.304878,1.280488,0.243902,16.275000,-36.356251,1.487500,0.0,1.000000,0.000000,0.000000,0.000000
1782117446.562288,1945989,0.905762,-0.022949,-0.419922,0.304878,1.280488,0.000000,16.368750,-36.225002,1.450000,0.0,1.000000,0.000000,0.000000,0.000000
1782117446.573288,1946000,0.907715,-0.023926,-0.424805,0.487805,1.280488,-0.060976,16.368750,-36.225002,1.450000,0.0,1.000000,0.000000,0.000000,0.000000
1782117446.582288,1946009,0.908203,-0.020508,-0.422363,0.914634,1.280488,-0.121951,16.325001,-36.299999,1.493750,0.0,1.000000,0.000000,0.000000,0.000000
1782117446.593288,1946020,0.911133,-0.017090,-0.419922,1.036585,1.341463,-0.304878,16.325001,-36.299999,1.493750,0.0,1.000000,0.000000,0.000000,0.000000
1782117446.603288,1946030,0.913086,-0.014160,-0.420898,1.097561,1.280488,-0.243902,16.256250,-36.268749,1.500000,0.0,1.000000,0.000000,0.000000,0.000000
1782117446.612288,1946039,0.911621,-0.011230,-0.420898,0.914634,1.341463,-0.121951,16.256250,-36.268749,1.500000,0.0,1.000000,0.000000,0.000000,0.000000
1782117446.622288,1946049,0.905273,-0.005859,-0.423340,0.731707,1.158537,-0.182927,16.250000,-36.393749,1.531250,0.0,1.000000,0.000000,0.000000,0.000000
1782117446.632288,1946059,0.905273,-0.005371,-0.423828,0.548781,0.731707,-0.426829,16.250000,-36.393749,1.531250,0.0,1.000000,0.000000,0.000000,0.000000
1782117446.643288,1946070,0.904785,-0.005371,-0.423828,0.487805,0.609756,-0.426829,16.368750,-36.287502,1.581250,0.0,1.000000,0.000000,0.000000,0.000000
1782117446.652288,1946079,0.900391,-0.007324,-0.422852,0.609756,0.426829,-0.365854,16.368750,-36.287502,1.581250,0.0,1.000000,0.000000,0.000000,0.000000
1782117446.662288,1946089,0.899414,-0.010254,-0.421387,0.731707,-0.182927,-0.609756,16.306250,-36.275002,1.506250,0.0,1.000000,0.000000,0.000000,0.000000
1782117446.672288,1946099,0.903809,-0.010742,-0.425781,0.914634,-0.487805,-0.853659,16.306250,-36.275002,1.506250,0.0,1.000000,0.000000,0.000000,0.000000
1782117446.683288,1946110,0.906738,-0.012207,-0.423828,1.036585,-0.426829,-1.158537,16.331251,-36.275002,1.462500,0.0,1.000000,0.000000,0.000000,0.000000
1782117446.692288,1946119,0.911133,-0.010742,-0.424805,1.036585,-0.609756,-1.280488,16.331251,-36.275002,1.462500,0.0,1.000000,0.000000,0.000000,0.000000
1782117446.702288,1946129,0.916504,-0.007324,-0.419434,1.097561,-0.243902,-1.341463,16.312500,-36.356251,1.543750,0.0,1.000000,0.000000,0.000000,0.000000
1782117446.713288,1946140,0.906250,-0.011719,-0.415039,2.317073,0.426829,-1.524390,16.312500,-36.356251,1.543750,0.0,1.000000,0.000000,0.000000,0.000000
1782117446.722288,1946149,0.906250,-0.011719,-0.415039,2.317073,0.426829,-1.524390,16.368750,-36.287502,1.462500,0.0,1.000000,0.000000,0.000000,0.000000
1782117446.733288,1946160,0.905273,-0.007812,-0.411133,3.902439,-0.121951,-1.768293,16.368750,-36.287502,1.462500,0.0,1.000000,0.000000,0.000000,0.000000
1782117446.742288,1946169,0.909180,-0.012207,-0.408691,4.268293,-0.304878,-1.829268,16.425001,-36.262501,1.525000,0.0,1.000000,0.000000,0.000000,0.000000
1782117446.754288,1946181,0.908691,-0.020508,-0.410156,4.146341,-0.365854,-1.768293,16.425001,-36.262501,1.525000,0.0,1.000000,0.000000,0.000000,0.000000
1782117446.763288,1946190,0.911133,-0.024414,-0.410645,3.780488,-0.548781,-1.402439,16.500000,-36.212502,1.406250,0.0,1.000000,0.000000,0.000000,0.000000
1782117446.773288,1946200,0.914062,-0.026855,-0.407227,3.475610,-0.365854,-1.158537,16.500000,-36.212502,1.406250,0.0,1.000000,0.000000,0.000000,0.000000
1782117446.782288,1946209,0.913086,-0.024902,-0.406738,2.987805,-0.304878,-0.670732,16.425001,-36.331249,1.456250,0.0,1.000000,0.000000,0.000000,0.000000
1782117446.792288,1946219,0.910645,-0.016602,-0.405273,2.439024,-0.304878,-0.548781,16.425001,-36.331249,1.456250,0.0,1.000000,0.000000,0.000000,0.000000
1782117446.803288,1946230,0.911133,-0.013184,-0.407227,1.951220,-0.426829,-0.609756,16.475000,-36.174999,1.375000,0.0,1.000000,0.000000,0.000000,0.000000
1782117446.812288,1946239,0.912109,-0.007324,-0.410645,1.585366,-0.365854,-0.426829,16.475000,-36.174999,1.375000,0.0,1.000000,0.000000,0.000000,0.000000
1782117446.822288,1946249,0.914062,-0.002441,-0.411621,1.341463,-0.487805,-0.304878,16.418751,-36.275002,1.418750,0.0,1.000000,0.000000,0.000000,0.000000
1782117446.832288,1946259,0.915039,-0.001465,-0.408691,1.036585,-0.487805,-0.182927,16.418751,-36.275002,1.418750,0.0,1.000000,0.000000,0.000000,0.000000
1782117446.843288,1946270,0.913086,-0.002930,-0.405273,0.487805,-0.365854,0.060976,16.468750,-36.262501,1.375000,0.0,1.000000,0.000000,0.000000,0.000000
1782117446.852288,1946279,0.903809,-0.004395,-0.409180,-0.121951,-0.487805,0.182927,16.468750,-36.262501,1.375000,0.0,1.000000,0.000000,0.000000,0.000000
1782117446.862288,1946289,0.903320,-0.010742,-0.413574,-0.365854,-1.097561,-0.060976,16.368750,-36.312500,1.431250,0.0,1.000000,0.000000,0.000000,0.000000
1782117446.873288,1946300,0.907715,-0.019531,-0.416504,-0.243902,-1.402439,-0.121951,16.368750,-36.312500,1.431250,0.0,1.000000,0.000000,0.000000,0.000000
1782117446.883288,1946310,0.911621,-0.028809,-0.420410,0.000000,-1.341463,-0.121951,16.431250,-36.293751,1.368750,0.0,1.000000,0.000000,0.000000,0.000000
1782117446.892288,1946319,0.912598,-0.030762,-0.427246,0.487805,-1.158537,-0.060976,16.431250,-36.293751,1.368750,0.0,1.000000,0.000000,0.000000,0.000000
1782117446.902288,1946329,0.907227,-0.030273,-0.432617,1.036585,-1.097561,-0.060976,16.531250,-36.231251,1.306250,0.0,1.000000,0.000000,0.000000,0.000000
1782117446.915288,1946342,0.904297,-0.031738,-0.426758,1.890244,-1.585366,-0.060976,16.531250,-36.231251,1.306250,0.0,1.000000,0.000000,0.000000,0.000000
1782117446.922288,1946349,0.901855,-0.032227,-0.421875,2.500000,-1.829268,0.000000,16.531250,-36.287502,1.300000,0.0,1.000000,0.000000,0.000000,0.000000
1782117446.932288,1946359,0.902832,-0.024902,-0.416992,2.865854,-1.890244,-0.060976,16.531250,-36.287502,1.300000,0.0,1.000000,0.000000,0.000000,0.000000
1782117446.942288,1946369,0.906738,-0.017578,-0.414551,2.865854,-1.829268,-0.243902,16.406250,-36.325001,1.331250,0.0,1.000000,0.000000,0.000000,0.000000
1782117446.953288,1946380,0.907227,-0.011719,-0.417969,2.500000,-1.524390,-0.304878,16.406250,-36.325001,1.331250,0.0,1.000000,0.000000,0.000000,0.000000
1782117446.962288,1946389,0.903320,-0.006348,-0.419434,1.951220,-1.463415,-0.243902,16.581251,-36.143749,1.143750,0.0,1.000000,0.000000,0.000000,0.000000
1782117446.972288,1946399,0.903320,-0.005371,-0.420410,1.768293,-1.585366,-0.243902,16.581251,-36.143749,1.143750,0.0,1.000000,0.000000,0.000000,0.000000
1782117446.983288,1946410,0.904785,-0.008789,-0.423340,1.524390,-2.195122,0.000000,16.431250,-36.368752,1.262500,0.0,1.000000,0.000000,0.000000,0.000000
1782117446.994288,1946421,0.904785,-0.015137,-0.418945,1.280488,-2.195122,0.243902,16.431250,-36.368752,1.262500,0.0,1.000000,0.000000,0.000000,0.000000
1782117447.003288,1946430,0.901367,-0.020020,-0.421387,0.975610,-2.256098,0.304878,16.443750,-36.331249,1.168750,0.0,1.000000,0.000000,0.000000,0.000000
1782117447.013288,1946440,0.899902,-0.020020,-0.424316,0.426829,-2.439024,0.365854,16.443750,-36.331249,1.168750,0.0,1.000000,0.000000,0.000000,0.000000
1782117447.023288,1946450,0.902344,-0.016602,-0.428223,-0.304878,-2.500000,0.426829,16.412500,-36.400002,1.150000,0.0,1.000000,0.000000,0.000000,0.000000
1782117447.033288,1946460,0.898438,-0.012695,-0.435547,-0.914634,-2.256098,0.304878,16.412500,-36.400002,1.150000,0.0,1.000000,0.000000,0.000000,0.000000
1782117447.042288,1946469,0.893555,-0.010742,-0.439453,-0.975610,-2.317073,-0.060976,16.437500,-36.312500,1.100000,0.0,1.000000,0.000000,0.000000,0.000000
1782117447.053288,1946480,0.892578,-0.017578,-0.441406,-0.365854,-2.621951,-0.243902,16.437500,-36.312500,1.100000,0.0,1.000000,0.000000,0.000000,0.000000
1782117447.062288,1946489,0.892578,-0.020020,-0.442383,0.243902,-3.170732,-0.182927,16.418751,-36.368752,1.093750,0.0,1.000000,0.000000,0.000000,0.000000
1782117447.073288,1946500,0.892578,-0.019043,-0.436035,0.792683,-3.414634,-0.121951,16.418751,-36.368752,1.093750,0.0,1.000000,0.000000,0.000000,0.000000
1782117447.082288,1946509,0.888184,-0.022949,-0.438965,0.792683,-3.536585,-0.304878,16.425001,-36.343750,1.081250,0.0,1.000000,0.000000,0.000000,0.000000
1782117447.093288,1946520,0.885254,-0.024414,-0.445801,0.792683,-3.963415,-0.304878,16.425001,-36.343750,1.081250,0.0,1.000000,0.000000,0.000000,0.000000
1782117447.102288,1946529,0.887207,-0.018066,-0.449707,0.914634,-4.451220,-0.426829,16.418751,-36.243752,0.962500,0.0,1.000000,0.000000,0.000000,0.000000
1782117447.114288,1946541,0.895508,-0.013184,-0.447754,0.609756,-4.756098,-0.670732,16.437500,-36.400002,0.937500,0.0,1.000000,0.000000,0.000000,0.000000
1782117447.123288,1946550,0.895508,-0.010254,-0.448730,0.182927,-4.573171,-0.792683,16.437500,-36.400002,0.937500,0.0,1.000000,0.000000,0.000000,0.000000
1782117447.132288,1946559,0.894531,-0.010254,-0.448730,0.060976,-4.390244,-0.853659,16.437500,-36.400002,0.937500,0.0,1.000000,0.000000,0.000000,0.000000
1782117447.142288,1946569,0.894043,-0.012695,-0.449219,0.243902,-4.573171,-0.914634,16.418751,-36.368752,0.900000,0.0,1.000000,0.000000,0.000000,0.000000
1782117447.154288,1946581,0.901855,-0.013184,-0.443848,0.670732,-4.939024,-0.853659,16.450001,-36.406250,0.868750,0.0,1.000000,0.000000,0.000000,0.000000
1782117447.162288,1946589,0.908203,-0.017090,-0.437500,1.219512,-4.878049,-0.975610,16.450001,-36.406250,0.868750,0.0,1.000000,0.000000,0.000000,0.000000
1782117447.173288,1946600,0.911133,-0.023438,-0.430176,1.890244,-4.390244,-0.975610,16.450001,-36.406250,0.868750,0.0,1.000000,0.000000,0.000000,0.000000
1782117447.182288,1946609,0.914551,-0.025391,-0.425781,2.317073,-4.024390,-1.097561,16.456251,-36.406250,0.762500,0.0,1.000000,0.000000,0.000000,0.000000
1782117447.195288,1946622,0.917969,-0.025391,-0.422852,2.500000,-3.353659,-1.158537,16.462500,-36.375000,0.700000,0.0,1.000000,0.000000,0.000000,0.000000
1782117447.202288,1946629,0.920410,-0.024414,-0.421387,2.500000,-2.865854,-1.219512,16.462500,-36.375000,0.700000,0.0,1.000000,0.000000,0.000000,0.000000
1782117447.212288,1946639,0.920410,-0.025879,-0.416504,2.500000,-2.195122,-1.036585,16.462500,-36.375000,0.700000,0.0,1.000000,0.000000,0.000000,0.000000
1782117447.222288,1946649,0.919922,-0.026367,-0.415039,2.256098,-1.402439,-0.914634,16.450001,-36.381252,0.675000,0.0,1.000000,0.000000,0.000000,0.000000
1782117447.235288,1946662,0.919434,-0.024902,-0.415039,1.951220,-0.731707,-0.548781,16.443750,-36.412502,0.618750,0.0,1.000000,0.000000,0.000000,0.000000
1782117447.242288,1946669,0.917480,-0.022949,-0.416504,1.097561,0.060976,-0.121951,16.443750,-36.412502,0.618750,0.0,1.000000,0.000000,0.000000,0.000000
1782117447.252288,1946679,0.914551,-0.020020,-0.420410,0.182927,0.548781,0.182927,16.443750,-36.412502,0.618750,0.0,1.000000,0.000000,0.000000,0.000000
1782117447.262288,1946689,0.915527,-0.020508,-0.423828,-0.548781,1.036585,0.426829,16.450001,-36.375000,0.606250,0.0,1.000000,0.000000,0.000000,0.000000
1782117447.274288,1946701,0.912598,-0.022461,-0.432617,-1.219512,1.707317,0.609756,16.450001,-36.375000,0.606250,0.0,1.000000,0.000000,0.000000,0.000000
1782117447.282288,1946709,0.901855,-0.020996,-0.438965,-1.890244,2.317073,0.975610,16.493750,-36.400002,0.625000,0.0,1.000000,0.000000,0.000000,0.000000
1782117447.292288,1946719,0.895020,-0.020508,-0.446777,-2.317073,2.378049,0.975610,16.493750,-36.400002,0.625000,0.0,1.000000,0.000000,0.000000,0.000000
1782117447.302288,1946729,0.893066,-0.017090,-0.453125,-2.682927,2.621951,0.975610,16.518751,-36.243752,0.587500,0.0,1.000000,0.000000,0.000000,0.000000
1782117447.314288,1946741,0.890625,-0.011230,-0.453613,-3.048780,2.682927,0.914634,16.387501,-36.475002,0.756250,0.0,1.000000,0.000000,0.000000,0.000000
1782117447.322288,1946749,0.890625,-0.008301,-0.452148,-3.292683,2.621951,0.853659,16.387501,-36.475002,0.756250,0.0,1.000000,0.000000,0.000000,0.000000
1782117447.332288,1946759,0.891113,-0.008789,-0.450195,-3.597561,2.560976,0.731707,16.387501,-36.475002,0.756250,0.0,1.000000,0.000000,0.000000,0.000000
1782117447.342288,1946769,0.892090,-0.009766,-0.452148,-3.780488,2.560976,0.731707,16.443750,-36.462502,0.831250,0.0,1.000000,0.000000,0.000000,0.000000
1782117447.354288,1946781,0.889648,-0.009766,-0.455566,-3.841464,2.560976,0.731707,16.450001,-36.431252,0.887500,0.0,1.000000,0.000000,0.000000,0.000000
1782117447.362288,1946789,0.891113,-0.011719,-0.453125,-3.780488,2.439024,0.731707,16.450001,-36.431252,0.887500,0.0,1.000000,0.000000,0.000000,0.000000
1782117447.372288,1946799,0.896973,-0.011230,-0.451172,-3.658537,2.682927,0.670732,16.450001,-36.431252,0.887500,0.0,1.000000,0.000000,0.000000,0.000000
1782117447.382288,1946809,0.899414,-0.012207,-0.444336,-3.536585,2.987805,0.853659,16.468750,-36.393749,0.931250,0.0,1.000000,0.000000,0.000000,0.000000
1782117447.394288,1946821,0.896973,-0.015137,-0.438477,-3.475610,3.109756,1.097561,16.387501,-36.531250,1.050000,0.0,1.000000,0.000000,0.000000,0.000000
1782117447.403288,1946830,0.898438,-0.020020,-0.435059,-3.292683,3.109756,1.158537,16.387501,-36.531250,1.050000,0.0,1.000000,0.000000,0.000000,0.000000
1782117447.412288,1946839,0.900391,-0.023926,-0.431641,-3.292683,3.353659,1.280488,16.437500,-36.424999,1.075000,0.0,1.000000,0.000000,0.000000,0.000000
1782117447.423288,1946850,0.899414,-0.026367,-0.431641,-3.353659,3.597561,1.402439,16.437500,-36.424999,1.075000,0.0,1.000000,0.000000,0.000000,0.000000
1782117447.435288,1946862,0.905273,-0.025391,-0.427246,-3.475610,3.597561,1.341463,16.387501,-36.506252,1.187500,0.0,1.000000,0.000000,0.000000,0.000000
1782117447.442288,1946869,0.905273,-0.025391,-0.427246,-3.475610,3.597561,1.341463,16.387501,-36.506252,1.187500,0.0,1.000000,0.000000,0.000000,0.000000
1782117447.452288,1946879,0.904785,-0.024902,-0.422852,-3.597561,3.963415,1.341463,16.381250,-36.512501,1.268750,0.0,1.000000,0.000000,0.000000,0.000000
1782117447.464288,1946891,0.900391,-0.022949,-0.425293,-3.719512,3.963415,1.219512,16.381250,-36.512501,1.268750,0.0,1.000000,0.000000,0.000000,0.000000
1782117447.476288,1946903,0.900879,-0.019043,-0.424805,-3.902439,3.841464,1.158537,16.393751,-36.475002,1.325000,0.0,1.000000,0.000000,0.000000,0.000000
1782117447.482288,1946909,0.898926,-0.018066,-0.422852,-4.024390,3.475610,0.975610,16.393751,-36.475002,1.325000,0.0,1.000000,0.000000,0.000000,0.000000
1782117447.493288,1946920,0.899414,-0.018066,-0.419434,-4.024390,2.926829,0.853659,16.331251,-36.500000,1.431250,0.0,1.000000,0.000000,0.000000,0.000000
1782117447.502288,1946929,0.898438,-0.018555,-0.414062,-3.902439,2.621951,0.731707,16.331251,-36.500000,1.431250,0.0,1.000000,0.000000,0.000000,0.000000
1782117447.515288,1946942,0.904785,-0.024414,-0.413574,-3.780488,1.890244,0.548781,16.331251,-36.543751,1.543750,0.0,1.000000,0.000000,0.000000,0.000000
1782117447.522288,1946949,0.910156,-0.030273,-0.411621,-3.475610,1.890244,0.365854,16.331251,-36.543751,1.543750,0.0,1.000000,0.000000,0.000000,0.000000
1782117447.532288,1946959,0.910156,-0.038086,-0.411133,-2.987805,2.012195,0.304878,16.375000,-36.462502,1.537500,0.0,1.000000,0.000000,0.000000,0.000000
1782117447.542288,1946969,0.912109,-0.042969,-0.412109,-2.012195,2.012195,0.182927,16.375000,-36.462502,1.537500,0.0,1.000000,0.000000,0.000000,0.000000
1782117447.555288,1946982,0.913574,-0.044434,-0.413086,-0.914634,2.256098,0.060976,16.481251,-36.312500,1.556250,0.0,1.000000,0.000000,0.000000,0.000000
1782117447.562288,1946989,0.912598,-0.044434,-0.412598,0.304878,2.439024,0.182927,16.481251,-36.312500,1.556250,0.0,1.000000,0.000000,0.000000,0.000000
1782117447.572288,1946999,0.910156,-0.043457,-0.410156,1.829268,2.378049,0.426829,16.325001,-36.493752,1.668750,0.0,1.000000,0.000000,0.000000,0.000000
1782117447.582288,1947009,0.913574,-0.041504,-0.406250,3.109756,2.012195,0.426829,16.325001,-36.493752,1.668750,0.0,1.000000,0.000000,0.000000,0.000000
1782117447.592288,1947019,0.917480,-0.035645,-0.406250,3.780488,2.134146,0.487805,16.318750,-36.506252,1.650000,0.0,1.000000,0.000000,0.000000,0.000000
1782117447.602288,1947029,0.918457,-0.026367,-0.408691,3.719512,2.439024,0.304878,16.318750,-36.506252,1.650000,0.0,1.000000,0.000000,0.000000,0.000000
1782117447.612288,1947039,0.916016,-0.013672,-0.414062,2.926829,2.560976,0.000000,16.343750,-36.475002,1.581250,0.0,1.000000,0.000000,0.000000,0.000000
1782117447.622288,1947049,0.909668,-0.006836,-0.419434,1.951220,2.560976,-0.243902,16.343750,-36.475002,1.581250,0.0,1.000000,0.000000,0.000000,0.000000
1782117447.634288,1947061,0.907715,-0.000977,-0.421875,1.036585,2.317073,-0.548781,16.275000,-36.512501,1.675000,0.0,1.000000,0.000000,0.000000,0.000000
1782117447.642288,1947069,0.907715,-0.002930,-0.427246,0.426829,1.829268,-1.097561,16.275000,-36.512501,1.675000,0.0,1.000000,0.000000,0.000000,0.000000
1782117447.652288,1947079,0.905762,-0.002930,-0.425293,0.365854,1.524390,-1.036585,16.325001,-36.493752,1.743750,0.0,1.000000,0.000000,0.000000,0.000000
1782117447.662288,1947089,0.903320,-0.005371,-0.418457,0.548781,1.158537,-0.914634,16.325001,-36.493752,1.743750,0.0,1.000000,0.000000,0.000000,0.000000
