Unix_Time_s,EMG_t_s,sample_idx,fs,gain,flags,emg_valid,ch1_raw_uV,ch1_filt_uV,ch1_env_uV,ch2_raw_uV,ch2_filt_uV,ch2_env_uV
1782117442.712288,0.000000,1888160,1000,12,0,1,455.216,13.028,11.412,430.498,0.147,11.046
1782117442.713288,0.001000,1888161,1000,12,0,1,451.973,9.235,11.409,433.069,1.669,10.979
1782117442.714288,0.002000,1888162,1000,12,0,1,459.371,13.921,11.559,433.357,3.199,10.981
1782117442.715288,0.003000,1888163,1000,12,0,1,463.791,18.911,11.864,429.345,-1.423,10.955
1782117442.716288,0.004000,1888164,1000,12,0,1,465.208,16.708,12.084,432.012,-0.420,10.668
1782117442.717288,0.005000,1888165,1000,12,0,1,463.551,14.024,12.211,431.916,0.138,9.635
1782117442.718288,0.006000,1888166,1000,12,0,1,458.795,6.818,12.089,432.636,-1.662,8.392
1782117442.719288,0.007000,1888167,1000,12,0,1,454.495,1.306,11.896,434.150,-0.556,7.822
1782117442.720288,0.008000,1888168,1000,12,0,1,454.207,-0.718,11.757,434.390,-2.020,7.702
1782117442.721288,0.009000,1888169,1000,12,0,1,458.531,1.824,11.749,434.198,-3.056,7.710
1782117442.722288,0.010000,1888170,1000,12,0,1,456.297,-0.358,11.653,436.648,-2.199,7.654
1782117442.723288,0.011000,1888171,1000,12,0,1,452.646,-6.212,11.500,434.702,-3.489,7.462
1782117442.724288,0.012000,1888172,1000,12,0,1,456.897,-3.551,11.456,434.606,-4.900,7.233
1782117442.725288,0.013000,1888173,1000,12,0,1,456.465,-3.487,11.441,435.207,-3.200,6.908
1782117442.726288,0.014000,1888174,1000,12,0,1,451.060,-9.404,11.510,435.207,-2.904,6.481
1782117442.727288,0.015000,1888175,1000,12,0,1,449.715,-10.771,11.605,435.807,-1.457,6.057
1782117442.728288,0.016000,1888176,1000,12,0,1,444.238,-13.348,11.703,434.150,-1.496,5.730
1782117442.729288,0.017000,1888177,1000,12,0,1,435.351,-19.759,12.002,431.700,-2.858,5.540
1782117442.730288,0.018000,1888178,1000,12,0,1,432.708,-19.331,12.294,432.372,-0.932,5.485
1782117442.731288,0.019000,1888179,1000,12,0,1,450.460,-1.957,12.259,432.540,0.772,5.484
1782117442.732288,0.020000,1888180,1000,12,0,1,457.738,10.288,12.311,436.047,4.056,5.514
1782117442.733288,0.021000,1888181,1000,12,0,1,444.046,-2.128,12.315,440.875,8.834,5.651
1782117442.734288,0.022000,1888182,1000,12,0,1,449.307,0.016,12.298,443.037,9.927,5.816
1782117442.735288,0.023000,1888183,1000,12,0,1,458.074,11.909,12.380,442.701,7.992,5.917
1782117442.736288,0.024000,1888184,1000,12,0,1,464.728,15.188,12.482,437.248,1.931,5.917
1782117442.737288,0.025000,1888185,1000,12,0,1,470.397,19.656,12.750,432.324,-4.512,5.939
1782117442.738288,0.026000,1888186,1000,12,0,1,460.164,9.047,12.812,431.988,-5.358,5.970
1782117442.739288,0.027000,1888187,1000,12,0,1,446.208,-6.458,12.844,433.885,-4.051,5.944
1782117442.740288,0.028000,1888188,1000,12,0,1,444.815,-8.431,12.899,433.885,-4.083,5.898
1782117442.741288,0.029000,1888189,1000,12,0,1,439.915,-10.122,12.975,434.150,-4.682,5.874
1782117442.742288,0.030000,1888190,1000,12,0,1,431.363,-17.209,13.185,435.879,-3.296,5.753
1782117442.743288,0.031000,1888191,1000,12,0,1,431.315,-15.800,13.358,437.224,-2.186,5.602
1782117442.744288,0.032000,1888192,1000,12,0,1,447.529,-0.450,13.329,434.246,-4.359,5.491
1782117442.745288,0.033000,1888193,1000,12,0,1,465.449,16.848,13.488,433.237,-5.557,5.446
1782117442.746288,0.034000,1888194,1000,12,0,1,470.421,19.594,13.742,435.519,-2.298,5.379
1782117442.747288,0.035000,1888195,1000,12,0,1,470.781,15.382,13.913,436.792,0.009,5.345
1782117442.748288,0.036000,1888196,1000,12,0,1,466.217,9.125,13.838,437.681,1.437,5.323
1782117442.749288,0.037000,1888197,1000,12,0,1,482.647,17.008,13.492,428.841,-4.016,5.238
1782117442.750288,0.038000,1888198,1000,12,0,1,505.971,37.024,14.178,422.379,-10.019,5.360
1782117442.751288,0.039000,1888199,1000,12,0,1,504.362,31.093,14.833,428.048,-2.671,5.242
1782117442.752288,0.040000,1888200,1000,12,0,1,493.793,14.149,14.968,430.883,2.809,4.918
1782117442.753288,0.041000,1888201,1000,12,0,1,486.443,3.977,14.897,433.261,4.597,4.480
1782117442.754288,0.042000,1888202,1000,12,0,1,474.336,-7.994,14.741,435.783,7.467,4.237
1782117442.755288,0.043000,1888203,1000,12,0,1,459.011,-21.291,15.009,439.698,9.325,4.391
1782117442.756288,0.044000,1888204,1000,12,0,1,454.111,-24.491,15.228,441.164,9.898,4.566
1782117442.757288,0.045000,1888205,1000,12,0,1,458.819,-16.343,14.735,440.635,6.868,4.588
1782117442.758288,0.046000,1888206,1000,12,0,1,469.868,-4.545,14.215,435.231,0.955,4.528
1782117442.759288,0.047000,1888207,1000,12,0,1,471.550,-0.162,13.878,433.381,-3.283,4.481
1782117442.760288,0.048000,1888208,1000,12,0,1,461.029,-9.987,13.900,437.368,-0.234,4.465
1782117442.761288,0.049000,1888209,1000,12,0,1,463.046,-10.074,13.926,438.113,0.251,4.462
1782117442.762288,0.050000,1888210,1000,12,0,1,468.403,-3.048,13.811,438.041,-1.329,4.466
1782117442.763288,0.051000,1888211,1000,12,0,1,468.956,-3.688,13.759,438.978,-0.711,4.461
1782117442.764288,0.052000,1888212,1000,12,0,1,462.254,-9.249,13.680,438.569,-1.453,4.442
1782117442.765288,0.053000,1888213,1000,12,0,1,457.474,-14.941,13.581,436.600,-2.943,4.457
1782117442.766288,0.054000,1888214,1000,12,0,1,456.945,-13.970,13.519,433.765,-4.996,4.512
1782117442.767288,0.055000,1888215,1000,12,0,1,463.022,-8.251,13.424,429.442,-7.354,4.631
1782117442.768288,0.056000,1888216,1000,12,0,1,471.238,0.418,13.389,427.160,-8.053,4.763
1782117442.769288,0.057000,1888217,1000,12,0,1,473.592,2.951,13.394,427.040,-5.749,4.831
1782117442.770288,0.058000,1888218,1000,12,0,1,470.805,-0.024,13.394,426.415,-4.133,4.858
1782117442.771288,0.059000,1888219,1000,12,0,1,470.541,-0.520,13.392,424.229,-4.075,4.873
1782117442.772288,0.060000,1888220,1000,12,0,1,472.006,1.562,13.393,424.109,-2.901,4.880
1782117442.773288,0.061000,1888221,1000,12,0,1,474.144,4.076,13.377,424.782,-0.627,4.856
1782117442.774288,0.062000,1888222,1000,12,0,1,475.801,6.083,13.395,427.640,2.266,4.817
1782117442.775288,0.063000,1888223,1000,12,0,1,476.282,6.805,13.421,426.343,2.234,4.806
1782117442.776288,0.064000,1888224,1000,12,0,1,479.621,9.067,13.416,424.517,-0.416,4.789
1782117442.777288,0.065000,1888225,1000,12,0,1,477.891,8.285,13.381,425.911,0.697,4.786
1782117442.778288,0.066000,1888226,1000,12,0,1,470.877,0.897,13.248,429.994,3.657,4.809
1782117442.779288,0.067000,1888227,1000,12,0,1,459.636,-8.337,13.003,431.195,4.345,4.831
1782117442.780288,0.068000,1888228,1000,12,0,1,446.833,-18.741,12.986,434.054,4.829,4.877
1782117442.781288,0.069000,1888229,1000,12,0,1,448.874,-16.120,13.181,431.916,2.877,4.893
1782117442.782288,0.070000,1888230,1000,12,0,1,461.101,-2.141,13.104,429.850,-1.042,4.861
1782117442.783288,0.071000,1888231,1000,12,0,1,469.748,6.313,13.131,427.904,-2.287,4.709
1782117442.784288,0.072000,1888232,1000,12,0,1,473.063,7.992,13.180,428.120,-2.475,4.509
1782117442.785288,0.073000,1888233,1000,12,0,1,472.318,5.247,13.093,426.511,-2.425,4.378
1782117442.786288,0.074000,1888234,1000,12,0,1,468.355,-0.187,12.916,424.902,-3.364,4.396
1782117442.787288,0.075000,1888235,1000,12,0,1,467.466,-2.885,12.619,425.670,-1.391,4.353
1782117442.788288,0.076000,1888236,1000,12,0,1,466.169,-3.854,12.566,426.463,0.890,4.289
1782117442.789288,0.077000,1888237,1000,12,0,1,465.905,-4.681,12.550,427.736,2.696,4.267
1782117442.790288,0.078000,1888238,1000,12,0,1,467.010,-2.866,12.500,427.232,3.569,4.258
1782117442.791288,0.079000,1888239,1000,12,0,1,466.746,-2.226,12.422,428.793,4.489,4.254
1782117442.792288,0.080000,1888240,1000,12,0,1,466.674,-1.487,12.183,426.991,4.209,4.270
1782117442.793288,0.081000,1888241,1000,12,0,1,463.455,-2.400,11.981,426.799,2.602,4.275
1782117442.794288,0.082000,1888242,1000,12,0,1,458.290,-5.656,12.008,430.066,5.690,4.306
1782117442.795288,0.083000,1888243,1000,12,0,1,457.810,-4.235,11.784,432.372,6.811,4.342
1782117442.796288,0.084000,1888244,1000,12,0,1,463.431,2.682,11.460,433.933,6.673,4.431
1782117442.797288,0.085000,1888245,1000,12,0,1,469.628,9.774,11.336,435.183,6.059,4.513
1782117442.798288,0.086000,1888246,1000,12,0,1,462.278,4.829,11.283,439.074,6.987,4.616
1782117442.799288,0.087000,1888247,1000,12,0,1,456.489,-2.361,11.029,439.746,6.340,4.668
1782117442.800288,0.088000,1888248,1000,12,0,1,454.855,-2.145,9.712,439.530,3.127,4.469
1782117442.801288,0.089000,1888249,1000,12,0,1,459.011,0.804,8.660,434.246,-2.027,4.463
1782117442.802288,0.090000,1888250,1000,12,0,1,466.385,7.712,8.496,432.516,-5.965,4.524
1782117442.803288,0.091000,1888251,1000,12,0,1,469.004,8.901,8.570,438.521,-0.421,4.478
1782117442.804288,0.092000,1888252,1000,12,0,1,477.795,12.694,8.683,440.203,1.743,4.358
1782117442.805288,0.093000,1888253,1000,12,0,1,480.654,14.334,8.392,437.320,-1.537,4.160
1782117442.806288,0.094000,1888254,1000,12,0,1,477.579,6.726,7.703,431.627,-5.892,4.005
1782117442.807288,0.095000,1888255,1000,12,0,1,474.913,2.088,7.354,426.559,-9.845,4.127
1782117442.808288,0.096000,1888256,1000,12,0,1,473.640,-1.314,7.329,425.526,-8.841,4.310
1782117442.809288,0.097000,1888257,1000,12,0,1,474.192,-1.643,7.332,429.033,-4.004,4.322
1782117442.810288,0.098000,1888258,1000,12,0,1,469.364,-5.345,7.235,432.012,0.697,4.323
1782117442.811288,0.099000,1888259,1000,12,0,1,464.992,-9.587,7.221,436.071,4.327,4.366
1782117442.812288,0.100000,1888260,1000,12,0,1,463.335,-8.890,7.317,436.552,5.491,4.431
1782117442.813288,0.101000,1888261,1000,12,0,1,469.580,-2.576,7.308,434.054,2.166,4.440
1782117442.814288,0.102000,1888262,1000,12,0,1,478.035,7.352,7.265,430.426,-1.363,4.440
1782117442.815288,0.103000,1888263,1000,12,0,1,472.679,4.134,6.975,431.748,-1.353,4.424
1782117442.816288,0.104000,1888264,1000,12,0,1,464.872,-3.913,6.712,433.309,0.448,4.368
1782117442.817288,0.105000,1888265,1000,12,0,1,460.092,-6.432,6.672,433.861,-0.130,4.242
1782117442.818288,0.106000,1888266,1000,12,0,1,456.897,-7.991,6.767,435.495,0.452,4.087
1782117442.819288,0.107000,1888267,1000,12,0,1,453.318,-8.906,6.871,437.897,1.666,4.012
1782117442.820288,0.108000,1888268,1000,12,0,1,451.420,-9.323,6.996,440.155,2.504,3.985
1782117442.821288,0.109000,1888269,1000,12,0,1,461.869,0.046,6.996,441.092,2.413,3.958
1782117442.822288,0.110000,1888270,1000,12,0,1,471.334,10.056,7.135,442.533,2.235,3.949
1782117442.823288,0.111000,1888271,1000,12,0,1,474.048,10.058,7.253,439.698,-0.177,3.949
1782117442.824288,0.112000,1888272,1000,12,0,1,468.475,3.615,7.220,437.729,-3.210,3.962
1782117442.825288,0.113000,1888273,1000,12,0,1,460.452,-6.184,7.209,442.389,1.100,3.952
1782117442.826288,0.114000,1888274,1000,12,0,1,456.921,-9.924,7.231,446.953,5.712,4.033
1782117442.827288,0.115000,1888275,1000,12,0,1,452.958,-12.191,7.341,455.408,11.639,4.355
1782117442.828288,0.116000,1888276,1000,12,0,1,448.058,-15.281,7.651,463.935,18.442,5.050
1782117442.829288,0.117000,1888277,1000,12,0,1,451.733,-10.548,7.706,470.901,21.299,5.848
1782117442.830288,0.118000,1888278,1000,12,0,1,473.640,9.467,7.358,466.842,15.797,6.223
1782117442.831288,0.119000,1888279,1000,12,0,1,491.895,27.724,8.020,460.789,5.670,6.261
1782117442.832288,0.120000,1888280,1000,12,0,1,495.018,27.368,8.900,454.543,-0.946,6.261
1782117442.833288,0.121000,1888281,1000,12,0,1,490.118,19.441,9.272,447.241,-8.767,6.374
1782117442.834288,0.122000,1888282,1000,12,0,1,494.009,18.091,9.552,437.585,-16.525,6.780
1782117442.835288,0.123000,1888283,1000,12,0,1,498.861,21.121,9.981,429.201,-22.864,7.504
1782117442.836288,0.124000,1888284,1000,12,0,1,471.742,-2.139,9.985,426.823,-22.761,8.151
1782117442.837288,0.125000,1888285,1000,12,0,1,471.742,-10.432,10.085,426.823,-19.323,8.595
1782117442.838288,0.126000,1888286,1000,12,0,1,446.088,-20.498,10.479,433.237,-12.248,8.767
1782117442.839288,0.127000,1888287,1000,12,0,1,456.825,-21.872,10.906,426.559,-13.333,8.959
1782117442.840288,0.128000,1888288,1000,12,0,1,470.997,5.151,10.923,416.855,-22.497,9.494
1782117442.841288,0.129000,1888289,1000,12,0,1,469.604,-1.136,10.920,416.783,-19.160,9.852
1782117442.842288,0.130000,1888290,1000,12,0,1,460.308,-6.733,10.959,426.199,-8.511,9.908
1782117442.843288,0.131000,1888291,1000,12,0,1,460.644,-9.416,11.035,435.255,2.527,9.907
1782117442.844288,0.132000,1888292,1000,12,0,1,471.093,0.358,11.006,440.683,7.579,9.933
1782117442.845288,0.133000,1888293,1000,12,0,1,470.349,1.403,10.991,453.294,16.820,10.168
1782117442.846288,0.134000,1888294,1000,12,0,1,459.924,-11.015,11.094,465.304,26.776,10.809
1782117442.847288,0.135000,1888295,1000,12,0,1,452.597,-16.205,11.244,477.147,32.292,11.703
1782117442.848288,0.136000,1888296,1000,12,0,1,440.755,-25.153,11.774,489.565,38.901,12.894
1782117442.849288,0.137000,1888297,1000,12,0,1,441.692,-22.213,12.181,497.660,39.704,14.035
1782117442.850288,0.138000,1888298,1000,12,0,1,463.551,-0.478,12.177,495.739,32.100,14.744
1782117442.851288,0.139000,1888299,1000,12,0,1,467.346,9.184,12.246,483.488,15.295,14.899
1782117442.852288,0.140000,1888300,1000,12,0,1,466.049,4.228,12.212,464.224,-5.234,14.894
1782117442.853288,0.141000,1888301,1000,12,0,1,492.087,25.884,12.686,443.013,-24.613,15.295
1782117442.854288,0.142000,1888302,1000,12,0,1,502.488,37.137,13.613,428.673,-35.239,16.084
1782117442.855288,0.143000,1888303,1000,12,0,1,483.872,16.054,13.651,423.268,-34.957,16.826
1782117442.856288,0.144000,1888304,1000,12,0,1,466.457,-3.129,13.625,424.109,-28.792,17.291
1782117442.857288,0.145000,1888305,1000,12,0,1,474.672,2.239,13.625,413.900,-30.530,17.768
1782117442.858288,0.146000,1888306,1000,12,0,1,494.297,21.221,13.951,397.158,-41.110,18.653
1782117442.859288,0.147000,1888307,1000,12,0,1,505.851,29.529,14.561,386.300,-44.212,19.665
1782117442.860288,0.148000,1888308,1000,12,0,1,500.759,21.588,14.858,386.565,-37.254,20.358
1782117442.861288,0.149000,1888309,1000,12,0,1,487.932,5.103,14.814,396.918,-21.406,20.573
1782117442.862288,0.150000,1888310,1000,12,0,1,469.748,-12.702,14.869,408.183,-6.109,20.576
1782117442.863288,0.151000,1888311,1000,12,0,1,461.293,-22.105,15.190,413.156,0.967,20.574
1782117442.864288,0.152000,1888312,1000,12,0,1,466.385,-15.827,15.318,410.369,-0.056,20.574
1782117442.865288,0.153000,1888313,1000,12,0,1,476.714,-5.402,15.326,408.928,-1.377,20.574
1782117442.866288,0.154000,1888314,1000,12,0,1,486.082,2.718,15.321,411.162,2.240,20.576
1782117442.867288,0.155000,1888315,1000,12,0,1,488.797,4.079,15.305,413.732,5.768,20.592
1782117442.868288,0.156000,1888316,1000,12,0,1,488.989,1.247,15.264,413.780,7.386,20.618
1782117442.869288,0.157000,1888317,1000,12,0,1,492.880,2.523,15.216,414.381,8.683,20.654
1782117442.870288,0.158000,1888318,1000,12,0,1,495.258,3.120,15.166,415.798,11.495,20.714
1782117442.871288,0.159000,1888319,1000,12,0,1,492.928,-0.429,15.166,418.224,14.570,20.814
1782117442.872288,0.160000,1888320,1000,12,0,1,488.124,-5.751,15.121,418.824,16.325,20.939
1782117442.873288,0.161000,1888321,1000,12,0,1,488.124,-6.280,15.080,418.824,16.452,21.068
1782117442.874288,0.162000,1888322,1000,12,0,1,488.124,-4.716,15.086,418.824,16.704,21.195
1782117442.875288,0.163000,1888323,1000,12,0,1,489.277,-3.382,15.068,420.674,17.718,21.342
1782117442.876288,0.164000,1888324,1000,12,0,1,494.562,2.159,15.006,419.305,16.330,21.452
1782117442.877288,0.165000,1888325,1000,12,0,1,494.922,3.776,14.916,419.137,14.008,21.480
1782117442.878288,0.166000,1888326,1000,12,0,1,495.210,2.916,14.764,421.995,15.001,21.426
1782117442.879288,0.167000,1888327,1000,12,0,1,496.747,4.576,14.703,422.812,13.695,21.302
1782117442.880288,0.168000,1888328,1000,12,0,1,495.066,2.558,14.646,422.932,10.590,21.237
1782117442.881288,0.169000,1888329,1000,12,0,1,496.651,2.455,14.116,421.395,6.759,21.243
1782117442.882288,0.170000,1888330,1000,12,0,1,495.330,1.403,13.577,421.947,3.723,21.250
1782117442.883288,0.171000,1888331,1000,12,0,1,495.330,-0.947,13.296,421.947,1.999,21.215
1782117442.884288,0.172000,1888332,1000,12,0,1,495.330,-1.226,13.049,421.947,-0.735,21.086
1782117442.885288,0.173000,1888333,1000,12,0,1,489.373,-7.431,12.746,423.821,-0.650,20.837
1782117442.886288,0.174000,1888334,1000,12,0,1,491.463,-7.801,12.790,425.262,-0.611,20.587
1782117442.887288,0.175000,1888335,1000,12,0,1,493.096,-4.955,12.724,426.679,-0.509,20.405
1782117442.888288,0.176000,1888336,1000,12,0,1,496.411,-4.145,12.403,427.352,-0.275,20.332
1782117442.889288,0.177000,1888337,1000,12,0,1,495.378,-3.904,12.024,428.120,-0.050,20.244
1782117442.890288,0.178000,1888338,1000,12,0,1,494.970,-6.220,12.034,430.282,2.023,19.994
1782117442.891288,0.179000,1888339,1000,12,0,1,494.826,-5.226,12.055,432.276,4.082,19.818
1782117442.892288,0.180000,1888340,1000,12,0,1,491.727,-7.614,12.066,432.828,4.828,19.794
1782117442.893288,0.181000,1888341,1000,12,0,1,485.121,-11.903,12.110,435.327,6.611,19.812
1782117442.894288,0.182000,1888342,1000,12,0,1,478.348,-15.799,12.314,435.110,6.946,19.808
1782117442.895288,0.183000,1888343,1000,12,0,1,479.116,-12.799,12.445,438.714,8.284,19.699
1782117442.896288,0.184000,1888344,1000,12,0,1,482.888,-5.304,12.370,440.203,9.829,19.382
1782117442.897288,0.185000,1888345,1000,12,0,1,485.674,-0.689,12.156,444.959,10.698,18.897
1782117442.898288,0.186000,1888346,1000,12,0,1,482.407,-0.753,11.624,449.811,13.565,18.180
1782117442.899288,0.187000,1888347,1000,12,0,1,485.242,1.203,11.193,451.180,11.046,17.361
1782117442.900288,0.188000,1888348,1000,12,0,1,497.925,13.495,11.354,452.525,8.295,16.798
1782117442.901288,0.189000,1888349,1000,12,0,1,497.732,14.327,11.460,451.204,3.906,16.668
1782117442.902288,0.190000,1888350,1000,12,0,1,491.775,5.657,11.473,449.211,-1.834,16.653
1782117442.903288,0.191000,1888351,1000,12,0,1,488.172,1.602,10.875,448.130,-5.138,16.302
1782117442.904288,0.192000,1888352,1000,12,0,1,489.085,0.750,9.524,450.123,-6.058,15.545
1782117442.905288,0.193000,1888353,1000,12,0,1,488.436,0.434,9.249,451.901,-5.419,14.758
1782117442.906288,0.194000,1888354,1000,12,0,1,490.214,0.102,9.239,447.745,-10.045,14.256
1782117442.907288,0.195000,1888355,1000,12,0,1,488.893,-0.588,9.234,442.605,-15.254,13.756
1782117442.908288,0.196000,1888356,1000,12,0,1,495.643,2.513,8.740,435.999,-19.491,12.769
1782117442.909288,0.197000,1888357,1000,12,0,1,505.731,11.624,7.851,424.709,-26.656,11.754
1782117442.910288,0.198000,1888358,1000,12,0,1,507.509,11.401,7.411,425.959,-23.534,11.021
1782117442.911288,0.199000,1888359,1000,12,0,1,504.458,6.033,7.425,427.424,-15.485,10.821
1782117442.912288,0.200000,1888360,1000,12,0,1,496.844,-1.498,7.208,425.670,-14.144,10.971
1782117442.913288,0.201000,1888361,1000,12,0,1,485.650,-11.754,6.704,424.085,-11.268,11.085
1782117442.914288,0.202000,1888362,1000,12,0,1,479.044,-16.160,6.720,427.952,-5.484,11.112
1782117442.915288,0.203000,1888363,1000,12,0,1,481.975,-11.242,6.863,430.234,0.121,11.110
1782117442.916288,0.204000,1888364,1000,12,0,1,490.142,-0.813,6.853,432.252,2.536,11.112
1782117442.917288,0.205000,1888365,1000,12,0,1,493.529,4.309,6.856,431.267,3.013,11.090
1782117442.918288,0.206000,1888366,1000,12,0,1,495.715,6.071,6.907,428.000,-0.078,11.041
1782117442.919288,0.207000,1888367,1000,12,0,1,493.601,4.888,6.932,428.144,-0.385,10.972
1782117442.920288,0.208000,1888368,1000,12,0,1,491.919,2.078,6.925,428.817,0.727,10.852
1782117442.921288,0.209000,1888369,1000,12,0,1,490.286,0.979,6.926,428.937,0.013,10.654
1782117442.922288,0.210000,1888370,1000,12,0,1,484.785,-3.994,6.901,427.568,-1.130,10.402
1782117442.923288,0.211000,1888371,1000,12,0,1,481.711,-7.201,6.919,425.502,-3.676,10.152
1782117442.924288,0.212000,1888372,1000,12,0,1,483.512,-5.013,6.923,427.064,-2.433,9.879
1782117442.925288,0.213000,1888373,1000,12,0,1,484.641,-3.390,6.923,425.238,-2.966,9.566
1782117442.926288,0.214000,1888374,1000,12,0,1,483.704,-4.110,6.941,427.112,-2.081,9.287
1782117442.927288,0.215000,1888375,1000,12,0,1,482.599,-5.150,6.959,433.405,4.598,9.097
1782117442.928288,0.216000,1888376,1000,12,0,1,497.852,6.270,7.003,435.879,7.279,8.906
1782117442.929288,0.217000,1888377,1000,12,0,1,517.381,23.880,7.747,431.075,3.293,8.705
1782117442.930288,0.218000,1888378,1000,12,0,1,521.777,24.903,8.503,429.634,1.306,8.577
1782117442.931288,0.219000,1888379,1000,12,0,1,504.362,6.452,8.544,433.909,6.100,8.567
1782117442.932288,0.220000,1888380,1000,12,0,1,489.229,-11.282,8.690,434.630,7.948,8.625
1782117442.933288,0.221000,1888381,1000,12,0,1,480.293,-17.098,9.019,433.861,6.764,8.673
1782117442.934288,0.222000,1888382,1000,12,0,1,480.293,-15.545,9.281,433.861,7.013,8.729
1782117442.935288,0.223000,1888383,1000,12,0,1,479.188,-11.540,9.365,436.239,8.340,8.808
1782117442.936288,0.224000,1888384,1000,12,0,1,485.073,-5.205,9.329,433.261,6.249,8.851
1782117442.937288,0.225000,1888385,1000,12,0,1,494.826,6.638,9.350,432.588,3.358,8.864
1782117442.938288,0.226000,1888386,1000,12,0,1,498.429,10.618,9.452,436.672,6.614,8.913
1782117442.939288,0.227000,1888387,1000,12,0,1,505.707,14.753,9.663,439.410,7.678,8.979
1782117442.940288,0.228000,1888388,1000,12,0,1,509.142,17.582,9.939,437.825,4.576,8.998
1782117442.941288,0.229000,1888389,1000,12,0,1,492.856,1.558,9.914,437.849,1.976,8.983
1782117442.942288,0.230000,1888390,1000,12,0,1,470.397,-20.127,10.258,443.037,4.476,8.980
1782117442.943288,0.231000,1888391,1000,12,0,1,471.982,-19.772,10.498,440.731,1.929,8.935
1782117442.944288,0.232000,1888392,1000,12,0,1,489.325,-0.676,10.258,435.831,-5.330,8.913
1782117442.945288,0.233000,1888393,1000,12,0,1,497.180,7.584,10.154,433.957,-7.256,8.895
1782117442.946288,0.234000,1888394,1000,12,0,1,494.802,3.876,10.141,433.837,-7.498,8.849
1782117442.947288,0.235000,1888395,1000,12,0,1,493.289,0.323,10.141,434.294,-6.268,8.764
1782117442.948288,0.236000,1888396,1000,12,0,1,493.072,-0.614,10.141,437.128,-3.354,8.565
1782117442.949288,0.237000,1888397,1000,12,0,1,487.884,-5.150,10.165,437.561,-1.535,8.424
1782117442.950288,0.238000,1888398,1000,12,0,1,486.347,-7.409,10.040,436.528,-2.128,8.347
1782117442.951288,0.239000,1888399,1000,12,0,1,485.266,-6.257,9.873,435.255,-2.153,8.334
1782117442.952288,0.240000,1888400,1000,12,0,1,483.993,-6.659,9.885,438.377,0.933,8.331
1782117442.953288,0.241000,1888401,1000,12,0,1,480.437,-7.237,9.935,440.827,4.523,8.324
1782117442.954288,0.242000,1888402,1000,12,0,1,482.287,-4.836,9.958,439.410,3.350,8.294
1782117442.955288,0.243000,1888403,1000,12,0,1,496.964,9.390,10.046,436.480,0.650,8.259
1782117442.956288,0.244000,1888404,1000,12,0,1,499.822,14.797,10.262,435.711,-0.197,8.136
1782117442.957288,0.245000,1888405,1000,12,0,1,486.923,1.892,10.265,438.041,1.712,7.848
1782117442.958288,0.246000,1888406,1000,12,0,1,472.463,-10.726,10.371,440.587,3.809,7.368
1782117442.959288,0.247000,1888407,1000,12,0,1,472.463,-10.453,10.346,440.347,2.693,6.342
1782117442.960288,0.248000,1888408,1000,12,0,1,480.870,0.323,10.219,440.107,1.022,5.400
1782117442.961288,0.249000,1888409,1000,12,0,1,481.398,2.686,10.191,438.834,-0.999,4.938
1782117442.962288,0.250000,1888410,1000,12,0,1,484.569,3.972,10.204,439.770,-1.703,4.522
1782117442.963288,0.251000,1888411,1000,12,0,1,496.123,13.542,10.248,438.521,-2.837,4.250
1782117442.964288,0.252000,1888412,1000,12,0,1,507.389,21.411,10.439,432.516,-8.604,4.353
1782117442.965288,0.253000,1888413,1000,12,0,1,494.345,9.147,10.398,431.579,-9.974,4.575
1782117442.966288,0.254000,1888414,1000,12,0,1,481.446,-8.470,10.466,435.471,-5.140,4.619
1782117442.967288,0.255000,1888415,1000,12,0,1,490.718,-1.245,10.450,435.639,-3.670,4.628
1782117442.968288,0.256000,1888416,1000,12,0,1,500.134,8.178,10.478,431.603,-6.345,4.715
1782117442.969288,0.257000,1888417,1000,12,0,1,495.282,2.885,10.464,431.243,-6.050,4.791
1782117442.970288,0.258000,1888418,1000,12,0,1,495.186,-0.192,10.459,428.793,-5.451,4.852
1782117442.971288,0.259000,1888419,1000,12,0,1,487.644,-4.725,10.480,433.189,-1.562,4.857
1782117442.972288,0.260000,1888420,1000,12,0,1,483.320,-10.408,10.568,435.759,3.972,4.887
1782117442.973288,0.261000,1888421,1000,12,0,1,487.668,-4.145,10.535,434.990,2.997,4.877
1782117442.974288,0.262000,1888422,1000,12,0,1,495.354,3.691,10.524,435.110,3.792,4.895
1782117442.975288,0.263000,1888423,1000,12,0,1,500.975,9.441,10.597,435.207,4.057,4.910
1782117442.976288,0.264000,1888424,1000,12,0,1,495.811,5.425,10.609,438.065,5.977,4.974
1782117442.977288,0.265000,1888425,1000,12,0,1,478.804,-9.761,10.674,444.334,10.940,5.168
1782117442.978288,0.266000,1888426,1000,12,0,1,476.546,-12.712,10.788,449.403,13.848,5.430
1782117442.979288,0.267000,1888427,1000,12,0,1,491.607,2.982,10.254,450.436,12.581,5.695
1782117442.980288,0.268000,1888428,1000,12,0,1,491.079,5.951,9.667,453.606,11.588,5.923
1782117442.981288,0.269000,1888429,1000,12,0,1,467.731,-15.043,9.856,463.359,16.870,6.327
1782117442.982288,0.270000,1888430,1000,12,0,1,444.334,-34.796,10.900,468.475,18.428,6.750
1782117442.983288,0.271000,1888431,1000,12,0,1,450.147,-27.832,11.334,470.061,14.701,6.998
1782117442.984288,0.272000,1888432,1000,12,0,1,493.481,13.535,11.282,457.930,1.958,6.933
1782117442.985288,0.273000,1888433,1000,12,0,1,528.599,47.329,13.016,444.551,-14.058,7.115
1782117442.986288,0.274000,1888434,1000,12,0,1,527.158,40.586,14.207,437.561,-19.261,7.567
1782117442.987288,0.275000,1888435,1000,12,0,1,500.519,9.678,14.242,431.868,-22.090,8.173
1782117442.988288,0.276000,1888436,1000,12,0,1,485.121,-10.821,14.245,428.745,-21.924,8.691
1782117442.989288,0.277000,1888437,1000,12,0,1,477.915,-15.544,14.261,424.734,-20.982,9.119
1782117442.990288,0.278000,1888438,1000,12,0,1,479.188,-14.384,14.190,423.965,-18.622,9.470
1782117442.991288,0.279000,1888439,1000,12,0,1,487.115,-4.380,14.201,428.265,-10.618,9.584
1782117442.992288,0.280000,1888440,1000,12,0,1,490.646,0.778,13.914,429.634,-5.974,9.600
1782117442.993288,0.281000,1888441,1000,12,0,1,489.085,0.057,13.630,432.228,-2.239,9.602
1782117442.994288,0.282000,1888442,1000,12,0,1,489.373,0.839,13.630,432.348,0.068,9.572
1782117442.995288,0.283000,1888443,1000,12,0,1,492.712,4.360,13.602,431.363,-0.633,9.517
1782117442.996288,0.284000,1888444,1000,12,0,1,493.889,6.424,13.621,433.981,2.023,9.462
1782117442.997288,0.285000,1888445,1000,12,0,1,495.643,7.003,13.657,434.246,2.955,9.430
1782117442.998288,0.286000,1888446,1000,12,0,1,495.883,7.464,13.697,434.005,1.810,9.422
1782117442.999288,0.287000,1888447,1000,12,0,1,497.084,6.719,13.711,433.429,1.395,9.421
1782117443.000288,0.288000,1888448,1000,12,0,1,497.492,6.577,13.702,431.748,-0.617,9.417
1782117443.001288,0.289000,1888449,1000,12,0,1,496.147,3.562,13.683,430.619,-1.643,9.415
1782117443.002288,0.290000,1888450,1000,12,0,1,494.249,0.594,13.651,430.042,-1.928,9.418
1782117443.003288,0.291000,1888451,1000,12,0,1,491.343,-3.103,13.620,432.204,0.069,9.396
1782117443.004288,0.292000,1888452,1000,12,0,1,490.190,-5.280,13.623,430.883,0.192,9.384
1782117443.005288,0.293000,1888453,1000,12,0,1,491.031,-4.835,13.575,430.955,-0.284,9.384
1782117443.006288,0.294000,1888454,1000,12,0,1,488.268,-7.128,13.451,431.651,1.733,9.387
1782117443.007288,0.295000,1888455,1000,12,0,1,486.443,-9.282,13.512,431.195,1.664,9.387
1782117443.008288,0.296000,1888456,1000,12,0,1,483.993,-10.191,13.504,432.180,3.081,9.381
1782117443.009288,0.297000,1888457,1000,12,0,1,483.800,-9.921,13.496,434.774,5.844,9.410
1782117443.010288,0.298000,1888458,1000,12,0,1,478.876,-11.431,13.592,434.198,5.918,9.446
1782117443.011288,0.299000,1888459,1000,12,0,1,470.517,-17.190,13.803,436.191,6.723,9.493
1782117443.012288,0.300000,1888460,1000,12,0,1,475.513,-11.154,13.881,434.606,6.144,9.529
1782117443.013288,0.301000,1888461,1000,12,0,1,487.956,3.676,13.758,429.442,0.672,9.521
1782117443.014288,0.302000,1888462,1000,12,0,1,490.814,8.289,13.472,431.315,1.475,9.446
1782117443.015288,0.303000,1888463,1000,12,0,1,492.592,8.812,13.467,433.309,4.203,9.359
1782117443.016288,0.304000,1888464,1000,12,0,1,499.918,14.718,13.575,431.171,1.486,9.333
1782117443.017288,0.305000,1888465,1000,12,0,1,507.509,20.263,13.873,432.492,1.585,9.321
1782117443.018288,0.306000,1888466,1000,12,0,1,494.225,8.718,13.879,440.996,7.842,9.344
1782117443.019288,0.307000,1888467,1000,12,0,1,473.880,-12.450,13.984,446.208,11.866,9.455
1782117443.020288,0.308000,1888468,1000,12,0,1,461.605,-21.721,14.318,447.721,10.101,9.531
1782117443.021288,0.309000,1888469,1000,12,0,1,468.331,-14.316,14.445,442.245,3.805,9.543
1782117443.022288,0.310000,1888470,1000,12,0,1,475.081,-3.145,14.377,443.494,1.063,9.528
1782117443.023288,0.311000,1888471,1000,12,0,1,482.071,2.583,14.369,442.149,0.888,9.519
1782117443.024288,0.312000,1888472,1000,12,0,1,494.898,13.735,14.491,437.873,-4.805,9.529
1782117443.025288,0.313000,1888473,1000,12,0,1,502.008,18.913,14.675,439.770,-3.313,9.523
1782117443.026288,0.314000,1888474,1000,12,0,1,511.592,22.066,14.983,435.903,-4.825,9.510
1782117443.027288,0.315000,1888475,1000,12,0,1,516.973,24.280,15.310,430.523,-10.020,9.489
1782117443.028288,0.316000,1888476,1000,12,0,1,506.692,10.679,15.278,427.400,-10.380,9.400
1782117443.029288,0.317000,1888477,1000,12,0,1,501.600,1.008,15.273,427.160,-9.204,9.322
1782117443.030288,0.318000,1888478,1000,12,0,1,496.555,-3.350,15.257,430.162,-4.165,9.196
1782117443.031288,0.319000,1888479,1000,12,0,1,493.000,-8.075,15.151,432.156,-0.802,8.881
1782117443.032288,0.320000,1888480,1000,12,0,1,488.508,-10.038,14.400,433.429,1.022,8.492
1782117443.033288,0.321000,1888481,1000,12,0,1,478.948,-16.767,14.053,437.488,4.485,8.258
1782117443.034288,0.322000,1888482,1000,12,0,1,483.872,-11.852,14.023,438.810,5.893,8.295
1782117443.035288,0.323000,1888483,1000,12,0,1,498.093,4.511,12.339,434.198,1.041,8.055
1782117443.036288,0.324000,1888484,1000,12,0,1,498.381,6.745,10.964,434.726,-0.305,7.580
1782117443.037288,0.325000,1888485,1000,12,0,1,494.562,1.751,10.881,435.279,0.865,6.907
1782117443.038288,0.326000,1888486,1000,12,0,1,493.457,0.900,10.774,434.390,-1.146,6.175
1782117443.039288,0.327000,1888487,1000,12,0,1,495.739,2.292,10.552,437.440,0.883,5.416
1782117443.040288,0.328000,1888488,1000,12,0,1,496.003,2.798,10.362,436.287,0.220,4.733
1782117443.041288,0.329000,1888489,1000,12,0,1,499.966,4.255,10.361,434.678,-2.593,4.503
1782117443.042288,0.330000,1888490,1000,12,0,1,498.453,3.256,10.370,434.005,-2.691,4.440
1782117443.043288,0.331000,1888491,1000,12,0,1,497.084,-0.882,10.371,434.822,-2.227,4.440
1782117443.044288,0.332000,1888492,1000,12,0,1,495.667,-2.255,10.375,434.798,-1.297,4.444
1782117443.045288,0.333000,1888493,1000,12,0,1,496.387,-3.286,10.368,432.877,-2.630,4.458
1782117443.046288,0.334000,1888494,1000,12,0,1,494.417,-4.602,10.348,432.925,-2.125,4.459
1782117443.047288,0.335000,1888495,1000,12,0,1,497.852,-3.275,10.311,432.468,-1.162,4.443
1782117443.048288,0.336000,1888496,1000,12,0,1,495.787,-3.310,10.268,433.189,-0.209,4.435
1782117443.049288,0.337000,1888497,1000,12,0,1,494.682,-5.884,10.257,433.237,1.151,4.434
1782117443.050288,0.338000,1888498,1000,12,0,1,494.610,-4.379,10.234,433.669,1.542,4.438
1782117443.051288,0.339000,1888499,1000,12,0,1,495.931,-3.031,10.230,434.918,3.200,4.455
1782117443.052288,0.340000,1888500,1000,12,0,1,504.434,4.530,10.250,435.038,3.294,4.471
1782117443.053288,0.341000,1888501,1000,12,0,1,509.911,10.652,10.351,437.945,5.004,4.527
1782117443.054288,0.342000,1888502,1000,12,0,1,501.528,2.843,10.332,438.978,5.941,4.604
1782117443.055288,0.343000,1888503,1000,12,0,1,493.409,-5.579,10.339,440.011,4.991,4.658
1782117443.056288,0.344000,1888504,1000,12,0,1,487.524,-9.186,10.372,440.131,4.429,4.693
1782117443.057288,0.345000,1888505,1000,12,0,1,490.406,-6.065,10.324,442.989,4.718,4.735
1782117443.058288,0.346000,1888506,1000,12,0,1,497.540,2.502,10.229,442.893,4.259,4.753
1782117443.059288,0.347000,1888507,1000,12,0,1,505.827,9.553,10.222,440.275,-0.077,4.680
1782117443.060288,0.348000,1888508,1000,12,0,1,507.701,10.997,10.212,437.128,-3.448,4.631
1782117443.061288,0.349000,1888509,1000,12,0,1,500.423,2.794,9.927,434.005,-6.513,4.625
1782117443.062288,0.350000,1888510,1000,12,0,1,489.589,-8.220,9.869,433.453,-6.814,4.644
1782117443.063288,0.351000,1888511,1000,12,0,1,490.766,-8.522,9.929,429.177,-8.689,4.802
1782117443.064288,0.352000,1888512,1000,12,0,1,497.732,-0.937,9.860,429.297,-8.723,4.954
1782117443.065288,0.353000,1888513,1000,12,0,1,499.894,1.055,9.783,430.162,-5.016,4.969
1782117443.066288,0.354000,1888514,1000,12,0,1,504.891,3.531,9.572,430.378,-4.179,5.000
1782117443.067288,0.355000,1888515,1000,12,0,1,504.746,3.841,9.149,430.979,-1.938,5.002
1782117443.068288,0.356000,1888516,1000,12,0,1,490.358,-9.478,9.164,438.209,4.241,4.914
1782117443.069288,0.357000,1888517,1000,12,0,1,474.552,-23.327,9.579,441.764,8.995,4.791
1782117443.070288,0.358000,1888518,1000,12,0,1,473.784,-22.082,9.596,442.052,7.571,4.697
1782117443.071288,0.359000,1888519,1000,12,0,1,485.650,-7.378,9.437,440.515,5.716,4.735
1782117443.072288,0.360000,1888520,1000,12,0,1,498.285,6.729,9.475,436.360,1.151,4.736
1782117443.073288,0.361000,1888521,1000,12,0,1,510.319,17.352,9.781,432.756,-2.711,4.750
1782117443.074288,0.362000,1888522,1000,12,0,1,509.382,16.866,9.878,432.444,-2.888,4.718
1782117443.075288,0.363000,1888523,1000,12,0,1,504.650,9.083,9.595,430.114,-4.183,4.732
1782117443.076288,0.364000,1888524,1000,12,0,1,501.768,5.934,9.113,432.540,-2.615,4.697
1782117443.077288,0.365000,1888525,1000,12,0,1,498.813,2.358,8.447,433.333,-0.524,4.479
1782117443.078288,0.366000,1888526,1000,12,0,1,496.171,-0.100,8.311,434.054,-0.782,4.233
1782117443.079288,0.367000,1888527,1000,12,0,1,496.435,-0.127,8.310,432.684,-1.291,4.032
1782117443.080288,0.368000,1888528,1000,12,0,1,495.570,-0.343,8.297,434.918,-0.436,3.989
1782117443.081288,0.369000,1888529,1000,12,0,1,490.166,-4.788,8.246,437.368,2.468,4.003
1782117443.082288,0.370000,1888530,1000,12,0,1,487.860,-7.292,8.188,439.434,3.433,4.030
1782117443.083288,0.371000,1888531,1000,12,0,1,485.674,-7.457,7.908,437.969,2.226,3.992
1782117443.084288,0.372000,1888532,1000,12,0,1,488.797,-5.170,7.762,436.047,-0.321,3.904
1782117443.085288,0.373000,1888533,1000,12,0,1,494.369,1.250,7.738,433.165,-2.417,3.916
1782117443.086288,0.374000,1888534,1000,12,0,1,494.249,1.121,7.681,435.831,-0.516,3.917
1782117443.087288,0.375000,1888535,1000,12,0,1,489.709,-3.269,7.691,439.050,3.527,3.947
1782117443.088288,0.376000,1888536,1000,12,0,1,486.491,-6.331,7.742,437.657,2.388,3.958
1782117443.089288,0.377000,1888537,1000,12,0,1,491.079,-2.279,7.741,434.630,-0.620,3.957
1782117443.090288,0.378000,1888538,1000,12,0,1,491.631,0.368,7.732,439.242,2.772,3.976
1782117443.091288,0.379000,1888539,1000,12,0,1,486.995,-3.988,7.729,439.987,4.735,4.015
1782117443.092288,0.380000,1888540,1000,12,0,1,484.113,-5.572,7.755,442.124,4.567,4.049
1782117443.093288,0.381000,1888541,1000,12,0,1,481.975,-5.832,7.798,444.286,6.558,4.142
1782117443.094288,0.382000,1888542,1000,12,0,1,480.678,-5.266,7.827,443.854,4.654,4.190
1782117443.095288,0.383000,1888543,1000,12,0,1,484.977,-0.173,7.813,442.893,2.536,4.189
1782117443.096288,0.384000,1888544,1000,12,0,1,486.274,3.360,7.800,441.476,0.413,4.178
1782117443.097288,0.385000,1888545,1000,12,0,1,490.022,5.993,7.833,440.323,-1.635,4.182
1782117443.098288,0.386000,1888546,1000,12,0,1,496.555,12.266,8.009,437.488,-4.005,4.220
1782117443.099288,0.387000,1888547,1000,12,0,1,499.366,13.841,8.202,437.585,-4.861,4.272
1782117443.100288,0.388000,1888548,1000,12,0,1,498.093,10.934,8.324,436.624,-4.429,4.312
1782117443.101288,0.389000,1888549,1000,12,0,1,489.757,2.619,8.321,436.720,-4.924,4.345
1782117443.102288,0.390000,1888550,1000,12,0,1,483.536,-4.907,8.325,439.242,-1.851,4.328
1782117443.103288,0.391000,1888551,1000,12,0,1,485.602,-2.858,8.198,439.987,-0.827,4.271
1782117443.104288,0.392000,1888552,1000,12,0,1,500.807,9.304,8.293,433.885,-5.341,4.255
1782117443.105288,0.393000,1888553,1000,12,0,1,522.594,27.400,9.120,428.241,-10.331,4.443
1782117443.106288,0.394000,1888554,1000,12,0,1,528.959,30.263,9.990,427.760,-9.117,4.584
1782117443.107288,0.395000,1888555,1000,12,0,1,519.327,15.791,10.200,432.204,-3.580,4.563
1782117443.108288,0.396000,1888556,1000,12,0,1,510.535,2.794,10.202,433.165,-0.592,4.524
1782117443.109288,0.397000,1888557,1000,12,0,1,503.689,-5.039,10.137,433.357,-0.340,4.524
1782117443.110288,0.398000,1888558,1000,12,0,1,499.606,-9.706,10.111,433.237,0.509,4.499
1782117443.111288,0.399000,1888559,1000,12,0,1,504.074,-5.868,10.137,432.156,-0.161,4.403
1782117443.112288,0.400000,1888560,1000,12,0,1,504.939,-3.150,10.080,432.396,0.204,4.297
1782117443.113288,0.401000,1888561,1000,12,0,1,500.303,-7.417,10.063,433.477,1.607,4.123
1782117443.114288,0.402000,1888562,1000,12,0,1,501.167,-6.531,10.104,434.150,2.126,3.946
1782117443.115288,0.403000,1888563,1000,12,0,1,511.064,2.579,10.109,433.765,1.831,3.890
1782117443.116288,0.404000,1888564,1000,12,0,1,515.436,7.586,10.154,433.285,0.953,3.848
1782117443.117288,0.405000,1888565,1000,12,0,1,505.323,-1.945,10.143,435.207,2.308,3.852
1782117443.118288,0.406000,1888566,1000,12,0,1,494.778,-12.757,10.215,436.720,3.566,3.838
1782117443.119288,0.407000,1888567,1000,12,0,1,493.120,-13.299,9.849,435.519,2.104,3.633
1782117443.120288,0.408000,1888568,1000,12,0,1,493.865,-10.543,9.459,435.447,1.195,3.476
1782117443.121288,0.409000,1888569,1000,12,0,1,493.337,-9.508,9.497,437.440,2.761,3.403
1782117443.122288,0.410000,1888570,1000,12,0,1,506.068,0.804,9.450,442.581,6.447,3.519
1782117443.123288,0.411000,1888571,1000,12,0,1,532.803,23.814,9.727,440.635,5.237,3.576
1782117443.124288,0.412000,1888572,1000,12,0,1,544.020,32.287,10.477,434.462,-1.799,3.562
1782117443.125288,0.413000,1888573,1000,12,0,1,530.569,14.827,10.608,433.525,-2.920,3.537
1782117443.126288,0.414000,1888574,1000,12,0,1,501.504,-14.553,10.773,436.600,0.390,3.518
1782117443.127288,0.415000,1888575,1000,12,0,1,479.429,-35.780,11.897,438.161,2.295,3.532
1782117443.128288,0.416000,1888576,1000,12,0,1,472.799,-37.404,13.020,440.851,4.073,3.577
1782117443.129288,0.417000,1888577,1000,12,0,1,471.478,-32.069,13.787,445.247,7.447,3.724
1782117443.130288,0.418000,1888578,1000,12,0,1,482.719,-17.890,14.018,442.749,5.138,3.794
1782117443.131288,0.419000,1888579,1000,12,0,1,510.103,10.136,14.074,436.432,-2.029,3.789
1782117443.132288,0.420000,1888580,1000,12,0,1,526.773,27.454,14.564,433.189,-5.163,3.828
1782117443.133288,0.421000,1888581,1000,12,0,1,512.745,14.034,14.660,436.528,-2.375,3.829
1782117443.134288,0.422000,1888582,1000,12,0,1,495.042,-6.071,14.667,439.362,1.176,3.833
1782117443.135288,0.423000,1888583,1000,12,0,1,495.691,-5.725,14.689,438.666,0.090,3.817
1782117443.136288,0.424000,1888584,1000,12,0,1,493.697,-4.008,14.699,440.059,0.482,3.817
1782117443.137288,0.425000,1888585,1000,12,0,1,487.163,-9.377,14.751,439.506,0.242,3.785
1782117443.138288,0.426000,1888586,1000,12,0,1,483.704,-10.375,14.797,437.080,-2.708,3.789
1782117443.139288,0.427000,1888587,1000,12,0,1,491.943,-2.422,14.797,436.600,-3.238,3.816
1782117443.140288,0.428000,1888588,1000,12,0,1,492.928,2.260,14.801,435.759,-3.555,3.829
1782117443.141288,0.429000,1888589,1000,12,0,1,491.631,-0.500,14.790,436.480,-2.959,3.793
1782117443.142288,0.430000,1888590,1000,12,0,1,502.777,8.854,14.822,435.591,-2.744,3.757
1782117443.143288,0.431000,1888591,1000,12,0,1,514.595,19.196,15.046,433.357,-4.551,3.698
1782117443.144288,0.432000,1888592,1000,12,0,1,512.073,15.140,15.179,434.558,-3.049,3.664
1782117443.145288,0.433000,1888593,1000,12,0,1,500.807,2.198,15.183,435.399,-1.083,3.650
1782117443.146288,0.434000,1888594,1000,12,0,1,494.201,-5.742,15.197,435.158,-1.019,3.652
1782117443.147288,0.435000,1888595,1000,12,0,1,497.036,-3.056,15.179,435.471,-0.227,3.645
1782117443.148288,0.436000,1888596,1000,12,0,1,499.126,0.088,15.080,434.438,-0.569,3.601
1782117443.149288,0.437000,1888597,1000,12,0,1,493.048,-4.266,14.964,435.687,0.384,3.536
1782117443.150288,0.438000,1888598,1000,12,0,1,482.047,-13.084,14.999,440.971,5.148,3.555
1782117443.151288,0.439000,1888599,1000,12,0,1,496.483,-1.656,14.996,440.371,5.187,3.563
1782117443.152288,0.440000,1888600,1000,12,0,1,512.217,17.064,15.173,436.023,0.075,3.553
1782117443.153288,0.441000,1888601,1000,12,0,1,513.226,15.930,15.334,435.543,-0.871,3.553
1782117443.154288,0.442000,1888602,1000,12,0,1,507.869,9.323,15.334,435.303,-0.591,3.473
1782117443.155288,0.443000,1888603,1000,12,0,1,504.746,4.272,14.849,433.477,-2.224,3.166
1782117443.156288,0.444000,1888604,1000,12,0,1,502.488,1.753,14.221,433.669,-2.080,2.907
1782117443.157288,0.445000,1888605,1000,12,0,1,499.390,-1.344,14.046,433.453,-1.622,2.872
1782117443.158288,0.446000,1888606,1000,12,0,1,498.645,-2.614,14.045,436.311,0.413,2.871
1782117443.159288,0.447000,1888607,1000,12,0,1,495.667,-4.123,14.039,437.008,1.926,2.883
1782117443.160288,0.448000,1888608,1000,12,0,1,486.226,-11.960,14.074,437.705,1.461,2.890
1782117443.161288,0.449000,1888609,1000,12,0,1,480.678,-16.140,14.234,437.561,1.660,2.899
1782117443.162288,0.450000,1888610,1000,12,0,1,491.079,-6.165,14.253,431.315,-3.642,2.945
1782117443.163288,0.451000,1888611,1000,12,0,1,500.687,5.445,14.236,430.979,-4.944,3.018
1782117443.164288,0.452000,1888612,1000,12,0,1,506.140,8.644,14.258,432.180,-1.759,3.013
1782117443.165288,0.453000,1888613,1000,12,0,1,501.408,4.763,14.269,435.423,0.604,3.003
1782117443.166288,0.454000,1888614,1000,12,0,1,491.535,-6.106,14.255,435.183,2.020,3.014
1782117443.167288,0.455000,1888615,1000,12,0,1,490.814,-7.187,14.289,435.038,0.759,2.998
1782117443.168288,0.456000,1888616,1000,12,0,1,490.910,-4.876,14.191,436.263,2.451,2.976
1782117443.169288,0.457000,1888617,1000,12,0,1,489.806,-5.403,14.087,439.314,4.482,3.028
1782117443.170288,0.458000,1888618,1000,12,0,1,488.316,-4.856,14.024,437.993,3.748,3.069
1782117443.171288,0.459000,1888619,1000,12,0,1,493.313,-0.435,13.960,436.360,1.001,3.047
1782117443.172288,0.460000,1888620,1000,12,0,1,498.525,6.265,13.988,436.768,1.238,2.913
1782117443.173288,0.461000,1888621,1000,12,0,1,499.798,6.946,13.612,434.054,-0.812,2.820
1782117443.174288,0.462000,1888622,1000,12,0,1,500.543,7.135,12.862,432.949,-2.631,2.833
1782117443.175288,0.463000,1888623,1000,12,0,1,505.659,10.304,12.774,433.405,-1.354,2.809
1782117443.176288,0.464000,1888624,1000,12,0,1,509.454,13.094,12.742,434.150,-0.912,2.812
1782117443.177288,0.465000,1888625,1000,12,0,1,509.478,11.119,11.800,432.564,-1.527,2.801
1782117443.178288,0.466000,1888626,1000,12,0,1,504.506,5.216,10.573,431.868,-2.661,2.767
1782117443.179288,0.467000,1888627,1000,12,0,1,499.294,-1.160,9.553,431.748,-1.939,2.573
1782117443.180288,0.468000,1888628,1000,12,0,1,498.573,-2.562,9.219,431.411,-2.113,2.487
1782117443.181288,0.469000,1888629,1000,12,0,1,493.385,-5.951,9.145,432.228,-1.057,2.474
1782117443.182288,0.470000,1888630,1000,12,0,1,490.574,-9.368,8.386,431.868,-0.773,2.367
1782117443.183288,0.471000,1888631,1000,12,0,1,500.783,-0.054,8.147,431.027,-1.493,2.352
1782117443.184288,0.472000,1888632,1000,12,0,1,504.650,5.247,8.136,430.955,-1.088,2.352
1782117443.185288,0.473000,1888633,1000,12,0,1,504.626,2.867,8.106,431.075,-0.645,2.353
1782117443.186288,0.474000,1888634,1000,12,0,1,514.355,9.557,8.198,430.234,-0.808,2.355
1782117443.187288,0.475000,1888635,1000,12,0,1,521.032,14.801,8.356,427.160,-2.952,2.392
1782117443.188288,0.476000,1888636,1000,12,0,1,524.467,13.963,8.460,426.583,-3.248,2.405
1782117443.189288,0.477000,1888637,1000,12,0,1,521.705,9.621,8.562,427.856,-0.980,2.365
1782117443.190288,0.478000,1888638,1000,12,0,1,514.114,-0.199,8.556,429.562,0.994,2.315
1782117443.191288,0.479000,1888639,1000,12,0,1,505.659,-8.449,8.639,433.069,4.181,2.353
1782117443.192288,0.480000,1888640,1000,12,0,1,501.576,-12.252,8.722,436.215,6.889,2.517
1782117443.193288,0.481000,1888641,1000,12,0,1,499.198,-12.297,8.469,436.360,6.347,2.593
1782117443.194288,0.482000,1888642,1000,12,0,1,499.654,-10.524,8.328,437.849,6.168,2.702
1782117443.195288,0.483000,1888643,1000,12,0,1,504.266,-4.727,8.349,439.194,6.677,2.858
1782117443.196288,0.484000,1888644,1000,12,0,1,515.892,5.848,8.350,437.753,4.287,2.918
1782117443.197288,0.485000,1888645,1000,12,0,1,524.083,13.553,8.557,434.582,0.548,2.919
1782117443.198288,0.486000,1888646,1000,12,0,1,521.441,9.517,8.662,434.750,-0.280,2.918
1782117443.199288,0.487000,1888647,1000,12,0,1,505.899,-5.459,8.675,434.486,-0.101,2.918
1782117443.200288,0.488000,1888648,1000,12,0,1,497.228,-15.366,8.750,433.501,-1.424,2.832
1782117443.201288,0.489000,1888649,1000,12,0,1,498.693,-12.105,8.912,434.005,-0.973,2.739
1782117443.202288,0.490000,1888650,1000,12,0,1,511.040,-0.935,8.580,431.363,-2.613,2.764
1782117443.203288,0.491000,1888651,1000,12,0,1,527.590,14.189,8.519,428.649,-5.252,2.859
1782117443.204288,0.492000,1888652,1000,12,0,1,529.992,15.524,8.698,428.361,-4.597,2.931
1782117443.205288,0.493000,1888653,1000,12,0,1,526.389,7.669,8.745,428.985,-3.290,2.951
1782117443.206288,0.494000,1888654,1000,12,0,1,521.201,1.466,8.744,428.265,-2.914,2.965
1782117443.207288,0.495000,1888655,1000,12,0,1,518.774,-3.280,8.754,429.105,-2.030,2.970
1782117443.208288,0.496000,1888656,1000,12,0,1,518.871,-3.074,8.757,427.520,-2.151,2.985
1782117443.209288,0.497000,1888657,1000,12,0,1,518.678,-3.627,8.752,428.961,-1.456,2.980
1782117443.210288,0.498000,1888658,1000,12,0,1,517.117,-4.580,8.612,428.385,-0.401,2.973
1782117443.211288,0.499000,1888659,1000,12,0,1,520.528,-2.080,8.309,426.343,-2.616,2.987
1782117443.212288,0.500000,1888660,1000,12,0,1,521.225,0.022,8.263,430.426,0.910,2.945
1782117443.213288,0.501000,1888661,1000,12,0,1,516.012,-4.627,8.253,430.691,2.520,2.883
1782117443.214288,0.502000,1888662,1000,12,0,1,520.552,-1.717,8.166,427.472,-1.240,2.878
1782117443.215288,0.503000,1888663,1000,12,0,1,522.690,2.598,8.146,431.651,1.925,2.889
1782117443.216288,0.504000,1888664,1000,12,0,1,515.364,-4.457,8.125,433.645,4.679,2.950
1782117443.217288,0.505000,1888665,1000,12,0,1,503.185,-14.197,8.307,437.248,6.070,3.071
1782117443.218288,0.506000,1888666,1000,12,0,1,489.325,-24.580,8.979,442.317,10.220,3.376
1782117443.219288,0.507000,1888667,1000,12,0,1,479.645,-29.653,9.880,445.055,10.931,3.659
1782117443.220288,0.508000,1888668,1000,12,0,1,475.753,-28.088,10.627,442.004,6.974,3.752
1782117443.221288,0.509000,1888669,1000,12,0,1,485.890,-15.505,10.850,436.600,0.377,3.750
1782117443.222288,0.510000,1888670,1000,12,0,1,517.862,14.813,11.015,431.820,-4.303,3.795
1782117443.223288,0.511000,1888671,1000,12,0,1,536.358,33.734,11.964,427.592,-7.543,3.940
1782117443.224288,0.512000,1888672,1000,12,0,1,515.508,12.749,12.057,426.943,-7.535,4.065
1782117443.225288,0.513000,1888673,1000,12,0,1,495.691,-11.243,12.073,428.769,-4.338,4.106
1782117443.226288,0.514000,1888674,1000,12,0,1,495.835,-10.342,12.020,427.208,-4.370,4.150
1782117443.227288,0.515000,1888675,1000,12,0,1,506.692,0.460,11.917,423.268,-7.001,4.261
1782117443.228288,0.516000,1888676,1000,12,0,1,514.283,8.993,11.962,420.194,-8.633,4.417
1782117443.229288,0.517000,1888677,1000,12,0,1,506.068,2.334,11.965,419.449,-7.837,4.546
1782117443.230288,0.518000,1888678,1000,12,0,1,506.884,0.091,11.960,420.218,-5.624,4.605
1782117443.231288,0.519000,1888679,1000,12,0,1,529.368,19.913,12.258,420.074,-4.274,4.642
1782117443.232288,0.520000,1888680,1000,12,0,1,557.472,42.972,13.617,422.307,-1.878,4.648
1782117443.233288,0.521000,1888681,1000,12,0,1,562.396,44.310,14.990,423.989,0.786,4.645
1782117443.234288,0.522000,1888682,1000,12,0,1,543.564,20.418,15.248,428.745,4.203,4.680
1782117443.235288,0.523000,1888683,1000,12,0,1,522.113,-3.846,15.252,432.636,8.026,4.815
1782117443.236288,0.524000,1888684,1000,12,0,1,502.705,-21.217,15.485,437.176,10.123,5.022
1782117443.237288,0.525000,1888685,1000,12,0,1,500.951,-22.791,15.678,432.828,6.484,5.088
1782117443.238288,0.526000,1888686,1000,12,0,1,514.355,-6.861,15.583,426.175,-1.789,5.074
1782117443.239288,0.527000,1888687,1000,12,0,1,528.887,7.420,15.559,421.803,-5.054,5.122
1782117443.240288,0.528000,1888688,1000,12,0,1,527.326,7.072,15.591,425.166,-2.265,5.130
1782117443.241288,0.529000,1888689,1000,12,0,1,518.174,-4.105,15.556,430.330,3.972,5.127
1782117443.242288,0.530000,1888690,1000,12,0,1,522.041,-2.895,15.465,429.706,3.904,5.063
1782117443.243288,0.531000,1888691,1000,12,0,1,531.409,5.474,15.386,430.811,3.755,5.011
1782117443.244288,0.532000,1888692,1000,12,0,1,540.249,10.659,15.388,429.225,3.441,4.959
1782117443.245288,0.533000,1888693,1000,12,0,1,541.042,9.569,15.433,427.112,0.363,4.868
1782117443.246288,0.534000,1888694,1000,12,0,1,529.800,-3.397,15.419,426.511,0.527,4.831
1782117443.247288,0.535000,1888695,1000,12,0,1,521.273,-13.525,15.418,429.538,2.490,4.843
1782117443.248288,0.536000,1888696,1000,12,0,1,522.954,-11.994,15.453,429.009,3.018,4.862
1782117443.249288,0.537000,1888697,1000,12,0,1,525.044,-8.360,15.478,427.880,0.592,4.862
1782117443.250288,0.538000,1888698,1000,12,0,1,522.786,-9.291,15.381,429.874,2.109,4.867
1782117443.251288,0.539000,1888699,1000,12,0,1,522.906,-8.500,15.333,429.466,1.636,4.871
1782117443.252288,0.540000,1888700,1000,12,0,1,519.231,-9.018,15.385,432.997,2.933,4.875
1782117443.253288,0.541000,1888701,1000,12,0,1,517.501,-9.872,15.318,432.877,3.457,4.842
1782117443.254288,0.542000,1888702,1000,12,0,1,519.063,-5.699,15.181,434.078,1.884,4.806
1782117443.255288,0.543000,1888703,1000,12,0,1,518.822,-3.932,15.152,434.150,2.323,4.795
1782117443.256288,0.544000,1888704,1000,12,0,1,516.997,-3.947,15.161,433.813,0.229,4.777
1782117443.257288,0.545000,1888705,1000,12,0,1,516.829,-2.916,15.160,431.796,-1.329,4.772
1782117443.258288,0.546000,1888706,1000,12,0,1,518.054,-0.661,15.154,432.588,-1.758,4.769
1782117443.259288,0.547000,1888707,1000,12,0,1,517.381,-0.238,15.145,432.084,-1.260,4.768
1782117443.260288,0.548000,1888708,1000,12,0,1,516.204,-1.296,15.132,430.234,-3.126,4.788
1782117443.261288,0.549000,1888709,1000,12,0,1,517.982,0.262,15.130,430.955,-2.258,4.784
1782117443.262288,0.550000,1888710,1000,12,0,1,521.489,3.140,15.136,429.634,-2.152,4.792
1782117443.263288,0.551000,1888711,1000,12,0,1,525.885,6.107,15.147,428.673,-3.161,4.800
1782117443.264288,0.552000,1888712,1000,12,0,1,529.728,8.114,15.188,424.541,-4.926,4.847
1782117443.265288,0.553000,1888713,1000,12,0,1,527.854,5.187,15.201,425.262,-4.881,4.888
1782117443.266288,0.554000,1888714,1000,12,0,1,523.843,-0.458,15.188,425.983,-1.727,4.849
1782117443.267288,0.555000,1888715,1000,12,0,1,523.627,-1.667,15.057,424.661,-2.927,4.791
1782117443.268288,0.556000,1888716,1000,12,0,1,525.212,-0.298,14.650,425.935,-1.228,4.571
1782117443.269288,0.557000,1888717,1000,12,0,1,523.627,-1.330,14.039,427.712,0.822,4.303
1782117443.270288,0.558000,1888718,1000,12,0,1,512.073,-10.112,13.541,427.015,0.273,4.189
1782117443.271288,0.559000,1888719,1000,12,0,1,501.792,-18.563,13.617,431.267,2.907,4.208
1782117443.272288,0.560000,1888720,1000,12,0,1,511.112,-8.485,13.509,433.981,5.634,4.240
1782117443.273288,0.561000,1888721,1000,12,0,1,515.243,0.957,12.639,433.693,3.867,4.140
1782117443.274288,0.562000,1888722,1000,12,0,1,514.547,0.093,12.510,433.309,2.455,4.015
1782117443.275288,0.563000,1888723,1000,12,0,1,523.026,8.321,12.464,430.715,-0.298,3.968
1782117443.276288,0.564000,1888724,1000,12,0,1,526.869,13.003,12.514,428.289,-3.231,3.946
1782117443.277288,0.565000,1888725,1000,12,0,1,521.537,7.019,12.553,430.186,-1.529,3.826
1782117443.278288,0.566000,1888726,1000,12,0,1,518.102,2.479,12.493,431.964,0.647,3.627
1782117443.279288,0.567000,1888727,1000,12,0,1,522.113,4.972,12.508,430.643,-0.227,3.454
1782117443.280288,0.568000,1888728,1000,12,0,1,524.131,6.934,12.547,431.435,0.066,3.361
1782117443.281288,0.569000,1888729,1000,12,0,1,520.840,2.455,12.232,431.892,1.366,3.312
1782117443.282288,0.570000,1888730,1000,12,0,1,516.228,-2.662,10.622,430.523,0.121,3.302
1782117443.283288,0.571000,1888731,1000,12,0,1,522.113,0.507,8.577,429.562,-0.424,3.300
1782117443.284288,0.572000,1888732,1000,12,0,1,530.521,8.368,8.162,423.869,-4.270,3.302
1782117443.285288,0.573000,1888733,1000,12,0,1,532.154,8.106,8.224,424.637,-4.337,3.161
1782117443.286288,0.574000,1888734,1000,12,0,1,531.049,4.822,7.688,428.144,0.881,2.821
1782117443.287288,0.575000,1888735,1000,12,0,1,529.007,1.557,6.983,429.105,1.665,2.678
1782117443.288288,0.576000,1888736,1000,12,0,1,525.164,-2.753,6.926,430.763,2.877,2.697
1782117443.289288,0.577000,1888737,1000,12,0,1,519.903,-7.244,6.923,431.627,3.353,2.643
1782117443.290288,0.578000,1888738,1000,12,0,1,519.471,-7.519,6.932,428.865,0.379,2.624
1782117443.291288,0.579000,1888739,1000,12,0,1,520.024,-4.829,6.941,427.904,-1.510,2.572
1782117443.292288,0.580000,1888740,1000,12,0,1,523.266,-1.542,6.933,425.526,-3.153,2.552
1782117443.293288,0.581000,1888741,1000,12,0,1,526.365,2.841,6.901,424.685,-4.478,2.575
1782117443.294288,0.582000,1888742,1000,12,0,1,522.546,0.200,6.734,424.661,-3.668,2.581
1782117443.295288,0.583000,1888743,1000,12,0,1,522.594,-0.644,6.598,425.478,-2.812,2.611
1782117443.296288,0.584000,1888744,1000,12,0,1,524.155,2.100,6.587,428.505,0.164,2.610
1782117443.297288,0.585000,1888745,1000,12,0,1,526.629,3.466,6.322,431.940,3.465,2.632
1782117443.298288,0.586000,1888746,1000,12,0,1,521.873,0.378,6.090,433.189,4.349,2.669
1782117443.299288,0.587000,1888747,1000,12,0,1,524.563,-0.163,5.975,428.265,0.259,2.668
1782117443.300288,0.588000,1888748,1000,12,0,1,532.442,7.635,5.928,423.557,-4.614,2.731
1782117443.301288,0.589000,1888749,1000,12,0,1,526.869,2.382,5.814,425.190,-2.428,2.742
1782117443.302288,0.590000,1888750,1000,12,0,1,521.032,-5.742,5.730,430.306,2.994,2.744
1782117443.303288,0.591000,1888751,1000,12,0,1,522.594,-4.303,5.591,434.294,6.979,2.875
1782117443.304288,0.592000,1888752,1000,12,0,1,526.773,-0.980,5.534,433.789,6.288,2.997
1782117443.305288,0.593000,1888753,1000,12,0,1,526.437,-0.733,5.507,431.603,3.337,3.016
1782117443.306288,0.594000,1888754,1000,12,0,1,515.267,-10.325,5.670,430.138,1.550,3.024
1782117443.307288,0.595000,1888755,1000,12,0,1,507.869,-17.195,6.156,430.811,1.558,3.026
1782117443.308288,0.596000,1888756,1000,12,0,1,506.140,-15.570,6.537,432.660,2.934,3.044
1782117443.309288,0.597000,1888757,1000,12,0,1,500.327,-17.011,6.966,435.543,4.580,3.107
1782117443.310288,0.598000,1888758,1000,12,0,1,492.952,-20.162,7.524,436.023,4.394,3.138
1782117443.311288,0.599000,1888759,1000,12,0,1,513.178,-1.717,7.528,430.042,-1.637,3.130
1782117443.312288,0.600000,1888760,1000,12,0,1,546.086,31.323,8.723,420.794,-10.384,3.444
1782117443.313288,0.601000,1888761,1000,12,0,1,550.145,35.009,9.993,419.209,-11.894,3.807
1782117443.314288,0.602000,1888762,1000,12,0,1,540.177,19.417,10.300,422.692,-6.831,3.865
1782117443.315288,0.603000,1888763,1000,12,0,1,537.607,13.267,10.444,424.589,-3.852,3.842
1782117443.316288,0.604000,1888764,1000,12,0,1,534.100,8.384,10.511,424.734,-3.014,3.858
1782117443.317288,0.605000,1888765,1000,12,0,1,534.652,5.919,10.541,425.862,-1.644,3.842
1782117443.318288,0.606000,1888766,1000,12,0,1,541.954,10.850,10.652,424.445,-1.886,3.848
1782117443.319288,0.607000,1888767,1000,12,0,1,537.126,6.393,10.689,426.751,-0.317,3.846
1782117443.320288,0.608000,1888768,1000,12,0,1,531.241,-2.628,10.599,427.448,1.821,3.855
1782117443.321288,0.609000,1888769,1000,12,0,1,530.112,-3.688,10.282,426.679,0.694,3.834
1782117443.322288,0.610000,1888770,1000,12,0,1,530.761,-3.882,10.227,426.631,1.135,3.754
1782117443.323288,0.611000,1888771,1000,12,0,1,535.781,-0.023,10.226,423.893,-0.638,3.715
1782117443.324288,0.612000,1888772,1000,12,0,1,541.498,4.580,10.246,422.211,-2.184,3.711
1782117443.325288,0.613000,1888773,1000,12,0,1,541.666,3.610,10.191,421.707,-1.454,3.717
1782117443.326288,0.614000,1888774,1000,12,0,1,539.168,-0.384,10.024,427.015,2.828,3.710
1782117443.327288,0.615000,1888775,1000,12,0,1,533.451,-6.028,10.011,428.120,5.508,3.785
1782117443.328288,0.616000,1888776,1000,12,0,1,530.929,-9.148,10.088,425.574,1.850,3.793
1782117443.329288,0.617000,1888777,1000,12,0,1,532.298,-7.057,10.113,425.911,1.854,3.802
1782117443.330288,0.618000,1888778,1000,12,0,1,533.307,-5.290,10.093,426.343,2.135,3.814
1782117443.331288,0.619000,1888779,1000,12,0,1,537.414,-1.757,10.091,425.550,1.010,3.812
1782117443.332288,0.620000,1888780,1000,12,0,1,537.414,-0.402,10.084,425.550,0.596,3.812
1782117443.333288,0.621000,1888781,1000,12,0,1,518.750,-15.217,10.310,430.955,4.311,3.860
1782117443.334288,0.622000,1888782,1000,12,0,1,508.422,-25.340,10.851,432.660,6.302,3.916
1782117443.335288,0.623000,1888783,1000,12,0,1,507.893,-20.346,11.168,429.706,1.973,3.877
1782117443.336288,0.624000,1888784,1000,12,0,1,515.460,-11.170,11.258,426.991,-1.057,3.878
1782117443.337288,0.625000,1888785,1000,12,0,1,527.782,3.161,11.265,426.151,-2.231,3.884
1782117443.338288,0.626000,1888786,1000,12,0,1,528.070,5.530,11.285,422.187,-4.771,3.921
1782117443.339288,0.627000,1888787,1000,12,0,1,523.843,0.282,11.239,422.884,-4.700,3.949
1782117443.340288,0.628000,1888788,1000,12,0,1,527.878,3.467,11.199,424.758,-1.207,3.952
1782117443.341288,0.629000,1888789,1000,12,0,1,535.157,9.690,11.262,425.670,-0.265,3.946
1782117443.342288,0.630000,1888790,1000,12,0,1,533.235,8.007,11.316,425.334,0.152,3.921
1782117443.343288,0.631000,1888791,1000,12,0,1,532.827,4.525,11.327,425.718,0.443,3.870
1782117443.344288,0.632000,1888792,1000,12,0,1,535.012,6.304,11.362,422.716,-1.295,3.840
1782117443.345288,0.633000,1888793,1000,12,0,1,532.971,3.459,11.373,422.860,-1.750,3.827
1782117443.346288,0.634000,1888794,1000,12,0,1,530.689,0.367,11.369,423.316,-0.091,3.827
1782117443.347288,0.635000,1888795,1000,12,0,1,530.545,-0.006,11.358,421.875,-1.260,3.800
1782117443.348288,0.636000,1888796,1000,12,0,1,529.175,-0.906,11.359,423.124,-0.303,3.750
1782117443.349288,0.637000,1888797,1000,12,0,1,528.791,-1.270,11.360,422.980,0.448,3.750
1782117443.350288,0.638000,1888798,1000,12,0,1,527.542,-1.497,11.311,426.199,2.065,3.704
1782117443.351288,0.639000,1888799,1000,12,0,1,526.413,-2.161,11.310,427.304,3.976,3.731
1782117443.352288,0.640000,1888800,1000,12,0,1,524.852,-2.516,11.286,427.688,2.593,3.725
1782117443.353288,0.641000,1888801,1000,12,0,1,525.452,-1.593,11.272,425.550,1.024,3.595
1782117443.354288,0.642000,1888802,1000,12,0,1,526.965,0.714,11.272,423.917,-1.689,3.491
1782117443.355288,0.643000,1888803,1000,12,0,1,528.094,1.960,11.275,424.517,-0.903,3.462
1782117443.356288,0.644000,1888804,1000,12,0,1,525.524,0.164,11.180,423.941,-1.145,3.458
1782117443.357288,0.645000,1888805,1000,12,0,1,527.806,1.001,10.913,424.685,-0.786,3.453
1782117443.358288,0.646000,1888806,1000,12,0,1,527.638,2.072,10.693,424.157,-0.386,3.429
1782117443.359288,0.647000,1888807,1000,12,0,1,520.888,-4.371,10.437,424.109,-0.853,3.369
1782117443.360288,0.648000,1888808,1000,12,0,1,522.834,-3.867,10.055,420.794,-2.419,3.329
1782117443.361288,0.649000,1888809,1000,12,0,1,533.931,6.565,10.095,416.446,-6.277,3.437
1782117443.362288,0.650000,1888810,1000,12,0,1,537.487,9.866,9.177,415.822,-5.590,3.207
1782117443.363288,0.651000,1888811,1000,12,0,1,531.289,2.739,7.737,416.086,-3.786,2.782
1782117443.364288,0.652000,1888812,1000,12,0,1,525.572,-3.999,7.255,417.816,-1.389,2.617
1782117443.365288,0.653000,1888813,1000,12,0,1,524.203,-5.114,7.046,417.599,-0.166,2.560
1782117443.366288,0.654000,1888814,1000,12,0,1,527.182,-2.187,6.952,417.263,-0.491,2.525
1782117443.367288,0.655000,1888815,1000,12,0,1,534.964,4.912,6.937,423.893,5.106,2.616
1782117443.368288,0.656000,1888816,1000,12,0,1,538.447,8.459,6.870,425.838,7.782,2.825
1782117443.369288,0.657000,1888817,1000,12,0,1,531.481,1.794,6.815,424.589,4.735,2.903
1782117443.370288,0.658000,1888818,1000,12,0,1,521.513,-7.742,6.892,423.172,2.972,2.922
1782117443.371288,0.659000,1888819,1000,12,0,1,510.271,-15.868,7.229,423.004,1.651,2.930
1782117443.372288,0.660000,1888820,1000,12,0,1,502.609,-20.510,7.770,421.899,0.650,2.927
1782117443.373288,0.661000,1888821,1000,12,0,1,508.446,-12.519,7.969,421.683,-0.292,2.926
1782117443.374288,0.662000,1888822,1000,12,0,1,520.936,2.150,7.949,419.281,-1.878,2.921
1782117443.375288,0.663000,1888823,1000,12,0,1,547.767,24.327,8.646,418.176,-3.274,2.951
1782117443.376288,0.664000,1888824,1000,12,0,1,563.045,38.510,10.218,419.953,-1.091,2.928
1782117443.377288,0.665000,1888825,1000,12,0,1,550.097,21.755,10.637,420.986,0.497,2.823
1782117443.378288,0.666000,1888826,1000,12,0,1,534.964,1.995,10.562,417.383,-2.075,2.826
1782117443.379288,0.667000,1888827,1000,12,0,1,529.079,-5.153,10.540,417.335,-2.473,2.835
1782117443.380288,0.668000,1888828,1000,12,0,1,525.885,-8.185,10.577,418.896,0.208,2.820
1782117443.381288,0.669000,1888829,1000,12,0,1,526.317,-7.620,10.629,419.353,0.934,2.819
1782117443.382288,0.670000,1888830,1000,12,0,1,529.007,-4.492,10.648,417.840,0.109,2.818
1782117443.383288,0.671000,1888831,1000,12,0,1,535.084,0.839,10.429,416.134,-1.262,2.757
1782117443.384288,0.672000,1888832,1000,12,0,1,535.133,1.818,9.797,417.647,0.135,2.609
1782117443.385288,0.673000,1888833,1000,12,0,1,525.092,-7.205,9.420,418.176,1.492,2.602
1782117443.386288,0.674000,1888834,1000,12,0,1,514.979,-15.952,9.557,420.170,2.453,2.621
1782117443.387288,0.675000,1888835,1000,12,0,1,503.209,-22.900,10.081,422.860,5.012,2.697
1782117443.388288,0.676000,1888836,1000,12,0,1,494.417,-27.562,10.780,425.238,5.977,2.745
1782117443.389288,0.677000,1888837,1000,12,0,1,489.133,-26.352,11.406,427.568,7.045,2.843
1782117443.390288,0.678000,1888838,1000,12,0,1,491.991,-19.435,11.722,429.442,7.186,3.015
1782117443.391288,0.679000,1888839,1000,12,0,1,509.166,-0.253,11.642,435.471,10.217,3.343
1782117443.392288,0.680000,1888840,1000,12,0,1,522.786,15.520,11.793,436.696,10.496,3.657
1782117443.393288,0.681000,1888841,1000,12,0,1,515.267,9.581,11.853,434.318,5.365,3.735
1782117443.394288,0.682000,1888842,1000,12,0,1,507.413,-0.156,11.819,428.985,-0.243,3.730
1782117443.395288,0.683000,1888843,1000,12,0,1,514.475,5.727,11.837,421.106,-8.098,3.894
1782117443.396288,0.684000,1888844,1000,12,0,1,535.229,22.938,12.273,411.402,-15.558,4.473
1782117443.397288,0.685000,1888845,1000,12,0,1,558.529,41.009,13.575,407.895,-17.479,5.107
1782117443.398288,0.686000,1888846,1000,12,0,1,568.713,44.958,14.989,411.979,-10.929,5.336
1782117443.399288,0.687000,1888847,1000,12,0,1,562.084,31.693,15.644,418.872,-2.451,5.347
1782117443.400288,0.688000,1888848,1000,12,0,1,545.822,10.860,15.718,422.908,2.607,5.352
1782117443.401288,0.689000,1888849,1000,12,0,1,529.896,-7.311,15.749,423.340,3.180,5.341
1782117443.402288,0.690000,1888850,1000,12,0,1,530.953,-8.567,15.791,416.759,-2.169,5.337
1782117443.403288,0.691000,1888851,1000,12,0,1,537.342,-0.772,15.790,412.507,-6.659,5.418
1782117443.404288,0.692000,1888852,1000,12,0,1,537.078,-0.741,15.790,410.057,-7.106,5.505
1782117443.405288,0.693000,1888853,1000,12,0,1,537.198,-1.297,15.789,411.426,-5.431,5.557
1782117443.406288,0.694000,1888854,1000,12,0,1,532.250,-4.391,15.801,414.092,-1.463,5.558
1782117443.407288,0.695000,1888855,1000,12,0,1,523.723,-12.022,15.891,416.254,0.772,5.558
1782117443.408288,0.696000,1888856,1000,12,0,1,519.831,-14.138,16.014,418.416,2.712,5.571
1782117443.409288,0.697000,1888857,1000,12,0,1,528.599,-5.666,16.022,417.191,1.868,5.576
1782117443.410288,0.698000,1888858,1000,12,0,1,536.021,3.506,16.021,416.951,0.610,5.566
1782117443.411288,0.699000,1888859,1000,12,0,1,534.724,1.587,15.995,417.023,1.222,5.498
1782117443.412288,0.700000,1888860,1000,12,0,1,535.445,0.407,15.934,416.663,0.502,5.441
1782117443.413288,0.701000,1888861,1000,12,0,1,535.325,0.023,15.930,417.287,1.297,5.418
1782117443.414288,0.702000,1888862,1000,12,0,1,534.436,-2.481,15.923,417.191,1.434,5.418
1782117443.415288,0.703000,1888863,1000,12,0,1,533.259,-3.917,15.917,416.759,1.165,5.420
1782117443.416288,0.704000,1888864,1000,12,0,1,528.118,-8.718,15.961,416.783,1.444,5.424
1782117443.417288,0.705000,1888865,1000,12,0,1,531.313,-7.157,15.978,418.176,2.764,5.390
1782117443.418288,0.706000,1888866,1000,12,0,1,531.914,-4.262,15.945,418.776,3.701,5.302
1782117443.419288,0.707000,1888867,1000,12,0,1,528.407,-7.885,15.982,416.663,1.865,5.266
1782117443.420288,0.708000,1888868,1000,12,0,1,527.038,-7.970,15.984,417.575,2.067,5.258
1782117443.421288,0.709000,1888869,1000,12,0,1,530.665,-3.937,15.835,416.975,2.358,5.263
1782117443.422288,0.710000,1888870,1000,12,0,1,538.327,3.952,15.578,412.219,-2.000,5.270
1782117443.423288,0.711000,1888871,1000,12,0,1,542.002,8.161,15.520,409.384,-4.557,5.309
1782117443.424288,0.712000,1888872,1000,12,0,1,541.666,6.967,15.548,412.123,-1.734,5.308
1782117443.425288,0.713000,1888873,1000,12,0,1,541.450,6.215,15.188,411.330,-1.000,5.290
1782117443.426288,0.714000,1888874,1000,12,0,1,542.579,6.391,14.207,411.906,-1.366,5.291
1782117443.427288,0.715000,1888875,1000,12,0,1,540.321,4.490,13.884,413.612,0.892,5.292
1782117443.428288,0.716000,1888876,1000,12,0,1,536.694,0.252,13.881,415.005,1.597,5.289
1782117443.429288,0.717000,1888877,1000,12,0,1,545.822,6.573,13.893,419.137,4.536,5.316
1782117443.430288,0.718000,1888878,1000,12,0,1,551.731,12.809,13.963,416.687,2.843,5.331
1782117443.431288,0.719000,1888879,1000,12,0,1,546.999,6.026,13.947,415.005,-0.770,5.330
1782117443.432288,0.720000,1888880,1000,12,0,1,541.378,-1.178,13.934,415.389,0.235,5.330
1782117443.433288,0.721000,1888881,1000,12,0,1,535.084,-7.410,13.973,419.065,2.466,5.339
1782117443.434288,0.722000,1888882,1000,12,0,1,531.025,-11.593,14.066,421.106,4.970,5.385
1782117443.435288,0.723000,1888883,1000,12,0,1,535.877,-7.211,14.066,417.864,1.508,5.385
1782117443.436288,0.724000,1888884,1000,12,0,1,541.426,-1.160,13.885,415.750,-1.019,5.376
1782117443.437288,0.725000,1888885,1000,12,0,1,534.844,-6.123,13.530,417.335,0.652,5.330
1782117443.438288,0.726000,1888886,1000,12,0,1,522.426,-17.420,13.188,420.194,3.343,5.283
1782117443.439288,0.727000,1888887,1000,12,0,1,525.572,-14.542,12.817,419.737,3.361,5.210
1782117443.440288,0.728000,1888888,1000,12,0,1,534.076,-3.270,12.527,416.855,0.233,5.110
1782117443.441288,0.729000,1888889,1000,12,0,1,530.473,-4.325,12.542,418.632,1.236,4.905
1782117443.442288,0.730000,1888890,1000,12,0,1,532.562,-3.508,12.359,418.248,1.702,4.681
1782117443.443288,0.731000,1888891,1000,12,0,1,538.736,4.317,12.299,416.855,-0.447,4.620
1782117443.444288,0.732000,1888892,1000,12,0,1,540.537,5.981,12.328,416.855,-0.429,4.620
1782117443.445288,0.733000,1888893,1000,12,0,1,540.897,6.067,12.332,417.383,-0.266,4.476
1782117443.446288,0.734000,1888894,1000,12,0,1,537.439,3.179,11.906,418.128,0.091,3.898
1782117443.447288,0.735000,1888895,1000,12,0,1,533.331,-0.940,10.398,419.065,0.470,3.014
1782117443.448288,0.736000,1888896,1000,12,0,1,532.010,-1.538,8.231,419.761,0.505,2.589
1782117443.449288,0.737000,1888897,1000,12,0,1,530.881,-1.670,6.908,418.945,-0.590,2.567
1782117443.450288,0.738000,1888898,1000,12,0,1,531.121,-1.001,6.737,419.377,-1.108,2.545
1782117443.451288,0.739000,1888899,1000,12,0,1,530.833,-0.421,6.657,421.202,0.381,2.506
1782117443.452288,0.740000,1888900,1000,12,0,1,526.557,-3.542,6.565,420.386,-0.435,2.488
1782117443.453288,0.741000,1888901,1000,12,0,1,519.951,-8.814,6.681,421.082,-0.622,2.304
1782117443.454288,0.742000,1888902,1000,12,0,1,516.661,-10.807,6.853,422.860,1.170,2.080
1782117443.455288,0.743000,1888903,1000,12,0,1,513.994,-10.864,7.021,424.349,2.120,1.956
1782117443.456288,0.744000,1888904,1000,12,0,1,523.603,-2.489,7.002,421.419,-0.063,1.945
1782117443.457288,0.745000,1888905,1000,12,0,1,534.244,9.527,6.925,419.161,-2.792,1.982
1782117443.458288,0.746000,1888906,1000,12,0,1,522.834,0.419,6.630,423.220,0.942,1.949
1782117443.459288,0.747000,1888907,1000,12,0,1,519.591,-6.257,6.641,421.851,1.241,1.939
1782117443.460288,0.748000,1888908,1000,12,0,1,522.065,-0.746,6.623,417.768,-3.225,1.990
1782117443.461288,0.749000,1888909,1000,12,0,1,519.663,-2.760,6.631,419.401,-1.553,1.995
1782117443.462288,0.750000,1888910,1000,12,0,1,516.396,-4.262,6.658,417.719,-1.653,2.007
1782117443.463288,0.751000,1888911,1000,12,0,1,512.553,-6.158,6.715,418.632,-1.790,2.015
1782117443.464288,0.752000,1888912,1000,12,0,1,508.902,-7.431,6.787,418.224,-0.705,2.007
1782117443.465288,0.753000,1888913,1000,12,0,1,511.568,-3.314,6.781,416.783,-2.728,2.037
1782117443.466288,0.754000,1888914,1000,12,0,1,516.468,3.454,6.686,413.396,-4.795,2.137
1782117443.467288,0.755000,1888915,1000,12,0,1,530.593,15.407,6.959,412.171,-6.235,2.279
1782117443.468288,0.756000,1888916,1000,12,0,1,538.471,23.558,7.692,410.321,-6.373,2.394
1782117443.469288,0.757000,1888917,1000,12,0,1,534.772,17.329,7.995,413.083,-4.192,2.452
1782117443.470288,0.758000,1888918,1000,12,0,1,521.801,4.227,7.938,420.049,2.855,2.468
1782117443.471288,0.759000,1888919,1000,12,0,1,515.388,-4.015,7.939,425.598,7.609,2.672
1782117443.472288,0.760000,1888920,1000,12,0,1,526.557,5.311,7.954,423.773,5.462,2.767
1782117443.473288,0.761000,1888921,1000,12,0,1,539.961,17.847,8.265,420.578,1.021,2.694
1782117443.474288,0.762000,1888922,1000,12,0,1,541.522,17.108,8.555,421.707,1.281,2.689
1782117443.475288,0.763000,1888923,1000,12,0,1,535.589,8.625,8.597,424.229,3.671,2.735
1782117443.476288,0.764000,1888924,1000,12,0,1,526.965,-1.451,8.552,424.397,3.522,2.774
1782117443.477288,0.765000,1888925,1000,12,0,1,520.360,-8.384,8.610,423.148,2.133,2.787
1782117443.478288,0.766000,1888926,1000,12,0,1,519.159,-9.399,8.712,420.578,-0.216,2.778
1782117443.479288,0.767000,1888927,1000,12,0,1,517.790,-8.871,8.753,420.554,-0.390,2.704
1782117443.480288,0.768000,1888928,1000,12,0,1,518.871,-7.547,8.630,418.728,-0.943,2.677
1782117443.481288,0.769000,1888929,1000,12,0,1,523.555,-2.045,8.592,417.335,-2.298,2.694
1782117443.482288,0.770000,1888930,1000,12,0,1,519.663,-3.653,8.606,417.263,-1.524,2.703
1782117443.483288,0.771000,1888931,1000,12,0,1,518.630,-5.601,8.579,419.089,0.206,2.680
1782117443.484288,0.772000,1888932,1000,12,0,1,518.558,-3.304,8.434,423.989,4.402,2.660
1782117443.485288,0.773000,1888933,1000,12,0,1,521.056,-1.378,8.374,426.391,6.431,2.803
1782117443.486288,0.774000,1888934,1000,12,0,1,520.864,0.424,8.373,424.998,3.776,2.850
1782117443.487288,0.775000,1888935,1000,12,0,1,521.104,-0.040,8.328,424.061,1.573,2.857
1782117443.488288,0.776000,1888936,1000,12,0,1,523.891,3.024,7.967,421.058,-1.602,2.827
1782117443.489288,0.777000,1888937,1000,12,0,1,539.288,14.544,7.967,416.759,-6.043,2.915
1782117443.490288,0.778000,1888938,1000,12,0,1,562.348,33.277,9.241,415.197,-7.437,3.099
1782117443.491288,0.779000,1888939,1000,12,0,1,556.871,27.234,9.993,418.632,-4.030,3.146
1782117443.492288,0.780000,1888940,1000,12,0,1,536.910,1.959,9.985,419.329,-2.090,3.150
1782117443.493288,0.781000,1888941,1000,12,0,1,523.386,-11.778,10.104,420.025,-1.959,3.162
1782117443.494288,0.782000,1888942,1000,12,0,1,518.150,-16.632,10.340,422.428,0.687,3.163
1782117443.495288,0.783000,1888943,1000,12,0,1,529.103,-6.304,10.343,421.395,0.258,3.163
1782117443.496288,0.784000,1888944,1000,12,0,1,538.567,4.879,10.356,417.816,-2.877,3.189
1782117443.497288,0.785000,1888945,1000,12,0,1,531.097,-1.626,10.358,419.857,-1.174,3.193
1782117443.498288,0.786000,1888946,1000,12,0,1,527.950,-6.752,10.399,419.665,0.420,3.192
1782117443.499288,0.787000,1888947,1000,12,0,1,529.151,-4.102,10.413,415.341,-3.186,3.223
1782117443.500288,0.788000,1888948,1000,12,0,1,529.944,-3.447,10.423,415.053,-3.126,3.249
1782117443.501288,0.789000,1888949,1000,12,0,1,526.029,-5.615,10.453,414.477,-1.877,3.260
1782117443.502288,0.790000,1888950,1000,12,0,1,520.672,-10.257,10.541,414.789,-1.472,3.266
1782117443.503288,0.791000,1888951,1000,12,0,1,519.063,-10.464,10.572,413.083,-1.430,3.271
1782117443.504288,0.792000,1888952,1000,12,0,1,519.231,-8.393,10.528,413.996,-1.155,3.271
1782117443.505288,0.793000,1888953,1000,12,0,1,519.303,-6.860,10.460,416.086,1.782,3.267
1782117443.506288,0.794000,1888954,1000,12,0,1,523.194,-2.482,10.460,418.945,3.631,3.307
1782117443.507288,0.795000,1888955,1000,12,0,1,525.692,1.093,10.374,419.929,4.481,3.344
1782117443.508288,0.796000,1888956,1000,12,0,1,530.809,4.845,10.396,422.187,4.886,3.412
1782117443.509288,0.797000,1888957,1000,12,0,1,541.834,13.743,10.539,420.458,3.267,3.438
1782117443.510288,0.798000,1888958,1000,12,0,1,547.047,17.516,10.826,416.206,-1.866,3.418
1782117443.511288,0.799000,1888959,1000,12,0,1,534.460,4.819,10.841,413.252,-4.647,3.474
1782117443.512288,0.800000,1888960,1000,12,0,1,517.309,-12.696,10.972,413.660,-4.067,3.513
1782117443.513288,0.801000,1888961,1000,12,0,1,513.466,-15.954,11.167,417.455,-0.259,3.504
1782117443.514288,0.802000,1888962,1000,12,0,1,519.519,-7.716,11.171,418.632,1.813,3.512
1782117443.515288,0.803000,1888963,1000,12,0,1,523.483,-1.754,11.164,416.975,0.060,3.491
1782117443.516288,0.804000,1888964,1000,12,0,1,525.476,0.751,11.154,413.780,-2.110,3.438
1782117443.517288,0.805000,1888965,1000,12,0,1,523.170,-0.182,10.939,411.690,-3.703,3.364
1782117443.518288,0.806000,1888966,1000,12,0,1,516.396,-5.660,10.450,416.494,1.024,3.244
1782117443.519288,0.807000,1888967,1000,12,0,1,514.547,-6.959,10.206,413.468,0.799,3.191
1782117443.520288,0.808000,1888968,1000,12,0,1,523.362,1.749,10.192,411.738,-2.172,3.181
1782117443.521288,0.809000,1888969,1000,12,0,1,527.998,7.729,10.234,412.459,0.297,2.993
1782117443.522288,0.810000,1888970,1000,12,0,1,527.302,5.832,10.240,412.747,0.514,2.893
1782117443.523288,0.811000,1888971,1000,12,0,1,527.494,5.074,9.950,412.867,1.167,2.894
1782117443.524288,0.812000,1888972,1000,12,0,1,528.335,4.979,9.677,411.786,0.342,2.889
1782117443.525288,0.813000,1888973,1000,12,0,1,527.926,3.847,9.615,413.396,1.167,2.846
1782117443.526288,0.814000,1888974,1000,12,0,1,526.485,1.819,9.617,413.252,1.730,2.813
1782117443.527288,0.815000,1888975,1000,12,0,1,525.212,0.062,9.543,412.027,-0.361,2.797
1782117443.528288,0.816000,1888976,1000,12,0,1,523.699,-1.262,9.452,412.603,0.121,2.797
1782117443.529288,0.817000,1888977,1000,12,0,1,522.954,-2.048,9.373,415.822,2.285,2.815
1782117443.530288,0.818000,1888978,1000,12,0,1,530.473,3.933,9.328,413.059,0.612,2.814
1782117443.531288,0.819000,1888979,1000,12,0,1,541.402,13.617,9.521,410.441,-3.191,2.831
1782117443.532288,0.820000,1888980,1000,12,0,1,536.766,9.561,9.602,408.736,-3.646,2.869
1782117443.533288,0.821000,1888981,1000,12,0,1,525.764,-3.143,9.580,412.171,-1.107,2.874
1782117443.534288,0.822000,1888982,1000,12,0,1,514.475,-12.299,9.725,417.431,4.667,2.882
1782117443.535288,0.823000,1888983,1000,12,0,1,515.556,-11.743,9.864,414.741,2.809,2.763
1782117443.536288,0.824000,1888984,1000,12,0,1,517.862,-5.555,9.895,414.669,1.142,2.716
1782117443.537288,0.825000,1888985,1000,12,0,1,521.152,-2.586,9.902,416.326,3.695,2.757
1782117443.538288,0.826000,1888986,1000,12,0,1,529.920,6.070,9.930,416.759,3.441,2.790
1782117443.539288,0.827000,1888987,1000,12,0,1,541.930,15.844,9.970,419.761,5.783,2.779
1782117443.540288,0.828000,1888988,1000,12,0,1,542.123,15.394,9.055,421.563,7.110,2.762
1782117443.541288,0.829000,1888989,1000,12,0,1,529.584,1.616,8.198,419.953,4.862,2.789
1782117443.542288,0.830000,1888990,1000,12,0,1,517.669,-10.877,8.336,419.905,3.488,2.817
1782117443.543288,0.831000,1888991,1000,12,0,1,521.201,-8.238,8.251,416.566,0.686,2.805
1782117443.544288,0.832000,1888992,1000,12,0,1,538.375,7.546,7.980,409.360,-6.231,2.938
1782117443.545288,0.833000,1888993,1000,12,0,1,540.657,11.483,8.095,409.216,-6.864,3.094
1782117443.546288,0.834000,1888994,1000,12,0,1,538.207,4.785,8.094,410.225,-4.154,3.123
1782117443.547288,0.835000,1888995,1000,12,0,1,541.714,6.866,8.148,412.315,-2.642,3.141
1782117443.548288,0.836000,1888996,1000,12,0,1,540.513,4.673,8.119,411.762,-1.917,3.152
1782117443.549288,0.837000,1888997,1000,12,0,1,538.832,1.126,8.100,414.381,-0.882,3.122
1782117443.550288,0.838000,1888998,1000,12,0,1,534.772,-2.411,8.092,418.584,3.414,3.128
1782117443.551288,0.839000,1888999,1000,12,0,1,529.728,-7.597,8.125,417.023,1.675,3.126
1782117443.552288,0.840000,1889000,1000,12,0,1,524.275,-11.034,8.145,418.104,0.929,3.122
1782117443.553288,0.841000,1889001,1000,12,0,1,522.666,-11.705,8.179,417.527,1.139,3.119
1782117443.554288,0.842000,1889002,1000,12,0,1,527.566,-5.517,8.130,415.846,-1.521,3.122
1782117443.555288,0.843000,1889003,1000,12,0,1,541.354,6.942,8.131,411.810,-4.053,3.165
1782117443.556288,0.844000,1889004,1000,12,0,1,548.560,14.435,8.376,409.865,-6.083,3.239
1782117443.557288,0.845000,1889005,1000,12,0,1,533.787,0.697,8.375,415.053,-0.565,3.177
1782117443.558288,0.846000,1889006,1000,12,0,1,509.310,-22.300,8.923,420.554,5.379,3.193
1782117443.559288,0.847000,1889007,1000,12,0,1,507.389,-24.211,9.358,418.872,4.184,3.215
1782117443.560288,0.848000,1889008,1000,12,0,1,515.460,-11.366,9.166,417.215,1.590,3.212
1782117443.561288,0.849000,1889009,1000,12,0,1,515.748,-8.212,9.214,419.473,3.385,3.180
1782117443.562288,0.850000,1889010,1000,12,0,1,525.500,0.011,9.037,417.071,1.882,3.139
1782117443.563288,0.851000,1889011,1000,12,0,1,541.114,15.289,9.014,414.549,-1.529,3.146
1782117443.564288,0.852000,1889012,1000,12,0,1,548.104,19.911,9.381,415.990,-0.023,3.136
1782117443.565288,0.853000,1889013,1000,12,0,1,547.167,15.988,9.646,414.621,-0.776,3.137
1782117443.566288,0.854000,1889014,1000,12,0,1,537.751,5.131,9.673,416.831,0.052,3.123
1782117443.567288,0.855000,1889015,1000,12,0,1,527.518,-6.209,9.713,416.663,0.883,3.082
1782117443.568288,0.856000,1889016,1000,12,0,1,518.558,-13.346,9.862,418.993,1.072,3.082
1782117443.569288,0.857000,1889017,1000,12,0,1,510.992,-18.261,10.147,421.275,3.511,3.120
1782117443.570288,0.858000,1889018,1000,12,0,1,508.590,-17.492,10.441,423.316,3.620,3.146
1782117443.571288,0.859000,1889019,1000,12,0,1,515.315,-8.605,10.455,425.382,4.657,3.214
1782117443.572288,0.860000,1889020,1000,12,0,1,535.157,10.437,10.526,419.545,-0.773,3.215
1782117443.573288,0.861000,1889021,1000,12,0,1,541.642,19.107,10.844,419.545,-3.279,3.244
1782117443.574288,0.862000,1889022,1000,12,0,1,525.356,2.955,10.829,427.112,4.113,3.296
1782117443.575288,0.863000,1889023,1000,12,0,1,520.576,-4.664,10.835,428.433,5.251,3.374
1782117443.576288,0.864000,1889024,1000,12,0,1,551.178,20.620,11.218,420.049,-2.561,3.385
1782117443.577288,0.865000,1889025,1000,12,0,1,564.702,35.602,12.296,416.374,-7.216,3.535
1782117443.578288,0.866000,1889026,1000,12,0,1,551.683,17.331,12.537,418.632,-3.744,3.574
1782117443.579288,0.867000,1889027,1000,12,0,1,538.015,0.711,12.534,418.224,-2.838,3.582
1782117443.580288,0.868000,1889028,1000,12,0,1,535.036,-4.545,12.538,419.641,-1.603,3.588
1782117443.581288,0.869000,1889029,1000,12,0,1,535.589,-3.800,12.401,419.017,-0.699,3.561
1782117443.582288,0.870000,1889030,1000,12,0,1,535.829,-3.803,12.338,420.025,-0.558,3.525
1782117443.583288,0.871000,1889031,1000,12,0,1,532.779,-6.222,12.362,418.800,-0.320,3.521
1782117443.584288,0.872000,1889032,1000,12,0,1,529.632,-8.916,12.304,418.584,-1.522,3.466
1782117443.585288,0.873000,1889033,1000,12,0,1,527.206,-10.166,12.276,417.167,-1.758,3.452
1782117443.586288,0.874000,1889034,1000,12,0,1,526.677,-9.429,12.323,418.032,-1.897,3.458
1782117443.587288,0.875000,1889035,1000,12,0,1,528.311,-6.794,12.355,420.122,0.488,3.419
1782117443.588288,0.876000,1889036,1000,12,0,1,529.079,-4.499,12.341,419.089,-0.556,3.386
1782117443.589288,0.877000,1889037,1000,12,0,1,529.007,-3.984,12.149,417.864,-2.325,3.302
1782117443.590288,0.878000,1889038,1000,12,0,1,528.623,-3.270,11.962,416.134,-3.450,3.182
1782117443.591288,0.879000,1889039,1000,12,0,1,526.990,-4.000,11.973,417.671,-2.727,3.131
1782117443.592288,0.880000,1889040,1000,12,0,1,525.116,-4.763,11.893,415.702,-2.846,3.118
1782117443.593288,0.881000,1889041,1000,12,0,1,526.413,-3.060,11.843,415.389,-4.068,3.169
1782117443.594288,0.882000,1889042,1000,12,0,1,525.837,-1.941,11.798,415.822,-2.030,3.058
1782117443.595288,0.883000,1889043,1000,12,0,1,524.011,-3.285,11.695,414.933,-2.570,2.922
1782117443.596288,0.884000,1889044,1000,12,0,1,526.629,-0.548,11.676,416.615,-0.535,2.864
1782117443.597288,0.885000,1889045,1000,12,0,1,526.197,0.549,11.636,420.506,3.514,2.882
1782117443.598288,0.886000,1889046,1000,12,0,1,520.600,-4.185,11.632,421.539,4.862,2.951
1782117443.599288,0.887000,1889047,1000,12,0,1,516.204,-7.422,11.678,421.683,4.447,3.015
1782117443.600288,0.888000,1889048,1000,12,0,1,516.637,-5.877,11.703,422.620,4.886,3.055
1782117443.601288,0.889000,1889049,1000,12,0,1,514.715,-5.152,11.676,421.539,3.855,3.094
1782117443.602288,0.890000,1889050,1000,12,0,1,518.390,-1.955,11.575,422.788,3.738,3.136
1782117443.603288,0.891000,1889051,1000,12,0,1,524.708,5.562,11.483,424.349,5.204,3.217
1782117443.604288,0.892000,1889052,1000,12,0,1,532.634,11.634,11.574,421.178,1.797,3.220
1782117443.605288,0.893000,1889053,1000,12,0,1,537.967,15.883,11.749,413.468,-5.236,3.254
1782117443.606288,0.894000,1889054,1000,12,0,1,536.310,12.486,11.704,409.528,-9.133,3.394
1782117443.607288,0.895000,1889055,1000,12,0,1,536.382,9.557,11.781,409.024,-8.010,3.577
1782117443.608288,0.896000,1889056,1000,12,0,1,532.034,5.492,11.378,410.657,-5.669,3.586
1782117443.609288,0.897000,1889057,1000,12,0,1,524.275,-3.165,10.860,408.496,-5.742,3.629
1782117443.610288,0.898000,1889058,1000,12,0,1,516.901,-8.918,10.814,411.258,-3.845,3.662
1782117443.611288,0.899000,1889059,1000,12,0,1,516.396,-9.078,10.828,413.420,0.057,3.631
1782117443.612288,0.900000,1889060,1000,12,0,1,523.555,-0.910,10.828,415.678,1.275,3.626
1782117443.613288,0.901000,1889061,1000,12,0,1,534.436,9.211,10.690,414.765,1.378,3.624
1782117443.614288,0.902000,1889062,1000,12,0,1,540.081,14.169,10.505,413.252,-0.744,3.626
1782117443.615288,0.903000,1889063,1000,12,0,1,534.556,7.882,10.320,415.029,0.915,3.627
1782117443.616288,0.904000,1889064,1000,12,0,1,532.538,2.863,10.302,413.011,0.230,3.627
1782117443.617288,0.905000,1889065,1000,12,0,1,531.241,2.050,10.269,413.708,-0.177,3.625
1782117443.618288,0.906000,1889066,1000,12,0,1,530.256,-0.457,10.094,416.350,3.468,3.654
1782117443.619288,0.907000,1889067,1000,12,0,1,527.110,-2.622,9.765,420.218,6.113,3.722
1782117443.620288,0.908000,1889068,1000,12,0,1,520.576,-8.587,9.524,420.794,7.201,3.825
1782117443.621288,0.909000,1889069,1000,12,0,1,512.169,-14.740,9.673,422.019,6.509,3.879
1782117443.622288,0.910000,1889070,1000,12,0,1,509.647,-15.801,9.818,422.091,6.593,3.988
1782117443.623288,0.911000,1889071,1000,12,0,1,509.310,-12.780,9.610,425.382,7.475,4.099
1782117443.624288,0.912000,1889072,1000,12,0,1,507.509,-11.883,9.747,426.223,8.172,4.219
1782117443.625288,0.913000,1889073,1000,12,0,1,510.031,-7.937,9.789,424.637,4.776,4.208
1782117443.626288,0.914000,1889074,1000,12,0,1,519.159,1.891,9.349,420.218,0.262,4.192
1782117443.627288,0.915000,1889075,1000,12,0,1,528.623,11.002,8.029,414.813,-5.317,4.135
1782117443.628288,0.916000,1889076,1000,12,0,1,533.019,14.289,7.908,414.741,-5.802,4.183
1782117443.629288,0.917000,1889077,1000,12,0,1,530.809,10.613,8.049,416.975,-2.772,4.182
1782117443.630288,0.918000,1889078,1000,12,0,1,521.849,1.531,8.026,419.905,-0.513,4.176
1782117443.631288,0.919000,1889079,1000,12,0,1,520.480,-1.836,8.012,419.377,-0.347,4.175
1782117443.632288,0.920000,1889080,1000,12,0,1,521.152,0.499,7.995,418.296,-2.431,4.189
1782117443.633288,0.921000,1889081,1000,12,0,1,519.375,-1.250,7.948,419.953,-0.959,4.191
1782117443.634288,0.922000,1889082,1000,12,0,1,525.740,3.861,7.866,419.713,-1.029,4.188
1782117443.635288,0.923000,1889083,1000,12,0,1,531.794,10.218,7.868,416.639,-3.824,4.215
1782117443.636288,0.924000,1889084,1000,12,0,1,535.997,11.979,7.937,417.191,-3.673,4.238
1782117443.637288,0.925000,1889085,1000,12,0,1,541.954,15.497,8.178,421.347,0.562,4.239
1782117443.638288,0.926000,1889086,1000,12,0,1,540.201,12.420,8.340,420.074,0.358,4.238
1782117443.639288,0.927000,1889087,1000,12,0,1,528.191,-0.238,8.321,419.185,-1.403,4.230
1782117443.640288,0.928000,1889088,1000,12,0,1,527.278,-4.081,8.328,414.333,-4.044,4.241
1782117443.641288,0.929000,1889089,1000,12,0,1,520.000,-7.220,8.371,411.858,-6.840,4.332
1782117443.642288,0.930000,1889090,1000,12,0,1,512.817,-15.172,8.616,413.492,-3.519,4.342
1782117443.643288,0.931000,1889091,1000,12,0,1,512.625,-12.548,8.786,414.140,-1.848,4.312
1782117443.644288,0.932000,1889092,1000,12,0,1,520.360,-4.857,8.808,413.780,-1.408,4.307
1782117443.645288,0.933000,1889093,1000,12,0,1,527.566,3.545,8.810,412.867,-1.471,4.297
1782117443.646288,0.934000,1889094,1000,12,0,1,526.197,2.485,8.817,412.747,-1.312,4.300
1782117443.647288,0.935000,1889095,1000,12,0,1,523.338,-1.456,8.819,416.735,2.356,4.284
1782117443.648288,0.936000,1889096,1000,12,0,1,522.786,-1.783,8.803,418.656,4.553,4.277
1782117443.649288,0.937000,1889097,1000,12,0,1,526.965,0.994,8.741,418.632,3.612,4.262
1782117443.650288,0.938000,1889098,1000,12,0,1,531.025,5.176,8.732,418.752,3.030,4.227
1782117443.651288,0.939000,1889099,1000,12,0,1,534.340,6.468,8.750,418.536,2.207,4.203
1782117443.652288,0.940000,1889100,1000,12,0,1,526.053,0.018,8.745,421.659,3.740,4.203
1782117443.653288,0.941000,1889101,1000,12,0,1,517.453,-9.847,8.821,422.404,4.509,4.187
1782117443.654288,0.942000,1889102,1000,12,0,1,515.868,-9.560,8.771,421.755,2.353,4.193
1782117443.655288,0.943000,1889103,1000,12,0,1,524.323,-1.626,8.481,416.374,-1.990,4.136
1782117443.656288,0.944000,1889104,1000,12,0,1,529.103,5.199,8.328,411.090,-7.494,4.070
1782117443.657288,0.945000,1889105,1000,12,0,1,524.515,0.916,8.218,410.705,-6.769,4.025
1782117443.658288,0.946000,1889106,1000,12,0,1,518.654,-4.533,8.207,410.585,-5.214,4.012
1782117443.659288,0.947000,1889107,1000,12,0,1,511.448,-9.314,8.300,413.035,-2.419,3.944
1782117443.660288,0.948000,1889108,1000,12,0,1,507.317,-12.065,8.379,415.462,1.262,3.911
1782117443.661288,0.949000,1889109,1000,12,0,1,510.968,-6.548,8.332,415.630,1.599,3.917
1782117443.662288,0.950000,1889110,1000,12,0,1,510.319,-4.201,8.352,415.389,1.621,3.920
1782117443.663288,0.951000,1889111,1000,12,0,1,520.864,3.823,8.267,411.258,-1.426,3.920
1782117443.664288,0.952000,1889112,1000,12,0,1,528.671,13.354,8.240,410.177,-2.899,3.940
1782117443.665288,0.953000,1889113,1000,12,0,1,526.557,9.178,8.267,410.225,-1.474,3.943
1782117443.666288,0.954000,1889114,1000,12,0,1,525.044,5.888,8.299,408.736,-2.461,3.959
1782117443.667288,0.955000,1889115,1000,12,0,1,521.921,2.456,8.301,408.688,-2.102,3.970
1782117443.668288,0.956000,1889116,1000,12,0,1,517.694,-2.468,8.308,411.090,0.373,3.940
1782117443.669288,0.957000,1889117,1000,12,0,1,512.865,-6.116,8.345,412.411,1.947,3.853
1782117443.670288,0.958000,1889118,1000,12,0,1,517.718,-2.834,8.266,414.549,3.203,3.744
1782117443.671288,0.959000,1889119,1000,12,0,1,529.512,8.938,8.098,412.219,1.553,3.636
1782117443.672288,0.960000,1889120,1000,12,0,1,535.565,13.774,8.023,413.420,0.918,3.516
1782117443.673288,0.961000,1889121,1000,12,0,1,523.146,2.793,7.827,418.104,5.374,3.439
1782117443.674288,0.962000,1889122,1000,12,0,1,507.629,-13.243,7.871,422.428,8.222,3.441
1782117443.675288,0.963000,1889123,1000,12,0,1,493.649,-22.596,8.420,422.812,7.786,3.549
1782117443.676288,0.964000,1889124,1000,12,0,1,503.882,-13.467,8.629,423.773,6.637,3.671
1782117443.677288,0.965000,1889125,1000,12,0,1,527.950,12.791,8.678,422.788,5.192,3.668
1782117443.678288,0.966000,1889126,1000,12,0,1,538.255,22.698,9.029,423.052,3.768,3.614
1782117443.679288,0.967000,1889127,1000,12,0,1,535.373,17.179,9.229,424.037,4.242,3.643
1782117443.680288,0.968000,1889128,1000,12,0,1,532.346,11.136,9.360,424.277,3.664,3.679
1782117443.681288,0.969000,1889129,1000,12,0,1,537.174,12.092,9.511,420.722,0.299,3.678
1782117443.682288,0.970000,1889130,1000,12,0,1,537.078,11.415,9.647,419.689,-1.642,3.670
1782117443.683288,0.971000,1889131,1000,12,0,1,534.676,5.388,9.676,421.467,0.207,3.667
1782117443.684288,0.972000,1889132,1000,12,0,1,532.562,2.463,9.666,417.960,-2.202,3.678
1782117443.685288,0.973000,1889133,1000,12,0,1,531.409,-0.659,9.558,413.468,-6.806,3.763
1782117443.686288,0.974000,1889134,1000,12,0,1,529.992,-2.242,9.412,409.889,-8.781,3.928
1782117443.687288,0.975000,1889135,1000,12,0,1,525.620,-6.504,9.200,406.742,-10.715,4.210
1782117443.688288,0.976000,1889136,1000,12,0,1,518.414,-12.446,9.200,410.273,-6.805,4.318
1782117443.689288,0.977000,1889137,1000,12,0,1,515.147,-14.683,9.432,413.492,-2.091,4.323
1782117443.690288,0.978000,1889138,1000,12,0,1,514.835,-12.667,9.583,413.492,-2.009,4.295
1782117443.691288,0.979000,1889139,1000,12,0,1,526.437,-2.136,9.533,413.035,-2.308,4.197
1782117443.692288,0.980000,1889140,1000,12,0,1,538.808,10.905,9.416,411.858,-3.146,4.191
1782117443.693288,0.981000,1889141,1000,12,0,1,538.856,10.160,9.358,412.891,-2.392,4.197
1782117443.694288,0.982000,1889142,1000,12,0,1,533.163,2.851,9.341,418.056,2.262,4.204
1782117443.695288,0.983000,1889143,1000,12,0,1,519.447,-8.897,9.412,420.074,4.481,4.247
1782117443.696288,0.984000,1889144,1000,12,0,1,508.085,-19.582,9.805,418.224,2.088,4.253
1782117443.697288,0.985000,1889145,1000,12,0,1,495.090,-26.354,10.488,421.395,3.702,4.272
1782117443.698288,0.986000,1889146,1000,12,0,1,499.342,-21.708,10.925,424.830,7.106,4.341
1782117443.699288,0.987000,1889147,1000,12,0,1,533.043,11.318,11.040,417.263,0.639,4.312
1782117443.700288,0.988000,1889148,1000,12,0,1,555.070,34.006,12.020,411.498,-5.882,4.370
1782117443.701288,0.989000,1889149,1000,12,0,1,560.618,33.034,12.864,413.900,-2.600,4.375
1782117443.702288,0.990000,1889150,1000,12,0,1,557.568,25.663,13.366,416.855,1.342,4.347
1782117443.703288,0.991000,1889151,1000,12,0,1,542.147,7.306,13.333,416.134,1.403,4.304
1782117443.704288,0.992000,1889152,1000,12,0,1,512.577,-20.195,13.568,418.945,3.206,4.315
1782117443.705288,0.993000,1889153,1000,12,0,1,499.774,-33.314,14.361,424.661,8.313,4.464
1782117443.706288,0.994000,1889154,1000,12,0,1,506.860,-21.623,14.665,430.547,12.180,4.666
1782117443.707288,0.995000,1889155,1000,12,0,1,511.856,-12.143,14.764,439.602,17.497,5.194
1782117443.708288,0.996000,1889156,1000,12,0,1,524.756,-0.086,14.751,446.809,21.166,5.949
1782117443.709288,0.997000,1889157,1000,12,0,1,537.895,14.166,14.828,458.579,25.679,6.962
1782117443.710288,0.998000,1889158,1000,12,0,1,529.440,6.843,14.761,472.607,33.152,8.391
1782117443.711288,0.999000,1889159,1000,12,0,1,530.160,2.756,14.737,476.762,30.475,9.431
1782117443.712288,1.000000,1889160,1000,12,0,1,545.101,16.111,14.900,473.375,19.936,9.840
1782117443.713288,1.001000,1889161,1000,12,0,1,546.374,16.764,15.078,470.037,10.546,9.951
1782117443.714288,1.002000,1889162,1000,12,0,1,534.268,2.778,14.964,473.640,8.186,10.009
1782117443.715288,1.003000,1889163,1000,12,0,1,525.716,-6.948,14.940,478.612,9.264,10.093
1782117443.716288,1.004000,1889164,1000,12,0,1,515.988,-14.110,15.050,470.613,-0.332,10.087
1782117443.717288,1.005000,1889165,1000,12,0,1,521.945,-9.907,15.111,433.165,-32.954,11.107
1782117443.718288,1.006000,1889166,1000,12,0,1,545.173,12.386,15.208,382.721,-75.646,15.421
1782117443.719288,1.007000,1889167,1000,12,0,1,551.731,19.657,15.436,363.961,-85.704,19.612
1782117443.720288,1.008000,1889168,1000,12,0,1,540.657,6.035,15.454,376.020,-60.736,21.406
1782117443.721288,1.009000,1889169,1000,12,0,1,538.207,0.363,15.403,390.312,-35.128,21.974
1782117443.722288,1.010000,1889170,1000,12,0,1,538.808,1.150,15.280,396.317,-21.079,22.175
1782117443.723288,1.011000,1889171,1000,12,0,1,538.063,-0.627,15.275,401.866,-11.402,22.220
1782117443.724288,1.012000,1889172,1000,12,0,1,537.414,-1.448,15.161,402.418,-6.206,22.207
1782117443.725288,1.013000,1889173,1000,12,0,1,539.432,-0.406,14.821,394.732,-10.479,22.229
1782117443.726288,1.014000,1889174,1000,12,0,1,542.459,2.120,14.701,393.579,-10.379,22.258
1782117443.727288,1.015000,1889175,1000,12,0,1,544.188,2.975,14.595,395.933,-4.803,22.256
1782117443.728288,1.016000,1889176,1000,12,0,1,548.512,5.169,14.257,398.095,-1.503,22.251
1782117443.729288,1.017000,1889177,1000,12,0,1,547.815,4.425,14.062,401.674,3.103,22.247
1782117443.730288,1.018000,1889178,1000,12,0,1,542.075,-2.521,13.978,403.956,6.027,22.257
1782117443.731288,1.019000,1889179,1000,12,0,1,536.334,-7.931,13.918,406.286,8.211,22.288
1782117443.732288,1.020000,1889180,1000,12,0,1,538.375,-6.803,13.858,405.661,8.515,22.319
1782117443.733288,1.021000,1889181,1000,12,0,1,544.092,-0.556,13.837,405.685,8.223,22.349
1782117443.734288,1.022000,1889182,1000,12,0,1,546.975,1.878,13.835,407.102,10.485,22.396
1782117443.735288,1.023000,1889183,1000,12,0,1,546.374,0.754,13.835,406.742,10.891,22.428
1782117443.736288,1.024000,1889184,1000,12,0,1,544.044,-2.037,13.835,401.962,7.851,22.421
1782117443.737288,1.025000,1889185,1000,12,0,1,541.978,-4.347,13.818,404.556,9.722,22.412
1782117443.738288,1.026000,1889186,1000,12,0,1,541.090,-4.997,13.723,404.652,12.568,22.462
1782117443.739288,1.027000,1889187,1000,12,0,1,536.406,-8.162,13.614,403.739,10.928,22.513
1782117443.740288,1.028000,1889188,1000,12,0,1,532.154,-11.546,13.594,406.574,13.794,22.596
1782117443.741288,1.029000,1889189,1000,12,0,1,543.492,-1.801,13.593,404.532,12.262,22.660
1782117443.742288,1.030000,1889190,1000,12,0,1,555.574,11.157,13.598,401.962,8.201,22.685
1782117443.743288,1.031000,1889191,1000,12,0,1,549.905,5.721,13.546,404.965,9.830,22.725
1782117443.744288,1.032000,1889192,1000,12,0,1,534.052,-9.751,13.610,406.790,10.382,22.770
1782117443.745288,1.033000,1889193,1000,12,0,1,525.981,-17.243,13.769,405.349,7.128,22.784
1782117443.746288,1.034000,1889194,1000,12,0,1,535.973,-7.143,13.525,406.430,5.342,22.795
1782117443.747288,1.035000,1889195,1000,12,0,1,552.067,9.460,13.070,406.093,3.772,22.795
1782117443.748288,1.036000,1889196,1000,12,0,1,553.412,11.404,12.807,403.523,-0.747,22.773
1782117443.749288,1.037000,1889197,1000,12,0,1,536.237,-4.738,12.724,407.751,0.816,22.773
1782117443.750288,1.038000,1889198,1000,12,0,1,523.314,-17.783,12.046,412.435,4.543,22.767
1782117443.751288,1.039000,1889199,1000,12,0,1,527.758,-12.088,11.234,411.330,2.186,22.766
1782117443.752288,1.040000,1889200,1000,12,0,1,546.903,6.433,10.670,411.258,0.430,22.765
1782117443.753288,1.041000,1889201,1000,12,0,1,555.142,16.101,10.861,414.693,2.914,22.768
1782117443.754288,1.042000,1889202,1000,12,0,1,550.290,9.036,10.557,416.470,4.449,22.772
1782117443.755288,1.043000,1889203,1000,12,0,1,547.888,4.457,9.468,414.933,2.804,22.745
1782117443.756288,1.044000,1889204,1000,12,0,1,544.885,1.470,8.963,415.293,2.629,22.683
1782117443.757288,1.045000,1889205,1000,12,0,1,538.519,-4.813,8.823,418.440,5.679,22.562
1782117443.758288,1.046000,1889206,1000,12,0,1,530.184,-11.308,8.967,423.749,9.971,22.407
1782117443.759288,1.047000,1889207,1000,12,0,1,523.266,-16.166,9.034,427.040,12.450,22.181
1782117443.760288,1.048000,1889208,1000,12,0,1,516.949,-18.468,9.354,431.988,14.373,21.775
1782117443.761288,1.049000,1889209,1000,12,0,1,514.451,-17.879,9.682,428.913,10.954,21.400
1782117443.762288,1.050000,1889210,1000,12,0,1,522.137,-8.096,9.480,426.871,4.972,21.225
1782117443.763288,1.051000,1889211,1000,12,0,1,539.072,8.927,9.265,426.703,3.776,21.179
1782117443.764288,1.052000,1889212,1000,12,0,1,553.364,22.221,9.775,428.505,2.514,21.151
1782117443.765288,1.053000,1889213,1000,12,0,1,552.379,19.893,10.125,430.258,2.402,21.113
1782117443.766288,1.054000,1889214,1000,12,0,1,545.173,9.519,10.017,433.669,2.420,21.116
1782117443.767288,1.055000,1889215,1000,12,0,1,542.603,4.938,9.943,435.687,2.020,20.597
1782117443.768288,1.056000,1889216,1000,12,0,1,542.891,4.130,9.805,439.819,2.224,17.604
1782117443.769288,1.057000,1889217,1000,12,0,1,549.305,8.060,9.471,438.161,-0.776,12.767
1782117443.770288,1.058000,1889218,1000,12,0,1,556.391,13.604,9.627,429.874,-10.447,9.560
1782117443.771288,1.059000,1889219,1000,12,0,1,561.771,15.622,9.877,417.335,-21.690,8.725
1782117443.772288,1.060000,1889220,1000,12,0,1,553.773,7.668,9.935,404.965,-31.026,9.300
1782117443.773288,1.061000,1889221,1000,12,0,1,545.341,-3.696,9.949,398.503,-33.250,10.296
1782117443.774288,1.062000,1889222,1000,12,0,1,541.690,-6.424,9.988,400.208,-26.576,10.925
1782117443.775288,1.063000,1889223,1000,12,0,1,534.124,-11.941,10.129,404.580,-17.291,11.097
1782117443.776288,1.064000,1889224,1000,12,0,1,530.160,-14.804,10.339,410.345,-8.058,11.058
1782117443.777288,1.065000,1889225,1000,12,0,1,530.977,-11.262,10.453,413.780,-1.575,11.040
1782117443.778288,1.066000,1889226,1000,12,0,1,532.995,-7.631,10.483,413.708,0.401,11.038
1782117443.779288,1.067000,1889227,1000,12,0,1,531.601,-6.436,10.504,409.456,-1.600,11.031
1782117443.780288,1.068000,1889228,1000,12,0,1,532.779,-5.208,10.523,407.222,-2.740,11.005
1782117443.781288,1.069000,1889229,1000,12,0,1,529.031,-5.800,10.496,407.799,-0.557,10.944
1782117443.782288,1.070000,1889230,1000,12,0,1,532.923,-3.799,10.465,403.187,-2.691,10.884
1782117443.783288,1.071000,1889231,1000,12,0,1,537.102,2.613,10.471,403.812,-2.660,10.829
1782117443.784288,1.072000,1889232,1000,12,0,1,531.722,-2.307,10.473,410.249,4.494,10.745
1782117443.785288,1.073000,1889233,1000,12,0,1,533.523,-2.189,10.477,419.233,11.532,10.759
1782117443.786288,1.074000,1889234,1000,12,0,1,537.655,3.061,10.482,421.419,13.113,10.861
1782117443.787288,1.075000,1889235,1000,12,0,1,529.368,-3.706,10.477,419.785,8.482,10.840
1782117443.788288,1.076000,1889236,1000,12,0,1,527.806,-6.620,10.495,415.582,3.431,10.704
1782117443.789288,1.077000,1889237,1000,12,0,1,540.129,5.184,10.457,415.269,0.891,10.593
1782117443.790288,1.078000,1889238,1000,12,0,1,549.377,14.403,10.528,416.735,2.203,10.416
1782117443.791288,1.079000,1889239,1000,12,0,1,538.688,5.022,10.549,418.536,3.009,10.280
1782117443.792288,1.080000,1889240,1000,12,0,1,523.218,-10.651,10.538,416.975,1.851,10.218
1782117443.793288,1.081000,1889241,1000,12,0,1,526.317,-8.011,10.568,418.344,2.086,10.127
1782117443.794288,1.082000,1889242,1000,12,0,1,532.803,1.622,10.480,422.620,6.258,10.059
1782117443.795288,1.083000,1889243,1000,12,0,1,536.261,4.772,10.215,425.862,8.982,10.089
1782117443.796288,1.084000,1889244,1000,12,0,1,532.706,3.193,10.175,428.000,9.991,10.159
1782117443.797288,1.085000,1889245,1000,12,0,1,532.298,1.196,10.088,435.903,15.130,10.368
1782117443.798288,1.086000,1889246,1000,12,0,1,542.339,10.108,10.060,435.567,14.761,10.576
1782117443.799288,1.087000,1889247,1000,12,0,1,553.124,19.029,10.392,427.544,4.843,10.597
1782117443.800288,1.088000,1889248,1000,12,0,1,554.181,17.957,10.398,423.917,-0.185,10.578
1782117443.801288,1.089000,1889249,1000,12,0,1,546.783,8.275,10.323,430.066,4.104,10.589
1782117443.802288,1.090000,1889250,1000,12,0,1,530.809,-7.364,10.336,439.434,11.524,10.714
1782117443.803288,1.091000,1889251,1000,12,0,1,523.074,-16.005,10.333,439.242,10.073,10.800
1782117443.804288,1.092000,1889252,1000,12,0,1,534.220,-5.375,10.282,425.622,-4.363,10.799
1782117443.805288,1.093000,1889253,1000,12,0,1,545.654,7.010,10.310,407.006,-21.992,11.231
1782117443.806288,1.094000,1889254,1000,12,0,1,551.755,10.646,10.417,396.605,-30.622,12.032
1782117443.807288,1.095000,1889255,1000,12,0,1,547.863,6.556,10.436,397.254,-26.522,12.577
1782117443.808288,1.096000,1889256,1000,12,0,1,547.815,2.511,10.319,402.947,-17.735,12.747
1782117443.809288,1.097000,1889257,1000,12,0,1,542.987,-0.527,10.063,409.528,-9.022,12.689
1782117443.810288,1.098000,1889258,1000,12,0,1,540.057,-5.720,9.752,414.068,-3.233,12.533
1782117443.811288,1.099000,1889259,1000,12,0,1,531.241,-10.628,9.538,420.074,2.185,12.441
1782117443.812288,1.100000,1889260,1000,12,0,1,532.634,-11.121,9.598,425.550,7.323,12.464
1782117443.813288,1.101000,1889261,1000,12,0,1,543.684,1.716,9.518,426.319,7.373,12.497
1782117443.814288,1.102000,1889262,1000,12,0,1,555.214,11.833,9.139,425.790,5.668,12.517
1782117443.815288,1.103000,1889263,1000,12,0,1,548.152,6.736,8.747,435.255,11.999,12.627
1782117443.816288,1.104000,1889264,1000,12,0,1,521.249,-17.690,8.998,443.566,19.381,12.917
1782117443.817288,1.105000,1889265,1000,12,0,1,515.508,-24.837,9.634,443.734,16.895,13.133
1782117443.818288,1.106000,1889266,1000,12,0,1,540.345,1.052,9.617,433.813,6.570,13.162
1782117443.819288,1.107000,1889267,1000,12,0,1,537.727,4.945,9.575,435.134,3.742,13.172
1782117443.820288,1.108000,1889268,1000,12,0,1,522.354,-12.065,9.534,443.950,12.150,13.201
1782117443.821288,1.109000,1889269,1000,12,0,1,521.321,-11.803,9.423,446.809,13.154,12.974
1782117443.822288,1.110000,1889270,1000,12,0,1,532.394,-0.559,9.361,440.275,5.635,12.235
1782117443.823288,1.111000,1889271,1000,12,0,1,544.693,11.364,9.483,429.634,-5.644,11.324
1782117443.824288,1.112000,1889272,1000,12,0,1,547.503,13.424,9.629,425.142,-10.796,10.791
1782117443.825288,1.113000,1889273,1000,12,0,1,535.493,1.229,9.481,425.838,-9.009,10.587
1782117443.826288,1.114000,1889274,1000,12,0,1,540.321,1.074,9.248,407.775,-21.557,10.958
1782117443.827288,1.115000,1889275,1000,12,0,1,548.704,10.585,9.232,382.673,-42.710,12.510
1782117443.828288,1.116000,1889276,1000,12,0,1,536.982,-0.121,9.169,378.998,-42.197,13.861
1782117443.829288,1.117000,1889277,1000,12,0,1,525.068,-12.915,9.305,392.306,-23.296,14.245
1782117443.830288,1.118000,1889278,1000,12,0,1,514.451,-18.903,9.653,416.975,1.846,14.242
1782117443.831288,1.119000,1889279,1000,12,0,1,507.533,-23.007,10.154,435.903,21.290,14.557
1782117443.832288,1.120000,1889280,1000,12,0,1,513.298,-13.743,10.324,436.143,19.386,14.808
1782117443.833288,1.121000,1889281,1000,12,0,1,519.879,-3.330,10.328,429.225,9.375,14.862
1782117443.834288,1.122000,1889282,1000,12,0,1,518.702,-1.540,10.325,434.414,10.092,14.917
1782117443.835288,1.123000,1889283,1000,12,0,1,515.700,-2.940,10.329,440.059,14.857,14.976
1782117443.836288,1.124000,1889284,1000,12,0,1,514.859,-1.981,10.324,432.612,6.762,14.891
1782117443.837288,1.125000,1889285,1000,12,0,1,528.455,9.547,10.398,417.984,-7.358,14.879
1782117443.838288,1.126000,1889286,1000,12,0,1,548.080,27.558,11.065,398.335,-22.569,15.210
1782117443.839288,1.127000,1889287,1000,12,0,1,555.742,31.922,11.928,389.471,-28.180,15.723
1782117443.840288,1.128000,1889288,1000,12,0,1,544.981,18.465,12.040,391.465,-19.676,15.964
1782117443.841288,1.129000,1889289,1000,12,0,1,523.603,-4.210,12.033,395.885,-10.515,16.028
1782117443.842288,1.130000,1889290,1000,12,0,1,510.824,-17.548,12.194,395.332,-5.836,16.047
1782117443.843288,1.131000,1889291,1000,12,0,1,515.964,-11.685,12.253,392.930,-5.363,16.062
1782117443.844288,1.132000,1889292,1000,12,0,1,517.597,-6.172,12.282,389.207,-5.390,16.056
1782117443.845288,1.133000,1889293,1000,12,0,1,518.366,-5.473,12.288,390.720,-2.675,16.010
1782117443.846288,1.134000,1889294,1000,12,0,1,528.191,4.031,12.293,398.407,5.874,15.969
1782117443.847288,1.135000,1889295,1000,12,0,1,533.259,9.891,12.371,412.627,17.811,16.024
1782117443.848288,1.136000,1889296,1000,12,0,1,538.688,12.123,12.407,433.909,33.752,16.589
1782117443.849288,1.137000,1889297,1000,12,0,1,556.535,25.239,12.627,450.292,43.945,17.702
1782117443.850288,1.138000,1889298,1000,12,0,1,564.438,30.782,13.112,468.139,49.995,19.062
1782117443.851288,1.139000,1889299,1000,12,0,1,544.140,9.511,13.129,482.671,54.453,20.550
1782117443.852288,1.140000,1889300,1000,12,0,1,515.388,-19.712,13.381,493.889,52.153,21.773
1782117443.853288,1.141000,1889301,1000,12,0,1,489.253,-40.161,14.360,499.053,46.437,22.697
1782117443.854288,1.142000,1889302,1000,12,0,1,482.239,-42.746,15.562,489.830,28.444,23.042
1782117443.855288,1.143000,1889303,1000,12,0,1,488.941,-28.069,16.029,464.199,-1.214,22.832
1782117443.856288,1.144000,1889304,1000,12,0,1,487.476,-21.707,16.251,430.547,-33.920,22.925
1782117443.857288,1.145000,1889305,1000,12,0,1,497.540,-10.639,16.294,387.381,-67.477,24.547
1782117443.858288,1.146000,1889306,1000,12,0,1,529.968,20.742,16.552,359.493,-85.242,27.232
1782117443.859288,1.147000,1889307,1000,12,0,1,555.622,43.884,17.677,356.179,-74.008,29.146
1782117443.860288,1.148000,1889308,1000,12,0,1,551.010,35.884,18.374,365.186,-51.579,30.042
1782117443.861288,1.149000,1889309,1000,12,0,1,545.269,21.264,18.557,373.281,-31.994,30.379
1782117443.862288,1.150000,1889310,1000,12,0,1,548.512,19.966,18.705,378.590,-18.891,30.479
1782117443.863288,1.151000,1889311,1000,12,0,1,555.382,20.853,18.934,383.346,-9.177,30.489
1782117443.864288,1.152000,1889312,1000,12,0,1,565.663,25.144,19.192,391.008,0.664,30.478
1782117443.865288,1.153000,1889313,1000,12,0,1,568.281,23.322,19.451,393.339,4.784,30.438
1782117443.866288,1.154000,1889314,1000,12,0,1,563.381,13.285,19.380,394.107,4.366,30.321
1782117443.867288,1.155000,1889315,1000,12,0,1,554.541,2.143,19.062,401.289,9.085,30.254
1782117443.868288,1.156000,1889316,1000,12,0,1,544.260,-9.152,19.105,408.207,13.999,30.304
1782117443.869288,1.157000,1889317,1000,12,0,1,537.559,-15.008,19.210,411.354,13.731,30.362
1782117443.870288,1.158000,1889318,1000,12,0,1,549.257,-5.272,19.148,407.319,8.245,30.336
1782117443.871288,1.159000,1889319,1000,12,0,1,561.387,8.527,19.114,401.602,0.583,30.279
1782117443.872288,1.160000,1889320,1000,12,0,1,563.957,9.034,19.156,400.040,-0.935,30.269
1782117443.873288,1.161000,1889321,1000,12,0,1,562.348,5.725,19.106,397.854,-1.348,30.259
1782117443.874288,1.162000,1889322,1000,12,0,1,554.421,-2.661,19.015,397.974,0.104,30.220
1782117443.875288,1.163000,1889323,1000,12,0,1,550.386,-8.647,19.053,398.599,3.695,30.198
1782117443.876288,1.164000,1889324,1000,12,0,1,549.377,-8.873,19.094,395.933,3.985,30.049
1782117443.877288,1.165000,1889325,1000,12,0,1,540.177,-16.316,19.175,400.857,9.649,29.467
1782117443.878288,1.166000,1889326,1000,12,0,1,529.584,-25.316,19.506,410.898,20.941,29.008
1782117443.879288,1.167000,1889327,1000,12,0,1,532.803,-21.636,19.660,412.723,23.461,29.011
1782117443.880288,1.168000,1889328,1000,12,0,1,543.203,-9.461,19.523,403.932,14.852,29.085
1782117443.881288,1.169000,1889329,1000,12,0,1,549.185,-3.127,19.255,401.938,10.419,28.967
1782117443.882288,1.170000,1889330,1000,12,0,1,539.360,-10.481,19.214,414.116,19.682,28.971
1782117443.883288,1.171000,1889331,1000,12,0,1,534.316,-17.031,19.359,431.387,32.144,29.295
1782117443.884288,1.172000,1889332,1000,12,0,1,532.178,-15.341,19.479,447.313,40.223,29.808
1782117443.885288,1.173000,1889333,1000,12,0,1,529.127,-16.476,19.613,451.541,36.784,30.186
1782117443.886288,1.174000,1889334,1000,12,0,1,531.169,-12.054,19.685,441.332,18.806,30.288
1782117443.887288,1.175000,1889335,1000,12,0,1,547.239,3.384,19.645,427.544,-1.256,30.270
1782117443.888288,1.176000,1889336,1000,12,0,1,554.757,13.532,19.349,417.287,-15.002,30.176
1782117443.889288,1.177000,1889337,1000,12,0,1,538.159,-0.651,18.815,419.833,-15.890,29.996
1782117443.890288,1.178000,1889338,1000,12,0,1,521.441,-16.516,18.779,421.827,-13.038,29.924
1782117443.891288,1.179000,1889339,1000,12,0,1,517.718,-16.277,18.910,419.497,-15.962,29.972
1782117443.892288,1.180000,1889340,1000,12,0,1,509.454,-17.728,18.914,421.106,-14.146,30.027
1782117443.893288,1.181000,1889341,1000,12,0,1,501.480,-20.928,19.072,419.785,-12.958,30.073
1782117443.894288,1.182000,1889342,1000,12,0,1,508.157,-10.896,19.114,412.699,-17.232,30.162
1782117443.895288,1.183000,1889343,1000,12,0,1,519.975,4.558,19.110,404.628,-21.071,30.307
1782117443.896288,1.184000,1889344,1000,12,0,1,510.607,0.444,19.101,402.851,-18.990,30.414
1782117443.897288,1.185000,1889345,1000,12,0,1,495.306,-13.537,19.146,404.940,-11.831,30.356
1782117443.898288,1.186000,1889346,1000,12,0,1,501.119,-7.302,19.097,401.025,-10.376,30.014
1782117443.899288,1.187000,1889347,1000,12,0,1,518.798,11.414,18.830,399.944,-8.810,29.390
1782117443.900288,1.188000,1889348,1000,12,0,1,540.777,29.452,18.787,394.491,-8.635,28.553
1782117443.901288,1.189000,1889349,1000,12,0,1,553.412,38.561,19.516,385.316,-14.587,27.572
1782117443.902288,1.190000,1889350,1000,12,0,1,555.526,33.686,19.895,384.163,-13.011,26.631
1782117443.903288,1.191000,1889351,1000,12,0,1,558.024,29.228,19.510,386.997,-7.212,25.829
1782117443.904288,1.192000,1889352,1000,12,0,1,561.579,26.643,18.929,383.994,-7.540,25.536
1782117443.905288,1.193000,1889353,1000,12,0,1,564.822,24.032,18.817,384.763,-6.986,25.555
1782117443.906288,1.194000,1889354,1000,12,0,1,569.410,23.028,18.848,386.276,-4.011,25.107
1782117443.907288,1.195000,1889355,1000,12,0,1,560.498,12.714,18.874,390.120,-1.401,23.223
1782117443.908288,1.196000,1889356,1000,12,0,1,538.688,-9.469,18.693,396.894,4.470,19.859
1782117443.909288,1.197000,1889357,1000,12,0,1,528.287,-19.880,17.855,402.250,8.274,16.918
1782117443.910288,1.198000,1889358,1000,12,0,1,530.208,-14.500,17.241,403.379,7.964,15.306
1782117443.911288,1.199000,1889359,1000,12,0,1,534.676,-7.391,17.009,402.514,5.849,14.645
1782117443.912288,1.200000,1889360,1000,12,0,1,534.844,-4.189,16.784,406.574,8.012,14.444
1782117443.913288,1.201000,1889361,1000,12,0,1,528.647,-7.993,16.561,408.135,10.338,14.460
1782117443.914288,1.202000,1889362,1000,12,0,1,534.748,-3.244,16.181,407.126,8.631,14.511
1782117443.915288,1.203000,1889363,1000,12,0,1,551.346,12.581,15.941,408.664,10.376,14.569
1782117443.916288,1.204000,1889364,1000,12,0,1,557.664,17.382,16.020,409.144,11.585,14.648
1782117443.917288,1.205000,1889365,1000,12,0,1,551.587,8.259,16.060,404.268,8.193,14.638
1782117443.918288,1.206000,1889366,1000,12,0,1,534.364,-9.355,16.062,401.890,5.963,14.528
1782117443.919288,1.207000,1889367,1000,12,0,1,521.633,-23.346,16.260,396.437,3.346,14.405
1782117443.920288,1.208000,1889368,1000,12,0,1,512.433,-28.865,16.748,390.816,-1.460,14.359
1782117443.921288,1.209000,1889369,1000,12,0,1,518.774,-23.014,17.018,389.471,-1.321,14.360
1782117443.922288,1.210000,1889370,1000,12,0,1,543.324,1.278,16.971,387.910,-1.481,14.361
1782117443.923288,1.211000,1889371,1000,12,0,1,563.357,19.977,17.186,385.436,-3.498,14.368
1782117443.924288,1.212000,1889372,1000,12,0,1,569.554,22.311,17.469,388.630,-1.368,14.370
1782117443.925288,1.213000,1889373,1000,12,0,1,563.789,13.640,17.533,393.218,2.356,14.364
1782117443.926288,1.214000,1889374,1000,12,0,1,557.015,3.519,17.495,397.950,4.406,14.367
1782117443.927288,1.215000,1889375,1000,12,0,1,533.571,-14.938,17.470,400.713,4.698,14.317
1782117443.928288,1.216000,1889376,1000,12,0,1,513.994,-33.286,17.735,405.877,5.682,14.030
1782117443.929288,1.217000,1889377,1000,12,0,1,515.700,-26.001,17.852,402.394,1.499,13.634
1782117443.930288,1.218000,1889378,1000,12,0,1,522.522,-13.078,17.898,397.710,-6.169,13.500
1782117443.931288,1.219000,1889379,1000,12,0,1,528.959,-3.047,17.898,397.830,-6.269,13.448
1782117443.932288,1.220000,1889380,1000,12,0,1,534.916,5.463,17.853,397.686,-5.697,13.182
1782117443.933288,1.221000,1889381,1000,12,0,1,538.856,9.909,17.745,396.245,-5.876,12.401
1782117443.934288,1.222000,1889382,1000,12,0,1,530.761,4.366,17.623,397.926,-2.875,11.027
1782117443.935288,1.223000,1889383,1000,12,0,1,524.852,-3.128,17.474,400.857,1.894,9.726
1782117443.936288,1.224000,1889384,1000,12,0,1,532.971,4.179,17.400,400.232,3.643,9.370
1782117443.937288,1.225000,1889385,1000,12,0,1,544.741,14.160,17.509,403.499,6.922,9.419
1782117443.938288,1.226000,1889386,1000,12,0,1,560.018,23.989,17.731,408.423,13.099,9.362
1782117443.939288,1.227000,1889387,1000,12,0,1,568.425,27.940,18.166,407.343,12.332,9.254
1782117443.940288,1.228000,1889388,1000,12,0,1,564.918,18.569,18.206,402.779,7.607,9.132
1782117443.941288,1.229000,1889389,1000,12,0,1,558.096,6.821,18.085,401.241,5.095,8.878
1782117443.942288,1.230000,1889390,1000,12,0,1,545.485,-7.043,17.938,400.977,4.433,8.673
1782117443.943288,1.231000,1889391,1000,12,0,1,525.837,-25.136,18.046,402.562,4.149,8.497
1782117443.944288,1.232000,1889392,1000,12,0,1,527.278,-24.745,18.318,405.613,5.134,8.172
1782117443.945288,1.233000,1889393,1000,12,0,1,536.189,-10.765,18.369,406.214,3.445,7.625
1782117443.946288,1.234000,1889394,1000,12,0,1,531.770,-11.381,18.440,407.463,1.229,7.139
1782117443.947288,1.235000,1889395,1000,12,0,1,525.020,-15.220,18.466,409.817,0.770,6.941
1782117443.948288,1.236000,1889396,1000,12,0,1,529.512,-8.455,18.476,406.045,-4.503,6.814
1782117443.949288,1.237000,1889397,1000,12,0,1,528.167,-4.250,18.415,402.755,-10.081,6.849
1782117443.950288,1.238000,1889398,1000,12,0,1,523.723,-6.543,17.962,403.667,-9.753,6.879
1782117443.951288,1.239000,1889399,1000,12,0,1,517.862,-7.901,17.150,405.757,-7.740,6.653
1782117443.952288,1.240000,1889400,1000,12,0,1,513.058,-9.692,16.532,406.982,-5.995,6.449
1782117443.953288,1.241000,1889401,1000,12,0,1,508.830,-9.854,16.068,409.408,-3.265,6.385
1782117443.954288,1.242000,1889402,1000,12,0,1,513.466,-4.141,15.631,413.348,1.255,6.298
1782117443.955288,1.243000,1889403,1000,12,0,1,522.738,6.430,15.284,416.470,5.043,6.261
1782117443.956288,1.244000,1889404,1000,12,0,1,521.441,6.511,14.961,414.573,4.433,6.266
1782117443.957288,1.245000,1889405,1000,12,0,1,521.873,3.999,14.863,414.549,4.247,6.292
1782117443.958288,1.246000,1889406,1000,12,0,1,528.551,9.378,14.862,411.258,3.255,6.277
1782117443.959288,1.247000,1889407,1000,12,0,1,541.258,17.386,14.800,406.166,-1.111,6.169
1782117443.960288,1.248000,1889408,1000,12,0,1,548.656,22.121,14.987,408.832,1.590,6.069
1782117443.961288,1.249000,1889409,1000,12,0,1,543.732,13.509,15.072,414.020,7.215,6.099
1782117443.962288,1.250000,1889410,1000,12,0,1,534.892,2.008,15.063,415.870,8.013,6.099
1782117443.963288,1.251000,1889411,1000,12,0,1,527.014,-6.322,15.047,416.350,6.586,5.994
1782117443.964288,1.252000,1889412,1000,12,0,1,524.828,-8.415,15.087,415.654,3.728,5.892
1782117443.965288,1.253000,1889413,1000,12,0,1,528.070,-3.727,14.991,414.693,0.379,5.706
1782117443.966288,1.254000,1889414,1000,12,0,1,531.313,0.960,14.789,411.810,-4.135,5.497
1782117443.967288,1.255000,1889415,1000,12,0,1,535.709,5.842,14.766,411.258,-7.011,5.465
1782117443.968288,1.256000,1889416,1000,12,0,1,534.052,6.175,14.732,411.066,-7.920,5.514
1782117443.969288,1.257000,1889417,1000,12,0,1,529.920,2.395,14.362,409.985,-9.864,5.668
1782117443.970288,1.258000,1889418,1000,12,0,1,531.217,4.077,13.781,408.399,-11.267,5.884
1782117443.971288,1.259000,1889419,1000,12,0,1,529.151,3.989,13.403,405.517,-13.056,6.164
1782117443.972288,1.260000,1889420,1000,12,0,1,529.560,3.320,13.410,405.613,-12.030,6.391
1782117443.973288,1.261000,1889421,1000,12,0,1,531.794,6.047,13.137,403.571,-10.778,6.552
1782117443.974288,1.262000,1889422,1000,12,0,1,524.684,-0.201,12.753,402.514,-10.020,6.701
1782117443.975288,1.263000,1889423,1000,12,0,1,520.336,-6.052,12.635,403.980,-5.392,6.736
1782117443.976288,1.264000,1889424,1000,12,0,1,530.376,1.898,12.628,403.812,-2.595,6.717
1782117443.977288,1.265000,1889425,1000,12,0,1,541.018,11.107,12.549,403.619,-0.437,6.684
1782117443.978288,1.266000,1889426,1000,12,0,1,547.431,13.390,11.786,402.346,1.037,6.637
1782117443.979288,1.267000,1889427,1000,12,0,1,542.411,6.559,11.236,405.853,4.951,6.671
1782117443.980288,1.268000,1889428,1000,12,0,1,526.173,-10.913,11.189,410.922,11.116,6.798
1782117443.981288,1.269000,1889429,1000,12,0,1,517.982,-20.212,11.541,413.612,12.913,6.983
1782117443.982288,1.270000,1889430,1000,12,0,1,522.065,-14.866,11.705,411.450,10.201,7.084
1782117443.983288,1.271000,1889431,1000,12,0,1,521.801,-11.799,11.740,408.832,5.563,7.079
1782117443.984288,1.272000,1889432,1000,12,0,1,522.474,-10.296,11.814,408.063,3.379,7.084
1782117443.985288,1.273000,1889433,1000,12,0,1,539.240,5.270,11.829,403.403,-1.660,7.083
1782117443.986288,1.274000,1889434,1000,12,0,1,552.740,19.841,12.143,401.409,-5.590,7.108
1782117443.987288,1.275000,1889435,1000,12,0,1,549.785,15.973,12.188,404.604,-3.188,7.055
1782117443.988288,1.276000,1889436,1000,12,0,1,546.302,10.073,11.792,408.760,-0.368,6.807
1782117443.989288,1.277000,1889437,1000,12,0,1,540.249,5.003,11.133,409.649,-0.186,6.580
1782117443.990288,1.278000,1889438,1000,12,0,1,537.246,0.859,10.820,408.808,-2.217,6.499
1782117443.991288,1.279000,1889439,1000,12,0,1,540.369,4.309,10.794,409.528,-2.155,6.466
1782117443.992288,1.280000,1889440,1000,12,0,1,539.456,4.115,10.764,409.552,-1.805,6.441
1782117443.993288,1.281000,1889441,1000,12,0,1,539.889,2.978,10.168,409.288,-1.814,6.419
1782117443.994288,1.282000,1889442,1000,12,0,1,540.609,3.550,9.560,409.649,-0.536,6.378
1782117443.995288,1.283000,1889443,1000,12,0,1,540.561,1.755,9.442,408.231,-0.446,6.360
1782117443.996288,1.284000,1889444,1000,12,0,1,540.009,0.137,9.304,406.622,-0.701,6.359
1782117443.997288,1.285000,1889445,1000,12,0,1,543.756,0.981,9.052,404.652,-0.636,6.358
1782117443.998288,1.286000,1889446,1000,12,0,1,551.419,6.004,9.013,403.355,-0.357,6.326
1782117443.999288,1.287000,1889447,1000,12,0,1,544.501,-0.686,8.993,404.989,2.394,6.173
1782117444.000288,1.288000,1889448,1000,12,0,1,531.385,-15.568,9.213,408.928,6.746,6.092
1782117444.001288,1.289000,1889449,1000,12,0,1,525.764,-20.407,9.589,410.177,8.200,6.104
1782117444.002288,1.290000,1889450,1000,12,0,1,536.454,-10.788,9.613,412.411,8.585,6.166
1782117444.003288,1.291000,1889451,1000,12,0,1,544.092,-0.407,9.511,411.210,6.899,6.225
1782117444.004288,1.292000,1889452,1000,12,0,1,542.987,-1.867,9.497,409.384,2.683,6.234
1782117444.005288,1.293000,1889453,1000,12,0,1,541.162,-3.193,9.464,409.096,0.993,6.195
1782117444.006288,1.294000,1889454,1000,12,0,1,541.162,-2.501,9.426,406.166,-2.837,6.176
1782117444.007288,1.295000,1889455,1000,12,0,1,532.899,-7.280,9.465,403.283,-6.944,6.225
1782117444.008288,1.296000,1889456,1000,12,0,1,521.993,-15.490,9.624,403.739,-7.110,6.289
1782117444.009288,1.297000,1889457,1000,12,0,1,522.354,-12.712,9.477,407.246,-4.407,6.318
1782117444.010288,1.298000,1889458,1000,12,0,1,527.398,-3.681,8.961,407.871,-3.335,6.331
1782117444.011288,1.299000,1889459,1000,12,0,1,530.833,1.556,8.757,405.757,-5.575,6.298
1782117444.012288,1.300000,1889460,1000,12,0,1,529.920,2.809,8.762,404.676,-6.009,6.253
1782117444.013288,1.301000,1889461,1000,12,0,1,525.356,-0.812,8.717,406.166,-3.806,6.207
1782117444.014288,1.302000,1889462,1000,12,0,1,523.579,-2.045,8.640,410.850,1.425,6.188
1782117444.015288,1.303000,1889463,1000,12,0,1,520.048,-3.803,8.641,413.780,5.387,6.234
1782117444.016288,1.304000,1889464,1000,12,0,1,517.958,-5.766,8.678,417.984,8.754,6.329
1782117444.017288,1.305000,1889465,1000,12,0,1,530.184,4.220,8.659,412.867,5.993,6.308
1782117444.018288,1.306000,1889466,1000,12,0,1,543.492,16.557,8.928,406.502,-1.071,6.210
1782117444.019288,1.307000,1889467,1000,12,0,1,541.546,12.882,9.105,404.772,-1.166,6.053
1782117444.020288,1.308000,1889468,1000,12,0,1,532.658,1.424,9.089,404.220,-0.659,5.840
1782117444.021288,1.309000,1889469,1000,12,0,1,529.127,-3.807,9.088,403.379,-0.452,5.541
1782117444.022288,1.310000,1889470,1000,12,0,1,531.986,-1.655,9.079,403.715,0.155,5.274
1782117444.023288,1.311000,1889471,1000,12,0,1,535.060,1.525,9.041,403.259,-0.024,5.049
1782117444.024288,1.312000,1889472,1000,12,0,1,537.583,3.464,9.054,403.571,-0.329,4.846
1782117444.025288,1.313000,1889473,1000,12,0,1,543.083,7.876,9.082,407.198,1.853,4.793
1782117444.026288,1.314000,1889474,1000,12,0,1,541.066,7.042,9.133,408.736,2.714,4.794
1782117444.027288,1.315000,1889475,1000,12,0,1,536.045,1.385,8.999,409.913,1.495,4.798
1782117444.028288,1.316000,1889476,1000,12,0,1,537.463,2.856,8.806,410.970,1.304,4.800
1782117444.029288,1.317000,1889477,1000,12,0,1,535.853,3.181,8.769,411.810,0.234,4.748
1782117444.030288,1.318000,1889478,1000,12,0,1,535.445,2.272,8.638,411.450,-0.888,4.482
1782117444.031288,1.319000,1889479,1000,12,0,1,530.617,0.092,8.151,411.210,-2.129,4.105
1782117444.032288,1.320000,1889480,1000,12,0,1,527.110,-3.818,7.894,414.164,0.031,3.843
1782117444.033288,1.321000,1889481,1000,12,0,1,523.627,-4.832,7.746,414.501,1.032,3.764
1782117444.034288,1.322000,1889482,1000,12,0,1,522.281,-6.074,7.656,411.642,-1.558,3.740
1782117444.035288,1.323000,1889483,1000,12,0,1,516.324,-9.060,7.727,413.156,-0.037,3.733
1782117444.036288,1.324000,1889484,1000,12,0,1,510.992,-13.844,7.461,415.173,3.215,3.676
1782117444.037288,1.325000,1889485,1000,12,0,1,517.501,-7.476,7.189,411.738,1.219,3.653
1782117444.038288,1.326000,1889486,1000,12,0,1,520.864,-1.933,7.052,412.747,1.720,3.660
1782117444.039288,1.327000,1889487,1000,12,0,1,518.342,-5.084,7.053,412.531,3.492,3.693
1782117444.040288,1.328000,1889488,1000,12,0,1,516.180,-6.659,7.114,411.666,2.146,3.693
1782117444.041288,1.329000,1889489,1000,12,0,1,530.328,3.667,7.107,407.439,-0.413,3.680
1782117444.042288,1.330000,1889490,1000,12,0,1,546.566,19.418,7.597,403.211,-4.771,3.733
1782117444.043288,1.331000,1889491,1000,12,0,1,550.025,19.737,8.083,402.370,-4.944,3.789
1782117444.044288,1.332000,1889492,1000,12,0,1,549.233,15.233,8.350,400.809,-5.596,3.870
1782117444.045288,1.333000,1889493,1000,12,0,1,549.209,12.496,8.531,399.656,-6.778,3.987
1782117444.046288,1.334000,1889494,1000,12,0,1,548.464,9.863,8.644,400.401,-5.789,4.069
1782117444.047288,1.335000,1889495,1000,12,0,1,547.263,7.586,8.709,400.256,-5.807,4.150
1782117444.048288,1.336000,1889496,1000,12,0,1,546.542,6.035,8.710,401.097,-5.291,4.216
1782117444.049288,1.337000,1889497,1000,12,0,1,544.957,4.667,8.734,399.968,-5.794,4.282
1782117444.050288,1.338000,1889498,1000,12,0,1,543.492,2.988,8.463,397.614,-7.769,4.316
1782117444.051288,1.339000,1889499,1000,12,0,1,534.796,-3.212,7.968,400.449,-5.044,4.219
1782117444.052288,1.340000,1889500,1000,12,0,1,534.124,-5.385,7.858,401.818,-1.902,4.049
