Unix_Time_s,RelativeTime_s,P_1,P_2,P_3,P_4,P_5,P_6,P_7,P_8,P_9,P_10,P_11,P_12,P_13,P_14,P_15,P_16,P_17,P_18,P_19,P_20,P_21,P_22,P_23,P_24,P_25,P_26,P_27,P_28,P_29,P_30,P_31,P_32,P_33,P_34,P_35,P_36,P_37,P_38,P_39,P_40,P_41,P_42,P_43,P_44,P_45,P_46,P_47,P_48,P_49,P_50,P_51,P_52,P_53,P_54,P_55,P_56,P_57,P_58,P_59,P_60,P_61,P_62,P_63,P_64,P_65,P_66,P_67,P_68,P_69,P_70,P_71,P_72,P_73,P_74,P_75,P_76,P_77,P_78,P_79,P_80,P_81,P_82,P_83,P_84,P_85,P_86,P_87,P_88,P_89,P_90,P_91,P_92,P_93,P_94,P_95,P_96,P_97,P_98,P_99,P_100,P_101,P_102,P_103,P_104,P_105,P_106,P_107,P_108,P_109,P_110,P_111,P_112,P_113,P_114,P_115,P_116,P_117,P_118,P_119,P_120,P_121,P_122,P_123,P_124,P_125,P_126,P_127,P_128,P_129,P_130,P_131,P_132,P_133,P_134,P_135,P_136,P_137,P_138,P_139,P_140,P_141,P_142,P_143,P_144,P_145,P_146,P_147,P_148,P_149,P_150,P_151,P_152,P_153,P_154,P_155,P_156,P_157,P_158,P_159,P_160,P_161,P_162,P_163,P_164,P_165,P_166,P_167,P_168,P_169,P_170,P_171,P_172,P_173,P_174,P_175,P_176,P_177,P_178,P_179,P_180,P_181,P_182,P_183,P_184,P_185,P_186,P_187,P_188,P_189,P_190,P_191,P_192,P_193,P_194,P_195,P_196,P_197,P_198,P_199,P_200,P_201,P_202,P_203,P_204,P_205,P_206,P_207,P_208,P_209,P_210,P_211,P_212,P_213,P_214,P_215,P_216,P_217,P_218,P_219,P_220,P_221,P_222,P_223,P_224,P_225,P_226,P_227,P_228,P_229,P_230,P_231,P_232,P_233,Flex1,Flex2,Bat,IMU1_RefTime,IMU1_Ax,IMU1_Ay,IMU1_Az,IMU1_Wx,IMU1_Wy,IMU1_Wz,IMU1_Roll,IMU1_Pitch,IMU1_Yaw,IMU1_Hx,IMU1_Hy,IMU1_Hz,IMU1_Q0,IMU1_Q1,IMU1_Q2,IMU1_Q3,IMU2_RefTime,IMU2_Ax,IMU2_Ay,IMU2_Az,IMU2_Wx,IMU2_Wy,IMU2_Wz,IMU2_Roll,IMU2_Pitch,IMU2_Yaw,IMU2_Hx,IMU2_Hy,IMU2_Hz,IMU2_Q0,IMU2_Q1,IMU2_Q2,IMU2_Q3,IMU1_FusedRoll,IMU1_FusedPitch,IMU1_FusedYaw,IMU1_FusedQ0,IMU1_FusedQ1,IMU1_FusedQ2,IMU1_FusedQ3,IMU1_MagValid,IMU2_FusedRoll,IMU2_FusedPitch,IMU2_FusedYaw,IMU2_FusedQ0,IMU2_FusedQ1,IMU2_FusedQ2,IMU2_FusedQ3,IMU2_MagValid
1782117442.717562,0.005,1024.0,1023.0,1023.0,1023.0,1024.0,1023.0,1023.0,1023.0,1023.0,1024.0,1024.0,1023.0,1023.0,1023.0,1023.0,1023.0,1024.0,1024.0,1023.0,1024.0,1024.0,1023.0,1023.0,1023.0,1024.0,1024.0,1023.0,1024.0,1023.0,1023.0,1023.0,1023.0,1023.0,1024.0,1024.0,1023.0,1023.0,1024.0,1023.0,1024.0,1024.0,1022.0,1024.0,1024.0,1023.0,1023.0,1023.0,1022.0,1023.0,1022.0,1022.0,1023.0,1023.0,1024.0,1023.0,1023.0,1023.0,1023.0,1024.0,1022.0,1022.0,1023.0,1024.0,1023.0,1023.0,1023.0,1023.0,1023.0,1023.0,1022.0,1022.0,1023.0,1023.0,1024.0,1023.0,1023.0,1023.0,1023.0,1023.0,1022.0,1023.0,1023.0,1024.0,1024.0,1024.0,1023.0,1024.0,1024.0,1024.0,1023.0,1022.0,1023.0,1025.0,1025.0,1024.0,1024.0,1024.0,1024.0,1024.0,1025.0,1022.0,1023.0,1025.0,1025.0,1024.0,1024.0,1024.0,1024.0,1024.0,1024.0,1023.0,1023.0,1023.0,1024.0,1023.0,1023.0,1024.0,1023.0,1023.0,1021.0,1022.0,1024.0,1024.0,1023.0,1024.0,1023.0,1023.0,1023.0,1023.0,1024.0,1024.0,1023.0,1023.0,1024.0,1023.0,1023.0,1025.0,1025.0,1024.0,1024.0,1024.0,1024.0,1024.0,1024.0,1024.0,1024.0,1024.0,1024.0,1024.0,1025.0,1024.0,1025.0,1024.0,1024.0,1025.0,1023.0,1024.0,1024.0,1024.0,1025.0,1025.0,1025.0,1025.0,1027.0,1025.0,1027.0,1028.0,1026.0,1026.0,1029.0,1028.0,1028.0,1031.0,1028.0,1027.0,1030.0,1030.0,1029.0,1033.0,1029.0,1027.0,1031.0,1030.0,1029.0,1034.0,1030.0,1029.0,1033.0,1033.0,1031.0,1038.0,1032.0,1032.0,1035.0,1034.0,1031.0,1039.0,1033.0,1030.0,1032.0,1030.0,1029.0,1035.0,1031.0,1032.0,1032.0,1032.0,1030.0,1034.0,1030.0,1024.0,1023.0,1022.0,1023.0,1024.0,1022.0,1037.0,1039.0,1034.0,1033.0,1039.0,1036.0,1032.0,1035.0,1032.0,1033.0,1037.0,1035.0,1029.0,1032.0,1028.0,1030.0,1031.0,2005,2018,1910,	00:32:15.499,0.05517578125,0.04150390625,1.017578125,-0.244140625,0.18310546875,0.06103515625,2.30712890625,-3.1036376953125,54.25048828125,462.0,-1598.0,-2577.0,0.889251708984375,0.030242919921875,-0.01495361328125,0.456146240234375,2.305510798783027,-3.1051700323258364,49.63926073879267,0.9068880702086469,0.02962401824392682,-0.016145116135008453,0.42001878634330964,1,	00:32:15.500,0.00830078125,0.078125,1.0048828125,-0.9765625,-1.220703125,-0.54931640625,4.383544921875,-0.472412109375,95.0921630859375,-367.0,-1321.0,-1939.0,-0.67437744140625,-0.028839111328125,-0.02545166015625,-0.737396240234375,4.383714397056091,-0.47181190203931006,96.44870744941858,-0.6656050370251414,-0.02854801283398413,-0.02578089491216999,-0.7453122104913608,1
1782117442.727215,0.015,1024.0,1023.0,1024.0,1023.0,1023.0,1022.0,1023.0,1023.0,1023.0,1024.0,1023.0,1023.0,1023.0,1023.0,1023.0,1023.0,1024.0,1024.0,1023.0,1022.0,1023.0,1023.0,1023.0,1023.0,1024.0,1024.0,1023.0,1023.0,1024.0,1023.0,1023.0,1023.0,1023.0,1024.0,1024.0,1024.0,1024.0,1023.0,1024.0,1023.0,1023.0,1023.0,1024.0,1024.0,1023.0,1023.0,1024.0,1023.0,1023.0,1021.0,1022.0,1023.0,1024.0,1024.0,1023.0,1023.0,1023.0,1023.0,1023.0,1022.0,1022.0,1023.0,1023.0,1024.0,1023.0,1023.0,1024.0,1023.0,1023.0,1022.0,1022.0,1023.0,1024.0,1024.0,1023.0,1023.0,1023.0,1023.0,1023.0,1023.0,1022.0,1024.0,1024.0,1024.0,1024.0,1023.0,1023.0,1023.0,1023.0,1023.0,1023.0,1023.0,1025.0,1025.0,1025.0,1024.0,1024.0,1024.0,1024.0,1025.0,1023.0,1023.0,1025.0,1025.0,1024.0,1024.0,1024.0,1023.0,1024.0,1023.0,1023.0,1023.0,1023.0,1024.0,1022.0,1024.0,1024.0,1023.0,1023.0,1021.0,1022.0,1024.0,1024.0,1023.0,1023.0,1023.0,1023.0,1024.0,1022.0,1024.0,1024.0,1023.0,1023.0,1024.0,1024.0,1024.0,1024.0,1024.0,1024.0,1024.0,1024.0,1023.0,1025.0,1024.0,1024.0,1024.0,1024.0,1024.0,1024.0,1024.0,1024.0,1025.0,1024.0,1024.0,1025.0,1024.0,1024.0,1025.0,1024.0,1024.0,1025.0,1024.0,1025.0,1027.0,1025.0,1027.0,1028.0,1026.0,1025.0,1029.0,1028.0,1028.0,1030.0,1027.0,1027.0,1030.0,1030.0,1030.0,1034.0,1029.0,1028.0,1031.0,1030.0,1029.0,1034.0,1030.0,1029.0,1033.0,1032.0,1030.0,1037.0,1032.0,1031.0,1034.0,1034.0,1030.0,1038.0,1033.0,1030.0,1032.0,1031.0,1029.0,1035.0,1031.0,1032.0,1033.0,1032.0,1029.0,1034.0,1031.0,1024.0,1023.0,1023.0,1023.0,1024.0,1022.0,1038.0,1039.0,1034.0,1033.0,1038.0,1035.0,1033.0,1036.0,1032.0,1033.0,1037.0,1035.0,1029.0,1031.0,1027.0,1029.0,1030.0,2005,2018,1909,	00:32:15.509,0.05615234375,0.0419921875,1.017578125,-0.244140625,0.18310546875,0.06103515625,2.373046875,-3.1640625,54.2449951171875,462.0,-1596.0,-2576.0,0.889251708984375,0.031005859375,-0.01513671875,0.456146240234375,2.371753559572416,-3.163848233837284,49.63618880532637,0.9068648978214315,0.03036238176860286,-0.01636773889925939,0.42000747611916134,1,	00:32:15.510,0.00830078125,0.07763671875,1.0048828125,-0.9765625,-1.220703125,-0.48828125,4.4659423828125,-0.4833984375,95.086669921875,-367.0,-1316.0,-1937.0,-0.67437744140625,-0.0294189453125,-0.025909423828125,-0.737335205078125,4.465401790422405,-0.4837652454614268,96.4421448269226,-0.6656238788912989,-0.029101710671191463,-0.02624106877926122,-0.7452579074354285,1
1782117442.737736,0.025,1024.0,1023.0,1023.0,1024.0,1024.0,1023.0,1023.0,1024.0,1023.0,1023.0,1023.0,1023.0,1023.0,1023.0,1023.0,1023.0,1024.0,1024.0,1023.0,1023.0,1024.0,1024.0,1023.0,1023.0,1024.0,1024.0,1023.0,1023.0,1024.0,1023.0,1023.0,1023.0,1022.0,1024.0,1024.0,1023.0,1023.0,1023.0,1023.0,1023.0,1024.0,1023.0,1024.0,1024.0,1023.0,1023.0,1023.0,1023.0,1023.0,1023.0,1022.0,1023.0,1024.0,1024.0,1023.0,1023.0,1023.0,1024.0,1023.0,1022.0,1023.0,1023.0,1023.0,1024.0,1023.0,1023.0,1023.0,1023.0,1022.0,1022.0,1022.0,1023.0,1024.0,1024.0,1023.0,1023.0,1023.0,1023.0,1023.0,1022.0,1023.0,1023.0,1024.0,1024.0,1024.0,1024.0,1024.0,1024.0,1024.0,1023.0,1022.0,1023.0,1025.0,1025.0,1024.0,1024.0,1024.0,1024.0,1024.0,1025.0,1023.0,1023.0,1025.0,1026.0,1024.0,1024.0,1024.0,1024.0,1024.0,1024.0,1023.0,1023.0,1023.0,1024.0,1022.0,1023.0,1023.0,1023.0,1022.0,1021.0,1022.0,1023.0,1024.0,1024.0,1023.0,1024.0,1023.0,1024.0,1022.0,1024.0,1024.0,1023.0,1023.0,1024.0,1023.0,1023.0,1024.0,1025.0,1024.0,1024.0,1024.0,1024.0,1024.0,1024.0,1025.0,1024.0,1024.0,1024.0,1024.0,1025.0,1024.0,1025.0,1024.0,1024.0,1025.0,1025.0,1024.0,1025.0,1024.0,1025.0,1025.0,1025.0,1025.0,1027.0,1026.0,1026.0,1028.0,1027.0,1026.0,1029.0,1028.0,1028.0,1030.0,1028.0,1027.0,1030.0,1030.0,1029.0,1034.0,1029.0,1027.0,1030.0,1030.0,1029.0,1034.0,1030.0,1029.0,1033.0,1033.0,1030.0,1038.0,1032.0,1031.0,1035.0,1035.0,1030.0,1038.0,1032.0,1030.0,1031.0,1031.0,1028.0,1035.0,1031.0,1032.0,1032.0,1032.0,1029.0,1034.0,1030.0,1024.0,1023.0,1022.0,1023.0,1023.0,1022.0,1038.0,1039.0,1035.0,1033.0,1039.0,1036.0,1033.0,1036.0,1032.0,1033.0,1037.0,1035.0,1029.0,1031.0,1027.0,1029.0,1031.0,2005,2018,1910,	00:32:15.519,0.05615234375,0.04150390625,1.017578125,-0.244140625,0.18310546875,0.1220703125,2.2796630859375,-3.14208984375,54.25048828125,462.0,-1597.0,-2573.0,0.889251708984375,0.03021240234375,-0.01531982421875,0.4561767578125,2.2797018175227377,-3.1423501419326816,49.64241079903343,0.9068724394396128,0.02955617549106121,-0.016533297232651123,0.4200422135426437,1,	00:32:15.520,0.00927734375,0.0771484375,1.0048828125,-0.9765625,-1.220703125,-0.48828125,4.3780517578125,-0.5438232421875,95.0811767578125,-367.0,-1320.0,-1938.0,-0.6744384765625,-0.029266357421875,-0.024993896484375,-0.737335205078125,4.376545082853095,-0.5414777880650272,96.43703887373876,-0.6656636122413804,-0.028961929456843352,-0.025326513456646767,-0.7452595049350423,1
1782117442.748163,0.036,1023.0,1023.0,1023.0,1024.0,1023.0,1023.0,1023.0,1023.0,1023.0,1023.0,1024.0,1023.0,1023.0,1024.0,1023.0,1023.0,1023.0,1024.0,1024.0,1023.0,1024.0,1023.0,1023.0,1023.0,1024.0,1024.0,1024.0,1024.0,1024.0,1023.0,1023.0,1023.0,1022.0,1024.0,1024.0,1024.0,1023.0,1024.0,1024.0,1024.0,1024.0,1023.0,1023.0,1024.0,1023.0,1023.0,1023.0,1023.0,1023.0,1022.0,1022.0,1023.0,1024.0,1023.0,1023.0,1023.0,1024.0,1023.0,1023.0,1022.0,1022.0,1023.0,1024.0,1024.0,1023.0,1023.0,1023.0,1023.0,1023.0,1022.0,1022.0,1023.0,1023.0,1024.0,1023.0,1023.0,1023.0,1023.0,1023.0,1022.0,1022.0,1023.0,1024.0,1024.0,1024.0,1023.0,1024.0,1023.0,1024.0,1024.0,1022.0,1023.0,1026.0,1025.0,1024.0,1024.0,1024.0,1024.0,1024.0,1024.0,1023.0,1024.0,1025.0,1025.0,1024.0,1024.0,1024.0,1024.0,1024.0,1023.0,1024.0,1023.0,1023.0,1024.0,1023.0,1023.0,1024.0,1023.0,1023.0,1021.0,1022.0,1024.0,1024.0,1024.0,1024.0,1024.0,1023.0,1023.0,1023.0,1024.0,1024.0,1023.0,1023.0,1024.0,1023.0,1024.0,1024.0,1025.0,1024.0,1024.0,1024.0,1024.0,1024.0,1024.0,1024.0,1024.0,1024.0,1024.0,1024.0,1025.0,1024.0,1025.0,1024.0,1024.0,1025.0,1024.0,1024.0,1024.0,1024.0,1024.0,1025.0,1024.0,1025.0,1027.0,1026.0,1026.0,1028.0,1026.0,1026.0,1029.0,1028.0,1028.0,1031.0,1028.0,1026.0,1030.0,1030.0,1029.0,1034.0,1029.0,1028.0,1031.0,1031.0,1028.0,1034.0,1030.0,1029.0,1033.0,1033.0,1030.0,1037.0,1032.0,1032.0,1034.0,1034.0,1030.0,1038.0,1032.0,1030.0,1032.0,1032.0,1028.0,1034.0,1031.0,1033.0,1033.0,1032.0,1029.0,1035.0,1031.0,1023.0,1023.0,1022.0,1023.0,1023.0,1022.0,1038.0,1039.0,1035.0,1032.0,1038.0,1036.0,1033.0,1036.0,1033.0,1033.0,1037.0,1035.0,1029.0,1032.0,1028.0,1029.0,1031.0,2005,2018,1910,	00:32:15.529,0.05615234375,0.0419921875,1.0185546875,-0.244140625,0.18310546875,0.1220703125,2.3675537109375,-3.153076171875,54.25048828125,464.0,-1599.0,-2575.0,0.88922119140625,0.030914306640625,-0.015045166015625,0.456146240234375,2.368142252041373,-3.1523070954273638,49.63871185318301,0.9068599981171733,0.03029196387992581,-0.016288924601604856,0.4200262035570411,1,	00:32:15.530,0.00927734375,0.07861328125,1.00390625,-0.91552734375,-1.220703125,-0.48828125,4.46044921875,-0.538330078125,95.07568359375,-367.0,-1319.0,-1934.0,-0.674468994140625,-0.02972412109375,-0.0255126953125,-0.737274169921875,4.458044066537464,-0.5410507347243183,96.43038296019795,-0.6656862509202481,-0.02943407610474491,-0.025857317208627162,-0.7452025561190576,1
1782117442.758722,0.046,1024.0,1023.0,1024.0,1023.0,1023.0,1022.0,1023.0,1023.0,1023.0,1024.0,1024.0,1023.0,1023.0,1023.0,1023.0,1023.0,1024.0,1024.0,1023.0,1023.0,1023.0,1023.0,1023.0,1022.0,1024.0,1024.0,1024.0,1023.0,1024.0,1023.0,1024.0,1023.0,1022.0,1024.0,1024.0,1024.0,1023.0,1024.0,1023.0,1023.0,1024.0,1022.0,1024.0,1023.0,1023.0,1023.0,1023.0,1023.0,1023.0,1022.0,1023.0,1023.0,1023.0,1024.0,1023.0,1023.0,1023.0,1023.0,1023.0,1022.0,1022.0,1023.0,1023.0,1024.0,1023.0,1023.0,1023.0,1023.0,1023.0,1022.0,1022.0,1023.0,1024.0,1024.0,1023.0,1023.0,1023.0,1023.0,1023.0,1022.0,1022.0,1023.0,1024.0,1025.0,1024.0,1023.0,1023.0,1023.0,1023.0,1023.0,1022.0,1022.0,1026.0,1025.0,1025.0,1023.0,1024.0,1024.0,1024.0,1024.0,1023.0,1024.0,1025.0,1025.0,1024.0,1024.0,1024.0,1024.0,1024.0,1024.0,1023.0,1023.0,1023.0,1024.0,1022.0,1023.0,1023.0,1023.0,1023.0,1021.0,1023.0,1024.0,1024.0,1023.0,1024.0,1023.0,1023.0,1023.0,1022.0,1024.0,1024.0,1023.0,1023.0,1023.0,1023.0,1023.0,1024.0,1025.0,1024.0,1024.0,1024.0,1024.0,1024.0,1024.0,1024.0,1024.0,1024.0,1024.0,1024.0,1024.0,1024.0,1024.0,1024.0,1024.0,1024.0,1024.0,1024.0,1025.0,1024.0,1025.0,1025.0,1025.0,1025.0,1027.0,1025.0,1026.0,1027.0,1026.0,1026.0,1029.0,1027.0,1029.0,1031.0,1028.0,1026.0,1030.0,1030.0,1029.0,1034.0,1029.0,1027.0,1031.0,1030.0,1029.0,1034.0,1030.0,1029.0,1034.0,1033.0,1030.0,1037.0,1032.0,1031.0,1035.0,1034.0,1031.0,1038.0,1032.0,1029.0,1032.0,1031.0,1029.0,1035.0,1031.0,1033.0,1032.0,1032.0,1029.0,1034.0,1031.0,1024.0,1023.0,1023.0,1023.0,1024.0,1022.0,1038.0,1039.0,1034.0,1033.0,1038.0,1036.0,1033.0,1035.0,1032.0,1033.0,1037.0,1035.0,1028.0,1031.0,1028.0,1029.0,1031.0,2005,2018,1909,	00:32:15.540,0.05517578125,0.0419921875,1.017578125,-0.244140625,0.18310546875,0.06103515625,2.3565673828125,-3.0596923828125,54.25048828125,462.0,-1595.0,-2577.0,0.889251708984375,0.03045654296875,-0.014373779296875,0.4561767578125,2.3566546029215654,-3.059426076004725,49.63988449072668,0.9068856590611994,0.029861587556901336,-0.015595287246059929,0.4200279443006481,1,	00:32:15.541,0.00830078125,0.078125,1.0048828125,-0.91552734375,-1.220703125,-0.48828125,4.4329833984375,-0.46142578125,95.0701904296875,-367.0,-1317.0,-1934.0,-0.674530029296875,-0.029083251953125,-0.02581787109375,-0.73724365234375,4.4326419749269865,-0.4626528726752054,96.42470227004762,-0.6657514233820786,-0.028778130656046383,-0.02614631137243456,-0.7451598700026025,1
1782117442.768632,0.056,1024.0,1023.0,1024.0,1023.0,1023.0,1023.0,1023.0,1023.0,1023.0,1024.0,1023.0,1023.0,1023.0,1023.0,1023.0,1023.0,1024.0,1024.0,1023.0,1023.0,1024.0,1023.0,1023.0,1023.0,1025.0,1024.0,1023.0,1024.0,1024.0,1023.0,1023.0,1023.0,1022.0,1024.0,1024.0,1024.0,1023.0,1024.0,1023.0,1024.0,1023.0,1022.0,1024.0,1024.0,1023.0,1024.0,1024.0,1023.0,1023.0,1022.0,1022.0,1023.0,1024.0,1024.0,1023.0,1023.0,1024.0,1023.0,1023.0,1022.0,1022.0,1023.0,1024.0,1024.0,1023.0,1023.0,1023.0,1023.0,1023.0,1022.0,1022.0,1023.0,1024.0,1024.0,1024.0,1023.0,1023.0,1023.0,1023.0,1023.0,1023.0,1023.0,1024.0,1024.0,1024.0,1023.0,1024.0,1024.0,1024.0,1023.0,1023.0,1023.0,1025.0,1025.0,1024.0,1024.0,1024.0,1024.0,1024.0,1024.0,1023.0,1023.0,1025.0,1025.0,1024.0,1024.0,1024.0,1024.0,1024.0,1024.0,1023.0,1023.0,1023.0,1024.0,1023.0,1023.0,1024.0,1022.0,1023.0,1021.0,1022.0,1024.0,1024.0,1024.0,1023.0,1024.0,1024.0,1024.0,1022.0,1023.0,1024.0,1023.0,1023.0,1023.0,1023.0,1024.0,1024.0,1024.0,1024.0,1024.0,1024.0,1024.0,1024.0,1024.0,1025.0,1024.0,1024.0,1024.0,1024.0,1025.0,1024.0,1024.0,1024.0,1024.0,1024.0,1024.0,1024.0,1025.0,1024.0,1025.0,1025.0,1025.0,1025.0,1026.0,1026.0,1026.0,1028.0,1027.0,1025.0,1028.0,1028.0,1028.0,1031.0,1028.0,1027.0,1030.0,1030.0,1029.0,1034.0,1029.0,1027.0,1031.0,1030.0,1029.0,1034.0,1031.0,1028.0,1034.0,1032.0,1031.0,1037.0,1033.0,1030.0,1035.0,1034.0,1030.0,1037.0,1032.0,1029.0,1031.0,1031.0,1029.0,1035.0,1031.0,1032.0,1033.0,1031.0,1029.0,1034.0,1031.0,1024.0,1023.0,1023.0,1023.0,1024.0,1022.0,1037.0,1039.0,1034.0,1033.0,1039.0,1036.0,1032.0,1036.0,1032.0,1033.0,1038.0,1035.0,1028.0,1031.0,1028.0,1029.0,1031.0,2005,2018,1910,	00:32:15.550,0.05615234375,0.04296875,1.017578125,-0.18310546875,0.1220703125,0.06103515625,2.406005859375,-3.1365966796875,54.25048828125,463.0,-1597.0,-2572.0,0.88922119140625,0.0311279296875,-0.0147705078125,0.456146240234375,2.4039346373342565,-3.1354141653925987,49.63789110080148,0.9068584678760492,0.030513336704232612,-0.016024189995780203,0.4200236670232502,1,	00:32:15.551,0.00830078125,0.078125,1.00439453125,-0.9765625,-1.15966796875,-0.54931640625,4.4989013671875,-0.5218505859375,95.064697265625,-366.0,-1319.0,-1939.0,-0.674530029296875,-0.029876708984375,-0.02587890625,-0.7371826171875,4.500427305442847,-0.522337139551634,96.41766832318288,-0.6657632836088311,-0.02956154343235976,-0.026238413000147155,-0.745115367598547,1
1782117442.778593,0.066,1023.0,1023.0,1023.0,1022.0,1023.0,1023.0,1023.0,1023.0,1023.0,1024.0,1024.0,1023.0,1024.0,1024.0,1023.0,1024.0,1023.0,1024.0,1023.0,1023.0,1024.0,1023.0,1023.0,1023.0,1023.0,1024.0,1024.0,1024.0,1024.0,1023.0,1024.0,1023.0,1023.0,1023.0,1024.0,1024.0,1024.0,1024.0,1023.0,1024.0,1023.0,1022.0,1023.0,1024.0,1023.0,1023.0,1023.0,1023.0,1024.0,1022.0,1022.0,1023.0,1023.0,1024.0,1023.0,1023.0,1023.0,1023.0,1023.0,1022.0,1022.0,1023.0,1023.0,1024.0,1023.0,1023.0,1023.0,1023.0,1023.0,1022.0,1022.0,1023.0,1023.0,1024.0,1023.0,1023.0,1023.0,1023.0,1023.0,1022.0,1022.0,1023.0,1023.0,1024.0,1023.0,1024.0,1024.0,1024.0,1023.0,1023.0,1022.0,1023.0,1024.0,1026.0,1024.0,1024.0,1024.0,1024.0,1024.0,1024.0,1023.0,1024.0,1024.0,1025.0,1023.0,1024.0,1024.0,1023.0,1024.0,1024.0,1023.0,1023.0,1023.0,1024.0,1023.0,1023.0,1024.0,1023.0,1023.0,1021.0,1022.0,1023.0,1024.0,1024.0,1024.0,1024.0,1023.0,1024.0,1022.0,1023.0,1024.0,1023.0,1023.0,1024.0,1023.0,1023.0,1024.0,1025.0,1024.0,1024.0,1024.0,1024.0,1024.0,1023.0,1024.0,1024.0,1024.0,1024.0,1024.0,1025.0,1023.0,1024.0,1024.0,1024.0,1025.0,1024.0,1024.0,1025.0,1024.0,1025.0,1025.0,1025.0,1024.0,1027.0,1026.0,1027.0,1028.0,1026.0,1026.0,1029.0,1027.0,1029.0,1031.0,1029.0,1026.0,1030.0,1030.0,1029.0,1035.0,1029.0,1027.0,1031.0,1030.0,1029.0,1034.0,1031.0,1028.0,1033.0,1033.0,1031.0,1038.0,1032.0,1030.0,1034.0,1034.0,1031.0,1038.0,1032.0,1029.0,1032.0,1031.0,1028.0,1035.0,1031.0,1032.0,1033.0,1031.0,1029.0,1035.0,1031.0,1023.0,1024.0,1022.0,1023.0,1024.0,1022.0,1037.0,1039.0,1034.0,1033.0,1039.0,1036.0,1033.0,1036.0,1032.0,1033.0,1038.0,1035.0,1029.0,1031.0,1027.0,1029.0,1032.0,2005,2018,1909,	00:32:15.560,0.05615234375,0.0419921875,1.01806640625,-0.244140625,0.18310546875,0.0,2.318115234375,-3.1695556640625,54.25048828125,463.0,-1597.0,-2576.0,0.88922119140625,0.030609130859375,-0.015411376953125,0.4561767578125,2.3178021210235746,-3.1712647945929437,49.642572263246265,0.9068535218530586,0.029963456173848883,-0.016622538884003047,0.42005067836854143,1,	00:32:15.561,0.00927734375,0.07861328125,1.0048828125,-0.9765625,-1.220703125,-0.48828125,4.4000244140625,-0.54931640625,95.0592041015625,-367.0,-1316.0,-1938.0,-0.674591064453125,-0.02947998046875,-0.02508544921875,-0.7371826171875,4.400801917766896,-0.5506689845467864,96.41268643418074,-0.665813278884175,-0.029167996904428214,-0.02542465891141432,-0.7451144156016076,1
1782117442.790380,0.078,1023.0,1023.0,1024.0,1023.0,1024.0,1022.0,1023.0,1024.0,1023.0,1023.0,1023.0,1023.0,1023.0,1023.0,1023.0,1023.0,1023.0,1024.0,1023.0,1023.0,1024.0,1023.0,1024.0,1023.0,1024.0,1024.0,1023.0,1023.0,1023.0,1024.0,1023.0,1023.0,1022.0,1024.0,1024.0,1024.0,1024.0,1024.0,1024.0,1024.0,1023.0,1022.0,1023.0,1024.0,1023.0,1024.0,1023.0,1023.0,1023.0,1022.0,1022.0,1023.0,1023.0,1024.0,1023.0,1024.0,1024.0,1023.0,1023.0,1022.0,1022.0,1023.0,1024.0,1024.0,1023.0,1023.0,1023.0,1023.0,1023.0,1022.0,1022.0,1023.0,1024.0,1024.0,1023.0,1024.0,1024.0,1022.0,1023.0,1022.0,1022.0,1023.0,1024.0,1024.0,1024.0,1024.0,1024.0,1023.0,1023.0,1022.0,1023.0,1023.0,1025.0,1026.0,1024.0,1024.0,1024.0,1024.0,1024.0,1024.0,1022.0,1023.0,1025.0,1025.0,1024.0,1023.0,1024.0,1024.0,1024.0,1024.0,1022.0,1023.0,1023.0,1024.0,1023.0,1023.0,1023.0,1024.0,1023.0,1021.0,1021.0,1024.0,1024.0,1024.0,1024.0,1024.0,1024.0,1023.0,1023.0,1023.0,1024.0,1023.0,1024.0,1024.0,1023.0,1023.0,1024.0,1025.0,1024.0,1024.0,1024.0,1024.0,1024.0,1023.0,1025.0,1024.0,1024.0,1024.0,1024.0,1025.0,1024.0,1024.0,1024.0,1024.0,1025.0,1024.0,1024.0,1025.0,1024.0,1025.0,1025.0,1024.0,1024.0,1027.0,1026.0,1027.0,1028.0,1026.0,1026.0,1029.0,1028.0,1029.0,1031.0,1027.0,1026.0,1030.0,1030.0,1030.0,1034.0,1029.0,1027.0,1031.0,1030.0,1029.0,1034.0,1030.0,1029.0,1034.0,1032.0,1031.0,1037.0,1033.0,1031.0,1035.0,1034.0,1031.0,1038.0,1032.0,1029.0,1031.0,1031.0,1029.0,1034.0,1031.0,1033.0,1033.0,1031.0,1030.0,1035.0,1031.0,1024.0,1023.0,1022.0,1023.0,1023.0,1022.0,1038.0,1039.0,1034.0,1033.0,1039.0,1035.0,1033.0,1036.0,1032.0,1034.0,1037.0,1034.0,1029.0,1032.0,1028.0,1029.0,1031.0,2005,2018,1909,	00:32:15.570,0.05615234375,0.0419921875,1.01708984375,-0.244140625,0.18310546875,0.06103515625,2.4005126953125,-3.14208984375,54.25048828125,463.0,-1598.0,-2577.0,0.88922119140625,0.031158447265625,-0.01483154296875,0.456146240234375,2.403225813897942,-3.143081955597496,49.63841532261496,0.9068544830886689,0.030535836527967906,-0.016087362240087145,0.4200282204396228,1,	00:32:15.572,0.0078125,0.07861328125,1.00537109375,-0.9765625,-1.220703125,-0.48828125,4.4439697265625,-0.4833984375,95.0482177734375,-367.0,-1319.0,-1938.0,-0.67462158203125,-0.029296875,-0.025726318359375,-0.73712158203125,4.441435802974677,-0.48591789524062867,96.40642034299015,-0.6658616623272032,-0.028984622527386802,-0.026063659405667575,-0.7450562555661041,1
1782117442.799911,0.088,1024.0,1023.0,1023.0,1023.0,1023.0,1023.0,1023.0,1024.0,1022.0,1023.0,1024.0,1023.0,1023.0,1023.0,1023.0,1023.0,1024.0,1024.0,1023.0,1023.0,1023.0,1023.0,1023.0,1023.0,1024.0,1024.0,1024.0,1024.0,1024.0,1023.0,1023.0,1022.0,1022.0,1024.0,1024.0,1024.0,1023.0,1024.0,1023.0,1023.0,1024.0,1023.0,1024.0,1024.0,1023.0,1023.0,1024.0,1023.0,1023.0,1022.0,1023.0,1023.0,1023.0,1024.0,1023.0,1023.0,1023.0,1023.0,1023.0,1022.0,1022.0,1023.0,1024.0,1023.0,1023.0,1023.0,1023.0,1023.0,1023.0,1022.0,1022.0,1023.0,1024.0,1024.0,1023.0,1023.0,1024.0,1023.0,1023.0,1022.0,1022.0,1023.0,1025.0,1024.0,1024.0,1023.0,1024.0,1024.0,1023.0,1023.0,1023.0,1023.0,1025.0,1025.0,1025.0,1024.0,1024.0,1024.0,1024.0,1024.0,1022.0,1023.0,1026.0,1025.0,1024.0,1024.0,1024.0,1024.0,1024.0,1023.0,1023.0,1024.0,1023.0,1024.0,1023.0,1023.0,1023.0,1023.0,1023.0,1021.0,1022.0,1024.0,1024.0,1024.0,1023.0,1024.0,1023.0,1023.0,1022.0,1023.0,1024.0,1023.0,1024.0,1024.0,1023.0,1023.0,1024.0,1024.0,1024.0,1024.0,1025.0,1024.0,1024.0,1024.0,1024.0,1024.0,1024.0,1024.0,1024.0,1025.0,1024.0,1025.0,1024.0,1024.0,1024.0,1024.0,1024.0,1025.0,1024.0,1025.0,1025.0,1024.0,1025.0,1027.0,1026.0,1027.0,1028.0,1027.0,1026.0,1029.0,1028.0,1029.0,1031.0,1028.0,1027.0,1030.0,1031.0,1030.0,1034.0,1029.0,1028.0,1030.0,1030.0,1029.0,1034.0,1030.0,1029.0,1034.0,1032.0,1030.0,1037.0,1033.0,1030.0,1035.0,1034.0,1031.0,1038.0,1033.0,1029.0,1031.0,1031.0,1029.0,1034.0,1031.0,1032.0,1032.0,1032.0,1029.0,1034.0,1031.0,1023.0,1023.0,1022.0,1023.0,1023.0,1022.0,1038.0,1039.0,1035.0,1033.0,1039.0,1036.0,1033.0,1036.0,1032.0,1033.0,1037.0,1035.0,1029.0,1032.0,1028.0,1030.0,1031.0,2005,2018,1909,	00:32:15.581,0.05517578125,0.041015625,1.01806640625,-0.244140625,0.18310546875,0.1220703125,2.318115234375,-3.1036376953125,54.2559814453125,463.0,-1596.0,-2572.0,0.889251708984375,0.03033447265625,-0.014892578125,0.456207275390625,2.3171998852393605,-3.1036193243785184,49.644263165557604,0.9068671544968757,0.029711558496157364,-0.016088695741103064,0.42005992579133195,1,	00:32:15.582,0.0087890625,0.07958984375,1.00439453125,-0.9765625,-1.220703125,-0.54931640625,4.5208740234375,-0.5108642578125,95.042724609375,-367.0,-1318.0,-1938.0,-0.674652099609375,-0.029937744140625,-0.026092529296875,-0.737060546875,4.522037842353146,-0.5116892692745455,96.39921448252483,-0.6658806928862855,-0.029622141533310005,-0.02643604911419257,-0.7450010515962329,1
1782117442.809799,0.098,1023.0,1023.0,1024.0,1023.0,1023.0,1023.0,1023.0,1024.0,1023.0,1023.0,1024.0,1024.0,1023.0,1023.0,1023.0,1024.0,1024.0,1023.0,1023.0,1023.0,1024.0,1023.0,1023.0,1023.0,1024.0,1024.0,1023.0,1023.0,1024.0,1023.0,1023.0,1023.0,1022.0,1024.0,1024.0,1023.0,1024.0,1023.0,1024.0,1024.0,1023.0,1023.0,1024.0,1024.0,1023.0,1023.0,1024.0,1023.0,1023.0,1022.0,1022.0,1023.0,1024.0,1024.0,1023.0,1023.0,1023.0,1023.0,1023.0,1022.0,1023.0,1023.0,1023.0,1024.0,1023.0,1023.0,1023.0,1023.0,1023.0,1022.0,1022.0,1023.0,1023.0,1024.0,1023.0,1023.0,1023.0,1024.0,1023.0,1022.0,1022.0,1023.0,1024.0,1024.0,1024.0,1023.0,1024.0,1023.0,1023.0,1023.0,1023.0,1023.0,1026.0,1024.0,1025.0,1024.0,1024.0,1024.0,1024.0,1025.0,1023.0,1023.0,1025.0,1025.0,1024.0,1024.0,1024.0,1024.0,1024.0,1024.0,1023.0,1023.0,1023.0,1023.0,1023.0,1023.0,1023.0,1022.0,1023.0,1021.0,1022.0,1024.0,1024.0,1023.0,1024.0,1024.0,1023.0,1024.0,1022.0,1024.0,1024.0,1023.0,1023.0,1023.0,1023.0,1023.0,1025.0,1024.0,1024.0,1025.0,1024.0,1024.0,1024.0,1024.0,1025.0,1024.0,1024.0,1025.0,1024.0,1024.0,1024.0,1024.0,1024.0,1024.0,1025.0,1024.0,1024.0,1025.0,1024.0,1025.0,1026.0,1024.0,1025.0,1027.0,1026.0,1026.0,1028.0,1027.0,1026.0,1029.0,1028.0,1028.0,1031.0,1028.0,1026.0,1030.0,1030.0,1029.0,1034.0,1029.0,1027.0,1031.0,1030.0,1029.0,1034.0,1030.0,1029.0,1034.0,1032.0,1030.0,1038.0,1032.0,1031.0,1035.0,1034.0,1030.0,1038.0,1033.0,1029.0,1032.0,1030.0,1029.0,1035.0,1031.0,1032.0,1033.0,1031.0,1029.0,1034.0,1031.0,1023.0,1023.0,1023.0,1023.0,1023.0,1022.0,1037.0,1038.0,1035.0,1033.0,1038.0,1036.0,1033.0,1036.0,1033.0,1034.0,1037.0,1035.0,1029.0,1032.0,1028.0,1030.0,1031.0,2005,2018,1909,	00:32:15.591,0.056640625,0.0419921875,1.017578125,-0.244140625,0.18310546875,0.06103515625,2.362060546875,-3.1805419921875,54.25048828125,463.0,-1597.0,-2576.0,0.88922119140625,0.030975341796875,-0.01531982421875,0.4561767578125,2.3604072308630775,-3.1810897225814947,49.64244534063823,0.9068398867979061,0.030336529957998497,-0.01654418903541665,0.42005643010389554,1,	00:32:15.592,0.0078125,0.078125,1.00439453125,-0.9765625,-1.220703125,-0.48828125,4.4439697265625,-0.46142578125,95.0372314453125,-366.0,-1319.0,-1936.0,-0.674713134765625,-0.029144287109375,-0.02587890625,-0.737060546875,4.444528108380551,-0.4620404369787569,96.3939557754591,-0.6659485155715236,-0.028850240973948185,-0.026219423118388745,-0.7449783755621153,1
1782117442.820192,0.108,1024.0,1024.0,1023.0,1023.0,1023.0,1023.0,1023.0,1024.0,1022.0,1023.0,1024.0,1023.0,1023.0,1023.0,1023.0,1023.0,1024.0,1024.0,1023.0,1024.0,1023.0,1023.0,1023.0,1023.0,1024.0,1024.0,1023.0,1023.0,1023.0,1023.0,1023.0,1023.0,1022.0,1024.0,1024.0,1024.0,1024.0,1024.0,1023.0,1023.0,1023.0,1023.0,1023.0,1024.0,1023.0,1023.0,1024.0,1023.0,1023.0,1022.0,1022.0,1023.0,1024.0,1024.0,1022.0,1023.0,1024.0,1023.0,1023.0,1022.0,1022.0,1023.0,1023.0,1024.0,1023.0,1023.0,1024.0,1022.0,1023.0,1022.0,1022.0,1023.0,1024.0,1024.0,1023.0,1023.0,1024.0,1023.0,1023.0,1022.0,1022.0,1023.0,1025.0,1024.0,1024.0,1023.0,1024.0,1023.0,1024.0,1023.0,1023.0,1023.0,1026.0,1025.0,1024.0,1024.0,1024.0,1024.0,1024.0,1024.0,1023.0,1023.0,1026.0,1025.0,1024.0,1024.0,1024.0,1024.0,1024.0,1024.0,1023.0,1023.0,1024.0,1023.0,1022.0,1023.0,1024.0,1022.0,1023.0,1021.0,1022.0,1024.0,1024.0,1023.0,1024.0,1024.0,1024.0,1023.0,1023.0,1024.0,1024.0,1023.0,1024.0,1023.0,1023.0,1023.0,1024.0,1025.0,1023.0,1024.0,1024.0,1024.0,1024.0,1024.0,1024.0,1024.0,1024.0,1024.0,1024.0,1025.0,1024.0,1024.0,1024.0,1024.0,1025.0,1024.0,1024.0,1025.0,1024.0,1025.0,1026.0,1024.0,1025.0,1027.0,1026.0,1027.0,1028.0,1026.0,1026.0,1029.0,1028.0,1028.0,1031.0,1028.0,1027.0,1029.0,1030.0,1029.0,1034.0,1029.0,1027.0,1031.0,1030.0,1029.0,1034.0,1030.0,1029.0,1033.0,1032.0,1030.0,1038.0,1032.0,1031.0,1035.0,1034.0,1030.0,1039.0,1033.0,1030.0,1031.0,1031.0,1029.0,1035.0,1031.0,1033.0,1033.0,1031.0,1029.0,1034.0,1030.0,1024.0,1023.0,1022.0,1023.0,1023.0,1022.0,1037.0,1039.0,1034.0,1032.0,1039.0,1036.0,1032.0,1036.0,1033.0,1034.0,1037.0,1035.0,1029.0,1032.0,1028.0,1030.0,1031.0,2005,2018,1909,	00:32:15.601,0.0556640625,0.04248046875,1.017578125,-0.18310546875,0.244140625,0.06103515625,2.406005859375,-3.09814453125,54.25048828125,463.0,-1599.0,-2574.0,0.88922119140625,0.030975341796875,-0.014495849609375,0.4561767578125,2.4040103667044495,-3.09907503430248,49.64066456949012,0.9068589000907956,0.030381448329613703,-0.015735441699635554,0.4200432106319835,1,	00:32:15.603,0.00830078125,0.07861328125,1.00390625,-0.91552734375,-1.220703125,-0.48828125,4.5208740234375,-0.4998779296875,95.03173828125,-367.0,-1318.0,-1935.0,-0.674713134765625,-0.029876708984375,-0.026153564453125,-0.73699951171875,4.5227154513875405,-0.5009321508273304,96.38741135416221,-0.6659602878172352,-0.029558894777889214,-0.026499943140797125,-0.7449301442440288,1
1782117442.830921,0.119,1023.0,1023.0,1024.0,1023.0,1023.0,1023.0,1023.0,1023.0,1023.0,1024.0,1024.0,1023.0,1023.0,1024.0,1023.0,1023.0,1024.0,1024.0,1023.0,1023.0,1023.0,1023.0,1023.0,1022.0,1024.0,1024.0,1023.0,1023.0,1024.0,1023.0,1023.0,1023.0,1022.0,1024.0,1024.0,1023.0,1024.0,1024.0,1024.0,1023.0,1024.0,1023.0,1024.0,1024.0,1023.0,1023.0,1023.0,1023.0,1023.0,1022.0,1022.0,1023.0,1023.0,1024.0,1023.0,1024.0,1024.0,1024.0,1023.0,1022.0,1022.0,1023.0,1023.0,1023.0,1022.0,1023.0,1023.0,1023.0,1023.0,1022.0,1022.0,1023.0,1024.0,1023.0,1023.0,1024.0,1024.0,1023.0,1023.0,1022.0,1022.0,1023.0,1024.0,1024.0,1023.0,1024.0,1023.0,1023.0,1024.0,1023.0,1022.0,1023.0,1026.0,1025.0,1024.0,1024.0,1024.0,1024.0,1024.0,1025.0,1023.0,1023.0,1026.0,1025.0,1024.0,1024.0,1024.0,1024.0,1024.0,1023.0,1022.0,1023.0,1023.0,1024.0,1022.0,1023.0,1023.0,1023.0,1023.0,1021.0,1022.0,1024.0,1024.0,1024.0,1024.0,1024.0,1023.0,1023.0,1022.0,1024.0,1024.0,1023.0,1024.0,1024.0,1023.0,1023.0,1024.0,1024.0,1024.0,1024.0,1024.0,1024.0,1024.0,1024.0,1024.0,1024.0,1025.0,1025.0,1024.0,1025.0,1024.0,1024.0,1024.0,1024.0,1025.0,1024.0,1024.0,1025.0,1024.0,1025.0,1025.0,1025.0,1025.0,1027.0,1026.0,1027.0,1028.0,1027.0,1025.0,1028.0,1028.0,1029.0,1031.0,1028.0,1026.0,1030.0,1030.0,1029.0,1034.0,1029.0,1027.0,1031.0,1031.0,1029.0,1034.0,1030.0,1029.0,1033.0,1033.0,1031.0,1039.0,1033.0,1031.0,1035.0,1034.0,1031.0,1039.0,1033.0,1029.0,1032.0,1030.0,1029.0,1035.0,1031.0,1032.0,1032.0,1031.0,1030.0,1035.0,1031.0,1023.0,1023.0,1022.0,1023.0,1024.0,1022.0,1037.0,1039.0,1034.0,1033.0,1039.0,1035.0,1032.0,1036.0,1032.0,1034.0,1038.0,1035.0,1028.0,1032.0,1028.0,1030.0,1031.0,2004,2018,1909,	00:32:15.612,0.05517578125,0.04248046875,1.01806640625,-0.18310546875,0.18310546875,0.06103515625,2.3126220703125,-3.09814453125,54.2559814453125,463.0,-1596.0,-2570.0,0.88922119140625,0.0302734375,-0.014892578125,0.456207275390625,2.310447050306412,-3.1000049281998043,49.64631025565331,0.9068624411526954,0.029645186394111223,-0.01608430156735081,0.4200749587791719,1,	00:32:15.613,0.00830078125,0.0791015625,1.005859375,-1.0986328125,-1.220703125,-0.48828125,4.449462890625,-0.4449462890625,95.0262451171875,-368.0,-1319.0,-1933.0,-0.6748046875,-0.029083251953125,-0.026031494140625,-0.736968994140625,4.451101313970547,-0.4442034480643446,96.38207571910843,-0.6660290055383352,-0.028775245574371083,-0.02636286884879866,-0.7449042543641511,1
1782117442.840531,0.128,1024.0,1023.0,1024.0,1024.0,1023.0,1023.0,1024.0,1023.0,1023.0,1023.0,1024.0,1023.0,1023.0,1023.0,1023.0,1023.0,1024.0,1023.0,1023.0,1023.0,1023.0,1023.0,1023.0,1022.0,1024.0,1024.0,1023.0,1023.0,1023.0,1023.0,1023.0,1023.0,1022.0,1024.0,1024.0,1024.0,1024.0,1023.0,1023.0,1023.0,1023.0,1023.0,1024.0,1024.0,1023.0,1023.0,1024.0,1022.0,1023.0,1022.0,1022.0,1023.0,1024.0,1024.0,1023.0,1024.0,1023.0,1023.0,1023.0,1022.0,1023.0,1023.0,1023.0,1024.0,1023.0,1023.0,1023.0,1023.0,1023.0,1022.0,1022.0,1023.0,1024.0,1024.0,1023.0,1023.0,1024.0,1022.0,1023.0,1022.0,1022.0,1023.0,1024.0,1024.0,1023.0,1024.0,1024.0,1024.0,1024.0,1023.0,1022.0,1023.0,1026.0,1025.0,1024.0,1024.0,1024.0,1024.0,1024.0,1025.0,1024.0,1023.0,1026.0,1025.0,1024.0,1024.0,1024.0,1024.0,1024.0,1024.0,1023.0,1023.0,1023.0,1024.0,1022.0,1023.0,1023.0,1022.0,1023.0,1021.0,1022.0,1024.0,1024.0,1023.0,1024.0,1024.0,1023.0,1023.0,1022.0,1024.0,1024.0,1023.0,1023.0,1024.0,1023.0,1024.0,1024.0,1025.0,1024.0,1024.0,1024.0,1024.0,1024.0,1024.0,1025.0,1024.0,1024.0,1024.0,1024.0,1025.0,1025.0,1025.0,1024.0,1024.0,1025.0,1024.0,1024.0,1025.0,1024.0,1025.0,1026.0,1024.0,1025.0,1026.0,1027.0,1027.0,1028.0,1026.0,1026.0,1028.0,1028.0,1029.0,1031.0,1028.0,1027.0,1030.0,1031.0,1029.0,1035.0,1029.0,1027.0,1031.0,1030.0,1029.0,1035.0,1030.0,1029.0,1033.0,1032.0,1031.0,1039.0,1032.0,1031.0,1034.0,1034.0,1031.0,1040.0,1032.0,1030.0,1032.0,1031.0,1029.0,1035.0,1031.0,1032.0,1032.0,1032.0,1029.0,1035.0,1031.0,1024.0,1023.0,1022.0,1023.0,1024.0,1022.0,1037.0,1038.0,1034.0,1032.0,1039.0,1036.0,1032.0,1036.0,1033.0,1033.0,1038.0,1034.0,1029.0,1032.0,1028.0,1030.0,1031.0,2004,2018,1909,	00:32:15.622,0.05712890625,0.04248046875,1.01708984375,-0.244140625,0.18310546875,0.06103515625,2.362060546875,-3.1695556640625,54.2559814453125,463.0,-1597.0,-2573.0,0.88922119140625,0.03094482421875,-0.015228271484375,0.456207275390625,2.3616648355904553,-3.172297458514092,49.64405880334121,0.9068362326587955,0.030314564026596234,-0.016469536266879914,0.42006883807327866,1,	00:32:15.623,0.00830078125,0.07861328125,1.00390625,-0.91552734375,-1.220703125,-0.48828125,4.50439453125,-0.5218505859375,95.020751953125,-367.0,-1319.0,-1940.0,-0.6748046875,-0.0299072265625,-0.025909423828125,-0.7369384765625,4.504724833812783,-0.5226212773427873,96.37573731621679,-0.6660346998214008,-0.029597967232595012,-0.02625387694089242,-0.7448707759840543,1
1782117442.850574,0.138,1023.0,1022.0,1024.0,1023.0,1023.0,1023.0,1023.0,1023.0,1023.0,1024.0,1023.0,1023.0,1024.0,1023.0,1023.0,1023.0,1023.0,1024.0,1023.0,1024.0,1024.0,1023.0,1023.0,1022.0,1024.0,1024.0,1024.0,1023.0,1023.0,1023.0,1024.0,1023.0,1022.0,1024.0,1024.0,1024.0,1024.0,1024.0,1023.0,1023.0,1023.0,1023.0,1024.0,1024.0,1023.0,1024.0,1024.0,1023.0,1023.0,1022.0,1022.0,1024.0,1023.0,1024.0,1023.0,1023.0,1023.0,1023.0,1023.0,1022.0,1022.0,1024.0,1023.0,1023.0,1023.0,1023.0,1024.0,1023.0,1023.0,1022.0,1022.0,1023.0,1023.0,1024.0,1023.0,1024.0,1023.0,1023.0,1023.0,1022.0,1023.0,1023.0,1024.0,1024.0,1024.0,1023.0,1024.0,1023.0,1023.0,1023.0,1023.0,1024.0,1026.0,1025.0,1024.0,1024.0,1024.0,1024.0,1024.0,1024.0,1023.0,1024.0,1024.0,1025.0,1024.0,1024.0,1024.0,1024.0,1024.0,1024.0,1023.0,1023.0,1023.0,1024.0,1023.0,1023.0,1024.0,1023.0,1023.0,1021.0,1022.0,1024.0,1024.0,1024.0,1024.0,1024.0,1023.0,1023.0,1022.0,1023.0,1024.0,1023.0,1024.0,1023.0,1023.0,1023.0,1025.0,1025.0,1024.0,1024.0,1025.0,1024.0,1025.0,1024.0,1024.0,1024.0,1024.0,1024.0,1024.0,1024.0,1024.0,1024.0,1024.0,1024.0,1024.0,1024.0,1024.0,1025.0,1024.0,1025.0,1025.0,1024.0,1025.0,1027.0,1026.0,1027.0,1028.0,1026.0,1026.0,1029.0,1028.0,1028.0,1031.0,1028.0,1026.0,1030.0,1031.0,1029.0,1035.0,1029.0,1027.0,1030.0,1031.0,1030.0,1035.0,1030.0,1029.0,1033.0,1033.0,1031.0,1038.0,1032.0,1031.0,1034.0,1034.0,1030.0,1039.0,1033.0,1029.0,1032.0,1031.0,1029.0,1035.0,1030.0,1032.0,1032.0,1032.0,1029.0,1035.0,1030.0,1024.0,1023.0,1022.0,1023.0,1024.0,1022.0,1037.0,1038.0,1034.0,1032.0,1039.0,1036.0,1033.0,1036.0,1032.0,1033.0,1037.0,1035.0,1029.0,1032.0,1028.0,1030.0,1032.0,2004,2017,1909,	00:32:15.632,0.05517578125,0.04150390625,1.01708984375,-0.244140625,0.18310546875,0.06103515625,2.3291015625,-3.0816650390625,54.2559814453125,462.0,-1598.0,-2577.0,0.88922119140625,0.03033447265625,-0.014678955078125,0.456207275390625,2.328383445992947,-3.0843387314730215,49.64642420692978,0.9068618849840768,0.029729854005001416,-0.015894476942261093,0.4200774011378143,1,	00:32:15.633,0.0078125,0.0791015625,1.00439453125,-1.03759765625,-1.220703125,-0.48828125,4.493408203125,-0.4449462890625,95.0152587890625,-367.0,-1319.0,-1938.0,-0.67486572265625,-0.029327392578125,-0.02630615234375,-0.736907958984375,4.492451907089064,-0.44275976168803693,96.36991977244817,-0.6660979942338682,-0.02900902538923086,-0.02663698388261433,-0.744823743991303,1
1782117442.863528,0.151,1023.0,1023.0,1024.0,1024.0,1023.0,1023.0,1023.0,1024.0,1023.0,1023.0,1024.0,1023.0,1023.0,1023.0,1023.0,1023.0,1024.0,1024.0,1023.0,1024.0,1024.0,1023.0,1023.0,1022.0,1024.0,1024.0,1023.0,1023.0,1024.0,1023.0,1023.0,1022.0,1023.0,1024.0,1024.0,1023.0,1023.0,1023.0,1024.0,1024.0,1024.0,1023.0,1024.0,1024.0,1022.0,1023.0,1024.0,1024.0,1023.0,1022.0,1022.0,1023.0,1024.0,1023.0,1023.0,1023.0,1023.0,1024.0,1023.0,1022.0,1022.0,1023.0,1024.0,1024.0,1023.0,1024.0,1024.0,1023.0,1023.0,1022.0,1023.0,1023.0,1023.0,1024.0,1023.0,1023.0,1023.0,1023.0,1023.0,1022.0,1023.0,1023.0,1024.0,1024.0,1024.0,1023.0,1023.0,1024.0,1023.0,1023.0,1023.0,1023.0,1025.0,1025.0,1024.0,1024.0,1024.0,1024.0,1024.0,1024.0,1023.0,1023.0,1025.0,1025.0,1024.0,1024.0,1024.0,1024.0,1024.0,1023.0,1023.0,1023.0,1023.0,1024.0,1023.0,1023.0,1023.0,1023.0,1023.0,1021.0,1022.0,1024.0,1024.0,1023.0,1024.0,1024.0,1023.0,1024.0,1023.0,1024.0,1024.0,1024.0,1024.0,1023.0,1023.0,1023.0,1024.0,1025.0,1024.0,1024.0,1024.0,1024.0,1025.0,1024.0,1024.0,1024.0,1025.0,1024.0,1024.0,1025.0,1024.0,1025.0,1024.0,1024.0,1025.0,1024.0,1024.0,1025.0,1024.0,1024.0,1025.0,1025.0,1024.0,1027.0,1026.0,1027.0,1028.0,1027.0,1025.0,1029.0,1028.0,1028.0,1031.0,1028.0,1027.0,1030.0,1031.0,1030.0,1035.0,1029.0,1027.0,1030.0,1030.0,1029.0,1034.0,1029.0,1029.0,1033.0,1033.0,1030.0,1038.0,1032.0,1031.0,1034.0,1034.0,1030.0,1038.0,1032.0,1030.0,1031.0,1031.0,1028.0,1034.0,1031.0,1032.0,1033.0,1032.0,1029.0,1035.0,1031.0,1023.0,1023.0,1022.0,1023.0,1024.0,1021.0,1037.0,1039.0,1034.0,1033.0,1039.0,1037.0,1032.0,1036.0,1032.0,1033.0,1038.0,1035.0,1028.0,1032.0,1028.0,1030.0,1032.0,2004,2017,1909,	00:32:15.643,0.05517578125,0.04248046875,1.01708984375,-0.18310546875,0.18310546875,0.06103515625,2.4169921875,-3.109130859375,54.25048828125,463.0,-1598.0,-2573.0,0.88922119140625,0.031097412109375,-0.0145263671875,0.4561767578125,2.4146277037809543,-3.10778924378127,49.64235083453622,0.9068473590107329,0.0304975679688096,-0.015765073220220936,0.42005860099468006,1,	00:32:15.644,0.00830078125,0.07763671875,1.00439453125,-0.9765625,-1.220703125,-0.54931640625,4.4000244140625,-0.4888916015625,95.009765625,-368.0,-1319.0,-1938.0,-0.674896240234375,-0.029052734375,-0.025421142578125,-0.73687744140625,4.397966926000243,-0.4888359497999001,96.36417982848016,-0.6661464085743259,-0.028760496736393474,-0.025753467343938283,-0.744821156446813,1
1782117442.872047,0.160,1024.0,1023.0,1023.0,1023.0,1023.0,1023.0,1023.0,1024.0,1022.0,1023.0,1023.0,1023.0,1023.0,1024.0,1023.0,1023.0,1024.0,1023.0,1023.0,1023.0,1023.0,1023.0,1023.0,1023.0,1024.0,1024.0,1024.0,1023.0,1023.0,1024.0,1024.0,1023.0,1022.0,1024.0,1024.0,1024.0,1023.0,1024.0,1024.0,1024.0,1023.0,1023.0,1023.0,1024.0,1023.0,1024.0,1024.0,1023.0,1023.0,1022.0,1023.0,1023.0,1024.0,1023.0,1023.0,1023.0,1023.0,1023.0,1023.0,1022.0,1022.0,1023.0,1023.0,1024.0,1022.0,1023.0,1024.0,1023.0,1023.0,1022.0,1022.0,1023.0,1023.0,1024.0,1023.0,1023.0,1023.0,1023.0,1023.0,1022.0,1023.0,1023.0,1024.0,1024.0,1024.0,1023.0,1023.0,1023.0,1024.0,1023.0,1022.0,1024.0,1026.0,1026.0,1024.0,1024.0,1024.0,1024.0,1024.0,1024.0,1023.0,1023.0,1025.0,1025.0,1024.0,1024.0,1024.0,1024.0,1024.0,1024.0,1023.0,1023.0,1023.0,1024.0,1023.0,1023.0,1023.0,1024.0,1023.0,1020.0,1022.0,1024.0,1024.0,1023.0,1024.0,1024.0,1023.0,1023.0,1023.0,1023.0,1024.0,1023.0,1024.0,1024.0,1023.0,1023.0,1024.0,1025.0,1024.0,1025.0,1024.0,1024.0,1024.0,1024.0,1025.0,1024.0,1024.0,1025.0,1024.0,1025.0,1024.0,1025.0,1024.0,1024.0,1025.0,1024.0,1024.0,1025.0,1024.0,1025.0,1026.0,1024.0,1024.0,1027.0,1026.0,1027.0,1028.0,1027.0,1025.0,1029.0,1028.0,1029.0,1031.0,1028.0,1026.0,1030.0,1030.0,1030.0,1035.0,1029.0,1026.0,1030.0,1031.0,1029.0,1035.0,1030.0,1028.0,1033.0,1033.0,1030.0,1039.0,1033.0,1030.0,1035.0,1035.0,1030.0,1039.0,1033.0,1029.0,1032.0,1031.0,1029.0,1036.0,1031.0,1031.0,1033.0,1032.0,1028.0,1035.0,1030.0,1023.0,1023.0,1022.0,1024.0,1024.0,1022.0,1036.0,1039.0,1035.0,1033.0,1040.0,1036.0,1032.0,1035.0,1033.0,1034.0,1038.0,1034.0,1028.0,1032.0,1028.0,1030.0,1032.0,2004,2017,1909,	00:32:15.653,0.05615234375,0.04296875,1.017578125,-0.18310546875,0.18310546875,0.06103515625,2.4169921875,-3.197021484375,54.25048828125,464.0,-1597.0,-2576.0,0.889190673828125,0.031494140625,-0.01519775390625,0.456207275390625,2.419114337673891,-3.1972861030703945,49.642690741201186,0.9068185053408896,0.030860371288426187,-0.016457159067533273,0.4200678490085637,1,	00:32:15.654,0.00830078125,0.0791015625,1.0048828125,-0.9765625,-1.220703125,-0.54931640625,4.4769287109375,-0.4833984375,94.998779296875,-366.0,-1316.0,-1937.0,-0.6749267578125,-0.029510498046875,-0.02593994140625,-0.73681640625,4.4784510534625,-0.48566676617686855,96.35699962026378,-0.6661735951740207,-0.029209417047497115,-0.026293190223571176,-0.744760511303152,1
1782117442.881629,0.169,1024.0,1023.0,1024.0,1023.0,1023.0,1023.0,1023.0,1023.0,1023.0,1024.0,1024.0,1023.0,1023.0,1024.0,1023.0,1023.0,1023.0,1024.0,1023.0,1024.0,1024.0,1023.0,1024.0,1023.0,1024.0,1024.0,1023.0,1024.0,1023.0,1024.0,1023.0,1024.0,1022.0,1024.0,1024.0,1024.0,1024.0,1024.0,1023.0,1023.0,1024.0,1023.0,1023.0,1024.0,1023.0,1023.0,1023.0,1023.0,1023.0,1022.0,1023.0,1023.0,1023.0,1024.0,1023.0,1023.0,1024.0,1023.0,1023.0,1022.0,1022.0,1023.0,1023.0,1023.0,1022.0,1023.0,1023.0,1023.0,1023.0,1022.0,1022.0,1023.0,1023.0,1024.0,1023.0,1023.0,1024.0,1023.0,1024.0,1022.0,1022.0,1023.0,1024.0,1024.0,1023.0,1024.0,1024.0,1023.0,1023.0,1023.0,1023.0,1023.0,1025.0,1026.0,1025.0,1024.0,1024.0,1024.0,1024.0,1024.0,1023.0,1023.0,1025.0,1026.0,1024.0,1024.0,1024.0,1024.0,1024.0,1024.0,1022.0,1023.0,1022.0,1024.0,1023.0,1023.0,1024.0,1023.0,1023.0,1020.0,1022.0,1023.0,1024.0,1023.0,1024.0,1024.0,1024.0,1024.0,1022.0,1023.0,1024.0,1023.0,1024.0,1024.0,1023.0,1023.0,1024.0,1025.0,1024.0,1024.0,1025.0,1024.0,1024.0,1024.0,1025.0,1024.0,1024.0,1025.0,1024.0,1025.0,1023.0,1025.0,1024.0,1024.0,1024.0,1024.0,1024.0,1025.0,1024.0,1024.0,1025.0,1024.0,1025.0,1027.0,1026.0,1027.0,1029.0,1026.0,1025.0,1029.0,1028.0,1028.0,1031.0,1028.0,1026.0,1030.0,1031.0,1029.0,1035.0,1029.0,1026.0,1030.0,1031.0,1029.0,1034.0,1030.0,1028.0,1034.0,1033.0,1030.0,1038.0,1032.0,1031.0,1035.0,1034.0,1030.0,1038.0,1032.0,1029.0,1032.0,1031.0,1029.0,1035.0,1032.0,1032.0,1033.0,1031.0,1029.0,1035.0,1030.0,1023.0,1023.0,1023.0,1024.0,1024.0,1022.0,1036.0,1039.0,1034.0,1032.0,1040.0,1035.0,1032.0,1036.0,1032.0,1033.0,1037.0,1034.0,1029.0,1031.0,1028.0,1030.0,1032.0,2004,2017,1909,	00:32:15.663,0.05615234375,0.041015625,1.01708984375,-0.18310546875,0.18310546875,0.06103515625,2.3291015625,-3.1640625,54.2559814453125,462.0,-1596.0,-2575.0,0.889190673828125,0.030670166015625,-0.015289306640625,0.45623779296875,2.3310883432002125,-3.1642443330564,49.648158907181,0.906831621509897,0.030043733597667946,-0.016516784429230106,0.4200963938590302,1,	00:32:15.664,0.0078125,0.0771484375,1.0048828125,-0.9765625,-1.220703125,-0.48828125,4.383544921875,-0.4559326171875,94.998779296875,-367.0,-1318.0,-1934.0,-0.67498779296875,-0.02880859375,-0.0255126953125,-0.73681640625,4.386005433331091,-0.45853062320518423,96.3518573362405,-0.6662377668482921,-0.028496819119453582,-0.025848891669788352,-0.7447462682850566,1
1782117442.892617,0.180,1024.0,1023.0,1023.0,1024.0,1023.0,1023.0,1023.0,1023.0,1022.0,1023.0,1023.0,1023.0,1023.0,1023.0,1023.0,1023.0,1024.0,1024.0,1023.0,1024.0,1023.0,1023.0,1023.0,1022.0,1024.0,1024.0,1023.0,1023.0,1024.0,1023.0,1023.0,1023.0,1022.0,1024.0,1024.0,1024.0,1023.0,1024.0,1023.0,1024.0,1023.0,1023.0,1024.0,1023.0,1023.0,1024.0,1023.0,1023.0,1024.0,1022.0,1022.0,1023.0,1023.0,1024.0,1023.0,1023.0,1023.0,1023.0,1023.0,1022.0,1023.0,1023.0,1024.0,1024.0,1023.0,1023.0,1023.0,1023.0,1023.0,1022.0,1023.0,1023.0,1023.0,1023.0,1023.0,1022.0,1023.0,1023.0,1023.0,1022.0,1022.0,1023.0,1024.0,1024.0,1023.0,1024.0,1024.0,1023.0,1024.0,1023.0,1022.0,1023.0,1025.0,1025.0,1025.0,1024.0,1024.0,1024.0,1024.0,1024.0,1023.0,1023.0,1025.0,1025.0,1024.0,1024.0,1024.0,1024.0,1024.0,1024.0,1023.0,1024.0,1023.0,1024.0,1023.0,1023.0,1023.0,1023.0,1023.0,1021.0,1022.0,1024.0,1024.0,1023.0,1024.0,1024.0,1023.0,1023.0,1022.0,1023.0,1023.0,1023.0,1024.0,1023.0,1023.0,1023.0,1025.0,1025.0,1024.0,1024.0,1024.0,1023.0,1025.0,1024.0,1025.0,1024.0,1024.0,1025.0,1024.0,1025.0,1024.0,1024.0,1024.0,1024.0,1024.0,1024.0,1024.0,1025.0,1024.0,1025.0,1025.0,1024.0,1025.0,1027.0,1026.0,1026.0,1028.0,1026.0,1025.0,1029.0,1028.0,1028.0,1031.0,1028.0,1027.0,1030.0,1031.0,1029.0,1035.0,1029.0,1027.0,1030.0,1030.0,1029.0,1034.0,1029.0,1029.0,1034.0,1033.0,1030.0,1037.0,1032.0,1030.0,1035.0,1034.0,1030.0,1039.0,1033.0,1030.0,1032.0,1031.0,1028.0,1035.0,1031.0,1032.0,1033.0,1031.0,1028.0,1035.0,1031.0,1024.0,1023.0,1023.0,1023.0,1024.0,1022.0,1036.0,1039.0,1035.0,1032.0,1038.0,1036.0,1032.0,1035.0,1032.0,1033.0,1038.0,1035.0,1029.0,1032.0,1027.0,1030.0,1031.0,2004,2017,1909,	00:32:15.673,0.05615234375,0.041015625,1.01708984375,-0.18310546875,0.18310546875,0.1220703125,2.2412109375,-3.1365966796875,54.2669677734375,462.0,-1596.0,-2573.0,0.88922119140625,0.029876708984375,-0.015411376953125,0.456268310546875,2.2416574144574892,-3.1352415979169828,49.65426393070025,0.9068408004244752,0.02923081468071872,-0.01661344159474309,0.4201301176028404,1,	00:32:15.674,0.00732421875,0.07763671875,1.0048828125,-1.03759765625,-1.15966796875,-0.48828125,4.4329833984375,-0.3955078125,94.98779296875,-367.0,-1319.0,-1938.0,-0.675048828125,-0.028656005859375,-0.026153564453125,-0.73675537109375,4.430889017294124,-0.39663147611012545,96.34568434491024,-0.6662835747310454,-0.028357020283269647,-0.026499064314450718,-0.7446877715087931,1
1782117442.902154,0.190,1024.0,1023.0,1023.0,1024.0,1023.0,1022.0,1023.0,1023.0,1023.0,1024.0,1024.0,1024.0,1023.0,1024.0,1022.0,1023.0,1024.0,1024.0,1023.0,1023.0,1023.0,1023.0,1023.0,1022.0,1024.0,1024.0,1023.0,1023.0,1024.0,1023.0,1023.0,1022.0,1022.0,1024.0,1024.0,1024.0,1024.0,1024.0,1023.0,1024.0,1023.0,1022.0,1023.0,1024.0,1023.0,1024.0,1024.0,1023.0,1023.0,1022.0,1022.0,1023.0,1024.0,1024.0,1023.0,1023.0,1023.0,1023.0,1023.0,1022.0,1022.0,1023.0,1023.0,1024.0,1023.0,1024.0,1023.0,1022.0,1023.0,1022.0,1022.0,1023.0,1023.0,1023.0,1023.0,1023.0,1023.0,1023.0,1023.0,1022.0,1022.0,1023.0,1024.0,1024.0,1024.0,1024.0,1023.0,1023.0,1023.0,1023.0,1023.0,1023.0,1025.0,1025.0,1024.0,1024.0,1024.0,1024.0,1024.0,1025.0,1023.0,1023.0,1025.0,1026.0,1024.0,1024.0,1024.0,1024.0,1024.0,1023.0,1023.0,1024.0,1023.0,1024.0,1023.0,1024.0,1023.0,1023.0,1023.0,1021.0,1022.0,1024.0,1024.0,1023.0,1024.0,1024.0,1023.0,1024.0,1023.0,1024.0,1024.0,1023.0,1024.0,1024.0,1024.0,1023.0,1024.0,1025.0,1024.0,1024.0,1024.0,1024.0,1024.0,1024.0,1024.0,1024.0,1024.0,1024.0,1024.0,1025.0,1024.0,1024.0,1024.0,1024.0,1024.0,1024.0,1024.0,1024.0,1024.0,1025.0,1025.0,1024.0,1025.0,1026.0,1026.0,1027.0,1028.0,1027.0,1026.0,1029.0,1028.0,1029.0,1031.0,1028.0,1027.0,1030.0,1030.0,1029.0,1034.0,1029.0,1027.0,1030.0,1030.0,1029.0,1034.0,1029.0,1029.0,1033.0,1033.0,1030.0,1036.0,1033.0,1030.0,1035.0,1034.0,1030.0,1037.0,1033.0,1030.0,1032.0,1030.0,1029.0,1035.0,1032.0,1032.0,1032.0,1032.0,1029.0,1035.0,1031.0,1024.0,1023.0,1023.0,1023.0,1024.0,1022.0,1037.0,1038.0,1034.0,1032.0,1038.0,1036.0,1033.0,1035.0,1032.0,1033.0,1037.0,1035.0,1029.0,1031.0,1028.0,1029.0,1031.0,2004,2017,1908,	00:32:15.684,0.0556640625,0.0419921875,1.01708984375,-0.18310546875,0.18310546875,0.06103515625,2.3291015625,-3.131103515625,54.261474609375,463.0,-1596.0,-2571.0,0.889190673828125,0.030548095703125,-0.0150146484375,0.45623779296875,2.331449022113294,-3.1294728459514687,49.64993779420407,0.9068351565852812,0.029919674552794054,-0.016239686266188116,0.42010841986989406,1,	00:32:15.685,0.0078125,0.078125,1.00537109375,-1.03759765625,-1.220703125,-0.48828125,4.4439697265625,-0.494384765625,94.9822998046875,-366.0,-1317.0,-1938.0,-0.675048828125,-0.029388427734375,-0.025665283203125,-0.736724853515625,4.443995022600106,-0.4970157861916605,96.33969928233643,-0.6662916367614319,-0.029086771591387638,-0.02599885689512167,-0.7446700436705571,1
1782117442.913331,0.201,1024.0,1023.0,1023.0,1023.0,1023.0,1023.0,1023.0,1023.0,1023.0,1024.0,1024.0,1023.0,1023.0,1024.0,1023.0,1024.0,1024.0,1024.0,1023.0,1023.0,1023.0,1023.0,1023.0,1022.0,1024.0,1024.0,1023.0,1024.0,1023.0,1023.0,1023.0,1022.0,1022.0,1024.0,1024.0,1023.0,1024.0,1024.0,1024.0,1024.0,1023.0,1023.0,1024.0,1024.0,1023.0,1023.0,1023.0,1023.0,1024.0,1022.0,1022.0,1023.0,1024.0,1024.0,1023.0,1023.0,1023.0,1023.0,1023.0,1022.0,1022.0,1023.0,1023.0,1023.0,1022.0,1023.0,1023.0,1023.0,1023.0,1022.0,1022.0,1023.0,1024.0,1023.0,1023.0,1023.0,1024.0,1023.0,1023.0,1022.0,1022.0,1023.0,1024.0,1024.0,1024.0,1023.0,1023.0,1023.0,1024.0,1023.0,1023.0,1023.0,1026.0,1025.0,1024.0,1024.0,1024.0,1024.0,1024.0,1024.0,1023.0,1023.0,1025.0,1025.0,1024.0,1024.0,1024.0,1024.0,1024.0,1024.0,1023.0,1023.0,1023.0,1023.0,1022.0,1024.0,1023.0,1023.0,1023.0,1020.0,1022.0,1024.0,1024.0,1024.0,1024.0,1024.0,1023.0,1024.0,1022.0,1024.0,1024.0,1023.0,1023.0,1023.0,1023.0,1023.0,1024.0,1025.0,1024.0,1024.0,1024.0,1023.0,1024.0,1024.0,1025.0,1024.0,1024.0,1024.0,1024.0,1025.0,1024.0,1024.0,1024.0,1024.0,1024.0,1024.0,1024.0,1025.0,1024.0,1025.0,1025.0,1024.0,1025.0,1027.0,1026.0,1027.0,1029.0,1027.0,1025.0,1028.0,1028.0,1029.0,1031.0,1028.0,1027.0,1030.0,1031.0,1029.0,1034.0,1029.0,1027.0,1030.0,1031.0,1029.0,1034.0,1030.0,1029.0,1033.0,1033.0,1030.0,1037.0,1033.0,1031.0,1035.0,1034.0,1031.0,1038.0,1033.0,1031.0,1031.0,1030.0,1029.0,1035.0,1031.0,1032.0,1032.0,1032.0,1029.0,1035.0,1030.0,1023.0,1023.0,1022.0,1023.0,1024.0,1022.0,1038.0,1039.0,1035.0,1033.0,1038.0,1036.0,1032.0,1035.0,1033.0,1033.0,1037.0,1034.0,1029.0,1031.0,1028.0,1030.0,1031.0,2004,2017,1909,	00:32:15.694,0.0556640625,0.0419921875,1.017578125,-0.244140625,0.18310546875,0.06103515625,2.4224853515625,-3.1256103515625,54.2559814453125,463.0,-1593.0,-2573.0,0.889190673828125,0.031219482421875,-0.014617919921875,0.456207275390625,2.420659258613626,-3.1246834554404908,49.645621324818464,0.9068288190307698,0.030607528834782773,-0.015875856589191994,0.42008645459172617,1,	00:32:15.695,0.00830078125,0.078125,1.00537109375,-1.03759765625,-1.220703125,-0.48828125,4.4329833984375,-0.41748046875,94.976806640625,-367.0,-1317.0,-1933.0,-0.67510986328125,-0.02880859375,-0.026031494140625,-0.7366943359375,4.431479940292648,-0.4171656048810857,96.33389529711047,-0.6663544515031284,-0.028496581483276273,-0.026380542739087437,-0.7446232314201074,1
1782117442.922830,0.211,1023.0,1023.0,1024.0,1023.0,1023.0,1022.0,1023.0,1024.0,1022.0,1024.0,1024.0,1023.0,1024.0,1023.0,1023.0,1023.0,1024.0,1024.0,1023.0,1023.0,1023.0,1023.0,1023.0,1023.0,1024.0,1024.0,1024.0,1023.0,1024.0,1023.0,1023.0,1023.0,1022.0,1024.0,1024.0,1024.0,1024.0,1024.0,1024.0,1023.0,1024.0,1023.0,1024.0,1024.0,1023.0,1022.0,1024.0,1023.0,1023.0,1022.0,1022.0,1023.0,1023.0,1023.0,1023.0,1024.0,1023.0,1023.0,1023.0,1022.0,1022.0,1023.0,1024.0,1024.0,1022.0,1023.0,1023.0,1024.0,1023.0,1022.0,1023.0,1023.0,1023.0,1023.0,1023.0,1023.0,1024.0,1023.0,1023.0,1022.0,1023.0,1023.0,1024.0,1024.0,1024.0,1023.0,1024.0,1023.0,1023.0,1023.0,1022.0,1023.0,1026.0,1025.0,1024.0,1024.0,1024.0,1024.0,1024.0,1024.0,1023.0,1024.0,1025.0,1025.0,1024.0,1024.0,1024.0,1024.0,1024.0,1024.0,1023.0,1023.0,1023.0,1024.0,1022.0,1023.0,1023.0,1023.0,1023.0,1021.0,1022.0,1024.0,1024.0,1023.0,1023.0,1024.0,1023.0,1024.0,1023.0,1024.0,1024.0,1023.0,1024.0,1024.0,1023.0,1023.0,1024.0,1025.0,1025.0,1024.0,1024.0,1024.0,1025.0,1024.0,1024.0,1024.0,1025.0,1025.0,1024.0,1024.0,1024.0,1024.0,1024.0,1024.0,1024.0,1024.0,1023.0,1025.0,1024.0,1024.0,1025.0,1025.0,1024.0,1027.0,1026.0,1027.0,1029.0,1027.0,1025.0,1029.0,1029.0,1029.0,1031.0,1028.0,1027.0,1030.0,1030.0,1029.0,1034.0,1029.0,1027.0,1030.0,1031.0,1029.0,1034.0,1030.0,1028.0,1033.0,1034.0,1030.0,1037.0,1032.0,1031.0,1034.0,1034.0,1031.0,1038.0,1033.0,1030.0,1031.0,1032.0,1029.0,1034.0,1031.0,1032.0,1033.0,1032.0,1030.0,1035.0,1031.0,1024.0,1023.0,1022.0,1023.0,1024.0,1022.0,1038.0,1038.0,1035.0,1033.0,1039.0,1036.0,1032.0,1035.0,1033.0,1034.0,1037.0,1034.0,1029.0,1032.0,1028.0,1030.0,1031.0,2004,2017,1909,	00:32:15.704,0.05615234375,0.041015625,1.01708984375,-0.244140625,0.18310546875,0.06103515625,2.3291015625,-3.1475830078125,54.261474609375,462.0,-1598.0,-2577.0,0.889190673828125,0.030609130859375,-0.015167236328125,0.45623779296875,2.330141920203957,-3.1487922650794693,49.65112740376299,0.9068255074669864,0.029980158133885822,-0.016397132202806128,0.4201188203128175,1,	00:32:15.705,0.00830078125,0.0791015625,1.0048828125,-1.03759765625,-1.220703125,-0.48828125,4.493408203125,-0.4833984375,94.9713134765625,-367.0,-1318.0,-1935.0,-0.67510986328125,-0.02960205078125,-0.026031494140625,-0.736663818359375,4.49301794743095,-0.4855493917733966,96.32752402643405,-0.6663614561854251,-0.029300125043322075,-0.026381010870209876,-0.7445857604388842,1
1782117442.932478,0.220,1024.0,1023.0,1024.0,1023.0,1023.0,1023.0,1023.0,1023.0,1023.0,1024.0,1024.0,1023.0,1023.0,1024.0,1023.0,1023.0,1024.0,1024.0,1023.0,1024.0,1023.0,1023.0,1023.0,1022.0,1024.0,1024.0,1023.0,1023.0,1023.0,1023.0,1023.0,1023.0,1023.0,1024.0,1024.0,1024.0,1023.0,1024.0,1024.0,1023.0,1024.0,1023.0,1024.0,1024.0,1023.0,1024.0,1023.0,1023.0,1023.0,1022.0,1022.0,1023.0,1023.0,1024.0,1023.0,1024.0,1024.0,1023.0,1024.0,1022.0,1022.0,1023.0,1024.0,1023.0,1023.0,1023.0,1023.0,1023.0,1023.0,1022.0,1023.0,1023.0,1024.0,1024.0,1023.0,1023.0,1023.0,1023.0,1022.0,1022.0,1022.0,1023.0,1024.0,1024.0,1024.0,1023.0,1024.0,1023.0,1024.0,1023.0,1022.0,1023.0,1025.0,1025.0,1024.0,1024.0,1024.0,1024.0,1024.0,1025.0,1023.0,1024.0,1025.0,1025.0,1024.0,1024.0,1024.0,1024.0,1024.0,1024.0,1023.0,1023.0,1023.0,1024.0,1023.0,1023.0,1024.0,1023.0,1023.0,1021.0,1022.0,1024.0,1024.0,1023.0,1023.0,1024.0,1023.0,1023.0,1022.0,1023.0,1023.0,1023.0,1023.0,1023.0,1023.0,1024.0,1024.0,1025.0,1024.0,1024.0,1025.0,1024.0,1024.0,1024.0,1024.0,1024.0,1024.0,1024.0,1024.0,1025.0,1024.0,1025.0,1024.0,1024.0,1025.0,1024.0,1024.0,1025.0,1025.0,1026.0,1025.0,1024.0,1025.0,1027.0,1026.0,1027.0,1028.0,1027.0,1026.0,1028.0,1029.0,1029.0,1031.0,1028.0,1026.0,1030.0,1031.0,1029.0,1034.0,1029.0,1028.0,1030.0,1031.0,1029.0,1034.0,1030.0,1028.0,1033.0,1033.0,1030.0,1037.0,1033.0,1031.0,1034.0,1034.0,1030.0,1038.0,1033.0,1030.0,1031.0,1032.0,1028.0,1035.0,1031.0,1032.0,1033.0,1032.0,1028.0,1034.0,1031.0,1023.0,1023.0,1023.0,1023.0,1024.0,1022.0,1038.0,1038.0,1035.0,1032.0,1039.0,1036.0,1033.0,1035.0,1032.0,1033.0,1038.0,1035.0,1029.0,1032.0,1028.0,1029.0,1031.0,2004,2017,1909,	00:32:15.714,0.05517578125,0.04248046875,1.017578125,-0.244140625,0.18310546875,0.1220703125,2.4005126953125,-3.0926513671875,54.2559814453125,463.0,-1597.0,-2573.0,0.889190673828125,0.030914306640625,-0.014434814453125,0.45623779296875,2.399570743879511,-3.0900586516366784,49.648507353771535,0.9068339454180067,0.030314417622270558,-0.015678248985941296,0.42010406333498973,1,	00:32:15.715,0.00830078125,0.078125,1.0048828125,-1.03759765625,-1.15966796875,-0.54931640625,4.39453125,-0.472412109375,94.9658203125,-366.0,-1316.0,-1936.0,-0.675201416015625,-0.0289306640625,-0.025482177734375,-0.73663330078125,4.394868521046321,-0.4713521318202883,96.32187077788994,-0.6664269253595956,-0.028638413432589,-0.02582443071555782,-0.7445724230792042,1
1782117442.943760,0.231,1024.0,1023.0,1023.0,1023.0,1023.0,1023.0,1023.0,1024.0,1023.0,1023.0,1024.0,1023.0,1023.0,1023.0,1023.0,1023.0,1023.0,1024.0,1023.0,1023.0,1023.0,1023.0,1023.0,1023.0,1024.0,1024.0,1024.0,1023.0,1024.0,1023.0,1023.0,1023.0,1023.0,1024.0,1024.0,1024.0,1024.0,1023.0,1024.0,1023.0,1023.0,1023.0,1024.0,1024.0,1023.0,1023.0,1023.0,1023.0,1023.0,1022.0,1022.0,1024.0,1023.0,1024.0,1023.0,1023.0,1023.0,1023.0,1023.0,1022.0,1022.0,1023.0,1023.0,1023.0,1022.0,1023.0,1023.0,1023.0,1023.0,1022.0,1022.0,1023.0,1023.0,1024.0,1023.0,1023.0,1024.0,1023.0,1023.0,1022.0,1023.0,1023.0,1024.0,1023.0,1023.0,1023.0,1023.0,1023.0,1024.0,1023.0,1022.0,1023.0,1025.0,1025.0,1024.0,1024.0,1024.0,1024.0,1024.0,1024.0,1023.0,1024.0,1025.0,1025.0,1024.0,1024.0,1024.0,1024.0,1024.0,1024.0,1023.0,1023.0,1023.0,1024.0,1022.0,1023.0,1023.0,1023.0,1023.0,1021.0,1022.0,1024.0,1024.0,1023.0,1024.0,1024.0,1023.0,1023.0,1022.0,1024.0,1024.0,1023.0,1023.0,1024.0,1023.0,1023.0,1024.0,1024.0,1024.0,1025.0,1024.0,1024.0,1024.0,1024.0,1024.0,1024.0,1024.0,1025.0,1024.0,1025.0,1024.0,1024.0,1024.0,1024.0,1024.0,1024.0,1024.0,1025.0,1024.0,1024.0,1025.0,1025.0,1024.0,1027.0,1027.0,1027.0,1028.0,1027.0,1026.0,1029.0,1029.0,1028.0,1031.0,1028.0,1027.0,1029.0,1031.0,1029.0,1035.0,1029.0,1027.0,1031.0,1031.0,1029.0,1034.0,1031.0,1029.0,1033.0,1034.0,1030.0,1038.0,1032.0,1031.0,1035.0,1034.0,1030.0,1038.0,1032.0,1030.0,1031.0,1031.0,1028.0,1035.0,1031.0,1033.0,1033.0,1032.0,1028.0,1034.0,1031.0,1024.0,1023.0,1022.0,1023.0,1024.0,1022.0,1037.0,1038.0,1035.0,1032.0,1040.0,1036.0,1033.0,1035.0,1033.0,1033.0,1038.0,1034.0,1029.0,1031.0,1028.0,1029.0,1031.0,2004,2017,1909,	00:32:15.724,0.0546875,0.04150390625,1.01708984375,-0.244140625,0.244140625,0.1220703125,2.30712890625,-3.065185546875,54.2669677734375,462.0,-1595.0,-2576.0,0.88922119140625,0.030120849609375,-0.014617919921875,0.456268310546875,2.3078478360880803,-3.066563275013814,49.65462132323165,0.9068422349419452,0.029503459992886026,-0.015826902927739445,0.420138329503108,1,	00:32:15.725,0.00830078125,0.07861328125,1.00439453125,-1.03759765625,-1.220703125,-0.48828125,4.4769287109375,-0.4833984375,94.9603271484375,-367.0,-1318.0,-1936.0,-0.675201416015625,-0.029510498046875,-0.02593994140625,-0.736572265625,4.475940423858316,-0.48395284494979257,96.31530624232035,-0.6664456445431713,-0.029193248019957044,-0.026276220459700492,-0.7445183123186667,1
1782117442.952812,0.241,1024.0,1023.0,1024.0,1023.0,1023.0,1023.0,1023.0,1024.0,1023.0,1024.0,1024.0,1023.0,1023.0,1023.0,1023.0,1023.0,1024.0,1024.0,1023.0,1023.0,1023.0,1023.0,1023.0,1023.0,1024.0,1024.0,1024.0,1024.0,1023.0,1023.0,1023.0,1023.0,1023.0,1024.0,1024.0,1024.0,1023.0,1024.0,1024.0,1024.0,1023.0,1022.0,1024.0,1023.0,1023.0,1023.0,1024.0,1023.0,1023.0,1022.0,1022.0,1023.0,1023.0,1024.0,1023.0,1023.0,1024.0,1023.0,1023.0,1022.0,1023.0,1023.0,1023.0,1023.0,1023.0,1024.0,1024.0,1023.0,1023.0,1021.0,1023.0,1023.0,1023.0,1024.0,1024.0,1024.0,1023.0,1023.0,1023.0,1022.0,1023.0,1023.0,1024.0,1024.0,1023.0,1024.0,1023.0,1023.0,1023.0,1023.0,1023.0,1022.0,1025.0,1026.0,1025.0,1024.0,1024.0,1024.0,1024.0,1024.0,1023.0,1023.0,1025.0,1025.0,1024.0,1024.0,1025.0,1024.0,1024.0,1023.0,1023.0,1023.0,1023.0,1024.0,1023.0,1023.0,1024.0,1023.0,1022.0,1021.0,1022.0,1024.0,1024.0,1023.0,1024.0,1024.0,1023.0,1024.0,1023.0,1024.0,1024.0,1023.0,1023.0,1024.0,1023.0,1023.0,1024.0,1024.0,1024.0,1024.0,1024.0,1024.0,1024.0,1024.0,1024.0,1024.0,1024.0,1025.0,1024.0,1025.0,1024.0,1024.0,1024.0,1025.0,1025.0,1024.0,1024.0,1025.0,1024.0,1025.0,1025.0,1024.0,1024.0,1027.0,1026.0,1026.0,1028.0,1027.0,1025.0,1029.0,1028.0,1028.0,1031.0,1028.0,1026.0,1030.0,1031.0,1029.0,1034.0,1029.0,1027.0,1031.0,1031.0,1029.0,1034.0,1030.0,1029.0,1033.0,1033.0,1030.0,1037.0,1032.0,1030.0,1035.0,1035.0,1030.0,1038.0,1032.0,1030.0,1032.0,1031.0,1028.0,1035.0,1031.0,1032.0,1033.0,1031.0,1029.0,1034.0,1031.0,1023.0,1024.0,1023.0,1023.0,1024.0,1022.0,1037.0,1039.0,1034.0,1032.0,1039.0,1036.0,1032.0,1036.0,1033.0,1033.0,1037.0,1035.0,1029.0,1032.0,1028.0,1030.0,1032.0,2003,2017,1909,	00:32:15.734,0.0556640625,0.04248046875,1.017578125,-0.244140625,0.18310546875,0.06103515625,2.3785400390625,-3.1201171875,54.261474609375,464.0,-1596.0,-2573.0,0.889190673828125,0.0308837890625,-0.0147705078125,0.456268310546875,2.3786996886537,-3.119593984884609,49.651350262472604,0.9068204476815657,0.03025766408786219,-0.01598786682203147,0.4201256211480464,1,	00:32:15.736,0.0087890625,0.0791015625,1.0048828125,-0.9765625,-1.220703125,-0.48828125,4.5428466796875,-0.5438232421875,94.954833984375,-366.0,-1316.0,-1938.0,-0.675201416015625,-0.030303955078125,-0.0260009765625,-0.736541748046875,4.543729949864733,-0.5442681019702553,96.30879547222344,-0.66645344005215,-0.029980740808126915,-0.026364041602968912,-0.7444769336477849,1
1782117442.963845,0.252,1024.0,1023.0,1024.0,1024.0,1023.0,1023.0,1023.0,1023.0,1023.0,1024.0,1024.0,1024.0,1023.0,1023.0,1023.0,1024.0,1024.0,1024.0,1023.0,1023.0,1024.0,1023.0,1023.0,1023.0,1023.0,1024.0,1023.0,1023.0,1024.0,1023.0,1023.0,1023.0,1023.0,1024.0,1024.0,1024.0,1024.0,1024.0,1023.0,1024.0,1024.0,1023.0,1024.0,1024.0,1023.0,1023.0,1023.0,1023.0,1023.0,1022.0,1022.0,1023.0,1024.0,1024.0,1023.0,1023.0,1023.0,1023.0,1023.0,1022.0,1022.0,1024.0,1023.0,1024.0,1023.0,1023.0,1023.0,1023.0,1023.0,1022.0,1022.0,1023.0,1023.0,1024.0,1023.0,1024.0,1024.0,1023.0,1023.0,1023.0,1023.0,1023.0,1024.0,1024.0,1024.0,1023.0,1023.0,1023.0,1023.0,1023.0,1023.0,1023.0,1025.0,1026.0,1024.0,1024.0,1024.0,1024.0,1024.0,1024.0,1023.0,1024.0,1025.0,1025.0,1024.0,1024.0,1024.0,1024.0,1024.0,1024.0,1022.0,1023.0,1023.0,1024.0,1022.0,1023.0,1023.0,1023.0,1023.0,1021.0,1022.0,1024.0,1024.0,1024.0,1024.0,1024.0,1023.0,1024.0,1023.0,1023.0,1024.0,1023.0,1024.0,1024.0,1023.0,1023.0,1024.0,1024.0,1024.0,1025.0,1024.0,1023.0,1024.0,1024.0,1025.0,1024.0,1024.0,1024.0,1024.0,1025.0,1023.0,1025.0,1024.0,1024.0,1025.0,1024.0,1024.0,1025.0,1024.0,1025.0,1025.0,1025.0,1025.0,1026.0,1026.0,1027.0,1028.0,1026.0,1026.0,1028.0,1028.0,1029.0,1031.0,1028.0,1026.0,1030.0,1031.0,1029.0,1034.0,1029.0,1027.0,1031.0,1030.0,1030.0,1034.0,1030.0,1028.0,1033.0,1033.0,1030.0,1037.0,1032.0,1031.0,1035.0,1034.0,1030.0,1038.0,1033.0,1029.0,1032.0,1031.0,1028.0,1035.0,1031.0,1032.0,1033.0,1032.0,1029.0,1034.0,1030.0,1024.0,1024.0,1023.0,1023.0,1024.0,1022.0,1037.0,1039.0,1034.0,1032.0,1039.0,1036.0,1032.0,1036.0,1033.0,1033.0,1038.0,1034.0,1029.0,1032.0,1028.0,1030.0,1031.0,2003,2017,1909,	00:32:15.745,0.05517578125,0.04248046875,1.01806640625,-0.18310546875,0.244140625,0.06103515625,2.4224853515625,-3.0377197265625,54.261474609375,462.0,-1596.0,-2576.0,0.88922119140625,0.030853271484375,-0.013946533203125,0.45623779296875,2.419849486059964,-3.0362345859488187,49.64975123636666,0.9068395604583198,0.030278216516004743,-0.015177409312565433,0.4201129460501425,1,	00:32:15.746,0.00732421875,0.0791015625,1.00439453125,-1.03759765625,-1.220703125,-0.48828125,4.50439453125,-0.4669189453125,94.9493408203125,-367.0,-1316.0,-1936.0,-0.67529296875,-0.029571533203125,-0.026214599609375,-0.73651123046875,4.5056117582639565,-0.4687433593307421,96.30319947675477,-0.6665209724249734,-0.029269828077214146,-0.02655439382972267,-0.744437999198277,1
1782117442.973887,0.262,1023.0,1023.0,1023.0,1022.0,1023.0,1023.0,1023.0,1024.0,1023.0,1023.0,1024.0,1023.0,1023.0,1023.0,1023.0,1023.0,1023.0,1024.0,1023.0,1023.0,1024.0,1023.0,1023.0,1023.0,1023.0,1024.0,1023.0,1023.0,1023.0,1023.0,1023.0,1023.0,1022.0,1024.0,1024.0,1024.0,1023.0,1024.0,1024.0,1023.0,1024.0,1023.0,1023.0,1024.0,1023.0,1024.0,1024.0,1023.0,1023.0,1022.0,1022.0,1023.0,1024.0,1024.0,1023.0,1023.0,1023.0,1023.0,1023.0,1022.0,1022.0,1024.0,1024.0,1023.0,1022.0,1023.0,1023.0,1023.0,1022.0,1022.0,1022.0,1023.0,1023.0,1024.0,1023.0,1023.0,1024.0,1023.0,1023.0,1022.0,1022.0,1023.0,1024.0,1024.0,1024.0,1024.0,1024.0,1023.0,1024.0,1023.0,1022.0,1023.0,1024.0,1026.0,1024.0,1024.0,1024.0,1024.0,1024.0,1025.0,1023.0,1023.0,1025.0,1025.0,1024.0,1024.0,1024.0,1024.0,1024.0,1023.0,1022.0,1023.0,1023.0,1024.0,1022.0,1023.0,1024.0,1023.0,1023.0,1021.0,1022.0,1024.0,1024.0,1023.0,1024.0,1024.0,1023.0,1023.0,1023.0,1024.0,1024.0,1023.0,1024.0,1024.0,1023.0,1023.0,1024.0,1024.0,1024.0,1025.0,1024.0,1024.0,1024.0,1024.0,1025.0,1025.0,1024.0,1025.0,1024.0,1025.0,1023.0,1025.0,1024.0,1024.0,1025.0,1024.0,1024.0,1025.0,1024.0,1024.0,1026.0,1025.0,1025.0,1027.0,1026.0,1027.0,1029.0,1026.0,1026.0,1028.0,1028.0,1029.0,1031.0,1028.0,1027.0,1030.0,1031.0,1029.0,1034.0,1029.0,1027.0,1030.0,1031.0,1029.0,1034.0,1030.0,1029.0,1034.0,1033.0,1031.0,1037.0,1032.0,1031.0,1035.0,1035.0,1031.0,1038.0,1033.0,1029.0,1032.0,1031.0,1029.0,1035.0,1032.0,1032.0,1033.0,1032.0,1029.0,1035.0,1031.0,1023.0,1023.0,1023.0,1023.0,1023.0,1022.0,1038.0,1039.0,1034.0,1033.0,1039.0,1036.0,1033.0,1036.0,1032.0,1033.0,1038.0,1034.0,1029.0,1031.0,1028.0,1029.0,1031.0,2003,2017,1909,	00:32:15.755,0.0556640625,0.041015625,1.01806640625,-0.244140625,0.18310546875,0.06103515625,2.3455810546875,-3.0926513671875,54.2669677734375,462.0,-1596.0,-2576.0,0.889190673828125,0.030517578125,-0.014678955078125,0.456268310546875,2.345916207687773,-3.0919867658820084,49.65426005527896,0.906826392852453,0.02989766210695952,-0.015888715629648418,0.42014232319820743,1,	00:32:15.756,0.0078125,0.07861328125,1.0048828125,-1.03759765625,-1.220703125,-0.48828125,4.4219970703125,-0.4229736328125,94.94384765625,-366.0,-1320.0,-1936.0,-0.67535400390625,-0.02880859375,-0.02593994140625,-0.736480712890625,4.422494506651084,-0.42513244396582,96.29793615281375,-0.6665881481022055,-0.028504330836983248,-0.02626686904005233,-0.7444177560510234,1
1782117442.984421,0.272,1023.0,1024.0,1024.0,1024.0,1023.0,1023.0,1022.0,1023.0,1022.0,1024.0,1023.0,1024.0,1023.0,1023.0,1023.0,1023.0,1023.0,1024.0,1023.0,1023.0,1023.0,1023.0,1023.0,1022.0,1024.0,1024.0,1023.0,1023.0,1024.0,1023.0,1024.0,1023.0,1022.0,1024.0,1025.0,1024.0,1024.0,1024.0,1024.0,1024.0,1024.0,1023.0,1024.0,1024.0,1024.0,1024.0,1024.0,1023.0,1023.0,1022.0,1022.0,1023.0,1024.0,1024.0,1022.0,1023.0,1023.0,1023.0,1023.0,1022.0,1023.0,1023.0,1023.0,1024.0,1023.0,1023.0,1023.0,1023.0,1023.0,1022.0,1022.0,1023.0,1023.0,1024.0,1024.0,1023.0,1024.0,1023.0,1023.0,1023.0,1023.0,1023.0,1024.0,1024.0,1024.0,1024.0,1024.0,1023.0,1024.0,1023.0,1022.0,1023.0,1026.0,1025.0,1025.0,1024.0,1024.0,1024.0,1024.0,1024.0,1023.0,1024.0,1025.0,1025.0,1024.0,1024.0,1024.0,1024.0,1024.0,1023.0,1022.0,1023.0,1023.0,1024.0,1023.0,1023.0,1023.0,1023.0,1023.0,1021.0,1022.0,1024.0,1024.0,1023.0,1024.0,1023.0,1023.0,1023.0,1022.0,1024.0,1024.0,1023.0,1024.0,1023.0,1023.0,1023.0,1024.0,1025.0,1024.0,1024.0,1024.0,1024.0,1025.0,1024.0,1024.0,1024.0,1024.0,1024.0,1024.0,1025.0,1024.0,1025.0,1024.0,1024.0,1025.0,1024.0,1024.0,1024.0,1024.0,1025.0,1025.0,1025.0,1025.0,1027.0,1026.0,1027.0,1028.0,1026.0,1026.0,1028.0,1029.0,1028.0,1031.0,1028.0,1026.0,1030.0,1031.0,1029.0,1034.0,1029.0,1027.0,1030.0,1031.0,1029.0,1034.0,1030.0,1029.0,1034.0,1033.0,1030.0,1037.0,1033.0,1031.0,1036.0,1034.0,1031.0,1038.0,1033.0,1029.0,1033.0,1031.0,1029.0,1035.0,1032.0,1032.0,1033.0,1032.0,1029.0,1035.0,1031.0,1024.0,1024.0,1022.0,1023.0,1024.0,1022.0,1037.0,1039.0,1035.0,1032.0,1039.0,1036.0,1033.0,1035.0,1033.0,1033.0,1038.0,1035.0,1029.0,1032.0,1028.0,1030.0,1031.0,2003,2017,1909,	00:32:15.765,0.0556640625,0.04248046875,1.01708984375,-0.244140625,0.18310546875,0.06103515625,2.4114990234375,-3.1475830078125,54.261474609375,462.0,-1595.0,-2575.0,0.88916015625,0.03125,-0.01483154296875,0.456268310546875,2.4139450059212377,-3.14857944434653,49.651109166912725,0.9068034694656681,0.030642548702189222,-0.016088206446905343,0.4201305411266634,1,	00:32:15.766,0.00830078125,0.07763671875,1.00390625,-1.03759765625,-1.220703125,-0.54931640625,4.4110107421875,-0.52734375,94.9383544921875,-367.0,-1319.0,-1933.0,-0.67535400390625,-0.0294189453125,-0.025238037109375,-0.736480712890625,4.411495370035642,-0.5285481850515913,96.29153281653326,-0.6666041025507334,-0.02911341324241491,-0.025592006184525135,-0.7444034046478822,1
1782117442.995459,0.283,1024.0,1023.0,1024.0,1023.0,1023.0,1022.0,1023.0,1023.0,1023.0,1023.0,1024.0,1023.0,1023.0,1023.0,1023.0,1024.0,1023.0,1024.0,1023.0,1024.0,1023.0,1023.0,1023.0,1023.0,1024.0,1024.0,1024.0,1023.0,1024.0,1023.0,1023.0,1023.0,1023.0,1024.0,1024.0,1023.0,1024.0,1024.0,1023.0,1023.0,1024.0,1023.0,1023.0,1024.0,1023.0,1024.0,1024.0,1023.0,1023.0,1022.0,1022.0,1023.0,1024.0,1024.0,1023.0,1024.0,1023.0,1023.0,1024.0,1022.0,1022.0,1023.0,1023.0,1023.0,1023.0,1024.0,1024.0,1023.0,1023.0,1022.0,1022.0,1023.0,1023.0,1024.0,1023.0,1024.0,1024.0,1023.0,1022.0,1023.0,1023.0,1023.0,1024.0,1024.0,1024.0,1024.0,1023.0,1024.0,1023.0,1023.0,1022.0,1024.0,1025.0,1025.0,1025.0,1024.0,1024.0,1024.0,1024.0,1024.0,1023.0,1024.0,1025.0,1025.0,1024.0,1025.0,1024.0,1024.0,1024.0,1023.0,1023.0,1024.0,1023.0,1024.0,1023.0,1024.0,1023.0,1023.0,1023.0,1021.0,1022.0,1024.0,1024.0,1023.0,1024.0,1024.0,1023.0,1024.0,1023.0,1024.0,1024.0,1023.0,1024.0,1024.0,1023.0,1023.0,1024.0,1024.0,1024.0,1024.0,1025.0,1024.0,1024.0,1024.0,1025.0,1024.0,1025.0,1025.0,1024.0,1025.0,1024.0,1024.0,1024.0,1025.0,1024.0,1024.0,1024.0,1024.0,1024.0,1025.0,1026.0,1024.0,1025.0,1027.0,1026.0,1028.0,1029.0,1026.0,1026.0,1028.0,1028.0,1029.0,1031.0,1028.0,1027.0,1030.0,1031.0,1029.0,1034.0,1029.0,1027.0,1031.0,1030.0,1029.0,1034.0,1031.0,1029.0,1033.0,1032.0,1030.0,1037.0,1033.0,1032.0,1035.0,1034.0,1031.0,1037.0,1033.0,1030.0,1032.0,1031.0,1029.0,1035.0,1031.0,1032.0,1033.0,1032.0,1029.0,1034.0,1031.0,1024.0,1023.0,1022.0,1023.0,1023.0,1022.0,1038.0,1039.0,1034.0,1033.0,1039.0,1036.0,1033.0,1036.0,1032.0,1033.0,1038.0,1034.0,1029.0,1032.0,1028.0,1030.0,1031.0,2002,2017,1909,	00:32:15.776,0.056640625,0.04150390625,1.01904296875,-0.244140625,0.1220703125,0.06103515625,2.3236083984375,-3.1805419921875,54.2669677734375,463.0,-1594.0,-2576.0,0.88916015625,0.03070068359375,-0.01544189453125,0.456298828125,2.3253646055422466,-3.179160502262937,49.656524227428406,0.9067980737590925,0.03005420444296388,-0.016653675735023125,0.4201626510134054,1,	00:32:15.777,0.00830078125,0.07861328125,1.00390625,-1.03759765625,-1.15966796875,-0.48828125,4.471435546875,-0.4779052734375,94.9273681640625,-365.0,-1319.0,-1938.0,-0.6754150390625,-0.029449462890625,-0.025909423828125,-0.736419677734375,4.470863615506163,-0.48037359371663757,96.28515453817373,-0.6666438096196163,-0.02914738367513369,-0.026256391243478228,-0.744343377104686,1
1782117443.004501,0.292,1024.0,1023.0,1024.0,1023.0,1024.0,1023.0,1024.0,1023.0,1022.0,1023.0,1024.0,1023.0,1023.0,1024.0,1023.0,1023.0,1024.0,1023.0,1023.0,1023.0,1024.0,1023.0,1023.0,1022.0,1024.0,1024.0,1023.0,1023.0,1023.0,1024.0,1023.0,1023.0,1022.0,1023.0,1024.0,1024.0,1023.0,1023.0,1023.0,1024.0,1023.0,1022.0,1023.0,1023.0,1023.0,1024.0,1023.0,1023.0,1023.0,1022.0,1022.0,1023.0,1023.0,1024.0,1023.0,1023.0,1023.0,1023.0,1023.0,1022.0,1023.0,1023.0,1023.0,1024.0,1023.0,1023.0,1023.0,1022.0,1023.0,1022.0,1022.0,1023.0,1023.0,1024.0,1023.0,1023.0,1024.0,1023.0,1023.0,1023.0,1022.0,1023.0,1024.0,1024.0,1024.0,1024.0,1023.0,1023.0,1023.0,1023.0,1022.0,1023.0,1025.0,1025.0,1024.0,1024.0,1024.0,1024.0,1024.0,1024.0,1024.0,1024.0,1024.0,1025.0,1024.0,1025.0,1024.0,1024.0,1024.0,1024.0,1022.0,1023.0,1023.0,1024.0,1022.0,1023.0,1023.0,1023.0,1023.0,1021.0,1022.0,1023.0,1024.0,1023.0,1024.0,1024.0,1023.0,1023.0,1023.0,1023.0,1024.0,1023.0,1024.0,1023.0,1023.0,1023.0,1024.0,1024.0,1024.0,1024.0,1025.0,1024.0,1024.0,1024.0,1025.0,1024.0,1024.0,1024.0,1024.0,1025.0,1024.0,1024.0,1024.0,1024.0,1025.0,1024.0,1023.0,1025.0,1024.0,1025.0,1026.0,1024.0,1024.0,1027.0,1027.0,1027.0,1028.0,1027.0,1025.0,1029.0,1029.0,1029.0,1031.0,1028.0,1026.0,1030.0,1030.0,1029.0,1034.0,1030.0,1026.0,1031.0,1032.0,1030.0,1034.0,1030.0,1028.0,1033.0,1033.0,1030.0,1037.0,1032.0,1030.0,1035.0,1034.0,1031.0,1038.0,1033.0,1029.0,1032.0,1031.0,1029.0,1035.0,1032.0,1032.0,1033.0,1032.0,1030.0,1035.0,1031.0,1023.0,1023.0,1022.0,1023.0,1024.0,1022.0,1036.0,1039.0,1035.0,1033.0,1039.0,1037.0,1032.0,1036.0,1033.0,1033.0,1037.0,1035.0,1029.0,1031.0,1028.0,1029.0,1031.0,2002,2017,1909,	00:32:15.786,0.05517578125,0.04150390625,1.017578125,-0.18310546875,0.18310546875,0.06103515625,2.3345947265625,-3.087158203125,54.2669677734375,462.0,-1596.0,-2574.0,0.889190673828125,0.0303955078125,-0.014678955078125,0.456298828125,2.33543183160371,-3.0865706195887452,49.65655560278151,0.9068222682363751,0.029795200775152714,-0.015883676031674003,0.42015869463468797,1,	00:32:15.787,0.00732421875,0.0791015625,1.00390625,-0.9765625,-1.220703125,-0.48828125,4.50439453125,-0.4119873046875,94.921875,-367.0,-1315.0,-1935.0,-0.675445556640625,-0.029205322265625,-0.026519775390625,-0.736358642578125,4.50468531287946,-0.4115357101723098,96.27899024468263,-0.6666943592072239,-0.028898574729325326,-0.026875134797625624,-0.74428571859837,1
1782117443.015103,0.303,1024.0,1023.0,1023.0,1023.0,1023.0,1022.0,1024.0,1023.0,1023.0,1023.0,1024.0,1023.0,1023.0,1023.0,1022.0,1023.0,1023.0,1023.0,1023.0,1023.0,1023.0,1023.0,1023.0,1022.0,1024.0,1024.0,1023.0,1024.0,1024.0,1023.0,1023.0,1023.0,1023.0,1024.0,1024.0,1024.0,1023.0,1024.0,1024.0,1024.0,1024.0,1023.0,1023.0,1024.0,1023.0,1024.0,1024.0,1024.0,1024.0,1022.0,1022.0,1023.0,1024.0,1024.0,1023.0,1024.0,1024.0,1023.0,1023.0,1022.0,1023.0,1023.0,1023.0,1023.0,1023.0,1023.0,1023.0,1024.0,1023.0,1023.0,1022.0,1023.0,1024.0,1024.0,1023.0,1023.0,1024.0,1023.0,1023.0,1022.0,1022.0,1023.0,1024.0,1024.0,1024.0,1024.0,1023.0,1023.0,1023.0,1023.0,1023.0,1023.0,1025.0,1025.0,1025.0,1024.0,1024.0,1024.0,1024.0,1025.0,1022.0,1023.0,1025.0,1025.0,1024.0,1024.0,1024.0,1024.0,1024.0,1024.0,1023.0,1023.0,1023.0,1024.0,1023.0,1023.0,1023.0,1023.0,1023.0,1020.0,1022.0,1023.0,1024.0,1023.0,1024.0,1024.0,1023.0,1023.0,1023.0,1024.0,1023.0,1023.0,1024.0,1024.0,1023.0,1023.0,1024.0,1024.0,1024.0,1024.0,1024.0,1024.0,1024.0,1024.0,1025.0,1024.0,1024.0,1025.0,1024.0,1025.0,1024.0,1024.0,1024.0,1024.0,1025.0,1024.0,1024.0,1024.0,1024.0,1025.0,1025.0,1025.0,1024.0,1026.0,1026.0,1027.0,1029.0,1027.0,1025.0,1028.0,1029.0,1029.0,1031.0,1028.0,1026.0,1030.0,1031.0,1030.0,1034.0,1029.0,1027.0,1030.0,1030.0,1030.0,1034.0,1030.0,1028.0,1033.0,1032.0,1031.0,1037.0,1033.0,1030.0,1034.0,1034.0,1030.0,1037.0,1033.0,1029.0,1031.0,1032.0,1029.0,1035.0,1032.0,1031.0,1033.0,1032.0,1029.0,1034.0,1031.0,1023.0,1023.0,1022.0,1024.0,1023.0,1022.0,1037.0,1038.0,1035.0,1033.0,1039.0,1036.0,1032.0,1036.0,1033.0,1033.0,1037.0,1035.0,1028.0,1031.0,1028.0,1029.0,1032.0,2002,2017,1909,	00:32:15.796,0.05615234375,0.0419921875,1.01806640625,-0.18310546875,0.18310546875,0.06103515625,2.3675537109375,-3.1695556640625,54.2669677734375,462.0,-1595.0,-2574.0,0.88916015625,0.030975341796875,-0.01519775390625,0.456298828125,2.366900360715747,-3.169970594402351,49.65542316100083,0.9067938686226201,0.030349116750599852,-0.016428910494328514,0.4201593767141824,1,	00:32:15.797,0.00830078125,0.078125,1.00439453125,-0.9765625,-1.15966796875,-0.48828125,4.4329833984375,-0.4888916015625,94.9163818359375,-367.0,-1318.0,-1937.0,-0.67547607421875,-0.029296875,-0.025604248046875,-0.736358642578125,4.432201137613439,-0.48939392534553494,96.27371135632097,-0.6667254449491173,-0.02898362830079881,-0.025949862521709124,-0.744287400795571,1
1782117443.024518,0.312,1024.0,1023.0,1023.0,1023.0,1023.0,1023.0,1023.0,1023.0,1023.0,1023.0,1024.0,1024.0,1023.0,1023.0,1023.0,1024.0,1023.0,1024.0,1023.0,1023.0,1023.0,1023.0,1023.0,1022.0,1024.0,1024.0,1023.0,1023.0,1024.0,1023.0,1023.0,1023.0,1022.0,1024.0,1024.0,1024.0,1024.0,1024.0,1024.0,1024.0,1024.0,1023.0,1023.0,1024.0,1023.0,1023.0,1023.0,1023.0,1023.0,1022.0,1022.0,1023.0,1023.0,1023.0,1023.0,1024.0,1023.0,1023.0,1023.0,1022.0,1022.0,1023.0,1023.0,1023.0,1023.0,1024.0,1023.0,1023.0,1023.0,1022.0,1022.0,1023.0,1024.0,1024.0,1024.0,1023.0,1024.0,1023.0,1023.0,1022.0,1022.0,1023.0,1024.0,1024.0,1024.0,1024.0,1023.0,1024.0,1023.0,1023.0,1023.0,1023.0,1025.0,1025.0,1024.0,1025.0,1024.0,1024.0,1024.0,1024.0,1023.0,1023.0,1025.0,1025.0,1024.0,1024.0,1024.0,1023.0,1024.0,1024.0,1023.0,1023.0,1023.0,1024.0,1022.0,1024.0,1023.0,1023.0,1023.0,1021.0,1022.0,1024.0,1024.0,1024.0,1024.0,1023.0,1024.0,1024.0,1023.0,1024.0,1024.0,1023.0,1024.0,1024.0,1023.0,1023.0,1024.0,1025.0,1024.0,1025.0,1024.0,1024.0,1024.0,1024.0,1024.0,1024.0,1025.0,1024.0,1024.0,1024.0,1024.0,1025.0,1024.0,1024.0,1025.0,1024.0,1024.0,1025.0,1024.0,1025.0,1026.0,1024.0,1025.0,1026.0,1026.0,1028.0,1029.0,1027.0,1025.0,1029.0,1028.0,1028.0,1031.0,1028.0,1026.0,1030.0,1031.0,1030.0,1034.0,1030.0,1027.0,1030.0,1031.0,1029.0,1034.0,1031.0,1029.0,1033.0,1033.0,1030.0,1037.0,1033.0,1030.0,1035.0,1034.0,1030.0,1037.0,1033.0,1030.0,1031.0,1031.0,1029.0,1035.0,1031.0,1032.0,1032.0,1031.0,1029.0,1034.0,1031.0,1024.0,1023.0,1022.0,1023.0,1024.0,1022.0,1037.0,1039.0,1034.0,1033.0,1039.0,1036.0,1033.0,1036.0,1032.0,1033.0,1037.0,1035.0,1028.0,1031.0,1028.0,1029.0,1032.0,2002,2017,1909,	00:32:15.806,0.0556640625,0.04150390625,1.01708984375,-0.244140625,0.18310546875,0.1220703125,2.30712890625,-3.0926513671875,54.2724609375,463.0,-1597.0,-2574.0,0.889190673828125,0.030242919921875,-0.01483154296875,0.456298828125,2.309274744302415,-3.0951380145373193,49.659730538046944,0.9068149423668209,0.029619989051504803,-0.016046594676249498,0.4201807032077317,1,	00:32:15.807,0.00732421875,0.07861328125,1.00439453125,-0.9765625,-1.220703125,-0.48828125,4.471435546875,-0.4229736328125,94.910888671875,-367.0,-1316.0,-1939.0,-0.675537109375,-0.029083251953125,-0.0262451171875,-0.736297607421875,4.469190815912406,-0.4223601451604761,96.26752243758128,-0.6667747887037904,-0.028765015163729528,-0.026578716729421956,-0.7442294853529141,1
1782117443.035632,0.323,1024.0,1023.0,1023.0,1024.0,1023.0,1022.0,1023.0,1023.0,1022.0,1024.0,1024.0,1023.0,1023.0,1023.0,1023.0,1023.0,1023.0,1024.0,1023.0,1023.0,1023.0,1023.0,1024.0,1023.0,1023.0,1024.0,1024.0,1023.0,1023.0,1024.0,1023.0,1023.0,1022.0,1024.0,1024.0,1024.0,1023.0,1024.0,1024.0,1023.0,1024.0,1023.0,1024.0,1024.0,1023.0,1023.0,1024.0,1023.0,1023.0,1023.0,1022.0,1023.0,1024.0,1024.0,1023.0,1023.0,1023.0,1023.0,1023.0,1022.0,1022.0,1023.0,1024.0,1024.0,1023.0,1023.0,1023.0,1023.0,1023.0,1022.0,1022.0,1023.0,1023.0,1024.0,1023.0,1023.0,1023.0,1023.0,1023.0,1022.0,1022.0,1023.0,1024.0,1024.0,1024.0,1023.0,1024.0,1024.0,1023.0,1024.0,1022.0,1023.0,1024.0,1025.0,1024.0,1023.0,1024.0,1024.0,1024.0,1024.0,1023.0,1023.0,1025.0,1025.0,1024.0,1024.0,1024.0,1024.0,1024.0,1024.0,1023.0,1023.0,1023.0,1024.0,1022.0,1024.0,1024.0,1023.0,1023.0,1021.0,1022.0,1024.0,1024.0,1023.0,1023.0,1024.0,1023.0,1023.0,1023.0,1024.0,1024.0,1023.0,1024.0,1024.0,1023.0,1023.0,1024.0,1025.0,1024.0,1024.0,1024.0,1024.0,1024.0,1024.0,1024.0,1024.0,1024.0,1024.0,1024.0,1025.0,1024.0,1024.0,1024.0,1024.0,1024.0,1024.0,1024.0,1024.0,1025.0,1025.0,1026.0,1024.0,1024.0,1026.0,1026.0,1026.0,1028.0,1026.0,1026.0,1028.0,1028.0,1028.0,1031.0,1028.0,1026.0,1029.0,1030.0,1029.0,1034.0,1029.0,1027.0,1031.0,1030.0,1029.0,1034.0,1031.0,1029.0,1033.0,1033.0,1030.0,1037.0,1033.0,1030.0,1035.0,1033.0,1030.0,1037.0,1033.0,1030.0,1032.0,1032.0,1029.0,1035.0,1031.0,1032.0,1033.0,1032.0,1029.0,1035.0,1031.0,1023.0,1023.0,1023.0,1023.0,1024.0,1022.0,1038.0,1039.0,1035.0,1033.0,1040.0,1037.0,1032.0,1035.0,1033.0,1032.0,1038.0,1035.0,1028.0,1032.0,1028.0,1029.0,1032.0,2002,2017,1909,	00:32:15.816,0.05517578125,0.04150390625,1.01708984375,-0.18310546875,0.18310546875,0.06103515625,2.39501953125,-3.1146240234375,54.2669677734375,460.0,-1593.0,-2574.0,0.88916015625,0.031005859375,-0.014678955078125,0.456298828125,2.395868227262133,-3.1173588498177986,49.655621982089166,0.9068008948630633,0.030385945412668525,-0.015906092152085854,0.4201616684436781,1,	00:32:15.818,0.0078125,0.07763671875,1.0048828125,-0.91552734375,-1.220703125,-0.48828125,4.3780517578125,-0.472412109375,94.9053955078125,-365.0,-1319.0,-1937.0,-0.675567626953125,-0.028839111328125,-0.025360107421875,-0.736297607421875,4.375869150146796,-0.46984998672882633,96.26236220502906,-0.6668186494891142,-0.02853150872384094,-0.02569490553642283,-0.7442302154124956,1
1782117443.044928,0.333,1023.0,1023.0,1023.0,1024.0,1022.0,1022.0,1023.0,1023.0,1023.0,1024.0,1024.0,1024.0,1023.0,1024.0,1023.0,1023.0,1024.0,1023.0,1024.0,1023.0,1023.0,1023.0,1023.0,1023.0,1024.0,1023.0,1024.0,1023.0,1024.0,1024.0,1023.0,1023.0,1022.0,1023.0,1024.0,1023.0,1023.0,1024.0,1023.0,1024.0,1024.0,1023.0,1024.0,1024.0,1023.0,1023.0,1024.0,1022.0,1023.0,1022.0,1022.0,1023.0,1023.0,1024.0,1023.0,1023.0,1023.0,1023.0,1023.0,1022.0,1022.0,1022.0,1024.0,1023.0,1023.0,1023.0,1023.0,1023.0,1023.0,1022.0,1023.0,1023.0,1023.0,1024.0,1023.0,1023.0,1023.0,1023.0,1024.0,1022.0,1022.0,1023.0,1023.0,1024.0,1024.0,1023.0,1024.0,1023.0,1024.0,1023.0,1023.0,1023.0,1025.0,1025.0,1024.0,1024.0,1024.0,1024.0,1024.0,1024.0,1023.0,1023.0,1025.0,1025.0,1024.0,1024.0,1024.0,1024.0,1024.0,1024.0,1023.0,1023.0,1023.0,1024.0,1023.0,1023.0,1024.0,1023.0,1023.0,1021.0,1022.0,1024.0,1024.0,1023.0,1023.0,1024.0,1023.0,1023.0,1023.0,1024.0,1023.0,1023.0,1023.0,1024.0,1023.0,1023.0,1024.0,1025.0,1024.0,1024.0,1025.0,1024.0,1025.0,1024.0,1024.0,1024.0,1024.0,1025.0,1024.0,1025.0,1024.0,1025.0,1024.0,1024.0,1025.0,1024.0,1024.0,1025.0,1024.0,1025.0,1025.0,1025.0,1025.0,1027.0,1026.0,1027.0,1028.0,1026.0,1026.0,1029.0,1029.0,1028.0,1031.0,1028.0,1027.0,1030.0,1031.0,1029.0,1035.0,1029.0,1027.0,1030.0,1031.0,1029.0,1034.0,1030.0,1028.0,1033.0,1032.0,1030.0,1037.0,1032.0,1030.0,1035.0,1034.0,1030.0,1038.0,1033.0,1029.0,1031.0,1031.0,1029.0,1035.0,1032.0,1032.0,1033.0,1032.0,1029.0,1035.0,1031.0,1023.0,1023.0,1022.0,1023.0,1024.0,1023.0,1037.0,1039.0,1035.0,1032.0,1040.0,1037.0,1032.0,1035.0,1033.0,1033.0,1038.0,1034.0,1028.0,1031.0,1028.0,1029.0,1032.0,2002,2017,1909,	00:32:15.827,0.0556640625,0.04150390625,1.0185546875,-0.244140625,0.18310546875,0.06103515625,2.3016357421875,-3.1256103515625,54.2724609375,461.0,-1595.0,-2576.0,0.88916015625,0.030303955078125,-0.015106201171875,0.456329345703125,2.3024060410312046,-3.1274326711930387,49.66126538127692,0.9068017691584185,0.029683990542286345,-0.0163270735439763,0.42019381102788445,1,	00:32:15.828,0.00732421875,0.07861328125,1.0048828125,-0.9765625,-1.220703125,-0.48828125,4.4439697265625,-0.439453125,94.89990234375,-366.0,-1319.0,-1937.0,-0.67559814453125,-0.029052734375,-0.0260009765625,-0.736236572265625,4.44632095243906,-0.43756494662765016,96.25592476932484,-0.6668516711287061,-0.028733332050300337,-0.02633877548419828,-0.7441703523039145,1
1782117443.055336,0.343,1024.0,1023.0,1023.0,1023.0,1023.0,1022.0,1023.0,1023.0,1023.0,1024.0,1023.0,1023.0,1023.0,1024.0,1023.0,1023.0,1023.0,1023.0,1023.0,1024.0,1024.0,1023.0,1023.0,1023.0,1024.0,1024.0,1024.0,1023.0,1024.0,1023.0,1023.0,1023.0,1022.0,1024.0,1024.0,1024.0,1024.0,1024.0,1023.0,1024.0,1024.0,1023.0,1024.0,1024.0,1023.0,1023.0,1023.0,1023.0,1023.0,1022.0,1022.0,1023.0,1024.0,1024.0,1023.0,1023.0,1024.0,1023.0,1023.0,1022.0,1022.0,1023.0,1024.0,1023.0,1023.0,1023.0,1023.0,1023.0,1024.0,1022.0,1022.0,1023.0,1023.0,1024.0,1023.0,1023.0,1023.0,1023.0,1023.0,1022.0,1022.0,1024.0,1024.0,1024.0,1024.0,1023.0,1024.0,1023.0,1024.0,1023.0,1023.0,1023.0,1025.0,1024.0,1025.0,1024.0,1024.0,1024.0,1025.0,1024.0,1023.0,1023.0,1025.0,1025.0,1024.0,1024.0,1025.0,1024.0,1024.0,1023.0,1023.0,1023.0,1023.0,1024.0,1022.0,1023.0,1024.0,1023.0,1023.0,1021.0,1022.0,1023.0,1024.0,1023.0,1023.0,1024.0,1023.0,1023.0,1022.0,1024.0,1024.0,1024.0,1023.0,1024.0,1023.0,1023.0,1024.0,1024.0,1024.0,1024.0,1025.0,1024.0,1024.0,1023.0,1025.0,1024.0,1024.0,1024.0,1024.0,1025.0,1024.0,1024.0,1024.0,1024.0,1024.0,1024.0,1024.0,1024.0,1025.0,1025.0,1026.0,1025.0,1025.0,1026.0,1027.0,1027.0,1029.0,1026.0,1025.0,1029.0,1028.0,1028.0,1031.0,1028.0,1026.0,1030.0,1031.0,1029.0,1034.0,1029.0,1027.0,1031.0,1031.0,1029.0,1034.0,1030.0,1028.0,1032.0,1033.0,1030.0,1037.0,1032.0,1030.0,1034.0,1034.0,1030.0,1038.0,1033.0,1030.0,1031.0,1031.0,1028.0,1036.0,1032.0,1032.0,1032.0,1032.0,1028.0,1035.0,1032.0,1022.0,1024.0,1022.0,1023.0,1024.0,1021.0,1037.0,1039.0,1035.0,1032.0,1040.0,1037.0,1033.0,1035.0,1033.0,1033.0,1038.0,1035.0,1029.0,1031.0,1028.0,1029.0,1032.0,2003,2017,1909,	00:32:15.837,0.0556640625,0.04248046875,1.017578125,-0.244140625,0.18310546875,0.06103515625,2.3895263671875,-3.1256103515625,54.2669677734375,462.0,-1597.0,-2574.0,0.88916015625,0.031005859375,-0.0147705078125,0.456298828125,2.3916527333364943,-3.126616440568137,49.656946180372806,0.9067944521071932,0.030386632139174172,-0.015994494467572874,0.4201721675237194,1,	00:32:15.838,0.0078125,0.078125,1.00537109375,-0.9765625,-1.28173828125,-0.54931640625,4.4000244140625,-0.5328369140625,94.8944091796875,-366.0,-1320.0,-1937.0,-0.675628662109375,-0.02935791015625,-0.025115966796875,-0.736236572265625,4.398046949375556,-0.5330579777788522,96.2497888339194,-0.6668774005220656,-0.029073747182416333,-0.025467808697919845,-0.7441643908558321,1
1782117443.068819,0.357,1023.0,1022.0,1023.0,1023.0,1022.0,1022.0,1023.0,1024.0,1023.0,1024.0,1024.0,1023.0,1023.0,1023.0,1023.0,1024.0,1023.0,1024.0,1023.0,1023.0,1024.0,1023.0,1023.0,1022.0,1024.0,1024.0,1023.0,1024.0,1023.0,1023.0,1024.0,1023.0,1022.0,1024.0,1024.0,1024.0,1023.0,1024.0,1024.0,1024.0,1024.0,1022.0,1024.0,1024.0,1023.0,1023.0,1023.0,1023.0,1023.0,1022.0,1022.0,1023.0,1024.0,1024.0,1023.0,1024.0,1024.0,1023.0,1023.0,1022.0,1022.0,1024.0,1024.0,1024.0,1023.0,1023.0,1023.0,1023.0,1024.0,1022.0,1022.0,1023.0,1024.0,1023.0,1023.0,1023.0,1023.0,1023.0,1023.0,1022.0,1022.0,1023.0,1024.0,1024.0,1024.0,1024.0,1024.0,1023.0,1024.0,1023.0,1022.0,1023.0,1025.0,1024.0,1025.0,1024.0,1024.0,1024.0,1024.0,1025.0,1023.0,1023.0,1025.0,1025.0,1024.0,1024.0,1024.0,1024.0,1024.0,1023.0,1023.0,1023.0,1022.0,1023.0,1023.0,1023.0,1023.0,1023.0,1022.0,1021.0,1022.0,1024.0,1024.0,1024.0,1024.0,1023.0,1023.0,1024.0,1022.0,1023.0,1023.0,1023.0,1023.0,1023.0,1024.0,1023.0,1024.0,1024.0,1024.0,1024.0,1024.0,1024.0,1024.0,1024.0,1024.0,1024.0,1024.0,1025.0,1024.0,1025.0,1024.0,1024.0,1024.0,1024.0,1025.0,1024.0,1024.0,1025.0,1024.0,1025.0,1026.0,1024.0,1024.0,1027.0,1027.0,1027.0,1028.0,1027.0,1026.0,1028.0,1029.0,1029.0,1031.0,1029.0,1026.0,1030.0,1031.0,1029.0,1034.0,1029.0,1027.0,1031.0,1030.0,1029.0,1034.0,1030.0,1028.0,1032.0,1033.0,1030.0,1038.0,1033.0,1030.0,1034.0,1034.0,1030.0,1038.0,1033.0,1029.0,1031.0,1032.0,1028.0,1035.0,1032.0,1032.0,1033.0,1032.0,1028.0,1035.0,1031.0,1023.0,1023.0,1023.0,1023.0,1024.0,1023.0,1037.0,1038.0,1035.0,1032.0,1039.0,1036.0,1032.0,1035.0,1033.0,1032.0,1038.0,1035.0,1028.0,1031.0,1028.0,1029.0,1032.0,2003,2017,1909,	00:32:15.847,0.05615234375,0.0419921875,1.01806640625,-0.244140625,0.18310546875,0.06103515625,2.3236083984375,-3.18603515625,54.2724609375,464.0,-1597.0,-2576.0,0.88916015625,0.03070068359375,-0.0155029296875,0.456329345703125,2.322073330933185,-3.187379848435604,49.66133011237644,0.9067788966907094,0.030058925071150593,-0.016729558995216033,0.4202006846683761,1,	00:32:15.848,0.0078125,0.0791015625,1.00537109375,-0.9765625,-1.28173828125,-0.54931640625,4.4549560546875,-0.4833984375,94.888916015625,-367.0,-1316.0,-1932.0,-0.675689697265625,-0.0294189453125,-0.025787353515625,-0.73614501953125,4.456856137606015,-0.48469116249709415,96.2427163278702,-0.6669217889316931,-0.02910361012387749,-0.02612950020471697,-0.7441005016427279,1
1782117443.076350,0.364,1023.0,1024.0,1024.0,1023.0,1023.0,1022.0,1023.0,1023.0,1023.0,1023.0,1024.0,1024.0,1023.0,1024.0,1024.0,1023.0,1023.0,1024.0,1024.0,1023.0,1024.0,1024.0,1023.0,1023.0,1023.0,1024.0,1023.0,1023.0,1024.0,1024.0,1024.0,1023.0,1022.0,1024.0,1025.0,1024.0,1023.0,1024.0,1024.0,1024.0,1024.0,1022.0,1024.0,1024.0,1023.0,1023.0,1024.0,1023.0,1023.0,1022.0,1022.0,1024.0,1023.0,1023.0,1023.0,1023.0,1024.0,1023.0,1023.0,1022.0,1022.0,1023.0,1023.0,1023.0,1023.0,1023.0,1024.0,1023.0,1023.0,1021.0,1022.0,1023.0,1023.0,1024.0,1023.0,1023.0,1024.0,1023.0,1023.0,1022.0,1022.0,1023.0,1024.0,1024.0,1024.0,1024.0,1024.0,1024.0,1024.0,1023.0,1023.0,1023.0,1025.0,1025.0,1025.0,1024.0,1024.0,1024.0,1024.0,1024.0,1023.0,1023.0,1025.0,1025.0,1024.0,1024.0,1024.0,1024.0,1024.0,1023.0,1022.0,1023.0,1023.0,1024.0,1022.0,1023.0,1024.0,1023.0,1023.0,1021.0,1022.0,1024.0,1024.0,1024.0,1023.0,1024.0,1023.0,1024.0,1022.0,1023.0,1024.0,1023.0,1024.0,1024.0,1023.0,1024.0,1024.0,1024.0,1024.0,1024.0,1024.0,1024.0,1025.0,1024.0,1024.0,1024.0,1024.0,1025.0,1024.0,1024.0,1024.0,1024.0,1024.0,1024.0,1024.0,1024.0,1024.0,1025.0,1024.0,1025.0,1025.0,1025.0,1024.0,1026.0,1026.0,1027.0,1029.0,1027.0,1026.0,1028.0,1029.0,1029.0,1030.0,1028.0,1026.0,1030.0,1030.0,1030.0,1034.0,1029.0,1027.0,1030.0,1031.0,1029.0,1034.0,1030.0,1028.0,1032.0,1033.0,1031.0,1038.0,1033.0,1030.0,1034.0,1034.0,1030.0,1038.0,1033.0,1029.0,1031.0,1031.0,1028.0,1035.0,1032.0,1032.0,1032.0,1032.0,1029.0,1035.0,1031.0,1023.0,1023.0,1023.0,1024.0,1024.0,1022.0,1036.0,1039.0,1035.0,1032.0,1039.0,1036.0,1032.0,1035.0,1033.0,1033.0,1037.0,1036.0,1028.0,1031.0,1028.0,1029.0,1032.0,2003,2017,1908,	00:32:15.858,0.05517578125,0.04248046875,1.017578125,-0.30517578125,0.18310546875,0.06103515625,2.3785400390625,-3.1146240234375,54.2669677734375,463.0,-1596.0,-2574.0,0.88916015625,0.03082275390625,-0.01470947265625,0.456329345703125,2.3759393913636853,-3.1136918243959415,49.658882964380574,0.9067952764584525,0.03021528268053221,-0.015949269465997222,0.42018446435901824,1,	00:32:15.859,0.00830078125,0.07861328125,1.0048828125,-0.9765625,-1.28173828125,-0.54931640625,4.5208740234375,-0.439453125,94.8779296875,-367.0,-1319.0,-1937.0,-0.67572021484375,-0.029510498046875,-0.02642822265625,-0.736083984375,4.519105639955649,-0.4404807106297566,96.23565909431838,-0.6669640683843195,-0.029180555807847102,-0.026789308626855565,-0.74403612787974,1
1782117443.085976,0.374,1023.0,1024.0,1023.0,1023.0,1023.0,1023.0,1023.0,1023.0,1022.0,1023.0,1024.0,1023.0,1023.0,1024.0,1023.0,1023.0,1023.0,1024.0,1024.0,1023.0,1024.0,1023.0,1024.0,1023.0,1024.0,1024.0,1024.0,1024.0,1024.0,1023.0,1024.0,1023.0,1022.0,1023.0,1024.0,1024.0,1024.0,1024.0,1024.0,1023.0,1024.0,1023.0,1023.0,1024.0,1024.0,1023.0,1024.0,1023.0,1023.0,1022.0,1023.0,1023.0,1023.0,1024.0,1023.0,1023.0,1024.0,1023.0,1023.0,1022.0,1023.0,1023.0,1023.0,1024.0,1023.0,1023.0,1023.0,1023.0,1023.0,1022.0,1022.0,1023.0,1023.0,1024.0,1023.0,1023.0,1023.0,1023.0,1023.0,1023.0,1022.0,1023.0,1024.0,1024.0,1024.0,1024.0,1023.0,1024.0,1024.0,1023.0,1022.0,1023.0,1024.0,1025.0,1025.0,1024.0,1024.0,1024.0,1024.0,1024.0,1023.0,1023.0,1024.0,1025.0,1024.0,1024.0,1024.0,1024.0,1024.0,1023.0,1023.0,1023.0,1023.0,1024.0,1022.0,1023.0,1023.0,1023.0,1023.0,1021.0,1022.0,1024.0,1024.0,1023.0,1023.0,1024.0,1023.0,1023.0,1022.0,1024.0,1023.0,1023.0,1024.0,1024.0,1023.0,1024.0,1024.0,1024.0,1024.0,1024.0,1024.0,1024.0,1024.0,1024.0,1024.0,1024.0,1024.0,1024.0,1024.0,1026.0,1024.0,1025.0,1024.0,1024.0,1025.0,1024.0,1024.0,1024.0,1025.0,1025.0,1026.0,1025.0,1025.0,1026.0,1026.0,1027.0,1028.0,1027.0,1025.0,1028.0,1029.0,1028.0,1031.0,1028.0,1026.0,1030.0,1031.0,1029.0,1034.0,1030.0,1027.0,1030.0,1031.0,1028.0,1034.0,1031.0,1028.0,1032.0,1033.0,1030.0,1037.0,1033.0,1030.0,1034.0,1034.0,1030.0,1037.0,1033.0,1029.0,1031.0,1032.0,1028.0,1034.0,1032.0,1031.0,1032.0,1032.0,1029.0,1034.0,1031.0,1023.0,1023.0,1023.0,1023.0,1024.0,1022.0,1036.0,1038.0,1035.0,1033.0,1039.0,1036.0,1032.0,1035.0,1033.0,1033.0,1037.0,1035.0,1028.0,1031.0,1029.0,1029.0,1031.0,2003,2017,1909,	00:32:15.868,0.0556640625,0.04150390625,1.01806640625,-0.244140625,0.244140625,0.1220703125,2.28515625,-3.14208984375,54.2724609375,462.0,-1597.0,-2577.0,0.88916015625,0.030242919921875,-0.015289306640625,0.45635986328125,2.286053488315515,-3.13938551313558,49.66497178663431,0.9067889433743357,0.029598846236646364,-0.016480713842321443,0.4202214970069509,1,	00:32:15.869,0.0078125,0.07958984375,1.0048828125,-0.9765625,-1.28173828125,-0.48828125,4.59228515625,-0.4833984375,94.8724365234375,-367.0,-1319.0,-1935.0,-0.67572021484375,-0.030242919921875,-0.02667236328125,-0.736053466796875,4.594893984419083,-0.48517064695864387,96.22909482254698,-0.6669745527005762,-0.02991329224633283,-0.02701948293800251,-0.7439893067367399,1
1782117443.097302,0.385,1024.0,1023.0,1023.0,1023.0,1023.0,1023.0,1023.0,1024.0,1023.0,1023.0,1023.0,1023.0,1023.0,1023.0,1023.0,1023.0,1024.0,1024.0,1023.0,1023.0,1024.0,1023.0,1023.0,1022.0,1024.0,1024.0,1024.0,1023.0,1024.0,1023.0,1023.0,1023.0,1022.0,1023.0,1023.0,1024.0,1024.0,1024.0,1023.0,1023.0,1024.0,1023.0,1023.0,1024.0,1023.0,1023.0,1023.0,1023.0,1024.0,1022.0,1023.0,1023.0,1023.0,1024.0,1023.0,1023.0,1023.0,1024.0,1024.0,1022.0,1022.0,1023.0,1023.0,1023.0,1023.0,1023.0,1023.0,1023.0,1023.0,1021.0,1022.0,1023.0,1023.0,1023.0,1024.0,1023.0,1023.0,1024.0,1023.0,1022.0,1023.0,1023.0,1024.0,1024.0,1024.0,1023.0,1024.0,1023.0,1024.0,1023.0,1022.0,1023.0,1025.0,1025.0,1024.0,1024.0,1024.0,1025.0,1024.0,1024.0,1023.0,1023.0,1026.0,1025.0,1024.0,1024.0,1024.0,1024.0,1024.0,1024.0,1023.0,1023.0,1023.0,1023.0,1023.0,1023.0,1024.0,1023.0,1023.0,1021.0,1022.0,1024.0,1024.0,1024.0,1023.0,1024.0,1023.0,1023.0,1022.0,1023.0,1024.0,1023.0,1023.0,1024.0,1023.0,1023.0,1024.0,1025.0,1025.0,1024.0,1025.0,1024.0,1024.0,1024.0,1025.0,1024.0,1024.0,1025.0,1024.0,1025.0,1024.0,1024.0,1024.0,1024.0,1025.0,1025.0,1024.0,1025.0,1025.0,1025.0,1025.0,1024.0,1025.0,1026.0,1026.0,1027.0,1028.0,1027.0,1025.0,1028.0,1028.0,1029.0,1031.0,1028.0,1026.0,1030.0,1031.0,1029.0,1034.0,1030.0,1027.0,1030.0,1031.0,1029.0,1034.0,1031.0,1028.0,1032.0,1034.0,1029.0,1037.0,1032.0,1030.0,1034.0,1035.0,1030.0,1037.0,1033.0,1030.0,1031.0,1032.0,1029.0,1034.0,1032.0,1032.0,1031.0,1032.0,1028.0,1034.0,1031.0,1023.0,1023.0,1023.0,1023.0,1024.0,1022.0,1037.0,1038.0,1035.0,1032.0,1038.0,1037.0,1032.0,1035.0,1032.0,1033.0,1038.0,1036.0,1029.0,1031.0,1028.0,1030.0,1031.0,2003,2017,1909,	00:32:15.878,0.05615234375,0.0419921875,1.01708984375,-0.244140625,0.18310546875,0.06103515625,2.373046875,-3.1585693359375,54.2724609375,462.0,-1598.0,-2575.0,0.889129638671875,0.030975341796875,-0.01507568359375,0.456329345703125,2.3729280346853585,-3.1581092133075845,49.66074806274723,0.9067762384190576,0.030354189945800383,-0.01631148700174982,0.42020163253265713,1,	00:32:15.879,0.0078125,0.078125,1.00439453125,-0.91552734375,-1.28173828125,-0.54931640625,4.4989013671875,-0.472412109375,94.866943359375,-367.0,-1317.0,-1938.0,-0.67578125,-0.029571533203125,-0.026123046875,-0.73602294921875,4.4977275818162195,-0.4730704018564536,96.22332732211764,-0.6670405026455073,-0.029270520597789857,-0.026457601701829796,-0.7439759403143026,1
1782117443.106741,0.394,1023.0,1023.0,1023.0,1023.0,1023.0,1023.0,1023.0,1023.0,1023.0,1024.0,1023.0,1023.0,1024.0,1023.0,1023.0,1023.0,1023.0,1024.0,1023.0,1023.0,1023.0,1023.0,1023.0,1023.0,1024.0,1024.0,1024.0,1023.0,1024.0,1024.0,1024.0,1023.0,1022.0,1024.0,1024.0,1024.0,1023.0,1024.0,1024.0,1023.0,1023.0,1023.0,1024.0,1024.0,1023.0,1023.0,1024.0,1023.0,1024.0,1023.0,1022.0,1023.0,1023.0,1024.0,1023.0,1024.0,1024.0,1023.0,1023.0,1022.0,1022.0,1023.0,1023.0,1023.0,1023.0,1023.0,1023.0,1023.0,1023.0,1022.0,1022.0,1023.0,1023.0,1024.0,1023.0,1023.0,1023.0,1024.0,1023.0,1023.0,1022.0,1023.0,1024.0,1024.0,1024.0,1023.0,1024.0,1024.0,1024.0,1023.0,1023.0,1023.0,1025.0,1024.0,1025.0,1024.0,1024.0,1024.0,1024.0,1025.0,1023.0,1024.0,1025.0,1025.0,1024.0,1024.0,1025.0,1024.0,1024.0,1024.0,1023.0,1023.0,1023.0,1023.0,1023.0,1024.0,1024.0,1023.0,1023.0,1022.0,1021.0,1024.0,1024.0,1023.0,1023.0,1024.0,1023.0,1024.0,1023.0,1023.0,1024.0,1023.0,1023.0,1024.0,1023.0,1024.0,1024.0,1024.0,1024.0,1024.0,1024.0,1024.0,1024.0,1024.0,1024.0,1024.0,1024.0,1025.0,1024.0,1025.0,1024.0,1024.0,1024.0,1024.0,1024.0,1024.0,1024.0,1025.0,1024.0,1024.0,1026.0,1024.0,1025.0,1027.0,1026.0,1027.0,1029.0,1027.0,1025.0,1028.0,1029.0,1028.0,1031.0,1028.0,1027.0,1030.0,1031.0,1029.0,1034.0,1029.0,1027.0,1029.0,1031.0,1029.0,1034.0,1031.0,1029.0,1032.0,1034.0,1030.0,1037.0,1033.0,1030.0,1034.0,1036.0,1030.0,1037.0,1033.0,1029.0,1031.0,1032.0,1029.0,1034.0,1032.0,1032.0,1032.0,1033.0,1029.0,1034.0,1032.0,1024.0,1023.0,1022.0,1023.0,1023.0,1022.0,1037.0,1038.0,1035.0,1032.0,1039.0,1037.0,1032.0,1035.0,1033.0,1033.0,1037.0,1035.0,1028.0,1031.0,1028.0,1029.0,1031.0,2003,2017,1908,	00:32:15.888,0.056640625,0.0419921875,1.01806640625,-0.244140625,0.244140625,0.06103515625,2.3291015625,-3.240966796875,54.2724609375,463.0,-1595.0,-2577.0,0.889129638671875,0.030975341796875,-0.015869140625,0.45635986328125,2.331744719713854,-3.238770255983927,49.66362117410341,0.9067527163320145,0.0303237805473424,-0.017100357969328534,0.42022322343624763,1,	00:32:15.889,0.0078125,0.07763671875,1.0048828125,-0.91552734375,-1.28173828125,-0.54931640625,4.4000244140625,-0.4559326171875,94.8614501953125,-367.0,-1316.0,-1937.0,-0.675872802734375,-0.028900146484375,-0.025604248046875,-0.73602294921875,4.402684006915632,-0.4542652901772709,96.21753930563956,-0.6671072643814949,-0.02859651034163891,-0.025948593375232913,-0.7439602193044771,1
1782117443.117785,0.405,1023.0,1023.0,1024.0,1023.0,1023.0,1023.0,1023.0,1023.0,1023.0,1024.0,1023.0,1023.0,1023.0,1023.0,1022.0,1023.0,1024.0,1023.0,1023.0,1023.0,1023.0,1023.0,1024.0,1023.0,1024.0,1024.0,1024.0,1023.0,1024.0,1024.0,1023.0,1023.0,1022.0,1024.0,1024.0,1024.0,1024.0,1024.0,1024.0,1023.0,1023.0,1023.0,1024.0,1024.0,1023.0,1023.0,1023.0,1024.0,1023.0,1022.0,1023.0,1023.0,1024.0,1024.0,1023.0,1023.0,1023.0,1023.0,1023.0,1021.0,1023.0,1023.0,1023.0,1023.0,1023.0,1023.0,1023.0,1023.0,1023.0,1022.0,1022.0,1023.0,1023.0,1023.0,1023.0,1023.0,1023.0,1023.0,1023.0,1022.0,1022.0,1024.0,1024.0,1024.0,1023.0,1023.0,1024.0,1023.0,1024.0,1023.0,1022.0,1023.0,1025.0,1025.0,1025.0,1024.0,1024.0,1024.0,1024.0,1025.0,1023.0,1023.0,1025.0,1025.0,1024.0,1023.0,1024.0,1024.0,1024.0,1024.0,1023.0,1023.0,1023.0,1023.0,1022.0,1024.0,1024.0,1023.0,1023.0,1020.0,1022.0,1024.0,1024.0,1023.0,1023.0,1024.0,1024.0,1023.0,1022.0,1024.0,1023.0,1023.0,1023.0,1024.0,1023.0,1023.0,1024.0,1024.0,1024.0,1024.0,1024.0,1024.0,1024.0,1024.0,1024.0,1024.0,1024.0,1024.0,1024.0,1025.0,1024.0,1024.0,1024.0,1024.0,1024.0,1025.0,1024.0,1025.0,1024.0,1024.0,1025.0,1025.0,1025.0,1027.0,1027.0,1027.0,1028.0,1027.0,1025.0,1028.0,1028.0,1028.0,1031.0,1028.0,1026.0,1029.0,1031.0,1029.0,1034.0,1029.0,1027.0,1030.0,1031.0,1029.0,1033.0,1030.0,1029.0,1032.0,1033.0,1030.0,1036.0,1033.0,1030.0,1034.0,1035.0,1031.0,1037.0,1033.0,1030.0,1031.0,1032.0,1029.0,1034.0,1032.0,1032.0,1032.0,1033.0,1029.0,1034.0,1031.0,1023.0,1023.0,1023.0,1023.0,1023.0,1022.0,1037.0,1038.0,1035.0,1032.0,1039.0,1037.0,1032.0,1035.0,1033.0,1033.0,1037.0,1035.0,1029.0,1031.0,1028.0,1030.0,1032.0,2003,2017,1909,	00:32:15.899,0.05615234375,0.0419921875,1.01806640625,-0.244140625,0.244140625,0.06103515625,2.362060546875,-3.1475830078125,54.2724609375,462.0,-1598.0,-2574.0,0.889129638671875,0.030853271484375,-0.01507568359375,0.456329345703125,2.3601116744316593,-3.1500842503022053,49.66261057089504,0.9067751520813163,0.03022368230799183,-0.01629445651277623,0.4202140446041809,1,	00:32:15.900,0.00732421875,0.0771484375,1.00439453125,-0.9765625,-1.3427734375,-0.54931640625,4.3670654296875,-0.3790283203125,94.85595703125,-366.0,-1315.0,-1937.0,-0.675933837890625,-0.028228759765625,-0.02581787109375,-0.7359619140625,4.368657478621595,-0.37887707743528887,96.21120158217832,-0.6671771329844582,-0.027910547476071905,-0.02616516762127775,-0.7439160292436069,1
1782117443.127824,0.416,1024.0,1023.0,1024.0,1023.0,1023.0,1023.0,1023.0,1024.0,1023.0,1023.0,1023.0,1023.0,1023.0,1023.0,1023.0,1023.0,1023.0,1024.0,1024.0,1023.0,1024.0,1023.0,1023.0,1023.0,1024.0,1024.0,1023.0,1023.0,1023.0,1023.0,1024.0,1023.0,1022.0,1023.0,1024.0,1024.0,1023.0,1024.0,1024.0,1024.0,1024.0,1022.0,1024.0,1024.0,1023.0,1022.0,1024.0,1023.0,1023.0,1022.0,1022.0,1023.0,1024.0,1024.0,1023.0,1023.0,1024.0,1023.0,1023.0,1022.0,1023.0,1023.0,1023.0,1024.0,1023.0,1023.0,1023.0,1023.0,1023.0,1021.0,1023.0,1023.0,1024.0,1024.0,1023.0,1023.0,1024.0,1024.0,1023.0,1023.0,1022.0,1023.0,1024.0,1024.0,1024.0,1023.0,1024.0,1024.0,1023.0,1024.0,1022.0,1023.0,1024.0,1025.0,1025.0,1024.0,1024.0,1024.0,1024.0,1024.0,1023.0,1023.0,1025.0,1025.0,1024.0,1024.0,1024.0,1024.0,1024.0,1024.0,1023.0,1023.0,1022.0,1023.0,1023.0,1024.0,1024.0,1023.0,1023.0,1021.0,1022.0,1023.0,1024.0,1024.0,1023.0,1024.0,1023.0,1024.0,1023.0,1023.0,1023.0,1023.0,1024.0,1023.0,1023.0,1023.0,1024.0,1025.0,1024.0,1024.0,1024.0,1024.0,1024.0,1024.0,1024.0,1024.0,1024.0,1025.0,1024.0,1025.0,1024.0,1024.0,1024.0,1024.0,1025.0,1025.0,1024.0,1025.0,1025.0,1024.0,1026.0,1025.0,1025.0,1027.0,1026.0,1026.0,1028.0,1027.0,1025.0,1029.0,1028.0,1029.0,1031.0,1028.0,1026.0,1029.0,1031.0,1030.0,1034.0,1030.0,1027.0,1030.0,1030.0,1029.0,1034.0,1031.0,1028.0,1033.0,1033.0,1030.0,1036.0,1033.0,1029.0,1034.0,1035.0,1030.0,1037.0,1033.0,1029.0,1031.0,1032.0,1029.0,1035.0,1031.0,1032.0,1033.0,1033.0,1029.0,1034.0,1031.0,1023.0,1023.0,1023.0,1023.0,1024.0,1023.0,1037.0,1038.0,1035.0,1032.0,1039.0,1037.0,1032.0,1035.0,1033.0,1033.0,1037.0,1035.0,1028.0,1031.0,1029.0,1029.0,1032.0,2003,2016,1909,	00:32:15.909,0.05615234375,0.041015625,1.01708984375,-0.244140625,0.18310546875,0.06103515625,2.2686767578125,-3.1640625,54.2779541015625,460.0,-1597.0,-2576.0,0.889129638671875,0.030181884765625,-0.015533447265625,0.456390380859375,2.266821934940457,-3.1614623987397543,49.66829630255325,0.9067753011374315,0.029527915554310953,-0.016725169174273434,0.4202462660943338,1,	00:32:15.910,0.00732421875,0.078125,1.0048828125,-0.9765625,-1.28173828125,-0.48828125,4.4384765625,-0.4339599609375,94.8504638671875,-367.0,-1316.0,-1934.0,-0.675933837890625,-0.02899169921875,-0.0260009765625,-0.735931396484375,4.44113025856916,-0.4313374307954433,96.20478008682927,-0.6671867501830936,-0.028674447695562478,-0.026328523390597304,-0.7438725867280951,1
1782117443.137862,0.426,1024.0,1023.0,1023.0,1023.0,1023.0,1023.0,1023.0,1023.0,1023.0,1023.0,1023.0,1023.0,1023.0,1023.0,1023.0,1023.0,1023.0,1024.0,1023.0,1023.0,1023.0,1023.0,1023.0,1023.0,1024.0,1024.0,1024.0,1023.0,1023.0,1023.0,1024.0,1023.0,1022.0,1024.0,1024.0,1023.0,1023.0,1024.0,1024.0,1024.0,1023.0,1022.0,1024.0,1023.0,1023.0,1023.0,1023.0,1023.0,1023.0,1022.0,1022.0,1023.0,1024.0,1024.0,1023.0,1023.0,1023.0,1024.0,1023.0,1022.0,1022.0,1023.0,1023.0,1024.0,1023.0,1023.0,1024.0,1023.0,1023.0,1021.0,1022.0,1023.0,1023.0,1023.0,1023.0,1023.0,1023.0,1023.0,1024.0,1022.0,1022.0,1023.0,1024.0,1024.0,1024.0,1023.0,1023.0,1024.0,1024.0,1023.0,1023.0,1023.0,1025.0,1025.0,1024.0,1024.0,1024.0,1024.0,1024.0,1025.0,1023.0,1023.0,1024.0,1025.0,1024.0,1023.0,1024.0,1024.0,1024.0,1024.0,1023.0,1023.0,1022.0,1024.0,1023.0,1023.0,1024.0,1023.0,1023.0,1020.0,1022.0,1023.0,1024.0,1024.0,1024.0,1024.0,1024.0,1024.0,1022.0,1023.0,1024.0,1023.0,1023.0,1023.0,1024.0,1023.0,1024.0,1024.0,1024.0,1024.0,1024.0,1024.0,1024.0,1023.0,1025.0,1024.0,1024.0,1025.0,1024.0,1025.0,1023.0,1025.0,1023.0,1024.0,1025.0,1024.0,1024.0,1025.0,1025.0,1025.0,1026.0,1025.0,1025.0,1027.0,1026.0,1027.0,1029.0,1028.0,1025.0,1028.0,1029.0,1028.0,1031.0,1028.0,1027.0,1030.0,1031.0,1029.0,1034.0,1030.0,1027.0,1030.0,1031.0,1029.0,1034.0,1031.0,1029.0,1032.0,1034.0,1029.0,1036.0,1033.0,1030.0,1034.0,1035.0,1030.0,1037.0,1034.0,1029.0,1031.0,1032.0,1029.0,1034.0,1032.0,1032.0,1032.0,1032.0,1029.0,1035.0,1032.0,1023.0,1023.0,1023.0,1023.0,1024.0,1023.0,1036.0,1038.0,1035.0,1033.0,1039.0,1037.0,1032.0,1035.0,1033.0,1033.0,1038.0,1035.0,1028.0,1031.0,1028.0,1029.0,1031.0,2004,2016,1909,	00:32:15.919,0.056640625,0.0419921875,1.01806640625,-0.244140625,0.18310546875,0.0,2.3565673828125,-3.1805419921875,54.2724609375,462.0,-1593.0,-2576.0,0.889129638671875,0.030914306640625,-0.01531982421875,0.45635986328125,2.3540584617265083,-3.1787106283028645,49.66340977514592,0.906765403874217,0.030280615385735742,-0.01654308470694941,0.42022126673583277,1,	00:32:15.920,0.0068359375,0.07861328125,1.0048828125,-1.03759765625,-1.28173828125,-0.54931640625,4.4879150390625,-0.3680419921875,94.844970703125,-368.0,-1320.0,-1936.0,-0.675994873046875,-0.02886962890625,-0.026641845703125,-0.735870361328125,4.485767728576188,-0.3704187513389149,96.19792087842497,-0.667236780935129,-0.02854060449087578,-0.026971371602949646,-0.7438098259477873,1
1782117443.148241,0.436,1023.0,1023.0,1023.0,1022.0,1023.0,1022.0,1023.0,1023.0,1023.0,1023.0,1023.0,1023.0,1023.0,1024.0,1024.0,1023.0,1024.0,1023.0,1023.0,1023.0,1023.0,1023.0,1023.0,1022.0,1023.0,1024.0,1023.0,1023.0,1024.0,1023.0,1023.0,1023.0,1022.0,1024.0,1024.0,1024.0,1023.0,1024.0,1024.0,1024.0,1024.0,1023.0,1023.0,1024.0,1023.0,1023.0,1023.0,1024.0,1023.0,1023.0,1022.0,1023.0,1024.0,1023.0,1023.0,1023.0,1023.0,1024.0,1023.0,1022.0,1022.0,1023.0,1023.0,1023.0,1023.0,1023.0,1024.0,1023.0,1023.0,1022.0,1022.0,1023.0,1023.0,1023.0,1023.0,1023.0,1024.0,1023.0,1023.0,1023.0,1023.0,1023.0,1024.0,1024.0,1024.0,1024.0,1024.0,1024.0,1024.0,1023.0,1022.0,1023.0,1025.0,1025.0,1024.0,1024.0,1024.0,1024.0,1024.0,1024.0,1023.0,1023.0,1025.0,1025.0,1024.0,1024.0,1024.0,1024.0,1024.0,1024.0,1023.0,1023.0,1022.0,1023.0,1023.0,1023.0,1024.0,1023.0,1023.0,1021.0,1022.0,1024.0,1024.0,1024.0,1023.0,1024.0,1024.0,1024.0,1022.0,1023.0,1024.0,1023.0,1023.0,1024.0,1023.0,1023.0,1024.0,1024.0,1024.0,1024.0,1024.0,1024.0,1025.0,1024.0,1024.0,1024.0,1024.0,1024.0,1024.0,1025.0,1024.0,1024.0,1024.0,1024.0,1025.0,1024.0,1024.0,1025.0,1025.0,1025.0,1026.0,1025.0,1025.0,1026.0,1027.0,1027.0,1028.0,1027.0,1025.0,1028.0,1029.0,1028.0,1030.0,1028.0,1027.0,1029.0,1031.0,1029.0,1034.0,1030.0,1028.0,1030.0,1031.0,1029.0,1034.0,1031.0,1029.0,1032.0,1033.0,1029.0,1037.0,1033.0,1031.0,1033.0,1035.0,1030.0,1037.0,1034.0,1030.0,1031.0,1032.0,1028.0,1035.0,1032.0,1033.0,1032.0,1032.0,1029.0,1034.0,1031.0,1024.0,1023.0,1022.0,1023.0,1024.0,1022.0,1037.0,1038.0,1034.0,1032.0,1039.0,1037.0,1033.0,1035.0,1032.0,1033.0,1038.0,1035.0,1029.0,1031.0,1028.0,1029.0,1032.0,2003,2016,1909,	00:32:15.930,0.05517578125,0.041015625,1.017578125,-0.244140625,0.18310546875,0.06103515625,2.30712890625,-3.09814453125,54.2779541015625,463.0,-1595.0,-2578.0,0.88916015625,0.03021240234375,-0.014892578125,0.45635986328125,2.304982181059302,-3.098160987415796,49.666645281096294,0.9067898253905357,0.02959804916911661,-0.016084482721665343,0.42023500267012615,1,	00:32:15.931,0.0078125,0.07861328125,1.00390625,-1.0986328125,-1.28173828125,-0.48828125,4.4659423828125,-0.472412109375,94.833984375,-366.0,-1319.0,-1935.0,-0.675994873046875,-0.029388427734375,-0.02587890625,-0.735870361328125,4.464713911448195,-0.4739299994969667,96.19213477269047,-0.6672511619264905,-0.029091066387511265,-0.02623033876139231,-0.7438021014306483,1
1782117443.158773,0.446,1024.0,1022.0,1023.0,1023.0,1023.0,1022.0,1022.0,1023.0,1023.0,1024.0,1024.0,1023.0,1023.0,1023.0,1023.0,1023.0,1024.0,1024.0,1024.0,1023.0,1024.0,1023.0,1023.0,1022.0,1024.0,1023.0,1023.0,1023.0,1023.0,1023.0,1023.0,1023.0,1022.0,1024.0,1024.0,1024.0,1023.0,1024.0,1024.0,1024.0,1024.0,1023.0,1023.0,1023.0,1023.0,1023.0,1024.0,1023.0,1023.0,1022.0,1022.0,1023.0,1024.0,1024.0,1023.0,1023.0,1024.0,1024.0,1023.0,1022.0,1022.0,1023.0,1024.0,1023.0,1023.0,1023.0,1023.0,1023.0,1023.0,1022.0,1022.0,1023.0,1023.0,1023.0,1023.0,1023.0,1024.0,1023.0,1023.0,1022.0,1022.0,1023.0,1024.0,1024.0,1024.0,1023.0,1024.0,1023.0,1023.0,1023.0,1023.0,1023.0,1025.0,1024.0,1024.0,1024.0,1024.0,1024.0,1024.0,1024.0,1023.0,1023.0,1024.0,1025.0,1024.0,1024.0,1025.0,1024.0,1024.0,1023.0,1023.0,1023.0,1023.0,1023.0,1023.0,1023.0,1024.0,1023.0,1023.0,1021.0,1022.0,1023.0,1024.0,1023.0,1024.0,1024.0,1023.0,1023.0,1022.0,1023.0,1024.0,1023.0,1023.0,1024.0,1023.0,1024.0,1024.0,1024.0,1024.0,1024.0,1025.0,1024.0,1025.0,1024.0,1024.0,1024.0,1024.0,1025.0,1024.0,1025.0,1024.0,1024.0,1024.0,1024.0,1025.0,1024.0,1024.0,1024.0,1025.0,1025.0,1026.0,1025.0,1025.0,1026.0,1027.0,1027.0,1029.0,1027.0,1025.0,1029.0,1028.0,1028.0,1031.0,1029.0,1026.0,1029.0,1031.0,1029.0,1034.0,1030.0,1027.0,1030.0,1031.0,1029.0,1034.0,1031.0,1028.0,1032.0,1033.0,1030.0,1037.0,1033.0,1031.0,1034.0,1035.0,1030.0,1038.0,1033.0,1030.0,1031.0,1031.0,1028.0,1035.0,1032.0,1032.0,1032.0,1032.0,1029.0,1035.0,1031.0,1023.0,1023.0,1023.0,1023.0,1024.0,1023.0,1037.0,1038.0,1035.0,1032.0,1039.0,1037.0,1032.0,1035.0,1033.0,1033.0,1038.0,1035.0,1029.0,1031.0,1028.0,1030.0,1031.0,2003,2016,1909,	00:32:15.940,0.0556640625,0.04345703125,1.0166015625,-0.244140625,0.18310546875,0.06103515625,2.3895263671875,-3.1146240234375,54.2724609375,460.0,-1595.0,-2576.0,0.889129638671875,0.030975341796875,-0.014678955078125,0.45635986328125,2.391812597421926,-3.1170572830680645,49.66248860835402,0.9067768789395872,0.030353702669875225,-0.015916756023929054,0.42021542264948397,1,	00:32:15.941,0.0068359375,0.07763671875,1.00439453125,-0.9765625,-1.220703125,-0.48828125,4.4110107421875,-0.406494140625,94.8284912109375,-367.0,-1317.0,-1935.0,-0.676055908203125,-0.028656005859375,-0.025970458984375,-0.735809326171875,4.412409978216077,-0.40463330910932743,96.18663674239421,-0.6673189302030141,-0.028338084634552643,-0.02629312874920075,-0.7437681559011031,1
1782117443.170839,0.459,1023.0,1023.0,1023.0,1023.0,1023.0,1023.0,1022.0,1024.0,1023.0,1024.0,1024.0,1023.0,1023.0,1024.0,1023.0,1023.0,1023.0,1024.0,1023.0,1023.0,1023.0,1024.0,1023.0,1023.0,1024.0,1023.0,1024.0,1023.0,1024.0,1024.0,1023.0,1023.0,1022.0,1024.0,1024.0,1024.0,1023.0,1024.0,1024.0,1024.0,1024.0,1023.0,1024.0,1024.0,1023.0,1023.0,1023.0,1023.0,1023.0,1022.0,1023.0,1023.0,1024.0,1024.0,1023.0,1023.0,1023.0,1023.0,1024.0,1022.0,1022.0,1023.0,1023.0,1023.0,1023.0,1023.0,1024.0,1023.0,1023.0,1021.0,1022.0,1023.0,1023.0,1024.0,1023.0,1023.0,1024.0,1023.0,1023.0,1022.0,1023.0,1023.0,1024.0,1024.0,1024.0,1023.0,1024.0,1023.0,1024.0,1023.0,1023.0,1023.0,1025.0,1025.0,1024.0,1024.0,1024.0,1024.0,1024.0,1024.0,1023.0,1023.0,1024.0,1024.0,1024.0,1024.0,1024.0,1024.0,1024.0,1024.0,1023.0,1024.0,1022.0,1023.0,1023.0,1023.0,1023.0,1023.0,1023.0,1021.0,1023.0,1024.0,1024.0,1023.0,1024.0,1024.0,1023.0,1024.0,1022.0,1024.0,1024.0,1023.0,1023.0,1024.0,1023.0,1023.0,1024.0,1025.0,1024.0,1024.0,1024.0,1024.0,1024.0,1024.0,1025.0,1024.0,1024.0,1024.0,1025.0,1025.0,1023.0,1024.0,1024.0,1024.0,1025.0,1024.0,1024.0,1025.0,1024.0,1025.0,1025.0,1025.0,1024.0,1027.0,1026.0,1027.0,1029.0,1027.0,1025.0,1028.0,1028.0,1029.0,1031.0,1028.0,1026.0,1029.0,1031.0,1029.0,1035.0,1030.0,1027.0,1030.0,1031.0,1029.0,1034.0,1031.0,1028.0,1032.0,1034.0,1030.0,1037.0,1033.0,1030.0,1033.0,1035.0,1031.0,1038.0,1034.0,1029.0,1031.0,1032.0,1029.0,1035.0,1032.0,1031.0,1032.0,1032.0,1029.0,1034.0,1031.0,1023.0,1023.0,1022.0,1023.0,1024.0,1022.0,1037.0,1038.0,1035.0,1032.0,1039.0,1037.0,1032.0,1034.0,1033.0,1033.0,1038.0,1035.0,1029.0,1030.0,1028.0,1030.0,1032.0,2003,2016,1909,	00:32:15.950,0.0556640625,0.04248046875,1.01708984375,-0.244140625,0.18310546875,0.06103515625,2.3895263671875,-3.2080078125,54.2724609375,462.0,-1597.0,-2575.0,0.88909912109375,0.03131103515625,-0.015380859375,0.45635986328125,2.3882764183135814,-3.2067839602688677,49.6632360985759,0.9067486224823729,0.030654047819725368,-0.016639910077834715,0.4202265798009292,1,	00:32:15.951,0.0078125,0.07763671875,1.0068359375,-1.0986328125,-1.220703125,-0.48828125,4.39453125,-0.50537109375,94.822998046875,-366.0,-1320.0,-1937.0,-0.67608642578125,-0.029205322265625,-0.025238037109375,-0.735809326171875,4.394181755418573,-0.5078123817539836,96.18089695892034,-0.6673326020119889,-0.028902737599650466,-0.025572313782243807,-0.7437592936017515,1
1782117443.178958,0.467,1024.0,1023.0,1023.0,1023.0,1023.0,1023.0,1023.0,1024.0,1023.0,1023.0,1024.0,1023.0,1023.0,1024.0,1023.0,1023.0,1023.0,1024.0,1023.0,1023.0,1023.0,1023.0,1024.0,1023.0,1023.0,1024.0,1023.0,1024.0,1024.0,1023.0,1023.0,1023.0,1022.0,1024.0,1024.0,1024.0,1024.0,1024.0,1024.0,1024.0,1023.0,1022.0,1023.0,1024.0,1023.0,1023.0,1024.0,1024.0,1023.0,1021.0,1022.0,1024.0,1023.0,1024.0,1023.0,1023.0,1024.0,1023.0,1024.0,1022.0,1022.0,1023.0,1024.0,1023.0,1023.0,1023.0,1024.0,1023.0,1023.0,1022.0,1022.0,1023.0,1023.0,1024.0,1023.0,1023.0,1023.0,1023.0,1023.0,1022.0,1022.0,1023.0,1023.0,1024.0,1024.0,1024.0,1023.0,1023.0,1024.0,1023.0,1022.0,1023.0,1024.0,1024.0,1025.0,1024.0,1024.0,1024.0,1024.0,1024.0,1023.0,1023.0,1024.0,1025.0,1025.0,1024.0,1024.0,1024.0,1024.0,1024.0,1023.0,1023.0,1023.0,1023.0,1022.0,1023.0,1023.0,1023.0,1023.0,1021.0,1022.0,1024.0,1024.0,1024.0,1023.0,1024.0,1023.0,1024.0,1022.0,1023.0,1024.0,1024.0,1023.0,1023.0,1024.0,1023.0,1024.0,1024.0,1025.0,1024.0,1024.0,1024.0,1024.0,1024.0,1024.0,1024.0,1024.0,1024.0,1024.0,1025.0,1024.0,1024.0,1024.0,1024.0,1025.0,1024.0,1024.0,1024.0,1025.0,1024.0,1026.0,1025.0,1025.0,1026.0,1026.0,1027.0,1029.0,1027.0,1025.0,1028.0,1028.0,1029.0,1031.0,1029.0,1026.0,1029.0,1032.0,1029.0,1035.0,1029.0,1027.0,1030.0,1032.0,1028.0,1034.0,1030.0,1028.0,1032.0,1034.0,1030.0,1036.0,1033.0,1030.0,1033.0,1036.0,1030.0,1037.0,1033.0,1029.0,1030.0,1033.0,1029.0,1035.0,1032.0,1032.0,1032.0,1032.0,1029.0,1034.0,1032.0,1023.0,1022.0,1023.0,1023.0,1024.0,1022.0,1037.0,1038.0,1035.0,1032.0,1040.0,1037.0,1032.0,1035.0,1033.0,1033.0,1038.0,1035.0,1029.0,1031.0,1028.0,1030.0,1032.0,2003,2016,1909,	00:32:15.960,0.05712890625,0.041015625,1.01708984375,-0.244140625,0.244140625,0.1220703125,2.296142578125,-3.2080078125,54.2779541015625,460.0,-1596.0,-2577.0,0.88909912109375,0.03057861328125,-0.01580810546875,0.456390380859375,2.294226718642331,-3.2107420302912275,49.66968323143908,0.9067486648761103,0.02992527071975855,-0.017014453736945157,0.4202640185428368,1,	00:32:15.962,0.00732421875,0.07861328125,1.00341796875,-0.9765625,-1.220703125,-0.48828125,4.449462890625,-0.450439453125,94.8175048828125,-366.0,-1319.0,-1936.0,-0.676116943359375,-0.0291748046875,-0.02587890625,-0.735748291015625,4.44722716735729,-0.45292215131714414,96.17456238976469,-0.6673754349015385,-0.028856944772162413,-0.02623477896553242,-0.7436995643410238,1
1782117443.189638,0.477,1024.0,1023.0,1024.0,1023.0,1024.0,1023.0,1023.0,1024.0,1023.0,1023.0,1023.0,1023.0,1023.0,1023.0,1024.0,1023.0,1024.0,1023.0,1023.0,1023.0,1024.0,1024.0,1023.0,1023.0,1024.0,1024.0,1023.0,1023.0,1024.0,1024.0,1023.0,1023.0,1022.0,1024.0,1024.0,1024.0,1024.0,1024.0,1023.0,1023.0,1023.0,1023.0,1024.0,1024.0,1023.0,1023.0,1024.0,1023.0,1023.0,1022.0,1022.0,1023.0,1024.0,1023.0,1023.0,1023.0,1023.0,1023.0,1023.0,1022.0,1022.0,1023.0,1023.0,1023.0,1022.0,1023.0,1023.0,1023.0,1022.0,1021.0,1022.0,1023.0,1023.0,1023.0,1024.0,1023.0,1024.0,1023.0,1023.0,1022.0,1022.0,1023.0,1024.0,1024.0,1023.0,1024.0,1024.0,1023.0,1023.0,1023.0,1023.0,1023.0,1025.0,1024.0,1024.0,1024.0,1024.0,1024.0,1024.0,1024.0,1023.0,1023.0,1025.0,1025.0,1024.0,1024.0,1024.0,1024.0,1024.0,1023.0,1023.0,1023.0,1023.0,1023.0,1023.0,1024.0,1023.0,1023.0,1023.0,1020.0,1022.0,1024.0,1024.0,1024.0,1024.0,1024.0,1023.0,1023.0,1023.0,1023.0,1024.0,1023.0,1023.0,1023.0,1023.0,1023.0,1024.0,1025.0,1024.0,1024.0,1024.0,1024.0,1025.0,1024.0,1024.0,1024.0,1024.0,1025.0,1024.0,1025.0,1024.0,1024.0,1024.0,1024.0,1024.0,1024.0,1024.0,1025.0,1024.0,1025.0,1025.0,1025.0,1025.0,1027.0,1027.0,1027.0,1028.0,1027.0,1025.0,1028.0,1029.0,1028.0,1031.0,1028.0,1026.0,1029.0,1031.0,1029.0,1034.0,1030.0,1027.0,1030.0,1031.0,1029.0,1034.0,1031.0,1028.0,1032.0,1034.0,1030.0,1037.0,1033.0,1030.0,1034.0,1036.0,1031.0,1038.0,1034.0,1030.0,1031.0,1032.0,1029.0,1035.0,1032.0,1032.0,1032.0,1032.0,1029.0,1035.0,1031.0,1023.0,1023.0,1022.0,1023.0,1024.0,1022.0,1037.0,1038.0,1034.0,1033.0,1040.0,1037.0,1033.0,1035.0,1033.0,1033.0,1037.0,1035.0,1029.0,1031.0,1029.0,1029.0,1032.0,2003,2016,1909,	00:32:15.971,0.05419921875,0.041015625,1.01806640625,-0.244140625,0.244140625,0.1220703125,2.296142578125,-3.1146240234375,54.2779541015625,462.0,-1596.0,-2577.0,0.889129638671875,0.030242919921875,-0.015045166015625,0.456390380859375,2.2987841482397804,-3.117074119924751,49.67061039365481,0.9067714326805334,0.029618761191057944,-0.016255926787854796,0.42026663287045274,1,	00:32:15.972,0.0068359375,0.07861328125,1.00341796875,-0.91552734375,-1.220703125,-0.48828125,4.482421875,-0.384521484375,94.81201171875,-367.0,-1316.0,-1935.0,-0.676177978515625,-0.028900146484375,-0.026519775390625,-0.735687255859375,4.479704838959367,-0.38305848013414845,96.16843874528183,-0.6674261858933798,-0.02859423642235397,-0.02685104279859859,-0.7436421703533668,1
1782117443.200230,0.488,1024.0,1022.0,1023.0,1023.0,1023.0,1023.0,1023.0,1024.0,1022.0,1024.0,1023.0,1023.0,1023.0,1023.0,1023.0,1023.0,1024.0,1024.0,1023.0,1023.0,1024.0,1023.0,1023.0,1023.0,1024.0,1023.0,1024.0,1023.0,1023.0,1023.0,1023.0,1023.0,1022.0,1024.0,1024.0,1024.0,1023.0,1024.0,1024.0,1024.0,1023.0,1022.0,1024.0,1023.0,1023.0,1023.0,1024.0,1024.0,1024.0,1022.0,1023.0,1023.0,1023.0,1023.0,1023.0,1023.0,1024.0,1023.0,1022.0,1022.0,1022.0,1023.0,1024.0,1024.0,1023.0,1023.0,1023.0,1023.0,1023.0,1022.0,1022.0,1023.0,1024.0,1023.0,1023.0,1023.0,1024.0,1023.0,1023.0,1022.0,1023.0,1023.0,1024.0,1024.0,1023.0,1024.0,1024.0,1023.0,1024.0,1023.0,1022.0,1024.0,1026.0,1025.0,1024.0,1024.0,1024.0,1024.0,1024.0,1024.0,1023.0,1023.0,1026.0,1025.0,1024.0,1024.0,1024.0,1024.0,1024.0,1023.0,1023.0,1023.0,1024.0,1023.0,1023.0,1023.0,1023.0,1023.0,1023.0,1021.0,1022.0,1024.0,1024.0,1024.0,1024.0,1023.0,1023.0,1024.0,1022.0,1024.0,1023.0,1023.0,1024.0,1024.0,1023.0,1023.0,1025.0,1025.0,1024.0,1024.0,1025.0,1024.0,1025.0,1024.0,1024.0,1024.0,1024.0,1024.0,1024.0,1025.0,1024.0,1024.0,1024.0,1024.0,1024.0,1024.0,1024.0,1024.0,1024.0,1025.0,1026.0,1025.0,1025.0,1027.0,1027.0,1027.0,1028.0,1027.0,1026.0,1028.0,1028.0,1028.0,1031.0,1028.0,1027.0,1029.0,1031.0,1029.0,1034.0,1030.0,1028.0,1030.0,1031.0,1029.0,1034.0,1031.0,1029.0,1032.0,1034.0,1030.0,1037.0,1033.0,1031.0,1033.0,1035.0,1030.0,1038.0,1033.0,1030.0,1031.0,1032.0,1028.0,1035.0,1032.0,1033.0,1032.0,1032.0,1029.0,1035.0,1031.0,1023.0,1023.0,1022.0,1023.0,1024.0,1022.0,1038.0,1038.0,1035.0,1033.0,1040.0,1037.0,1033.0,1034.0,1033.0,1033.0,1038.0,1035.0,1029.0,1031.0,1028.0,1029.0,1032.0,2003,2016,1909,	00:32:15.981,0.0556640625,0.04150390625,1.01806640625,-0.244140625,0.244140625,0.06103515625,2.384033203125,-3.1365966796875,54.2779541015625,463.0,-1596.0,-2575.0,0.889129638671875,0.031005859375,-0.014892578125,0.456390380859375,2.384618470655028,-3.139222458360083,49.666500428217134,0.9067575905424362,0.0303784207254015,-0.01611756156501477,0.42024760291654706,1,	00:32:15.982,0.0078125,0.0791015625,1.0048828125,-0.9765625,-1.220703125,-0.48828125,4.4989013671875,-0.4833984375,94.8065185546875,-366.0,-1315.0,-1934.0,-0.676177978515625,-0.0296630859375,-0.02606201171875,-0.735687255859375,4.5000303026988115,-0.4814032271562629,96.16239906802215,-0.6674330647741178,-0.029352054585849566,-0.02640842600980496,-0.743622320787577,1
