Unix_Time_s,RelativeTime_s,P_1,P_2,P_3,P_4,P_5,P_6,P_7,P_8,P_9,P_10,P_11,P_12,P_13,P_14,P_15,P_16,P_17,P_18,P_19,P_20,P_21,P_22,P_23,P_24,P_25,P_26,P_27,P_28,P_29,P_30,P_31,P_32,P_33,P_34,P_35,P_36,P_37,P_38,P_39,P_40,P_41,P_42,P_43,P_44,P_45,P_46,P_47,P_48,P_49,P_50,P_51,P_52,P_53,P_54,P_55,P_56,P_57,P_58,P_59,P_60,P_61,P_62,P_63,P_64,P_65,P_66,P_67,P_68,P_69,P_70,P_71,P_72,P_73,P_74,P_75,P_76,P_77,P_78,P_79,P_80,P_81,P_82,P_83,P_84,P_85,P_86,P_87,P_88,P_89,P_90,P_91,P_92,P_93,P_94,P_95,P_96,P_97,P_98,P_99,P_100,P_101,P_102,P_103,P_104,P_105,P_106,P_107,P_108,P_109,P_110,P_111,P_112,P_113,P_114,P_115,P_116,P_117,P_118,P_119,P_120,P_121,P_122,P_123,P_124,P_125,P_126,P_127,P_128,P_129,P_130,P_131,P_132,P_133,P_134,P_135,P_136,P_137,P_138,P_139,P_140,P_141,P_142,P_143,P_144,P_145,P_146,P_147,P_148,P_149,P_150,P_151,P_152,P_153,P_154,P_155,P_156,P_157,P_158,P_159,P_160,P_161,P_162,P_163,P_164,P_165,P_166,P_167,P_168,P_169,P_170,P_171,P_172,P_173,P_174,P_175,P_176,P_177,P_178,P_179,P_180,P_181,P_182,P_183,P_184,P_185,P_186,P_187,P_188,P_189,P_190,P_191,P_192,P_193,P_194,P_195,P_196,P_197,P_198,P_199,P_200,P_201,P_202,P_203,P_204,P_205,P_206,P_207,P_208,P_209,P_210,P_211,P_212,P_213,P_214,P_215,P_216,P_217,P_218,P_219,P_220,P_221,P_222,P_223,P_224,P_225,P_226,P_227,P_228,P_229,P_230,P_231,P_232,P_233,Flex1,Flex2,Bat,IMU1_RefTime,IMU1_Ax,IMU1_Ay,IMU1_Az,IMU1_Wx,IMU1_Wy,IMU1_Wz,IMU1_Roll,IMU1_Pitch,IMU1_Yaw,IMU1_Hx,IMU1_Hy,IMU1_Hz,IMU1_Q0,IMU1_Q1,IMU1_Q2,IMU1_Q3,IMU2_RefTime,IMU2_Ax,IMU2_Ay,IMU2_Az,IMU2_Wx,IMU2_Wy,IMU2_Wz,IMU2_Roll,IMU2_Pitch,IMU2_Yaw,IMU2_Hx,IMU2_Hy,IMU2_Hz,IMU2_Q0,IMU2_Q1,IMU2_Q2,IMU2_Q3,IMU1_FusedRoll,IMU1_FusedPitch,IMU1_FusedYaw,IMU1_FusedQ0,IMU1_FusedQ1,IMU1_FusedQ2,IMU1_FusedQ3,IMU1_MagValid,IMU2_FusedRoll,IMU2_FusedPitch,IMU2_FusedYaw,IMU2_FusedQ0,IMU2_FusedQ1,IMU2_FusedQ2,IMU2_FusedQ3,IMU2_MagValid
1782117442.723711,0.011,1020.0,1029.0,1019.0,1022.0,1018.0,1029.0,1020.0,1021.0,1009.0,1022.0,1019.0,1029.0,1020.0,1021.0,1009.0,1020.0,1023.0,1019.0,1030.0,1021.0,1022.0,1009.0,1021.0,1021.0,1023.0,1019.0,1030.0,1020.0,1022.0,1009.0,1020.0,1020.0,1019.0,1023.0,1019.0,1030.0,1021.0,1021.0,1009.0,1020.0,1020.0,1020.0,1023.0,1019.0,1030.0,1020.0,1021.0,1009.0,1020.0,1020.0,1020.0,1019.0,1023.0,1020.0,1029.0,1020.0,1021.0,1009.0,1020.0,1020.0,1020.0,1018.0,1024.0,1020.0,1031.0,1020.0,1022.0,1009.0,1019.0,1021.0,1020.0,1020.0,1023.0,1020.0,1031.0,1021.0,1022.0,1010.0,1020.0,1021.0,1021.0,1020.0,1023.0,1021.0,1030.0,1021.0,1022.0,1009.0,1020.0,1021.0,1021.0,1020.0,1025.0,1022.0,1032.0,1021.0,1023.0,1009.0,1020.0,1022.0,1022.0,1021.0,1024.0,1021.0,1032.0,1021.0,1023.0,1009.0,1020.0,1021.0,1021.0,1019.0,1026.0,1022.0,1033.0,1021.0,1024.0,1010.0,1020.0,1023.0,1023.0,1025.0,1022.0,1033.0,1021.0,1024.0,1011.0,1020.0,1022.0,1024.0,1021.0,1032.0,1021.0,1023.0,1010.0,1020.0,1025.0,1022.0,1032.0,1021.0,1024.0,1011.0,1020.0,1024.0,1021.0,1031.0,1021.0,1023.0,1011.0,1020.0,1024.0,1020.0,1031.0,1021.0,1022.0,1011.0,1024.0,1020.0,1031.0,1021.0,1021.0,1010.0,1024.0,1020.0,1031.0,1021.0,1023.0,1012.0,1024.0,1021.0,1031.0,1022.0,1024.0,1012.0,1023.0,1020.0,1031.0,1021.0,1022.0,1011.0,1025.0,1022.0,1032.0,1023.0,1023.0,1013.0,1024.0,1021.0,1032.0,1022.0,1023.0,1013.0,1025.0,1022.0,1033.0,1022.0,1024.0,1014.0,1025.0,1023.0,1034.0,1022.0,1024.0,1015.0,1029.0,1024.0,1036.0,1023.0,1024.0,1018.0,1030.0,1027.0,1038.0,1024.0,1025.0,1022.0,1032.0,1028.0,1040.0,1024.0,1024.0,1024.0,1041.0,1037.0,1053.0,1030.0,1029.0,1097.0,1038.0,1035.0,1051.0,1029.0,1028.0,2282,2237,1901,	00:32:13.596,-0.00830078125,0.052734375,1.021484375,0.0,0.3662109375,0.18310546875,2.9608154296875,0.4669189453125,-40.84716796875,35.0,-473.0,-4136.0,-0.936767578125,-0.025634765625,0.00518798828125,0.34893798828125,2.958879895190907,0.4683724763885436,-45.320533267663116,-0.9224495097072799,-0.025399181559023952,0.006176273268893594,0.3852319265915518,1,	00:32:13.597,0.025390625,0.06396484375,1.01953125,-0.06103515625,0.18310546875,0.42724609375,3.5540771484375,-1.4337158203125,124.6343994140625,-73.0,711.0,-1797.0,0.463958740234375,0.025482177734375,0.021636962890625,0.885223388671875,3.554125695911515,-1.433755368691149,117.51527422126821,0.5180375512238896,0.02677468276970715,0.020025309974319255,0.8547041586683488,1
1782117442.733733,0.021,1020.0,1028.0,1020.0,1022.0,1018.0,1030.0,1020.0,1021.0,1009.0,1022.0,1019.0,1030.0,1020.0,1022.0,1008.0,1019.0,1023.0,1019.0,1030.0,1021.0,1022.0,1009.0,1020.0,1021.0,1023.0,1019.0,1029.0,1021.0,1022.0,1008.0,1020.0,1020.0,1020.0,1023.0,1019.0,1030.0,1021.0,1022.0,1009.0,1020.0,1020.0,1020.0,1023.0,1019.0,1030.0,1021.0,1021.0,1008.0,1020.0,1020.0,1020.0,1019.0,1023.0,1019.0,1029.0,1020.0,1021.0,1008.0,1019.0,1020.0,1019.0,1018.0,1024.0,1020.0,1031.0,1020.0,1023.0,1009.0,1020.0,1021.0,1021.0,1020.0,1023.0,1020.0,1031.0,1020.0,1022.0,1009.0,1020.0,1021.0,1021.0,1020.0,1024.0,1021.0,1031.0,1021.0,1022.0,1009.0,1020.0,1020.0,1021.0,1020.0,1026.0,1022.0,1032.0,1021.0,1023.0,1009.0,1020.0,1021.0,1022.0,1021.0,1025.0,1021.0,1031.0,1021.0,1023.0,1009.0,1020.0,1020.0,1021.0,1019.0,1026.0,1023.0,1033.0,1021.0,1024.0,1010.0,1020.0,1022.0,1023.0,1025.0,1022.0,1032.0,1022.0,1024.0,1010.0,1020.0,1021.0,1024.0,1021.0,1032.0,1021.0,1023.0,1009.0,1020.0,1024.0,1022.0,1032.0,1021.0,1024.0,1011.0,1020.0,1024.0,1021.0,1032.0,1022.0,1022.0,1011.0,1020.0,1024.0,1020.0,1031.0,1021.0,1022.0,1010.0,1023.0,1020.0,1030.0,1021.0,1021.0,1010.0,1024.0,1021.0,1031.0,1021.0,1024.0,1011.0,1024.0,1021.0,1032.0,1022.0,1024.0,1012.0,1024.0,1020.0,1031.0,1021.0,1022.0,1011.0,1025.0,1021.0,1032.0,1022.0,1024.0,1013.0,1024.0,1021.0,1032.0,1022.0,1023.0,1013.0,1025.0,1022.0,1033.0,1022.0,1024.0,1014.0,1026.0,1023.0,1034.0,1023.0,1024.0,1015.0,1029.0,1025.0,1036.0,1023.0,1024.0,1018.0,1030.0,1027.0,1039.0,1024.0,1025.0,1022.0,1032.0,1028.0,1040.0,1024.0,1025.0,1024.0,1042.0,1037.0,1053.0,1030.0,1028.0,1096.0,1038.0,1036.0,1051.0,1029.0,1028.0,2282,2237,1902,	00:32:13.607,-0.00927734375,0.0537109375,1.02099609375,0.0,0.3662109375,0.18310546875,3.0267333984375,0.538330078125,-40.84716796875,38.0,-473.0,-4137.0,-0.936767578125,-0.0263671875,0.00482177734375,0.34893798828125,3.024251996886247,0.5361005112574815,-45.31794273099957,-0.9224351802892942,-0.026153110546397105,0.005850203000284726,0.385220882219877,1,	00:32:13.608,0.025390625,0.06396484375,1.02001953125,0.0,0.18310546875,0.42724609375,3.6419677734375,-1.40625,124.639892578125,-72.0,710.0,-1797.0,0.46392822265625,0.025604248046875,0.022430419921875,0.885223388671875,3.641460583351009,-1.4050085437978936,117.51748710635079,0.5180089145876561,0.026954783150285714,0.02080735078564183,0.8546971734048981,1
1782117442.744832,0.033,1020.0,1029.0,1020.0,1021.0,1019.0,1030.0,1020.0,1020.0,1009.0,1022.0,1018.0,1030.0,1021.0,1021.0,1009.0,1020.0,1022.0,1019.0,1030.0,1020.0,1022.0,1009.0,1019.0,1021.0,1022.0,1019.0,1030.0,1020.0,1021.0,1009.0,1020.0,1020.0,1020.0,1023.0,1019.0,1031.0,1021.0,1022.0,1009.0,1020.0,1020.0,1020.0,1023.0,1020.0,1030.0,1020.0,1022.0,1009.0,1020.0,1020.0,1020.0,1019.0,1022.0,1019.0,1030.0,1021.0,1022.0,1008.0,1019.0,1019.0,1020.0,1018.0,1023.0,1020.0,1030.0,1020.0,1023.0,1009.0,1020.0,1021.0,1021.0,1020.0,1024.0,1021.0,1031.0,1021.0,1023.0,1009.0,1020.0,1021.0,1021.0,1019.0,1024.0,1021.0,1031.0,1021.0,1022.0,1009.0,1020.0,1021.0,1021.0,1019.0,1025.0,1022.0,1032.0,1021.0,1024.0,1010.0,1020.0,1021.0,1022.0,1021.0,1024.0,1021.0,1032.0,1021.0,1022.0,1009.0,1020.0,1020.0,1021.0,1020.0,1025.0,1022.0,1032.0,1021.0,1024.0,1010.0,1021.0,1023.0,1023.0,1025.0,1022.0,1032.0,1022.0,1024.0,1010.0,1020.0,1022.0,1024.0,1021.0,1032.0,1021.0,1023.0,1010.0,1020.0,1024.0,1022.0,1033.0,1021.0,1024.0,1010.0,1021.0,1024.0,1021.0,1031.0,1021.0,1023.0,1011.0,1020.0,1024.0,1020.0,1031.0,1021.0,1022.0,1010.0,1023.0,1019.0,1030.0,1021.0,1022.0,1010.0,1024.0,1021.0,1032.0,1022.0,1023.0,1011.0,1024.0,1021.0,1032.0,1021.0,1023.0,1012.0,1024.0,1021.0,1032.0,1021.0,1022.0,1010.0,1025.0,1022.0,1032.0,1022.0,1024.0,1013.0,1024.0,1021.0,1033.0,1022.0,1023.0,1013.0,1025.0,1023.0,1033.0,1022.0,1024.0,1014.0,1025.0,1023.0,1034.0,1023.0,1024.0,1015.0,1028.0,1024.0,1036.0,1023.0,1025.0,1018.0,1030.0,1027.0,1039.0,1024.0,1025.0,1021.0,1031.0,1028.0,1040.0,1024.0,1025.0,1023.0,1040.0,1038.0,1053.0,1029.0,1029.0,1097.0,1038.0,1035.0,1051.0,1029.0,1028.0,2282,2237,1901,	00:32:13.617,-0.00927734375,0.05322265625,1.02001953125,-0.06103515625,0.3662109375,0.18310546875,2.9388427734375,0.50537109375,-40.8416748046875,37.0,-475.0,-4135.0,-0.936798095703125,-0.02557373046875,0.00482177734375,0.348907470703125,2.939251190041958,0.5042007599263045,-45.31668696743874,-0.9224624637019242,-0.0253617531648793,0.005820993798529988,0.38520890510030703,1,	00:32:13.618,0.0244140625,0.0634765625,1.02001953125,0.0,0.244140625,0.48828125,3.5595703125,-1.3677978515625,124.6453857421875,-71.0,710.0,-1796.0,0.46392822265625,0.02496337890625,0.02197265625,0.88525390625,3.558034421073567,-1.365054358060575,117.5245303764986,0.5179873047425411,0.026278524836332137,0.020367559469506278,0.8547419223246513,1
1782117442.754203,0.042,1019.0,1029.0,1019.0,1021.0,1018.0,1029.0,1020.0,1022.0,1008.0,1022.0,1019.0,1030.0,1019.0,1021.0,1009.0,1020.0,1022.0,1019.0,1030.0,1020.0,1023.0,1009.0,1020.0,1021.0,1022.0,1019.0,1030.0,1020.0,1021.0,1009.0,1020.0,1020.0,1020.0,1022.0,1020.0,1030.0,1021.0,1021.0,1008.0,1019.0,1020.0,1020.0,1023.0,1019.0,1030.0,1020.0,1022.0,1008.0,1020.0,1020.0,1020.0,1018.0,1022.0,1019.0,1030.0,1020.0,1022.0,1008.0,1019.0,1020.0,1019.0,1018.0,1024.0,1020.0,1031.0,1021.0,1023.0,1009.0,1020.0,1021.0,1021.0,1020.0,1023.0,1020.0,1030.0,1021.0,1022.0,1009.0,1020.0,1021.0,1021.0,1019.0,1024.0,1021.0,1031.0,1021.0,1023.0,1009.0,1020.0,1021.0,1021.0,1021.0,1025.0,1022.0,1032.0,1021.0,1023.0,1010.0,1020.0,1021.0,1022.0,1021.0,1025.0,1021.0,1031.0,1021.0,1022.0,1009.0,1020.0,1021.0,1020.0,1019.0,1026.0,1023.0,1033.0,1021.0,1024.0,1010.0,1020.0,1022.0,1023.0,1025.0,1022.0,1033.0,1021.0,1024.0,1011.0,1020.0,1022.0,1024.0,1021.0,1032.0,1021.0,1023.0,1010.0,1020.0,1024.0,1022.0,1032.0,1021.0,1025.0,1011.0,1021.0,1024.0,1021.0,1032.0,1021.0,1023.0,1010.0,1020.0,1024.0,1020.0,1031.0,1021.0,1022.0,1010.0,1023.0,1020.0,1031.0,1020.0,1021.0,1010.0,1024.0,1020.0,1031.0,1021.0,1024.0,1011.0,1024.0,1021.0,1032.0,1021.0,1024.0,1012.0,1024.0,1020.0,1030.0,1021.0,1022.0,1011.0,1025.0,1022.0,1032.0,1021.0,1024.0,1013.0,1024.0,1022.0,1032.0,1021.0,1024.0,1013.0,1025.0,1022.0,1033.0,1022.0,1024.0,1014.0,1026.0,1022.0,1033.0,1022.0,1024.0,1015.0,1029.0,1024.0,1036.0,1023.0,1025.0,1017.0,1030.0,1027.0,1038.0,1024.0,1026.0,1021.0,1032.0,1028.0,1040.0,1024.0,1025.0,1023.0,1041.0,1038.0,1053.0,1030.0,1029.0,1095.0,1038.0,1036.0,1051.0,1029.0,1028.0,2282,2237,1901,	00:32:13.627,-0.00927734375,0.0537109375,1.02099609375,0.0,0.42724609375,0.1220703125,3.0267333984375,0.52734375,-40.8416748046875,37.0,-475.0,-4138.0,-0.936767578125,-0.0263671875,0.004913330078125,0.348907470703125,3.028720467962346,0.527868187141088,-45.314443111732274,-0.922446962959482,-0.026161603656526637,0.005930700657015948,0.38519085893964744,1,	00:32:13.628,0.025390625,0.064453125,1.02001953125,0.0,0.244140625,0.42724609375,3.6199951171875,-1.42822265625,124.6453857421875,-70.0,710.0,-1794.0,0.4638671875,0.02569580078125,0.022216796875,0.88525390625,3.6223761817338374,-1.4278559986750576,117.5273766176326,0.5179329669394319,0.027037068446113158,0.020563925358525907,0.8547464908737599,1
1782117442.764099,0.052,1019.0,1029.0,1019.0,1022.0,1019.0,1029.0,1020.0,1021.0,1009.0,1022.0,1019.0,1030.0,1020.0,1021.0,1009.0,1019.0,1022.0,1020.0,1030.0,1021.0,1022.0,1009.0,1019.0,1020.0,1022.0,1020.0,1030.0,1020.0,1022.0,1008.0,1020.0,1019.0,1020.0,1023.0,1019.0,1030.0,1020.0,1022.0,1009.0,1019.0,1020.0,1020.0,1022.0,1019.0,1030.0,1020.0,1022.0,1008.0,1020.0,1020.0,1020.0,1018.0,1022.0,1019.0,1030.0,1020.0,1022.0,1009.0,1020.0,1020.0,1019.0,1018.0,1023.0,1021.0,1031.0,1021.0,1022.0,1009.0,1020.0,1021.0,1021.0,1020.0,1024.0,1021.0,1031.0,1021.0,1023.0,1009.0,1019.0,1021.0,1021.0,1020.0,1024.0,1021.0,1032.0,1021.0,1023.0,1010.0,1020.0,1021.0,1021.0,1020.0,1026.0,1023.0,1033.0,1021.0,1024.0,1009.0,1020.0,1021.0,1021.0,1021.0,1025.0,1021.0,1032.0,1021.0,1022.0,1010.0,1020.0,1021.0,1021.0,1020.0,1025.0,1022.0,1033.0,1021.0,1025.0,1010.0,1020.0,1022.0,1023.0,1024.0,1022.0,1033.0,1021.0,1024.0,1010.0,1020.0,1022.0,1024.0,1021.0,1032.0,1020.0,1023.0,1010.0,1020.0,1024.0,1022.0,1032.0,1021.0,1024.0,1011.0,1020.0,1024.0,1021.0,1032.0,1021.0,1024.0,1011.0,1020.0,1023.0,1021.0,1030.0,1021.0,1023.0,1010.0,1023.0,1020.0,1030.0,1020.0,1022.0,1010.0,1024.0,1020.0,1031.0,1021.0,1024.0,1011.0,1024.0,1021.0,1031.0,1022.0,1024.0,1012.0,1023.0,1020.0,1031.0,1021.0,1023.0,1010.0,1024.0,1022.0,1032.0,1022.0,1024.0,1013.0,1024.0,1021.0,1032.0,1021.0,1024.0,1012.0,1025.0,1022.0,1033.0,1022.0,1024.0,1013.0,1025.0,1022.0,1033.0,1022.0,1024.0,1015.0,1029.0,1024.0,1036.0,1023.0,1025.0,1018.0,1030.0,1027.0,1038.0,1024.0,1026.0,1021.0,1031.0,1028.0,1040.0,1024.0,1025.0,1023.0,1041.0,1037.0,1053.0,1029.0,1030.0,1096.0,1037.0,1035.0,1051.0,1029.0,1029.0,2281,2237,1901,	00:32:13.637,-0.0087890625,0.05322265625,1.0205078125,0.0,0.3662109375,0.18310546875,2.955322265625,0.472412109375,-40.8416748046875,35.0,-472.0,-4130.0,-0.936798095703125,-0.025634765625,0.005126953125,0.348876953125,2.9576107064396684,0.4737453876322971,-45.31304267497071,-0.9224743268272545,-0.025407418702986385,0.006127090540530683,0.3851727381071549,1,	00:32:13.638,0.02490234375,0.0634765625,1.02001953125,0.0,0.30517578125,0.42724609375,3.5430908203125,-1.38427734375,124.65087890625,-73.0,708.0,-1797.0,0.463836669921875,0.0250244140625,0.021759033203125,0.885284423828125,3.541150462695474,-1.3827587990329804,117.53382425348097,0.5179168042213212,0.026332567991681096,0.020163629721373123,0.8547878144923432,1
1782117442.774519,0.062,1019.0,1029.0,1020.0,1021.0,1018.0,1029.0,1020.0,1022.0,1009.0,1022.0,1019.0,1029.0,1020.0,1022.0,1009.0,1020.0,1022.0,1020.0,1029.0,1021.0,1022.0,1008.0,1021.0,1020.0,1022.0,1019.0,1030.0,1020.0,1022.0,1008.0,1020.0,1020.0,1020.0,1023.0,1019.0,1031.0,1020.0,1022.0,1009.0,1020.0,1020.0,1021.0,1023.0,1019.0,1030.0,1020.0,1022.0,1009.0,1020.0,1020.0,1020.0,1018.0,1022.0,1019.0,1030.0,1020.0,1021.0,1009.0,1020.0,1020.0,1020.0,1019.0,1023.0,1020.0,1031.0,1021.0,1023.0,1009.0,1020.0,1021.0,1021.0,1019.0,1023.0,1020.0,1030.0,1020.0,1022.0,1009.0,1020.0,1020.0,1020.0,1019.0,1023.0,1021.0,1031.0,1020.0,1023.0,1009.0,1020.0,1021.0,1021.0,1020.0,1025.0,1022.0,1032.0,1021.0,1024.0,1009.0,1020.0,1021.0,1022.0,1021.0,1024.0,1021.0,1031.0,1021.0,1022.0,1010.0,1020.0,1020.0,1021.0,1020.0,1025.0,1022.0,1032.0,1021.0,1024.0,1010.0,1021.0,1023.0,1023.0,1025.0,1022.0,1032.0,1021.0,1024.0,1011.0,1020.0,1021.0,1024.0,1021.0,1032.0,1021.0,1023.0,1010.0,1020.0,1024.0,1022.0,1032.0,1021.0,1025.0,1011.0,1020.0,1024.0,1021.0,1031.0,1021.0,1024.0,1010.0,1020.0,1024.0,1020.0,1031.0,1021.0,1023.0,1011.0,1023.0,1020.0,1030.0,1021.0,1021.0,1010.0,1024.0,1021.0,1031.0,1021.0,1024.0,1011.0,1024.0,1021.0,1032.0,1021.0,1024.0,1012.0,1023.0,1019.0,1031.0,1021.0,1022.0,1011.0,1025.0,1022.0,1032.0,1022.0,1024.0,1012.0,1024.0,1021.0,1032.0,1021.0,1024.0,1012.0,1025.0,1022.0,1033.0,1022.0,1024.0,1014.0,1025.0,1023.0,1033.0,1022.0,1024.0,1014.0,1029.0,1025.0,1036.0,1023.0,1025.0,1017.0,1030.0,1027.0,1038.0,1023.0,1025.0,1021.0,1031.0,1027.0,1040.0,1024.0,1025.0,1023.0,1040.0,1038.0,1053.0,1030.0,1030.0,1095.0,1037.0,1035.0,1050.0,1029.0,1029.0,2281,2237,1901,	00:32:13.648,-0.0087890625,0.05322265625,1.0205078125,-0.06103515625,0.42724609375,0.18310546875,3.0322265625,0.52734375,-40.836181640625,36.0,-472.0,-4133.0,-0.936798095703125,-0.026397705078125,0.004913330078125,0.348876953125,3.0326141820279227,0.5295914193026015,-45.31033200899378,-0.9224596747565318,-0.026198949378021856,0.0059289759740263305,0.3851579036492189,1,	00:32:13.649,0.025390625,0.064453125,1.0205078125,0.0,0.244140625,0.48828125,3.6199951171875,-1.4227294921875,124.6563720703125,-74.0,710.0,-1798.0,0.463775634765625,0.025665283203125,0.022216796875,0.885284423828125,3.6213552622178335,-1.4244247193156008,117.53688220611761,0.5178633052211795,0.02700516556380051,0.020574079363301374,0.8547894626144029,1
1782117442.785867,0.074,1019.0,1029.0,1019.0,1021.0,1018.0,1029.0,1020.0,1021.0,1009.0,1022.0,1019.0,1029.0,1020.0,1022.0,1009.0,1020.0,1023.0,1019.0,1030.0,1020.0,1023.0,1008.0,1020.0,1021.0,1022.0,1018.0,1030.0,1020.0,1022.0,1009.0,1020.0,1020.0,1020.0,1023.0,1019.0,1030.0,1021.0,1022.0,1009.0,1020.0,1020.0,1021.0,1022.0,1019.0,1030.0,1021.0,1022.0,1009.0,1019.0,1020.0,1020.0,1019.0,1022.0,1019.0,1029.0,1020.0,1022.0,1009.0,1020.0,1019.0,1020.0,1018.0,1023.0,1020.0,1030.0,1021.0,1022.0,1009.0,1020.0,1021.0,1021.0,1019.0,1023.0,1020.0,1031.0,1020.0,1023.0,1010.0,1020.0,1020.0,1021.0,1020.0,1024.0,1021.0,1031.0,1021.0,1022.0,1010.0,1020.0,1021.0,1021.0,1020.0,1025.0,1022.0,1032.0,1021.0,1023.0,1010.0,1020.0,1021.0,1022.0,1021.0,1024.0,1022.0,1031.0,1021.0,1023.0,1010.0,1020.0,1020.0,1021.0,1019.0,1025.0,1022.0,1033.0,1021.0,1025.0,1011.0,1020.0,1022.0,1024.0,1025.0,1022.0,1032.0,1021.0,1024.0,1011.0,1020.0,1021.0,1024.0,1021.0,1032.0,1021.0,1023.0,1010.0,1020.0,1024.0,1021.0,1032.0,1021.0,1025.0,1011.0,1020.0,1024.0,1021.0,1031.0,1021.0,1024.0,1011.0,1020.0,1023.0,1020.0,1031.0,1020.0,1022.0,1010.0,1023.0,1020.0,1030.0,1020.0,1022.0,1010.0,1024.0,1020.0,1032.0,1021.0,1024.0,1011.0,1024.0,1021.0,1032.0,1022.0,1024.0,1013.0,1023.0,1019.0,1030.0,1021.0,1022.0,1011.0,1025.0,1021.0,1032.0,1022.0,1024.0,1012.0,1024.0,1021.0,1032.0,1021.0,1024.0,1013.0,1025.0,1023.0,1033.0,1022.0,1024.0,1014.0,1025.0,1023.0,1033.0,1022.0,1024.0,1015.0,1028.0,1024.0,1036.0,1023.0,1025.0,1018.0,1029.0,1027.0,1038.0,1024.0,1025.0,1021.0,1031.0,1028.0,1039.0,1024.0,1025.0,1022.0,1040.0,1037.0,1052.0,1029.0,1029.0,1095.0,1037.0,1035.0,1050.0,1029.0,1028.0,2281,2237,1901,	00:32:13.658,-0.00927734375,0.05419921875,1.0205078125,-0.06103515625,0.42724609375,0.18310546875,3.087158203125,0.46142578125,-40.836181640625,35.0,-476.0,-4134.0,-0.936798095703125,-0.02667236328125,0.005615234375,0.34881591796875,3.0889767987103354,0.4619653275088044,-45.30778427736109,-0.9224637219418772,-0.02642564447186091,0.006662266690090537,0.38512073589711604,1,	00:32:13.659,0.025390625,0.0634765625,1.0205078125,0.0,0.244140625,0.42724609375,3.5321044921875,-1.417236328125,124.661865234375,-75.0,711.0,-1794.0,0.4637451171875,0.0252685546875,0.021514892578125,0.885345458984375,3.5297701967979327,-1.419416459460172,117.54357185313407,0.5178362522413201,0.026552760066016798,0.01991511212602344,0.8548356304615222,1
1782117442.796373,0.084,1019.0,1029.0,1019.0,1021.0,1018.0,1029.0,1020.0,1022.0,1009.0,1022.0,1019.0,1029.0,1020.0,1022.0,1009.0,1020.0,1022.0,1019.0,1030.0,1020.0,1022.0,1009.0,1020.0,1020.0,1022.0,1019.0,1029.0,1020.0,1021.0,1008.0,1019.0,1020.0,1020.0,1022.0,1020.0,1030.0,1020.0,1022.0,1009.0,1019.0,1020.0,1020.0,1023.0,1019.0,1029.0,1020.0,1022.0,1009.0,1019.0,1020.0,1020.0,1019.0,1023.0,1019.0,1030.0,1021.0,1022.0,1009.0,1019.0,1020.0,1020.0,1018.0,1023.0,1020.0,1031.0,1020.0,1023.0,1009.0,1020.0,1021.0,1021.0,1020.0,1024.0,1020.0,1031.0,1020.0,1022.0,1009.0,1020.0,1021.0,1021.0,1020.0,1023.0,1021.0,1031.0,1021.0,1023.0,1009.0,1020.0,1021.0,1021.0,1020.0,1026.0,1022.0,1032.0,1021.0,1023.0,1010.0,1020.0,1021.0,1022.0,1021.0,1025.0,1021.0,1031.0,1021.0,1023.0,1010.0,1020.0,1020.0,1021.0,1019.0,1025.0,1022.0,1033.0,1021.0,1024.0,1011.0,1020.0,1023.0,1023.0,1025.0,1022.0,1032.0,1021.0,1024.0,1010.0,1020.0,1021.0,1024.0,1021.0,1032.0,1021.0,1023.0,1011.0,1020.0,1024.0,1021.0,1032.0,1021.0,1025.0,1011.0,1020.0,1024.0,1021.0,1032.0,1021.0,1024.0,1011.0,1020.0,1023.0,1020.0,1031.0,1021.0,1022.0,1010.0,1023.0,1019.0,1030.0,1020.0,1022.0,1010.0,1024.0,1020.0,1031.0,1021.0,1024.0,1011.0,1024.0,1022.0,1031.0,1022.0,1024.0,1012.0,1023.0,1020.0,1031.0,1021.0,1022.0,1011.0,1024.0,1022.0,1032.0,1022.0,1024.0,1013.0,1024.0,1021.0,1033.0,1022.0,1023.0,1013.0,1025.0,1022.0,1033.0,1022.0,1024.0,1014.0,1025.0,1022.0,1033.0,1022.0,1024.0,1015.0,1028.0,1024.0,1036.0,1023.0,1025.0,1018.0,1029.0,1027.0,1038.0,1024.0,1025.0,1021.0,1031.0,1027.0,1039.0,1025.0,1024.0,1022.0,1041.0,1037.0,1053.0,1030.0,1029.0,1095.0,1038.0,1035.0,1051.0,1029.0,1028.0,2281,2237,1902,	00:32:13.668,-0.0087890625,0.0537109375,1.02099609375,0.0,0.42724609375,0.1220703125,3.0047607421875,0.4998779296875,-40.836181640625,35.0,-474.0,-4135.0,-0.936798095703125,-0.026092529296875,0.00506591796875,0.34881591796875,3.0037774309306275,0.4997147546959332,-45.307050116952944,-0.922480981219928,-0.02586662467568141,0.006071843077712683,0.3851271085460564,1,	00:32:13.669,0.02490234375,0.06396484375,1.02001953125,0.0,0.244140625,0.42724609375,3.614501953125,-1.38427734375,124.6673583984375,-73.0,710.0,-1795.0,0.4637451171875,0.02532958984375,0.0223388671875,0.885345458984375,3.614583159729408,-1.3829400176539737,117.54591108664523,0.5178096084830232,0.026663621110043872,0.020713384147776955,0.8548293492792024,1
1782117442.805428,0.093,1019.0,1029.0,1019.0,1022.0,1019.0,1029.0,1020.0,1021.0,1009.0,1022.0,1019.0,1030.0,1021.0,1022.0,1008.0,1020.0,1023.0,1019.0,1030.0,1020.0,1022.0,1009.0,1020.0,1021.0,1022.0,1019.0,1030.0,1020.0,1022.0,1008.0,1020.0,1020.0,1020.0,1023.0,1020.0,1029.0,1020.0,1022.0,1009.0,1020.0,1020.0,1020.0,1022.0,1019.0,1030.0,1020.0,1022.0,1009.0,1020.0,1020.0,1020.0,1019.0,1022.0,1019.0,1029.0,1020.0,1021.0,1008.0,1020.0,1020.0,1020.0,1018.0,1023.0,1020.0,1031.0,1021.0,1023.0,1009.0,1020.0,1021.0,1021.0,1020.0,1024.0,1021.0,1031.0,1021.0,1022.0,1010.0,1020.0,1020.0,1021.0,1020.0,1024.0,1021.0,1031.0,1021.0,1023.0,1009.0,1020.0,1021.0,1021.0,1020.0,1025.0,1022.0,1032.0,1021.0,1024.0,1010.0,1020.0,1021.0,1022.0,1021.0,1025.0,1021.0,1031.0,1021.0,1023.0,1010.0,1020.0,1021.0,1021.0,1020.0,1025.0,1022.0,1032.0,1021.0,1024.0,1010.0,1020.0,1022.0,1023.0,1025.0,1021.0,1032.0,1021.0,1024.0,1011.0,1021.0,1021.0,1024.0,1021.0,1032.0,1021.0,1023.0,1010.0,1020.0,1025.0,1022.0,1032.0,1021.0,1025.0,1011.0,1021.0,1024.0,1021.0,1031.0,1021.0,1023.0,1010.0,1021.0,1024.0,1021.0,1031.0,1021.0,1023.0,1010.0,1023.0,1020.0,1031.0,1021.0,1022.0,1010.0,1024.0,1020.0,1031.0,1021.0,1023.0,1011.0,1024.0,1022.0,1032.0,1022.0,1024.0,1012.0,1023.0,1020.0,1031.0,1021.0,1022.0,1011.0,1024.0,1021.0,1032.0,1022.0,1024.0,1013.0,1024.0,1021.0,1032.0,1022.0,1023.0,1012.0,1024.0,1023.0,1033.0,1022.0,1024.0,1014.0,1024.0,1023.0,1034.0,1022.0,1024.0,1015.0,1028.0,1025.0,1036.0,1024.0,1025.0,1017.0,1029.0,1027.0,1039.0,1025.0,1025.0,1021.0,1030.0,1028.0,1040.0,1024.0,1025.0,1022.0,1040.0,1037.0,1053.0,1030.0,1029.0,1096.0,1038.0,1036.0,1051.0,1029.0,1028.0,2281,2236,1901,	00:32:13.678,-0.009765625,0.0537109375,1.01953125,-0.06103515625,0.3662109375,0.1220703125,3.0267333984375,0.59326171875,-40.8306884765625,36.0,-474.0,-4138.0,-0.936798095703125,-0.02655029296875,0.004364013671875,0.348846435546875,3.0250815289773207,0.5923041275542732,-45.30543092621933,-0.9224698322730348,-0.02634920156047043,0.005397641500813672,0.3851311381718094,1,	00:32:13.679,0.02490234375,0.0634765625,1.0205078125,-0.06103515625,0.18310546875,0.48828125,3.526611328125,-1.4007568359375,124.6728515625,-74.0,711.0,-1796.0,0.46368408203125,0.02508544921875,0.02154541015625,0.8853759765625,3.5244470802054377,-1.4011565382051512,117.55307337963389,0.5177718095427731,0.02639089628604574,0.019960210624701585,0.8548786252023377,1
1782117442.816046,0.104,1019.0,1029.0,1020.0,1021.0,1019.0,1030.0,1020.0,1021.0,1009.0,1022.0,1019.0,1029.0,1020.0,1022.0,1009.0,1020.0,1022.0,1019.0,1030.0,1021.0,1022.0,1008.0,1020.0,1021.0,1023.0,1019.0,1030.0,1021.0,1021.0,1008.0,1020.0,1020.0,1020.0,1023.0,1019.0,1030.0,1021.0,1022.0,1009.0,1020.0,1020.0,1020.0,1023.0,1019.0,1030.0,1021.0,1022.0,1008.0,1020.0,1020.0,1020.0,1018.0,1022.0,1019.0,1030.0,1021.0,1021.0,1009.0,1020.0,1019.0,1019.0,1018.0,1023.0,1020.0,1030.0,1021.0,1022.0,1009.0,1020.0,1021.0,1021.0,1020.0,1023.0,1021.0,1030.0,1020.0,1022.0,1009.0,1020.0,1021.0,1020.0,1019.0,1024.0,1021.0,1031.0,1021.0,1023.0,1009.0,1020.0,1021.0,1021.0,1020.0,1025.0,1022.0,1032.0,1021.0,1023.0,1009.0,1020.0,1021.0,1022.0,1020.0,1025.0,1022.0,1032.0,1021.0,1023.0,1009.0,1020.0,1021.0,1021.0,1019.0,1025.0,1022.0,1032.0,1021.0,1024.0,1010.0,1020.0,1022.0,1023.0,1025.0,1022.0,1033.0,1021.0,1024.0,1010.0,1020.0,1021.0,1024.0,1021.0,1032.0,1021.0,1023.0,1010.0,1021.0,1025.0,1022.0,1032.0,1022.0,1024.0,1011.0,1020.0,1024.0,1021.0,1031.0,1021.0,1024.0,1011.0,1020.0,1024.0,1021.0,1031.0,1021.0,1022.0,1010.0,1023.0,1020.0,1030.0,1021.0,1021.0,1010.0,1024.0,1020.0,1031.0,1021.0,1023.0,1011.0,1024.0,1022.0,1032.0,1022.0,1024.0,1012.0,1023.0,1020.0,1031.0,1021.0,1022.0,1010.0,1025.0,1022.0,1032.0,1022.0,1024.0,1013.0,1024.0,1021.0,1032.0,1022.0,1024.0,1013.0,1025.0,1022.0,1033.0,1023.0,1024.0,1014.0,1024.0,1023.0,1034.0,1022.0,1024.0,1014.0,1028.0,1025.0,1036.0,1023.0,1025.0,1018.0,1029.0,1027.0,1039.0,1025.0,1025.0,1021.0,1031.0,1028.0,1039.0,1025.0,1025.0,1023.0,1041.0,1038.0,1052.0,1031.0,1029.0,1096.0,1037.0,1036.0,1051.0,1030.0,1029.0,2281,2236,1901,	00:32:13.689,-0.00927734375,0.05322265625,1.021484375,0.0,0.42724609375,0.18310546875,2.977294921875,0.516357421875,-40.8306884765625,35.0,-469.0,-4136.0,-0.93682861328125,-0.02593994140625,0.004852294921875,0.34881591796875,2.9788538109545804,0.5173850578989246,-45.30382465949324,-0.9224952504208476,-0.02572550453543194,0.005845090573620884,0.38510588970250953,1,	00:32:13.690,0.0244140625,0.06494140625,1.02001953125,0.0,0.244140625,0.42724609375,3.614501953125,-1.373291015625,124.6728515625,-74.0,709.0,-1795.0,0.463653564453125,0.025238037109375,0.0223388671875,0.8853759765625,3.6125843232158714,-1.3745420246568292,117.55535163854326,0.5177420792839859,0.026590261945017592,0.02073865994291481,0.8548719233266246,1
1782117442.826402,0.114,1019.0,1029.0,1020.0,1021.0,1018.0,1030.0,1021.0,1021.0,1009.0,1022.0,1019.0,1029.0,1020.0,1022.0,1008.0,1020.0,1023.0,1019.0,1031.0,1021.0,1022.0,1009.0,1020.0,1021.0,1022.0,1019.0,1030.0,1020.0,1021.0,1009.0,1020.0,1020.0,1020.0,1023.0,1019.0,1030.0,1021.0,1022.0,1008.0,1019.0,1020.0,1020.0,1023.0,1020.0,1030.0,1021.0,1022.0,1008.0,1020.0,1020.0,1020.0,1019.0,1022.0,1019.0,1029.0,1021.0,1022.0,1008.0,1020.0,1020.0,1020.0,1018.0,1023.0,1020.0,1031.0,1021.0,1023.0,1009.0,1020.0,1021.0,1021.0,1020.0,1024.0,1021.0,1031.0,1021.0,1022.0,1009.0,1020.0,1021.0,1021.0,1020.0,1024.0,1021.0,1031.0,1021.0,1022.0,1009.0,1020.0,1021.0,1021.0,1020.0,1026.0,1022.0,1032.0,1021.0,1023.0,1010.0,1020.0,1021.0,1022.0,1021.0,1024.0,1021.0,1032.0,1021.0,1023.0,1009.0,1020.0,1020.0,1021.0,1019.0,1025.0,1023.0,1032.0,1022.0,1024.0,1010.0,1020.0,1022.0,1023.0,1025.0,1022.0,1032.0,1022.0,1024.0,1010.0,1020.0,1021.0,1024.0,1022.0,1031.0,1022.0,1023.0,1009.0,1020.0,1024.0,1022.0,1032.0,1022.0,1024.0,1010.0,1020.0,1024.0,1021.0,1031.0,1021.0,1023.0,1010.0,1020.0,1024.0,1020.0,1030.0,1021.0,1023.0,1010.0,1023.0,1019.0,1030.0,1021.0,1022.0,1010.0,1024.0,1020.0,1031.0,1021.0,1023.0,1011.0,1024.0,1021.0,1032.0,1023.0,1024.0,1012.0,1023.0,1020.0,1031.0,1022.0,1022.0,1010.0,1025.0,1022.0,1032.0,1022.0,1024.0,1012.0,1024.0,1022.0,1032.0,1023.0,1024.0,1012.0,1025.0,1022.0,1033.0,1023.0,1024.0,1014.0,1025.0,1022.0,1033.0,1023.0,1024.0,1014.0,1028.0,1024.0,1036.0,1024.0,1024.0,1017.0,1029.0,1027.0,1038.0,1025.0,1026.0,1021.0,1031.0,1027.0,1040.0,1024.0,1024.0,1022.0,1041.0,1037.0,1052.0,1031.0,1029.0,1095.0,1038.0,1035.0,1050.0,1030.0,1028.0,2281,2236,1902,	00:32:13.699,-0.0087890625,0.05419921875,1.02099609375,-0.06103515625,0.3662109375,0.1220703125,3.065185546875,0.4833984375,-40.8306884765625,36.0,-476.0,-4136.0,-0.93682861328125,-0.026519775390625,0.005340576171875,0.348785400390625,3.062820778765794,0.48581972183238936,-45.3016748028064,-0.9224873245621863,-0.026295556176018434,0.00638091220516634,0.38507786706966585,1,	00:32:13.700,0.02490234375,0.06396484375,1.01904296875,0.0,0.18310546875,0.48828125,3.548583984375,-1.439208984375,124.683837890625,-74.0,710.0,-1799.0,0.463592529296875,0.0255126953125,0.0216064453125,0.885406494140625,3.5502322031932456,-1.4403159301130835,117.56187026840679,0.5176889831046152,0.026797870398371386,0.01997747140346752,0.8549157218992673,1
1782117442.836448,0.124,1019.0,1029.0,1020.0,1021.0,1018.0,1030.0,1020.0,1021.0,1008.0,1022.0,1019.0,1029.0,1021.0,1022.0,1008.0,1020.0,1023.0,1019.0,1030.0,1021.0,1022.0,1009.0,1020.0,1021.0,1023.0,1019.0,1030.0,1021.0,1022.0,1009.0,1020.0,1020.0,1020.0,1023.0,1019.0,1030.0,1021.0,1022.0,1008.0,1020.0,1020.0,1020.0,1023.0,1019.0,1030.0,1021.0,1022.0,1009.0,1019.0,1020.0,1020.0,1019.0,1023.0,1019.0,1030.0,1021.0,1022.0,1009.0,1019.0,1020.0,1020.0,1018.0,1023.0,1021.0,1030.0,1021.0,1023.0,1008.0,1019.0,1021.0,1021.0,1020.0,1024.0,1021.0,1031.0,1021.0,1022.0,1008.0,1020.0,1020.0,1021.0,1020.0,1024.0,1021.0,1031.0,1021.0,1022.0,1009.0,1020.0,1021.0,1021.0,1020.0,1026.0,1022.0,1032.0,1021.0,1023.0,1009.0,1020.0,1021.0,1022.0,1021.0,1025.0,1021.0,1032.0,1021.0,1023.0,1009.0,1020.0,1020.0,1021.0,1020.0,1025.0,1022.0,1033.0,1021.0,1025.0,1010.0,1020.0,1022.0,1023.0,1025.0,1022.0,1033.0,1021.0,1024.0,1010.0,1020.0,1021.0,1024.0,1022.0,1032.0,1021.0,1023.0,1010.0,1020.0,1024.0,1021.0,1032.0,1021.0,1025.0,1010.0,1020.0,1024.0,1021.0,1032.0,1021.0,1024.0,1010.0,1020.0,1024.0,1020.0,1031.0,1020.0,1023.0,1010.0,1023.0,1020.0,1030.0,1021.0,1022.0,1009.0,1024.0,1020.0,1031.0,1021.0,1023.0,1011.0,1024.0,1021.0,1032.0,1022.0,1024.0,1012.0,1023.0,1020.0,1031.0,1021.0,1022.0,1010.0,1025.0,1021.0,1032.0,1022.0,1024.0,1013.0,1024.0,1021.0,1032.0,1022.0,1023.0,1013.0,1025.0,1022.0,1033.0,1023.0,1024.0,1014.0,1025.0,1023.0,1033.0,1023.0,1024.0,1014.0,1028.0,1024.0,1035.0,1024.0,1025.0,1017.0,1029.0,1027.0,1038.0,1025.0,1026.0,1021.0,1031.0,1028.0,1039.0,1024.0,1025.0,1022.0,1041.0,1037.0,1052.0,1031.0,1029.0,1094.0,1038.0,1035.0,1050.0,1030.0,1028.0,2281,2236,1901,	00:32:13.709,-0.00927734375,0.0537109375,1.02099609375,-0.06103515625,0.42724609375,0.1220703125,2.98828125,0.538330078125,-40.8251953125,36.0,-476.0,-4135.0,-0.93682861328125,-0.02606201171875,0.004669189453125,0.348785400390625,2.9858347098729845,0.5405829590228063,-45.30091195195701,-0.9225005766219351,-0.025859763393808848,0.005681125875211215,0.3850865923116557,1,	00:32:13.710,0.02587890625,0.064453125,1.0205078125,-0.06103515625,0.244140625,0.42724609375,3.6419677734375,-1.4501953125,124.683837890625,-72.0,708.0,-1796.0,0.46356201171875,0.025970458984375,0.022247314453125,0.885406494140625,3.640024583223519,-1.4515721502433818,117.56400294213016,0.5176486051529574,0.027287068034934463,0.020596956141184338,0.8549099969581432,1
1782117442.846058,0.134,1020.0,1029.0,1019.0,1022.0,1018.0,1030.0,1020.0,1021.0,1009.0,1022.0,1019.0,1029.0,1020.0,1022.0,1009.0,1020.0,1022.0,1019.0,1030.0,1021.0,1022.0,1009.0,1020.0,1020.0,1022.0,1018.0,1029.0,1020.0,1022.0,1009.0,1020.0,1020.0,1020.0,1023.0,1019.0,1030.0,1020.0,1022.0,1008.0,1020.0,1020.0,1020.0,1023.0,1020.0,1030.0,1020.0,1022.0,1008.0,1019.0,1020.0,1020.0,1019.0,1023.0,1019.0,1030.0,1021.0,1022.0,1009.0,1020.0,1020.0,1020.0,1018.0,1024.0,1021.0,1030.0,1021.0,1023.0,1009.0,1020.0,1021.0,1021.0,1020.0,1023.0,1021.0,1031.0,1021.0,1023.0,1010.0,1020.0,1021.0,1021.0,1020.0,1024.0,1021.0,1031.0,1021.0,1022.0,1009.0,1020.0,1021.0,1021.0,1020.0,1026.0,1022.0,1032.0,1021.0,1023.0,1010.0,1020.0,1021.0,1021.0,1021.0,1025.0,1021.0,1032.0,1021.0,1023.0,1010.0,1020.0,1021.0,1021.0,1020.0,1025.0,1023.0,1032.0,1021.0,1024.0,1010.0,1021.0,1022.0,1023.0,1025.0,1022.0,1032.0,1022.0,1024.0,1010.0,1020.0,1021.0,1024.0,1021.0,1031.0,1021.0,1023.0,1010.0,1020.0,1024.0,1021.0,1031.0,1021.0,1024.0,1011.0,1021.0,1024.0,1022.0,1031.0,1021.0,1023.0,1010.0,1021.0,1024.0,1020.0,1030.0,1021.0,1022.0,1011.0,1024.0,1020.0,1030.0,1021.0,1021.0,1010.0,1024.0,1020.0,1030.0,1021.0,1023.0,1012.0,1024.0,1021.0,1031.0,1022.0,1024.0,1012.0,1023.0,1020.0,1031.0,1021.0,1022.0,1010.0,1024.0,1022.0,1032.0,1022.0,1024.0,1012.0,1023.0,1022.0,1033.0,1022.0,1024.0,1013.0,1024.0,1023.0,1033.0,1023.0,1024.0,1014.0,1024.0,1023.0,1033.0,1023.0,1024.0,1015.0,1028.0,1025.0,1036.0,1023.0,1024.0,1018.0,1029.0,1027.0,1039.0,1025.0,1025.0,1021.0,1030.0,1028.0,1039.0,1026.0,1024.0,1022.0,1040.0,1038.0,1052.0,1030.0,1029.0,1095.0,1037.0,1035.0,1051.0,1029.0,1028.0,2280,2236,1901,	00:32:13.719,-0.00927734375,0.05322265625,1.02099609375,0.0,0.3662109375,0.1220703125,2.977294921875,0.450439453125,-40.8251953125,37.0,-476.0,-4135.0,-0.93682861328125,-0.025726318359375,0.00537109375,0.3487548828125,2.977848254112598,0.45286091424028135,-45.29957143439815,-0.9225176027006969,-0.0255009182451159,0.0063602528251056065,0.3850591163185411,1,	00:32:13.720,0.02587890625,0.0654296875,1.0205078125,-0.1220703125,0.244140625,0.42724609375,3.7298583984375,-1.4447021484375,124.683837890625,-74.0,708.0,-1796.0,0.463531494140625,0.0262451171875,0.022979736328125,0.885406494140625,3.7300122088620515,-1.4433020146622189,117.56611615136805,0.5176137326403975,0.02763150366802044,0.021306219964176625,0.8549026662597078,1
1782117442.856541,0.144,1019.0,1029.0,1019.0,1021.0,1018.0,1030.0,1021.0,1021.0,1009.0,1022.0,1019.0,1029.0,1020.0,1021.0,1009.0,1020.0,1022.0,1019.0,1030.0,1021.0,1022.0,1009.0,1020.0,1021.0,1023.0,1019.0,1029.0,1021.0,1022.0,1009.0,1020.0,1020.0,1020.0,1022.0,1019.0,1030.0,1021.0,1022.0,1008.0,1019.0,1020.0,1020.0,1023.0,1019.0,1029.0,1021.0,1022.0,1009.0,1020.0,1020.0,1020.0,1018.0,1023.0,1018.0,1030.0,1021.0,1021.0,1008.0,1020.0,1020.0,1020.0,1018.0,1024.0,1021.0,1031.0,1021.0,1023.0,1009.0,1020.0,1022.0,1021.0,1020.0,1024.0,1021.0,1030.0,1021.0,1022.0,1009.0,1020.0,1021.0,1021.0,1019.0,1024.0,1021.0,1031.0,1021.0,1023.0,1009.0,1020.0,1021.0,1020.0,1020.0,1025.0,1022.0,1032.0,1021.0,1023.0,1009.0,1020.0,1022.0,1022.0,1021.0,1024.0,1021.0,1031.0,1021.0,1023.0,1009.0,1020.0,1021.0,1020.0,1020.0,1026.0,1023.0,1033.0,1021.0,1024.0,1010.0,1021.0,1023.0,1023.0,1025.0,1022.0,1032.0,1021.0,1024.0,1010.0,1020.0,1022.0,1024.0,1021.0,1032.0,1021.0,1023.0,1010.0,1020.0,1024.0,1022.0,1032.0,1021.0,1025.0,1011.0,1020.0,1024.0,1021.0,1032.0,1021.0,1023.0,1011.0,1020.0,1023.0,1020.0,1031.0,1021.0,1022.0,1010.0,1023.0,1020.0,1030.0,1020.0,1022.0,1010.0,1024.0,1021.0,1031.0,1021.0,1023.0,1011.0,1024.0,1021.0,1032.0,1022.0,1024.0,1012.0,1023.0,1021.0,1031.0,1021.0,1022.0,1011.0,1025.0,1021.0,1032.0,1022.0,1024.0,1013.0,1024.0,1022.0,1032.0,1022.0,1023.0,1012.0,1025.0,1023.0,1033.0,1022.0,1024.0,1014.0,1025.0,1023.0,1033.0,1023.0,1024.0,1015.0,1028.0,1025.0,1035.0,1023.0,1024.0,1018.0,1029.0,1027.0,1038.0,1024.0,1025.0,1021.0,1031.0,1028.0,1040.0,1024.0,1024.0,1023.0,1040.0,1037.0,1052.0,1030.0,1028.0,1095.0,1037.0,1035.0,1050.0,1030.0,1028.0,2280,2236,1901,	00:32:13.730,-0.009765625,0.0537109375,1.0205078125,0.0,0.42724609375,0.1220703125,3.01025390625,0.5438232421875,-40.8251953125,36.0,-473.0,-4133.0,-0.93682861328125,-0.026275634765625,0.004730224609375,0.3487548828125,3.0095966326726877,0.5430354223011223,-45.29785458357607,-0.922505158650552,-0.026059444087336313,0.005740537676921756,0.38506127286986264,1,	00:32:13.731,0.0263671875,0.06494140625,1.02099609375,-0.244140625,0.244140625,0.48828125,3.6419677734375,-1.47216796875,124.69482421875,-72.0,709.0,-1795.0,0.4635009765625,0.026123046875,0.022186279296875,0.88543701171875,3.641414603037132,-1.472572926078276,117.57333875994009,0.5175724320044953,0.027448275248446608,0.020514568663172444,0.8549529357148272,1
1782117442.867062,0.155,1019.0,1029.0,1020.0,1021.0,1019.0,1029.0,1020.0,1021.0,1009.0,1022.0,1019.0,1030.0,1020.0,1022.0,1009.0,1019.0,1023.0,1019.0,1030.0,1020.0,1022.0,1009.0,1020.0,1021.0,1023.0,1020.0,1030.0,1021.0,1021.0,1009.0,1020.0,1020.0,1020.0,1023.0,1019.0,1030.0,1020.0,1021.0,1009.0,1020.0,1021.0,1020.0,1023.0,1020.0,1029.0,1021.0,1022.0,1009.0,1020.0,1020.0,1020.0,1018.0,1023.0,1019.0,1029.0,1020.0,1022.0,1009.0,1019.0,1020.0,1019.0,1018.0,1024.0,1020.0,1030.0,1021.0,1023.0,1010.0,1020.0,1021.0,1021.0,1020.0,1024.0,1021.0,1031.0,1021.0,1022.0,1009.0,1020.0,1021.0,1021.0,1019.0,1024.0,1021.0,1030.0,1020.0,1022.0,1009.0,1020.0,1021.0,1021.0,1019.0,1026.0,1022.0,1032.0,1021.0,1023.0,1010.0,1020.0,1021.0,1021.0,1020.0,1024.0,1022.0,1031.0,1021.0,1023.0,1010.0,1019.0,1021.0,1020.0,1020.0,1025.0,1023.0,1033.0,1021.0,1024.0,1010.0,1020.0,1022.0,1023.0,1025.0,1022.0,1032.0,1021.0,1024.0,1011.0,1020.0,1022.0,1025.0,1022.0,1031.0,1022.0,1023.0,1010.0,1020.0,1024.0,1022.0,1032.0,1021.0,1025.0,1011.0,1021.0,1024.0,1021.0,1031.0,1021.0,1023.0,1011.0,1021.0,1024.0,1020.0,1030.0,1021.0,1022.0,1010.0,1024.0,1020.0,1030.0,1020.0,1021.0,1010.0,1023.0,1021.0,1031.0,1021.0,1023.0,1011.0,1024.0,1021.0,1032.0,1022.0,1024.0,1012.0,1023.0,1020.0,1030.0,1021.0,1022.0,1011.0,1025.0,1022.0,1032.0,1022.0,1024.0,1013.0,1024.0,1021.0,1032.0,1022.0,1023.0,1013.0,1025.0,1023.0,1033.0,1022.0,1024.0,1014.0,1025.0,1023.0,1033.0,1023.0,1023.0,1015.0,1028.0,1025.0,1035.0,1023.0,1025.0,1018.0,1030.0,1027.0,1038.0,1024.0,1025.0,1022.0,1030.0,1028.0,1039.0,1024.0,1024.0,1023.0,1041.0,1038.0,1052.0,1030.0,1029.0,1095.0,1037.0,1036.0,1049.0,1029.0,1028.0,2280,2236,1902,	00:32:13.740,-0.0087890625,0.052734375,1.0205078125,0.0,0.42724609375,0.1220703125,2.9443359375,0.4833984375,-40.8251953125,37.0,-476.0,-4136.0,-0.936859130859375,-0.025543212890625,0.0050048828125,0.3487548828125,2.9440617811598835,0.4832698650728123,-45.2969981957478,-0.9225301028865414,-0.025331186730817582,0.006001322143787531,0.38504613279382804,1,	00:32:13.741,0.02587890625,0.06396484375,1.02099609375,-0.244140625,0.30517578125,0.48828125,3.5540771484375,-1.4337158203125,124.7003173828125,-75.0,707.0,-1796.0,0.463470458984375,0.025482177734375,0.02166748046875,0.885498046875,3.5543406768632804,-1.4347713805153253,117.58055034515051,0.5175502492794113,0.026771819309860338,0.02003756804750507,0.854999125747156,1
1782117442.877617,0.165,1019.0,1029.0,1019.0,1021.0,1018.0,1029.0,1020.0,1021.0,1009.0,1022.0,1019.0,1029.0,1020.0,1022.0,1009.0,1020.0,1023.0,1020.0,1030.0,1021.0,1022.0,1009.0,1020.0,1021.0,1022.0,1019.0,1030.0,1021.0,1022.0,1008.0,1020.0,1020.0,1020.0,1023.0,1019.0,1030.0,1021.0,1022.0,1009.0,1019.0,1021.0,1020.0,1022.0,1019.0,1030.0,1021.0,1021.0,1009.0,1020.0,1020.0,1020.0,1019.0,1023.0,1019.0,1030.0,1021.0,1022.0,1008.0,1019.0,1020.0,1020.0,1018.0,1024.0,1020.0,1030.0,1020.0,1023.0,1010.0,1020.0,1021.0,1021.0,1020.0,1024.0,1021.0,1030.0,1020.0,1023.0,1009.0,1019.0,1020.0,1020.0,1020.0,1024.0,1021.0,1030.0,1021.0,1022.0,1010.0,1020.0,1021.0,1021.0,1020.0,1026.0,1022.0,1032.0,1021.0,1023.0,1010.0,1020.0,1021.0,1021.0,1021.0,1024.0,1021.0,1031.0,1021.0,1023.0,1009.0,1020.0,1021.0,1021.0,1020.0,1026.0,1022.0,1032.0,1021.0,1024.0,1010.0,1020.0,1023.0,1023.0,1025.0,1022.0,1032.0,1022.0,1024.0,1011.0,1021.0,1022.0,1024.0,1021.0,1031.0,1021.0,1023.0,1010.0,1019.0,1025.0,1022.0,1032.0,1021.0,1024.0,1011.0,1021.0,1024.0,1021.0,1031.0,1021.0,1024.0,1011.0,1020.0,1024.0,1020.0,1031.0,1021.0,1022.0,1011.0,1024.0,1020.0,1030.0,1021.0,1021.0,1010.0,1024.0,1020.0,1030.0,1021.0,1023.0,1011.0,1024.0,1021.0,1032.0,1022.0,1024.0,1012.0,1023.0,1020.0,1031.0,1022.0,1022.0,1011.0,1024.0,1022.0,1032.0,1022.0,1024.0,1013.0,1025.0,1021.0,1032.0,1022.0,1024.0,1012.0,1025.0,1023.0,1033.0,1022.0,1024.0,1014.0,1026.0,1023.0,1033.0,1022.0,1024.0,1015.0,1028.0,1025.0,1035.0,1023.0,1024.0,1018.0,1029.0,1027.0,1038.0,1025.0,1026.0,1021.0,1031.0,1028.0,1039.0,1024.0,1025.0,1023.0,1041.0,1037.0,1052.0,1030.0,1029.0,1095.0,1037.0,1036.0,1050.0,1029.0,1028.0,2280,2236,1901,	00:32:13.750,-0.01025390625,0.05322265625,1.0205078125,0.0,0.42724609375,0.18310546875,2.9827880859375,0.5712890625,-40.8197021484375,36.0,-471.0,-4135.0,-0.93682861328125,-0.026123046875,0.00439453125,0.3487548828125,2.9818002259042258,0.5709521917916409,-45.294603057877744,-0.9225188453311339,-0.025929578306700857,0.0054216323470413445,0.38504187159378045,1,	00:32:13.751,0.025390625,0.06298828125,1.02001953125,-0.30517578125,0.244140625,0.48828125,3.4716796875,-1.3897705078125,124.705810546875,-73.0,709.0,-1797.0,0.46343994140625,0.0247802734375,0.021209716796875,0.885528564453125,3.471270752471779,-1.3880370252113206,117.58754350368673,0.5175305067684027,0.026046885263976204,0.01963069036248427,0.8550429055480068,1
1782117442.886569,0.174,1020.0,1028.0,1020.0,1022.0,1019.0,1029.0,1020.0,1021.0,1009.0,1022.0,1019.0,1029.0,1020.0,1021.0,1009.0,1020.0,1023.0,1020.0,1030.0,1020.0,1022.0,1009.0,1020.0,1021.0,1023.0,1019.0,1029.0,1020.0,1022.0,1009.0,1020.0,1020.0,1020.0,1023.0,1019.0,1030.0,1021.0,1022.0,1009.0,1020.0,1020.0,1019.0,1023.0,1019.0,1030.0,1020.0,1022.0,1009.0,1020.0,1020.0,1020.0,1018.0,1023.0,1019.0,1029.0,1020.0,1021.0,1009.0,1020.0,1020.0,1019.0,1018.0,1024.0,1021.0,1030.0,1020.0,1022.0,1009.0,1020.0,1021.0,1021.0,1020.0,1024.0,1021.0,1030.0,1020.0,1022.0,1009.0,1020.0,1020.0,1021.0,1020.0,1024.0,1021.0,1031.0,1021.0,1022.0,1010.0,1020.0,1021.0,1021.0,1020.0,1025.0,1022.0,1031.0,1020.0,1023.0,1009.0,1020.0,1021.0,1021.0,1020.0,1025.0,1021.0,1032.0,1021.0,1022.0,1010.0,1020.0,1021.0,1021.0,1019.0,1026.0,1023.0,1032.0,1021.0,1024.0,1011.0,1020.0,1022.0,1022.0,1025.0,1022.0,1032.0,1021.0,1024.0,1010.0,1020.0,1022.0,1024.0,1022.0,1031.0,1021.0,1023.0,1010.0,1019.0,1025.0,1022.0,1032.0,1021.0,1025.0,1011.0,1021.0,1024.0,1021.0,1031.0,1021.0,1024.0,1011.0,1020.0,1024.0,1021.0,1030.0,1021.0,1022.0,1011.0,1024.0,1021.0,1031.0,1021.0,1022.0,1010.0,1024.0,1020.0,1031.0,1021.0,1023.0,1011.0,1025.0,1021.0,1032.0,1021.0,1024.0,1012.0,1023.0,1020.0,1031.0,1021.0,1022.0,1011.0,1024.0,1022.0,1032.0,1022.0,1024.0,1013.0,1025.0,1021.0,1032.0,1022.0,1023.0,1012.0,1025.0,1022.0,1033.0,1022.0,1024.0,1015.0,1025.0,1023.0,1033.0,1022.0,1024.0,1015.0,1028.0,1025.0,1035.0,1024.0,1024.0,1018.0,1030.0,1028.0,1038.0,1024.0,1026.0,1022.0,1031.0,1028.0,1038.0,1024.0,1024.0,1023.0,1041.0,1038.0,1052.0,1030.0,1028.0,1096.0,1037.0,1035.0,1050.0,1029.0,1028.0,2280,2236,1901,	00:32:13.760,-0.01025390625,0.0537109375,1.02099609375,0.06103515625,0.42724609375,0.18310546875,3.0706787109375,0.5877685546875,-40.8197021484375,36.0,-474.0,-4133.0,-0.93682861328125,-0.02691650390625,0.004547119140625,0.348724365234375,3.0732841169878573,0.5863679090474961,-45.29163457621257,-0.9225058088439798,-0.026717970524046373,0.005604220465705197,0.38501659108817965,1,	00:32:13.761,0.025390625,0.06494140625,1.02001953125,-0.244140625,0.244140625,0.48828125,3.5595703125,-1.40625,124.7113037109375,-75.0,709.0,-1796.0,0.463409423828125,0.0252685546875,0.021820068359375,0.885528564453125,3.5583671654637956,-1.4041892897878556,117.59038226430555,0.5174847462926304,0.02656019644608715,0.020208189534227344,0.8550413571254585,1
1782117442.898141,0.186,1019.0,1029.0,1019.0,1021.0,1018.0,1029.0,1020.0,1021.0,1009.0,1022.0,1019.0,1029.0,1020.0,1021.0,1009.0,1020.0,1023.0,1020.0,1030.0,1020.0,1022.0,1010.0,1019.0,1021.0,1022.0,1019.0,1029.0,1020.0,1021.0,1008.0,1019.0,1020.0,1020.0,1023.0,1019.0,1029.0,1021.0,1022.0,1009.0,1019.0,1020.0,1020.0,1023.0,1019.0,1030.0,1020.0,1021.0,1009.0,1020.0,1020.0,1020.0,1018.0,1023.0,1019.0,1030.0,1020.0,1022.0,1009.0,1020.0,1020.0,1019.0,1018.0,1024.0,1021.0,1030.0,1020.0,1022.0,1009.0,1020.0,1021.0,1021.0,1020.0,1024.0,1021.0,1031.0,1021.0,1022.0,1010.0,1020.0,1020.0,1021.0,1019.0,1024.0,1021.0,1031.0,1021.0,1023.0,1009.0,1021.0,1020.0,1020.0,1020.0,1025.0,1022.0,1032.0,1021.0,1023.0,1010.0,1020.0,1021.0,1022.0,1021.0,1025.0,1021.0,1031.0,1021.0,1022.0,1010.0,1020.0,1021.0,1021.0,1020.0,1026.0,1023.0,1033.0,1021.0,1024.0,1010.0,1021.0,1022.0,1023.0,1025.0,1022.0,1032.0,1021.0,1024.0,1010.0,1021.0,1021.0,1025.0,1021.0,1031.0,1021.0,1023.0,1011.0,1020.0,1024.0,1022.0,1032.0,1022.0,1025.0,1011.0,1021.0,1024.0,1021.0,1031.0,1021.0,1023.0,1011.0,1020.0,1024.0,1020.0,1031.0,1021.0,1022.0,1011.0,1023.0,1020.0,1030.0,1021.0,1021.0,1010.0,1024.0,1020.0,1031.0,1021.0,1023.0,1012.0,1025.0,1021.0,1031.0,1022.0,1023.0,1013.0,1023.0,1020.0,1031.0,1021.0,1022.0,1011.0,1025.0,1022.0,1032.0,1022.0,1023.0,1013.0,1024.0,1021.0,1032.0,1022.0,1023.0,1013.0,1025.0,1023.0,1033.0,1023.0,1024.0,1015.0,1025.0,1023.0,1033.0,1022.0,1023.0,1015.0,1028.0,1024.0,1036.0,1023.0,1024.0,1018.0,1030.0,1027.0,1038.0,1024.0,1025.0,1021.0,1031.0,1028.0,1040.0,1024.0,1025.0,1023.0,1041.0,1038.0,1052.0,1030.0,1028.0,1096.0,1038.0,1036.0,1050.0,1029.0,1027.0,2280,2236,1901,	00:32:13.771,-0.0087890625,0.05322265625,1.021484375,0.0,0.3662109375,0.18310546875,3.01025390625,0.5218505859375,-40.814208984375,35.0,-474.0,-4137.0,-0.936859130859375,-0.026214599609375,0.0048828125,0.34869384765625,3.0097361073678828,0.5239925868060569,-45.29022560460976,-0.922533154595308,-0.025997007568291663,0.005892593437044528,0.3849961189577234,1,	00:32:13.772,0.02490234375,0.06396484375,1.0205078125,-0.18310546875,0.30517578125,0.48828125,3.6419677734375,-1.373291015625,124.7113037109375,-73.0,709.0,-1796.0,0.463348388671875,0.025360107421875,0.022613525390625,0.885528564453125,3.6435832072740886,-1.3733990745127105,117.5933331213892,0.5174518256727058,0.02671484236091617,0.02098394223451854,0.8550377766355786,1
1782117442.908187,0.196,1019.0,1029.0,1019.0,1021.0,1018.0,1030.0,1020.0,1021.0,1010.0,1023.0,1019.0,1029.0,1020.0,1022.0,1008.0,1020.0,1022.0,1019.0,1030.0,1020.0,1022.0,1009.0,1020.0,1021.0,1022.0,1019.0,1029.0,1020.0,1021.0,1009.0,1019.0,1020.0,1020.0,1023.0,1019.0,1030.0,1020.0,1021.0,1009.0,1019.0,1020.0,1020.0,1023.0,1019.0,1030.0,1020.0,1021.0,1010.0,1020.0,1020.0,1020.0,1019.0,1022.0,1019.0,1029.0,1020.0,1021.0,1009.0,1020.0,1019.0,1020.0,1019.0,1024.0,1020.0,1031.0,1021.0,1022.0,1009.0,1020.0,1021.0,1021.0,1020.0,1024.0,1021.0,1030.0,1021.0,1022.0,1010.0,1020.0,1021.0,1021.0,1020.0,1024.0,1021.0,1031.0,1021.0,1022.0,1009.0,1020.0,1021.0,1021.0,1020.0,1026.0,1022.0,1032.0,1021.0,1023.0,1010.0,1020.0,1022.0,1022.0,1021.0,1025.0,1022.0,1032.0,1021.0,1022.0,1010.0,1020.0,1021.0,1021.0,1020.0,1026.0,1022.0,1032.0,1021.0,1024.0,1010.0,1021.0,1022.0,1022.0,1025.0,1023.0,1032.0,1022.0,1024.0,1011.0,1020.0,1021.0,1025.0,1021.0,1031.0,1021.0,1023.0,1010.0,1020.0,1025.0,1022.0,1032.0,1021.0,1024.0,1011.0,1021.0,1024.0,1021.0,1031.0,1021.0,1023.0,1011.0,1020.0,1024.0,1020.0,1031.0,1021.0,1022.0,1010.0,1023.0,1020.0,1030.0,1021.0,1021.0,1010.0,1024.0,1020.0,1030.0,1021.0,1023.0,1012.0,1025.0,1021.0,1031.0,1021.0,1024.0,1013.0,1023.0,1021.0,1031.0,1021.0,1022.0,1011.0,1025.0,1022.0,1032.0,1021.0,1024.0,1013.0,1024.0,1022.0,1032.0,1022.0,1023.0,1013.0,1025.0,1022.0,1033.0,1022.0,1024.0,1015.0,1025.0,1022.0,1034.0,1022.0,1023.0,1015.0,1028.0,1024.0,1036.0,1023.0,1024.0,1018.0,1030.0,1027.0,1039.0,1024.0,1025.0,1022.0,1031.0,1028.0,1039.0,1024.0,1024.0,1024.0,1040.0,1037.0,1052.0,1030.0,1028.0,1096.0,1037.0,1035.0,1050.0,1029.0,1027.0,2279,2236,1902,	00:32:13.781,-0.00927734375,0.0537109375,1.02099609375,0.0,0.42724609375,0.18310546875,3.043212890625,0.4449462890625,-40.814208984375,35.0,-474.0,-4136.0,-0.936859130859375,-0.0262451171875,0.005645751953125,0.348663330078125,3.0432873041224386,0.4428486390748135,-45.28788977311554,-0.922543346367623,-0.025994782161378106,0.006658104461889656,0.384959368009385,1,	00:32:13.782,0.0244140625,0.06396484375,1.01953125,-0.18310546875,0.244140625,0.42724609375,3.548583984375,-1.3623046875,124.7222900390625,-73.0,709.0,-1796.0,0.463348388671875,0.02490234375,0.02191162109375,0.88555908203125,3.5504341837360935,-1.3638643700554174,117.59993202023907,0.5174268495514234,0.026221923444460747,0.020333513204006063,0.8550838639191738,1
1782117442.917819,0.206,1019.0,1028.0,1020.0,1021.0,1018.0,1030.0,1020.0,1021.0,1010.0,1022.0,1019.0,1030.0,1020.0,1021.0,1009.0,1019.0,1022.0,1019.0,1029.0,1020.0,1022.0,1009.0,1019.0,1021.0,1022.0,1019.0,1030.0,1021.0,1021.0,1009.0,1019.0,1020.0,1020.0,1023.0,1019.0,1030.0,1021.0,1021.0,1009.0,1020.0,1020.0,1020.0,1023.0,1020.0,1030.0,1020.0,1022.0,1009.0,1020.0,1020.0,1020.0,1018.0,1023.0,1019.0,1029.0,1020.0,1021.0,1009.0,1019.0,1020.0,1020.0,1018.0,1024.0,1020.0,1031.0,1020.0,1023.0,1010.0,1020.0,1021.0,1021.0,1020.0,1024.0,1021.0,1030.0,1020.0,1023.0,1010.0,1019.0,1021.0,1021.0,1019.0,1024.0,1021.0,1031.0,1020.0,1022.0,1010.0,1020.0,1021.0,1021.0,1020.0,1025.0,1022.0,1032.0,1021.0,1023.0,1010.0,1020.0,1021.0,1021.0,1021.0,1024.0,1022.0,1031.0,1021.0,1022.0,1010.0,1020.0,1021.0,1021.0,1019.0,1025.0,1023.0,1032.0,1021.0,1024.0,1011.0,1020.0,1023.0,1023.0,1025.0,1022.0,1032.0,1021.0,1024.0,1011.0,1020.0,1021.0,1024.0,1021.0,1031.0,1021.0,1022.0,1011.0,1020.0,1024.0,1022.0,1032.0,1021.0,1024.0,1011.0,1020.0,1024.0,1021.0,1031.0,1021.0,1023.0,1011.0,1020.0,1023.0,1021.0,1031.0,1021.0,1022.0,1011.0,1023.0,1020.0,1030.0,1020.0,1021.0,1010.0,1024.0,1021.0,1031.0,1021.0,1023.0,1012.0,1024.0,1021.0,1031.0,1022.0,1024.0,1014.0,1023.0,1020.0,1030.0,1021.0,1022.0,1011.0,1025.0,1022.0,1032.0,1021.0,1024.0,1014.0,1024.0,1021.0,1032.0,1022.0,1023.0,1013.0,1025.0,1023.0,1033.0,1022.0,1024.0,1015.0,1025.0,1023.0,1033.0,1022.0,1024.0,1016.0,1028.0,1025.0,1035.0,1023.0,1024.0,1018.0,1029.0,1027.0,1039.0,1025.0,1024.0,1022.0,1030.0,1028.0,1039.0,1024.0,1024.0,1023.0,1039.0,1037.0,1052.0,1029.0,1028.0,1096.0,1037.0,1036.0,1050.0,1029.0,1027.0,2279,2236,1901,	00:32:13.791,-0.00927734375,0.0537109375,1.0205078125,0.0,0.3662109375,0.18310546875,3.01025390625,0.5328369140625,-40.814208984375,39.0,-474.0,-4133.0,-0.936859130859375,-0.0262451171875,0.00482177734375,0.348663330078125,3.0096553437252123,0.5316773365745465,-45.28615293274648,-0.9225458923894634,-0.026022368295801537,0.005829524022467574,0.384964841814519,1,	00:32:13.792,0.0244140625,0.06396484375,1.01904296875,-0.1220703125,0.244140625,0.48828125,3.6419677734375,-1.373291015625,124.7222900390625,-74.0,708.0,-1796.0,0.463287353515625,0.025360107421875,0.0225830078125,0.88555908203125,3.6396881393192286,-1.3745955314847325,117.60279316411258,0.5173817960242764,0.02670444752601247,0.020951673825521946,0.855081269230553,1
1782117442.928898,0.217,1020.0,1029.0,1019.0,1021.0,1019.0,1029.0,1020.0,1020.0,1009.0,1022.0,1019.0,1029.0,1020.0,1022.0,1009.0,1019.0,1022.0,1019.0,1030.0,1020.0,1022.0,1009.0,1020.0,1021.0,1022.0,1019.0,1030.0,1020.0,1021.0,1009.0,1019.0,1020.0,1020.0,1023.0,1020.0,1029.0,1020.0,1021.0,1009.0,1019.0,1020.0,1020.0,1023.0,1019.0,1030.0,1020.0,1021.0,1009.0,1020.0,1020.0,1020.0,1018.0,1023.0,1019.0,1029.0,1020.0,1021.0,1009.0,1019.0,1020.0,1019.0,1018.0,1023.0,1020.0,1031.0,1020.0,1022.0,1009.0,1020.0,1021.0,1021.0,1020.0,1024.0,1021.0,1030.0,1021.0,1022.0,1010.0,1020.0,1021.0,1021.0,1020.0,1024.0,1021.0,1031.0,1021.0,1022.0,1010.0,1019.0,1021.0,1021.0,1020.0,1025.0,1022.0,1031.0,1021.0,1023.0,1010.0,1021.0,1022.0,1022.0,1021.0,1024.0,1021.0,1031.0,1020.0,1022.0,1009.0,1019.0,1020.0,1021.0,1020.0,1026.0,1023.0,1032.0,1021.0,1024.0,1011.0,1020.0,1022.0,1023.0,1025.0,1022.0,1032.0,1021.0,1024.0,1011.0,1020.0,1021.0,1024.0,1021.0,1031.0,1021.0,1022.0,1010.0,1020.0,1024.0,1022.0,1032.0,1021.0,1024.0,1011.0,1021.0,1024.0,1021.0,1031.0,1020.0,1023.0,1011.0,1020.0,1024.0,1021.0,1030.0,1021.0,1022.0,1010.0,1023.0,1020.0,1030.0,1021.0,1021.0,1011.0,1024.0,1020.0,1030.0,1021.0,1023.0,1011.0,1024.0,1021.0,1032.0,1022.0,1024.0,1013.0,1024.0,1020.0,1031.0,1021.0,1022.0,1011.0,1024.0,1022.0,1032.0,1022.0,1023.0,1013.0,1024.0,1021.0,1032.0,1022.0,1023.0,1013.0,1025.0,1023.0,1033.0,1022.0,1024.0,1015.0,1025.0,1022.0,1033.0,1022.0,1023.0,1016.0,1028.0,1025.0,1036.0,1023.0,1024.0,1018.0,1029.0,1028.0,1039.0,1024.0,1025.0,1022.0,1030.0,1028.0,1040.0,1024.0,1024.0,1024.0,1040.0,1038.0,1052.0,1030.0,1028.0,1097.0,1037.0,1036.0,1050.0,1030.0,1028.0,2279,2236,1901,	00:32:13.801,-0.0087890625,0.0537109375,1.02099609375,-0.06103515625,0.42724609375,0.1220703125,3.0157470703125,0.4449462890625,-40.8087158203125,38.0,-476.0,-4135.0,-0.9368896484375,-0.0260009765625,0.005523681640625,0.3486328125,3.0130200695759557,0.44429397522115227,-45.28467532448049,-0.922560805842075,-0.0257561452493869,0.006544064808013857,0.38493552151198285,1,	00:32:13.802,0.0244140625,0.0634765625,1.0205078125,-0.1220703125,0.244140625,0.42724609375,3.548583984375,-1.3623046875,124.727783203125,-73.0,709.0,-1794.0,0.4632568359375,0.02490234375,0.021881103515625,0.885589599609375,3.54717662126111,-1.364731023256785,117.60939295617936,0.5173567484878614,0.026212001789356183,0.02030745134961588,0.8551272029212645,1
1782117442.938649,0.226,1019.0,1029.0,1019.0,1021.0,1019.0,1029.0,1020.0,1021.0,1009.0,1022.0,1019.0,1030.0,1021.0,1021.0,1009.0,1020.0,1023.0,1019.0,1030.0,1021.0,1022.0,1010.0,1020.0,1021.0,1022.0,1019.0,1030.0,1020.0,1021.0,1009.0,1019.0,1020.0,1020.0,1023.0,1019.0,1030.0,1021.0,1021.0,1009.0,1020.0,1020.0,1020.0,1023.0,1020.0,1030.0,1020.0,1021.0,1010.0,1020.0,1021.0,1020.0,1019.0,1023.0,1019.0,1030.0,1021.0,1021.0,1009.0,1019.0,1020.0,1020.0,1018.0,1023.0,1020.0,1030.0,1020.0,1022.0,1009.0,1020.0,1021.0,1021.0,1020.0,1024.0,1020.0,1030.0,1021.0,1022.0,1010.0,1020.0,1021.0,1021.0,1020.0,1024.0,1020.0,1030.0,1021.0,1022.0,1010.0,1020.0,1020.0,1021.0,1020.0,1025.0,1022.0,1032.0,1021.0,1023.0,1010.0,1020.0,1021.0,1022.0,1021.0,1024.0,1022.0,1031.0,1021.0,1022.0,1010.0,1020.0,1021.0,1021.0,1019.0,1026.0,1022.0,1032.0,1022.0,1024.0,1011.0,1020.0,1022.0,1023.0,1025.0,1022.0,1032.0,1021.0,1024.0,1011.0,1020.0,1021.0,1024.0,1021.0,1031.0,1021.0,1022.0,1011.0,1020.0,1025.0,1022.0,1032.0,1021.0,1024.0,1011.0,1020.0,1024.0,1021.0,1031.0,1021.0,1023.0,1011.0,1020.0,1023.0,1020.0,1031.0,1021.0,1022.0,1011.0,1023.0,1020.0,1030.0,1021.0,1021.0,1010.0,1024.0,1021.0,1031.0,1021.0,1023.0,1012.0,1024.0,1021.0,1031.0,1022.0,1024.0,1013.0,1023.0,1020.0,1031.0,1021.0,1022.0,1011.0,1024.0,1022.0,1032.0,1022.0,1023.0,1013.0,1024.0,1022.0,1032.0,1022.0,1023.0,1013.0,1025.0,1022.0,1033.0,1023.0,1023.0,1015.0,1025.0,1023.0,1033.0,1023.0,1023.0,1015.0,1028.0,1025.0,1035.0,1023.0,1024.0,1018.0,1030.0,1028.0,1039.0,1025.0,1025.0,1022.0,1030.0,1029.0,1039.0,1024.0,1024.0,1024.0,1041.0,1038.0,1052.0,1030.0,1028.0,1097.0,1037.0,1036.0,1050.0,1029.0,1028.0,2279,2236,1902,	00:32:13.812,-0.009765625,0.05322265625,1.0205078125,0.0,0.3662109375,0.1220703125,2.98828125,0.538330078125,-40.8087158203125,36.0,-476.0,-4133.0,-0.9368896484375,-0.026092529296875,0.00469970703125,0.3486328125,2.98937667234349,0.536454716751854,-45.28346620645146,-0.922558910784099,-0.025875284007191943,0.005722326548080292,0.38494516595130945,1,	00:32:13.813,0.0244140625,0.064453125,1.01953125,-0.18310546875,0.244140625,0.48828125,3.636474609375,-1.3677978515625,124.7332763671875,-76.0,709.0,-1793.0,0.463226318359375,0.025299072265625,0.0225830078125,0.885589599609375,3.636566324460399,-1.3681987795635346,117.61224049723981,0.5173138864738909,0.026640914041132384,0.020959493044177248,0.8551241454968175,1
1782117442.949295,0.237,1020.0,1028.0,1020.0,1022.0,1018.0,1029.0,1020.0,1021.0,1010.0,1022.0,1019.0,1030.0,1021.0,1021.0,1009.0,1019.0,1023.0,1019.0,1030.0,1020.0,1022.0,1009.0,1020.0,1021.0,1023.0,1020.0,1030.0,1021.0,1021.0,1009.0,1019.0,1020.0,1020.0,1023.0,1020.0,1030.0,1021.0,1021.0,1009.0,1019.0,1020.0,1021.0,1023.0,1019.0,1029.0,1020.0,1021.0,1008.0,1020.0,1020.0,1020.0,1019.0,1023.0,1019.0,1029.0,1020.0,1021.0,1009.0,1019.0,1020.0,1019.0,1018.0,1023.0,1020.0,1030.0,1021.0,1022.0,1009.0,1020.0,1021.0,1022.0,1020.0,1024.0,1021.0,1030.0,1021.0,1022.0,1010.0,1020.0,1021.0,1021.0,1020.0,1024.0,1021.0,1031.0,1020.0,1022.0,1009.0,1020.0,1021.0,1020.0,1019.0,1025.0,1022.0,1032.0,1021.0,1023.0,1010.0,1020.0,1021.0,1021.0,1021.0,1025.0,1022.0,1031.0,1021.0,1022.0,1010.0,1020.0,1021.0,1021.0,1020.0,1026.0,1023.0,1032.0,1022.0,1024.0,1010.0,1020.0,1023.0,1023.0,1025.0,1022.0,1032.0,1022.0,1023.0,1010.0,1020.0,1022.0,1025.0,1022.0,1032.0,1021.0,1022.0,1011.0,1020.0,1025.0,1021.0,1032.0,1021.0,1024.0,1011.0,1020.0,1024.0,1022.0,1031.0,1022.0,1023.0,1010.0,1020.0,1024.0,1021.0,1030.0,1021.0,1022.0,1011.0,1024.0,1020.0,1030.0,1021.0,1021.0,1011.0,1024.0,1021.0,1031.0,1021.0,1023.0,1012.0,1025.0,1021.0,1032.0,1022.0,1024.0,1013.0,1023.0,1020.0,1030.0,1021.0,1022.0,1012.0,1024.0,1022.0,1032.0,1022.0,1024.0,1013.0,1024.0,1021.0,1032.0,1022.0,1022.0,1013.0,1025.0,1023.0,1033.0,1022.0,1024.0,1015.0,1025.0,1023.0,1033.0,1022.0,1024.0,1015.0,1028.0,1024.0,1036.0,1024.0,1025.0,1018.0,1030.0,1027.0,1038.0,1025.0,1024.0,1022.0,1031.0,1028.0,1039.0,1024.0,1024.0,1024.0,1040.0,1037.0,1051.0,1030.0,1028.0,1096.0,1036.0,1036.0,1050.0,1029.0,1027.0,2279,2235,1902,	00:32:13.822,-0.00927734375,0.05224609375,1.0205078125,0.0,0.42724609375,0.1220703125,2.900390625,0.516357421875,-40.8087158203125,36.0,-475.0,-4131.0,-0.9368896484375,-0.025299072265625,0.004608154296875,0.3486328125,2.9011761419532216,0.5161567890454686,-45.2828345330356,-0.9225831523529869,-0.025097069566136863,0.005589331265075876,0.3849405453698362,1,	00:32:13.823,0.025390625,0.06396484375,1.01953125,-0.06103515625,0.244140625,0.42724609375,3.5760498046875,-1.4337158203125,124.73876953125,-75.0,710.0,-1793.0,0.463165283203125,0.02557373046875,0.0218505859375,0.8856201171875,3.5770023501495083,-1.4363113635494713,117.61810107488841,0.5172642960399656,0.026879033753531043,0.020208497543815707,0.8551647690438241,1
1782117442.959325,0.247,1020.0,1029.0,1020.0,1021.0,1018.0,1029.0,1020.0,1020.0,1010.0,1022.0,1019.0,1029.0,1020.0,1021.0,1009.0,1020.0,1022.0,1019.0,1030.0,1021.0,1022.0,1009.0,1020.0,1021.0,1022.0,1019.0,1029.0,1020.0,1021.0,1009.0,1020.0,1020.0,1020.0,1023.0,1019.0,1030.0,1020.0,1022.0,1009.0,1019.0,1020.0,1020.0,1022.0,1019.0,1029.0,1021.0,1022.0,1009.0,1020.0,1020.0,1020.0,1019.0,1023.0,1019.0,1029.0,1021.0,1021.0,1009.0,1019.0,1020.0,1020.0,1018.0,1024.0,1020.0,1030.0,1021.0,1022.0,1009.0,1020.0,1021.0,1021.0,1020.0,1024.0,1021.0,1030.0,1021.0,1022.0,1010.0,1020.0,1021.0,1021.0,1020.0,1023.0,1021.0,1031.0,1021.0,1022.0,1009.0,1020.0,1020.0,1021.0,1019.0,1025.0,1022.0,1031.0,1021.0,1023.0,1010.0,1021.0,1021.0,1021.0,1021.0,1024.0,1021.0,1030.0,1021.0,1022.0,1010.0,1019.0,1021.0,1021.0,1019.0,1026.0,1023.0,1032.0,1021.0,1024.0,1011.0,1020.0,1022.0,1024.0,1025.0,1022.0,1032.0,1021.0,1024.0,1011.0,1020.0,1022.0,1024.0,1021.0,1032.0,1022.0,1022.0,1010.0,1020.0,1025.0,1022.0,1031.0,1022.0,1024.0,1011.0,1020.0,1024.0,1021.0,1031.0,1021.0,1023.0,1011.0,1020.0,1023.0,1020.0,1030.0,1021.0,1022.0,1010.0,1023.0,1020.0,1030.0,1020.0,1021.0,1010.0,1024.0,1020.0,1031.0,1021.0,1023.0,1012.0,1024.0,1021.0,1031.0,1022.0,1024.0,1013.0,1023.0,1021.0,1031.0,1021.0,1021.0,1011.0,1024.0,1022.0,1032.0,1022.0,1023.0,1013.0,1024.0,1022.0,1032.0,1022.0,1023.0,1013.0,1025.0,1023.0,1033.0,1023.0,1024.0,1015.0,1025.0,1023.0,1033.0,1023.0,1024.0,1015.0,1028.0,1025.0,1036.0,1024.0,1024.0,1018.0,1029.0,1027.0,1038.0,1025.0,1025.0,1022.0,1030.0,1028.0,1039.0,1025.0,1024.0,1023.0,1040.0,1037.0,1052.0,1030.0,1028.0,1097.0,1037.0,1036.0,1050.0,1030.0,1027.0,2279,2235,1902,	00:32:13.832,-0.009765625,0.05322265625,1.0205078125,0.0,0.3662109375,0.18310546875,2.98828125,0.54931640625,-40.8087158203125,36.0,-474.0,-4137.0,-0.9368896484375,-0.026092529296875,0.00457763671875,0.3486328125,2.986999817074276,0.5516577339093562,-45.280020904969355,-0.9225691083902877,-0.025907357525985383,0.00559115337412183,0.38492049578311277,1,	00:32:13.833,0.02587890625,0.06494140625,1.0205078125,-0.06103515625,0.30517578125,0.42724609375,3.6639404296875,-1.4501953125,124.73876953125,-74.0,708.0,-1792.0,0.463134765625,0.02606201171875,0.0224609375,0.8856201171875,3.665844344337269,-1.4522362141102603,117.62029944537068,0.51722218707673,0.02739844033836796,0.02080004289633041,0.8551595715877242,1
1782117442.969384,0.257,1020.0,1028.0,1020.0,1022.0,1019.0,1028.0,1020.0,1021.0,1009.0,1022.0,1019.0,1029.0,1020.0,1021.0,1009.0,1020.0,1023.0,1019.0,1030.0,1020.0,1022.0,1009.0,1020.0,1021.0,1023.0,1019.0,1029.0,1020.0,1021.0,1009.0,1019.0,1020.0,1021.0,1023.0,1019.0,1029.0,1021.0,1021.0,1009.0,1019.0,1020.0,1020.0,1024.0,1019.0,1030.0,1021.0,1021.0,1009.0,1020.0,1019.0,1020.0,1019.0,1023.0,1019.0,1029.0,1021.0,1021.0,1009.0,1020.0,1020.0,1020.0,1018.0,1024.0,1020.0,1031.0,1021.0,1022.0,1009.0,1019.0,1021.0,1021.0,1020.0,1024.0,1020.0,1031.0,1021.0,1022.0,1008.0,1020.0,1021.0,1020.0,1020.0,1024.0,1020.0,1031.0,1021.0,1022.0,1009.0,1020.0,1020.0,1020.0,1020.0,1026.0,1022.0,1032.0,1021.0,1022.0,1010.0,1021.0,1022.0,1022.0,1021.0,1025.0,1022.0,1031.0,1021.0,1022.0,1010.0,1020.0,1021.0,1021.0,1020.0,1026.0,1023.0,1032.0,1022.0,1024.0,1010.0,1020.0,1022.0,1023.0,1025.0,1022.0,1031.0,1022.0,1023.0,1011.0,1020.0,1021.0,1025.0,1021.0,1031.0,1021.0,1022.0,1010.0,1020.0,1025.0,1021.0,1031.0,1021.0,1024.0,1011.0,1021.0,1025.0,1021.0,1031.0,1021.0,1023.0,1011.0,1020.0,1024.0,1020.0,1031.0,1021.0,1022.0,1010.0,1023.0,1020.0,1030.0,1022.0,1022.0,1010.0,1024.0,1020.0,1031.0,1022.0,1023.0,1012.0,1024.0,1021.0,1031.0,1023.0,1023.0,1013.0,1023.0,1020.0,1030.0,1022.0,1022.0,1011.0,1025.0,1021.0,1032.0,1023.0,1023.0,1013.0,1024.0,1021.0,1032.0,1022.0,1022.0,1013.0,1025.0,1023.0,1033.0,1024.0,1024.0,1015.0,1025.0,1022.0,1033.0,1023.0,1024.0,1016.0,1029.0,1024.0,1036.0,1024.0,1023.0,1018.0,1030.0,1027.0,1038.0,1025.0,1024.0,1022.0,1031.0,1028.0,1039.0,1026.0,1024.0,1023.0,1041.0,1037.0,1052.0,1031.0,1027.0,1096.0,1037.0,1035.0,1050.0,1030.0,1027.0,2279,2235,1901,	00:32:13.842,-0.00927734375,0.05322265625,1.02099609375,0.0,0.42724609375,0.1220703125,2.977294921875,0.4669189453125,-40.80322265625,37.0,-473.0,-4134.0,-0.936920166015625,-0.0257568359375,0.0052490234375,0.348602294921875,2.978457923853093,0.46459622572270926,-45.27865502795341,-0.9225863337717587,-0.025546384340464655,0.006263155536641666,0.38489298755295354,1,	00:32:13.843,0.02490234375,0.06396484375,1.02001953125,0.0,0.244140625,0.48828125,3.592529296875,-1.395263671875,124.7442626953125,-74.0,709.0,-1798.0,0.463104248046875,0.02532958984375,0.022125244140625,0.885650634765625,3.5917489588900033,-1.396261181475826,117.62716867751266,0.517204767467975,0.026645235411697856,0.020501673934559584,0.8552011116130136,1
1782117442.981423,0.269,1020.0,1028.0,1020.0,1021.0,1017.0,1029.0,1021.0,1021.0,1010.0,1022.0,1019.0,1029.0,1020.0,1021.0,1009.0,1020.0,1023.0,1019.0,1029.0,1021.0,1022.0,1009.0,1020.0,1020.0,1022.0,1019.0,1029.0,1021.0,1021.0,1009.0,1019.0,1020.0,1020.0,1023.0,1019.0,1030.0,1021.0,1021.0,1009.0,1020.0,1020.0,1020.0,1023.0,1019.0,1030.0,1021.0,1021.0,1009.0,1020.0,1020.0,1020.0,1019.0,1023.0,1019.0,1029.0,1020.0,1021.0,1009.0,1020.0,1020.0,1019.0,1018.0,1024.0,1021.0,1030.0,1021.0,1022.0,1009.0,1020.0,1021.0,1021.0,1019.0,1024.0,1021.0,1030.0,1022.0,1022.0,1009.0,1020.0,1021.0,1021.0,1020.0,1024.0,1021.0,1030.0,1021.0,1022.0,1009.0,1019.0,1021.0,1021.0,1019.0,1025.0,1022.0,1031.0,1021.0,1023.0,1010.0,1020.0,1022.0,1022.0,1020.0,1025.0,1022.0,1031.0,1021.0,1022.0,1010.0,1020.0,1021.0,1021.0,1020.0,1025.0,1023.0,1032.0,1021.0,1024.0,1010.0,1020.0,1023.0,1023.0,1025.0,1022.0,1032.0,1021.0,1023.0,1011.0,1020.0,1021.0,1025.0,1021.0,1031.0,1021.0,1022.0,1010.0,1020.0,1025.0,1022.0,1031.0,1021.0,1024.0,1011.0,1020.0,1024.0,1021.0,1031.0,1021.0,1023.0,1010.0,1020.0,1024.0,1020.0,1030.0,1021.0,1022.0,1011.0,1024.0,1019.0,1030.0,1021.0,1021.0,1011.0,1024.0,1020.0,1031.0,1022.0,1023.0,1012.0,1024.0,1022.0,1031.0,1022.0,1024.0,1013.0,1024.0,1020.0,1030.0,1021.0,1022.0,1011.0,1025.0,1022.0,1032.0,1023.0,1023.0,1013.0,1024.0,1022.0,1032.0,1022.0,1023.0,1013.0,1025.0,1022.0,1032.0,1023.0,1024.0,1015.0,1025.0,1022.0,1032.0,1022.0,1023.0,1015.0,1028.0,1025.0,1036.0,1024.0,1024.0,1019.0,1029.0,1028.0,1038.0,1025.0,1025.0,1022.0,1032.0,1028.0,1039.0,1025.0,1024.0,1023.0,1041.0,1038.0,1052.0,1031.0,1028.0,1096.0,1038.0,1036.0,1050.0,1030.0,1027.0,2279,2235,1902,	00:32:13.853,-0.00830078125,0.052734375,1.021484375,0.0,0.3662109375,0.18310546875,2.889404296875,0.4669189453125,-40.80322265625,36.0,-476.0,-4135.0,-0.936920166015625,-0.0250244140625,0.00494384765625,0.348602294921875,2.886928886592492,0.4696253376694766,-45.2773823380095,-0.922610128565788,-0.024826417767279313,0.005914953683065943,0.3848885721499042,1,	00:32:13.854,0.025390625,0.0654296875,1.02001953125,-0.06103515625,0.244140625,0.48828125,3.6749267578125,-1.4227294921875,124.749755859375,-73.0,709.0,-1793.0,0.463043212890625,0.02587890625,0.022674560546875,0.885650634765625,3.677613171859912,-1.423641103835978,117.63006545340495,0.5171549583283029,0.027236477645297505,0.021019430591317223,0.8552000391133909,1
1782117442.989938,0.278,1020.0,1028.0,1020.0,1022.0,1019.0,1029.0,1020.0,1021.0,1009.0,1022.0,1019.0,1029.0,1020.0,1021.0,1009.0,1019.0,1023.0,1020.0,1029.0,1020.0,1021.0,1009.0,1020.0,1020.0,1023.0,1018.0,1029.0,1020.0,1021.0,1009.0,1020.0,1020.0,1020.0,1023.0,1019.0,1030.0,1021.0,1021.0,1009.0,1020.0,1020.0,1020.0,1023.0,1019.0,1030.0,1021.0,1021.0,1008.0,1020.0,1020.0,1020.0,1019.0,1023.0,1019.0,1029.0,1020.0,1021.0,1009.0,1020.0,1020.0,1020.0,1018.0,1024.0,1020.0,1030.0,1020.0,1022.0,1009.0,1020.0,1021.0,1021.0,1020.0,1024.0,1020.0,1030.0,1021.0,1022.0,1009.0,1020.0,1021.0,1021.0,1020.0,1024.0,1021.0,1030.0,1020.0,1022.0,1010.0,1020.0,1020.0,1020.0,1019.0,1026.0,1022.0,1031.0,1021.0,1023.0,1010.0,1020.0,1021.0,1021.0,1021.0,1025.0,1021.0,1031.0,1021.0,1023.0,1009.0,1020.0,1021.0,1021.0,1020.0,1026.0,1022.0,1032.0,1021.0,1024.0,1011.0,1020.0,1022.0,1023.0,1025.0,1022.0,1032.0,1021.0,1023.0,1011.0,1020.0,1021.0,1024.0,1021.0,1031.0,1021.0,1023.0,1010.0,1020.0,1024.0,1021.0,1031.0,1021.0,1024.0,1011.0,1020.0,1024.0,1021.0,1031.0,1021.0,1023.0,1011.0,1020.0,1024.0,1020.0,1030.0,1021.0,1022.0,1011.0,1024.0,1020.0,1030.0,1020.0,1022.0,1010.0,1024.0,1020.0,1030.0,1022.0,1023.0,1011.0,1024.0,1020.0,1031.0,1022.0,1024.0,1012.0,1024.0,1020.0,1031.0,1021.0,1022.0,1011.0,1025.0,1022.0,1031.0,1022.0,1023.0,1013.0,1024.0,1021.0,1032.0,1022.0,1024.0,1013.0,1024.0,1022.0,1032.0,1023.0,1023.0,1015.0,1025.0,1023.0,1033.0,1023.0,1023.0,1016.0,1028.0,1025.0,1035.0,1024.0,1024.0,1019.0,1029.0,1027.0,1038.0,1025.0,1024.0,1022.0,1031.0,1028.0,1039.0,1025.0,1024.0,1024.0,1040.0,1037.0,1052.0,1031.0,1028.0,1096.0,1037.0,1035.0,1050.0,1030.0,1027.0,2279,2235,1902,	00:32:13.863,-0.00927734375,0.05322265625,1.0205078125,0.0,0.3662109375,0.18310546875,2.96630859375,0.516357421875,-40.80322265625,36.0,-472.0,-4137.0,-0.936920166015625,-0.025848388671875,0.00482177734375,0.34857177734375,2.968421373711714,0.5149724429873693,-45.27466911610414,-0.9225958388590064,-0.02563489913971416,0.005822932528034534,0.38487122979370275,1,	00:32:13.864,0.025390625,0.06396484375,1.02001953125,-0.06103515625,0.244140625,0.42724609375,3.5870361328125,-1.4227294921875,124.7552490234375,-73.0,709.0,-1796.0,0.4630126953125,0.025482177734375,0.02197265625,0.885711669921875,3.5853772586204524,-1.4209560674294892,117.63675882213575,0.5171275366247859,0.02679898779832765,0.020344763744945062,0.8552467572025796,1
1782117442.999979,0.288,1021.0,1028.0,1020.0,1022.0,1018.0,1028.0,1020.0,1022.0,1009.0,1022.0,1018.0,1029.0,1021.0,1021.0,1009.0,1020.0,1023.0,1019.0,1030.0,1021.0,1022.0,1009.0,1020.0,1021.0,1022.0,1019.0,1029.0,1021.0,1021.0,1009.0,1019.0,1020.0,1020.0,1023.0,1019.0,1029.0,1021.0,1022.0,1009.0,1020.0,1020.0,1020.0,1023.0,1019.0,1029.0,1021.0,1021.0,1009.0,1019.0,1020.0,1020.0,1019.0,1023.0,1019.0,1029.0,1021.0,1021.0,1009.0,1019.0,1020.0,1020.0,1018.0,1024.0,1020.0,1029.0,1021.0,1022.0,1010.0,1020.0,1021.0,1021.0,1020.0,1024.0,1020.0,1030.0,1021.0,1022.0,1009.0,1020.0,1021.0,1021.0,1020.0,1023.0,1021.0,1030.0,1021.0,1022.0,1009.0,1019.0,1020.0,1021.0,1019.0,1026.0,1021.0,1031.0,1021.0,1023.0,1010.0,1020.0,1021.0,1021.0,1021.0,1025.0,1020.0,1031.0,1021.0,1022.0,1010.0,1020.0,1021.0,1021.0,1020.0,1026.0,1023.0,1032.0,1021.0,1024.0,1010.0,1020.0,1023.0,1023.0,1026.0,1022.0,1032.0,1021.0,1023.0,1010.0,1020.0,1022.0,1024.0,1021.0,1031.0,1021.0,1022.0,1011.0,1020.0,1025.0,1021.0,1031.0,1022.0,1024.0,1011.0,1021.0,1024.0,1021.0,1031.0,1021.0,1023.0,1011.0,1020.0,1023.0,1020.0,1030.0,1021.0,1022.0,1011.0,1023.0,1020.0,1030.0,1021.0,1022.0,1010.0,1024.0,1020.0,1031.0,1021.0,1023.0,1011.0,1025.0,1021.0,1031.0,1022.0,1024.0,1013.0,1024.0,1020.0,1030.0,1021.0,1022.0,1011.0,1025.0,1021.0,1032.0,1023.0,1024.0,1013.0,1024.0,1021.0,1032.0,1022.0,1024.0,1013.0,1025.0,1023.0,1033.0,1023.0,1024.0,1015.0,1025.0,1022.0,1033.0,1023.0,1024.0,1015.0,1028.0,1025.0,1035.0,1023.0,1024.0,1018.0,1031.0,1027.0,1038.0,1025.0,1025.0,1021.0,1031.0,1027.0,1039.0,1024.0,1024.0,1024.0,1041.0,1037.0,1052.0,1030.0,1028.0,1097.0,1038.0,1035.0,1050.0,1030.0,1028.0,2278,2235,1901,	00:32:13.873,-0.00927734375,0.05224609375,1.02099609375,0.0,0.42724609375,0.18310546875,2.87841796875,0.5328369140625,-40.7977294921875,36.0,-473.0,-4137.0,-0.93695068359375,-0.025146484375,0.004425048828125,0.34857177734375,2.8776029034212938,0.5306696448861261,-45.27344796958472,-0.9226180667059464,-0.024956446921697763,0.005391243186928979,0.3848688260196266,1,	00:32:13.874,0.0244140625,0.06494140625,1.01904296875,-0.06103515625,0.30517578125,0.48828125,3.6529541015625,-1.3568115234375,124.7607421875,-74.0,709.0,-1793.0,0.4630126953125,0.025299072265625,0.02276611328125,0.885711669921875,3.6547849075373042,-1.3592429938564639,117.64012230952355,0.517104178923849,0.0266512161359814,0.02114241241854355,0.8552461512424884,1
1782117443.010075,0.298,1019.0,1028.0,1019.0,1022.0,1018.0,1029.0,1020.0,1021.0,1010.0,1022.0,1019.0,1028.0,1020.0,1021.0,1009.0,1020.0,1023.0,1019.0,1029.0,1021.0,1022.0,1009.0,1020.0,1020.0,1022.0,1019.0,1029.0,1021.0,1021.0,1009.0,1020.0,1020.0,1020.0,1023.0,1019.0,1030.0,1021.0,1022.0,1009.0,1020.0,1020.0,1021.0,1023.0,1019.0,1030.0,1020.0,1021.0,1009.0,1019.0,1020.0,1020.0,1019.0,1023.0,1019.0,1029.0,1021.0,1021.0,1009.0,1020.0,1020.0,1019.0,1018.0,1023.0,1020.0,1030.0,1020.0,1023.0,1010.0,1020.0,1021.0,1021.0,1020.0,1024.0,1020.0,1030.0,1021.0,1022.0,1009.0,1020.0,1021.0,1021.0,1020.0,1024.0,1020.0,1030.0,1020.0,1022.0,1009.0,1019.0,1020.0,1021.0,1020.0,1026.0,1022.0,1031.0,1021.0,1023.0,1010.0,1020.0,1021.0,1021.0,1021.0,1025.0,1021.0,1031.0,1020.0,1023.0,1010.0,1019.0,1021.0,1021.0,1020.0,1026.0,1022.0,1032.0,1021.0,1024.0,1010.0,1020.0,1023.0,1023.0,1025.0,1022.0,1031.0,1021.0,1024.0,1011.0,1020.0,1022.0,1024.0,1021.0,1031.0,1021.0,1023.0,1010.0,1020.0,1025.0,1021.0,1032.0,1022.0,1024.0,1011.0,1020.0,1024.0,1021.0,1031.0,1022.0,1023.0,1011.0,1020.0,1024.0,1021.0,1030.0,1021.0,1022.0,1011.0,1024.0,1019.0,1030.0,1021.0,1021.0,1010.0,1024.0,1020.0,1031.0,1021.0,1023.0,1011.0,1024.0,1021.0,1031.0,1022.0,1024.0,1012.0,1023.0,1021.0,1030.0,1021.0,1022.0,1011.0,1025.0,1021.0,1032.0,1022.0,1023.0,1013.0,1024.0,1021.0,1032.0,1022.0,1023.0,1014.0,1025.0,1023.0,1033.0,1022.0,1023.0,1015.0,1026.0,1022.0,1033.0,1023.0,1024.0,1015.0,1029.0,1025.0,1035.0,1023.0,1024.0,1018.0,1031.0,1027.0,1038.0,1024.0,1025.0,1022.0,1031.0,1028.0,1039.0,1024.0,1024.0,1023.0,1041.0,1037.0,1051.0,1029.0,1028.0,1096.0,1038.0,1035.0,1049.0,1028.0,1028.0,2278,2235,1901,	00:32:13.883,-0.0087890625,0.05322265625,1.0224609375,0.0,0.42724609375,0.1220703125,2.9608154296875,0.4998779296875,-40.7977294921875,37.0,-472.0,-4137.0,-0.936920166015625,-0.0257568359375,0.004913330078125,0.348541259765625,2.9632247467801074,0.5023298431236214,-45.27124259062964,-0.9226100582063301,-0.025550798427728914,0.005906512579882919,0.38484146126081764,1,	00:32:13.884,0.0244140625,0.06494140625,1.01953125,0.0,0.30517578125,0.48828125,3.5870361328125,-1.4227294921875,124.7662353515625,-71.0,709.0,-1797.0,0.46295166015625,0.025482177734375,0.022003173828125,0.8857421875,3.5886451824575336,-1.420077856516583,117.64679242465542,0.5170521395305273,0.02680539988525349,0.020375469093218104,0.8552914098733408,1
1782117443.021002,0.309,1020.0,1028.0,1019.0,1022.0,1018.0,1030.0,1020.0,1020.0,1008.0,1023.0,1019.0,1029.0,1020.0,1022.0,1008.0,1019.0,1023.0,1019.0,1030.0,1020.0,1022.0,1009.0,1020.0,1021.0,1023.0,1019.0,1029.0,1020.0,1021.0,1009.0,1020.0,1020.0,1020.0,1023.0,1019.0,1029.0,1020.0,1022.0,1009.0,1020.0,1020.0,1020.0,1023.0,1019.0,1029.0,1020.0,1022.0,1009.0,1020.0,1020.0,1020.0,1018.0,1023.0,1019.0,1029.0,1020.0,1021.0,1009.0,1020.0,1019.0,1019.0,1018.0,1024.0,1020.0,1030.0,1020.0,1022.0,1009.0,1020.0,1021.0,1021.0,1021.0,1024.0,1020.0,1029.0,1021.0,1022.0,1009.0,1020.0,1020.0,1021.0,1020.0,1024.0,1021.0,1030.0,1021.0,1022.0,1009.0,1020.0,1021.0,1021.0,1019.0,1026.0,1022.0,1031.0,1021.0,1023.0,1009.0,1020.0,1022.0,1021.0,1021.0,1025.0,1022.0,1031.0,1021.0,1023.0,1010.0,1020.0,1021.0,1021.0,1019.0,1026.0,1022.0,1031.0,1021.0,1024.0,1010.0,1020.0,1022.0,1023.0,1025.0,1022.0,1032.0,1021.0,1023.0,1011.0,1020.0,1022.0,1024.0,1021.0,1031.0,1021.0,1023.0,1010.0,1020.0,1025.0,1022.0,1031.0,1021.0,1024.0,1011.0,1020.0,1024.0,1021.0,1031.0,1021.0,1023.0,1011.0,1020.0,1024.0,1020.0,1030.0,1021.0,1022.0,1011.0,1024.0,1020.0,1029.0,1021.0,1021.0,1010.0,1024.0,1020.0,1030.0,1021.0,1023.0,1011.0,1025.0,1021.0,1031.0,1022.0,1024.0,1013.0,1024.0,1020.0,1030.0,1021.0,1022.0,1011.0,1025.0,1022.0,1031.0,1022.0,1023.0,1013.0,1025.0,1022.0,1032.0,1022.0,1022.0,1013.0,1026.0,1022.0,1032.0,1023.0,1024.0,1014.0,1025.0,1023.0,1033.0,1022.0,1023.0,1015.0,1028.0,1025.0,1034.0,1023.0,1024.0,1018.0,1030.0,1027.0,1038.0,1024.0,1025.0,1022.0,1031.0,1028.0,1038.0,1024.0,1024.0,1023.0,1042.0,1037.0,1052.0,1030.0,1028.0,1096.0,1039.0,1035.0,1050.0,1029.0,1028.0,2278,2235,1902,	00:32:13.894,-0.00830078125,0.05322265625,1.02099609375,-0.06103515625,0.42724609375,0.1220703125,3.0047607421875,0.428466796875,-40.7977294921875,36.0,-472.0,-4136.0,-0.936920166015625,-0.02587890625,0.005645751953125,0.3485107421875,3.0073991328262952,0.42655384199213553,-45.269439304056654,-0.9226153470038709,-0.025652214311925967,0.006664607933376369,0.3848096521332545,1,	00:32:13.895,0.02490234375,0.06591796875,1.02001953125,0.0,0.244140625,0.48828125,3.680419921875,-1.395263671875,124.771728515625,-73.0,709.0,-1796.0,0.462921142578125,0.025665283203125,0.02276611328125,0.8857421875,3.677848585407685,-1.3978811005151663,117.64962330019968,0.5170165374660913,0.02704177653311415,0.02114221155475455,0.8552868812270423,1
1782117443.030499,0.318,1021.0,1027.0,1020.0,1022.0,1019.0,1028.0,1020.0,1021.0,1009.0,1022.0,1019.0,1028.0,1021.0,1021.0,1009.0,1020.0,1023.0,1020.0,1028.0,1021.0,1022.0,1009.0,1020.0,1021.0,1023.0,1020.0,1028.0,1020.0,1021.0,1009.0,1020.0,1020.0,1020.0,1023.0,1020.0,1028.0,1020.0,1022.0,1008.0,1019.0,1020.0,1020.0,1023.0,1019.0,1028.0,1021.0,1021.0,1009.0,1020.0,1020.0,1020.0,1019.0,1023.0,1020.0,1028.0,1021.0,1021.0,1009.0,1020.0,1020.0,1019.0,1018.0,1024.0,1021.0,1029.0,1021.0,1022.0,1009.0,1020.0,1021.0,1021.0,1020.0,1024.0,1021.0,1029.0,1021.0,1022.0,1008.0,1020.0,1021.0,1021.0,1020.0,1024.0,1021.0,1029.0,1021.0,1022.0,1009.0,1020.0,1020.0,1021.0,1020.0,1026.0,1023.0,1030.0,1021.0,1023.0,1009.0,1020.0,1022.0,1022.0,1021.0,1025.0,1022.0,1029.0,1021.0,1022.0,1009.0,1020.0,1021.0,1021.0,1020.0,1026.0,1024.0,1031.0,1021.0,1024.0,1010.0,1021.0,1022.0,1023.0,1026.0,1023.0,1030.0,1021.0,1024.0,1011.0,1020.0,1021.0,1025.0,1022.0,1030.0,1021.0,1022.0,1010.0,1019.0,1025.0,1022.0,1030.0,1021.0,1024.0,1010.0,1020.0,1025.0,1022.0,1029.0,1022.0,1024.0,1011.0,1020.0,1024.0,1021.0,1029.0,1021.0,1022.0,1011.0,1024.0,1021.0,1029.0,1020.0,1021.0,1009.0,1024.0,1021.0,1029.0,1021.0,1023.0,1011.0,1025.0,1022.0,1030.0,1022.0,1024.0,1013.0,1024.0,1021.0,1029.0,1021.0,1022.0,1011.0,1025.0,1023.0,1030.0,1022.0,1024.0,1013.0,1024.0,1022.0,1031.0,1022.0,1023.0,1013.0,1025.0,1024.0,1032.0,1023.0,1024.0,1014.0,1026.0,1023.0,1032.0,1022.0,1024.0,1015.0,1029.0,1025.0,1034.0,1023.0,1024.0,1017.0,1030.0,1028.0,1037.0,1024.0,1025.0,1021.0,1032.0,1028.0,1038.0,1024.0,1024.0,1023.0,1042.0,1037.0,1050.0,1030.0,1028.0,1096.0,1039.0,1035.0,1048.0,1029.0,1028.0,2278,2235,1902,	00:32:13.904,-0.009765625,0.052734375,1.02099609375,-0.06103515625,0.3662109375,0.18310546875,2.9718017578125,0.516357421875,-40.792236328125,36.0,-474.0,-4135.0,-0.936920166015625,-0.02587890625,0.00482177734375,0.3485107421875,2.97130932335267,0.5146303364144339,-45.267710545326246,-0.9226186042645425,-0.025657356435688585,0.005833828686451332,0.38481499135108643,1,	00:32:13.905,0.02490234375,0.06396484375,1.01953125,-0.06103515625,0.244140625,0.48828125,3.5870361328125,-1.395263671875,124.7772216796875,-72.0,710.0,-1794.0,0.462890625,0.0252685546875,0.0220947265625,0.885772705078125,3.5856131505606967,-1.3942558609713043,117.65688372196907,0.5169849899172662,0.026597275018333782,0.020471842211252568,0.855336196380301,1
1782117443.040680,0.328,1020.0,1027.0,1020.0,1022.0,1019.0,1028.0,1021.0,1022.0,1009.0,1023.0,1019.0,1028.0,1021.0,1021.0,1009.0,1020.0,1024.0,1020.0,1028.0,1020.0,1022.0,1009.0,1020.0,1021.0,1023.0,1020.0,1028.0,1021.0,1021.0,1008.0,1020.0,1020.0,1020.0,1023.0,1020.0,1028.0,1021.0,1021.0,1009.0,1020.0,1020.0,1020.0,1024.0,1020.0,1028.0,1020.0,1021.0,1009.0,1020.0,1020.0,1020.0,1019.0,1023.0,1020.0,1028.0,1021.0,1020.0,1008.0,1020.0,1020.0,1020.0,1018.0,1024.0,1021.0,1029.0,1020.0,1023.0,1008.0,1020.0,1021.0,1021.0,1020.0,1025.0,1022.0,1029.0,1021.0,1022.0,1009.0,1020.0,1021.0,1021.0,1020.0,1024.0,1021.0,1029.0,1021.0,1022.0,1009.0,1019.0,1021.0,1021.0,1020.0,1026.0,1023.0,1029.0,1021.0,1023.0,1010.0,1020.0,1021.0,1022.0,1021.0,1025.0,1022.0,1029.0,1021.0,1022.0,1010.0,1020.0,1020.0,1021.0,1020.0,1027.0,1023.0,1030.0,1022.0,1024.0,1010.0,1020.0,1022.0,1024.0,1026.0,1022.0,1030.0,1021.0,1024.0,1011.0,1020.0,1021.0,1025.0,1022.0,1030.0,1021.0,1022.0,1010.0,1020.0,1025.0,1022.0,1030.0,1021.0,1024.0,1011.0,1020.0,1025.0,1022.0,1029.0,1021.0,1023.0,1011.0,1020.0,1024.0,1021.0,1029.0,1021.0,1022.0,1011.0,1024.0,1021.0,1029.0,1021.0,1021.0,1010.0,1024.0,1021.0,1029.0,1021.0,1023.0,1012.0,1025.0,1022.0,1030.0,1022.0,1024.0,1012.0,1024.0,1021.0,1029.0,1021.0,1022.0,1011.0,1025.0,1022.0,1030.0,1022.0,1023.0,1013.0,1025.0,1022.0,1030.0,1022.0,1023.0,1013.0,1026.0,1023.0,1031.0,1023.0,1024.0,1014.0,1026.0,1023.0,1032.0,1022.0,1023.0,1015.0,1029.0,1025.0,1034.0,1023.0,1024.0,1018.0,1031.0,1028.0,1037.0,1024.0,1025.0,1021.0,1032.0,1028.0,1038.0,1024.0,1024.0,1023.0,1043.0,1037.0,1051.0,1030.0,1028.0,1096.0,1039.0,1035.0,1049.0,1029.0,1027.0,2278,2235,1902,	00:32:13.914,-0.0087890625,0.05224609375,1.0205078125,-0.06103515625,0.42724609375,0.18310546875,2.889404296875,0.4779052734375,-40.792236328125,35.0,-474.0,-4137.0,-0.93695068359375,-0.02508544921875,0.004913330078125,0.3485107421875,2.8900961549627544,0.47539172184452205,-45.26635664258726,-0.9226457908876898,-0.024871842336294338,0.005876767962671513,0.38480072714892394,1,	00:32:13.915,0.0244140625,0.064453125,1.02099609375,0.0,0.244140625,0.42724609375,3.6474609375,-1.3238525390625,124.7772216796875,-72.0,707.0,-1794.0,0.462860107421875,0.024993896484375,0.022857666015625,0.885772705078125,3.649543213034324,-1.3265172572945898,117.6597813405381,0.5169681776756527,0.02637978040089215,0.0212556790623161,0.855333973699347,1
1782117443.051960,0.340,1021.0,1027.0,1019.0,1022.0,1018.0,1028.0,1020.0,1021.0,1010.0,1023.0,1019.0,1028.0,1020.0,1021.0,1009.0,1020.0,1023.0,1020.0,1028.0,1020.0,1022.0,1010.0,1020.0,1021.0,1023.0,1020.0,1028.0,1021.0,1021.0,1008.0,1019.0,1020.0,1020.0,1023.0,1021.0,1028.0,1021.0,1021.0,1009.0,1020.0,1020.0,1021.0,1024.0,1020.0,1028.0,1020.0,1022.0,1009.0,1020.0,1020.0,1021.0,1019.0,1023.0,1020.0,1028.0,1020.0,1021.0,1009.0,1019.0,1020.0,1020.0,1018.0,1024.0,1021.0,1029.0,1021.0,1022.0,1009.0,1020.0,1020.0,1021.0,1020.0,1024.0,1021.0,1029.0,1021.0,1022.0,1009.0,1020.0,1021.0,1021.0,1019.0,1025.0,1021.0,1029.0,1021.0,1022.0,1010.0,1019.0,1020.0,1021.0,1020.0,1026.0,1023.0,1030.0,1021.0,1023.0,1009.0,1020.0,1022.0,1022.0,1021.0,1026.0,1022.0,1029.0,1021.0,1022.0,1010.0,1020.0,1021.0,1021.0,1020.0,1027.0,1023.0,1030.0,1022.0,1024.0,1010.0,1020.0,1023.0,1024.0,1026.0,1022.0,1030.0,1021.0,1023.0,1011.0,1020.0,1021.0,1025.0,1022.0,1030.0,1021.0,1022.0,1010.0,1019.0,1025.0,1023.0,1030.0,1021.0,1024.0,1011.0,1021.0,1025.0,1022.0,1029.0,1021.0,1023.0,1011.0,1020.0,1024.0,1021.0,1029.0,1021.0,1022.0,1010.0,1024.0,1021.0,1029.0,1020.0,1021.0,1010.0,1024.0,1021.0,1029.0,1021.0,1023.0,1011.0,1024.0,1022.0,1030.0,1022.0,1024.0,1012.0,1024.0,1021.0,1029.0,1021.0,1021.0,1011.0,1025.0,1023.0,1030.0,1022.0,1023.0,1013.0,1025.0,1022.0,1030.0,1022.0,1023.0,1013.0,1026.0,1024.0,1032.0,1022.0,1023.0,1014.0,1026.0,1023.0,1031.0,1021.0,1024.0,1015.0,1028.0,1026.0,1034.0,1023.0,1024.0,1018.0,1030.0,1028.0,1036.0,1025.0,1025.0,1022.0,1031.0,1028.0,1037.0,1023.0,1024.0,1023.0,1042.0,1037.0,1051.0,1029.0,1028.0,1096.0,1039.0,1036.0,1048.0,1029.0,1027.0,2278,2235,1901,	00:32:13.924,-0.00927734375,0.052734375,1.02099609375,-0.06103515625,0.42724609375,0.1220703125,2.96630859375,0.5328369140625,-40.792236328125,37.0,-473.0,-4137.0,-0.93695068359375,-0.02587890625,0.004669189453125,0.348480224609375,2.9656270869525616,0.5304889788684705,-45.26425411253719,-0.9226295218060648,-0.025665003880822386,0.005686276429077228,0.3847905135630054,1,	00:32:13.925,0.0244140625,0.064453125,1.01953125,0.0,0.18310546875,0.42724609375,3.592529296875,-1.4007568359375,124.78271484375,-72.0,709.0,-1795.0,0.462799072265625,0.02532958984375,0.022125244140625,0.885833740234375,3.5940826872816185,-1.3980233170785528,117.66547909760988,0.5169177742762181,0.02666205459182136,0.020520042096213175,0.8553736478023117,1
1782117443.061656,0.349,1020.0,1027.0,1019.0,1022.0,1019.0,1028.0,1020.0,1020.0,1009.0,1023.0,1019.0,1027.0,1020.0,1022.0,1009.0,1019.0,1023.0,1020.0,1028.0,1021.0,1022.0,1008.0,1019.0,1021.0,1024.0,1020.0,1028.0,1020.0,1021.0,1008.0,1020.0,1020.0,1020.0,1024.0,1020.0,1028.0,1021.0,1022.0,1009.0,1020.0,1020.0,1020.0,1023.0,1020.0,1028.0,1020.0,1021.0,1009.0,1020.0,1020.0,1020.0,1019.0,1023.0,1019.0,1028.0,1020.0,1020.0,1009.0,1019.0,1019.0,1019.0,1018.0,1024.0,1021.0,1028.0,1020.0,1022.0,1009.0,1020.0,1021.0,1021.0,1020.0,1024.0,1021.0,1029.0,1020.0,1022.0,1009.0,1020.0,1021.0,1021.0,1020.0,1025.0,1021.0,1028.0,1020.0,1023.0,1009.0,1020.0,1020.0,1021.0,1019.0,1027.0,1023.0,1029.0,1021.0,1023.0,1009.0,1020.0,1022.0,1022.0,1021.0,1026.0,1022.0,1029.0,1021.0,1022.0,1009.0,1020.0,1020.0,1021.0,1019.0,1027.0,1024.0,1030.0,1021.0,1024.0,1011.0,1020.0,1022.0,1024.0,1026.0,1023.0,1029.0,1021.0,1024.0,1010.0,1020.0,1022.0,1026.0,1022.0,1029.0,1020.0,1022.0,1010.0,1020.0,1026.0,1022.0,1029.0,1021.0,1024.0,1011.0,1021.0,1025.0,1021.0,1029.0,1021.0,1023.0,1011.0,1020.0,1025.0,1021.0,1028.0,1021.0,1022.0,1010.0,1024.0,1021.0,1028.0,1020.0,1021.0,1010.0,1025.0,1022.0,1029.0,1021.0,1022.0,1011.0,1025.0,1022.0,1029.0,1022.0,1023.0,1013.0,1024.0,1020.0,1029.0,1021.0,1022.0,1011.0,1026.0,1023.0,1030.0,1022.0,1023.0,1013.0,1025.0,1022.0,1031.0,1022.0,1023.0,1013.0,1026.0,1023.0,1031.0,1022.0,1023.0,1015.0,1026.0,1023.0,1031.0,1022.0,1023.0,1015.0,1029.0,1025.0,1034.0,1023.0,1024.0,1018.0,1030.0,1028.0,1037.0,1024.0,1025.0,1021.0,1032.0,1028.0,1037.0,1024.0,1024.0,1022.0,1042.0,1037.0,1050.0,1029.0,1029.0,1095.0,1039.0,1035.0,1049.0,1028.0,1028.0,2278,2235,1901,	00:32:13.935,-0.00830078125,0.05322265625,1.0205078125,0.0,0.3662109375,0.18310546875,2.9937744140625,0.4449462890625,-40.7867431640625,35.0,-474.0,-4134.0,-0.93695068359375,-0.02581787109375,0.005462646484375,0.34844970703125,2.99234939071971,0.44635568519886804,-45.26200834697085,-0.9226413166013218,-0.025597927335854767,0.006452964493538938,0.3847546052557826,1,	00:32:13.936,0.02490234375,0.06396484375,1.01953125,0.0,0.1220703125,0.42724609375,3.5101318359375,-1.3623046875,124.793701171875,-71.0,708.0,-1794.0,0.462799072265625,0.02471923828125,0.0216064453125,0.8858642578125,3.508655314276775,-1.3640347172882903,117.67187751922725,0.51689936238961,0.026021968771292207,0.020037328863982684,0.8554159290979314,1
1782117443.073337,0.361,1020.0,1027.0,1019.0,1023.0,1019.0,1027.0,1021.0,1021.0,1009.0,1023.0,1019.0,1028.0,1020.0,1021.0,1009.0,1019.0,1024.0,1020.0,1028.0,1020.0,1022.0,1009.0,1020.0,1021.0,1023.0,1019.0,1027.0,1020.0,1021.0,1009.0,1020.0,1020.0,1021.0,1024.0,1020.0,1028.0,1021.0,1021.0,1009.0,1020.0,1020.0,1021.0,1024.0,1020.0,1028.0,1021.0,1022.0,1009.0,1020.0,1019.0,1020.0,1018.0,1023.0,1019.0,1028.0,1020.0,1021.0,1009.0,1020.0,1020.0,1020.0,1018.0,1024.0,1021.0,1028.0,1021.0,1022.0,1009.0,1020.0,1021.0,1021.0,1020.0,1024.0,1021.0,1028.0,1021.0,1021.0,1010.0,1020.0,1021.0,1021.0,1020.0,1024.0,1021.0,1028.0,1021.0,1022.0,1009.0,1020.0,1021.0,1021.0,1019.0,1027.0,1023.0,1029.0,1021.0,1023.0,1010.0,1020.0,1021.0,1022.0,1021.0,1026.0,1022.0,1029.0,1020.0,1022.0,1010.0,1020.0,1021.0,1021.0,1020.0,1026.0,1023.0,1029.0,1021.0,1024.0,1010.0,1021.0,1022.0,1024.0,1026.0,1023.0,1030.0,1021.0,1024.0,1011.0,1020.0,1022.0,1025.0,1022.0,1029.0,1021.0,1022.0,1011.0,1020.0,1026.0,1022.0,1029.0,1021.0,1024.0,1011.0,1021.0,1025.0,1022.0,1030.0,1021.0,1023.0,1011.0,1020.0,1024.0,1021.0,1028.0,1021.0,1022.0,1010.0,1024.0,1021.0,1028.0,1020.0,1021.0,1010.0,1025.0,1021.0,1029.0,1021.0,1023.0,1012.0,1025.0,1022.0,1030.0,1022.0,1024.0,1013.0,1024.0,1021.0,1029.0,1020.0,1022.0,1011.0,1025.0,1023.0,1030.0,1022.0,1024.0,1013.0,1025.0,1022.0,1030.0,1022.0,1023.0,1013.0,1026.0,1024.0,1031.0,1022.0,1024.0,1015.0,1026.0,1023.0,1031.0,1023.0,1024.0,1015.0,1029.0,1025.0,1033.0,1023.0,1024.0,1017.0,1030.0,1028.0,1036.0,1024.0,1025.0,1021.0,1032.0,1028.0,1037.0,1024.0,1024.0,1023.0,1043.0,1037.0,1050.0,1030.0,1028.0,1095.0,1038.0,1035.0,1047.0,1028.0,1028.0,2278,2235,1901,	00:32:13.945,-0.00927734375,0.0517578125,1.02099609375,0.0,0.42724609375,0.18310546875,2.92236328125,0.5108642578125,-40.7867431640625,36.0,-474.0,-4135.0,-0.936981201171875,-0.02545166015625,0.004730224609375,0.34844970703125,2.921337982376439,0.5083999791751339,-45.26054840645121,-0.9226545123223419,-0.025234462541462912,0.005714608257014008,0.3847586464836547,1,	00:32:13.946,0.02490234375,0.06396484375,1.02001953125,0.0,0.1220703125,0.48828125,3.592529296875,-1.395263671875,124.793701171875,-71.0,708.0,-1794.0,0.462738037109375,0.02532958984375,0.022125244140625,0.8858642578125,3.5935269510912016,-1.3969977977673398,117.67477947712152,0.5168487753190494,0.02665023064003738,0.020522688743097962,0.855415646282429,1
1782117443.082455,0.370,1021.0,1027.0,1020.0,1022.0,1020.0,1027.0,1020.0,1021.0,1010.0,1023.0,1020.0,1028.0,1020.0,1020.0,1009.0,1020.0,1023.0,1020.0,1028.0,1021.0,1021.0,1009.0,1020.0,1021.0,1023.0,1020.0,1028.0,1021.0,1021.0,1010.0,1019.0,1020.0,1020.0,1023.0,1020.0,1028.0,1020.0,1022.0,1009.0,1020.0,1020.0,1020.0,1024.0,1020.0,1028.0,1020.0,1021.0,1009.0,1020.0,1020.0,1020.0,1019.0,1023.0,1020.0,1028.0,1020.0,1021.0,1009.0,1020.0,1019.0,1020.0,1018.0,1024.0,1021.0,1029.0,1020.0,1022.0,1009.0,1020.0,1021.0,1021.0,1020.0,1024.0,1021.0,1029.0,1021.0,1022.0,1009.0,1019.0,1020.0,1021.0,1020.0,1025.0,1021.0,1029.0,1021.0,1022.0,1009.0,1020.0,1020.0,1021.0,1019.0,1026.0,1023.0,1029.0,1021.0,1023.0,1010.0,1020.0,1021.0,1022.0,1021.0,1025.0,1021.0,1029.0,1021.0,1022.0,1010.0,1020.0,1021.0,1021.0,1019.0,1026.0,1023.0,1030.0,1022.0,1024.0,1011.0,1020.0,1022.0,1023.0,1026.0,1023.0,1030.0,1021.0,1023.0,1011.0,1020.0,1022.0,1025.0,1021.0,1029.0,1021.0,1022.0,1010.0,1020.0,1026.0,1022.0,1029.0,1022.0,1024.0,1011.0,1021.0,1025.0,1022.0,1029.0,1021.0,1023.0,1011.0,1021.0,1024.0,1021.0,1029.0,1021.0,1022.0,1010.0,1024.0,1021.0,1028.0,1020.0,1021.0,1011.0,1025.0,1021.0,1029.0,1021.0,1023.0,1012.0,1025.0,1022.0,1029.0,1022.0,1023.0,1012.0,1024.0,1021.0,1029.0,1021.0,1021.0,1011.0,1025.0,1022.0,1030.0,1022.0,1023.0,1014.0,1025.0,1022.0,1030.0,1022.0,1023.0,1013.0,1027.0,1023.0,1031.0,1022.0,1023.0,1014.0,1026.0,1024.0,1031.0,1022.0,1023.0,1015.0,1029.0,1025.0,1034.0,1023.0,1024.0,1018.0,1031.0,1027.0,1036.0,1024.0,1024.0,1021.0,1032.0,1028.0,1036.0,1024.0,1024.0,1022.0,1042.0,1037.0,1049.0,1030.0,1028.0,1094.0,1040.0,1035.0,1047.0,1028.0,1027.0,2278,2235,1901,	00:32:13.955,-0.0087890625,0.05322265625,1.02099609375,0.0,0.3662109375,0.18310546875,3.01025390625,0.4888916015625,-40.7867431640625,36.0,-475.0,-4134.0,-0.93695068359375,-0.026092529296875,0.005157470703125,0.348419189453125,3.0101290044003157,0.48950094931840266,-45.25776003598848,-0.9226463737670464,-0.025886101252498142,0.006164286399334126,0.3847279302437658,1,	00:32:13.956,0.025390625,0.06494140625,1.02001953125,0.06103515625,0.1220703125,0.42724609375,3.6749267578125,-1.439208984375,124.7991943359375,-70.0,708.0,-1792.0,0.462677001953125,0.025970458984375,0.022613525390625,0.8858642578125,3.6749525594457615,-1.438726967630803,117.67711862372964,0.5167999253952531,0.02732840488420846,0.020942624691100264,0.8554135852726407,1
1782117443.092760,0.380,1021.0,1026.0,1020.0,1022.0,1019.0,1027.0,1020.0,1021.0,1010.0,1023.0,1019.0,1027.0,1020.0,1021.0,1009.0,1019.0,1024.0,1019.0,1027.0,1020.0,1021.0,1009.0,1020.0,1020.0,1024.0,1020.0,1027.0,1021.0,1021.0,1009.0,1020.0,1019.0,1020.0,1024.0,1019.0,1028.0,1020.0,1021.0,1009.0,1020.0,1020.0,1020.0,1024.0,1020.0,1028.0,1020.0,1021.0,1009.0,1019.0,1020.0,1020.0,1018.0,1024.0,1020.0,1028.0,1021.0,1021.0,1009.0,1020.0,1019.0,1020.0,1018.0,1024.0,1021.0,1029.0,1021.0,1022.0,1009.0,1020.0,1021.0,1021.0,1020.0,1025.0,1021.0,1028.0,1021.0,1022.0,1009.0,1020.0,1021.0,1021.0,1019.0,1025.0,1021.0,1028.0,1021.0,1022.0,1009.0,1020.0,1020.0,1021.0,1019.0,1026.0,1022.0,1029.0,1021.0,1023.0,1009.0,1020.0,1021.0,1022.0,1021.0,1026.0,1022.0,1029.0,1021.0,1023.0,1010.0,1020.0,1021.0,1021.0,1020.0,1027.0,1023.0,1030.0,1021.0,1024.0,1010.0,1021.0,1022.0,1023.0,1026.0,1023.0,1030.0,1021.0,1024.0,1011.0,1020.0,1022.0,1026.0,1021.0,1029.0,1021.0,1022.0,1010.0,1020.0,1026.0,1022.0,1029.0,1021.0,1025.0,1011.0,1021.0,1026.0,1021.0,1029.0,1021.0,1023.0,1011.0,1021.0,1024.0,1020.0,1029.0,1021.0,1022.0,1011.0,1025.0,1020.0,1028.0,1020.0,1021.0,1010.0,1025.0,1021.0,1028.0,1021.0,1023.0,1011.0,1026.0,1022.0,1029.0,1022.0,1024.0,1013.0,1025.0,1021.0,1029.0,1021.0,1021.0,1011.0,1025.0,1022.0,1030.0,1022.0,1023.0,1013.0,1025.0,1023.0,1030.0,1022.0,1023.0,1013.0,1026.0,1023.0,1031.0,1022.0,1024.0,1014.0,1027.0,1023.0,1031.0,1022.0,1023.0,1015.0,1029.0,1025.0,1034.0,1023.0,1024.0,1018.0,1032.0,1027.0,1036.0,1024.0,1025.0,1021.0,1032.0,1027.0,1037.0,1024.0,1024.0,1023.0,1043.0,1036.0,1049.0,1030.0,1028.0,1095.0,1040.0,1034.0,1048.0,1029.0,1028.0,2278,2235,1901,	00:32:13.965,-0.01025390625,0.0537109375,1.02099609375,-0.06103515625,0.3662109375,0.1220703125,3.01025390625,0.582275390625,-40.78125,37.0,-475.0,-4131.0,-0.93695068359375,-0.026397705078125,0.004364013671875,0.348419189453125,3.0108461190843014,0.5847530431372328,-45.25633683561409,-0.9226389928880312,-0.02621155892876065,0.005399362225665573,0.3847350905085726,1,	00:32:13.967,0.02587890625,0.06494140625,1.01953125,0.06103515625,0.18310546875,0.42724609375,3.592529296875,-1.47216796875,124.8046875,-72.0,706.0,-1795.0,0.462646484375,0.02587890625,0.021820068359375,0.885894775390625,3.5906594329851855,-1.4717927985418953,117.68365451918368,0.5167614663041218,0.027193809924916414,0.020165605651210148,0.8554597781273537,1
1782117443.102733,0.390,1021.0,1027.0,1020.0,1022.0,1019.0,1027.0,1020.0,1021.0,1010.0,1024.0,1020.0,1027.0,1020.0,1021.0,1009.0,1019.0,1023.0,1020.0,1028.0,1020.0,1021.0,1009.0,1020.0,1021.0,1023.0,1019.0,1028.0,1020.0,1021.0,1009.0,1019.0,1020.0,1020.0,1024.0,1020.0,1028.0,1021.0,1021.0,1009.0,1020.0,1020.0,1021.0,1024.0,1020.0,1027.0,1021.0,1021.0,1009.0,1019.0,1020.0,1020.0,1019.0,1024.0,1019.0,1028.0,1021.0,1021.0,1009.0,1019.0,1020.0,1020.0,1018.0,1025.0,1021.0,1028.0,1020.0,1022.0,1009.0,1020.0,1021.0,1021.0,1020.0,1025.0,1021.0,1028.0,1021.0,1022.0,1009.0,1020.0,1021.0,1021.0,1020.0,1024.0,1021.0,1029.0,1021.0,1022.0,1009.0,1020.0,1021.0,1021.0,1020.0,1026.0,1022.0,1029.0,1021.0,1023.0,1009.0,1021.0,1021.0,1022.0,1021.0,1025.0,1022.0,1029.0,1021.0,1023.0,1010.0,1020.0,1021.0,1021.0,1020.0,1026.0,1023.0,1030.0,1022.0,1024.0,1010.0,1020.0,1022.0,1024.0,1026.0,1022.0,1029.0,1021.0,1024.0,1010.0,1020.0,1021.0,1025.0,1022.0,1029.0,1021.0,1022.0,1009.0,1019.0,1025.0,1022.0,1030.0,1021.0,1024.0,1011.0,1021.0,1025.0,1022.0,1029.0,1021.0,1023.0,1010.0,1020.0,1024.0,1021.0,1029.0,1021.0,1022.0,1010.0,1024.0,1021.0,1028.0,1020.0,1021.0,1009.0,1024.0,1021.0,1029.0,1022.0,1023.0,1011.0,1025.0,1022.0,1030.0,1022.0,1023.0,1012.0,1024.0,1021.0,1029.0,1021.0,1022.0,1011.0,1025.0,1022.0,1030.0,1022.0,1024.0,1013.0,1025.0,1022.0,1030.0,1022.0,1023.0,1013.0,1025.0,1023.0,1032.0,1022.0,1024.0,1014.0,1025.0,1023.0,1032.0,1022.0,1023.0,1015.0,1029.0,1025.0,1034.0,1022.0,1024.0,1018.0,1030.0,1027.0,1036.0,1024.0,1025.0,1021.0,1032.0,1028.0,1037.0,1024.0,1024.0,1023.0,1042.0,1037.0,1050.0,1029.0,1028.0,1094.0,1039.0,1035.0,1048.0,1029.0,1028.0,2278,2235,1901,	00:32:13.976,-0.0087890625,0.0537109375,1.0205078125,0.0,0.42724609375,0.18310546875,3.01025390625,0.4998779296875,-40.78125,36.0,-472.0,-4137.0,-0.936981201171875,-0.026153564453125,0.005096435546875,0.348388671875,3.0127996933809107,0.49727371564074646,-45.2542655432149,-0.9226565466228769,-0.025933872956290124,0.0061098729653892075,0.3847011835955027,1,	00:32:13.977,0.02490234375,0.06396484375,1.0205078125,0.06103515625,0.18310546875,0.42724609375,3.5870361328125,-1.3787841796875,124.8101806640625,-73.0,707.0,-1794.0,0.462646484375,0.025146484375,0.02215576171875,0.88592529296875,3.5862861908010606,-1.3787253685868681,117.68815637707651,0.5167558654716052,0.026478833320911006,0.020554247515369543,0.8554763408743299,1
1782117443.113775,0.401,1020.0,1027.0,1020.0,1022.0,1019.0,1027.0,1020.0,1020.0,1009.0,1022.0,1019.0,1027.0,1020.0,1021.0,1010.0,1020.0,1023.0,1020.0,1028.0,1021.0,1022.0,1009.0,1020.0,1021.0,1023.0,1019.0,1028.0,1020.0,1022.0,1009.0,1020.0,1020.0,1021.0,1024.0,1020.0,1028.0,1020.0,1022.0,1009.0,1020.0,1020.0,1021.0,1023.0,1020.0,1028.0,1021.0,1021.0,1009.0,1020.0,1020.0,1020.0,1019.0,1023.0,1019.0,1028.0,1021.0,1021.0,1009.0,1020.0,1020.0,1020.0,1018.0,1024.0,1020.0,1028.0,1020.0,1022.0,1010.0,1020.0,1021.0,1021.0,1020.0,1024.0,1021.0,1028.0,1021.0,1022.0,1009.0,1020.0,1020.0,1021.0,1020.0,1024.0,1021.0,1028.0,1021.0,1022.0,1009.0,1020.0,1021.0,1021.0,1019.0,1026.0,1022.0,1029.0,1021.0,1023.0,1010.0,1020.0,1021.0,1022.0,1020.0,1025.0,1021.0,1029.0,1021.0,1022.0,1010.0,1020.0,1021.0,1021.0,1021.0,1026.0,1023.0,1029.0,1022.0,1024.0,1010.0,1020.0,1022.0,1023.0,1026.0,1022.0,1029.0,1021.0,1024.0,1011.0,1020.0,1021.0,1025.0,1022.0,1029.0,1021.0,1022.0,1010.0,1020.0,1025.0,1022.0,1029.0,1021.0,1024.0,1011.0,1020.0,1025.0,1022.0,1029.0,1021.0,1023.0,1011.0,1020.0,1024.0,1021.0,1028.0,1021.0,1021.0,1011.0,1024.0,1020.0,1028.0,1020.0,1021.0,1010.0,1024.0,1021.0,1028.0,1022.0,1023.0,1012.0,1025.0,1022.0,1030.0,1022.0,1024.0,1013.0,1024.0,1021.0,1029.0,1022.0,1022.0,1010.0,1025.0,1022.0,1030.0,1022.0,1023.0,1013.0,1025.0,1022.0,1030.0,1022.0,1023.0,1013.0,1025.0,1023.0,1031.0,1022.0,1024.0,1015.0,1026.0,1023.0,1031.0,1022.0,1024.0,1015.0,1028.0,1025.0,1033.0,1023.0,1024.0,1018.0,1030.0,1028.0,1036.0,1024.0,1025.0,1021.0,1031.0,1027.0,1037.0,1024.0,1024.0,1023.0,1041.0,1037.0,1049.0,1030.0,1028.0,1095.0,1038.0,1035.0,1047.0,1030.0,1028.0,2278,2235,1902,	00:32:13.986,-0.00830078125,0.052734375,1.0205078125,-0.06103515625,0.3662109375,0.18310546875,2.933349609375,0.4559326171875,-40.78125,36.0,-474.0,-4133.0,-0.936981201171875,-0.025360107421875,0.00518798828125,0.348388671875,2.9330877657501326,0.4547426982944451,-45.252901472809064,-0.9226840198889111,-0.025149413802164355,0.006184451945791308,0.38468618246718617,1,	00:32:13.987,0.02490234375,0.06494140625,1.01904296875,0.06103515625,0.1220703125,0.42724609375,3.6749267578125,-1.40625,124.8101806640625,-71.0,707.0,-1797.0,0.46258544921875,0.02569580078125,0.022735595703125,0.885894775390625,3.6743153250595744,-1.4044186040115565,117.69037222614098,0.5167112710627999,0.027067106473169192,0.0210959321800972,0.8554716802731044,1
1782117443.123305,0.411,1020.0,1027.0,1020.0,1022.0,1019.0,1027.0,1020.0,1022.0,1009.0,1023.0,1019.0,1028.0,1020.0,1021.0,1009.0,1020.0,1023.0,1020.0,1028.0,1021.0,1022.0,1008.0,1020.0,1021.0,1023.0,1019.0,1028.0,1021.0,1022.0,1009.0,1019.0,1020.0,1020.0,1023.0,1020.0,1028.0,1021.0,1021.0,1009.0,1020.0,1020.0,1020.0,1023.0,1020.0,1028.0,1021.0,1022.0,1009.0,1020.0,1020.0,1020.0,1019.0,1023.0,1019.0,1028.0,1020.0,1021.0,1009.0,1020.0,1020.0,1020.0,1018.0,1024.0,1021.0,1029.0,1020.0,1022.0,1009.0,1020.0,1021.0,1022.0,1020.0,1024.0,1021.0,1028.0,1020.0,1022.0,1010.0,1020.0,1020.0,1021.0,1020.0,1024.0,1021.0,1028.0,1021.0,1022.0,1009.0,1020.0,1021.0,1021.0,1020.0,1026.0,1022.0,1029.0,1021.0,1023.0,1010.0,1020.0,1021.0,1022.0,1021.0,1025.0,1021.0,1029.0,1021.0,1022.0,1010.0,1020.0,1020.0,1021.0,1020.0,1026.0,1023.0,1030.0,1022.0,1024.0,1011.0,1020.0,1022.0,1024.0,1025.0,1022.0,1029.0,1021.0,1024.0,1011.0,1020.0,1021.0,1024.0,1022.0,1029.0,1021.0,1022.0,1011.0,1020.0,1024.0,1022.0,1029.0,1021.0,1024.0,1011.0,1021.0,1024.0,1022.0,1029.0,1021.0,1023.0,1011.0,1020.0,1024.0,1020.0,1029.0,1021.0,1022.0,1011.0,1024.0,1021.0,1028.0,1021.0,1021.0,1011.0,1024.0,1021.0,1029.0,1022.0,1023.0,1012.0,1025.0,1022.0,1029.0,1023.0,1023.0,1013.0,1024.0,1021.0,1029.0,1021.0,1022.0,1011.0,1025.0,1023.0,1030.0,1022.0,1023.0,1013.0,1024.0,1022.0,1030.0,1022.0,1023.0,1014.0,1025.0,1023.0,1030.0,1022.0,1024.0,1014.0,1024.0,1023.0,1031.0,1023.0,1024.0,1016.0,1028.0,1024.0,1033.0,1024.0,1024.0,1018.0,1029.0,1027.0,1036.0,1024.0,1025.0,1021.0,1030.0,1027.0,1037.0,1025.0,1024.0,1023.0,1040.0,1037.0,1049.0,1030.0,1028.0,1095.0,1037.0,1034.0,1047.0,1030.0,1028.0,2278,2234,1901,	00:32:13.996,-0.009765625,0.05322265625,1.0205078125,-0.1220703125,0.42724609375,0.1220703125,2.977294921875,0.538330078125,-40.7757568359375,36.0,-476.0,-4133.0,-0.936981201171875,-0.025970458984375,0.004638671875,0.348388671875,2.9769111647130244,0.5387413970855238,-45.25107420764175,-0.9226702114202618,-0.02578420258803555,0.0056547514599655175,0.38468542946219636,1,	00:32:13.997,0.025390625,0.06396484375,1.02001953125,0.1220703125,0.1220703125,0.42724609375,3.5870361328125,-1.4227294921875,124.815673828125,-72.0,707.0,-1794.0,0.462554931640625,0.025482177734375,0.02197265625,0.885955810546875,3.5859682838600957,-1.4229334382302303,117.69692254064961,0.516677726414273,0.026805723131585666,0.02035431645675527,0.8555181365911237,1
1782117443.133347,0.421,1020.0,1026.0,1020.0,1022.0,1019.0,1027.0,1021.0,1021.0,1010.0,1022.0,1019.0,1027.0,1020.0,1022.0,1010.0,1019.0,1023.0,1020.0,1028.0,1020.0,1021.0,1009.0,1020.0,1020.0,1023.0,1019.0,1027.0,1021.0,1022.0,1009.0,1020.0,1021.0,1020.0,1023.0,1020.0,1028.0,1020.0,1022.0,1009.0,1020.0,1020.0,1021.0,1023.0,1020.0,1028.0,1021.0,1022.0,1009.0,1020.0,1020.0,1020.0,1019.0,1023.0,1019.0,1027.0,1021.0,1022.0,1009.0,1020.0,1020.0,1020.0,1018.0,1024.0,1021.0,1028.0,1021.0,1022.0,1009.0,1020.0,1021.0,1022.0,1020.0,1024.0,1021.0,1029.0,1021.0,1023.0,1010.0,1020.0,1021.0,1021.0,1020.0,1024.0,1021.0,1028.0,1021.0,1022.0,1009.0,1020.0,1021.0,1021.0,1019.0,1025.0,1022.0,1029.0,1022.0,1023.0,1009.0,1020.0,1021.0,1022.0,1021.0,1025.0,1021.0,1028.0,1021.0,1023.0,1010.0,1020.0,1020.0,1021.0,1020.0,1026.0,1023.0,1029.0,1022.0,1024.0,1010.0,1020.0,1022.0,1024.0,1025.0,1022.0,1029.0,1022.0,1024.0,1011.0,1020.0,1021.0,1024.0,1021.0,1029.0,1021.0,1023.0,1011.0,1020.0,1025.0,1021.0,1029.0,1022.0,1025.0,1012.0,1021.0,1024.0,1021.0,1029.0,1022.0,1023.0,1011.0,1020.0,1024.0,1020.0,1028.0,1021.0,1022.0,1011.0,1024.0,1020.0,1028.0,1021.0,1021.0,1010.0,1024.0,1021.0,1029.0,1021.0,1023.0,1012.0,1024.0,1021.0,1029.0,1022.0,1025.0,1013.0,1024.0,1021.0,1028.0,1021.0,1022.0,1012.0,1025.0,1022.0,1029.0,1023.0,1024.0,1013.0,1024.0,1021.0,1030.0,1022.0,1024.0,1013.0,1025.0,1023.0,1031.0,1022.0,1024.0,1015.0,1026.0,1023.0,1031.0,1023.0,1024.0,1015.0,1028.0,1025.0,1033.0,1024.0,1025.0,1018.0,1029.0,1027.0,1035.0,1025.0,1026.0,1021.0,1031.0,1027.0,1036.0,1024.0,1024.0,1023.0,1041.0,1036.0,1049.0,1030.0,1029.0,1095.0,1038.0,1035.0,1047.0,1029.0,1028.0,2278,2234,1901,	00:32:14.007,-0.009765625,0.0537109375,1.02099609375,-0.1220703125,0.42724609375,0.18310546875,3.065185546875,0.5657958984375,-40.7757568359375,35.0,-474.0,-4136.0,-0.936981201171875,-0.02679443359375,0.00469970703125,0.348358154296875,3.0645848609992052,0.5648673554579846,-45.248168084189125,-0.9226566111782047,-0.02657792360484422,0.005738018468616172,0.38466279644652407,1,	00:32:14.008,0.02490234375,0.064453125,1.01904296875,0.18310546875,0.18310546875,0.3662109375,3.658447265625,-1.3623046875,124.8211669921875,-72.0,710.0,-1796.0,0.462554931640625,0.02532958984375,0.022796630859375,0.885955810546875,3.6599046724114714,-1.364906343112346,117.69893762462232,0.5166623017737508,0.026705706475023815,0.021168744833644434,0.8555108154837598,1
1782117443.143732,0.431,1020.0,1027.0,1020.0,1023.0,1019.0,1027.0,1021.0,1021.0,1009.0,1023.0,1019.0,1028.0,1021.0,1022.0,1008.0,1020.0,1023.0,1020.0,1028.0,1021.0,1022.0,1009.0,1020.0,1021.0,1023.0,1019.0,1028.0,1021.0,1022.0,1009.0,1020.0,1020.0,1020.0,1023.0,1020.0,1028.0,1021.0,1022.0,1009.0,1019.0,1020.0,1020.0,1023.0,1020.0,1028.0,1021.0,1022.0,1009.0,1019.0,1020.0,1020.0,1019.0,1023.0,1019.0,1027.0,1021.0,1022.0,1009.0,1020.0,1019.0,1020.0,1018.0,1024.0,1020.0,1028.0,1021.0,1023.0,1009.0,1020.0,1021.0,1021.0,1020.0,1024.0,1021.0,1028.0,1022.0,1022.0,1009.0,1020.0,1021.0,1021.0,1020.0,1024.0,1020.0,1028.0,1022.0,1023.0,1009.0,1020.0,1020.0,1021.0,1019.0,1025.0,1021.0,1029.0,1021.0,1023.0,1009.0,1020.0,1021.0,1022.0,1021.0,1025.0,1021.0,1028.0,1022.0,1023.0,1009.0,1020.0,1021.0,1021.0,1020.0,1026.0,1022.0,1029.0,1022.0,1024.0,1011.0,1021.0,1023.0,1023.0,1026.0,1021.0,1029.0,1022.0,1024.0,1010.0,1021.0,1022.0,1025.0,1021.0,1029.0,1021.0,1023.0,1010.0,1020.0,1025.0,1021.0,1029.0,1021.0,1025.0,1011.0,1021.0,1025.0,1021.0,1029.0,1022.0,1023.0,1011.0,1020.0,1024.0,1020.0,1029.0,1021.0,1023.0,1011.0,1023.0,1020.0,1028.0,1021.0,1021.0,1010.0,1024.0,1020.0,1029.0,1021.0,1023.0,1012.0,1025.0,1021.0,1029.0,1022.0,1024.0,1013.0,1024.0,1020.0,1029.0,1022.0,1022.0,1012.0,1025.0,1021.0,1030.0,1023.0,1023.0,1013.0,1025.0,1021.0,1030.0,1023.0,1023.0,1013.0,1026.0,1023.0,1031.0,1022.0,1024.0,1015.0,1025.0,1022.0,1032.0,1022.0,1023.0,1015.0,1028.0,1024.0,1033.0,1023.0,1024.0,1018.0,1030.0,1026.0,1035.0,1025.0,1025.0,1022.0,1031.0,1027.0,1037.0,1025.0,1024.0,1024.0,1042.0,1036.0,1050.0,1029.0,1028.0,1095.0,1038.0,1035.0,1048.0,1029.0,1028.0,2277,2234,1901,	00:32:14.017,-0.0087890625,0.05322265625,1.02001953125,-0.06103515625,0.42724609375,0.18310546875,2.999267578125,0.50537109375,-40.7757568359375,35.0,-473.0,-4133.0,-0.936981201171875,-0.02606201171875,0.004974365234375,0.34832763671875,2.9967527325112964,0.5068604379339056,-45.24673963944364,-0.9226842531981924,-0.02583722657035308,0.005977106947586451,0.38464331635397414,1,	00:32:14.018,0.02490234375,0.06494140625,1.01904296875,0.30517578125,0.1220703125,0.42724609375,3.62548828125,-1.4501953125,124.82666015625,-72.0,706.0,-1797.0,0.462493896484375,0.025848388671875,0.022186279296875,0.885955810546875,3.6273273039083698,-1.4484750825128823,117.70415050419874,0.5166065741664264,0.027181503409897608,0.020549495935762274,0.8555445818992675,1
1782117443.153759,0.441,1021.0,1027.0,1020.0,1022.0,1018.0,1028.0,1020.0,1021.0,1009.0,1023.0,1018.0,1028.0,1020.0,1021.0,1009.0,1020.0,1023.0,1019.0,1028.0,1021.0,1022.0,1009.0,1020.0,1021.0,1023.0,1019.0,1028.0,1020.0,1022.0,1009.0,1020.0,1020.0,1020.0,1023.0,1019.0,1028.0,1021.0,1022.0,1009.0,1020.0,1021.0,1020.0,1024.0,1019.0,1029.0,1021.0,1022.0,1009.0,1020.0,1020.0,1020.0,1018.0,1023.0,1019.0,1028.0,1021.0,1021.0,1009.0,1019.0,1019.0,1020.0,1018.0,1024.0,1020.0,1028.0,1021.0,1022.0,1009.0,1020.0,1021.0,1021.0,1020.0,1024.0,1021.0,1028.0,1021.0,1023.0,1009.0,1020.0,1021.0,1021.0,1020.0,1024.0,1020.0,1029.0,1021.0,1022.0,1009.0,1020.0,1021.0,1021.0,1019.0,1025.0,1021.0,1029.0,1021.0,1023.0,1009.0,1020.0,1021.0,1022.0,1021.0,1025.0,1020.0,1029.0,1021.0,1022.0,1010.0,1020.0,1021.0,1021.0,1020.0,1025.0,1022.0,1030.0,1021.0,1024.0,1011.0,1021.0,1023.0,1024.0,1025.0,1022.0,1030.0,1021.0,1024.0,1011.0,1020.0,1022.0,1024.0,1020.0,1029.0,1021.0,1022.0,1010.0,1020.0,1025.0,1020.0,1031.0,1021.0,1024.0,1011.0,1021.0,1024.0,1020.0,1029.0,1021.0,1023.0,1011.0,1021.0,1024.0,1020.0,1029.0,1021.0,1022.0,1010.0,1024.0,1020.0,1028.0,1020.0,1021.0,1010.0,1025.0,1020.0,1030.0,1021.0,1023.0,1012.0,1025.0,1021.0,1030.0,1022.0,1024.0,1012.0,1023.0,1019.0,1029.0,1021.0,1022.0,1011.0,1025.0,1021.0,1031.0,1021.0,1024.0,1013.0,1025.0,1021.0,1031.0,1022.0,1023.0,1013.0,1026.0,1022.0,1032.0,1022.0,1024.0,1015.0,1026.0,1022.0,1032.0,1023.0,1024.0,1016.0,1028.0,1024.0,1034.0,1024.0,1024.0,1018.0,1030.0,1026.0,1036.0,1024.0,1025.0,1022.0,1031.0,1026.0,1037.0,1024.0,1024.0,1022.0,1040.0,1036.0,1050.0,1030.0,1028.0,1095.0,1038.0,1034.0,1048.0,1029.0,1028.0,2277,2234,1902,	00:32:14.027,-0.009765625,0.052734375,1.02099609375,-0.06103515625,0.3662109375,0.244140625,2.933349609375,0.5767822265625,-40.770263671875,36.0,-474.0,-4135.0,-0.93701171875,-0.025726318359375,0.00421142578125,0.34832763671875,2.9316610683938293,0.5754752647282323,-45.24471955059983,-0.9226970602306154,-0.025543388151504635,0.005205621789957353,0.38464343470973417,1,	00:32:14.028,0.02490234375,0.06494140625,1.02001953125,0.3662109375,0.18310546875,0.42724609375,3.658447265625,-1.3568115234375,124.82666015625,-72.0,709.0,-1792.0,0.46246337890625,0.0252685546875,0.022796630859375,0.885986328125,3.656859771090753,-1.3590026849462216,117.70789797472035,0.5165978372305716,0.026646267190808055,0.02117474753752698,0.8555514485290839,1
1782117443.165141,0.453,1020.0,1028.0,1020.0,1022.0,1018.0,1028.0,1020.0,1022.0,1010.0,1022.0,1019.0,1028.0,1020.0,1022.0,1009.0,1020.0,1023.0,1019.0,1028.0,1020.0,1022.0,1009.0,1020.0,1021.0,1023.0,1019.0,1028.0,1020.0,1022.0,1009.0,1019.0,1020.0,1020.0,1023.0,1019.0,1028.0,1021.0,1022.0,1009.0,1019.0,1020.0,1020.0,1023.0,1019.0,1028.0,1021.0,1022.0,1009.0,1020.0,1020.0,1020.0,1019.0,1023.0,1019.0,1028.0,1020.0,1022.0,1009.0,1020.0,1020.0,1020.0,1018.0,1024.0,1020.0,1029.0,1021.0,1023.0,1010.0,1020.0,1021.0,1021.0,1020.0,1024.0,1019.0,1029.0,1021.0,1023.0,1010.0,1020.0,1021.0,1021.0,1020.0,1024.0,1019.0,1029.0,1020.0,1022.0,1010.0,1020.0,1020.0,1022.0,1019.0,1025.0,1021.0,1029.0,1021.0,1023.0,1010.0,1020.0,1021.0,1022.0,1021.0,1025.0,1021.0,1029.0,1022.0,1023.0,1010.0,1020.0,1021.0,1021.0,1020.0,1026.0,1022.0,1029.0,1022.0,1025.0,1010.0,1020.0,1022.0,1023.0,1025.0,1022.0,1029.0,1022.0,1024.0,1011.0,1020.0,1021.0,1025.0,1020.0,1029.0,1021.0,1023.0,1010.0,1020.0,1024.0,1021.0,1030.0,1021.0,1025.0,1011.0,1020.0,1025.0,1021.0,1029.0,1021.0,1023.0,1011.0,1020.0,1024.0,1020.0,1029.0,1020.0,1023.0,1011.0,1024.0,1019.0,1029.0,1021.0,1021.0,1010.0,1024.0,1020.0,1029.0,1021.0,1023.0,1011.0,1025.0,1020.0,1030.0,1022.0,1024.0,1013.0,1024.0,1020.0,1029.0,1021.0,1022.0,1012.0,1025.0,1020.0,1031.0,1022.0,1024.0,1013.0,1024.0,1021.0,1030.0,1021.0,1023.0,1012.0,1025.0,1022.0,1032.0,1022.0,1024.0,1015.0,1026.0,1022.0,1032.0,1022.0,1024.0,1016.0,1028.0,1024.0,1033.0,1023.0,1024.0,1018.0,1029.0,1026.0,1037.0,1024.0,1025.0,1021.0,1030.0,1026.0,1038.0,1023.0,1025.0,1022.0,1040.0,1036.0,1050.0,1029.0,1028.0,1095.0,1037.0,1035.0,1049.0,1029.0,1028.0,2277,2234,1902,	00:32:14.037,-0.0087890625,0.05322265625,1.0205078125,-0.1220703125,0.3662109375,0.18310546875,2.9827880859375,0.4998779296875,-40.770263671875,38.0,-474.0,-4135.0,-0.93701171875,-0.025909423828125,0.00494384765625,0.348297119140625,2.980431434098406,0.5022034810406358,-45.24223281192128,-0.922703622605752,-0.025690419403042977,0.005958812951084279,0.3846069678637297,1,	00:32:14.038,0.025390625,0.0654296875,1.0185546875,0.3662109375,0.1220703125,0.3662109375,3.6859130859375,-1.4447021484375,124.8321533203125,-73.0,707.0,-1795.0,0.462432861328125,0.02606201171875,0.02264404296875,0.885986328125,3.685316927500315,-1.4461721641717986,117.71101961148705,0.5165421516229144,0.02742448775986276,0.020994485633831387,0.8555649213477902,1
1782117443.174854,0.463,1020.0,1027.0,1019.0,1021.0,1018.0,1029.0,1020.0,1021.0,1009.0,1023.0,1018.0,1028.0,1020.0,1022.0,1009.0,1020.0,1023.0,1019.0,1029.0,1020.0,1022.0,1009.0,1020.0,1021.0,1022.0,1018.0,1029.0,1021.0,1021.0,1009.0,1019.0,1020.0,1020.0,1023.0,1019.0,1029.0,1021.0,1022.0,1009.0,1020.0,1020.0,1020.0,1023.0,1018.0,1029.0,1020.0,1021.0,1009.0,1020.0,1020.0,1020.0,1019.0,1023.0,1018.0,1028.0,1021.0,1022.0,1010.0,1019.0,1019.0,1020.0,1018.0,1024.0,1018.0,1029.0,1021.0,1022.0,1010.0,1020.0,1021.0,1021.0,1020.0,1024.0,1019.0,1029.0,1021.0,1022.0,1010.0,1020.0,1021.0,1021.0,1020.0,1024.0,1019.0,1029.0,1021.0,1022.0,1010.0,1020.0,1020.0,1021.0,1019.0,1025.0,1019.0,1030.0,1021.0,1023.0,1010.0,1020.0,1021.0,1022.0,1021.0,1024.0,1020.0,1030.0,1021.0,1022.0,1011.0,1020.0,1021.0,1021.0,1020.0,1026.0,1020.0,1030.0,1022.0,1024.0,1011.0,1020.0,1023.0,1023.0,1026.0,1020.0,1030.0,1021.0,1024.0,1011.0,1020.0,1021.0,1024.0,1020.0,1030.0,1021.0,1022.0,1011.0,1020.0,1025.0,1020.0,1029.0,1022.0,1024.0,1011.0,1021.0,1025.0,1020.0,1030.0,1021.0,1023.0,1011.0,1021.0,1024.0,1019.0,1030.0,1021.0,1022.0,1011.0,1024.0,1019.0,1030.0,1021.0,1021.0,1010.0,1024.0,1019.0,1030.0,1022.0,1023.0,1012.0,1025.0,1019.0,1031.0,1022.0,1024.0,1012.0,1024.0,1019.0,1029.0,1021.0,1022.0,1011.0,1025.0,1020.0,1031.0,1022.0,1023.0,1013.0,1024.0,1021.0,1031.0,1022.0,1023.0,1013.0,1025.0,1021.0,1032.0,1022.0,1024.0,1015.0,1026.0,1021.0,1032.0,1022.0,1023.0,1015.0,1028.0,1023.0,1034.0,1023.0,1024.0,1018.0,1029.0,1025.0,1037.0,1024.0,1025.0,1021.0,1031.0,1026.0,1038.0,1024.0,1025.0,1022.0,1040.0,1035.0,1049.0,1029.0,1029.0,1094.0,1037.0,1033.0,1047.0,1028.0,1028.0,2277,2234,1902,	00:32:14.048,-0.009765625,0.05322265625,1.01953125,-0.06103515625,0.42724609375,0.18310546875,2.9937744140625,0.5987548828125,-40.7647705078125,37.0,-475.0,-4132.0,-0.93701171875,-0.02630615234375,0.00421142578125,0.348297119140625,2.995351515140655,0.5967108591206574,-45.24003376659776,-0.9226957107554868,-0.026127671985787977,0.005247332714030993,0.3846068585054332,1,	00:32:14.049,0.02490234375,0.0654296875,1.01953125,0.3662109375,0.1220703125,0.3662109375,3.6639404296875,-1.3568115234375,124.837646484375,-71.0,709.0,-1794.0,0.462432861328125,0.025299072265625,0.022857666015625,0.886016845703125,3.6652367344657204,-1.3566932736717459,117.71533507524629,0.5165410358657873,0.026665418461761674,0.02124944558983191,0.8555832950607926,1
1782117443.185472,0.473,1021.0,1028.0,1020.0,1022.0,1017.0,1028.0,1020.0,1021.0,1010.0,1022.0,1018.0,1029.0,1020.0,1022.0,1009.0,1020.0,1023.0,1017.0,1029.0,1021.0,1022.0,1010.0,1020.0,1020.0,1023.0,1018.0,1028.0,1021.0,1022.0,1009.0,1020.0,1020.0,1020.0,1023.0,1018.0,1029.0,1021.0,1022.0,1009.0,1020.0,1020.0,1021.0,1023.0,1017.0,1029.0,1020.0,1022.0,1009.0,1020.0,1020.0,1020.0,1019.0,1023.0,1018.0,1028.0,1021.0,1021.0,1009.0,1019.0,1020.0,1020.0,1018.0,1024.0,1018.0,1029.0,1021.0,1022.0,1009.0,1020.0,1021.0,1021.0,1020.0,1024.0,1019.0,1029.0,1021.0,1022.0,1009.0,1020.0,1020.0,1021.0,1020.0,1024.0,1018.0,1030.0,1021.0,1022.0,1010.0,1020.0,1021.0,1020.0,1019.0,1026.0,1019.0,1029.0,1021.0,1023.0,1010.0,1020.0,1021.0,1021.0,1020.0,1025.0,1019.0,1029.0,1022.0,1022.0,1010.0,1020.0,1021.0,1021.0,1020.0,1027.0,1020.0,1030.0,1022.0,1024.0,1011.0,1020.0,1023.0,1023.0,1026.0,1019.0,1030.0,1022.0,1024.0,1011.0,1020.0,1021.0,1025.0,1019.0,1030.0,1021.0,1023.0,1011.0,1020.0,1026.0,1019.0,1030.0,1022.0,1024.0,1011.0,1021.0,1025.0,1019.0,1030.0,1021.0,1023.0,1012.0,1021.0,1025.0,1019.0,1029.0,1021.0,1022.0,1010.0,1024.0,1018.0,1029.0,1021.0,1022.0,1010.0,1024.0,1020.0,1030.0,1021.0,1023.0,1012.0,1025.0,1020.0,1030.0,1022.0,1024.0,1013.0,1024.0,1019.0,1029.0,1021.0,1022.0,1011.0,1026.0,1021.0,1031.0,1022.0,1024.0,1013.0,1025.0,1020.0,1031.0,1022.0,1023.0,1013.0,1026.0,1022.0,1032.0,1022.0,1024.0,1014.0,1026.0,1021.0,1032.0,1022.0,1024.0,1015.0,1028.0,1023.0,1034.0,1024.0,1024.0,1017.0,1030.0,1026.0,1036.0,1024.0,1024.0,1021.0,1031.0,1026.0,1038.0,1024.0,1024.0,1022.0,1041.0,1035.0,1049.0,1030.0,1028.0,1095.0,1037.0,1034.0,1048.0,1029.0,1028.0,2277,2234,1902,	00:32:14.058,-0.0087890625,0.052734375,1.0205078125,-0.1220703125,0.3662109375,0.1220703125,2.9608154296875,0.516357421875,-40.7647705078125,36.0,-474.0,-4137.0,-0.93701171875,-0.025787353515625,0.004791259765625,0.3482666015625,2.963227814948164,0.51403595995468,-45.23892207362675,-0.9227171313340096,-0.025591753486762275,0.005805046664648748,0.38458348785332724,1,	00:32:14.059,0.02490234375,0.06494140625,1.0205078125,0.3662109375,0.06103515625,0.3662109375,3.6199951171875,-1.4337158203125,124.837646484375,-71.0,707.0,-1796.0,0.462371826171875,0.02569580078125,0.022216796875,0.88604736328125,3.6200878877160245,-1.4339711942485864,117.72021383269299,0.5164926000110988,0.027037749193449843,0.020564710085427845,0.8556175821892802,1
1782117443.195171,0.483,1020.0,1027.0,1020.0,1022.0,1017.0,1028.0,1020.0,1021.0,1010.0,1022.0,1018.0,1028.0,1020.0,1021.0,1010.0,1019.0,1023.0,1018.0,1029.0,1021.0,1022.0,1010.0,1020.0,1020.0,1023.0,1019.0,1028.0,1021.0,1021.0,1009.0,1020.0,1020.0,1020.0,1024.0,1019.0,1028.0,1021.0,1021.0,1009.0,1019.0,1020.0,1020.0,1023.0,1018.0,1028.0,1021.0,1021.0,1009.0,1019.0,1020.0,1020.0,1018.0,1024.0,1018.0,1028.0,1021.0,1021.0,1009.0,1020.0,1020.0,1020.0,1019.0,1024.0,1019.0,1027.0,1021.0,1023.0,1010.0,1020.0,1021.0,1021.0,1020.0,1024.0,1019.0,1028.0,1021.0,1022.0,1010.0,1020.0,1021.0,1022.0,1020.0,1024.0,1019.0,1028.0,1021.0,1022.0,1009.0,1020.0,1021.0,1021.0,1019.0,1026.0,1019.0,1029.0,1021.0,1022.0,1010.0,1020.0,1021.0,1022.0,1020.0,1025.0,1020.0,1029.0,1021.0,1022.0,1010.0,1020.0,1020.0,1021.0,1020.0,1026.0,1020.0,1030.0,1022.0,1024.0,1012.0,1021.0,1022.0,1023.0,1027.0,1020.0,1029.0,1022.0,1024.0,1011.0,1020.0,1022.0,1024.0,1019.0,1029.0,1021.0,1022.0,1011.0,1019.0,1025.0,1020.0,1030.0,1022.0,1024.0,1011.0,1020.0,1024.0,1019.0,1029.0,1021.0,1023.0,1011.0,1020.0,1024.0,1018.0,1029.0,1021.0,1022.0,1011.0,1024.0,1018.0,1028.0,1021.0,1021.0,1011.0,1024.0,1019.0,1029.0,1022.0,1024.0,1011.0,1025.0,1020.0,1030.0,1022.0,1023.0,1013.0,1024.0,1019.0,1029.0,1022.0,1022.0,1011.0,1025.0,1020.0,1031.0,1022.0,1023.0,1013.0,1025.0,1021.0,1030.0,1021.0,1023.0,1013.0,1026.0,1021.0,1031.0,1022.0,1024.0,1015.0,1025.0,1022.0,1031.0,1022.0,1024.0,1016.0,1028.0,1023.0,1033.0,1023.0,1024.0,1018.0,1030.0,1026.0,1036.0,1024.0,1024.0,1021.0,1031.0,1026.0,1038.0,1024.0,1024.0,1022.0,1040.0,1035.0,1049.0,1030.0,1027.0,1094.0,1036.0,1034.0,1047.0,1029.0,1027.0,2277,2234,1902,	00:32:14.068,-0.0087890625,0.0537109375,1.021484375,-0.06103515625,0.42724609375,0.1220703125,3.043212890625,0.4779052734375,-40.7647705078125,37.0,-474.0,-4135.0,-0.93701171875,-0.0263671875,0.005340576171875,0.348236083984375,3.0456544543554123,0.47956938290184475,-45.236762070036086,-0.9227100106401569,-0.026139976789841285,0.006358740800890149,0.38455494313985245,1,	00:32:14.069,0.02490234375,0.0654296875,1.01953125,0.42724609375,0.06103515625,0.30517578125,3.6968994140625,-1.3787841796875,124.8431396484375,-72.0,707.0,-1793.0,0.462371826171875,0.025604248046875,0.023040771484375,0.886016845703125,3.6984505936418475,-1.3797511688604862,117.72147994493054,0.516480606071857,0.026986064784382507,0.021394811013364372,0.8556060997449719,1
1782117443.205761,0.493,1021.0,1027.0,1020.0,1022.0,1017.0,1028.0,1020.0,1021.0,1010.0,1023.0,1018.0,1027.0,1021.0,1021.0,1009.0,1020.0,1023.0,1018.0,1027.0,1020.0,1022.0,1009.0,1020.0,1020.0,1023.0,1018.0,1027.0,1021.0,1021.0,1009.0,1020.0,1020.0,1020.0,1024.0,1018.0,1028.0,1021.0,1021.0,1009.0,1020.0,1020.0,1020.0,1023.0,1019.0,1027.0,1021.0,1022.0,1010.0,1020.0,1020.0,1020.0,1019.0,1023.0,1018.0,1027.0,1021.0,1021.0,1009.0,1020.0,1020.0,1020.0,1018.0,1024.0,1019.0,1028.0,1021.0,1022.0,1010.0,1020.0,1020.0,1021.0,1020.0,1024.0,1019.0,1028.0,1021.0,1022.0,1010.0,1020.0,1020.0,1021.0,1020.0,1025.0,1019.0,1028.0,1021.0,1022.0,1010.0,1020.0,1020.0,1021.0,1020.0,1026.0,1020.0,1029.0,1022.0,1023.0,1011.0,1020.0,1021.0,1021.0,1020.0,1025.0,1019.0,1028.0,1021.0,1022.0,1010.0,1020.0,1021.0,1021.0,1020.0,1026.0,1020.0,1028.0,1022.0,1024.0,1012.0,1020.0,1022.0,1023.0,1026.0,1020.0,1029.0,1022.0,1023.0,1011.0,1021.0,1021.0,1025.0,1020.0,1028.0,1022.0,1023.0,1011.0,1020.0,1025.0,1020.0,1028.0,1022.0,1025.0,1012.0,1021.0,1024.0,1020.0,1029.0,1021.0,1022.0,1011.0,1020.0,1024.0,1019.0,1028.0,1022.0,1022.0,1011.0,1024.0,1019.0,1028.0,1022.0,1022.0,1011.0,1025.0,1019.0,1029.0,1022.0,1023.0,1012.0,1025.0,1021.0,1030.0,1022.0,1024.0,1013.0,1024.0,1020.0,1029.0,1021.0,1022.0,1011.0,1025.0,1021.0,1031.0,1022.0,1023.0,1014.0,1024.0,1020.0,1030.0,1021.0,1023.0,1014.0,1026.0,1022.0,1031.0,1022.0,1024.0,1015.0,1025.0,1022.0,1032.0,1023.0,1023.0,1015.0,1028.0,1024.0,1033.0,1023.0,1024.0,1018.0,1030.0,1026.0,1036.0,1025.0,1024.0,1021.0,1030.0,1027.0,1037.0,1024.0,1024.0,1022.0,1040.0,1036.0,1050.0,1029.0,1028.0,1093.0,1037.0,1034.0,1047.0,1029.0,1027.0,2277,2234,1902,	00:32:14.078,-0.00927734375,0.0537109375,1.02001953125,0.0,0.3662109375,0.1220703125,2.98828125,0.5548095703125,-40.7647705078125,36.0,-473.0,-4136.0,-0.93701171875,-0.026153564453125,0.004547119140625,0.3482666015625,2.9897548358471027,0.5557762860026365,-45.23585358918079,-0.9227162567114956,-0.02594550799489142,0.00555724618117636,0.384565543477434,1,	00:32:14.079,0.02490234375,0.06494140625,1.02001953125,0.48828125,0.0,0.30517578125,3.614501953125,-1.40625,124.8486328125,-74.0,705.0,-1794.0,0.46234130859375,0.02545166015625,0.02227783203125,0.88604736328125,3.615252785038153,-1.4052127015811708,117.72666396706576,0.5164539606724488,0.02680016445590987,0.02065990738062544,0.8556460868360825,1
1782117443.216344,0.504,1020.0,1027.0,1020.0,1022.0,1018.0,1027.0,1021.0,1021.0,1011.0,1023.0,1018.0,1027.0,1021.0,1022.0,1010.0,1020.0,1023.0,1017.0,1028.0,1021.0,1022.0,1010.0,1019.0,1020.0,1023.0,1018.0,1027.0,1021.0,1021.0,1010.0,1020.0,1019.0,1020.0,1024.0,1018.0,1027.0,1021.0,1021.0,1010.0,1020.0,1020.0,1020.0,1024.0,1018.0,1028.0,1021.0,1021.0,1010.0,1020.0,1020.0,1020.0,1018.0,1023.0,1018.0,1027.0,1021.0,1021.0,1010.0,1019.0,1019.0,1020.0,1019.0,1024.0,1019.0,1028.0,1021.0,1023.0,1010.0,1021.0,1021.0,1021.0,1020.0,1024.0,1019.0,1027.0,1021.0,1022.0,1010.0,1020.0,1020.0,1021.0,1020.0,1024.0,1019.0,1028.0,1021.0,1022.0,1010.0,1020.0,1020.0,1021.0,1020.0,1026.0,1019.0,1028.0,1022.0,1023.0,1010.0,1021.0,1021.0,1021.0,1021.0,1025.0,1019.0,1028.0,1022.0,1023.0,1010.0,1020.0,1020.0,1021.0,1020.0,1027.0,1020.0,1029.0,1023.0,1024.0,1011.0,1021.0,1022.0,1023.0,1026.0,1020.0,1029.0,1022.0,1024.0,1011.0,1021.0,1021.0,1025.0,1020.0,1028.0,1022.0,1022.0,1011.0,1020.0,1025.0,1020.0,1028.0,1022.0,1025.0,1012.0,1020.0,1024.0,1020.0,1028.0,1022.0,1022.0,1012.0,1020.0,1024.0,1019.0,1028.0,1021.0,1022.0,1011.0,1024.0,1019.0,1028.0,1020.0,1021.0,1011.0,1024.0,1020.0,1029.0,1021.0,1023.0,1013.0,1025.0,1020.0,1029.0,1022.0,1024.0,1014.0,1024.0,1020.0,1028.0,1022.0,1022.0,1011.0,1025.0,1021.0,1029.0,1023.0,1023.0,1014.0,1025.0,1020.0,1029.0,1022.0,1023.0,1014.0,1026.0,1022.0,1030.0,1023.0,1024.0,1015.0,1025.0,1022.0,1030.0,1023.0,1023.0,1015.0,1028.0,1023.0,1032.0,1024.0,1024.0,1018.0,1029.0,1026.0,1035.0,1024.0,1025.0,1021.0,1030.0,1026.0,1036.0,1024.0,1024.0,1023.0,1040.0,1035.0,1049.0,1030.0,1028.0,1095.0,1036.0,1033.0,1047.0,1029.0,1028.0,2277,2234,1902,	00:32:14.089,-0.009765625,0.05322265625,1.02099609375,-0.06103515625,0.3662109375,0.1220703125,2.9388427734375,0.4833984375,-40.75927734375,38.0,-472.0,-4133.0,-0.937042236328125,-0.0255126953125,0.004974365234375,0.348236083984375,2.937992537552951,0.4833752392830098,-45.2349070355393,-0.922739931646364,-0.025285916151403593,0.005966379858321515,0.3845465424380172,1,	00:32:14.090,0.0244140625,0.0654296875,1.01904296875,0.54931640625,0.0,0.30517578125,3.6968994140625,-1.3568115234375,124.8486328125,-70.0,706.0,-1791.0,0.462310791015625,0.025421142578125,0.02313232421875,0.88604736328125,3.698923238898179,-1.357767107181981,117.72782611174635,0.516439593382562,0.026822935520610405,0.021499038080714714,0.855633372349697,1
