Unix_Time_s,EMG_t_s,sample_idx,fs,gain,flags,emg_valid,ch1_raw_uV,ch1_filt_uV,ch1_env_uV,ch2_raw_uV,ch2_filt_uV,ch2_env_uV
1782117271.383335,0.000000,1717480,1000,12,0,1,365.066,35.336,13.610,558.409,-0.237,1.319
1782117271.384335,0.001000,1717481,1000,12,0,1,376.092,40.867,14.719,557.424,-1.248,1.313
1782117271.385335,0.002000,1717482,1000,12,0,1,380.776,39.982,15.767,559.802,0.686,1.298
1782117271.386335,0.003000,1717483,1000,12,0,1,373.545,28.072,16.224,558.697,0.661,1.284
1782117271.387335,0.004000,1717484,1000,12,0,1,361.968,12.275,16.293,557.592,-1.173,1.183
1782117271.388335,0.005000,1717485,1000,12,0,1,353.873,1.634,16.294,559.634,0.979,1.162
1782117271.389335,0.006000,1717486,1000,12,0,1,347.915,-4.865,16.298,559.922,1.533,1.182
1782117271.390335,0.007000,1717487,1000,12,0,1,338.884,-12.920,16.350,560.234,1.273,1.193
1782117271.391335,0.008000,1717488,1000,12,0,1,334.896,-16.898,16.520,558.481,0.128,1.155
1782117271.392335,0.009000,1717489,1000,12,0,1,329.035,-19.509,16.740,557.039,-1.765,1.132
1782117271.393335,0.010000,1717490,1000,12,0,1,324.423,-23.016,16.961,559.754,0.669,1.128
1782117271.394335,0.011000,1717491,1000,12,0,1,333.551,-13.990,16.913,558.481,0.383,1.122
1782117271.395335,0.012000,1717492,1000,12,0,1,345.489,-1.365,16.669,560.691,0.848,1.127
1782117271.396335,0.013000,1717493,1000,12,0,1,353.440,4.405,16.549,559.105,0.916,1.134
1782117271.397335,0.014000,1717494,1000,12,0,1,361.199,8.947,16.507,558.841,-1.115,1.123
1782117271.398335,0.015000,1717495,1000,12,0,1,369.342,12.898,16.547,557.784,-0.812,1.118
1782117271.399335,0.016000,1717496,1000,12,0,1,368.885,10.100,16.581,557.304,-2.087,1.146
1782117271.400335,0.017000,1717497,1000,12,0,1,359.061,-1.715,16.549,557.904,-0.923,1.150
1782117271.401335,0.018000,1717498,1000,12,0,1,348.612,-12.380,16.641,559.225,0.166,1.142
1782117271.402335,0.019000,1717499,1000,12,0,1,338.475,-19.779,16.874,559.970,0.943,1.129
1782117271.403335,0.020000,1717500,1000,12,0,1,334.416,-21.113,17.051,560.330,1.146,1.133
1782117271.404335,0.021000,1717501,1000,12,0,1,325.528,-22.804,17.215,559.538,0.281,1.131
1782117271.405335,0.022000,1717502,1000,12,0,1,319.547,-24.720,17.513,560.402,0.735,1.134
1782117271.406335,0.023000,1717503,1000,12,0,1,332.350,-8.873,17.520,561.603,1.808,1.096
1782117271.407335,0.024000,1717504,1000,12,0,1,349.693,11.387,17.546,561.243,1.435,1.107
1782117271.408335,0.025000,1717505,1000,12,0,1,354.881,17.361,17.637,559.177,-0.644,1.104
1782117271.409335,0.026000,1717506,1000,12,0,1,357.091,16.921,17.798,560.090,-0.250,1.097
1782117271.410335,0.027000,1717507,1000,12,0,1,360.526,17.821,17.758,559.706,0.088,1.075
1782117271.411335,0.028000,1717508,1000,12,0,1,354.857,10.991,17.665,557.039,-2.381,1.127
1782117271.412335,0.029000,1717509,1000,12,0,1,352.263,4.188,17.674,558.096,-1.690,1.099
1782117271.413335,0.030000,1717510,1000,12,0,1,359.686,8.633,17.696,559.129,0.154,1.094
1782117271.414335,0.031000,1717511,1000,12,0,1,354.041,3.245,17.662,557.520,-1.313,1.110
1782117271.415335,0.032000,1717512,1000,12,0,1,333.479,-17.226,17.760,557.135,-1.696,1.133
1782117271.416335,0.033000,1717513,1000,12,0,1,328.459,-23.669,18.040,559.538,0.467,1.135
1782117271.417335,0.034000,1717514,1000,12,0,1,336.506,-13.197,18.055,560.282,1.562,1.154
1782117271.418335,0.035000,1717515,1000,12,0,1,356.659,4.434,17.992,560.907,1.401,1.169
1782117271.419335,0.036000,1717516,1000,12,0,1,362.736,12.842,17.991,561.627,1.952,1.196
1782117271.420335,0.037000,1717517,1000,12,0,1,355.074,2.633,17.907,561.363,1.257,1.183
1782117271.421335,0.038000,1717518,1000,12,0,1,346.570,-5.351,17.703,558.144,-1.549,1.184
1782117271.422335,0.039000,1717519,1000,12,0,1,334.992,-14.167,17.443,559.225,-1.526,1.192
1782117271.423335,0.040000,1717520,1000,12,0,1,324.375,-21.285,17.482,559.610,-0.016,1.186
1782117271.424335,0.041000,1717521,1000,12,0,1,317.313,-22.581,17.704,558.553,-1.392,1.184
1782117271.425335,0.042000,1717522,1000,12,0,1,315.536,-19.460,17.849,560.378,0.234,1.177
1782117271.426335,0.043000,1717523,1000,12,0,1,325.336,-6.167,17.684,559.682,0.381,1.175
1782117271.427335,0.044000,1717524,1000,12,0,1,341.430,11.566,17.705,559.946,-0.192,1.175
1782117271.428335,0.045000,1717525,1000,12,0,1,347.699,19.144,17.253,557.087,-1.472,1.191
1782117271.429335,0.046000,1717526,1000,12,0,1,348.732,17.453,17.318,556.991,-2.605,1.244
1782117271.430335,0.047000,1717527,1000,12,0,1,347.075,14.532,17.425,559.514,0.833,1.248
1782117271.431335,0.048000,1717528,1000,12,0,1,346.762,10.975,17.493,559.177,0.685,1.220
1782117271.432335,0.049000,1717529,1000,12,0,1,347.003,9.463,17.280,561.051,1.728,1.209
1782117271.433335,0.050000,1717530,1000,12,0,1,344.384,4.927,16.556,562.684,3.532,1.307
1782117271.434335,0.051000,1717531,1000,12,0,1,344.408,2.391,15.518,562.396,2.482,1.342
1782117271.435335,0.052000,1717532,1000,12,0,1,343.159,0.603,14.452,560.018,0.254,1.339
1782117271.436335,0.053000,1717533,1000,12,0,1,342.751,-1.762,13.898,559.489,-1.113,1.345
1782117271.437335,0.054000,1717534,1000,12,0,1,346.474,0.883,13.790,560.739,0.275,1.335
1782117271.438335,0.055000,1717535,1000,12,0,1,351.807,4.701,13.804,562.228,1.280,1.340
1782117271.439335,0.056000,1717536,1000,12,0,1,343.039,-1.961,13.789,559.369,-0.833,1.328
1782117271.440335,0.057000,1717537,1000,12,0,1,343.279,-5.244,13.688,559.345,-2.003,1.346
1782117271.441335,0.058000,1717538,1000,12,0,1,343.688,-1.142,13.479,559.393,-0.905,1.352
1782117271.442335,0.059000,1717539,1000,12,0,1,331.413,-11.139,13.287,558.673,-1.864,1.355
1782117271.443335,0.060000,1717540,1000,12,0,1,324.711,-16.075,13.081,558.312,-1.741,1.373
1782117271.444335,0.061000,1717541,1000,12,0,1,324.832,-11.742,13.037,561.291,0.670,1.376
1782117271.445335,0.062000,1717542,1000,12,0,1,326.969,-6.885,13.072,560.426,0.914,1.377
1782117271.446335,0.063000,1717543,1000,12,0,1,328.194,-2.360,13.061,560.186,-0.300,1.371
1782117271.447335,0.064000,1717544,1000,12,0,1,328.146,-0.920,13.000,560.042,0.228,1.362
1782117271.448335,0.065000,1717545,1000,12,0,1,327.258,0.018,12.872,558.144,-1.478,1.374
1782117271.449335,0.066000,1717546,1000,12,0,1,327.738,0.784,12.793,557.472,-2.089,1.374
1782117271.450335,0.067000,1717547,1000,12,0,1,324.639,-0.562,12.791,558.120,-0.944,1.374
1782117271.451335,0.068000,1717548,1000,12,0,1,328.074,0.963,12.671,558.793,-0.199,1.374
1782117271.452335,0.069000,1717549,1000,12,0,1,331.509,5.328,12.381,560.234,1.233,1.379
1782117271.453335,0.070000,1717550,1000,12,0,1,331.053,3.413,12.026,558.889,0.316,1.370
1782117271.454335,0.071000,1717551,1000,12,0,1,324.207,-2.653,11.591,557.304,-1.460,1.385
1782117271.455335,0.072000,1717552,1000,12,0,1,322.502,-5.958,11.084,556.463,-1.897,1.407
1782117271.456335,0.073000,1717553,1000,12,0,1,342.078,9.947,11.102,559.562,0.562,1.385
1782117271.457335,0.074000,1717554,1000,12,0,1,340.661,12.690,11.130,559.946,1.842,1.395
1782117271.458335,0.075000,1717555,1000,12,0,1,324.327,-6.480,10.895,559.273,0.363,1.393
1782117271.459335,0.076000,1717556,1000,12,0,1,321.733,-8.727,10.700,558.625,0.018,1.393
1782117271.460335,0.077000,1717557,1000,12,0,1,331.389,1.098,10.400,559.345,0.234,1.393
1782117271.461335,0.078000,1717558,1000,12,0,1,340.109,10.711,10.394,560.739,1.597,1.370
1782117271.462335,0.079000,1717559,1000,12,0,1,335.713,7.733,10.435,561.483,2.086,1.381
1782117271.463335,0.080000,1717560,1000,12,0,1,326.177,-1.718,10.366,560.739,1.185,1.391
1782117271.464335,0.081000,1717561,1000,12,0,1,319.091,-6.548,10.397,561.243,1.148,1.388
1782117271.465335,0.082000,1717562,1000,12,0,1,317.169,-6.749,10.153,560.378,0.600,1.370
1782117271.466335,0.083000,1717563,1000,12,0,1,317.313,-3.636,9.599,560.402,0.090,1.368
1782117271.467335,0.084000,1717564,1000,12,0,1,312.461,-5.488,9.447,557.832,-1.469,1.366
1782117271.468335,0.085000,1717565,1000,12,0,1,313.902,-3.757,9.442,559.057,-1.259,1.364
1782117271.469335,0.086000,1717566,1000,12,0,1,328.843,10.174,9.376,560.618,1.259,1.347
1782117271.470335,0.087000,1717567,1000,12,0,1,340.997,21.323,9.842,560.378,0.680,1.339
1782117271.471335,0.088000,1717568,1000,12,0,1,334.200,13.517,9.998,559.297,-0.205,1.321
1782117271.472335,0.089000,1717569,1000,12,0,1,328.627,3.328,9.806,559.321,-0.418,1.305
1782117271.473335,0.090000,1717570,1000,12,0,1,326.777,0.930,9.334,558.793,-0.625,1.308
1782117271.474335,0.091000,1717571,1000,12,0,1,327.618,-0.575,8.771,558.048,-1.305,1.306
1782117271.475335,0.092000,1717572,1000,12,0,1,322.790,-4.209,8.349,559.129,-0.491,1.307
1782117271.476335,0.093000,1717573,1000,12,0,1,320.099,-8.376,8.387,559.898,0.598,1.309
1782117271.477335,0.094000,1717574,1000,12,0,1,321.781,-5.685,8.265,560.426,0.615,1.312
1782117271.478335,0.095000,1717575,1000,12,0,1,321.301,-4.966,7.841,559.970,0.382,1.296
1782117271.479335,0.096000,1717576,1000,12,0,1,318.898,-6.190,7.494,562.036,1.323,1.257
1782117271.480335,0.097000,1717577,1000,12,0,1,313.422,-8.812,7.313,563.933,3.300,1.335
1782117271.481335,0.098000,1717578,1000,12,0,1,310.972,-9.715,7.278,560.642,0.106,1.332
1782117271.482335,0.099000,1717579,1000,12,0,1,305.279,-10.339,7.301,558.024,-2.985,1.376
1782117271.483335,0.100000,1717580,1000,12,0,1,292.908,-18.105,7.706,561.507,-0.003,1.282
1782117271.484335,0.101000,1717581,1000,12,0,1,285.990,-20.386,8.221,558.913,-0.771,1.238
1782117271.485335,0.102000,1717582,1000,12,0,1,301.628,-3.627,8.236,558.913,-2.286,1.279
1782117271.486335,0.103000,1717583,1000,12,0,1,331.197,25.991,9.016,559.898,0.119,1.269
1782117271.487335,0.104000,1717584,1000,12,0,1,339.340,34.491,10.250,559.730,-0.427,1.270
1782117271.488335,0.105000,1717585,1000,12,0,1,323.198,15.821,10.470,560.042,0.184,1.257
1782117271.489335,0.106000,1717586,1000,12,0,1,308.570,-1.313,10.468,560.955,0.966,1.259
1782117271.490335,0.107000,1717587,1000,12,0,1,304.342,-5.856,10.475,558.745,-0.591,1.230
1782117271.491335,0.108000,1717588,1000,12,0,1,309.506,-1.285,10.475,560.474,0.070,1.223
1782117271.492335,0.109000,1717589,1000,12,0,1,320.123,8.099,10.419,561.940,2.187,1.234
1782117271.493335,0.110000,1717590,1000,12,0,1,332.182,17.141,10.453,560.715,0.645,1.212
1782117271.494335,0.111000,1717591,1000,12,0,1,336.313,18.673,10.653,559.778,-0.556,1.211
1782117271.495335,0.112000,1717592,1000,12,0,1,327.594,7.801,10.665,559.033,-1.073,1.214
1782117271.496335,0.113000,1717593,1000,12,0,1,314.671,-6.440,10.699,558.433,-1.751,1.238
1782117271.497335,0.114000,1717594,1000,12,0,1,313.133,-9.184,10.777,559.538,-0.633,1.241
1782117271.498335,0.115000,1717595,1000,12,0,1,308.666,-9.863,10.867,560.835,0.593,1.226
1782117271.499335,0.116000,1717596,1000,12,0,1,301.844,-15.131,11.075,561.075,0.833,1.196
1782117271.500335,0.117000,1717597,1000,12,0,1,296.391,-16.351,11.313,561.579,0.841,1.194
1782117271.501335,0.118000,1717598,1000,12,0,1,295.718,-14.050,11.486,559.946,-0.294,1.194
1782117271.502335,0.119000,1717599,1000,12,0,1,304.414,-3.240,11.470,561.627,0.208,1.182
1782117271.503335,0.120000,1717600,1000,12,0,1,321.637,13.883,11.627,561.315,1.007,1.190
1782117271.504335,0.121000,1717601,1000,12,0,1,328.435,21.282,12.004,560.522,-0.618,1.175
1782117271.505335,0.122000,1717602,1000,12,0,1,325.096,15.530,12.174,559.682,-0.752,1.149
1782117271.506335,0.123000,1717603,1000,12,0,1,311.572,2.552,12.098,559.081,-1.435,1.164
1782117271.507335,0.124000,1717604,1000,12,0,1,291.923,-15.632,12.167,559.874,-0.445,1.136
1782117271.508335,0.125000,1717605,1000,12,0,1,280.489,-24.790,12.629,560.378,0.394,1.136
1782117271.509335,0.126000,1717606,1000,12,0,1,280.513,-20.902,12.911,558.673,-0.932,1.144
1782117271.510335,0.127000,1717607,1000,12,0,1,293.388,-6.938,12.947,558.841,-0.973,1.152
1782117271.511335,0.128000,1717608,1000,12,0,1,305.999,7.580,12.903,559.898,0.385,1.131
1782117271.512335,0.129000,1717609,1000,12,0,1,309.050,9.801,12.931,559.465,0.183,1.092
1782117271.513335,0.130000,1717610,1000,12,0,1,307.681,7.027,12.967,559.658,0.028,1.079
1782117271.514335,0.131000,1717611,1000,12,0,1,302.156,1.183,12.935,558.577,-0.481,1.069
1782117271.515335,0.132000,1717612,1000,12,0,1,292.260,-7.822,12.947,558.649,-0.966,1.074
1782117271.516335,0.133000,1717613,1000,12,0,1,293.461,-7.449,12.980,561.892,1.984,1.110
1782117271.517335,0.134000,1717614,1000,12,0,1,287.984,-7.722,13.002,560.282,1.098,1.101
1782117271.518335,0.135000,1717615,1000,12,0,1,282.795,-12.422,13.110,559.033,-1.175,1.100
1782117271.519335,0.136000,1717616,1000,12,0,1,301.171,4.980,13.050,557.664,-1.645,1.110
1782117271.520335,0.137000,1717617,1000,12,0,1,324.615,28.312,13.313,558.913,-1.181,1.118
1782117271.521335,0.138000,1717618,1000,12,0,1,334.752,35.145,14.081,558.937,-0.069,1.118
1782117271.522335,0.139000,1717619,1000,12,0,1,326.777,24.948,14.509,557.400,-1.721,1.142
1782117271.523335,0.140000,1717620,1000,12,0,1,317.361,11.019,14.592,560.258,0.625,1.142
1782117271.524335,0.141000,1717621,1000,12,0,1,309.891,3.485,14.600,559.586,1.240,1.141
1782117271.525335,0.142000,1717622,1000,12,0,1,306.480,-1.200,14.589,558.673,-0.609,1.142
1782117271.526335,0.143000,1717623,1000,12,0,1,310.083,2.109,14.544,560.138,1.249,1.153
1782117271.527335,0.144000,1717624,1000,12,0,1,317.553,8.296,14.569,559.369,0.710,1.154
1782117271.528335,0.145000,1717625,1000,12,0,1,321.781,11.163,14.637,558.385,-0.353,1.153
1782117271.529335,0.146000,1717626,1000,12,0,1,317.553,5.763,14.634,558.985,0.253,1.139
1782117271.530335,0.147000,1717627,1000,12,0,1,314.166,-0.332,14.581,558.000,-0.197,1.039
1782117271.531335,0.148000,1717628,1000,12,0,1,315.151,-0.541,14.516,557.015,-1.240,1.054
1782117271.532335,0.149000,1717629,1000,12,0,1,315.560,-1.318,14.443,557.880,-0.303,0.966
1782117271.533335,0.150000,1717630,1000,12,0,1,313.614,-3.947,14.225,559.249,1.107,0.979
1782117271.534335,0.151000,1717631,1000,12,0,1,310.803,-7.349,13.969,559.273,1.143,0.986
1782117271.535335,0.152000,1717632,1000,12,0,1,310.347,-8.159,14.007,559.898,1.246,0.948
1782117271.536335,0.153000,1717633,1000,12,0,1,310.251,-7.713,13.560,561.844,2.667,1.020
1782117271.537335,0.154000,1717634,1000,12,0,1,308.570,-8.657,12.712,560.450,1.505,1.041
1782117271.538335,0.155000,1717635,1000,12,0,1,306.408,-9.706,12.588,560.138,0.096,1.040
1782117271.539335,0.156000,1717636,1000,12,0,1,299.442,-13.728,12.736,561.195,1.211,1.045
1782117271.540335,0.157000,1717637,1000,12,0,1,293.028,-17.819,12.956,561.363,0.999,1.052
1782117271.541335,0.158000,1717638,1000,12,0,1,288.536,-18.036,13.204,561.435,0.786,1.057
1782117271.542335,0.159000,1717639,1000,12,0,1,288.248,-15.084,13.326,562.012,1.016,1.021
1782117271.543335,0.160000,1717640,1000,12,0,1,283.300,-14.234,13.257,561.579,0.582,1.021
1782117271.544335,0.161000,1717641,1000,12,0,1,275.973,-17.571,13.227,561.099,-0.140,1.018
1782117271.545335,0.162000,1717642,1000,12,0,1,289.161,-4.172,13.194,562.516,0.880,1.014
1782117271.546335,0.163000,1717643,1000,12,0,1,311.332,19.413,13.446,560.042,-0.610,0.987
1782117271.547335,0.164000,1717644,1000,12,0,1,322.045,28.371,13.971,559.393,-2.153,1.029
1782117271.548335,0.165000,1717645,1000,12,0,1,325.384,27.406,14.432,559.201,-1.233,1.040
1782117271.549335,0.166000,1717646,1000,12,0,1,320.556,19.617,14.539,560.234,-0.751,1.039
1782117271.550335,0.167000,1717647,1000,12,0,1,312.773,8.335,14.403,560.354,0.142,1.032
1782117271.551335,0.168000,1717648,1000,12,0,1,305.519,-0.051,14.265,560.138,-0.445,1.034
1782117271.552335,0.169000,1717649,1000,12,0,1,300.883,-5.434,14.278,559.297,-0.880,1.041
1782117271.553335,0.170000,1717650,1000,12,0,1,303.141,-3.743,14.152,561.051,0.172,1.031
1782117271.554335,0.171000,1717651,1000,12,0,1,306.696,0.250,13.829,558.817,-0.868,1.035
1782117271.555335,0.172000,1717652,1000,12,0,1,313.974,5.542,13.676,560.378,-0.894,1.037
1782117271.556335,0.173000,1717653,1000,12,0,1,310.996,4.294,13.684,561.747,1.440,1.037
1782117271.557335,0.174000,1717654,1000,12,0,1,303.213,-4.815,13.522,561.051,0.092,1.035
1782117271.558335,0.175000,1717655,1000,12,0,1,301.844,-5.648,13.084,560.979,-0.158,1.034
1782117271.559335,0.176000,1717656,1000,12,0,1,310.227,1.856,12.748,559.105,-1.519,1.048
1782117271.560335,0.177000,1717657,1000,12,0,1,309.386,3.625,12.721,559.610,-1.758,1.068
1782117271.561335,0.178000,1717658,1000,12,0,1,307.272,-0.294,12.676,559.874,-0.475,1.069
1782117271.562335,0.179000,1717659,1000,12,0,1,305.807,-0.356,12.600,560.835,-0.235,1.069
1782117271.563335,0.180000,1717660,1000,12,0,1,299.129,-5.706,12.586,559.345,-0.503,1.071
1782117271.564335,0.181000,1717661,1000,12,0,1,296.751,-7.893,12.635,560.138,-0.741,1.074
1782117271.565335,0.182000,1717662,1000,12,0,1,295.791,-6.253,12.617,560.883,1.016,1.075
1782117271.566335,0.183000,1717663,1000,12,0,1,295.887,-5.718,12.599,560.594,0.355,1.039
1782117271.567335,0.184000,1717664,1000,12,0,1,295.382,-4.139,12.565,560.715,0.641,1.032
1782117271.568335,0.185000,1717665,1000,12,0,1,290.458,-7.570,12.488,559.850,0.047,1.018
1782117271.569335,0.186000,1717666,1000,12,0,1,280.009,-14.808,12.643,559.057,-0.803,0.998
1782117271.570335,0.187000,1717667,1000,12,0,1,272.106,-20.261,12.329,560.474,0.541,0.987
1782117271.571335,0.188000,1717668,1000,12,0,1,263.531,-23.191,11.750,561.435,1.563,1.011
1782117271.572335,0.189000,1717669,1000,12,0,1,263.339,-20.709,11.584,560.114,0.397,0.983
1782117271.573335,0.190000,1717670,1000,12,0,1,273.427,-7.190,11.524,560.955,0.395,0.980
1782117271.574335,0.191000,1717671,1000,12,0,1,270.016,-5.006,11.535,561.699,1.462,0.987
1782117271.575335,0.192000,1717672,1000,12,0,1,270.281,-5.498,11.560,561.916,0.982,0.993
1782117271.576335,0.193000,1717673,1000,12,0,1,296.079,18.007,11.834,559.586,-0.792,0.983
1782117271.577335,0.194000,1717674,1000,12,0,1,303.837,28.520,12.447,560.715,-0.881,0.986
1782117271.578335,0.195000,1717675,1000,12,0,1,293.052,14.199,12.509,562.180,1.218,1.000
1782117271.579335,0.196000,1717676,1000,12,0,1,290.554,9.254,12.550,559.177,-1.534,1.022
1782117271.580335,0.197000,1717677,1000,12,0,1,292.067,10.380,12.636,560.859,-0.997,1.032
1782117271.581335,0.198000,1717678,1000,12,0,1,290.866,8.671,12.695,562.564,1.635,1.042
1782117271.582335,0.199000,1717679,1000,12,0,1,282.939,2.148,12.697,560.090,-0.900,1.049
1782117271.583335,0.200000,1717680,1000,12,0,1,277.679,-3.330,12.694,559.706,-1.513,1.059
1782117271.584335,0.201000,1717681,1000,12,0,1,275.781,-2.819,12.657,560.955,-0.003,1.047
1782117271.585335,0.202000,1717682,1000,12,0,1,279.048,0.614,12.605,559.369,-0.889,1.040
1782117271.586335,0.203000,1717683,1000,12,0,1,290.914,11.791,12.668,561.531,0.299,0.970
1782117271.587335,0.204000,1717684,1000,12,0,1,305.375,23.867,13.053,563.021,2.611,1.016
1782117271.588335,0.205000,1717685,1000,12,0,1,305.519,22.662,13.370,561.795,0.959,1.025
1782117271.589335,0.206000,1717686,1000,12,0,1,300.523,13.077,13.357,561.219,0.229,1.011
1782117271.590335,0.207000,1717687,1000,12,0,1,294.998,5.909,13.144,561.195,0.186,1.001
1782117271.591335,0.208000,1717688,1000,12,0,1,293.124,1.309,12.895,560.667,-0.309,0.996
1782117271.592335,0.209000,1717689,1000,12,0,1,305.303,9.407,12.787,560.354,-0.618,0.989
1782117271.593335,0.210000,1717690,1000,12,0,1,306.888,11.569,12.733,562.300,0.786,0.992
1782117271.594335,0.211000,1717691,1000,12,0,1,300.955,1.567,12.490,560.594,0.001,0.992
1782117271.595335,0.212000,1717692,1000,12,0,1,299.850,-0.951,12.477,563.189,0.695,0.989
1782117271.596335,0.213000,1717693,1000,12,0,1,300.979,-1.271,12.173,561.819,1.061,0.997
1782117271.597335,0.214000,1717694,1000,12,0,1,301.556,-1.301,11.494,560.883,-1.569,0.975
1782117271.598335,0.215000,1717695,1000,12,0,1,298.889,-3.918,10.835,562.300,0.406,0.961
1782117271.599335,0.216000,1717696,1000,12,0,1,290.362,-11.045,10.589,561.339,-0.506,0.957
1782117271.600335,0.217000,1717697,1000,12,0,1,287.167,-13.838,10.704,560.378,-1.639,0.985
1782117271.601335,0.218000,1717698,1000,12,0,1,294.181,-5.964,10.737,562.660,0.374,0.984
1782117271.602335,0.219000,1717699,1000,12,0,1,302.660,3.333,10.720,562.708,0.890,0.984
1782117271.603335,0.220000,1717700,1000,12,0,1,299.057,1.338,10.709,561.819,-0.278,0.985
1782117271.604335,0.221000,1717701,1000,12,0,1,294.013,-4.568,10.728,562.900,0.484,0.980
1782117271.605335,0.222000,1717702,1000,12,0,1,291.107,-6.052,10.733,561.267,-0.290,0.972
1782117271.606335,0.223000,1717703,1000,12,0,1,291.395,-5.514,10.745,561.291,-1.108,0.964
1782117271.607335,0.224000,1717704,1000,12,0,1,290.914,-4.412,10.741,561.819,0.251,0.964
1782117271.608335,0.225000,1717705,1000,12,0,1,291.995,-3.462,10.723,563.621,1.216,0.979
1782117271.609335,0.226000,1717706,1000,12,0,1,292.572,-2.046,10.723,562.780,1.225,0.971
1782117271.610335,0.227000,1717707,1000,12,0,1,287.840,-5.638,10.741,560.691,-1.358,0.958
1782117271.611335,0.228000,1717708,1000,12,0,1,281.618,-11.002,10.853,559.610,-2.039,0.998
1782117271.612335,0.229000,1717709,1000,12,0,1,285.053,-7.654,10.906,561.219,-0.719,1.003
1782117271.613335,0.230000,1717710,1000,12,0,1,287.960,-2.675,10.883,562.540,0.936,1.009
1782117271.614335,0.231000,1717711,1000,12,0,1,291.683,0.120,10.826,562.084,0.407,1.005
1782117271.615335,0.232000,1717712,1000,12,0,1,290.314,0.371,10.790,563.069,0.726,1.000
1782117271.616335,0.233000,1717713,1000,12,0,1,285.990,-4.132,10.775,562.228,0.410,1.000
1782117271.617335,0.234000,1717714,1000,12,0,1,284.381,-4.870,10.781,561.819,-0.792,1.003
1782117271.618335,0.235000,1717715,1000,12,0,1,287.936,-1.000,10.729,562.348,0.022,1.003
1782117271.619335,0.236000,1717716,1000,12,0,1,292.260,3.972,10.538,563.261,0.469,0.998
1782117271.620335,0.237000,1717717,1000,12,0,1,298.241,9.007,10.220,562.756,0.287,0.996
1782117271.621335,0.238000,1717718,1000,12,0,1,300.787,11.273,9.810,562.468,-0.436,0.973
1782117271.622335,0.239000,1717719,1000,12,0,1,304.366,12.407,9.526,562.276,-0.361,0.973
1782117271.623335,0.240000,1717720,1000,12,0,1,304.702,12.080,9.624,562.228,-0.480,0.974
1782117271.624335,0.241000,1717721,1000,12,0,1,304.918,9.774,9.697,561.339,-0.955,0.961
1782117271.625335,0.242000,1717722,1000,12,0,1,299.105,4.418,9.686,561.435,-0.944,0.960
1782117271.626335,0.243000,1717723,1000,12,0,1,291.947,-3.662,9.360,562.156,0.051,0.954
1782117271.627335,0.244000,1717724,1000,12,0,1,292.932,-3.180,8.458,561.795,-0.022,0.946
1782117271.628335,0.245000,1717725,1000,12,0,1,293.869,-0.957,8.217,562.900,0.643,0.934
1782117271.629335,0.246000,1717726,1000,12,0,1,297.880,1.316,8.115,561.267,-0.046,0.909
1782117271.630335,0.247000,1717727,1000,12,0,1,302.805,6.086,8.027,562.060,-0.366,0.899
1782117271.631335,0.248000,1717728,1000,12,0,1,303.741,5.368,7.969,561.868,0.528,0.872
1782117271.632335,0.249000,1717729,1000,12,0,1,307.897,6.763,8.020,562.324,0.025,0.863
1782117271.633335,0.250000,1717730,1000,12,0,1,310.900,8.132,8.089,561.483,-0.006,0.836
1782117271.634335,0.251000,1717731,1000,12,0,1,305.399,1.574,8.082,562.108,-0.273,0.837
1782117271.635335,0.252000,1717732,1000,12,0,1,305.399,-1.568,8.085,562.108,0.307,0.828
1782117271.636335,0.253000,1717733,1000,12,0,1,301.243,-4.036,7.931,562.108,-0.199,0.828
1782117271.637335,0.254000,1717734,1000,12,0,1,300.114,-7.305,7.251,560.811,-1.022,0.755
1782117271.638335,0.255000,1717735,1000,12,0,1,302.636,-3.602,6.524,561.387,-0.949,0.755
1782117271.639335,0.256000,1717736,1000,12,0,1,301.315,-4.380,6.287,560.426,-1.077,0.769
1782117271.640335,0.257000,1717737,1000,12,0,1,296.271,-8.163,6.338,562.108,-0.228,0.769
1782117271.641335,0.258000,1717738,1000,12,0,1,295.214,-8.608,6.451,562.540,1.027,0.782
1782117271.642335,0.259000,1717739,1000,12,0,1,294.782,-6.915,6.387,560.955,-0.700,0.783
1782117271.643335,0.260000,1717740,1000,12,0,1,302.228,-0.280,6.174,561.003,-0.762,0.783
1782117271.644335,0.261000,1717741,1000,12,0,1,302.228,2.591,6.181,561.003,-0.208,0.783
1782117271.645335,0.262000,1717742,1000,12,0,1,309.002,5.538,6.229,560.306,-0.867,0.787
1782117271.646335,0.263000,1717743,1000,12,0,1,311.668,9.933,6.383,561.651,0.455,0.775
1782117271.647335,0.264000,1717744,1000,12,0,1,309.290,4.880,6.418,561.819,1.003,0.756
1782117271.648335,0.265000,1717745,1000,12,0,1,303.405,-0.557,6.394,561.027,0.168,0.754
1782117271.649335,0.266000,1717746,1000,12,0,1,300.883,-4.397,6.232,561.916,0.752,0.758
1782117271.650335,0.267000,1717747,1000,12,0,1,297.904,-6.079,5.979,559.586,-0.592,0.727
1782117271.651335,0.268000,1717748,1000,12,0,1,298.361,-6.031,5.980,559.826,-1.331,0.749
1782117271.652335,0.269000,1717749,1000,12,0,1,297.016,-5.804,6.018,559.754,-0.223,0.739
1782117271.653335,0.270000,1717750,1000,12,0,1,306.312,0.908,6.016,562.156,0.959,0.750
1782117271.654335,0.271000,1717751,1000,12,0,1,315.488,10.347,6.158,561.916,1.808,0.790
1782117271.655335,0.272000,1717752,1000,12,0,1,311.404,5.696,6.151,560.546,-0.438,0.791
1782117271.656335,0.273000,1717753,1000,12,0,1,310.251,1.277,6.104,560.402,-0.383,0.777
1782117271.657335,0.274000,1717754,1000,12,0,1,303.477,-3.059,6.087,561.603,0.483,0.779
1782117271.658335,0.275000,1717755,1000,12,0,1,296.871,-10.922,6.261,560.402,-0.198,0.761
1782117271.659335,0.276000,1717756,1000,12,0,1,294.277,-10.691,6.434,562.396,0.720,0.748
1782117271.660335,0.277000,1717757,1000,12,0,1,294.517,-9.444,6.523,561.003,0.534,0.726
1782117271.661335,0.278000,1717758,1000,12,0,1,295.959,-5.632,6.385,562.660,0.559,0.671
1782117271.662335,0.279000,1717759,1000,12,0,1,300.018,-1.115,6.294,561.675,1.004,0.679
1782117271.663335,0.280000,1717760,1000,12,0,1,299.466,0.427,6.283,561.531,-0.376,0.668
1782117271.664335,0.281000,1717761,1000,12,0,1,298.433,-0.802,6.284,561.123,0.097,0.665
1782117271.665335,0.282000,1717762,1000,12,0,1,297.472,-0.576,6.284,558.697,-2.092,0.721
1782117271.666335,0.283000,1717763,1000,12,0,1,299.874,1.334,6.260,560.402,-0.953,0.731
1782117271.667335,0.284000,1717764,1000,12,0,1,315.223,13.575,6.511,560.090,0.207,0.723
1782117271.668335,0.285000,1717765,1000,12,0,1,320.988,19.780,7.085,560.138,-0.694,0.730
1782117271.669335,0.286000,1717766,1000,12,0,1,313.133,8.821,7.172,561.723,1.487,0.757
1782117271.670335,0.287000,1717767,1000,12,0,1,309.650,2.744,7.069,563.429,2.447,0.831
1782117271.671335,0.288000,1717768,1000,12,0,1,308.522,0.889,6.888,563.189,2.426,0.897
1782117271.672335,0.289000,1717769,1000,12,0,1,305.567,-2.495,6.670,561.267,0.063,0.896
1782117271.673335,0.290000,1717770,1000,12,0,1,306.456,-2.600,6.458,560.955,-0.563,0.896
1782117271.674335,0.291000,1717771,1000,12,0,1,305.279,-2.771,6.321,560.979,-0.371,0.888
1782117271.675335,0.292000,1717772,1000,12,0,1,304.462,-4.181,6.318,560.979,-0.560,0.881
1782117271.676335,0.293000,1717773,1000,12,0,1,306.816,-1.636,6.301,561.387,-0.129,0.881
1782117271.677335,0.294000,1717774,1000,12,0,1,305.087,-2.234,6.292,560.426,-0.878,0.890
1782117271.678335,0.295000,1717775,1000,12,0,1,299.274,-7.173,6.372,560.667,-0.941,0.895
1782117271.679335,0.296000,1717776,1000,12,0,1,294.806,-10.164,6.530,561.195,-0.127,0.896
1782117271.680335,0.297000,1717777,1000,12,0,1,291.491,-11.179,6.663,560.618,-0.596,0.898
1782117271.681335,0.298000,1717778,1000,12,0,1,299.346,-3.633,6.640,561.435,-0.064,0.895
1782117271.682335,0.299000,1717779,1000,12,0,1,306.888,5.906,6.623,558.096,-2.052,0.941
1782117271.683335,0.300000,1717780,1000,12,0,1,306.336,5.101,6.562,560.234,-1.447,0.963
1782117271.684335,0.301000,1717781,1000,12,0,1,291.155,-7.109,6.635,559.297,-0.062,0.962
1782117271.685335,0.302000,1717782,1000,12,0,1,282.195,-16.569,7.033,561.147,-0.101,0.961
1782117271.686335,0.303000,1717783,1000,12,0,1,282.699,-12.551,7.231,561.795,2.137,1.007
1782117271.687335,0.304000,1717784,1000,12,0,1,278.928,-12.497,7.372,563.045,1.900,1.032
1782117271.688335,0.305000,1717785,1000,12,0,1,277.607,-12.075,7.550,563.069,2.526,1.084
1782117271.689335,0.306000,1717786,1000,12,0,1,290.962,1.306,7.527,564.029,2.305,1.122
1782117271.690335,0.307000,1717787,1000,12,0,1,299.754,11.830,7.624,561.387,0.448,1.123
1782117271.691335,0.308000,1717788,1000,12,0,1,303.261,12.989,7.747,558.889,-2.590,1.172
1782117271.692335,0.309000,1717789,1000,12,0,1,308.089,15.457,7.990,561.940,-0.093,1.168
1782117271.693335,0.310000,1717790,1000,12,0,1,309.458,14.916,8.263,561.675,0.911,1.170
1782117271.694335,0.311000,1717791,1000,12,0,1,315.175,16.065,8.562,560.378,-1.375,1.186
1782117271.695335,0.312000,1717792,1000,12,0,1,316.040,15.997,8.821,558.985,-1.742,1.205
1782117271.696335,0.313000,1717793,1000,12,0,1,310.395,7.479,8.773,558.625,-2.542,1.256
1782117271.697335,0.314000,1717794,1000,12,0,1,309.723,4.698,8.771,559.321,-1.125,1.258
1782117271.698335,0.315000,1717795,1000,12,0,1,310.251,4.614,8.795,561.195,0.359,1.259
1782117271.699335,0.316000,1717796,1000,12,0,1,309.338,2.870,8.782,560.354,0.323,1.255
1782117271.700335,0.317000,1717797,1000,12,0,1,315.608,6.804,8.793,559.297,-1.183,1.264
1782117271.701335,0.318000,1717798,1000,12,0,1,328.507,17.027,9.076,560.426,0.009,1.249
1782117271.702335,0.319000,1717799,1000,12,0,1,328.579,16.378,9.331,561.603,1.250,1.262
1782117271.703335,0.320000,1717800,1000,12,0,1,322.405,6.422,9.374,562.420,1.742,1.278
1782117271.704335,0.321000,1717801,1000,12,0,1,317.145,0.111,9.260,561.219,0.841,1.258
1782117271.705335,0.322000,1717802,1000,12,0,1,315.175,-3.509,9.238,559.417,-1.190,1.268
1782117271.706335,0.323000,1717803,1000,12,0,1,313.470,-4.974,9.263,559.778,-0.780,1.271
1782117271.707335,0.324000,1717804,1000,12,0,1,317.505,-2.913,9.262,560.618,0.246,1.270
1782117271.708335,0.325000,1717805,1000,12,0,1,315.584,-3.351,9.144,561.507,1.042,1.278
1782117271.709335,0.326000,1717806,1000,12,0,1,308.281,-11.181,9.156,560.498,0.377,1.275
1782117271.710335,0.327000,1717807,1000,12,0,1,315.944,-6.052,9.099,561.795,0.840,1.279
1782117271.711335,0.328000,1717808,1000,12,0,1,313.782,-4.360,9.085,561.267,1.090,1.285
1782117271.712335,0.329000,1717809,1000,12,0,1,296.871,-20.489,9.534,561.243,0.178,1.278
1782117271.713335,0.330000,1717810,1000,12,0,1,286.447,-28.400,10.345,561.051,0.470,1.278
1782117271.714335,0.331000,1717811,1000,12,0,1,287.263,-24.321,10.902,560.979,-0.050,1.278
1782117271.715335,0.332000,1717812,1000,12,0,1,287.527,-18.937,11.225,559.273,-1.146,1.254
1782117271.716335,0.333000,1717813,1000,12,0,1,285.414,-17.424,11.491,561.339,-0.089,1.247
1782117271.717335,0.334000,1717814,1000,12,0,1,286.038,-13.538,11.490,560.402,0.267,1.247
1782117271.718335,0.335000,1717815,1000,12,0,1,302.516,2.332,11.150,560.979,-0.422,1.245
1782117271.719335,0.336000,1717816,1000,12,0,1,311.788,14.593,11.270,561.123,0.568,1.229
1782117271.720335,0.337000,1717817,1000,12,0,1,312.797,13.123,11.415,558.120,-2.241,1.222
1782117271.721335,0.338000,1717818,1000,12,0,1,320.075,17.536,11.681,559.922,-1.271,1.186
1782117271.722335,0.339000,1717819,1000,12,0,1,329.275,23.860,12.153,562.180,1.839,1.214
1782117271.723335,0.340000,1717820,1000,12,0,1,325.312,18.389,12.423,561.483,0.760,1.216
1782117271.724335,0.341000,1717821,1000,12,0,1,316.929,7.025,12.457,561.075,0.311,1.216
1782117271.725335,0.342000,1717822,1000,12,0,1,304.654,-4.330,12.458,558.745,-1.558,1.233
1782117271.726335,0.343000,1717823,1000,12,0,1,292.163,-15.512,12.647,560.066,-0.944,1.240
1782117271.727335,0.344000,1717824,1000,12,0,1,286.038,-18.921,12.923,560.739,0.676,1.238
1782117271.728335,0.345000,1717825,1000,12,0,1,285.101,-16.168,13.085,559.538,-0.705,1.235
1782117271.729335,0.346000,1717826,1000,12,0,1,288.392,-10.374,13.088,560.354,-0.029,1.235
1782117271.730335,0.347000,1717827,1000,12,0,1,287.335,-7.428,13.035,560.210,0.323,1.233
1782117271.731335,0.348000,1717828,1000,12,0,1,295.791,-0.559,13.025,560.018,-0.199,1.233
1782117271.732335,0.349000,1717829,1000,12,0,1,306.264,11.391,13.097,560.570,0.523,1.200
1782117271.733335,0.350000,1717830,1000,12,0,1,307.176,11.018,13.170,560.066,0.091,1.183
1782117271.734335,0.351000,1717831,1000,12,0,1,309.410,10.371,13.213,559.033,-0.822,1.189
1782117271.735335,0.352000,1717832,1000,12,0,1,315.824,14.120,13.156,559.634,-0.426,1.190
1782117271.736335,0.353000,1717833,1000,12,0,1,322.045,16.958,13.255,558.913,-0.511,1.153
1782117271.737335,0.354000,1717834,1000,12,0,1,330.332,20.595,13.455,560.306,0.131,1.122
1782117271.738335,0.355000,1717835,1000,12,0,1,330.140,17.834,13.583,562.468,2.488,1.120
1782117271.739335,0.356000,1717836,1000,12,0,1,326.297,9.697,13.650,561.387,1.382,1.089
1782117271.740335,0.357000,1717837,1000,12,0,1,314.647,-1.618,13.549,560.378,-0.130,1.088
1782117271.741335,0.358000,1717838,1000,12,0,1,297.208,-18.085,13.666,561.219,0.554,1.027
1782117271.742335,0.359000,1717839,1000,12,0,1,287.936,-25.000,13.945,562.900,1.846,1.060
1782117271.743335,0.360000,1717840,1000,12,0,1,299.586,-12.317,13.895,559.946,-0.270,1.052
1782117271.744335,0.361000,1717841,1000,12,0,1,306.984,-0.130,13.708,562.060,0.029,1.034
1782117271.745335,0.362000,1717842,1000,12,0,1,308.425,0.968,13.520,561.435,1.160,1.018
1782117271.746335,0.363000,1717843,1000,12,0,1,311.212,4.089,13.491,562.492,0.354,0.954
1782117271.747335,0.364000,1717844,1000,12,0,1,318.610,9.607,13.543,561.795,1.018,0.951
1782117271.748335,0.365000,1717845,1000,12,0,1,326.465,15.506,13.704,559.345,-2.011,0.992
1782117271.749335,0.366000,1717846,1000,12,0,1,324.231,12.029,13.803,559.345,-1.817,1.023
1782117271.750335,0.367000,1717847,1000,12,0,1,317.697,2.573,13.775,561.339,0.233,1.010
1782117271.751335,0.368000,1717848,1000,12,0,1,318.971,1.361,13.564,560.594,-0.012,1.010
1782117271.752335,0.369000,1717849,1000,12,0,1,319.667,1.351,13.366,559.658,-1.091,1.006
1782117271.753335,0.370000,1717850,1000,12,0,1,315.271,-3.784,13.346,560.907,-0.083,0.976
1782117271.754335,0.371000,1717851,1000,12,0,1,306.768,-11.732,13.449,560.018,-0.190,0.969
1782117271.755335,0.372000,1717852,1000,12,0,1,303.549,-14.917,13.604,560.907,-0.292,0.955
1782117271.756335,0.373000,1717853,1000,12,0,1,303.021,-13.176,13.713,558.913,-0.860,0.956
1782117271.757335,0.374000,1717854,1000,12,0,1,303.525,-11.312,13.800,557.472,-3.091,1.051
1782117271.758335,0.375000,1717855,1000,12,0,1,306.480,-7.009,13.827,558.481,-1.349,1.058
1782117271.759335,0.376000,1717856,1000,12,0,1,306.095,-5.223,13.756,559.225,-0.514,1.059
1782117271.760335,0.377000,1717857,1000,12,0,1,303.165,-6.888,13.764,560.042,0.341,1.054
1782117271.761335,0.378000,1717858,1000,12,0,1,305.639,-3.708,13.760,559.441,0.090,1.042
1782117271.762335,0.379000,1717859,1000,12,0,1,313.542,4.444,13.467,559.586,-0.181,1.042
1782117271.763335,0.380000,1717860,1000,12,0,1,311.452,4.599,12.870,563.357,3.034,1.125
1782117271.764335,0.381000,1717861,1000,12,0,1,304.246,-2.812,12.408,563.333,3.433,1.225
1782117271.765335,0.382000,1717862,1000,12,0,1,299.322,-6.071,12.146,562.876,1.817,1.242
1782117271.766335,0.383000,1717863,1000,12,0,1,296.463,-7.259,11.938,561.940,1.142,1.252
1782117271.767335,0.384000,1717864,1000,12,0,1,296.175,-5.782,11.812,560.450,-0.653,1.255
1782117271.768335,0.385000,1717865,1000,12,0,1,296.439,-3.671,11.819,558.216,-2.308,1.295
1782117271.769335,0.386000,1717866,1000,12,0,1,300.643,0.560,11.637,558.409,-2.254,1.331
1782117271.770335,0.387000,1717867,1000,12,0,1,300.667,2.429,11.493,558.913,-0.978,1.300
1782117271.771335,0.388000,1717868,1000,12,0,1,298.721,-0.171,11.223,559.514,-0.369,1.289
1782117271.772335,0.389000,1717869,1000,12,0,1,292.764,-4.100,10.719,561.675,1.576,1.282
1782117271.773335,0.390000,1717870,1000,12,0,1,298.193,-1.177,10.400,561.339,1.695,1.300
1782117271.774335,0.391000,1717871,1000,12,0,1,298.193,2.372,10.358,561.339,0.813,1.304
1782117271.775335,0.392000,1717872,1000,12,0,1,299.850,1.138,10.341,560.426,0.431,1.287
1782117271.776335,0.393000,1717873,1000,12,0,1,293.845,-1.221,10.107,560.859,-0.022,1.280
1782117271.777335,0.394000,1717874,1000,12,0,1,288.272,-7.895,9.810,560.186,-0.001,1.276
1782117271.778335,0.395000,1717875,1000,12,0,1,285.510,-7.655,9.602,560.018,-0.832,1.278
1782117271.779335,0.396000,1717876,1000,12,0,1,289.593,-3.326,9.500,560.618,0.019,1.278
1782117271.780335,0.397000,1717877,1000,12,0,1,290.314,0.419,9.442,562.708,1.444,1.293
1782117271.781335,0.398000,1717878,1000,12,0,1,286.278,-2.204,9.447,560.739,0.278,1.294
1782117271.782335,0.399000,1717879,1000,12,0,1,286.374,-1.507,9.311,559.514,-1.787,1.316
1782117271.783335,0.400000,1717880,1000,12,0,1,282.411,-1.798,9.183,560.955,-0.152,1.316
1782117271.784335,0.401000,1717881,1000,12,0,1,282.411,-2.290,9.071,560.955,0.169,1.311
1782117271.785335,0.402000,1717882,1000,12,0,1,236.916,-31.947,9.936,557.904,-2.391,1.353
1782117271.786335,0.403000,1717883,1000,12,0,1,252.313,-29.259,10.492,559.393,-1.524,1.368
1782117271.787335,0.404000,1717884,1000,12,0,1,279.192,14.161,10.277,560.883,0.875,1.373
1782117271.788335,0.405000,1717885,1000,12,0,1,305.543,29.489,10.800,562.156,1.564,1.346
1782117271.789335,0.406000,1717886,1000,12,0,1,311.404,39.640,12.091,561.579,1.415,1.347
1782117271.790335,0.407000,1717887,1000,12,0,1,301.483,21.531,12.466,559.201,-0.982,1.354
1782117271.791335,0.408000,1717888,1000,12,0,1,294.734,11.941,12.317,558.048,-2.084,1.383
1782117271.792335,0.409000,1717889,1000,12,0,1,292.284,7.473,11.846,559.033,-0.873,1.364
1782117271.793335,0.410000,1717890,1000,12,0,1,288.945,2.132,11.722,559.946,0.233,1.364
1782117271.794335,0.411000,1717891,1000,12,0,1,290.170,2.983,11.729,558.721,-0.499,1.365
1782117271.795335,0.412000,1717892,1000,12,0,1,290.098,1.649,11.731,558.985,-0.738,1.360
1782117271.796335,0.413000,1717893,1000,12,0,1,295.718,6.177,11.749,562.108,2.196,1.394
1782117271.797335,0.414000,1717894,1000,12,0,1,310.251,16.563,11.903,560.450,1.196,1.397
1782117271.798335,0.415000,1717895,1000,12,0,1,313.037,19.821,12.030,561.147,0.432,1.369
1782117271.799335,0.416000,1717896,1000,12,0,1,305.879,8.434,11.969,560.979,1.130,1.354
1782117271.800335,0.417000,1717897,1000,12,0,1,302.372,3.690,11.975,559.105,-1.242,1.365
1782117271.801335,0.418000,1717898,1000,12,0,1,313.422,10.080,12.058,559.465,-0.934,1.371
1782117271.802335,0.419000,1717899,1000,12,0,1,316.809,14.495,12.229,560.811,0.471,1.364
1782117271.803335,0.420000,1717900,1000,12,0,1,310.323,4.780,12.236,562.516,1.791,1.387
1782117271.804335,0.421000,1717901,1000,12,0,1,316.448,6.853,12.162,560.667,0.591,1.389
1782117271.805335,0.422000,1717902,1000,12,0,1,316.136,7.330,12.022,560.979,-0.253,1.389
1782117271.806335,0.423000,1717903,1000,12,0,1,306.744,-4.238,11.892,562.060,1.446,1.399
1782117271.807335,0.424000,1717904,1000,12,0,1,300.282,-10.693,11.881,560.066,-0.491,1.331
1782117271.808335,0.425000,1717905,1000,12,0,1,299.850,-11.449,11.949,559.586,-1.207,1.328
1782117271.809335,0.426000,1717906,1000,12,0,1,301.844,-8.565,11.988,559.369,-0.838,1.331
1782117271.810335,0.427000,1717907,1000,12,0,1,297.664,-11.154,12.052,560.138,-0.344,1.331
1782117271.811335,0.428000,1717908,1000,12,0,1,291.467,-16.460,12.264,560.835,0.748,1.336
1782117271.812335,0.429000,1717909,1000,12,0,1,290.002,-16.515,12.468,561.675,1.146,1.345
1782117271.813335,0.430000,1717910,1000,12,0,1,294.373,-11.169,12.551,560.402,0.352,1.276
1782117271.814335,0.431000,1717911,1000,12,0,1,292.476,-10.004,12.624,561.051,0.084,1.180
1782117271.815335,0.432000,1717912,1000,12,0,1,292.356,-10.457,12.681,561.171,0.754,1.156
1782117271.816335,0.433000,1717913,1000,12,0,1,285.221,-13.018,12.773,561.603,0.437,1.147
1782117271.817335,0.434000,1717914,1000,12,0,1,279.096,-18.244,13.006,561.892,0.843,1.149
1782117271.818335,0.435000,1717915,1000,12,0,1,279.216,-14.396,13.154,560.835,-0.341,1.103
1782117271.819335,0.436000,1717916,1000,12,0,1,277.151,-12.561,13.273,561.819,0.005,1.056
1782117271.820335,0.437000,1717917,1000,12,0,1,288.921,-1.603,13.270,561.531,0.266,1.047
1782117271.821335,0.438000,1717918,1000,12,0,1,302.973,14.688,13.432,561.627,-0.391,1.048
1782117271.822335,0.439000,1717919,1000,12,0,1,294.926,8.428,13.472,560.715,-0.613,1.027
1782117271.823335,0.440000,1717920,1000,12,0,1,282.339,-4.615,13.487,561.363,-0.716,1.004
1782117271.824335,0.441000,1717921,1000,12,0,1,286.663,-0.969,13.483,561.459,0.102,0.998
1782117271.825335,0.442000,1717922,1000,12,0,1,299.634,12.327,13.595,558.697,-2.341,1.049
1782117271.826335,0.443000,1717923,1000,12,0,1,302.420,15.421,13.767,559.273,-2.104,1.091
1782117271.827335,0.444000,1717924,1000,12,0,1,301.988,12.242,13.831,559.730,-0.601,1.094
1782117271.828335,0.445000,1717925,1000,12,0,1,307.176,14.776,13.946,561.075,0.174,1.088
1782117271.829335,0.446000,1717926,1000,12,0,1,305.207,12.231,14.045,559.826,0.068,1.088
1782117271.830335,0.447000,1717927,1000,12,0,1,305.207,8.262,14.093,559.826,-0.791,1.074
1782117271.831335,0.448000,1717928,1000,12,0,1,292.788,-1.324,14.091,559.393,-0.234,1.074
1782117271.832335,0.449000,1717929,1000,12,0,1,284.165,-12.621,14.202,561.988,1.196,1.058
1782117271.833335,0.450000,1717930,1000,12,0,1,284.189,-9.912,14.269,561.363,1.736,1.086
1782117271.834335,0.451000,1717931,1000,12,0,1,287.744,-6.044,14.291,560.763,-0.024,1.085
1782117271.835335,0.452000,1717932,1000,12,0,1,291.323,-1.273,13.559,561.027,0.578,1.035
1782117271.836335,0.453000,1717933,1000,12,0,1,285.558,-4.804,12.930,560.859,0.163,1.012
1782117271.837335,0.454000,1717934,1000,12,0,1,276.478,-12.926,12.904,562.660,1.308,1.021
1782117271.838335,0.455000,1717935,1000,12,0,1,284.957,-5.237,12.234,561.099,0.577,1.000
1782117271.839335,0.456000,1717936,1000,12,0,1,293.653,5.790,10.905,559.249,-2.074,1.023
1782117271.840335,0.457000,1717937,1000,12,0,1,299.706,9.834,10.563,559.369,-1.402,1.033
1782117271.841335,0.458000,1717938,1000,12,0,1,300.763,10.664,10.536,561.675,0.355,0.991
1782117271.842335,0.459000,1717939,1000,12,0,1,299.730,7.486,10.536,562.876,2.017,1.024
1782117271.843335,0.460000,1717940,1000,12,0,1,295.142,2.917,10.540,561.844,0.689,1.028
1782117271.844335,0.461000,1717941,1000,12,0,1,287.720,-4.279,10.549,560.018,-0.962,1.035
1782117271.845335,0.462000,1717942,1000,12,0,1,284.981,-6.867,10.591,559.778,-1.326,1.046
1782117271.846335,0.463000,1717943,1000,12,0,1,276.622,-11.075,10.670,560.474,-0.338,1.000
1782117271.847335,0.464000,1717944,1000,12,0,1,267.326,-18.472,10.733,560.883,0.215,0.986
1782117271.848335,0.465000,1717945,1000,12,0,1,259.856,-20.649,10.764,560.234,-0.217,0.985
1782117271.849335,0.466000,1717946,1000,12,0,1,272.250,-8.850,10.770,560.354,-0.212,0.972
1782117271.850335,0.467000,1717947,1000,12,0,1,299.730,19.072,11.091,560.426,0.090,0.957
1782117271.851335,0.468000,1717948,1000,12,0,1,318.586,35.173,12.071,561.555,0.863,0.955
1782117271.852335,0.469000,1717949,1000,12,0,1,324.471,35.575,12.916,561.699,1.213,0.968
1782117271.853335,0.470000,1717950,1000,12,0,1,330.020,33.301,13.731,561.363,0.501,0.937
1782117271.854335,0.471000,1717951,1000,12,0,1,327.354,25.964,14.181,561.555,0.520,0.936
1782117271.855335,0.472000,1717952,1000,12,0,1,319.187,12.278,14.249,560.546,-0.313,0.937
1782117271.856335,0.473000,1717953,1000,12,0,1,314.118,3.581,14.245,559.706,-1.363,0.934
1782117271.857335,0.474000,1717954,1000,12,0,1,312.077,-0.463,14.165,558.937,-1.704,0.962
1782117271.858335,0.475000,1717955,1000,12,0,1,309.050,-4.302,14.085,558.985,-1.703,0.977
1782117271.859335,0.476000,1717956,1000,12,0,1,306.720,-7.008,14.068,559.297,-0.958,0.979
1782117271.860335,0.477000,1717957,1000,12,0,1,303.333,-9.540,14.044,558.673,-1.291,0.995
1782117271.861335,0.478000,1717958,1000,12,0,1,302.276,-10.148,13.924,559.922,-0.276,0.990
1782117271.862335,0.479000,1717959,1000,12,0,1,301.075,-9.614,13.794,561.819,1.764,1.008
1782117271.863335,0.480000,1717960,1000,12,0,1,299.490,-9.995,13.776,561.868,1.753,1.037
1782117271.864335,0.481000,1717961,1000,12,0,1,297.712,-10.109,13.778,560.402,0.283,1.038
1782117271.865335,0.482000,1717962,1000,12,0,1,298.769,-8.243,13.747,560.234,-0.190,1.033
1782117271.866335,0.483000,1717963,1000,12,0,1,305.255,-1.848,13.626,561.651,1.157,1.044
1782117271.867335,0.484000,1717964,1000,12,0,1,320.964,11.179,13.473,560.138,0.219,1.037
1782117271.868335,0.485000,1717965,1000,12,0,1,325.672,15.615,13.500,559.634,-0.855,1.043
1782117271.869335,0.486000,1717966,1000,12,0,1,316.280,3.680,13.393,558.913,-0.781,1.049
1782117271.870335,0.487000,1717967,1000,12,0,1,307.128,-7.097,13.428,558.793,-1.152,1.061
1782117271.871335,0.488000,1717968,1000,12,0,1,295.718,-16.579,13.472,559.345,-0.174,1.060
1782117271.872335,0.489000,1717969,1000,12,0,1,292.404,-19.916,13.712,558.385,-0.780,1.062
1782117271.873335,0.490000,1717970,1000,12,0,1,289.905,-17.805,13.926,559.201,-0.340,1.058
1782117271.874335,0.491000,1717971,1000,12,0,1,287.143,-18.595,14.171,558.553,-0.150,1.058
1782117271.875335,0.492000,1717972,1000,12,0,1,299.466,-6.069,14.090,559.706,0.107,1.005
1782117271.876335,0.493000,1717973,1000,12,0,1,315.031,10.509,13.999,559.802,1.015,0.971
1782117271.877335,0.494000,1717974,1000,12,0,1,314.455,10.528,13.971,558.505,-0.684,0.972
1782117271.878335,0.495000,1717975,1000,12,0,1,313.230,6.291,13.843,560.594,0.915,0.980
1782117271.879335,0.496000,1717976,1000,12,0,1,310.924,4.587,13.749,559.273,0.538,0.983
1782117271.880335,0.497000,1717977,1000,12,0,1,307.489,0.207,13.700,558.529,-1.141,0.990
1782117271.881335,0.498000,1717978,1000,12,0,1,308.786,1.177,13.699,558.216,-0.610,0.993
1782117271.882335,0.499000,1717979,1000,12,0,1,310.635,3.328,13.591,557.784,-1.252,0.995
1782117271.883335,0.500000,1717980,1000,12,0,1,310.011,2.543,13.523,557.135,-1.243,0.980
1782117271.884335,0.501000,1717981,1000,12,0,1,306.888,-0.112,13.496,559.730,0.689,0.985
1782117271.885335,0.502000,1717982,1000,12,0,1,310.371,1.643,13.497,559.538,1.563,1.006
1782117271.886335,0.503000,1717983,1000,12,0,1,314.911,6.543,13.512,558.673,0.015,1.005
1782117271.887335,0.504000,1717984,1000,12,0,1,315.656,5.859,13.413,558.288,0.074,0.988
1782117271.888335,0.505000,1717985,1000,12,0,1,309.362,0.006,13.392,559.778,1.067,0.997
1782117271.889335,0.506000,1717986,1000,12,0,1,302.733,-7.358,13.408,558.865,0.875,0.960
1782117271.890335,0.507000,1717987,1000,12,0,1,299.442,-9.582,13.404,558.192,-0.315,0.941
1782117271.891335,0.508000,1717988,1000,12,0,1,295.190,-11.882,13.425,556.511,-1.227,0.955
1782117271.892335,0.509000,1717989,1000,12,0,1,291.395,-13.919,13.527,556.943,-1.209,0.928
1782117271.893335,0.510000,1717990,1000,12,0,1,285.149,-16.484,13.720,556.751,-0.553,0.926
1782117271.894335,0.511000,1717991,1000,12,0,1,276.982,-21.171,14.030,559.201,1.045,0.928
1782117271.895335,0.512000,1717992,1000,12,0,1,272.250,-21.733,14.330,558.216,1.156,0.923
1782117271.896335,0.513000,1717993,1000,12,0,1,269.392,-19.727,14.515,558.120,-0.060,0.922
1782117271.897335,0.514000,1717994,1000,12,0,1,272.851,-13.109,14.397,558.625,0.902,0.930
1782117271.898335,0.515000,1717995,1000,12,0,1,279.144,-3.328,14.106,560.354,1.829,0.965
1782117271.899335,0.516000,1717996,1000,12,0,1,285.053,4.001,14.062,561.459,2.842,1.045
1782117271.900335,0.517000,1717997,1000,12,0,1,283.636,4.946,13.818,559.994,1.240,1.059
1782117271.901335,0.518000,1717998,1000,12,0,1,267.927,-7.158,12.932,560.426,0.677,1.057
1782117271.902335,0.519000,1717999,1000,12,0,1,268.815,-7.750,11.963,559.898,0.763,1.048
1782117271.903335,0.520000,1718000,1000,12,0,1,296.319,18.876,11.317,559.994,-0.052,1.046
1782117271.904335,0.521000,1718001,1000,12,0,1,316.616,38.299,11.997,560.450,0.826,1.050
1782117271.905335,0.522000,1718002,1000,12,0,1,319.835,36.703,12.956,560.114,0.154,1.049
1782117271.906335,0.523000,1718003,1000,12,0,1,316.881,28.482,13.558,559.249,-0.451,1.033
1782117271.907335,0.524000,1718004,1000,12,0,1,325.672,29.365,14.179,560.570,0.309,1.006
1782117271.908335,0.525000,1718005,1000,12,0,1,327.498,28.774,14.739,559.850,0.345,0.978
1782117271.909335,0.526000,1718006,1000,12,0,1,313.734,11.279,14.792,556.991,-2.455,1.029
1782117271.910335,0.527000,1718007,1000,12,0,1,301.291,-3.551,14.739,557.712,-1.967,1.050
1782117271.911335,0.528000,1718008,1000,12,0,1,295.767,-9.054,14.725,560.763,1.268,1.064
1782117271.912335,0.529000,1718009,1000,12,0,1,292.884,-10.722,14.740,561.027,1.688,1.062
1782117271.913335,0.530000,1718010,1000,12,0,1,293.388,-9.128,14.729,560.883,0.968,1.041
1782117271.914335,0.531000,1718011,1000,12,0,1,297.208,-4.627,14.674,558.457,-0.955,1.049
1782117271.915335,0.532000,1718012,1000,12,0,1,308.041,4.801,14.643,559.538,-0.963,1.058
1782117271.916335,0.533000,1718013,1000,12,0,1,310.972,8.320,14.688,562.060,1.871,1.078
1782117271.917335,0.534000,1718014,1000,12,0,1,309.891,4.311,14.616,561.651,1.247,1.092
1782117271.918335,0.535000,1718015,1000,12,0,1,308.618,2.032,14.451,559.177,-1.257,1.100
1782117271.919335,0.536000,1718016,1000,12,0,1,301.940,-4.823,14.457,556.967,-3.302,1.190
1782117271.920335,0.537000,1718017,1000,12,0,1,295.598,-11.548,14.515,556.127,-3.789,1.295
1782117271.921335,0.538000,1718018,1000,12,0,1,288.272,-16.431,14.511,558.889,-1.079,1.303
1782117271.922335,0.539000,1718019,1000,12,0,1,282.531,-20.464,14.526,559.634,0.512,1.301
1782117271.923335,0.540000,1718020,1000,12,0,1,277.415,-21.416,14.624,559.538,0.043,1.300
1782117271.924335,0.541000,1718021,1000,12,0,1,270.665,-24.017,14.781,558.745,-0.282,1.300
1782117271.925335,0.542000,1718022,1000,12,0,1,271.265,-20.227,15.031,557.256,-1.585,1.319
1782117271.926335,0.543000,1718023,1000,12,0,1,283.156,-6.184,14.982,557.856,-1.014,1.319
1782117271.927335,0.544000,1718024,1000,12,0,1,295.142,7.501,14.946,558.312,0.068,1.316
1782117271.928335,0.545000,1718025,1000,12,0,1,302.636,14.152,15.053,558.024,-0.222,1.310
1782117271.929335,0.546000,1718026,1000,12,0,1,300.210,11.806,15.132,558.312,0.232,1.308
1782117271.930335,0.547000,1718027,1000,12,0,1,292.404,3.092,15.138,559.081,0.906,1.304
1782117271.931335,0.548000,1718028,1000,12,0,1,285.438,-3.215,15.144,558.865,0.897,1.308
1782117271.932335,0.549000,1718029,1000,12,0,1,291.971,1.716,15.138,557.328,-0.555,1.298
1782117271.933335,0.550000,1718030,1000,12,0,1,309.338,17.767,15.341,558.697,0.255,1.286
1782117271.934335,0.551000,1718031,1000,12,0,1,313.806,21.949,15.652,558.457,0.755,1.287
1782117271.935335,0.552000,1718032,1000,12,0,1,310.635,14.777,15.789,559.417,0.732,1.272
1782117271.936335,0.553000,1718033,1000,12,0,1,305.399,8.332,15.806,560.234,1.907,1.301
1782117271.937335,0.554000,1718034,1000,12,0,1,299.418,0.769,15.785,559.417,0.694,1.304
1782117271.938335,0.555000,1718035,1000,12,0,1,295.502,-3.185,15.791,560.138,0.904,1.302
1782117271.939335,0.556000,1718036,1000,12,0,1,294.758,-3.996,15.767,560.042,1.007,1.304
1782117271.940335,0.557000,1718037,1000,12,0,1,296.799,-1.840,15.711,558.264,-0.879,1.309
1782117271.941335,0.558000,1718038,1000,12,0,1,298.385,-0.031,15.621,558.336,-0.983,1.305
1782117271.942335,0.559000,1718039,1000,12,0,1,290.338,-6.164,15.521,559.658,0.389,1.295
1782117271.943335,0.560000,1718040,1000,12,0,1,282.723,-13.514,15.463,559.874,0.767,1.297
1782117271.944335,0.561000,1718041,1000,12,0,1,284.669,-10.447,15.242,558.409,-0.551,1.291
1782117271.945335,0.562000,1718042,1000,12,0,1,293.965,-0.788,14.930,559.369,-0.065,1.280
1782117271.946335,0.563000,1718043,1000,12,0,1,302.733,7.748,14.708,560.378,1.307,1.294
1782117271.947335,0.564000,1718044,1000,12,0,1,305.399,9.429,14.651,558.168,-0.586,1.290
1782117271.948335,0.565000,1718045,1000,12,0,1,308.522,9.559,14.706,559.922,0.159,1.264
1782117271.949335,0.566000,1718046,1000,12,0,1,305.495,6.414,14.723,560.306,1.518,1.217
1782117271.950335,0.567000,1718047,1000,12,0,1,300.595,-0.582,14.706,557.856,-1.229,1.217
1782117271.951335,0.568000,1718048,1000,12,0,1,293.437,-6.299,14.699,558.985,-0.524,1.216
1782117271.952335,0.569000,1718049,1000,12,0,1,287.864,-11.491,14.747,559.538,0.587,1.214
1782117271.953335,0.570000,1718050,1000,12,0,1,285.534,-11.441,14.594,558.577,-0.606,1.217
1782117271.954335,0.571000,1718051,1000,12,0,1,281.546,-12.408,13.665,557.232,-1.596,1.232
1782117271.955335,0.572000,1718052,1000,12,0,1,283.060,-9.655,12.714,558.216,-1.039,1.241
1782117271.956335,0.573000,1718053,1000,12,0,1,290.194,-0.677,12.059,559.586,0.693,1.243
1782117271.957335,0.574000,1718054,1000,12,0,1,297.136,6.467,11.359,560.715,1.352,1.257
1782117271.958335,0.575000,1718055,1000,12,0,1,295.214,5.817,10.637,560.018,0.861,1.262
1782117271.959335,0.576000,1718056,1000,12,0,1,292.235,1.465,10.518,559.586,-0.112,1.213
1782117271.960335,0.577000,1718057,1000,12,0,1,291.227,0.994,10.507,559.297,-0.208,1.181
1782117271.961335,0.578000,1718058,1000,12,0,1,290.386,0.007,10.429,558.745,-0.773,1.172
1782117271.962335,0.579000,1718059,1000,12,0,1,287.624,-1.916,10.322,558.336,-1.032,1.157
1782117271.963335,0.580000,1718060,1000,12,0,1,285.558,-3.802,10.255,560.018,0.382,1.150
1782117271.964335,0.581000,1718061,1000,12,0,1,285.221,-3.429,10.245,559.393,0.436,1.144
1782117271.965335,0.582000,1718062,1000,12,0,1,281.546,-5.349,10.251,559.730,0.088,1.136
1782117271.966335,0.583000,1718063,1000,12,0,1,273.259,-11.552,10.313,558.577,-0.215,1.105
1782117271.967335,0.584000,1718064,1000,12,0,1,270.136,-13.127,10.461,560.114,0.316,1.092
1782117271.968335,0.585000,1718065,1000,12,0,1,267.446,-11.972,10.593,558.553,0.123,1.077
1782117271.969335,0.586000,1718066,1000,12,0,1,276.142,-3.737,10.585,559.586,-0.242,0.971
1782117271.970335,0.587000,1718067,1000,12,0,1,289.545,11.088,10.575,558.096,-0.172,0.811
1782117271.971335,0.588000,1718068,1000,12,0,1,287.936,10.606,10.425,557.472,-1.761,0.834
1782117271.972335,0.589000,1718069,1000,12,0,1,283.276,4.093,10.032,556.751,-1.418,0.855
1782117271.973335,0.590000,1718070,1000,12,0,1,287.840,7.527,9.623,558.913,-0.075,0.855
1782117271.974335,0.591000,1718071,1000,12,0,1,300.859,17.788,9.348,558.168,0.321,0.855
1782117271.975335,0.592000,1718072,1000,12,0,1,309.891,24.906,9.572,560.330,1.021,0.838
1782117271.976335,0.593000,1718073,1000,12,0,1,303.237,16.436,9.811,559.778,1.549,0.854
1782117271.977335,0.594000,1718074,1000,12,0,1,287.071,-0.808,9.754,559.754,0.297,0.855
1782117271.978335,0.595000,1718075,1000,12,0,1,275.397,-12.387,9.706,560.090,0.930,0.865
1782117271.979335,0.596000,1718076,1000,12,0,1,275.469,-11.279,9.693,559.153,-0.103,0.864
1782117271.980335,0.597000,1718077,1000,12,0,1,268.623,-12.909,9.854,556.631,-2.327,0.916
1782117271.981335,0.598000,1718078,1000,12,0,1,258.751,-20.340,10.255,557.664,-1.590,0.934
1782117271.982335,0.599000,1718079,1000,12,0,1,254.043,-20.508,10.655,558.553,-0.054,0.931
1782117271.983335,0.600000,1718080,1000,12,0,1,255.604,-15.574,10.586,557.304,-0.925,0.940
1782117271.984335,0.601000,1718081,1000,12,0,1,253.274,-12.655,10.277,557.856,-0.708,0.939
1782117271.985335,0.602000,1718082,1000,12,0,1,282.627,10.609,10.174,557.424,-0.186,0.933
1782117271.986335,0.603000,1718083,1000,12,0,1,282.675,19.862,10.489,558.144,-0.111,0.894
1782117271.987335,0.604000,1718084,1000,12,0,1,286.086,11.721,10.618,558.577,1.067,0.901
1782117271.988335,0.605000,1718085,1000,12,0,1,287.624,17.150,10.882,558.985,0.910,0.901
1782117271.989335,0.606000,1718086,1000,12,0,1,282.291,6.598,10.908,557.472,0.119,0.890
1782117271.990335,0.607000,1718087,1000,12,0,1,278.592,2.778,10.912,556.775,-1.080,0.894
1782117271.991335,0.608000,1718088,1000,12,0,1,269.176,-5.320,10.938,557.760,0.165,0.884
1782117271.992335,0.609000,1718089,1000,12,0,1,258.414,-15.225,11.113,556.175,-0.814,0.890
1782117271.993335,0.610000,1718090,1000,12,0,1,267.254,-6.241,10.983,558.601,0.438,0.885
1782117271.994335,0.611000,1718091,1000,12,0,1,284.909,11.528,11.005,557.712,1.056,0.894
1782117271.995335,0.612000,1718092,1000,12,0,1,293.268,20.131,11.367,556.823,-1.075,0.907
1782117271.996335,0.613000,1718093,1000,12,0,1,292.716,16.506,11.552,557.856,0.494,0.891
1782117271.997335,0.614000,1718094,1000,12,0,1,289.785,12.240,11.605,556.991,-0.303,0.888
1782117271.998335,0.615000,1718095,1000,12,0,1,285.221,5.919,11.556,558.553,0.585,0.892
1782117271.999335,0.616000,1718096,1000,12,0,1,286.014,5.245,11.544,559.249,1.792,0.902
1782117272.000335,0.617000,1718097,1000,12,0,1,285.630,4.786,11.564,557.184,-0.437,0.887
1782117272.001335,0.618000,1718098,1000,12,0,1,282.555,1.162,11.531,558.288,0.124,0.884
1782117272.002335,0.619000,1718099,1000,12,0,1,279.096,-2.360,11.420,555.670,-1.146,0.895
1782117272.003335,0.620000,1718100,1000,12,0,1,278.015,-3.608,11.317,555.598,-2.207,0.944
1782117272.004335,0.621000,1718101,1000,12,0,1,275.253,-5.336,11.205,558.601,1.401,0.938
1782117272.005335,0.622000,1718102,1000,12,0,1,274.412,-6.411,11.159,560.378,2.925,1.014
1782117272.006335,0.623000,1718103,1000,12,0,1,278.039,-2.852,11.166,559.778,2.288,1.060
1782117272.007335,0.624000,1718104,1000,12,0,1,277.655,-2.327,11.133,558.913,1.002,1.052
1782117272.008335,0.625000,1718105,1000,12,0,1,274.532,-5.781,11.132,558.144,0.185,1.046
1782117272.009335,0.626000,1718106,1000,12,0,1,270.929,-8.377,11.193,556.583,-1.091,1.057
1782117272.010335,0.627000,1718107,1000,12,0,1,268.743,-9.929,11.280,557.039,-1.016,1.066
1782117272.011335,0.628000,1718108,1000,12,0,1,273.187,-5.309,11.305,558.697,0.897,1.068
1782117272.012335,0.629000,1718109,1000,12,0,1,278.616,0.931,11.303,558.625,0.793,1.064
1782117272.013335,0.630000,1718110,1000,12,0,1,274.869,-1.339,11.292,556.511,-1.062,1.073
1782117272.014335,0.631000,1718111,1000,12,0,1,266.942,-8.384,11.343,556.295,-1.677,1.097
1782117272.015335,0.632000,1718112,1000,12,0,1,265.476,-8.817,11.386,558.457,0.515,1.100
1782117272.016335,0.633000,1718113,1000,12,0,1,277.967,3.100,11.277,558.601,0.907,1.107
1782117272.017335,0.634000,1718114,1000,12,0,1,287.503,13.947,11.297,560.114,1.478,1.125
1782117272.018335,0.635000,1718115,1000,12,0,1,284.597,10.500,11.268,559.129,1.128,1.136
1782117272.019335,0.636000,1718116,1000,12,0,1,271.962,-1.219,11.256,557.135,-1.461,1.155
1782117272.020335,0.637000,1718117,1000,12,0,1,267.470,-6.651,11.186,556.319,-1.905,1.185
1782117272.021335,0.638000,1718118,1000,12,0,1,270.257,-2.002,11.089,557.928,-0.599,1.162
1782117272.022335,0.639000,1718119,1000,12,0,1,271.145,0.071,11.074,558.264,0.375,1.146
1782117272.023335,0.640000,1718120,1000,12,0,1,267.494,-2.223,11.027,557.376,-0.616,1.149
1782117272.024335,0.641000,1718121,1000,12,0,1,261.225,-6.959,10.781,559.417,0.922,1.156
1782117272.025335,0.642000,1718122,1000,12,0,1,267.182,-2.401,10.195,556.847,-0.273,1.147
1782117272.026335,0.643000,1718123,1000,12,0,1,275.301,7.167,9.978,558.769,-0.214,1.126
1782117272.027335,0.644000,1718124,1000,12,0,1,276.910,7.450,10.033,559.465,2.091,1.164
1782117272.028335,0.645000,1718125,1000,12,0,1,272.947,3.228,9.890,560.330,1.392,1.173
1782117272.029335,0.646000,1718126,1000,12,0,1,274.412,2.061,9.765,559.874,1.741,1.198
1782117272.030335,0.647000,1718127,1000,12,0,1,270.329,-0.223,9.592,558.144,-0.588,1.155
1782117272.031335,0.648000,1718128,1000,12,0,1,261.969,-8.870,9.236,558.553,-0.370,1.135
1782117272.032335,0.649000,1718129,1000,12,0,1,258.607,-10.983,8.906,561.435,2.089,1.172
1782117272.033335,0.650000,1718130,1000,12,0,1,261.417,-6.923,8.685,559.393,0.704,1.169
1782117272.034335,0.651000,1718131,1000,12,0,1,258.919,-6.238,8.544,558.000,-1.566,1.186
1782117272.035335,0.652000,1718132,1000,12,0,1,257.454,-6.887,8.467,558.433,-0.862,1.192
1782117272.036335,0.653000,1718133,1000,12,0,1,249.046,-10.462,8.124,558.433,-0.756,1.196
1782117272.037335,0.654000,1718134,1000,12,0,1,242.441,-15.165,8.237,556.535,-2.231,1.228
1782117272.038335,0.655000,1718135,1000,12,0,1,252.001,-4.179,7.894,556.535,-2.351,1.266
1782117272.039335,0.656000,1718136,1000,12,0,1,271.073,15.333,8.133,557.928,-0.669,1.269
1782117272.040335,0.657000,1718137,1000,12,0,1,270.040,16.741,8.461,559.658,0.997,1.268
1782117272.041335,0.658000,1718138,1000,12,0,1,258.727,3.712,8.444,558.336,0.132,1.268
1782117272.042335,0.659000,1718139,1000,12,0,1,258.655,2.292,8.171,557.904,-0.805,1.268
1782117272.043335,0.660000,1718140,1000,12,0,1,263.963,7.859,8.199,557.328,-0.801,1.271
1782117272.044335,0.661000,1718141,1000,12,0,1,271.241,12.894,8.240,555.934,-1.968,1.293
1782117272.045335,0.662000,1718142,1000,12,0,1,281.762,20.507,8.258,556.847,-1.133,1.294
1782117272.046335,0.663000,1718143,1000,12,0,1,274.292,13.215,8.139,557.880,0.448,1.293
1782117272.047335,0.664000,1718144,1000,12,0,1,265.813,0.541,7.953,559.105,1.264,1.305
1782117272.048335,0.665000,1718145,1000,12,0,1,268.815,2.245,7.915,558.433,1.111,1.312
1782117272.049335,0.666000,1718146,1000,12,0,1,277.463,8.777,7.978,557.952,0.054,1.287
1782117272.050335,0.667000,1718147,1000,12,0,1,282.675,12.341,8.138,558.937,1.077,1.295
1782117272.051335,0.668000,1718148,1000,12,0,1,280.994,8.713,8.229,559.489,1.474,1.311
1782117272.052335,0.669000,1718149,1000,12,0,1,275.085,1.256,8.225,560.402,1.921,1.329
1782117272.053335,0.670000,1718150,1000,12,0,1,276.358,0.254,8.209,559.970,1.531,1.310
1782117272.054335,0.671000,1718151,1000,12,0,1,275.661,0.374,8.174,558.529,-0.214,1.295
1782117272.055335,0.672000,1718152,1000,12,0,1,272.106,-3.739,8.141,557.856,-0.906,1.234
1782117272.056335,0.673000,1718153,1000,12,0,1,266.605,-7.867,8.207,557.256,-1.307,1.205
1782117272.057335,0.674000,1718154,1000,12,0,1,267.830,-7.065,8.261,558.385,-0.422,1.198
1782117272.058335,0.675000,1718155,1000,12,0,1,273.019,-0.824,8.221,559.393,0.834,1.204
1782117272.059335,0.676000,1718156,1000,12,0,1,275.493,1.861,8.140,559.153,0.463,1.196
1782117272.060335,0.677000,1718157,1000,12,0,1,277.223,2.679,8.026,558.553,-0.168,1.187
1782117272.061335,0.678000,1718158,1000,12,0,1,279.553,4.182,8.013,558.361,-0.430,1.182
1782117272.062335,0.679000,1718159,1000,12,0,1,279.745,3.340,8.026,557.256,-1.165,1.188
1782117272.063335,0.680000,1718160,1000,12,0,1,275.181,-1.311,8.026,558.144,-0.673,1.183
1782117272.064335,0.681000,1718161,1000,12,0,1,273.836,-4.250,7.961,559.057,0.657,1.162
1782117272.065335,0.682000,1718162,1000,12,0,1,275.253,-2.582,7.871,556.535,-1.379,1.176
1782117272.066335,0.683000,1718163,1000,12,0,1,277.343,-1.419,7.861,556.151,-2.175,1.209
1782117272.067335,0.684000,1718164,1000,12,0,1,276.718,-1.769,7.614,557.712,-0.122,1.191
1782117272.068335,0.685000,1718165,1000,12,0,1,274.220,-4.682,7.497,557.376,-0.153,1.180
1782117272.069335,0.686000,1718166,1000,12,0,1,275.253,-4.130,7.518,558.312,0.381,1.163
1782117272.070335,0.687000,1718167,1000,12,0,1,271.650,-5.890,7.505,559.393,1.623,1.155
1782117272.071335,0.688000,1718168,1000,12,0,1,266.990,-10.292,7.639,559.081,1.120,1.163
1782117272.072335,0.689000,1718169,1000,12,0,1,260.648,-13.452,7.873,557.880,-0.063,1.161
1782117272.073335,0.690000,1718170,1000,12,0,1,261.465,-12.137,8.052,560.474,1.543,1.179
1782117272.074335,0.691000,1718171,1000,12,0,1,261.657,-7.856,8.068,560.594,2.376,1.219
1782117272.075335,0.692000,1718172,1000,12,0,1,256.349,-10.747,8.203,556.439,-1.838,1.245
1782117272.076335,0.693000,1718173,1000,12,0,1,252.289,-12.083,8.317,557.784,-1.411,1.261
1782117272.077335,0.694000,1718174,1000,12,0,1,260.576,-3.329,8.264,559.369,1.110,1.236
1782117272.078335,0.695000,1718175,1000,12,0,1,271.746,9.257,8.354,559.826,0.893,1.226
1782117272.079335,0.696000,1718176,1000,12,0,1,267.518,6.920,8.407,558.336,0.023,1.202
1782117272.080335,0.697000,1718177,1000,12,0,1,270.737,6.061,8.450,558.168,-0.857,1.205
1782117272.081335,0.698000,1718178,1000,12,0,1,273.740,10.737,8.493,557.232,-0.932,1.211
1782117272.082335,0.699000,1718179,1000,12,0,1,273.499,7.644,8.420,558.144,-0.682,1.178
1782117272.083335,0.700000,1718180,1000,12,0,1,270.136,4.705,8.389,559.441,1.074,1.184
1782117272.084335,0.701000,1718181,1000,12,0,1,268.767,1.362,8.345,558.817,0.419,1.164
1782117272.085335,0.702000,1718182,1000,12,0,1,270.689,3.003,8.299,558.913,0.141,1.158
1782117272.086335,0.703000,1718183,1000,12,0,1,271.169,3.140,8.178,558.601,0.162,1.153
1782117272.087335,0.704000,1718184,1000,12,0,1,268.071,-0.036,7.891,557.424,-1.111,1.120
1782117272.088335,0.705000,1718185,1000,12,0,1,267.975,-0.795,7.870,556.535,-1.665,1.096
1782117272.089335,0.706000,1718186,1000,12,0,1,268.647,0.259,7.566,558.457,-0.205,1.092
1782117272.090335,0.707000,1718187,1000,12,0,1,269.224,0.771,7.186,559.898,1.682,1.109
1782117272.091335,0.708000,1718188,1000,12,0,1,268.647,0.464,7.168,558.192,-0.007,1.108
1782117272.092335,0.709000,1718189,1000,12,0,1,268.503,0.315,7.160,557.280,-1.169,1.115
1782117272.093335,0.710000,1718190,1000,12,0,1,268.239,0.336,7.074,557.208,-0.940,1.117
1782117272.094335,0.711000,1718191,1000,12,0,1,266.966,-0.441,6.835,558.312,-0.053,1.082
1782117272.095335,0.712000,1718192,1000,12,0,1,266.581,-0.804,6.190,559.778,1.466,1.090
1782117272.096335,0.713000,1718193,1000,12,0,1,264.972,-1.366,5.905,559.129,0.897,1.095
1782117272.097335,0.714000,1718194,1000,12,0,1,264.131,-2.222,5.912,558.481,-0.076,1.081
1782117272.098335,0.715000,1718195,1000,12,0,1,261.465,-3.326,5.923,559.754,0.918,1.077
1782117272.099335,0.716000,1718196,1000,12,0,1,261.201,-3.798,5.816,559.177,0.708,1.082
1782117272.100335,0.717000,1718197,1000,12,0,1,265.645,0.910,5.549,557.616,-1.031,1.081
1782117272.101335,0.718000,1718198,1000,12,0,1,274.700,8.413,5.540,559.009,0.013,1.061
1782117272.102335,0.719000,1718199,1000,12,0,1,289.161,19.486,6.185,559.393,0.889,1.033
1782117272.103335,0.720000,1718200,1000,12,0,1,290.842,19.994,6.801,558.889,0.043,1.010
1782117272.104335,0.721000,1718201,1000,12,0,1,270.016,-1.227,6.803,557.256,-1.088,1.021
1782117272.105335,0.722000,1718202,1000,12,0,1,252.529,-19.789,7.337,558.721,-0.382,1.014
1782117272.106335,0.723000,1718203,1000,12,0,1,252.818,-18.064,7.689,560.522,1.870,1.032
1782117272.107335,0.724000,1718204,1000,12,0,1,241.864,-21.582,8.212,559.658,0.855,1.037
1782117272.108335,0.725000,1718205,1000,12,0,1,236.844,-25.671,8.978,557.880,-0.944,1.039
1782117272.109335,0.726000,1718206,1000,12,0,1,273.643,8.155,9.048,556.847,-1.871,1.070
1782117272.110335,0.727000,1718207,1000,12,0,1,295.959,34.380,10.264,558.457,-0.536,1.073
1782117272.111335,0.728000,1718208,1000,12,0,1,279.144,15.464,10.478,557.448,-0.544,1.074
1782117272.112335,0.729000,1718209,1000,12,0,1,270.305,1.488,10.470,557.808,-1.029,1.071
1782117272.113335,0.730000,1718210,1000,12,0,1,274.772,5.453,10.496,558.985,0.735,1.072
1782117272.114335,0.731000,1718211,1000,12,0,1,276.166,6.157,10.515,560.354,1.462,1.088
1782117272.115335,0.732000,1718212,1000,12,0,1,276.886,5.351,10.536,558.985,0.671,1.074
1782117272.116335,0.733000,1718213,1000,12,0,1,274.676,2.909,10.542,560.354,0.761,1.035
1782117272.117335,0.734000,1718214,1000,12,0,1,273.668,0.448,10.539,558.264,0.016,1.035
1782117272.118335,0.735000,1718215,1000,12,0,1,270.905,-1.563,10.521,559.586,-0.358,1.036
1782117272.119335,0.736000,1718216,1000,12,0,1,259.039,-11.351,10.627,557.928,-0.212,1.035
1782117272.120335,0.737000,1718217,1000,12,0,1,248.590,-20.164,10.971,557.472,-1.895,1.044
1782117272.121335,0.738000,1718218,1000,12,0,1,243.906,-21.018,11.273,558.433,-0.086,1.032
1782117272.122335,0.739000,1718219,1000,12,0,1,245.491,-16.552,11.355,557.784,-0.591,1.035
1782117272.123335,0.740000,1718220,1000,12,0,1,261.249,-0.635,11.225,556.943,-1.347,1.030
1782117272.124335,0.741000,1718221,1000,12,0,1,281.690,19.163,11.494,558.745,0.347,0.975
1782117272.125335,0.742000,1718222,1000,12,0,1,284.789,21.536,11.793,557.544,-0.112,0.939
1782117272.126335,0.743000,1718223,1000,12,0,1,284.861,16.073,11.888,557.544,-0.665,0.923
1782117272.127335,0.744000,1718224,1000,12,0,1,289.281,17.179,12.125,556.511,-0.869,0.918
1782117272.128335,0.745000,1718225,1000,12,0,1,292.380,16.389,12.275,557.784,-0.277,0.910
1782117272.129335,0.746000,1718226,1000,12,0,1,291.058,12.141,12.355,559.682,1.921,0.949
1782117272.130335,0.747000,1718227,1000,12,0,1,285.077,4.060,12.339,560.330,2.219,0.993
1782117272.131335,0.748000,1718228,1000,12,0,1,276.598,-5.169,12.267,558.793,0.682,0.988
1782117272.132335,0.749000,1718229,1000,12,0,1,270.497,-10.926,12.317,559.345,0.497,0.986
1782117272.133335,0.750000,1718230,1000,12,0,1,267.110,-12.695,12.429,559.538,0.933,0.983
1782117272.134335,0.751000,1718231,1000,12,0,1,269.440,-9.312,12.497,559.273,0.323,0.983
1782117272.135335,0.752000,1718232,1000,12,0,1,268.095,-7.559,12.535,558.553,-0.310,0.983
1782117272.136335,0.753000,1718233,1000,12,0,1,264.636,-9.746,12.603,557.856,-0.968,0.993
1782117272.137335,0.754000,1718234,1000,12,0,1,259.327,-11.957,12.716,558.120,-0.757,0.986
1782117272.138335,0.755000,1718235,1000,12,0,1,261.081,-9.657,12.789,558.673,0.033,0.957
1782117272.139335,0.756000,1718236,1000,12,0,1,259.183,-7.499,12.833,558.529,-0.081,0.957
1782117272.140335,0.757000,1718237,1000,12,0,1,256.229,-9.718,12.905,557.496,-0.788,0.934
1782117272.141335,0.758000,1718238,1000,12,0,1,261.921,-3.487,12.915,557.784,-0.734,0.939
1782117272.142335,0.759000,1718239,1000,12,0,1,278.472,11.194,13.011,557.111,-0.682,0.930
1782117272.143335,0.760000,1718240,1000,12,0,1,286.422,18.669,13.276,557.856,-0.440,0.922
1782117272.144335,0.761000,1718241,1000,12,0,1,283.708,12.745,13.398,558.937,1.062,0.934
1782117272.145335,0.762000,1718242,1000,12,0,1,278.063,4.819,13.415,558.120,0.252,0.912
1782117272.146335,0.763000,1718243,1000,12,0,1,274.172,-0.609,13.414,559.273,0.800,0.910
1782117272.147335,0.764000,1718244,1000,12,0,1,273.403,-2.273,13.414,560.498,2.137,0.959
1782117272.148335,0.765000,1718245,1000,12,0,1,270.449,-4.167,13.419,560.594,1.707,0.980
1782117272.149335,0.766000,1718246,1000,12,0,1,271.217,-4.287,13.422,556.583,-1.519,0.998
1782117272.150335,0.767000,1718247,1000,12,0,1,275.805,1.096,13.422,556.799,-2.510,1.050
1782117272.151335,0.768000,1718248,1000,12,0,1,277.847,3.236,13.377,559.898,1.211,1.063
1782117272.152335,0.769000,1718249,1000,12,0,1,275.661,1.636,13.092,558.096,-0.098,1.056
1782117272.153335,0.770000,1718250,1000,12,0,1,275.661,0.993,12.784,559.225,-0.133,1.056
1782117272.154335,0.771000,1718251,1000,12,0,1,272.466,-0.422,12.783,559.586,1.173,1.058
1782117272.155335,0.772000,1718252,1000,12,0,1,269.776,-3.224,12.481,558.625,-0.431,1.058
1782117272.156335,0.773000,1718253,1000,12,0,1,272.827,0.179,12.217,559.417,0.385,1.026
1782117272.157335,0.774000,1718254,1000,12,0,1,275.998,3.793,11.841,559.105,0.253,1.020
1782117272.158335,0.775000,1718255,1000,12,0,1,277.030,4.256,11.287,557.664,-1.100,1.023
1782117272.159335,0.776000,1718256,1000,12,0,1,275.445,2.468,11.234,556.055,-2.298,1.040
1782117272.160335,0.777000,1718257,1000,12,0,1,275.973,1.401,10.129,558.216,-0.613,1.041
1782117272.161335,0.778000,1718258,1000,12,0,1,273.379,-0.559,9.890,559.273,1.302,1.054
1782117272.162335,0.779000,1718259,1000,12,0,1,266.197,-7.721,9.948,560.691,1.767,1.074
1782117272.163335,0.780000,1718260,1000,12,0,1,259.471,-13.281,10.094,559.177,1.076,1.080
1782117272.164335,0.781000,1718261,1000,12,0,1,262.930,-10.094,10.158,558.336,-0.720,1.064
1782117272.165335,0.782000,1718262,1000,12,0,1,274.100,1.324,10.131,559.201,0.414,1.062
1782117272.166335,0.783000,1718263,1000,12,0,1,281.138,8.072,10.187,558.481,-0.167,1.057
1782117272.167335,0.784000,1718264,1000,12,0,1,276.334,3.317,10.198,557.184,-1.476,1.077
1782117272.168335,0.785000,1718265,1000,12,0,1,274.700,-0.649,10.196,558.505,-0.385,1.077
1782117272.169335,0.786000,1718266,1000,12,0,1,277.535,2.292,10.074,557.280,-0.783,1.082
1782117272.170335,0.787000,1718267,1000,12,0,1,278.231,2.793,9.670,559.489,0.247,1.049
1782117272.171335,0.788000,1718268,1000,12,0,1,276.838,1.359,9.204,560.811,2.328,1.100
1782117272.172335,0.789000,1718269,1000,12,0,1,271.578,-2.651,8.909,559.153,0.269,1.097
1782117272.173335,0.790000,1718270,1000,12,0,1,268.023,-5.804,8.946,556.607,-2.003,1.117
1782117272.174335,0.791000,1718271,1000,12,0,1,262.762,-7.915,8.599,558.361,-0.879,1.123
1782117272.175335,0.792000,1718272,1000,12,0,1,260.000,-9.467,8.152,559.297,0.840,1.129
1782117272.176335,0.793000,1718273,1000,12,0,1,258.727,-7.482,7.900,560.835,1.549,1.146
1782117272.177335,0.794000,1718274,1000,12,0,1,258.919,-5.778,7.561,558.817,0.433,1.141
1782117272.178335,0.795000,1718275,1000,12,0,1,265.789,1.505,7.201,559.129,-0.442,1.142
1782117272.179335,0.796000,1718276,1000,12,0,1,283.684,16.810,7.386,557.544,-0.722,1.114
1782117272.180335,0.797000,1718277,1000,12,0,1,301.772,31.437,8.602,556.871,-2.046,1.108
1782117272.181335,0.798000,1718278,1000,12,0,1,296.511,24.294,9.233,559.201,0.473,1.105
1782117272.182335,0.799000,1718279,1000,12,0,1,291.034,11.263,9.241,558.745,0.669,1.107
1782117272.183335,0.800000,1718280,1000,12,0,1,284.741,4.522,9.088,558.673,-0.150,1.100
1782117272.184335,0.801000,1718281,1000,12,0,1,282.555,-1.952,8.996,558.264,0.153,1.099
1782117272.185335,0.802000,1718282,1000,12,0,1,274.700,-7.425,8.994,559.706,0.598,1.101
1782117272.186335,0.803000,1718283,1000,12,0,1,264.660,-17.734,9.235,558.457,0.474,1.095
1782117272.187335,0.804000,1718284,1000,12,0,1,254.835,-23.493,9.668,557.976,-1.057,1.100
1782117272.188335,0.805000,1718285,1000,12,0,1,238.621,-33.491,10.678,559.393,0.731,1.105
1782117272.189335,0.806000,1718286,1000,12,0,1,230.959,-36.555,11.817,559.417,0.655,1.108
1782117272.190335,0.807000,1718287,1000,12,0,1,264.251,-4.176,11.751,557.111,-1.313,1.118
1782117272.191335,0.808000,1718288,1000,12,0,1,280.153,19.648,12.065,560.186,0.534,1.116
1782117272.192335,0.809000,1718289,1000,12,0,1,283.900,17.639,12.218,559.634,1.386,1.129
1782117272.193335,0.810000,1718290,1000,12,0,1,289.641,22.239,12.337,556.943,-2.004,1.162
1782117272.194335,0.811000,1718291,1000,12,0,1,291.707,20.581,12.547,558.240,-0.816,1.158
1782117272.195335,0.812000,1718292,1000,12,0,1,294.541,19.264,12.821,556.631,-1.224,1.171
1782117272.196335,0.813000,1718293,1000,12,0,1,294.830,17.048,13.046,558.985,-0.299,1.166
1782117272.197335,0.814000,1718294,1000,12,0,1,292.235,10.623,13.128,560.402,2.436,1.178
1782117272.198335,0.815000,1718295,1000,12,0,1,290.146,6.611,13.148,560.234,1.190,1.165
1782117272.199335,0.816000,1718296,1000,12,0,1,290.530,3.992,13.146,559.345,0.801,1.150
1782117272.200335,0.817000,1718297,1000,12,0,1,294.013,5.702,13.170,559.778,0.430,1.096
1782117272.201335,0.818000,1718298,1000,12,0,1,292.668,3.094,13.169,558.457,-0.124,1.083
1782117272.202335,0.819000,1718299,1000,12,0,1,286.903,-3.544,13.177,559.225,-0.256,1.083
1782117272.203335,0.820000,1718300,1000,12,0,1,277.703,-12.036,13.286,560.618,1.498,1.104
1782117272.204335,0.821000,1718301,1000,12,0,1,273.139,-16.137,13.480,559.922,0.710,1.096
1782117272.205335,0.822000,1718302,1000,12,0,1,276.142,-11.847,13.576,558.529,-0.806,1.100
1782117272.206335,0.823000,1718303,1000,12,0,1,277.102,-8.575,13.630,557.904,-1.300,1.114
1782117272.207335,0.824000,1718304,1000,12,0,1,281.570,-4.721,13.636,559.057,-0.429,1.115
1782117272.208335,0.825000,1718305,1000,12,0,1,283.396,-1.101,13.624,559.634,0.557,1.107
1782117272.209335,0.826000,1718306,1000,12,0,1,277.559,-6.242,13.648,559.225,-0.132,1.058
1782117272.210335,0.827000,1718307,1000,12,0,1,274.508,-9.035,13.706,558.505,-0.630,1.058
1782117272.211335,0.828000,1718308,1000,12,0,1,270.112,-10.680,13.789,560.739,0.786,1.048
1782117272.212335,0.829000,1718309,1000,12,0,1,270.665,-9.954,13.817,560.330,1.212,1.032
1782117272.213335,0.830000,1718310,1000,12,0,1,276.574,-2.447,13.693,560.715,0.412,1.023
1782117272.214335,0.831000,1718311,1000,12,0,1,278.400,0.435,13.619,559.177,-0.171,1.018
1782117272.215335,0.832000,1718312,1000,12,0,1,283.228,3.864,13.629,560.306,-0.314,1.017
1782117272.216335,0.833000,1718313,1000,12,0,1,282.891,4.802,13.598,560.330,0.701,1.022
1782117272.217335,0.834000,1718314,1000,12,0,1,277.919,-0.984,13.590,559.586,-0.642,1.004
1782117272.218335,0.835000,1718315,1000,12,0,1,271.530,-5.942,13.616,556.559,-2.632,1.070
1782117272.219335,0.836000,1718316,1000,12,0,1,263.939,-11.737,13.713,557.544,-2.396,1.117
1782117272.220335,0.837000,1718317,1000,12,0,1,270.785,-5.613,13.730,558.961,0.044,1.116
1782117272.221335,0.838000,1718318,1000,12,0,1,282.627,7.826,13.773,559.682,0.486,1.069
1782117272.222335,0.839000,1718319,1000,12,0,1,281.066,7.131,13.805,559.802,0.744,1.073
1782117272.223335,0.840000,1718320,1000,12,0,1,274.796,0.128,13.781,559.081,0.097,1.035
1782117272.224335,0.841000,1718321,1000,12,0,1,274.796,-0.337,13.735,559.081,-0.218,1.028
1782117272.225335,0.842000,1718322,1000,12,0,1,277.102,2.411,13.674,561.027,1.545,1.044
1782117272.226335,0.843000,1718323,1000,12,0,1,289.089,11.333,13.727,559.009,0.125,1.021
1782117272.227335,0.844000,1718324,1000,12,0,1,295.406,17.752,13.931,559.105,-0.738,1.025
1782117272.228335,0.845000,1718325,1000,12,0,1,283.828,5.476,13.951,558.961,-0.107,1.023
1782117272.229335,0.846000,1718326,1000,12,0,1,273.211,-6.762,13.780,559.514,-0.184,1.018
1782117272.230335,0.847000,1718327,1000,12,0,1,265.092,-12.404,13.160,559.321,0.130,0.976
1782117272.231335,0.848000,1718328,1000,12,0,1,258.895,-16.711,12.922,559.610,-0.036,0.974
1782117272.232335,0.849000,1718329,1000,12,0,1,257.165,-15.238,13.003,557.856,-1.070,0.981
1782117272.233335,0.850000,1718330,1000,12,0,1,263.363,-7.719,13.033,558.601,-1.024,0.992
1782117272.234335,0.851000,1718331,1000,12,0,1,270.185,1.262,13.032,559.393,0.435,0.993
1782117272.235335,0.852000,1718332,1000,12,0,1,278.424,8.260,13.042,559.153,0.040,0.990
1782117272.236335,0.853000,1718333,1000,12,0,1,285.918,14.716,12.966,559.369,0.192,0.988
1782117272.237335,0.854000,1718334,1000,12,0,1,288.200,14.884,12.709,558.072,-0.577,0.980
1782117272.238335,0.855000,1718335,1000,12,0,1,288.993,12.704,11.929,558.673,-0.592,0.978
1782117272.239335,0.856000,1718336,1000,12,0,1,288.104,9.934,10.842,560.378,1.501,0.996
1782117272.240335,0.857000,1718337,1000,12,0,1,283.900,4.153,10.842,559.201,0.444,0.981
1782117272.241335,0.858000,1718338,1000,12,0,1,280.946,0.012,10.480,559.153,-0.040,0.978
1782117272.242335,0.859000,1718339,1000,12,0,1,285.390,2.629,10.186,558.361,-0.295,0.959
1782117272.243335,0.860000,1718340,1000,12,0,1,290.794,7.509,9.746,555.622,-2.678,0.991
1782117272.244335,0.861000,1718341,1000,12,0,1,285.294,2.358,9.307,558.841,-0.363,0.986
1782117272.245335,0.862000,1718342,1000,12,0,1,274.748,-8.181,8.975,558.721,1.132,0.984
1782117272.246335,0.863000,1718343,1000,12,0,1,269.392,-12.557,8.825,557.640,-0.957,0.992
1782117272.247335,0.864000,1718344,1000,12,0,1,271.794,-8.926,8.787,558.697,0.464,0.933
1782117272.248335,0.865000,1718345,1000,12,0,1,275.517,-3.440,8.751,560.282,1.636,0.946
1782117272.249335,0.866000,1718346,1000,12,0,1,283.708,3.719,8.749,558.961,0.758,0.945
1782117272.250335,0.867000,1718347,1000,12,0,1,295.334,13.872,8.930,557.111,-1.380,0.963
1782117272.251335,0.868000,1718348,1000,12,0,1,293.989,12.280,9.086,558.769,-0.105,0.963
1782117272.252335,0.869000,1718349,1000,12,0,1,292.187,6.269,9.116,558.481,0.450,0.965
1782117272.253335,0.870000,1718350,1000,12,0,1,297.784,9.492,9.056,557.952,-0.687,0.946
1782117272.254335,0.871000,1718351,1000,12,0,1,301.796,11.017,8.901,557.688,-0.363,0.942
1782117272.255335,0.872000,1718352,1000,12,0,1,296.463,4.465,8.764,556.943,-1.138,0.949
1782117272.256335,0.873000,1718353,1000,12,0,1,291.803,-2.800,8.689,557.304,-0.603,0.935
1782117272.257335,0.874000,1718354,1000,12,0,1,288.632,-5.813,8.702,558.625,0.697,0.938
1782117272.258335,0.875000,1718355,1000,12,0,1,284.693,-9.478,8.804,558.024,0.520,0.938
1782117272.259335,0.876000,1718356,1000,12,0,1,283.732,-9.976,8.872,557.592,-0.206,0.938
1782117272.260335,0.877000,1718357,1000,12,0,1,286.350,-6.554,8.828,557.232,-0.217,0.934
1782117272.261335,0.878000,1718358,1000,12,0,1,286.254,-5.274,8.730,558.793,0.849,0.936
1782117272.262335,0.879000,1718359,1000,12,0,1,288.392,-3.442,8.630,558.336,1.039,0.931
1782117272.263335,0.880000,1718360,1000,12,0,1,286.398,-3.481,8.637,559.586,1.237,0.946
1782117272.264335,0.881000,1718361,1000,12,0,1,286.543,-4.143,8.656,557.520,0.307,0.947
1782117272.265335,0.882000,1718362,1000,12,0,1,289.233,-0.547,8.639,557.304,-1.088,0.958
1782117272.266335,0.883000,1718363,1000,12,0,1,290.218,0.492,8.613,558.072,0.410,0.955
1782117272.267335,0.884000,1718364,1000,12,0,1,285.390,-3.199,8.624,559.105,0.887,0.958
1782117272.268335,0.885000,1718365,1000,12,0,1,283.660,-5.469,8.617,559.946,1.711,0.916
1782117272.269335,0.886000,1718366,1000,12,0,1,281.234,-5.909,8.497,560.498,1.858,0.890
1782117272.270335,0.887000,1718367,1000,12,0,1,277.583,-8.618,8.547,560.138,1.239,0.907
1782117272.271335,0.888000,1718368,1000,12,0,1,276.190,-8.645,8.563,560.546,1.177,0.920
1782117272.272335,0.889000,1718369,1000,12,0,1,272.154,-9.945,8.619,559.730,0.415,0.916
1782117272.273335,0.890000,1718370,1000,12,0,1,277.030,-5.886,8.659,559.826,0.027,0.916
1782117272.274335,0.891000,1718371,1000,12,0,1,280.441,0.549,8.659,559.393,-0.155,0.916
1782117272.275335,0.892000,1718372,1000,12,0,1,281.714,0.725,8.653,560.498,0.366,0.891
1782117272.276335,0.893000,1718373,1000,12,0,1,282.435,2.356,8.510,559.009,-0.348,0.892
1782117272.277335,0.894000,1718374,1000,12,0,1,283.996,2.919,8.142,557.952,-1.908,0.926
1782117272.278335,0.895000,1718375,1000,12,0,1,280.706,0.950,8.106,558.961,-0.663,0.930
1782117272.279335,0.896000,1718376,1000,12,0,1,281.186,-0.016,8.049,560.378,0.711,0.936
1782117272.280335,0.897000,1718377,1000,12,0,1,285.702,4.788,7.885,560.474,0.833,0.943
1782117272.281335,0.898000,1718378,1000,12,0,1,283.060,3.182,7.536,558.240,-1.076,0.955
1782117272.282335,0.899000,1718379,1000,12,0,1,278.712,-1.660,7.225,561.219,0.528,0.946
1782117272.283335,0.900000,1718380,1000,12,0,1,277.151,-2.131,7.149,560.090,1.052,0.946
1782117272.284335,0.901000,1718381,1000,12,0,1,273.211,-4.465,7.174,557.736,-2.438,1.005
1782117272.285335,0.902000,1718382,1000,12,0,1,273.211,-3.927,7.100,557.736,-1.778,1.036
1782117272.286335,0.903000,1718383,1000,12,0,1,270.929,-3.510,6.807,560.210,0.133,1.036
1782117272.287335,0.904000,1718384,1000,12,0,1,269.944,-4.072,6.499,560.282,0.924,1.041
1782117272.288335,0.905000,1718385,1000,12,0,1,278.784,4.326,6.275,558.745,-0.945,1.046
1782117272.289335,0.906000,1718386,1000,12,0,1,281.811,8.897,6.244,559.153,-0.735,1.030
1782117272.290335,0.907000,1718387,1000,12,0,1,269.848,-1.995,6.223,558.409,-0.829,1.035
1782117272.291335,0.908000,1718388,1000,12,0,1,255.051,-15.244,6.585,559.754,-0.297,1.035
1782117272.292335,0.909000,1718389,1000,12,0,1,245.755,-21.333,7.234,561.075,1.610,1.059
1782117272.293335,0.910000,1718390,1000,12,0,1,247.341,-16.940,7.546,559.802,0.129,0.989
1782117272.294335,0.911000,1718391,1000,12,0,1,242.297,-15.421,7.848,559.177,-0.590,0.992
1782117272.295335,0.912000,1718392,1000,12,0,1,251.568,-7.543,7.835,559.177,-0.479,0.981
1782117272.296335,0.913000,1718393,1000,12,0,1,275.949,17.552,8.025,559.057,-0.467,0.974
1782117272.297335,0.914000,1718394,1000,12,0,1,299.562,36.967,9.494,559.514,-0.035,0.972
1782117272.298335,0.915000,1718395,1000,12,0,1,307.248,40.643,11.088,559.465,0.133,0.944
1782117272.299335,0.916000,1718396,1000,12,0,1,294.950,24.044,11.585,557.304,-1.551,0.963
1782117272.300335,0.917000,1718397,1000,12,0,1,274.580,0.903,11.419,559.393,-0.317,0.944
1782117272.301335,0.918000,1718398,1000,12,0,1,270.545,-5.933,11.317,558.024,-0.073,0.944
1782117272.302335,0.919000,1718399,1000,12,0,1,284.020,6.295,11.317,557.616,-1.591,0.968
1782117272.303335,0.920000,1718400,1000,12,0,1,287.984,11.728,11.359,556.511,-1.302,0.981
1782117272.304335,0.921000,1718401,1000,12,0,1,281.354,3.529,11.263,558.841,-0.169,0.980
1782117272.305335,0.922000,1718402,1000,12,0,1,278.664,0.099,11.245,560.811,2.625,1.035
1782117272.306335,0.923000,1718403,1000,12,0,1,286.687,6.062,11.271,561.411,2.385,1.086
1782117272.307335,0.924000,1718404,1000,12,0,1,296.463,14.840,11.435,559.874,1.038,1.091
1782117272.308335,0.925000,1718405,1000,12,0,1,298.769,14.932,11.551,559.514,-0.017,1.089
1782117272.309335,0.926000,1718406,1000,12,0,1,286.398,2.544,11.470,559.441,0.075,1.088
1782117272.310335,0.927000,1718407,1000,12,0,1,276.142,-9.882,11.518,559.514,0.000,1.088
1782117272.311335,0.928000,1718408,1000,12,0,1,280.033,-6.637,11.532,561.339,1.289,1.096
1782117272.312335,0.929000,1718409,1000,12,0,1,288.080,1.278,11.523,559.754,0.546,1.089
1782117272.313335,0.930000,1718410,1000,12,0,1,288.008,1.118,11.513,559.129,-1.090,1.086
1782117272.314335,0.931000,1718411,1000,12,0,1,283.180,-4.680,11.518,557.736,-1.291,1.101
1782117272.315335,0.932000,1718412,1000,12,0,1,282.675,-6.459,11.553,556.823,-2.585,1.149
1782117272.316335,0.933000,1718413,1000,12,0,1,291.947,0.810,11.554,557.616,-1.135,1.159
1782117272.317335,0.934000,1718414,1000,12,0,1,293.388,2.950,11.553,557.496,-0.865,1.159
1782117272.318335,0.935000,1718415,1000,12,0,1,286.230,-5.390,11.552,558.144,-0.270,1.134
1782117272.319335,0.936000,1718416,1000,12,0,1,291.371,-3.128,11.530,558.144,0.235,1.104
1782117272.320335,0.937000,1718417,1000,12,0,1,293.124,0.587,11.466,559.153,0.717,1.094
1782117272.321335,0.938000,1718418,1000,12,0,1,291.467,-2.976,11.408,559.826,1.694,1.108
1782117272.322335,0.939000,1718419,1000,12,0,1,286.951,-5.670,11.349,559.538,1.000,1.115
1782117272.323335,0.940000,1718420,1000,12,0,1,282.099,-10.227,11.411,558.481,0.075,1.115
1782117272.324335,0.941000,1718421,1000,12,0,1,281.835,-8.912,11.480,559.634,0.519,1.117
1782117272.325335,0.942000,1718422,1000,12,0,1,276.262,-10.826,11.581,558.409,0.095,1.116
1782117272.326335,0.943000,1718423,1000,12,0,1,280.513,-7.447,11.624,556.991,-1.825,1.145
1782117272.327335,0.944000,1718424,1000,12,0,1,291.227,5.265,11.641,557.184,-1.278,1.127
1782117272.328335,0.945000,1718425,1000,12,0,1,294.638,8.518,11.702,557.496,-0.784,1.129
1782117272.329335,0.946000,1718426,1000,12,0,1,292.428,5.741,11.730,560.546,1.622,1.147
1782117272.330335,0.947000,1718427,1000,12,0,1,289.521,1.890,11.714,559.345,1.494,1.161
1782117272.331335,0.948000,1718428,1000,12,0,1,291.587,2.418,11.710,558.096,-0.830,1.156
1782117272.332335,0.949000,1718429,1000,12,0,1,288.801,0.604,11.708,559.057,0.519,1.156
1782117272.333335,0.950000,1718430,1000,12,0,1,287.600,-2.643,11.710,560.498,1.532,1.167
1782117272.334335,0.951000,1718431,1000,12,0,1,292.428,1.566,11.695,558.817,0.488,1.117
1782117272.335335,0.952000,1718432,1000,12,0,1,295.694,3.898,11.695,559.441,0.097,1.089
1782117272.336335,0.953000,1718433,1000,12,0,1,294.614,1.869,11.687,558.336,0.064,1.088
1782117272.337335,0.954000,1718434,1000,12,0,1,293.917,-0.287,11.673,558.192,-0.856,1.087
1782117272.338335,0.955000,1718435,1000,12,0,1,294.734,-0.279,11.657,559.345,0.683,1.083
1782117272.339335,0.956000,1718436,1000,12,0,1,290.194,-3.944,11.603,557.232,-0.861,1.085
1782117272.340335,0.957000,1718437,1000,12,0,1,283.012,-10.585,11.695,556.823,-1.818,1.109
1782117272.341335,0.958000,1718438,1000,12,0,1,279.553,-12.427,11.629,558.433,0.266,1.109
1782117272.342335,0.959000,1718439,1000,12,0,1,287.479,-4.582,11.249,558.457,0.317,1.086
1782117272.343335,0.960000,1718440,1000,12,0,1,290.722,1.765,10.994,559.682,1.111,1.097
1782117272.344335,0.961000,1718441,1000,12,0,1,297.112,5.589,10.804,560.258,1.708,1.121
1782117272.345335,0.962000,1718442,1000,12,0,1,297.712,8.222,10.814,560.258,1.224,1.132
1782117272.346335,0.963000,1718443,1000,12,0,1,297.928,5.593,10.555,560.354,1.047,1.140
1782117272.347335,0.964000,1718444,1000,12,0,1,295.310,4.100,9.188,557.448,-1.361,1.156
1782117272.348335,0.965000,1718445,1000,12,0,1,289.689,-2.098,7.174,558.264,-1.565,1.177
1782117272.349335,0.966000,1718446,1000,12,0,1,289.041,-3.071,6.332,558.409,-0.251,1.157
1782117272.350335,0.967000,1718447,1000,12,0,1,296.079,3.232,6.347,558.096,-1.125,1.167
1782117272.351335,0.968000,1718448,1000,12,0,1,293.268,2.015,6.298,558.745,-0.101,1.167
1782117272.352335,0.969000,1718449,1000,12,0,1,276.790,-12.700,6.488,559.057,0.185,1.145
1782117272.353335,0.970000,1718450,1000,12,0,1,260.432,-26.658,7.318,560.907,1.570,1.152
1782117272.354335,0.971000,1718451,1000,12,0,1,253.442,-29.289,8.394,559.610,1.003,1.160
1782117272.355335,0.972000,1718452,1000,12,0,1,246.356,-29.699,9.387,556.487,-2.345,1.148
1782117272.356335,0.973000,1718453,1000,12,0,1,263.579,-12.973,9.526,557.736,-1.275,1.112
1782117272.357335,0.974000,1718454,1000,12,0,1,295.767,20.349,9.727,557.015,-0.863,1.109
1782117272.358335,0.975000,1718455,1000,12,0,1,301.123,26.719,10.219,557.664,-0.878,1.116
1782117272.359335,0.976000,1718456,1000,12,0,1,296.968,16.697,10.482,558.072,0.371,1.117
1782117272.360335,0.977000,1718457,1000,12,0,1,300.379,17.012,10.664,557.063,-0.743,1.122
1782117272.361335,0.978000,1718458,1000,12,0,1,302.060,15.865,10.857,558.601,0.448,1.109
1782117272.362335,0.979000,1718459,1000,12,0,1,301.652,12.735,11.004,559.514,1.681,1.132
1782117272.363335,0.980000,1718460,1000,12,0,1,299.370,8.649,11.070,559.730,1.310,1.136
1782117272.364335,0.981000,1718461,1000,12,0,1,297.280,4.965,11.073,560.883,2.116,1.161
1782117272.365335,0.982000,1718462,1000,12,0,1,299.634,5.756,11.065,559.706,0.985,1.110
1782117272.366335,0.983000,1718463,1000,12,0,1,297.208,4.039,11.079,558.457,-0.714,1.103
1782117272.367335,0.984000,1718464,1000,12,0,1,294.541,0.153,11.071,558.385,-0.745,1.102
1782117272.368335,0.985000,1718465,1000,12,0,1,292.932,-0.655,11.045,558.841,-0.331,1.102
1782117272.369335,0.986000,1718466,1000,12,0,1,291.875,-1.728,11.039,558.601,-0.358,1.103
1782117272.370335,0.987000,1718467,1000,12,0,1,290.026,-2.678,11.045,560.066,0.606,1.101
1782117272.371335,0.988000,1718468,1000,12,0,1,290.674,-2.351,11.042,559.201,0.444,1.077
1782117272.372335,0.989000,1718469,1000,12,0,1,288.560,-3.188,11.022,558.889,-0.534,1.070
1782117272.373335,0.990000,1718470,1000,12,0,1,286.951,-5.275,10.953,558.264,-0.488,1.072
1782117272.374335,0.991000,1718471,1000,12,0,1,291.755,-1.302,10.881,560.955,1.174,1.083
1782117272.375335,0.992000,1718472,1000,12,0,1,301.892,7.014,10.819,560.835,2.046,1.121
1782117272.376335,0.993000,1718473,1000,12,0,1,301.387,6.405,10.805,559.321,-0.230,1.091
1782117272.377335,0.994000,1718474,1000,12,0,1,293.244,-3.570,10.792,558.072,-1.067,1.086
1782117272.378335,0.995000,1718475,1000,12,0,1,288.344,-9.222,10.803,557.352,-1.743,1.108
1782117272.379335,0.996000,1718476,1000,12,0,1,278.808,-15.997,11.008,558.336,-0.781,1.090
1782117272.380335,0.997000,1718477,1000,12,0,1,271.650,-21.972,11.435,558.264,-0.258,1.070
1782117272.381335,0.998000,1718478,1000,12,0,1,271.097,-18.898,11.738,560.667,1.111,1.075
1782117272.382335,0.999000,1718479,1000,12,0,1,269.608,-16.451,11.966,560.090,1.557,1.095
1782117272.383335,1.000000,1718480,1000,12,0,1,272.827,-11.005,12.061,559.634,-0.159,1.074
1782117272.384335,1.001000,1718481,1000,12,0,1,289.593,5.644,12.085,557.592,-1.127,1.083
1782117272.385335,1.002000,1718482,1000,12,0,1,305.447,21.699,12.456,558.553,-1.355,1.100
1782117272.386335,1.003000,1718483,1000,12,0,1,301.291,17.738,12.704,559.874,0.796,1.106
1782117272.387335,1.004000,1718484,1000,12,0,1,295.743,8.608,12.762,558.264,-0.823,1.105
1782117272.388335,1.005000,1718485,1000,12,0,1,292.932,6.103,12.791,558.817,-0.755,1.106
1782117272.389335,1.006000,1718486,1000,12,0,1,290.146,2.530,12.784,558.577,-0.213,1.100
1782117272.390335,1.007000,1718487,1000,12,0,1,287.335,0.397,12.696,559.177,-0.311,1.070
1782117272.391335,1.008000,1718488,1000,12,0,1,283.444,-2.793,12.580,557.135,-1.054,1.080
1782117272.392335,1.009000,1718489,1000,12,0,1,285.774,-1.099,12.564,558.889,-0.676,1.083
1782117272.393335,1.010000,1718490,1000,12,0,1,284.357,-0.346,12.562,558.240,0.456,1.074
1782117272.394335,1.011000,1718491,1000,12,0,1,285.942,-0.675,12.537,558.361,-0.639,1.050
1782117272.395335,1.012000,1718492,1000,12,0,1,288.200,2.580,12.489,559.345,1.129,1.048
1782117272.396335,1.013000,1718493,1000,12,0,1,284.525,-1.317,12.465,561.219,2.188,1.082
1782117272.397335,1.014000,1718494,1000,12,0,1,282.099,-4.246,12.466,559.706,1.374,1.083
1782117272.398335,1.015000,1718495,1000,12,0,1,281.426,-4.394,12.478,559.201,-0.064,1.060
1782117272.399335,1.016000,1718496,1000,12,0,1,280.706,-4.835,12.489,558.336,-0.327,1.060
1782117272.400335,1.017000,1718497,1000,12,0,1,283.132,-2.467,12.486,557.712,-1.165,1.061
1782117272.401335,1.018000,1718498,1000,12,0,1,291.347,4.531,12.499,558.985,-0.032,1.061
1782117272.402335,1.019000,1718499,1000,12,0,1,297.616,10.335,12.455,561.027,1.940,1.096
1782117272.403335,1.020000,1718500,1000,12,0,1,292.308,4.997,11.892,559.682,0.763,1.078
1782117272.404335,1.021000,1718501,1000,12,0,1,284.020,-3.934,11.161,557.880,-1.290,1.084
1782117272.405335,1.022000,1718502,1000,12,0,1,282.315,-5.380,10.369,559.273,-0.350,1.034
1782117272.406335,1.023000,1718503,1000,12,0,1,284.741,-1.863,10.208,557.015,-1.316,1.035
1782117272.407335,1.024000,1718504,1000,12,0,1,286.615,0.972,9.795,557.135,-2.298,1.078
1782117272.408335,1.025000,1718505,1000,12,0,1,283.564,-0.518,9.037,558.240,-0.097,1.071
1782117272.409335,1.026000,1718506,1000,12,0,1,280.513,-3.079,8.734,558.745,-0.036,1.069
1782117272.410335,1.027000,1718507,1000,12,0,1,278.784,-3.207,8.409,561.195,2.148,1.107
1782117272.411335,1.028000,1718508,1000,12,0,1,284.621,1.855,8.108,561.387,2.511,1.160
1782117272.412335,1.029000,1718509,1000,12,0,1,296.247,12.685,8.107,560.811,1.213,1.149
1782117272.413335,1.030000,1718510,1000,12,0,1,302.757,17.553,8.389,560.186,0.698,1.138
1782117272.414335,1.031000,1718511,1000,12,0,1,299.009,11.904,8.528,559.826,-0.041,1.098
1782117272.415335,1.032000,1718512,1000,12,0,1,293.941,4.066,8.508,559.105,-0.430,1.091
1782117272.416335,1.033000,1718513,1000,12,0,1,289.905,-0.928,8.490,558.096,-1.416,1.104
1782117272.417335,1.034000,1718514,1000,12,0,1,276.982,-11.879,8.655,559.538,-0.191,1.100
1782117272.418335,1.035000,1718515,1000,12,0,1,277.583,-13.694,8.868,560.186,0.884,1.106
1782117272.419335,1.036000,1718516,1000,12,0,1,294.758,3.555,8.879,559.225,-0.187,1.105
1782117272.420335,1.037000,1718517,1000,12,0,1,298.000,8.180,8.946,558.865,-0.587,1.105
1782117272.421335,1.038000,1718518,1000,12,0,1,287.864,-2.858,8.949,560.138,0.434,1.105
1782117272.422335,1.039000,1718519,1000,12,0,1,281.859,-9.176,9.031,560.234,0.778,1.108
1782117272.423335,1.040000,1718520,1000,12,0,1,281.234,-8.604,9.082,561.003,0.877,1.112
1782117272.424335,1.041000,1718521,1000,12,0,1,288.176,-1.832,9.084,559.874,0.229,1.100
1782117272.425335,1.042000,1718522,1000,12,0,1,297.808,7.889,9.099,559.922,-0.533,1.064
1782117272.426335,1.043000,1718523,1000,12,0,1,298.361,8.701,9.137,558.336,-1.228,1.078
1782117272.427335,1.044000,1718524,1000,12,0,1,292.932,2.427,9.129,558.096,-2.078,1.107
1782117272.428335,1.045000,1718525,1000,12,0,1,287.960,-2.364,9.042,559.922,0.037,1.079
1782117272.429335,1.046000,1718526,1000,12,0,1,283.036,-6.128,8.797,559.225,-0.202,1.074
1782117272.430335,1.047000,1718527,1000,12,0,1,282.147,-6.320,8.278,559.826,-0.275,1.074
1782117272.431335,1.048000,1718528,1000,12,0,1,286.903,-0.978,7.836,559.898,0.456,1.064
1782117272.432335,1.049000,1718529,1000,12,0,1,290.506,3.306,7.497,559.465,-0.407,1.043
1782117272.433335,1.050000,1718530,1000,12,0,1,286.807,0.348,7.334,558.865,-0.543,1.046
1782117272.434335,1.051000,1718531,1000,12,0,1,283.804,-3.324,7.306,559.922,0.028,1.033
1782117272.435335,1.052000,1718532,1000,12,0,1,293.557,4.271,6.658,557.904,-0.838,1.022
1782117272.436335,1.053000,1718533,1000,12,0,1,299.370,10.556,6.345,559.465,-0.531,1.019
1782117272.437335,1.054000,1718534,1000,12,0,1,295.863,5.115,6.269,558.505,0.157,1.013
1782117272.438335,1.055000,1718535,1000,12,0,1,289.113,-2.221,6.217,559.706,-0.086,1.007
1782117272.439335,1.056000,1718536,1000,12,0,1,285.942,-6.277,6.270,560.763,1.895,1.042
1782117272.440335,1.057000,1718537,1000,12,0,1,288.080,-4.125,6.297,560.066,0.680,1.045
1782117272.441335,1.058000,1718538,1000,12,0,1,295.646,2.459,6.294,560.618,0.892,1.042
1782117272.442335,1.059000,1718539,1000,12,0,1,297.952,5.222,6.335,558.697,-0.348,1.039
1782117272.443335,1.060000,1718540,1000,12,0,1,293.148,-0.010,6.335,557.784,-1.963,1.073
1782117272.444335,1.061000,1718541,1000,12,0,1,293.989,-0.705,6.335,557.087,-1.647,1.095
1782117272.445335,1.062000,1718542,1000,12,0,1,296.727,2.679,6.336,558.288,-1.102,1.094
1782117272.446335,1.063000,1718543,1000,12,0,1,293.316,-0.251,6.334,558.240,-0.081,1.049
1782117272.447335,1.064000,1718544,1000,12,0,1,284.044,-7.827,6.401,561.243,1.512,1.053
1782117272.448335,1.065000,1718545,1000,12,0,1,275.421,-14.590,6.697,561.603,2.895,1.130
1782117272.449335,1.066000,1718546,1000,12,0,1,278.760,-10.201,6.816,561.555,1.463,1.148
1782117272.450335,1.067000,1718547,1000,12,0,1,284.068,-1.953,6.813,560.546,0.952,1.144
1782117272.451335,1.068000,1718548,1000,12,0,1,288.368,2.346,6.791,561.988,1.170,1.156
1782117272.452335,1.069000,1718549,1000,12,0,1,292.908,6.810,6.701,559.994,0.273,1.123
1782117272.453335,1.070000,1718550,1000,12,0,1,296.247,8.877,6.781,558.553,-2.009,1.154
1782117272.454335,1.071000,1718551,1000,12,0,1,290.458,3.519,6.777,558.745,-1.250,1.153
1782117272.455335,1.072000,1718552,1000,12,0,1,282.387,-5.481,6.778,560.667,0.382,1.153
1782117272.456335,1.073000,1718553,1000,12,0,1,283.060,-5.370,6.816,560.258,0.554,1.141
1782117272.457335,1.074000,1718554,1000,12,0,1,279.144,-6.541,6.877,560.018,-0.113,1.094
1782117272.458335,1.075000,1718555,1000,12,0,1,278.640,-8.118,6.971,559.994,0.039,1.093
1782117272.459335,1.076000,1718556,1000,12,0,1,287.840,1.312,6.960,561.940,1.434,1.112
1782117272.460335,1.077000,1718557,1000,12,0,1,291.275,5.487,6.989,562.276,1.957,1.105
1782117272.461335,1.078000,1718558,1000,12,0,1,287.239,1.108,6.986,560.138,-0.257,1.047
1782117272.462335,1.079000,1718559,1000,12,0,1,283.588,-2.630,6.762,559.441,-1.385,1.051
1782117272.463335,1.080000,1718560,1000,12,0,1,285.678,-0.881,6.291,562.276,1.112,1.058
1782117272.464335,1.081000,1718561,1000,12,0,1,285.414,0.511,6.062,561.027,0.573,1.061
1782117272.465335,1.082000,1718562,1000,12,0,1,281.979,-2.432,6.044,559.754,-1.454,1.079
1782117272.466335,1.083000,1718563,1000,12,0,1,279.961,-3.307,6.061,560.018,-0.908,1.068
1782117272.467335,1.084000,1718564,1000,12,0,1,287.119,3.024,5.839,559.393,-1.305,1.084
1782117272.468335,1.085000,1718565,1000,12,0,1,299.394,14.650,5.885,560.114,-0.871,1.084
1782117272.469335,1.086000,1718566,1000,12,0,1,296.847,12.943,6.143,557.832,-1.966,1.119
1782117272.470335,1.087000,1718567,1000,12,0,1,291.443,4.542,6.067,559.538,-1.496,1.135
1782117272.471335,1.088000,1718568,1000,12,0,1,289.017,2.282,6.062,560.715,1.020,1.143
1782117272.472335,1.089000,1718569,1000,12,0,1,285.558,-1.448,5.925,561.940,1.139,1.149
1782117272.473335,1.090000,1718570,1000,12,0,1,282.603,-3.999,5.826,560.306,0.543,1.145
1782117272.474335,1.091000,1718571,1000,12,0,1,284.693,-2.378,5.830,559.153,-1.405,1.161
1782117272.475335,1.092000,1718572,1000,12,0,1,282.988,-2.478,5.733,560.234,-0.033,1.159
1782117272.476335,1.093000,1718573,1000,12,0,1,284.261,-2.615,5.612,558.553,-0.980,1.154
1782117272.477335,1.094000,1718574,1000,12,0,1,284.813,-0.863,5.603,558.000,-1.959,1.150
1782117272.478335,1.095000,1718575,1000,12,0,1,275.781,-8.296,5.714,560.979,1.133,1.161
1782117272.479335,1.096000,1718576,1000,12,0,1,272.322,-12.186,5.905,562.108,2.378,1.209
1782117272.480335,1.097000,1718577,1000,12,0,1,279.697,-3.858,5.863,559.177,-0.185,1.208
1782117272.481335,1.098000,1718578,1000,12,0,1,278.592,-2.273,5.870,559.754,-0.654,1.210
1782117272.482335,1.099000,1718579,1000,12,0,1,277.151,-4.383,5.884,559.946,0.518,1.211
1782117272.483335,1.100000,1718580,1000,12,0,1,285.414,3.411,5.904,558.817,-0.992,1.217
1782117272.484335,1.101000,1718581,1000,12,0,1,299.057,15.351,6.272,558.288,-1.156,1.227
1782117272.485335,1.102000,1718582,1000,12,0,1,299.802,16.123,6.647,557.760,-1.471,1.239
1782117272.486335,1.103000,1718583,1000,12,0,1,296.655,9.455,6.613,558.865,-0.480,1.239
1782117272.487335,1.104000,1718584,1000,12,0,1,296.415,7.899,6.668,557.712,-0.723,1.243
1782117272.488335,1.105000,1718585,1000,12,0,1,291.467,2.902,6.673,558.072,-1.035,1.251
1782117272.489335,1.106000,1718586,1000,12,0,1,287.503,-2.059,6.620,559.922,1.243,1.235
1782117272.490335,1.107000,1718587,1000,12,0,1,280.321,-6.762,6.663,560.715,1.763,1.256
1782117272.491335,1.108000,1718588,1000,12,0,1,273.307,-12.841,6.898,559.153,0.496,1.252
1782117272.492335,1.109000,1718589,1000,12,0,1,265.452,-16.466,7.243,559.538,0.148,1.251
1782117272.493335,1.110000,1718590,1000,12,0,1,261.081,-18.400,7.696,559.898,0.954,1.227
1782117272.494335,1.111000,1718591,1000,12,0,1,271.626,-6.773,7.755,562.060,2.171,1.244
1782117272.495335,1.112000,1718592,1000,12,0,1,295.430,15.709,8.058,559.393,0.688,1.238
1782117272.496335,1.113000,1718593,1000,12,0,1,303.237,23.877,8.737,560.763,0.175,1.238
1782117272.497335,1.114000,1718594,1000,12,0,1,298.985,15.041,8.923,559.249,0.484,1.221
1782117272.498335,1.115000,1718595,1000,12,0,1,300.931,12.631,8.863,557.736,-2.118,1.189
1782117272.499335,1.116000,1718596,1000,12,0,1,301.531,11.141,8.886,558.721,-0.528,1.173
1782117272.500335,1.117000,1718597,1000,12,0,1,301.556,7.368,8.943,557.856,-0.876,1.172
1782117272.501335,1.118000,1718598,1000,12,0,1,298.409,3.334,8.949,558.577,-0.655,1.164
1782117272.502335,1.119000,1718599,1000,12,0,1,297.808,-0.206,8.897,557.784,-0.332,1.164
1782117272.503335,1.120000,1718600,1000,12,0,1,296.271,-1.240,8.810,558.361,-0.673,1.133
1782117272.504335,1.121000,1718601,1000,12,0,1,293.172,-5.045,8.825,557.256,-0.452,1.121
1782117272.505335,1.122000,1718602,1000,12,0,1,293.292,-4.728,8.816,558.625,-0.341,1.120
1782117272.506335,1.123000,1718603,1000,12,0,1,293.244,-3.785,8.799,558.865,1.072,1.128
1782117272.507335,1.124000,1718604,1000,12,0,1,293.244,-3.448,8.764,558.865,0.163,1.128
1782117272.508335,1.125000,1718605,1000,12,0,1,289.449,-5.187,8.720,559.658,1.158,1.140
1782117272.509335,1.126000,1718606,1000,12,0,1,291.395,-4.121,8.737,559.129,0.559,1.125
1782117272.510335,1.127000,1718607,1000,12,0,1,291.971,-1.035,8.704,557.736,-0.848,1.097
1782117272.511335,1.128000,1718608,1000,12,0,1,290.194,-3.079,8.713,561.411,1.803,1.125
1782117272.512335,1.129000,1718609,1000,12,0,1,285.702,-5.660,8.742,560.474,2.048,1.145
1782117272.513335,1.130000,1718610,1000,12,0,1,288.873,-3.873,8.758,559.730,-0.055,1.134
1782117272.514335,1.131000,1718611,1000,12,0,1,287.431,-2.475,8.765,558.745,-0.208,1.132
1782117272.515335,1.132000,1718612,1000,12,0,1,285.318,-5.760,8.796,559.922,0.077,1.113
1782117272.516335,1.133000,1718613,1000,12,0,1,282.915,-6.446,8.831,559.850,0.781,1.111
1782117272.517335,1.134000,1718614,1000,12,0,1,282.507,-7.042,8.876,559.057,-0.363,1.097
1782117272.518335,1.135000,1718615,1000,12,0,1,281.738,-6.421,8.679,559.802,0.265,1.091
1782117272.519335,1.136000,1718616,1000,12,0,1,287.696,-1.686,8.487,559.033,0.058,1.055
1782117272.520335,1.137000,1718617,1000,12,0,1,290.530,2.407,8.470,558.793,-0.698,1.038
1782117272.521335,1.138000,1718618,1000,12,0,1,288.320,-0.292,8.464,559.345,0.282,1.029
1782117272.522335,1.139000,1718619,1000,12,0,1,289.233,-0.201,8.461,558.625,-0.457,1.018
1782117272.523335,1.140000,1718620,1000,12,0,1,284.669,-2.511,8.450,559.345,0.044,1.015
1782117272.524335,1.141000,1718621,1000,12,0,1,283.828,-4.563,8.468,556.535,-1.742,1.026
1782117272.525335,1.142000,1718622,1000,12,0,1,286.350,0.127,8.460,556.031,-2.953,1.107
1782117272.526335,1.143000,1718623,1000,12,0,1,288.632,2.304,8.459,557.256,-0.893,1.106
1782117272.527335,1.144000,1718624,1000,12,0,1,287.311,2.682,8.466,558.240,-0.069,1.071
1782117272.528335,1.145000,1718625,1000,12,0,1,286.759,1.750,8.388,558.889,0.696,1.063
1782117272.529335,1.146000,1718626,1000,12,0,1,284.068,0.896,8.210,558.385,0.230,1.009
1782117272.530335,1.147000,1718627,1000,12,0,1,283.300,-0.065,8.192,557.904,-0.428,1.011
1782117272.531335,1.148000,1718628,1000,12,0,1,283.732,1.540,8.189,557.784,-0.375,1.008
1782117272.532335,1.149000,1718629,1000,12,0,1,281.666,0.280,8.165,559.706,0.992,1.015
1782117272.533335,1.150000,1718630,1000,12,0,1,278.304,-2.463,8.158,560.066,1.830,1.038
1782117272.534335,1.151000,1718631,1000,12,0,1,270.209,-8.117,7.948,560.258,1.246,1.040
1782117272.535335,1.152000,1718632,1000,12,0,1,262.666,-14.292,7.877,559.922,1.182,1.032
1782117272.536335,1.153000,1718633,1000,12,0,1,256.541,-16.682,8.113,559.658,0.466,1.032
1782117272.537335,1.154000,1718634,1000,12,0,1,240.951,-26.263,8.853,561.675,2.049,1.067
1782117272.538335,1.155000,1718635,1000,12,0,1,243.834,-22.908,9.418,561.892,2.463,1.113
1782117272.539335,1.156000,1718636,1000,12,0,1,277.847,10.618,9.533,561.819,1.591,1.122
1782117272.540335,1.157000,1718637,1000,12,0,1,297.904,32.225,10.523,559.994,0.250,1.094
1782117272.541335,1.158000,1718638,1000,12,0,1,309.747,35.782,11.534,558.312,-1.841,1.123
1782117272.542335,1.159000,1718639,1000,12,0,1,315.656,37.312,12.468,557.952,-1.764,1.150
1782117272.543335,1.160000,1718640,1000,12,0,1,311.020,26.326,12.749,558.649,-1.068,1.152
1782117272.544335,1.161000,1718641,1000,12,0,1,312.053,20.719,13.047,557.736,-1.298,1.125
1782117272.545335,1.162000,1718642,1000,12,0,1,314.383,19.568,13.151,557.232,-1.935,1.154
1782117272.546335,1.163000,1718643,1000,12,0,1,311.020,12.738,12.837,558.457,-0.589,1.157
1782117272.547335,1.164000,1718644,1000,12,0,1,311.620,9.693,12.733,560.354,1.168,1.167
1782117272.548335,1.165000,1718645,1000,12,0,1,318.178,13.104,12.743,559.634,0.679,1.132
1782117272.549335,1.166000,1718646,1000,12,0,1,331.822,21.899,13.019,557.976,-1.215,1.142
1782117272.550335,1.167000,1718647,1000,12,0,1,329.564,18.861,13.248,557.904,-1.383,1.152
1782117272.551335,1.168000,1718648,1000,12,0,1,315.319,1.104,13.241,559.417,0.062,1.148
1782117272.552335,1.169000,1718649,1000,12,0,1,304.726,-10.412,13.322,560.066,0.787,1.153
1782117272.553335,1.170000,1718650,1000,12,0,1,300.835,-14.167,13.471,559.297,0.018,1.149
1782117272.554335,1.171000,1718651,1000,12,0,1,298.169,-15.273,13.624,560.210,0.403,1.148
1782117272.555335,1.172000,1718652,1000,12,0,1,298.961,-14.094,13.753,559.249,0.133,1.148
1782117272.556335,1.173000,1718653,1000,12,0,1,299.033,-12.642,13.859,557.496,-1.821,1.166
1782117272.557335,1.174000,1718654,1000,12,0,1,302.372,-10.159,13.924,557.856,-1.219,1.179
1782117272.558335,1.175000,1718655,1000,12,0,1,307.152,-5.647,13.928,559.273,0.348,1.168
1782117272.559335,1.176000,1718656,1000,12,0,1,309.002,-4.737,13.932,559.682,1.010,1.174
1782117272.560335,1.177000,1718657,1000,12,0,1,307.128,-7.492,13.971,560.835,1.736,1.194
1782117272.561335,1.178000,1718658,1000,12,0,1,303.429,-11.485,14.059,560.907,1.985,1.200
1782117272.562335,1.179000,1718659,1000,12,0,1,300.931,-13.993,14.175,558.457,-0.346,1.165
1782117272.563335,1.180000,1718660,1000,12,0,1,298.793,-14.635,14.315,557.135,-1.835,1.194
1782117272.564335,1.181000,1718661,1000,12,0,1,296.607,-15.221,14.471,558.120,-0.690,1.197
1782117272.565335,1.182000,1718662,1000,12,0,1,294.950,-14.336,14.590,559.946,1.035,1.206
1782117272.566335,1.183000,1718663,1000,12,0,1,296.247,-11.035,14.645,558.409,0.107,1.201
1782117272.567335,1.184000,1718664,1000,12,0,1,297.400,-6.845,14.643,558.048,-1.027,1.209
1782117272.568335,1.185000,1718665,1000,12,0,1,296.031,-5.654,14.637,559.586,0.679,1.212
1782117272.569335,1.186000,1718666,1000,12,0,1,297.664,-2.418,14.639,557.904,-0.581,1.215
1782117272.570335,1.187000,1718667,1000,12,0,1,294.830,-1.651,14.636,558.409,-0.907,1.218
1782117272.571335,1.188000,1718668,1000,12,0,1,293.989,-1.889,14.639,559.658,0.803,1.222
1782117272.572335,1.189000,1718669,1000,12,0,1,299.009,4.507,14.653,560.306,0.935,1.228
1782117272.573335,1.190000,1718670,1000,12,0,1,302.805,8.836,14.702,558.817,-0.096,1.228
1782117272.574335,1.191000,1718671,1000,12,0,1,303.861,9.354,14.747,558.529,-0.988,1.211
1782117272.575335,1.192000,1718672,1000,12,0,1,304.582,8.833,14.800,560.138,0.733,1.141
1782117272.576335,1.193000,1718673,1000,12,0,1,302.108,5.640,14.818,558.216,-0.479,1.136
1782117272.577335,1.194000,1718674,1000,12,0,1,299.274,1.392,14.814,557.232,-1.929,1.168
1782117272.578335,1.195000,1718675,1000,12,0,1,302.348,2.464,14.816,559.778,0.744,1.169
1782117272.579335,1.196000,1718676,1000,12,0,1,299.514,0.398,14.816,558.601,0.423,1.170
1782117272.580335,1.197000,1718677,1000,12,0,1,300.114,-2.036,14.818,559.778,0.531,1.171
1782117272.581335,1.198000,1718678,1000,12,0,1,301.315,-0.130,14.817,558.865,0.845,1.176
1782117272.582335,1.199000,1718679,1000,12,0,1,298.073,-3.966,14.827,561.819,1.958,1.200
1782117272.583335,1.200000,1718680,1000,12,0,1,295.887,-6.052,14.848,559.802,1.798,1.199
1782117272.584335,1.201000,1718681,1000,12,0,1,297.136,-4.431,14.817,559.009,-0.874,1.192
1782117272.585335,1.202000,1718682,1000,12,0,1,298.817,-1.902,14.681,558.240,-0.374,1.182
1782117272.586335,1.203000,1718683,1000,12,0,1,297.472,-1.811,14.492,560.210,0.283,1.181
1782117272.587335,1.204000,1718684,1000,12,0,1,299.033,-0.339,14.008,559.634,0.791,1.150
1782117272.588335,1.205000,1718685,1000,12,0,1,300.282,2.679,13.634,557.712,-1.675,1.121
1782117272.589335,1.206000,1718686,1000,12,0,1,300.523,3.066,13.558,559.393,-0.437,1.100
1782117272.590335,1.207000,1718687,1000,12,0,1,302.636,5.562,12.793,560.210,0.957,1.108
1782117272.591335,1.208000,1718688,1000,12,0,1,303.021,6.362,11.784,558.697,-0.907,1.084
1782117272.592335,1.209000,1718689,1000,12,0,1,302.781,5.694,10.567,559.201,-0.530,1.058
1782117272.593335,1.210000,1718690,1000,12,0,1,301.315,4.375,9.909,558.841,-0.616,1.051
1782117272.594335,1.211000,1718691,1000,12,0,1,299.946,2.376,9.472,559.634,-0.163,1.035
1782117272.595335,1.212000,1718692,1000,12,0,1,296.103,-0.815,9.059,560.787,1.053,1.009
1782117272.596335,1.213000,1718693,1000,12,0,1,297.640,-0.975,8.880,559.273,-0.096,1.006
1782117272.597335,1.214000,1718694,1000,12,0,1,298.265,0.564,8.774,556.055,-3.030,1.081
1782117272.598335,1.215000,1718695,1000,12,0,1,294.902,-3.433,8.589,558.120,-1.446,1.096
1782117272.599335,1.216000,1718696,1000,12,0,1,295.791,-3.576,8.027,560.090,1.418,1.101
1782117272.600335,1.217000,1718697,1000,12,0,1,296.391,-2.525,7.580,558.937,0.309,1.084
1782117272.601335,1.218000,1718698,1000,12,0,1,292.860,-5.941,7.625,561.339,1.786,1.113
1782117272.602335,1.219000,1718699,1000,12,0,1,284.141,-12.663,7.692,560.715,2.142,1.148
1782117272.603335,1.220000,1718700,1000,12,0,1,273.499,-20.782,7.987,556.799,-2.076,1.185
1782117272.604335,1.221000,1718701,1000,12,0,1,264.780,-25.081,8.468,558.096,-1.258,1.197
1782117272.605335,1.222000,1718702,1000,12,0,1,257.814,-26.507,9.044,559.562,0.893,1.203
1782117272.606335,1.223000,1718703,1000,12,0,1,260.456,-19.738,9.295,560.090,0.938,1.183
1782117272.607335,1.224000,1718704,1000,12,0,1,282.075,3.036,9.193,560.739,1.489,1.189
1782117272.608335,1.225000,1718705,1000,12,0,1,292.091,17.455,9.485,558.649,-0.369,1.189
1782117272.609335,1.226000,1718706,1000,12,0,1,294.950,17.310,9.773,559.465,-0.504,1.183
1782117272.610335,1.227000,1718707,1000,12,0,1,294.109,16.904,10.005,561.003,1.412,1.174
1782117272.611335,1.228000,1718708,1000,12,0,1,298.265,17.118,10.165,558.865,-0.593,1.143
1782117272.612335,1.229000,1718709,1000,12,0,1,299.634,18.380,10.304,559.249,-0.950,1.150
1782117272.613335,1.230000,1718710,1000,12,0,1,300.354,15.553,10.330,559.658,0.085,1.120
1782117272.614335,1.231000,1718711,1000,12,0,1,303.837,16.569,10.372,558.288,-1.315,1.131
1782117272.615335,1.232000,1718712,1000,12,0,1,302.060,13.301,10.344,558.721,-0.974,1.130
1782117272.616335,1.233000,1718713,1000,12,0,1,292.235,2.266,10.231,560.667,0.960,1.138
1782117272.617335,1.234000,1718714,1000,12,0,1,285.486,-5.414,10.214,560.618,1.174,1.141
1782117272.618335,1.235000,1718715,1000,12,0,1,284.141,-6.590,10.225,560.114,0.349,1.138
1782117272.619335,1.236000,1718716,1000,12,0,1,288.080,-2.727,10.226,559.682,0.056,1.135
1782117272.620335,1.237000,1718717,1000,12,0,1,299.514,6.674,10.267,559.489,-0.196,1.128
1782117272.621335,1.238000,1718718,1000,12,0,1,315.968,19.913,10.643,558.336,-0.926,1.130
1782117272.622335,1.239000,1718719,1000,12,0,1,318.586,20.500,11.012,556.511,-2.415,1.173
1782117272.623335,1.240000,1718720,1000,12,0,1,315.704,12.284,11.078,559.297,-0.219,1.174
1782117272.624335,1.241000,1718721,1000,12,0,1,312.389,6.542,11.038,560.715,2.071,1.202
1782117272.625335,1.242000,1718722,1000,12,0,1,309.650,1.156,10.968,560.450,1.105,1.207
1782117272.626335,1.243000,1718723,1000,12,0,1,306.960,-2.356,10.944,559.538,0.413,1.207
1782117272.627335,1.244000,1718724,1000,12,0,1,305.999,-4.197,10.959,560.691,0.719,1.180
1782117272.628335,1.245000,1718725,1000,12,0,1,308.305,-2.491,10.959,561.868,1.994,1.209
1782117272.629335,1.246000,1718726,1000,12,0,1,314.503,2.628,10.965,561.099,0.918,1.214
1782117272.630335,1.247000,1718727,1000,12,0,1,312.461,1.442,10.963,560.282,-0.245,1.212
1782117272.631335,1.248000,1718728,1000,12,0,1,314.815,0.723,10.963,560.378,-0.277,1.207
1782117272.632335,1.249000,1718729,1000,12,0,1,318.226,4.363,10.966,560.186,-0.472,1.177
1782117272.633335,1.250000,1718730,1000,12,0,1,314.455,-0.064,10.933,561.075,0.126,1.149
1782117272.634335,1.251000,1718731,1000,12,0,1,309.458,-5.734,10.945,561.507,0.646,1.146
1782117272.635335,1.252000,1718732,1000,12,0,1,308.161,-7.118,10.988,561.411,0.345,1.146
1782117272.636335,1.253000,1718733,1000,12,0,1,311.572,-4.367,11.002,560.354,-0.535,1.148
1782117272.637335,1.254000,1718734,1000,12,0,1,310.203,-4.378,11.020,561.723,0.231,1.143
1782117272.638335,1.255000,1718735,1000,12,0,1,307.369,-8.143,11.073,559.898,-0.495,1.120
1782117272.639335,1.256000,1718736,1000,12,0,1,302.516,-11.188,11.177,558.817,-2.231,1.162
1782117272.640335,1.257000,1718737,1000,12,0,1,300.835,-13.077,11.302,558.985,-1.296,1.168
1782117272.641335,1.258000,1718738,1000,12,0,1,299.129,-12.271,11.399,560.618,0.006,1.161
1782117272.642335,1.259000,1718739,1000,12,0,1,305.615,-7.017,11.414,560.114,0.250,1.160
1782117272.643335,1.260000,1718740,1000,12,0,1,317.001,4.635,11.416,560.066,-0.343,1.157
1782117272.644335,1.261000,1718741,1000,12,0,1,325.336,11.137,11.519,557.712,-1.700,1.182
1782117272.645335,1.262000,1718742,1000,12,0,1,328.795,12.323,11.649,558.985,-1.392,1.189
1782117272.646335,1.263000,1718743,1000,12,0,1,321.901,4.838,11.669,558.673,-0.378,1.190
1782117272.647335,1.264000,1718744,1000,12,0,1,314.671,-4.369,11.685,561.747,1.144,1.122
1782117272.648335,1.265000,1718745,1000,12,0,1,310.107,-7.603,11.724,561.723,2.320,1.151
1782117272.649335,1.266000,1718746,1000,12,0,1,307.152,-9.674,11.793,559.033,-1.106,1.144
1782117272.650335,1.267000,1718747,1000,12,0,1,307.080,-7.899,11.840,559.105,-1.220,1.156
1782117272.651335,1.268000,1718748,1000,12,0,1,308.065,-5.320,11.834,558.385,-1.204,1.141
1782117272.652335,1.269000,1718749,1000,12,0,1,307.008,-4.422,11.715,560.018,-0.440,1.102
1782117272.653335,1.270000,1718750,1000,12,0,1,303.453,-6.182,11.374,560.354,0.961,1.070
1782117272.654335,1.271000,1718751,1000,12,0,1,301.507,-6.798,10.849,560.955,0.534,1.058
1782117272.655335,1.272000,1718752,1000,12,0,1,303.429,-3.703,10.194,560.018,0.534,1.053
1782117272.656335,1.273000,1718753,1000,12,0,1,302.492,-2.765,9.813,558.312,-1.561,1.068
1782117272.657335,1.274000,1718754,1000,12,0,1,294.157,-8.866,9.883,558.144,-1.293,1.063
1782117272.658335,1.275000,1718755,1000,12,0,1,286.471,-14.895,9.799,560.162,0.531,1.064
1782117272.659335,1.276000,1718756,1000,12,0,1,274.989,-21.279,9.954,559.538,0.713,1.067
1782117272.660335,1.277000,1718757,1000,12,0,1,273.932,-20.979,10.108,557.664,-1.255,1.063
1782117272.661335,1.278000,1718758,1000,12,0,1,290.146,-2.990,9.823,557.712,-1.086,1.071
1782117272.662335,1.279000,1718759,1000,12,0,1,305.759,13.420,9.661,558.216,-0.168,1.062
1782117272.663335,1.280000,1718760,1000,12,0,1,316.929,21.667,9.894,557.736,-0.444,1.064
1782117272.664335,1.281000,1718761,1000,12,0,1,315.944,19.510,10.000,559.273,0.761,1.053
1782117272.665335,1.282000,1718762,1000,12,0,1,311.212,10.804,9.940,559.826,1.608,1.069
1782117272.666335,1.283000,1718763,1000,12,0,1,313.350,10.486,10.045,561.435,2.309,1.109
1782117272.667335,1.284000,1718764,1000,12,0,1,316.352,11.878,10.156,560.258,1.625,1.121
1782117272.668335,1.285000,1718765,1000,12,0,1,312.581,7.613,10.170,558.817,-0.601,1.123
1782117272.669335,1.286000,1718766,1000,12,0,1,306.888,1.161,10.164,560.763,0.929,1.130
1782117272.670335,1.287000,1718767,1000,12,0,1,303.117,-2.018,10.124,559.081,0.081,1.130
1782117272.671335,1.288000,1718768,1000,12,0,1,299.033,-4.397,9.744,558.913,-1.188,1.135
1782117272.672335,1.289000,1718769,1000,12,0,1,293.965,-7.363,9.361,559.994,0.533,1.085
1782117272.673335,1.290000,1718770,1000,12,0,1,294.133,-5.839,9.236,559.273,-0.305,1.085
1782117272.674335,1.291000,1718771,1000,12,0,1,298.505,0.047,9.189,557.664,-1.524,1.067
1782117272.675335,1.292000,1718772,1000,12,0,1,306.480,7.559,9.250,558.457,-1.015,1.065
1782117272.676335,1.293000,1718773,1000,12,0,1,320.508,18.744,9.616,559.538,0.566,1.067
1782117272.677335,1.294000,1718774,1000,12,0,1,322.069,19.665,9.993,560.642,1.371,1.079
1782117272.678335,1.295000,1718775,1000,12,0,1,312.245,6.511,10.029,557.832,-0.513,1.044
1782117272.679335,1.296000,1718776,1000,12,0,1,298.553,-7.405,10.076,559.177,-0.444,1.038
1782117272.680335,1.297000,1718777,1000,12,0,1,296.992,-11.337,10.201,560.787,2.101,1.079
1782117272.681335,1.298000,1718778,1000,12,0,1,309.867,0.620,10.201,562.804,2.945,1.156
1782117272.682335,1.299000,1718779,1000,12,0,1,319.379,9.334,10.268,559.658,0.904,1.161
1782117272.683335,1.300000,1718780,1000,12,0,1,315.103,4.062,10.284,558.048,-1.974,1.194
1782117272.684335,1.301000,1718781,1000,12,0,1,311.140,-2.527,10.258,560.114,0.324,1.192
1782117272.685335,1.302000,1718782,1000,12,0,1,307.657,-5.520,10.238,562.300,2.214,1.231
1782117272.686335,1.303000,1718783,1000,12,0,1,300.523,-11.457,10.347,559.393,-0.143,1.229
1782117272.687335,1.304000,1718784,1000,12,0,1,296.151,-14.449,10.529,559.033,-1.546,1.248
1782117272.688335,1.305000,1718785,1000,12,0,1,291.083,-15.516,10.693,560.498,0.254,1.246
1782117272.689335,1.306000,1718786,1000,12,0,1,293.437,-11.977,10.710,559.610,-0.409,1.207
1782117272.690335,1.307000,1718787,1000,12,0,1,291.755,-8.154,10.612,560.979,0.069,1.193
1782117272.691335,1.308000,1718788,1000,12,0,1,290.146,-8.629,10.540,560.546,0.534,1.196
1782117272.692335,1.309000,1718789,1000,12,0,1,302.757,4.271,10.511,560.546,-0.478,1.197
1782117272.693335,1.310000,1718790,1000,12,0,1,319.715,20.665,10.890,562.348,1.497,1.215
1782117272.694335,1.311000,1718791,1000,12,0,1,318.250,19.464,11.121,561.988,1.046,1.200
1782117272.695335,1.312000,1718792,1000,12,0,1,311.260,8.866,11.055,560.979,-0.169,1.184
1782117272.696335,1.313000,1718793,1000,12,0,1,307.969,4.394,11.052,561.051,-0.233,1.183
1782117272.697335,1.314000,1718794,1000,12,0,1,305.159,0.758,11.035,561.387,0.129,1.172
1782117272.698335,1.315000,1718795,1000,12,0,1,299.778,-4.402,11.000,560.258,-0.673,1.129
1782117272.699335,1.316000,1718796,1000,12,0,1,298.169,-6.549,10.954,561.267,-0.238,1.119
1782117272.700335,1.317000,1718797,1000,12,0,1,304.678,-0.974,10.898,560.114,-0.397,1.107
1782117272.701335,1.318000,1718798,1000,12,0,1,300.955,-2.171,10.876,558.577,-2.301,1.141
1782117272.702335,1.319000,1718799,1000,12,0,1,297.520,-7.624,10.911,558.577,-1.788,1.167
1782117272.703335,1.320000,1718800,1000,12,0,1,293.244,-8.902,10.949,559.393,-0.905,1.166
1782117272.704335,1.321000,1718801,1000,12,0,1,292.019,-10.421,11.006,560.210,0.088,1.164
1782117272.705335,1.322000,1718802,1000,12,0,1,295.526,-4.978,11.016,559.874,-0.079,1.161
1782117272.706335,1.323000,1718803,1000,12,0,1,297.328,-1.911,11.012,558.361,-1.449,1.159
1782117272.707335,1.324000,1718804,1000,12,0,1,294.878,-2.815,10.948,559.249,-0.875,1.151
1782117272.708335,1.325000,1718805,1000,12,0,1,296.968,-0.756,10.744,558.336,-0.947,1.156
1782117272.709335,1.326000,1718806,1000,12,0,1,295.718,0.429,10.314,559.682,-0.457,1.153
1782117272.710335,1.327000,1718807,1000,12,0,1,291.515,-2.853,9.886,560.691,1.208,1.152
1782117272.711335,1.328000,1718808,1000,12,0,1,290.650,-2.560,9.884,560.907,0.867,1.149
1782117272.712335,1.329000,1718809,1000,12,0,1,295.022,2.500,9.706,560.835,0.855,1.155
1782117272.713335,1.330000,1718810,1000,12,0,1,299.370,7.335,9.268,560.210,0.142,1.153
1782117272.714335,1.331000,1718811,1000,12,0,1,308.546,14.240,9.074,558.697,-1.139,1.159
1782117272.715335,1.332000,1718812,1000,12,0,1,318.730,22.068,9.473,559.153,-0.840,1.143
1782117272.716335,1.333000,1718813,1000,12,0,1,316.809,18.440,9.713,560.066,0.408,1.097
1782117272.717335,1.334000,1718814,1000,12,0,1,297.304,-1.212,9.568,557.135,-1.592,1.096
1782117272.718335,1.335000,1718815,1000,12,0,1,292.956,-9.437,9.601,560.186,0.014,1.093
1782117272.719335,1.336000,1718816,1000,12,0,1,295.911,-3.863,9.615,562.276,3.477,1.191
1782117272.720335,1.337000,1718817,1000,12,0,1,302.684,0.779,9.611,561.051,1.430,1.208
1782117272.721335,1.338000,1718818,1000,12,0,1,306.360,5.267,9.620,560.210,0.659,1.200
1782117272.722335,1.339000,1718819,1000,12,0,1,305.879,3.045,9.573,559.514,-0.143,1.198
1782117272.723335,1.340000,1718820,1000,12,0,1,303.117,-0.090,9.538,558.793,-0.759,1.202
1782117272.724335,1.341000,1718821,1000,12,0,1,299.418,-3.902,9.554,558.961,-0.582,1.185
1782117272.725335,1.342000,1718822,1000,12,0,1,298.889,-4.804,9.518,560.066,0.376,1.178
1782117272.726335,1.343000,1718823,1000,12,0,1,297.856,-4.266,9.161,558.865,-0.265,1.176
1782117272.727335,1.344000,1718824,1000,12,0,1,298.433,-3.982,8.747,558.385,-1.298,1.174
1782117272.728335,1.345000,1718825,1000,12,0,1,294.373,-5.186,8.729,558.481,-0.692,1.176
