Unix_Time_s,RelativeTime_s,P_1,P_2,P_3,P_4,P_5,P_6,P_7,P_8,P_9,P_10,P_11,P_12,P_13,P_14,P_15,P_16,P_17,P_18,P_19,P_20,P_21,P_22,P_23,P_24,P_25,P_26,P_27,P_28,P_29,P_30,P_31,P_32,P_33,P_34,P_35,P_36,P_37,P_38,P_39,P_40,P_41,P_42,P_43,P_44,P_45,P_46,P_47,P_48,P_49,P_50,P_51,P_52,P_53,P_54,P_55,P_56,P_57,P_58,P_59,P_60,P_61,P_62,P_63,P_64,P_65,P_66,P_67,P_68,P_69,P_70,P_71,P_72,P_73,P_74,P_75,P_76,P_77,P_78,P_79,P_80,P_81,P_82,P_83,P_84,P_85,P_86,P_87,P_88,P_89,P_90,P_91,P_92,P_93,P_94,P_95,P_96,P_97,P_98,P_99,P_100,P_101,P_102,P_103,P_104,P_105,P_106,P_107,P_108,P_109,P_110,P_111,P_112,P_113,P_114,P_115,P_116,P_117,P_118,P_119,P_120,P_121,P_122,P_123,P_124,P_125,P_126,P_127,P_128,P_129,P_130,P_131,P_132,P_133,P_134,P_135,P_136,P_137,P_138,P_139,P_140,P_141,P_142,P_143,P_144,P_145,P_146,P_147,P_148,P_149,P_150,P_151,P_152,P_153,P_154,P_155,P_156,P_157,P_158,P_159,P_160,P_161,P_162,P_163,P_164,P_165,P_166,P_167,P_168,P_169,P_170,P_171,P_172,P_173,P_174,P_175,P_176,P_177,P_178,P_179,P_180,P_181,P_182,P_183,P_184,P_185,P_186,P_187,P_188,P_189,P_190,P_191,P_192,P_193,P_194,P_195,P_196,P_197,P_198,P_199,P_200,P_201,P_202,P_203,P_204,P_205,P_206,P_207,P_208,P_209,P_210,P_211,P_212,P_213,P_214,P_215,P_216,P_217,P_218,P_219,P_220,P_221,P_222,P_223,P_224,P_225,P_226,P_227,P_228,P_229,P_230,P_231,P_232,P_233,Flex1,Flex2,Bat,IMU1_RefTime,IMU1_Ax,IMU1_Ay,IMU1_Az,IMU1_Wx,IMU1_Wy,IMU1_Wz,IMU1_Roll,IMU1_Pitch,IMU1_Yaw,IMU1_Hx,IMU1_Hy,IMU1_Hz,IMU1_Q0,IMU1_Q1,IMU1_Q2,IMU1_Q3,IMU2_RefTime,IMU2_Ax,IMU2_Ay,IMU2_Az,IMU2_Wx,IMU2_Wy,IMU2_Wz,IMU2_Roll,IMU2_Pitch,IMU2_Yaw,IMU2_Hx,IMU2_Hy,IMU2_Hz,IMU2_Q0,IMU2_Q1,IMU2_Q2,IMU2_Q3,IMU1_FusedRoll,IMU1_FusedPitch,IMU1_FusedYaw,IMU1_FusedQ0,IMU1_FusedQ1,IMU1_FusedQ2,IMU1_FusedQ3,IMU1_MagValid,IMU2_FusedRoll,IMU2_FusedPitch,IMU2_FusedYaw,IMU2_FusedQ0,IMU2_FusedQ1,IMU2_FusedQ2,IMU2_FusedQ3,IMU2_MagValid
1782117271.405694,0.022,1017.0,1023.0,1019.0,1020.0,1022.0,1024.0,1021.0,1021.0,1013.0,1020.0,1021.0,1024.0,1021.0,1021.0,1012.0,1020.0,1020.0,1021.0,1024.0,1021.0,1022.0,1013.0,1020.0,1020.0,1020.0,1021.0,1024.0,1021.0,1022.0,1013.0,1020.0,1020.0,1021.0,1020.0,1021.0,1024.0,1021.0,1022.0,1013.0,1020.0,1019.0,1021.0,1020.0,1021.0,1024.0,1022.0,1022.0,1012.0,1020.0,1019.0,1021.0,1018.0,1021.0,1021.0,1024.0,1021.0,1022.0,1013.0,1020.0,1019.0,1022.0,1019.0,1021.0,1022.0,1024.0,1022.0,1023.0,1013.0,1021.0,1021.0,1023.0,1020.0,1021.0,1021.0,1024.0,1022.0,1023.0,1012.0,1019.0,1020.0,1022.0,1019.0,1021.0,1022.0,1024.0,1021.0,1023.0,1013.0,1020.0,1020.0,1022.0,1019.0,1021.0,1022.0,1024.0,1021.0,1022.0,1013.0,1020.0,1020.0,1022.0,1019.0,1021.0,1022.0,1025.0,1021.0,1022.0,1013.0,1019.0,1020.0,1022.0,1019.0,1022.0,1023.0,1025.0,1022.0,1024.0,1013.0,1021.0,1021.0,1025.0,1021.0,1022.0,1025.0,1022.0,1023.0,1013.0,1021.0,1021.0,1021.0,1022.0,1025.0,1023.0,1023.0,1013.0,1020.0,1022.0,1023.0,1026.0,1022.0,1024.0,1014.0,1021.0,1022.0,1023.0,1026.0,1022.0,1024.0,1014.0,1021.0,1022.0,1022.0,1026.0,1022.0,1024.0,1014.0,1021.0,1022.0,1026.0,1021.0,1022.0,1013.0,1022.0,1023.0,1026.0,1022.0,1024.0,1016.0,1023.0,1024.0,1028.0,1024.0,1026.0,1018.0,1022.0,1024.0,1028.0,1024.0,1024.0,1016.0,1024.0,1025.0,1029.0,1025.0,1025.0,1018.0,1025.0,1028.0,1032.0,1027.0,1028.0,1020.0,1026.0,1029.0,1034.0,1026.0,1028.0,1020.0,1027.0,1029.0,1036.0,1027.0,1028.0,1022.0,1030.0,1030.0,1039.0,1028.0,1027.0,1025.0,1029.0,1033.0,1045.0,1030.0,1028.0,1029.0,1026.0,1030.0,1040.0,1027.0,1024.0,1029.0,1028.0,1032.0,1048.0,1029.0,1026.0,1084.0,1027.0,1030.0,1046.0,1028.0,1025.0,2337,2250,1901,	00:29:22.271,-0.0126953125,0.0791015625,1.01904296875,0.244140625,0.3662109375,0.06103515625,4.4659423828125,0.7415771484375,-75.8056640625,103.0,-685.0,-4002.0,-0.788299560546875,-0.034759521484375,0.018829345703125,0.614044189453125,4.468167461987019,0.744225615714576,-80.012560853026,-0.7652128668981165,-0.0340307363790227,0.02008917006860396,0.642563306267189,1,	00:29:22.272,0.02783203125,0.0244140625,1.02099609375,-0.3662109375,-0.06103515625,0.48828125,1.3568115234375,-1.571044921875,41.1328125,-11.0,620.0,-1846.0,0.936065673828125,0.015899658203125,-0.008697509765625,0.35137939453125,1.354288266611181,-1.5735604898774789,34.628440758898535,0.954481992793613,0.015367904665768591,-0.009591463355702691,0.29771791476095893,1
1782117271.409434,0.026,1017.0,1023.0,1020.0,1019.0,1021.0,1024.0,1021.0,1021.0,1014.0,1020.0,1021.0,1024.0,1020.0,1021.0,1013.0,1020.0,1021.0,1021.0,1024.0,1020.0,1022.0,1012.0,1020.0,1020.0,1020.0,1021.0,1025.0,1021.0,1022.0,1013.0,1019.0,1019.0,1021.0,1021.0,1021.0,1024.0,1021.0,1022.0,1012.0,1020.0,1020.0,1021.0,1020.0,1021.0,1024.0,1021.0,1021.0,1012.0,1019.0,1019.0,1021.0,1019.0,1020.0,1021.0,1024.0,1021.0,1021.0,1012.0,1020.0,1019.0,1021.0,1019.0,1022.0,1022.0,1025.0,1021.0,1023.0,1013.0,1020.0,1021.0,1023.0,1020.0,1021.0,1021.0,1025.0,1021.0,1022.0,1012.0,1020.0,1020.0,1022.0,1020.0,1021.0,1022.0,1025.0,1021.0,1022.0,1013.0,1021.0,1020.0,1023.0,1020.0,1021.0,1021.0,1025.0,1021.0,1023.0,1012.0,1020.0,1020.0,1022.0,1019.0,1021.0,1022.0,1025.0,1022.0,1022.0,1013.0,1020.0,1020.0,1022.0,1019.0,1022.0,1023.0,1025.0,1022.0,1024.0,1014.0,1021.0,1022.0,1025.0,1021.0,1023.0,1026.0,1022.0,1024.0,1013.0,1020.0,1020.0,1021.0,1023.0,1026.0,1021.0,1022.0,1013.0,1020.0,1021.0,1023.0,1027.0,1021.0,1024.0,1014.0,1020.0,1021.0,1023.0,1026.0,1021.0,1024.0,1014.0,1021.0,1022.0,1022.0,1026.0,1021.0,1024.0,1015.0,1020.0,1022.0,1026.0,1021.0,1022.0,1014.0,1022.0,1023.0,1027.0,1022.0,1024.0,1016.0,1023.0,1024.0,1029.0,1024.0,1027.0,1017.0,1022.0,1024.0,1028.0,1023.0,1025.0,1016.0,1024.0,1025.0,1030.0,1025.0,1026.0,1017.0,1026.0,1028.0,1033.0,1026.0,1028.0,1020.0,1026.0,1028.0,1034.0,1026.0,1028.0,1020.0,1027.0,1029.0,1036.0,1027.0,1029.0,1023.0,1030.0,1030.0,1040.0,1027.0,1027.0,1025.0,1030.0,1032.0,1045.0,1028.0,1028.0,1030.0,1026.0,1029.0,1041.0,1026.0,1025.0,1029.0,1028.0,1031.0,1049.0,1028.0,1026.0,1085.0,1027.0,1029.0,1046.0,1027.0,1026.0,2337,2251,1901,	00:29:22.281,-0.01171875,0.0791015625,1.01904296875,0.244140625,0.3662109375,0.06103515625,4.4439697265625,0.6591796875,-75.8056640625,104.0,-689.0,-4006.0,-0.788330078125,-0.03411865234375,0.019256591796875,0.614013671875,4.441236973743875,0.6610560461430868,-80.01202907082211,-0.7652453103753254,-0.033384896273941235,0.02049362420592649,0.6425457765920312,1,	00:29:22.282,0.0283203125,0.0244140625,1.02197265625,-0.30517578125,0.06103515625,0.54931640625,1.417236328125,-1.636962890625,41.1328125,-10.0,623.0,-1847.0,0.93603515625,0.0166015625,-0.009002685546875,0.351409912109375,1.4178926627353579,-1.6357927722099463,34.63207965016089,0.9544546016397126,0.01605951493150014,-0.009944110703670553,0.29775765322029163,1
1782117271.420761,0.037,1016.0,1023.0,1020.0,1019.0,1021.0,1024.0,1020.0,1022.0,1013.0,1020.0,1021.0,1024.0,1021.0,1022.0,1013.0,1020.0,1021.0,1021.0,1024.0,1020.0,1023.0,1013.0,1020.0,1020.0,1020.0,1021.0,1024.0,1021.0,1022.0,1013.0,1019.0,1019.0,1021.0,1021.0,1021.0,1024.0,1020.0,1022.0,1013.0,1020.0,1020.0,1021.0,1021.0,1021.0,1024.0,1021.0,1022.0,1013.0,1020.0,1020.0,1021.0,1018.0,1021.0,1021.0,1025.0,1021.0,1022.0,1012.0,1020.0,1020.0,1021.0,1019.0,1021.0,1022.0,1025.0,1021.0,1023.0,1013.0,1021.0,1021.0,1023.0,1020.0,1021.0,1022.0,1024.0,1021.0,1023.0,1013.0,1020.0,1020.0,1022.0,1019.0,1021.0,1022.0,1025.0,1021.0,1023.0,1013.0,1020.0,1020.0,1022.0,1020.0,1022.0,1022.0,1025.0,1021.0,1022.0,1013.0,1020.0,1020.0,1022.0,1019.0,1021.0,1022.0,1025.0,1021.0,1022.0,1013.0,1020.0,1020.0,1022.0,1019.0,1022.0,1023.0,1025.0,1021.0,1025.0,1014.0,1021.0,1022.0,1025.0,1022.0,1023.0,1026.0,1021.0,1024.0,1014.0,1021.0,1021.0,1021.0,1023.0,1025.0,1022.0,1023.0,1014.0,1020.0,1022.0,1023.0,1026.0,1021.0,1025.0,1015.0,1021.0,1022.0,1023.0,1026.0,1022.0,1024.0,1015.0,1021.0,1022.0,1022.0,1026.0,1021.0,1024.0,1015.0,1022.0,1022.0,1025.0,1021.0,1022.0,1014.0,1022.0,1023.0,1027.0,1023.0,1024.0,1016.0,1023.0,1024.0,1028.0,1024.0,1026.0,1017.0,1022.0,1023.0,1028.0,1023.0,1024.0,1016.0,1024.0,1026.0,1029.0,1025.0,1026.0,1018.0,1025.0,1028.0,1032.0,1026.0,1028.0,1020.0,1026.0,1028.0,1033.0,1027.0,1028.0,1021.0,1027.0,1030.0,1037.0,1027.0,1028.0,1023.0,1030.0,1031.0,1039.0,1027.0,1028.0,1026.0,1030.0,1033.0,1045.0,1029.0,1028.0,1030.0,1026.0,1029.0,1041.0,1026.0,1025.0,1030.0,1028.0,1031.0,1050.0,1027.0,1026.0,1085.0,1026.0,1030.0,1046.0,1027.0,1027.0,2337,2251,1902,	00:29:22.292,-0.01220703125,0.0791015625,1.0185546875,0.244140625,0.3662109375,0.1220703125,4.4439697265625,0.758056640625,-75.8056640625,103.0,-687.0,-4000.0,-0.788299560546875,-0.034637451171875,0.01861572265625,0.614044189453125,4.44164770244782,0.7562578302938868,-80.01055165061129,-0.7652288466619441,-0.0339214211003759,0.019859484333706514,0.6425571961381812,1,	00:29:22.293,0.02734375,0.0244140625,1.02099609375,-0.30517578125,0.1220703125,0.54931640625,1.373291015625,-1.549072265625,41.143798828125,-10.0,621.0,-1846.0,0.93603515625,0.0159912109375,-0.008453369140625,0.351470947265625,1.3756522085166278,-1.5518158758979594,34.63868698692107,0.9544556348221339,0.015490255070550813,-0.009353434544391496,0.29780363734573556,1
1782117271.430536,0.047,1017.0,1023.0,1020.0,1020.0,1021.0,1023.0,1020.0,1021.0,1014.0,1019.0,1021.0,1024.0,1020.0,1021.0,1013.0,1020.0,1020.0,1021.0,1024.0,1021.0,1022.0,1013.0,1020.0,1020.0,1020.0,1021.0,1024.0,1020.0,1022.0,1013.0,1020.0,1020.0,1021.0,1021.0,1022.0,1024.0,1021.0,1022.0,1013.0,1020.0,1019.0,1021.0,1021.0,1021.0,1024.0,1020.0,1021.0,1013.0,1020.0,1019.0,1021.0,1019.0,1021.0,1021.0,1024.0,1021.0,1022.0,1013.0,1020.0,1019.0,1021.0,1019.0,1022.0,1022.0,1025.0,1021.0,1023.0,1013.0,1020.0,1021.0,1023.0,1020.0,1021.0,1022.0,1024.0,1020.0,1022.0,1013.0,1020.0,1020.0,1022.0,1020.0,1021.0,1022.0,1024.0,1021.0,1023.0,1014.0,1021.0,1020.0,1022.0,1020.0,1021.0,1022.0,1024.0,1021.0,1022.0,1014.0,1020.0,1020.0,1022.0,1019.0,1021.0,1022.0,1025.0,1021.0,1022.0,1013.0,1020.0,1020.0,1022.0,1019.0,1022.0,1023.0,1026.0,1021.0,1024.0,1014.0,1021.0,1022.0,1025.0,1022.0,1023.0,1025.0,1021.0,1024.0,1015.0,1021.0,1021.0,1022.0,1023.0,1025.0,1021.0,1023.0,1014.0,1020.0,1022.0,1023.0,1026.0,1022.0,1025.0,1015.0,1021.0,1021.0,1023.0,1026.0,1021.0,1023.0,1015.0,1021.0,1022.0,1023.0,1026.0,1021.0,1024.0,1015.0,1022.0,1023.0,1025.0,1021.0,1022.0,1015.0,1022.0,1023.0,1026.0,1022.0,1024.0,1016.0,1023.0,1024.0,1028.0,1024.0,1026.0,1018.0,1022.0,1024.0,1027.0,1023.0,1024.0,1017.0,1024.0,1026.0,1029.0,1025.0,1025.0,1018.0,1025.0,1028.0,1032.0,1026.0,1028.0,1020.0,1026.0,1029.0,1033.0,1026.0,1027.0,1021.0,1027.0,1030.0,1036.0,1027.0,1028.0,1023.0,1031.0,1031.0,1039.0,1027.0,1028.0,1026.0,1030.0,1032.0,1045.0,1028.0,1028.0,1031.0,1027.0,1029.0,1040.0,1025.0,1025.0,1030.0,1029.0,1031.0,1048.0,1027.0,1026.0,1084.0,1026.0,1030.0,1045.0,1027.0,1026.0,2338,2251,1902,	00:29:22.302,-0.013671875,0.080078125,1.01953125,0.18310546875,0.30517578125,0.18310546875,4.5318603515625,0.7745361328125,-75.8001708984375,104.0,-685.0,-4003.0,-0.788299560546875,-0.035369873046875,0.018951416015625,0.614013671875,4.533195912147621,0.7767247556957102,-80.00728955335762,-0.7652143381724607,-0.034648025123039675,0.020235105164510242,0.6425239851782478,1,	00:29:22.303,0.0263671875,0.025390625,1.01904296875,-0.30517578125,0.1220703125,0.54931640625,1.42822265625,-1.4776611328125,41.143798828125,-10.0,622.0,-1848.0,0.936004638671875,0.01617431640625,-0.0076904296875,0.35150146484375,1.4268290585549388,-1.4769120417790986,34.642770757420365,0.9544486765321042,0.015722364138514116,-0.008595921805122031,0.2978366016129163,1
1782117271.441075,0.058,1017.0,1023.0,1019.0,1019.0,1021.0,1023.0,1021.0,1021.0,1013.0,1020.0,1021.0,1024.0,1020.0,1021.0,1013.0,1020.0,1020.0,1022.0,1024.0,1021.0,1022.0,1013.0,1020.0,1020.0,1020.0,1021.0,1024.0,1020.0,1021.0,1013.0,1019.0,1019.0,1021.0,1020.0,1021.0,1024.0,1020.0,1022.0,1013.0,1020.0,1020.0,1021.0,1021.0,1021.0,1024.0,1020.0,1021.0,1013.0,1020.0,1019.0,1021.0,1018.0,1021.0,1022.0,1024.0,1021.0,1022.0,1013.0,1020.0,1020.0,1021.0,1018.0,1021.0,1021.0,1024.0,1020.0,1023.0,1014.0,1020.0,1020.0,1023.0,1020.0,1022.0,1022.0,1024.0,1021.0,1023.0,1013.0,1020.0,1020.0,1022.0,1019.0,1021.0,1022.0,1025.0,1021.0,1023.0,1013.0,1020.0,1020.0,1022.0,1020.0,1021.0,1022.0,1025.0,1021.0,1022.0,1013.0,1020.0,1020.0,1022.0,1018.0,1021.0,1022.0,1024.0,1021.0,1022.0,1014.0,1019.0,1019.0,1022.0,1019.0,1022.0,1023.0,1025.0,1021.0,1025.0,1014.0,1021.0,1022.0,1025.0,1022.0,1022.0,1026.0,1022.0,1024.0,1015.0,1020.0,1021.0,1022.0,1023.0,1025.0,1021.0,1023.0,1014.0,1020.0,1022.0,1023.0,1026.0,1022.0,1024.0,1015.0,1020.0,1022.0,1023.0,1025.0,1022.0,1023.0,1015.0,1021.0,1022.0,1023.0,1026.0,1022.0,1024.0,1015.0,1021.0,1022.0,1025.0,1021.0,1022.0,1015.0,1023.0,1023.0,1026.0,1022.0,1024.0,1016.0,1024.0,1024.0,1028.0,1024.0,1026.0,1018.0,1023.0,1024.0,1027.0,1023.0,1024.0,1017.0,1024.0,1026.0,1029.0,1025.0,1025.0,1018.0,1026.0,1028.0,1032.0,1027.0,1028.0,1020.0,1027.0,1028.0,1033.0,1026.0,1028.0,1022.0,1028.0,1030.0,1036.0,1026.0,1028.0,1023.0,1031.0,1031.0,1040.0,1027.0,1027.0,1026.0,1031.0,1033.0,1044.0,1028.0,1027.0,1031.0,1027.0,1030.0,1041.0,1026.0,1024.0,1030.0,1029.0,1031.0,1048.0,1027.0,1026.0,1085.0,1027.0,1030.0,1045.0,1026.0,1025.0,2338,2251,1902,	00:29:22.312,-0.0126953125,0.07958984375,1.01953125,0.18310546875,0.30517578125,0.06103515625,4.4659423828125,0.7196044921875,-75.8001708984375,103.0,-688.0,-4004.0,-0.788330078125,-0.03460693359375,0.019012451171875,0.613983154296875,4.468476600599013,0.7169668435322254,-80.00730835347423,-0.765249349433274,-0.03388096979969794,0.020271454462524027,0.6425220472570236,1,	00:29:22.313,0.02587890625,0.025390625,1.0205078125,-0.30517578125,0.1220703125,0.54931640625,1.417236328125,-1.38427734375,41.1492919921875,-10.0,624.0,-1847.0,0.936004638671875,0.015838623046875,-0.0069580078125,0.351531982421875,1.4177855372395265,-1.384373999896165,34.648438030350135,0.954447781882416,0.015407151859584172,-0.00784782262052006,0.2978765902373477,1
1782117271.450641,0.067,1017.0,1024.0,1020.0,1020.0,1021.0,1024.0,1021.0,1021.0,1014.0,1020.0,1021.0,1024.0,1020.0,1021.0,1013.0,1020.0,1020.0,1022.0,1024.0,1021.0,1022.0,1014.0,1020.0,1020.0,1020.0,1021.0,1024.0,1021.0,1021.0,1013.0,1020.0,1020.0,1021.0,1021.0,1021.0,1024.0,1021.0,1022.0,1013.0,1020.0,1020.0,1021.0,1021.0,1022.0,1024.0,1020.0,1021.0,1013.0,1020.0,1019.0,1021.0,1018.0,1021.0,1022.0,1024.0,1021.0,1021.0,1013.0,1020.0,1020.0,1021.0,1019.0,1021.0,1022.0,1025.0,1021.0,1023.0,1014.0,1020.0,1020.0,1023.0,1021.0,1021.0,1022.0,1024.0,1021.0,1023.0,1013.0,1020.0,1020.0,1022.0,1019.0,1021.0,1022.0,1024.0,1020.0,1023.0,1013.0,1020.0,1020.0,1022.0,1020.0,1021.0,1022.0,1024.0,1021.0,1023.0,1013.0,1020.0,1020.0,1021.0,1019.0,1021.0,1022.0,1024.0,1021.0,1022.0,1013.0,1020.0,1020.0,1022.0,1019.0,1022.0,1022.0,1025.0,1021.0,1024.0,1014.0,1021.0,1022.0,1025.0,1022.0,1023.0,1026.0,1021.0,1024.0,1015.0,1021.0,1021.0,1021.0,1022.0,1025.0,1021.0,1022.0,1014.0,1020.0,1022.0,1023.0,1025.0,1021.0,1024.0,1015.0,1021.0,1022.0,1023.0,1025.0,1021.0,1023.0,1015.0,1021.0,1022.0,1023.0,1026.0,1022.0,1024.0,1016.0,1022.0,1023.0,1025.0,1021.0,1022.0,1014.0,1023.0,1023.0,1026.0,1022.0,1023.0,1016.0,1023.0,1024.0,1028.0,1024.0,1026.0,1018.0,1022.0,1024.0,1027.0,1023.0,1023.0,1016.0,1024.0,1025.0,1029.0,1025.0,1025.0,1018.0,1025.0,1028.0,1032.0,1027.0,1028.0,1021.0,1027.0,1028.0,1034.0,1026.0,1027.0,1021.0,1028.0,1030.0,1036.0,1027.0,1027.0,1023.0,1031.0,1031.0,1039.0,1027.0,1027.0,1026.0,1030.0,1033.0,1045.0,1029.0,1027.0,1031.0,1027.0,1029.0,1040.0,1026.0,1025.0,1030.0,1029.0,1032.0,1048.0,1028.0,1026.0,1085.0,1028.0,1030.0,1047.0,1027.0,1025.0,2338,2252,1901,	00:29:22.322,-0.01220703125,0.07861328125,1.01904296875,0.1220703125,0.30517578125,0.18310546875,4.3890380859375,0.6756591796875,-75.8001708984375,102.0,-687.0,-4002.0,-0.788360595703125,-0.033843994140625,0.018890380859375,0.613983154296875,4.390346629254145,0.6744829831149305,-80.00620910094007,-0.7652892871304513,-0.03312131737431916,0.020116883562895305,0.642518946284444,1,	00:29:22.323,0.02734375,0.0244140625,1.021484375,-0.30517578125,0.06103515625,0.48828125,1.38427734375,-1.47216796875,41.15478515625,-9.0,622.0,-1846.0,0.936004638671875,0.015838623046875,-0.00775146484375,0.351593017578125,1.3860870150097124,-1.4709962302690167,34.654049008705925,0.954425708167561,0.01536850828240933,-0.008651023267979292,0.2979270654681109,1
1782117271.461063,0.078,1017.0,1023.0,1020.0,1019.0,1021.0,1024.0,1021.0,1021.0,1014.0,1020.0,1021.0,1023.0,1020.0,1021.0,1014.0,1020.0,1021.0,1021.0,1024.0,1021.0,1022.0,1013.0,1020.0,1020.0,1020.0,1022.0,1024.0,1021.0,1021.0,1013.0,1020.0,1020.0,1021.0,1021.0,1021.0,1024.0,1021.0,1022.0,1013.0,1020.0,1020.0,1021.0,1021.0,1021.0,1023.0,1021.0,1022.0,1013.0,1020.0,1020.0,1021.0,1018.0,1020.0,1021.0,1023.0,1020.0,1021.0,1013.0,1019.0,1020.0,1021.0,1019.0,1021.0,1022.0,1024.0,1021.0,1023.0,1013.0,1020.0,1022.0,1022.0,1020.0,1021.0,1022.0,1024.0,1021.0,1022.0,1014.0,1020.0,1020.0,1022.0,1020.0,1021.0,1022.0,1024.0,1021.0,1022.0,1014.0,1021.0,1021.0,1022.0,1020.0,1021.0,1022.0,1025.0,1021.0,1022.0,1013.0,1020.0,1020.0,1022.0,1019.0,1021.0,1022.0,1024.0,1021.0,1022.0,1014.0,1020.0,1020.0,1022.0,1019.0,1022.0,1023.0,1026.0,1021.0,1025.0,1015.0,1020.0,1021.0,1024.0,1022.0,1022.0,1025.0,1022.0,1024.0,1015.0,1021.0,1021.0,1021.0,1022.0,1025.0,1022.0,1023.0,1014.0,1020.0,1022.0,1023.0,1025.0,1022.0,1024.0,1016.0,1021.0,1021.0,1023.0,1025.0,1022.0,1024.0,1016.0,1020.0,1022.0,1023.0,1026.0,1022.0,1024.0,1016.0,1021.0,1022.0,1025.0,1021.0,1022.0,1015.0,1022.0,1024.0,1026.0,1022.0,1023.0,1016.0,1024.0,1025.0,1028.0,1024.0,1025.0,1019.0,1022.0,1024.0,1027.0,1023.0,1024.0,1017.0,1024.0,1025.0,1029.0,1025.0,1025.0,1018.0,1025.0,1027.0,1032.0,1027.0,1027.0,1021.0,1026.0,1029.0,1034.0,1026.0,1027.0,1021.0,1027.0,1030.0,1036.0,1026.0,1028.0,1024.0,1031.0,1032.0,1039.0,1027.0,1028.0,1027.0,1030.0,1033.0,1044.0,1028.0,1027.0,1031.0,1027.0,1031.0,1041.0,1026.0,1025.0,1030.0,1029.0,1032.0,1048.0,1028.0,1026.0,1085.0,1027.0,1031.0,1046.0,1027.0,1026.0,2338,2252,1901,	00:29:22.332,-0.01220703125,0.07958984375,1.01953125,0.18310546875,0.30517578125,0.18310546875,4.482421875,0.6866455078125,-75.794677734375,102.0,-687.0,-4004.0,-0.788330078125,-0.0345458984375,0.019287109375,0.61395263671875,4.482859650070356,0.6890134216096635,-80.00307086338009,-0.7652761281822591,-0.03382113436414264,0.02053760003906133,0.642484852342317,1,	00:29:22.334,0.0263671875,0.02392578125,1.02197265625,-0.30517578125,0.0,0.54931640625,1.2908935546875,-1.483154296875,41.165771484375,-9.0,625.0,-1846.0,0.93597412109375,0.015106201171875,-0.008148193359375,0.351654052734375,1.2921564425958438,-1.4842797903984042,34.66188267042974,0.9544158004322663,0.014621280162563364,-0.009004880576207993,0.29798592278403435,1
1782117271.470957,0.088,1017.0,1023.0,1020.0,1018.0,1021.0,1024.0,1021.0,1021.0,1014.0,1020.0,1021.0,1023.0,1021.0,1021.0,1013.0,1020.0,1020.0,1022.0,1024.0,1020.0,1021.0,1013.0,1020.0,1021.0,1020.0,1022.0,1024.0,1021.0,1021.0,1013.0,1020.0,1020.0,1021.0,1021.0,1022.0,1024.0,1021.0,1021.0,1013.0,1020.0,1020.0,1021.0,1021.0,1021.0,1024.0,1021.0,1022.0,1013.0,1020.0,1020.0,1020.0,1019.0,1020.0,1022.0,1024.0,1021.0,1021.0,1013.0,1020.0,1020.0,1021.0,1019.0,1022.0,1022.0,1025.0,1021.0,1023.0,1014.0,1020.0,1021.0,1023.0,1021.0,1021.0,1022.0,1025.0,1021.0,1022.0,1013.0,1020.0,1020.0,1022.0,1019.0,1021.0,1022.0,1024.0,1021.0,1022.0,1014.0,1020.0,1020.0,1023.0,1020.0,1021.0,1022.0,1025.0,1021.0,1022.0,1014.0,1020.0,1020.0,1022.0,1019.0,1021.0,1022.0,1024.0,1020.0,1023.0,1014.0,1020.0,1020.0,1022.0,1019.0,1022.0,1023.0,1026.0,1022.0,1025.0,1015.0,1020.0,1022.0,1024.0,1022.0,1023.0,1026.0,1021.0,1024.0,1015.0,1021.0,1021.0,1021.0,1022.0,1025.0,1022.0,1023.0,1014.0,1020.0,1022.0,1023.0,1026.0,1022.0,1024.0,1015.0,1021.0,1022.0,1023.0,1026.0,1022.0,1023.0,1015.0,1020.0,1021.0,1023.0,1026.0,1022.0,1024.0,1016.0,1021.0,1022.0,1026.0,1022.0,1022.0,1014.0,1022.0,1023.0,1026.0,1022.0,1023.0,1016.0,1023.0,1024.0,1029.0,1025.0,1026.0,1018.0,1022.0,1024.0,1027.0,1023.0,1024.0,1017.0,1024.0,1025.0,1029.0,1024.0,1025.0,1018.0,1026.0,1028.0,1032.0,1027.0,1027.0,1020.0,1026.0,1029.0,1034.0,1027.0,1027.0,1021.0,1027.0,1029.0,1037.0,1027.0,1027.0,1023.0,1031.0,1032.0,1040.0,1027.0,1027.0,1026.0,1030.0,1033.0,1045.0,1030.0,1028.0,1031.0,1027.0,1030.0,1041.0,1026.0,1025.0,1031.0,1029.0,1032.0,1048.0,1028.0,1026.0,1085.0,1027.0,1030.0,1046.0,1027.0,1026.0,2339,2252,1901,	00:29:22.343,-0.0126953125,0.07958984375,1.0185546875,0.18310546875,0.30517578125,0.1220703125,4.4329833984375,0.76904296875,-75.794677734375,104.0,-686.0,-4006.0,-0.788330078125,-0.034637451171875,0.018463134765625,0.613983154296875,4.4348862006724055,0.7688613709429682,-80.0022477727445,-0.7652741121563759,-0.03394832831922452,0.01973490864788415,0.6425057024247026,1,	00:29:22.344,0.02783203125,0.0234375,1.02197265625,-0.30517578125,0.0,0.48828125,1.3128662109375,-1.571044921875,41.1712646484375,-10.0,623.0,-1848.0,0.935943603515625,0.01556396484375,-0.008819580078125,0.3516845703125,1.3142525785765633,-1.5724641681377909,34.666094087799955,0.9543895850376531,0.01503476598173906,-0.009681406255827906,0.29802809625342447,1
1782117271.482549,0.099,1017.0,1023.0,1020.0,1019.0,1021.0,1024.0,1021.0,1021.0,1013.0,1020.0,1021.0,1023.0,1021.0,1021.0,1013.0,1020.0,1020.0,1022.0,1024.0,1021.0,1022.0,1013.0,1020.0,1020.0,1020.0,1021.0,1023.0,1021.0,1021.0,1013.0,1020.0,1019.0,1020.0,1020.0,1021.0,1024.0,1021.0,1022.0,1013.0,1020.0,1020.0,1021.0,1021.0,1021.0,1024.0,1021.0,1021.0,1013.0,1020.0,1020.0,1021.0,1019.0,1021.0,1022.0,1024.0,1021.0,1021.0,1013.0,1020.0,1019.0,1021.0,1019.0,1022.0,1022.0,1025.0,1021.0,1023.0,1014.0,1020.0,1021.0,1023.0,1020.0,1021.0,1022.0,1025.0,1021.0,1022.0,1013.0,1019.0,1020.0,1022.0,1019.0,1021.0,1022.0,1024.0,1021.0,1023.0,1013.0,1020.0,1020.0,1022.0,1020.0,1021.0,1022.0,1025.0,1021.0,1022.0,1014.0,1020.0,1019.0,1022.0,1019.0,1021.0,1022.0,1025.0,1021.0,1022.0,1014.0,1020.0,1020.0,1022.0,1019.0,1022.0,1023.0,1026.0,1022.0,1024.0,1015.0,1021.0,1022.0,1024.0,1022.0,1023.0,1026.0,1022.0,1023.0,1015.0,1020.0,1021.0,1021.0,1022.0,1025.0,1021.0,1022.0,1014.0,1020.0,1022.0,1023.0,1026.0,1022.0,1024.0,1015.0,1021.0,1022.0,1023.0,1026.0,1021.0,1023.0,1015.0,1021.0,1022.0,1023.0,1026.0,1022.0,1023.0,1015.0,1022.0,1023.0,1025.0,1021.0,1022.0,1015.0,1022.0,1023.0,1027.0,1022.0,1024.0,1016.0,1024.0,1024.0,1028.0,1024.0,1026.0,1018.0,1022.0,1024.0,1028.0,1023.0,1023.0,1017.0,1024.0,1025.0,1029.0,1025.0,1024.0,1018.0,1026.0,1028.0,1032.0,1027.0,1027.0,1020.0,1026.0,1028.0,1034.0,1027.0,1027.0,1021.0,1027.0,1030.0,1036.0,1026.0,1028.0,1023.0,1030.0,1032.0,1039.0,1027.0,1028.0,1026.0,1030.0,1034.0,1045.0,1029.0,1028.0,1031.0,1026.0,1030.0,1041.0,1027.0,1026.0,1031.0,1029.0,1032.0,1048.0,1027.0,1026.0,1085.0,1026.0,1031.0,1046.0,1027.0,1026.0,2339,2253,1901,	00:29:22.353,-0.0126953125,0.07958984375,1.01904296875,0.18310546875,0.30517578125,0.1220703125,4.482421875,0.692138671875,-75.794677734375,104.0,-687.0,-4005.0,-0.788360595703125,-0.0345458984375,0.019256591796875,0.61395263671875,4.4803542674129035,0.6912104825090473,-80.00024015670884,-0.7652921681497303,-0.03381722072919473,0.020508039213764328,0.6424668966401648,1,	00:29:22.354,0.02685546875,0.0234375,1.0224609375,-0.30517578125,0.06103515625,0.48828125,1.307373046875,-1.4776611328125,41.1767578125,-10.0,624.0,-1849.0,0.935943603515625,0.015228271484375,-0.008087158203125,0.351715087890625,1.3095782976039423,-1.4803380459845328,34.67102864577252,0.9543903217905018,0.014756855906449333,-0.008925565444536383,0.29806322006895447,1
1782117271.492306,0.109,1017.0,1022.0,1020.0,1020.0,1021.0,1024.0,1020.0,1021.0,1014.0,1020.0,1021.0,1023.0,1020.0,1022.0,1014.0,1020.0,1021.0,1022.0,1024.0,1021.0,1022.0,1014.0,1020.0,1020.0,1020.0,1021.0,1024.0,1020.0,1021.0,1013.0,1020.0,1019.0,1021.0,1020.0,1021.0,1024.0,1020.0,1022.0,1013.0,1020.0,1020.0,1021.0,1020.0,1021.0,1024.0,1021.0,1021.0,1013.0,1020.0,1019.0,1021.0,1018.0,1021.0,1021.0,1024.0,1021.0,1021.0,1013.0,1020.0,1020.0,1021.0,1018.0,1022.0,1023.0,1025.0,1021.0,1023.0,1013.0,1020.0,1021.0,1023.0,1021.0,1021.0,1022.0,1025.0,1020.0,1022.0,1013.0,1020.0,1020.0,1022.0,1020.0,1021.0,1023.0,1025.0,1021.0,1023.0,1014.0,1020.0,1020.0,1022.0,1020.0,1022.0,1022.0,1024.0,1021.0,1022.0,1014.0,1020.0,1020.0,1022.0,1019.0,1021.0,1022.0,1024.0,1021.0,1022.0,1013.0,1020.0,1020.0,1021.0,1019.0,1022.0,1023.0,1026.0,1021.0,1024.0,1014.0,1021.0,1022.0,1025.0,1022.0,1024.0,1026.0,1022.0,1024.0,1014.0,1020.0,1021.0,1021.0,1023.0,1026.0,1021.0,1022.0,1014.0,1020.0,1022.0,1024.0,1026.0,1021.0,1024.0,1015.0,1020.0,1022.0,1023.0,1026.0,1021.0,1023.0,1015.0,1020.0,1021.0,1023.0,1026.0,1021.0,1024.0,1015.0,1021.0,1023.0,1025.0,1021.0,1022.0,1015.0,1022.0,1023.0,1026.0,1022.0,1024.0,1016.0,1023.0,1024.0,1028.0,1023.0,1026.0,1018.0,1022.0,1024.0,1028.0,1023.0,1024.0,1017.0,1023.0,1025.0,1029.0,1024.0,1025.0,1018.0,1025.0,1028.0,1032.0,1026.0,1028.0,1020.0,1026.0,1029.0,1034.0,1026.0,1028.0,1021.0,1027.0,1030.0,1036.0,1026.0,1028.0,1023.0,1031.0,1032.0,1040.0,1027.0,1028.0,1026.0,1030.0,1034.0,1046.0,1028.0,1028.0,1031.0,1026.0,1030.0,1041.0,1026.0,1025.0,1030.0,1029.0,1032.0,1049.0,1027.0,1025.0,1084.0,1027.0,1030.0,1046.0,1027.0,1026.0,2339,2253,1901,	00:29:22.363,-0.0107421875,0.080078125,1.02001953125,0.1220703125,0.30517578125,0.1220703125,4.4879150390625,0.604248046875,-75.7891845703125,103.0,-686.0,-4006.0,-0.78839111328125,-0.034149169921875,0.019927978515625,0.613922119140625,4.490269359396896,0.6028964470136533,-79.99868764466491,-0.7653206807117758,-0.03338885502660941,0.021153201707329296,0.6424344185147659,1,	00:29:22.364,0.02783203125,0.02490234375,1.0224609375,-0.30517578125,0.0,0.42724609375,1.373291015625,-1.5435791015625,41.1767578125,-10.0,623.0,-1846.0,0.9359130859375,0.015960693359375,-0.008392333984375,0.35174560546875,1.3739723218118554,-1.5423467721967836,34.673521228793994,0.9543666496169935,0.015454499924509571,-0.00927422468752366,0.2980930144893763,1
1782117271.501773,0.118,1016.0,1022.0,1020.0,1019.0,1021.0,1023.0,1020.0,1021.0,1013.0,1020.0,1021.0,1024.0,1020.0,1021.0,1013.0,1020.0,1020.0,1022.0,1024.0,1020.0,1022.0,1014.0,1020.0,1020.0,1020.0,1021.0,1024.0,1020.0,1022.0,1013.0,1020.0,1020.0,1021.0,1021.0,1022.0,1024.0,1020.0,1022.0,1013.0,1020.0,1019.0,1021.0,1020.0,1021.0,1024.0,1020.0,1022.0,1013.0,1020.0,1020.0,1021.0,1018.0,1021.0,1022.0,1024.0,1021.0,1022.0,1013.0,1020.0,1019.0,1021.0,1018.0,1021.0,1023.0,1025.0,1021.0,1023.0,1014.0,1020.0,1021.0,1023.0,1020.0,1022.0,1023.0,1024.0,1020.0,1022.0,1014.0,1020.0,1020.0,1022.0,1019.0,1021.0,1023.0,1024.0,1020.0,1023.0,1014.0,1020.0,1020.0,1023.0,1020.0,1022.0,1023.0,1024.0,1021.0,1022.0,1014.0,1020.0,1020.0,1022.0,1019.0,1021.0,1022.0,1025.0,1020.0,1022.0,1014.0,1020.0,1019.0,1022.0,1019.0,1022.0,1023.0,1025.0,1021.0,1025.0,1015.0,1021.0,1021.0,1025.0,1022.0,1023.0,1026.0,1021.0,1024.0,1015.0,1021.0,1020.0,1022.0,1022.0,1026.0,1021.0,1022.0,1014.0,1020.0,1022.0,1023.0,1026.0,1022.0,1024.0,1015.0,1022.0,1022.0,1023.0,1026.0,1021.0,1023.0,1015.0,1020.0,1022.0,1023.0,1026.0,1021.0,1024.0,1015.0,1021.0,1022.0,1025.0,1021.0,1022.0,1015.0,1023.0,1023.0,1026.0,1022.0,1024.0,1016.0,1023.0,1025.0,1029.0,1024.0,1026.0,1018.0,1022.0,1024.0,1027.0,1023.0,1024.0,1017.0,1024.0,1026.0,1030.0,1024.0,1025.0,1018.0,1025.0,1028.0,1032.0,1026.0,1027.0,1021.0,1027.0,1029.0,1034.0,1026.0,1027.0,1022.0,1027.0,1030.0,1036.0,1026.0,1028.0,1023.0,1031.0,1031.0,1039.0,1027.0,1028.0,1027.0,1030.0,1034.0,1046.0,1029.0,1028.0,1032.0,1027.0,1030.0,1041.0,1026.0,1025.0,1031.0,1028.0,1032.0,1049.0,1028.0,1026.0,1085.0,1027.0,1031.0,1046.0,1027.0,1026.0,2339,2253,1902,	00:29:22.373,-0.01220703125,0.080078125,1.0185546875,0.06103515625,0.30517578125,0.1220703125,4.4989013671875,0.6976318359375,-75.7891845703125,104.0,-686.0,-4002.0,-0.788360595703125,-0.034698486328125,0.019287109375,0.613922119140625,4.496547079084968,0.6973302095149391,-79.99716705811458,-0.7653030167749822,-0.03396020550574274,0.0205570283794303,0.6424448657599549,1,	00:29:22.375,0.02685546875,0.02490234375,1.0205078125,-0.30517578125,0.06103515625,0.48828125,1.4227294921875,-1.4666748046875,41.1822509765625,-11.0,622.0,-1849.0,0.9359130859375,0.01611328125,-0.007598876953125,0.351776123046875,1.422097575818803,-1.4658755597798485,34.677070167803215,0.9543616706637,0.015656847635561143,-0.008511599822162272,0.2981211454401978,1
1782117271.513153,0.130,1017.0,1023.0,1019.0,1019.0,1022.0,1024.0,1020.0,1021.0,1014.0,1020.0,1022.0,1024.0,1020.0,1021.0,1013.0,1020.0,1020.0,1022.0,1024.0,1020.0,1022.0,1014.0,1020.0,1020.0,1020.0,1022.0,1024.0,1020.0,1021.0,1013.0,1020.0,1020.0,1021.0,1020.0,1022.0,1024.0,1020.0,1021.0,1013.0,1020.0,1020.0,1021.0,1021.0,1022.0,1024.0,1020.0,1021.0,1013.0,1020.0,1019.0,1021.0,1018.0,1021.0,1022.0,1025.0,1021.0,1022.0,1013.0,1020.0,1019.0,1021.0,1018.0,1021.0,1023.0,1025.0,1020.0,1023.0,1013.0,1021.0,1021.0,1022.0,1020.0,1021.0,1023.0,1025.0,1020.0,1023.0,1013.0,1020.0,1020.0,1022.0,1019.0,1021.0,1023.0,1025.0,1021.0,1022.0,1013.0,1021.0,1020.0,1022.0,1020.0,1021.0,1023.0,1025.0,1021.0,1022.0,1013.0,1020.0,1020.0,1022.0,1019.0,1021.0,1023.0,1025.0,1021.0,1022.0,1013.0,1021.0,1020.0,1022.0,1019.0,1022.0,1024.0,1026.0,1021.0,1024.0,1014.0,1021.0,1021.0,1025.0,1022.0,1024.0,1027.0,1021.0,1024.0,1014.0,1021.0,1021.0,1022.0,1023.0,1025.0,1021.0,1022.0,1015.0,1020.0,1022.0,1024.0,1027.0,1021.0,1024.0,1015.0,1021.0,1022.0,1024.0,1026.0,1021.0,1023.0,1015.0,1021.0,1022.0,1024.0,1026.0,1021.0,1023.0,1015.0,1021.0,1023.0,1026.0,1022.0,1022.0,1014.0,1022.0,1024.0,1027.0,1022.0,1024.0,1016.0,1023.0,1026.0,1028.0,1023.0,1026.0,1018.0,1022.0,1025.0,1028.0,1022.0,1024.0,1016.0,1024.0,1026.0,1030.0,1024.0,1025.0,1018.0,1026.0,1028.0,1033.0,1026.0,1027.0,1020.0,1026.0,1029.0,1034.0,1026.0,1027.0,1022.0,1027.0,1030.0,1037.0,1026.0,1028.0,1024.0,1031.0,1032.0,1040.0,1027.0,1028.0,1026.0,1030.0,1035.0,1046.0,1029.0,1028.0,1032.0,1027.0,1030.0,1041.0,1026.0,1025.0,1030.0,1029.0,1033.0,1049.0,1028.0,1026.0,1085.0,1027.0,1032.0,1046.0,1027.0,1026.0,2339,2254,1901,	00:29:22.384,-0.0126953125,0.080078125,1.01953125,0.06103515625,0.3662109375,0.1220703125,4.4659423828125,0.7855224609375,-75.7891845703125,103.0,-687.0,-4001.0,-0.788360595703125,-0.034942626953125,0.01849365234375,0.61395263671875,4.463315793735272,0.7860633427040175,-79.9961006937213,-0.7652955942159674,-0.034235637806583924,0.019777545104253554,0.6424635579449274,1,	00:29:22.385,0.02734375,0.0244140625,1.02099609375,-0.30517578125,0.06103515625,0.48828125,1.3623046875,-1.5380859375,41.187744140625,-12.0,622.0,-1847.0,0.935882568359375,0.015838623046875,-0.008392333984375,0.351837158203125,1.3629088613825617,-1.5379711492660382,34.683438299699894,0.9543429611533439,0.015351789757626017,-0.009265230318091724,0.29817442974785346,1
1782117271.522870,0.140,1017.0,1022.0,1019.0,1019.0,1021.0,1024.0,1020.0,1021.0,1013.0,1020.0,1021.0,1023.0,1020.0,1021.0,1013.0,1020.0,1020.0,1022.0,1024.0,1021.0,1022.0,1013.0,1020.0,1020.0,1021.0,1022.0,1024.0,1020.0,1022.0,1013.0,1020.0,1019.0,1021.0,1020.0,1021.0,1024.0,1021.0,1022.0,1012.0,1020.0,1020.0,1021.0,1021.0,1022.0,1024.0,1020.0,1021.0,1013.0,1020.0,1019.0,1021.0,1018.0,1020.0,1022.0,1024.0,1020.0,1022.0,1012.0,1020.0,1020.0,1022.0,1019.0,1021.0,1023.0,1025.0,1021.0,1023.0,1013.0,1021.0,1021.0,1022.0,1020.0,1022.0,1022.0,1025.0,1021.0,1023.0,1013.0,1021.0,1019.0,1022.0,1019.0,1022.0,1022.0,1024.0,1021.0,1023.0,1013.0,1021.0,1021.0,1022.0,1019.0,1021.0,1022.0,1024.0,1020.0,1023.0,1013.0,1020.0,1020.0,1021.0,1019.0,1021.0,1022.0,1024.0,1020.0,1022.0,1013.0,1021.0,1020.0,1022.0,1019.0,1022.0,1023.0,1025.0,1021.0,1025.0,1014.0,1021.0,1022.0,1025.0,1022.0,1023.0,1025.0,1021.0,1024.0,1014.0,1021.0,1021.0,1021.0,1023.0,1025.0,1021.0,1023.0,1014.0,1021.0,1022.0,1024.0,1026.0,1022.0,1025.0,1015.0,1021.0,1022.0,1023.0,1026.0,1021.0,1023.0,1015.0,1021.0,1022.0,1023.0,1026.0,1021.0,1024.0,1015.0,1021.0,1023.0,1025.0,1021.0,1022.0,1014.0,1023.0,1024.0,1026.0,1022.0,1024.0,1016.0,1023.0,1025.0,1028.0,1024.0,1026.0,1017.0,1022.0,1024.0,1027.0,1023.0,1024.0,1016.0,1024.0,1025.0,1029.0,1025.0,1025.0,1018.0,1025.0,1028.0,1033.0,1027.0,1027.0,1020.0,1026.0,1029.0,1034.0,1026.0,1027.0,1021.0,1027.0,1030.0,1036.0,1027.0,1028.0,1023.0,1031.0,1032.0,1040.0,1027.0,1028.0,1026.0,1030.0,1034.0,1046.0,1029.0,1028.0,1031.0,1026.0,1031.0,1042.0,1026.0,1025.0,1030.0,1029.0,1033.0,1049.0,1027.0,1026.0,1085.0,1027.0,1032.0,1046.0,1027.0,1026.0,2339,2254,1901,	00:29:22.394,-0.01220703125,0.0791015625,1.02001953125,0.06103515625,0.3662109375,0.1220703125,4.4384765625,0.703125,-75.7891845703125,104.0,-687.0,-4002.0,-0.78839111328125,-0.034332275390625,0.018951416015625,0.613922119140625,4.4390287473048575,0.7014505911753928,-79.99492243961876,-0.7653314876379116,-0.03359954704811554,0.020206367908545183,0.642441037889118,1,	00:29:22.395,0.02685546875,0.02392578125,1.02001953125,-0.244140625,0.06103515625,0.48828125,1.3128662109375,-1.461181640625,41.1932373046875,-11.0,624.0,-1845.0,0.935882568359375,0.01519775390625,-0.007904052734375,0.35186767578125,1.3111884223627455,-1.4601458210941525,34.68962012908249,0.9543445024514633,0.014719213601120523,-0.008750800285029513,0.2982169325943869,1
1782117271.532435,0.149,1017.0,1023.0,1019.0,1019.0,1021.0,1023.0,1020.0,1022.0,1014.0,1020.0,1022.0,1023.0,1020.0,1021.0,1013.0,1020.0,1020.0,1022.0,1024.0,1021.0,1022.0,1013.0,1020.0,1020.0,1021.0,1021.0,1024.0,1020.0,1022.0,1013.0,1020.0,1019.0,1020.0,1021.0,1022.0,1024.0,1020.0,1021.0,1013.0,1020.0,1020.0,1021.0,1021.0,1022.0,1024.0,1020.0,1022.0,1013.0,1020.0,1020.0,1021.0,1018.0,1020.0,1021.0,1024.0,1021.0,1022.0,1013.0,1021.0,1020.0,1021.0,1019.0,1021.0,1022.0,1024.0,1021.0,1023.0,1014.0,1020.0,1021.0,1022.0,1020.0,1021.0,1022.0,1024.0,1021.0,1022.0,1013.0,1021.0,1020.0,1022.0,1019.0,1022.0,1022.0,1024.0,1020.0,1023.0,1013.0,1020.0,1020.0,1022.0,1020.0,1021.0,1022.0,1024.0,1021.0,1022.0,1013.0,1021.0,1020.0,1022.0,1019.0,1021.0,1023.0,1025.0,1021.0,1022.0,1014.0,1020.0,1020.0,1022.0,1019.0,1022.0,1023.0,1025.0,1021.0,1025.0,1014.0,1021.0,1022.0,1024.0,1022.0,1023.0,1026.0,1021.0,1024.0,1014.0,1021.0,1021.0,1021.0,1023.0,1026.0,1021.0,1022.0,1014.0,1020.0,1022.0,1024.0,1026.0,1022.0,1024.0,1015.0,1021.0,1022.0,1023.0,1026.0,1021.0,1023.0,1015.0,1021.0,1022.0,1023.0,1026.0,1022.0,1023.0,1015.0,1022.0,1023.0,1026.0,1021.0,1022.0,1014.0,1022.0,1024.0,1026.0,1022.0,1024.0,1016.0,1024.0,1025.0,1028.0,1024.0,1026.0,1017.0,1023.0,1024.0,1027.0,1023.0,1024.0,1016.0,1024.0,1027.0,1029.0,1025.0,1025.0,1018.0,1026.0,1029.0,1032.0,1026.0,1027.0,1020.0,1026.0,1030.0,1034.0,1026.0,1027.0,1021.0,1027.0,1030.0,1037.0,1027.0,1027.0,1023.0,1031.0,1033.0,1040.0,1027.0,1028.0,1026.0,1030.0,1034.0,1046.0,1029.0,1028.0,1031.0,1027.0,1030.0,1042.0,1026.0,1026.0,1030.0,1029.0,1033.0,1049.0,1027.0,1026.0,1084.0,1027.0,1031.0,1047.0,1028.0,1026.0,2339,2254,1901,	00:29:22.404,-0.0126953125,0.0791015625,1.01806640625,-0.06103515625,0.42724609375,0.18310546875,4.471435546875,0.791015625,-75.78369140625,102.0,-687.0,-4005.0,-0.78839111328125,-0.035003662109375,0.01849365234375,0.613922119140625,4.468764370897765,0.7920137505171108,-79.9923714189882,-0.7653132985604905,-0.03430600911734888,0.019767218989149682,0.642439032000965,1,	00:29:22.405,0.02734375,0.0244140625,1.02099609375,-0.18310546875,0.1220703125,0.42724609375,1.3677978515625,-1.5325927734375,41.1932373046875,-9.0,623.0,-1851.0,0.93585205078125,0.015869140625,-0.00830078125,0.351898193359375,1.366364784608578,-1.5306722560730164,34.69243130420042,0.9543201347904208,0.01536232024836277,-0.009194239391193544,0.29824913312899526,1
1782117271.543964,0.161,1017.0,1023.0,1019.0,1019.0,1021.0,1024.0,1020.0,1021.0,1013.0,1020.0,1021.0,1024.0,1020.0,1021.0,1013.0,1019.0,1020.0,1022.0,1024.0,1020.0,1022.0,1013.0,1020.0,1020.0,1020.0,1022.0,1024.0,1021.0,1022.0,1013.0,1019.0,1019.0,1020.0,1021.0,1022.0,1024.0,1020.0,1022.0,1013.0,1019.0,1020.0,1021.0,1021.0,1021.0,1024.0,1021.0,1022.0,1012.0,1019.0,1020.0,1021.0,1018.0,1020.0,1022.0,1024.0,1021.0,1021.0,1013.0,1020.0,1019.0,1021.0,1018.0,1021.0,1023.0,1025.0,1021.0,1023.0,1013.0,1020.0,1021.0,1023.0,1020.0,1022.0,1023.0,1025.0,1021.0,1022.0,1013.0,1020.0,1020.0,1022.0,1019.0,1021.0,1022.0,1025.0,1021.0,1023.0,1013.0,1020.0,1020.0,1022.0,1020.0,1021.0,1022.0,1025.0,1021.0,1022.0,1014.0,1020.0,1020.0,1022.0,1019.0,1021.0,1023.0,1025.0,1021.0,1022.0,1013.0,1020.0,1020.0,1022.0,1019.0,1022.0,1024.0,1026.0,1021.0,1025.0,1014.0,1020.0,1022.0,1025.0,1022.0,1024.0,1026.0,1021.0,1024.0,1014.0,1021.0,1021.0,1021.0,1023.0,1025.0,1021.0,1023.0,1014.0,1020.0,1022.0,1024.0,1026.0,1021.0,1025.0,1014.0,1021.0,1022.0,1023.0,1026.0,1021.0,1024.0,1014.0,1020.0,1022.0,1023.0,1026.0,1022.0,1024.0,1015.0,1021.0,1023.0,1025.0,1021.0,1022.0,1014.0,1022.0,1023.0,1026.0,1022.0,1024.0,1016.0,1023.0,1025.0,1029.0,1024.0,1027.0,1017.0,1022.0,1024.0,1028.0,1023.0,1024.0,1016.0,1024.0,1027.0,1029.0,1025.0,1026.0,1018.0,1025.0,1028.0,1033.0,1027.0,1028.0,1020.0,1026.0,1030.0,1034.0,1026.0,1028.0,1021.0,1027.0,1031.0,1037.0,1026.0,1029.0,1022.0,1031.0,1033.0,1041.0,1027.0,1028.0,1026.0,1030.0,1034.0,1047.0,1029.0,1028.0,1030.0,1027.0,1031.0,1042.0,1027.0,1025.0,1030.0,1028.0,1032.0,1050.0,1028.0,1026.0,1084.0,1027.0,1032.0,1048.0,1027.0,1026.0,2339,2255,1901,	00:29:22.414,-0.01220703125,0.0791015625,1.01953125,-0.1220703125,0.3662109375,0.18310546875,4.4439697265625,0.7086181640625,-75.78369140625,101.0,-685.0,-4003.0,-0.788421630859375,-0.03436279296875,0.0189208984375,0.6138916015625,4.4413466578591025,0.7077373367806864,-79.99060269038603,-0.7653534008088825,-0.03365101417125116,0.02017608991598859,0.6424131898639894,1,	00:29:22.416,0.0283203125,0.02490234375,1.0224609375,-0.244140625,0.1220703125,0.48828125,1.40625,-1.6094970703125,41.19873046875,-11.0,620.0,-1847.0,0.93585205078125,0.01641845703125,-0.00885009765625,0.3519287109375,1.4060434786253646,-1.610867643457686,34.69618707500724,0.9542932665407894,0.01590158899963383,-0.009758376025078461,0.29828891196212726,1
1782117271.552780,0.169,1017.0,1024.0,1020.0,1019.0,1022.0,1024.0,1020.0,1021.0,1013.0,1020.0,1022.0,1024.0,1020.0,1021.0,1012.0,1020.0,1020.0,1022.0,1025.0,1021.0,1022.0,1013.0,1020.0,1021.0,1021.0,1021.0,1024.0,1020.0,1022.0,1012.0,1020.0,1020.0,1021.0,1021.0,1021.0,1024.0,1021.0,1022.0,1013.0,1020.0,1020.0,1021.0,1020.0,1022.0,1024.0,1020.0,1021.0,1012.0,1020.0,1020.0,1021.0,1018.0,1020.0,1021.0,1025.0,1021.0,1021.0,1012.0,1020.0,1019.0,1021.0,1018.0,1021.0,1023.0,1025.0,1021.0,1023.0,1014.0,1020.0,1021.0,1023.0,1020.0,1022.0,1023.0,1025.0,1021.0,1022.0,1013.0,1020.0,1020.0,1022.0,1019.0,1021.0,1023.0,1025.0,1020.0,1023.0,1013.0,1020.0,1020.0,1022.0,1020.0,1022.0,1023.0,1025.0,1021.0,1022.0,1013.0,1021.0,1020.0,1022.0,1019.0,1021.0,1023.0,1025.0,1021.0,1022.0,1013.0,1020.0,1020.0,1022.0,1019.0,1022.0,1024.0,1026.0,1021.0,1025.0,1014.0,1021.0,1022.0,1025.0,1022.0,1024.0,1026.0,1020.0,1024.0,1014.0,1020.0,1021.0,1022.0,1024.0,1026.0,1021.0,1023.0,1013.0,1020.0,1022.0,1024.0,1027.0,1021.0,1024.0,1015.0,1021.0,1021.0,1023.0,1027.0,1021.0,1023.0,1015.0,1020.0,1022.0,1024.0,1026.0,1022.0,1023.0,1015.0,1021.0,1023.0,1026.0,1021.0,1022.0,1013.0,1022.0,1024.0,1027.0,1022.0,1024.0,1016.0,1024.0,1026.0,1029.0,1023.0,1026.0,1018.0,1023.0,1025.0,1028.0,1023.0,1024.0,1017.0,1024.0,1027.0,1030.0,1024.0,1025.0,1018.0,1026.0,1029.0,1033.0,1026.0,1028.0,1020.0,1026.0,1030.0,1035.0,1026.0,1028.0,1021.0,1027.0,1031.0,1037.0,1026.0,1028.0,1023.0,1031.0,1033.0,1041.0,1028.0,1028.0,1026.0,1030.0,1035.0,1047.0,1029.0,1028.0,1031.0,1026.0,1031.0,1043.0,1026.0,1025.0,1030.0,1028.0,1033.0,1050.0,1028.0,1026.0,1085.0,1027.0,1032.0,1049.0,1027.0,1026.0,2339,2255,1901,	00:29:22.425,-0.01220703125,0.0791015625,1.01904296875,-0.06103515625,0.3662109375,0.18310546875,4.427490234375,0.6207275390625,-75.78369140625,103.0,-688.0,-4004.0,-0.7884521484375,-0.0338134765625,0.01947021484375,0.613861083984375,4.430083503121076,0.6202167918783845,-79.98861665280023,-0.7653901985310174,-0.03308576452239272,0.020697151794786164,0.6423821324462582,1,	00:29:22.426,0.02734375,0.02490234375,1.02197265625,-0.18310546875,0.244140625,0.48828125,1.3897705078125,-1.51611328125,41.2042236328125,-10.0,621.0,-1844.0,0.93585205078125,0.016021728515625,-0.00811767578125,0.351959228515625,1.3923019776364922,-1.5176739255427418,34.70145013841431,0.9542950075039406,0.015545238770744456,-0.009017247676004526,0.29832544887918006,1
1782117271.563304,0.180,1017.0,1024.0,1019.0,1020.0,1022.0,1024.0,1020.0,1021.0,1013.0,1020.0,1022.0,1024.0,1020.0,1021.0,1013.0,1020.0,1021.0,1022.0,1024.0,1021.0,1022.0,1013.0,1020.0,1020.0,1020.0,1022.0,1025.0,1021.0,1021.0,1012.0,1020.0,1019.0,1021.0,1020.0,1022.0,1025.0,1021.0,1022.0,1012.0,1019.0,1020.0,1021.0,1020.0,1022.0,1025.0,1020.0,1021.0,1012.0,1020.0,1019.0,1020.0,1019.0,1021.0,1022.0,1024.0,1020.0,1021.0,1012.0,1020.0,1020.0,1021.0,1018.0,1021.0,1023.0,1025.0,1021.0,1023.0,1013.0,1021.0,1021.0,1023.0,1020.0,1021.0,1023.0,1025.0,1021.0,1022.0,1013.0,1020.0,1020.0,1021.0,1019.0,1021.0,1023.0,1025.0,1021.0,1022.0,1013.0,1020.0,1021.0,1022.0,1019.0,1021.0,1023.0,1025.0,1021.0,1022.0,1013.0,1020.0,1020.0,1022.0,1019.0,1021.0,1023.0,1025.0,1021.0,1022.0,1013.0,1020.0,1019.0,1022.0,1019.0,1022.0,1024.0,1026.0,1021.0,1025.0,1015.0,1021.0,1022.0,1025.0,1022.0,1024.0,1026.0,1022.0,1024.0,1014.0,1020.0,1020.0,1021.0,1024.0,1026.0,1021.0,1022.0,1014.0,1020.0,1021.0,1024.0,1027.0,1022.0,1024.0,1015.0,1020.0,1022.0,1024.0,1027.0,1021.0,1023.0,1015.0,1021.0,1022.0,1024.0,1026.0,1022.0,1023.0,1015.0,1021.0,1023.0,1026.0,1021.0,1022.0,1014.0,1023.0,1024.0,1027.0,1022.0,1024.0,1016.0,1024.0,1025.0,1030.0,1024.0,1027.0,1018.0,1022.0,1025.0,1028.0,1023.0,1024.0,1016.0,1023.0,1027.0,1030.0,1024.0,1025.0,1018.0,1025.0,1029.0,1033.0,1026.0,1027.0,1020.0,1026.0,1030.0,1035.0,1026.0,1027.0,1021.0,1027.0,1032.0,1038.0,1027.0,1028.0,1023.0,1031.0,1034.0,1041.0,1028.0,1028.0,1026.0,1030.0,1035.0,1049.0,1030.0,1028.0,1031.0,1027.0,1031.0,1043.0,1026.0,1025.0,1030.0,1028.0,1033.0,1051.0,1028.0,1026.0,1085.0,1026.0,1032.0,1049.0,1028.0,1026.0,2339,2255,1900,	00:29:22.435,-0.01318359375,0.0791015625,1.01904296875,-0.1220703125,0.3662109375,0.18310546875,4.4329833984375,0.714111328125,-75.7781982421875,103.0,-690.0,-4003.0,-0.7884521484375,-0.03436279296875,0.018829345703125,0.613861083984375,4.435436866262449,0.71515200455151,-79.98643275272426,-0.7653765951902487,-0.033653817749148614,0.02009219193233502,0.6423880384232284,1,	00:29:22.436,0.02685546875,0.02490234375,1.02197265625,-0.244140625,0.244140625,0.48828125,1.4117431640625,-1.42822265625,41.209716796875,-11.0,622.0,-1846.0,0.935821533203125,0.01593017578125,-0.00732421875,0.35198974609375,1.4141156279073714,-1.4269950491647696,34.705764024311954,0.9542934154169597,0.015491375972726205,-0.008204642502532068,0.2983567971468242,1
1782117271.573117,0.190,1017.0,1024.0,1019.0,1019.0,1022.0,1024.0,1020.0,1022.0,1013.0,1020.0,1022.0,1024.0,1020.0,1021.0,1012.0,1020.0,1020.0,1022.0,1025.0,1021.0,1022.0,1012.0,1020.0,1020.0,1020.0,1023.0,1024.0,1021.0,1021.0,1013.0,1020.0,1019.0,1020.0,1020.0,1022.0,1024.0,1021.0,1022.0,1012.0,1020.0,1020.0,1021.0,1021.0,1022.0,1025.0,1020.0,1022.0,1012.0,1020.0,1020.0,1021.0,1018.0,1021.0,1022.0,1025.0,1020.0,1021.0,1012.0,1020.0,1019.0,1020.0,1018.0,1021.0,1024.0,1025.0,1020.0,1023.0,1013.0,1020.0,1021.0,1022.0,1020.0,1021.0,1023.0,1025.0,1021.0,1022.0,1012.0,1020.0,1020.0,1021.0,1019.0,1021.0,1023.0,1025.0,1021.0,1022.0,1013.0,1020.0,1020.0,1022.0,1019.0,1021.0,1024.0,1025.0,1021.0,1022.0,1013.0,1020.0,1019.0,1021.0,1019.0,1021.0,1023.0,1026.0,1021.0,1022.0,1013.0,1020.0,1020.0,1022.0,1019.0,1022.0,1025.0,1026.0,1021.0,1024.0,1014.0,1021.0,1022.0,1025.0,1022.0,1025.0,1026.0,1021.0,1024.0,1014.0,1021.0,1021.0,1021.0,1024.0,1026.0,1021.0,1022.0,1013.0,1020.0,1021.0,1025.0,1027.0,1021.0,1024.0,1014.0,1021.0,1022.0,1024.0,1027.0,1021.0,1022.0,1014.0,1021.0,1022.0,1025.0,1027.0,1021.0,1023.0,1015.0,1021.0,1024.0,1026.0,1021.0,1021.0,1013.0,1023.0,1025.0,1028.0,1022.0,1024.0,1015.0,1023.0,1026.0,1030.0,1024.0,1025.0,1017.0,1022.0,1025.0,1028.0,1023.0,1024.0,1017.0,1024.0,1028.0,1030.0,1024.0,1024.0,1018.0,1026.0,1031.0,1033.0,1027.0,1027.0,1020.0,1026.0,1031.0,1035.0,1027.0,1027.0,1021.0,1027.0,1033.0,1038.0,1027.0,1027.0,1023.0,1031.0,1033.0,1041.0,1027.0,1028.0,1026.0,1030.0,1035.0,1049.0,1030.0,1027.0,1031.0,1027.0,1032.0,1044.0,1027.0,1025.0,1030.0,1029.0,1033.0,1052.0,1028.0,1026.0,1085.0,1027.0,1032.0,1049.0,1027.0,1026.0,2339,2255,1901,	00:29:22.445,-0.01171875,0.080078125,1.01904296875,-0.06103515625,0.3662109375,0.18310546875,4.4989013671875,0.6536865234375,-75.7781982421875,102.0,-687.0,-4003.0,-0.7884521484375,-0.03448486328125,0.019622802734375,0.613800048828125,4.499277882379511,0.6535769895632308,-79.98355406780354,-0.7653898765729448,-0.03373576151807231,0.020860653368824776,0.6423434193447254,1,	00:29:22.446,0.02734375,0.0244140625,1.02197265625,-0.18310546875,0.30517578125,0.48828125,1.373291015625,-1.5106201171875,41.2152099609375,-8.0,623.0,-1846.0,0.935821533203125,0.015869140625,-0.008087158203125,0.35205078125,1.3756815502059723,-1.5081627271416969,34.71165782127052,0.9542720170484256,0.015382891056172783,-0.008979931227672655,0.2984085202808885,1
1782117271.584647,0.201,1017.0,1024.0,1019.0,1019.0,1022.0,1025.0,1020.0,1021.0,1012.0,1020.0,1022.0,1025.0,1020.0,1021.0,1012.0,1020.0,1021.0,1022.0,1025.0,1021.0,1022.0,1012.0,1020.0,1020.0,1020.0,1022.0,1025.0,1020.0,1021.0,1012.0,1020.0,1019.0,1021.0,1020.0,1022.0,1024.0,1021.0,1022.0,1012.0,1020.0,1020.0,1021.0,1020.0,1021.0,1024.0,1020.0,1021.0,1012.0,1020.0,1019.0,1021.0,1018.0,1020.0,1022.0,1025.0,1021.0,1021.0,1012.0,1020.0,1019.0,1021.0,1018.0,1021.0,1023.0,1026.0,1021.0,1023.0,1012.0,1020.0,1021.0,1022.0,1020.0,1021.0,1023.0,1026.0,1020.0,1022.0,1013.0,1020.0,1020.0,1022.0,1019.0,1022.0,1023.0,1026.0,1021.0,1022.0,1013.0,1020.0,1020.0,1022.0,1019.0,1021.0,1023.0,1026.0,1020.0,1022.0,1013.0,1020.0,1020.0,1022.0,1019.0,1021.0,1023.0,1026.0,1021.0,1022.0,1013.0,1020.0,1020.0,1022.0,1018.0,1021.0,1024.0,1027.0,1021.0,1024.0,1014.0,1021.0,1022.0,1025.0,1022.0,1024.0,1027.0,1021.0,1023.0,1014.0,1021.0,1021.0,1021.0,1024.0,1026.0,1021.0,1022.0,1013.0,1020.0,1022.0,1024.0,1027.0,1021.0,1024.0,1014.0,1021.0,1022.0,1024.0,1027.0,1021.0,1023.0,1014.0,1021.0,1021.0,1024.0,1027.0,1022.0,1023.0,1014.0,1021.0,1023.0,1026.0,1021.0,1022.0,1013.0,1022.0,1024.0,1028.0,1022.0,1024.0,1015.0,1023.0,1025.0,1030.0,1024.0,1026.0,1018.0,1023.0,1025.0,1029.0,1023.0,1024.0,1016.0,1023.0,1027.0,1030.0,1024.0,1025.0,1017.0,1025.0,1030.0,1034.0,1027.0,1027.0,1019.0,1026.0,1031.0,1036.0,1027.0,1027.0,1020.0,1027.0,1032.0,1039.0,1028.0,1028.0,1022.0,1031.0,1034.0,1042.0,1028.0,1028.0,1026.0,1030.0,1036.0,1048.0,1030.0,1028.0,1030.0,1027.0,1031.0,1044.0,1027.0,1025.0,1030.0,1028.0,1033.0,1052.0,1029.0,1026.0,1085.0,1026.0,1032.0,1049.0,1028.0,1026.0,2339,2255,1901,	00:29:22.456,-0.01220703125,0.080078125,1.01904296875,0.0,0.42724609375,0.18310546875,4.482421875,0.7470703125,-75.772705078125,101.0,-687.0,-4006.0,-0.7884521484375,-0.03485107421875,0.01885986328125,0.61383056640625,4.481361612232415,0.7475929217097597,-79.98161269546405,-0.7653815696031656,-0.03414315189493803,0.020131439194421317,0.6423550601080643,1,	00:29:22.457,0.02734375,0.0244140625,1.0224609375,-0.244140625,0.18310546875,0.48828125,1.3458251953125,-1.593017578125,41.220703125,-11.0,622.0,-1845.0,0.935791015625,0.015869140625,-0.008880615234375,0.35211181640625,1.343850593411916,-1.593315447707039,34.717378572409274,0.9542491578394877,0.01533982468682865,-0.00977124257265302,0.29845897098226437,1
1782117271.593557,0.210,1016.0,1024.0,1019.0,1019.0,1022.0,1025.0,1020.0,1021.0,1012.0,1019.0,1022.0,1025.0,1021.0,1021.0,1012.0,1020.0,1020.0,1022.0,1025.0,1021.0,1022.0,1013.0,1020.0,1020.0,1020.0,1022.0,1025.0,1020.0,1022.0,1012.0,1020.0,1019.0,1020.0,1021.0,1022.0,1025.0,1021.0,1021.0,1012.0,1020.0,1020.0,1021.0,1020.0,1023.0,1025.0,1020.0,1022.0,1012.0,1020.0,1019.0,1021.0,1018.0,1020.0,1022.0,1025.0,1021.0,1021.0,1012.0,1020.0,1019.0,1021.0,1018.0,1021.0,1023.0,1026.0,1021.0,1023.0,1012.0,1021.0,1021.0,1023.0,1020.0,1021.0,1023.0,1025.0,1021.0,1022.0,1013.0,1020.0,1020.0,1022.0,1019.0,1021.0,1023.0,1026.0,1020.0,1022.0,1013.0,1021.0,1020.0,1022.0,1020.0,1021.0,1023.0,1026.0,1021.0,1022.0,1012.0,1020.0,1020.0,1021.0,1019.0,1021.0,1023.0,1025.0,1021.0,1022.0,1013.0,1020.0,1020.0,1021.0,1019.0,1022.0,1024.0,1027.0,1022.0,1024.0,1014.0,1021.0,1022.0,1024.0,1022.0,1024.0,1026.0,1021.0,1023.0,1013.0,1021.0,1021.0,1022.0,1024.0,1027.0,1021.0,1022.0,1013.0,1020.0,1022.0,1025.0,1027.0,1022.0,1024.0,1014.0,1021.0,1022.0,1024.0,1027.0,1022.0,1023.0,1014.0,1021.0,1021.0,1024.0,1027.0,1022.0,1023.0,1014.0,1021.0,1023.0,1027.0,1022.0,1021.0,1013.0,1022.0,1024.0,1029.0,1023.0,1024.0,1015.0,1023.0,1026.0,1030.0,1024.0,1026.0,1017.0,1022.0,1025.0,1029.0,1024.0,1024.0,1015.0,1023.0,1027.0,1031.0,1025.0,1025.0,1017.0,1025.0,1030.0,1035.0,1028.0,1028.0,1020.0,1026.0,1030.0,1036.0,1028.0,1028.0,1020.0,1027.0,1032.0,1039.0,1028.0,1028.0,1023.0,1031.0,1034.0,1042.0,1028.0,1028.0,1026.0,1030.0,1036.0,1049.0,1030.0,1028.0,1031.0,1027.0,1032.0,1045.0,1027.0,1025.0,1029.0,1028.0,1034.0,1053.0,1030.0,1026.0,1085.0,1026.0,1033.0,1050.0,1029.0,1026.0,2339,2255,1901,	00:29:22.466,-0.0126953125,0.07958984375,1.01806640625,0.0,0.3662109375,0.1220703125,4.4549560546875,0.6646728515625,-75.772705078125,101.0,-688.0,-4006.0,-0.788482666015625,-0.034210205078125,0.019287109375,0.613800048828125,4.453655773935028,0.6638274495238847,-79.9804509140961,-0.7654180144331366,-0.033489021048059765,0.020535517420885534,0.6423332788940129,1,	00:29:22.467,0.02685546875,0.025390625,1.0224609375,-0.244140625,0.244140625,0.42724609375,1.4007568359375,-1.5216064453125,41.220703125,-9.0,620.0,-1842.0,0.935791015625,0.01611328125,-0.00811767578125,0.35211181640625,1.4019324840434797,-1.5222079679065172,34.72005863607176,0.9542445946967124,0.015638697379709108,-0.009027398664403117,0.2984814746508177,1
1782117271.604111,0.221,1016.0,1024.0,1020.0,1019.0,1022.0,1024.0,1020.0,1020.0,1012.0,1019.0,1022.0,1025.0,1021.0,1021.0,1012.0,1020.0,1020.0,1022.0,1025.0,1020.0,1022.0,1012.0,1020.0,1020.0,1021.0,1022.0,1025.0,1021.0,1021.0,1011.0,1020.0,1019.0,1020.0,1020.0,1022.0,1025.0,1021.0,1021.0,1012.0,1020.0,1020.0,1021.0,1021.0,1022.0,1025.0,1021.0,1021.0,1011.0,1020.0,1020.0,1021.0,1018.0,1020.0,1022.0,1025.0,1021.0,1021.0,1012.0,1020.0,1019.0,1021.0,1018.0,1021.0,1023.0,1026.0,1021.0,1023.0,1013.0,1020.0,1021.0,1023.0,1020.0,1021.0,1023.0,1025.0,1021.0,1022.0,1012.0,1020.0,1020.0,1022.0,1019.0,1021.0,1024.0,1025.0,1021.0,1023.0,1012.0,1020.0,1020.0,1022.0,1020.0,1021.0,1023.0,1026.0,1022.0,1022.0,1013.0,1020.0,1020.0,1022.0,1019.0,1021.0,1022.0,1026.0,1021.0,1022.0,1013.0,1020.0,1020.0,1022.0,1019.0,1022.0,1024.0,1026.0,1022.0,1024.0,1013.0,1021.0,1021.0,1025.0,1022.0,1025.0,1027.0,1021.0,1024.0,1013.0,1021.0,1021.0,1021.0,1024.0,1026.0,1021.0,1022.0,1013.0,1020.0,1022.0,1024.0,1027.0,1021.0,1024.0,1014.0,1021.0,1021.0,1024.0,1027.0,1022.0,1022.0,1014.0,1021.0,1022.0,1024.0,1027.0,1022.0,1023.0,1014.0,1021.0,1024.0,1026.0,1021.0,1021.0,1013.0,1022.0,1024.0,1028.0,1023.0,1024.0,1015.0,1023.0,1026.0,1030.0,1024.0,1026.0,1017.0,1022.0,1025.0,1028.0,1023.0,1024.0,1016.0,1023.0,1027.0,1031.0,1025.0,1025.0,1017.0,1025.0,1029.0,1034.0,1028.0,1027.0,1019.0,1026.0,1030.0,1036.0,1027.0,1028.0,1020.0,1027.0,1032.0,1039.0,1028.0,1028.0,1022.0,1031.0,1034.0,1042.0,1028.0,1027.0,1026.0,1031.0,1036.0,1049.0,1031.0,1028.0,1031.0,1027.0,1032.0,1045.0,1027.0,1025.0,1031.0,1028.0,1034.0,1053.0,1029.0,1026.0,1086.0,1026.0,1032.0,1050.0,1029.0,1026.0,2339,2255,1901,	00:29:22.476,-0.01171875,0.0791015625,1.01904296875,0.0,0.42724609375,0.1220703125,4.37255859375,0.6317138671875,-75.772705078125,101.0,-690.0,-4001.0,-0.78851318359375,-0.033477783203125,0.019073486328125,0.613800048828125,4.370647100204496,0.6297172967026735,-79.97983914735457,-0.7654540825483939,-0.032743554909132076,0.02029796982527703,0.6423362822874646,1,	00:29:22.477,0.02685546875,0.02587890625,1.02197265625,-0.244140625,0.18310546875,0.48828125,1.483154296875,-1.4886474609375,41.2261962890625,-9.0,622.0,-1846.0,0.935760498046875,0.0167236328125,-0.007598876953125,0.352142333984375,1.4856847333002712,-1.4895880094112224,34.72271714048179,0.9542306559564268,0.016251450400275848,-0.008537201965618623,0.2985077248170526,1
1782117271.613891,0.231,1017.0,1024.0,1020.0,1020.0,1022.0,1025.0,1020.0,1021.0,1012.0,1020.0,1021.0,1025.0,1021.0,1021.0,1011.0,1020.0,1021.0,1022.0,1025.0,1021.0,1022.0,1012.0,1019.0,1020.0,1020.0,1022.0,1024.0,1021.0,1021.0,1012.0,1020.0,1020.0,1021.0,1021.0,1022.0,1025.0,1020.0,1022.0,1012.0,1020.0,1020.0,1021.0,1021.0,1022.0,1025.0,1021.0,1021.0,1012.0,1020.0,1019.0,1021.0,1019.0,1021.0,1022.0,1025.0,1020.0,1022.0,1012.0,1020.0,1020.0,1021.0,1019.0,1022.0,1022.0,1026.0,1021.0,1023.0,1012.0,1020.0,1021.0,1022.0,1020.0,1021.0,1022.0,1026.0,1021.0,1022.0,1012.0,1020.0,1020.0,1022.0,1019.0,1022.0,1023.0,1025.0,1021.0,1022.0,1012.0,1020.0,1021.0,1022.0,1020.0,1022.0,1023.0,1026.0,1021.0,1022.0,1012.0,1021.0,1020.0,1022.0,1019.0,1022.0,1022.0,1025.0,1021.0,1022.0,1012.0,1020.0,1020.0,1022.0,1019.0,1022.0,1024.0,1027.0,1021.0,1024.0,1013.0,1021.0,1022.0,1025.0,1022.0,1024.0,1027.0,1021.0,1024.0,1013.0,1020.0,1021.0,1022.0,1023.0,1026.0,1021.0,1021.0,1013.0,1020.0,1022.0,1024.0,1027.0,1022.0,1024.0,1014.0,1021.0,1022.0,1023.0,1027.0,1021.0,1023.0,1013.0,1020.0,1022.0,1024.0,1027.0,1021.0,1023.0,1014.0,1021.0,1023.0,1027.0,1021.0,1021.0,1013.0,1022.0,1024.0,1028.0,1022.0,1024.0,1015.0,1023.0,1025.0,1030.0,1024.0,1026.0,1017.0,1022.0,1025.0,1028.0,1024.0,1024.0,1015.0,1024.0,1027.0,1031.0,1025.0,1025.0,1016.0,1025.0,1030.0,1034.0,1028.0,1027.0,1019.0,1026.0,1030.0,1036.0,1027.0,1027.0,1019.0,1027.0,1032.0,1039.0,1028.0,1028.0,1022.0,1031.0,1034.0,1042.0,1028.0,1028.0,1026.0,1030.0,1036.0,1049.0,1031.0,1027.0,1031.0,1027.0,1032.0,1045.0,1028.0,1025.0,1031.0,1028.0,1034.0,1053.0,1030.0,1026.0,1086.0,1026.0,1033.0,1050.0,1029.0,1025.0,2339,2256,1901,	00:29:22.486,-0.0126953125,0.080078125,1.01953125,-0.06103515625,0.3662109375,0.1220703125,4.4439697265625,0.6866455078125,-75.772705078125,101.0,-689.0,-4006.0,-0.788482666015625,-0.034271240234375,0.01910400390625,0.613800048828125,4.445780163756155,0.6845508046656585,-79.97747468275281,-0.765431674791256,-0.033553044636669006,0.020352024559111087,0.6423194995624906,1,	00:29:22.487,0.02685546875,0.02490234375,1.0205078125,-0.244140625,0.18310546875,0.48828125,1.395263671875,-1.505126953125,41.231689453125,-10.0,623.0,-1846.0,0.935760498046875,0.0159912109375,-0.008026123046875,0.352203369140625,1.3931762205411566,-1.5056959606544749,34.7299985195149,0.9542222321246291,0.015523588699643957,-0.008911344437998967,0.29856245218259114,1
1782117271.625170,0.242,1016.0,1024.0,1020.0,1019.0,1022.0,1025.0,1020.0,1021.0,1012.0,1020.0,1022.0,1025.0,1020.0,1021.0,1012.0,1020.0,1020.0,1022.0,1025.0,1020.0,1022.0,1012.0,1020.0,1020.0,1020.0,1022.0,1025.0,1020.0,1021.0,1011.0,1020.0,1019.0,1021.0,1020.0,1022.0,1025.0,1021.0,1022.0,1012.0,1020.0,1020.0,1021.0,1020.0,1022.0,1025.0,1020.0,1022.0,1012.0,1020.0,1020.0,1021.0,1018.0,1020.0,1022.0,1025.0,1021.0,1021.0,1011.0,1020.0,1020.0,1021.0,1018.0,1021.0,1023.0,1026.0,1021.0,1023.0,1012.0,1021.0,1021.0,1022.0,1021.0,1021.0,1023.0,1025.0,1021.0,1022.0,1012.0,1020.0,1020.0,1022.0,1019.0,1021.0,1023.0,1026.0,1020.0,1022.0,1012.0,1020.0,1020.0,1022.0,1019.0,1021.0,1023.0,1026.0,1021.0,1022.0,1012.0,1020.0,1020.0,1021.0,1019.0,1021.0,1023.0,1025.0,1021.0,1022.0,1012.0,1020.0,1019.0,1022.0,1019.0,1022.0,1024.0,1026.0,1022.0,1024.0,1013.0,1021.0,1022.0,1025.0,1022.0,1024.0,1027.0,1021.0,1024.0,1013.0,1021.0,1021.0,1021.0,1024.0,1027.0,1022.0,1023.0,1013.0,1020.0,1022.0,1024.0,1028.0,1021.0,1024.0,1013.0,1021.0,1021.0,1024.0,1027.0,1021.0,1023.0,1013.0,1021.0,1021.0,1023.0,1027.0,1022.0,1023.0,1014.0,1021.0,1023.0,1027.0,1021.0,1022.0,1013.0,1023.0,1024.0,1029.0,1022.0,1023.0,1015.0,1023.0,1025.0,1030.0,1024.0,1026.0,1017.0,1022.0,1025.0,1029.0,1023.0,1024.0,1016.0,1023.0,1026.0,1031.0,1025.0,1025.0,1016.0,1025.0,1030.0,1035.0,1027.0,1028.0,1018.0,1026.0,1030.0,1037.0,1027.0,1028.0,1020.0,1027.0,1033.0,1039.0,1027.0,1028.0,1022.0,1031.0,1034.0,1043.0,1028.0,1028.0,1025.0,1031.0,1036.0,1049.0,1031.0,1028.0,1031.0,1027.0,1032.0,1045.0,1028.0,1026.0,1030.0,1029.0,1034.0,1053.0,1030.0,1027.0,1086.0,1027.0,1033.0,1051.0,1029.0,1026.0,2339,2256,1901,	00:29:22.496,-0.0126953125,0.080078125,1.01904296875,-0.06103515625,0.3662109375,0.1220703125,4.5263671875,0.736083984375,-75.7672119140625,102.0,-686.0,-4004.0,-0.788482666015625,-0.03509521484375,0.019195556640625,0.61376953125,4.524616645019859,0.7333862117175769,-79.97499119991993,-0.7654095009915436,-0.03435365418395492,0.02046685229601627,0.6422999534432324,1,	00:29:22.498,0.02734375,0.02490234375,1.02099609375,-0.18310546875,0.18310546875,0.48828125,1.40625,-1.593017578125,41.2371826171875,-9.0,621.0,-1846.0,0.93572998046875,0.016357421875,-0.008697509765625,0.35223388671875,1.4042111578887315,-1.5946899458475157,34.73457595360383,0.9541959393000967,0.01584748926078744,-0.009623098263922783,0.2986073717896768,1
1782117271.635240,0.252,1017.0,1025.0,1020.0,1019.0,1022.0,1025.0,1021.0,1021.0,1012.0,1020.0,1022.0,1024.0,1020.0,1021.0,1012.0,1020.0,1020.0,1022.0,1025.0,1020.0,1022.0,1011.0,1020.0,1021.0,1020.0,1022.0,1025.0,1021.0,1021.0,1011.0,1020.0,1020.0,1021.0,1020.0,1022.0,1025.0,1020.0,1022.0,1012.0,1020.0,1020.0,1021.0,1020.0,1022.0,1025.0,1021.0,1021.0,1011.0,1020.0,1019.0,1021.0,1018.0,1020.0,1022.0,1025.0,1021.0,1022.0,1011.0,1020.0,1020.0,1021.0,1019.0,1021.0,1022.0,1026.0,1021.0,1024.0,1011.0,1020.0,1021.0,1023.0,1020.0,1021.0,1022.0,1026.0,1022.0,1023.0,1012.0,1020.0,1020.0,1022.0,1019.0,1021.0,1023.0,1026.0,1021.0,1022.0,1012.0,1020.0,1020.0,1022.0,1019.0,1021.0,1023.0,1026.0,1021.0,1022.0,1012.0,1020.0,1020.0,1022.0,1019.0,1021.0,1023.0,1026.0,1021.0,1022.0,1012.0,1021.0,1020.0,1022.0,1019.0,1022.0,1023.0,1027.0,1023.0,1024.0,1013.0,1020.0,1023.0,1025.0,1022.0,1023.0,1027.0,1022.0,1023.0,1013.0,1021.0,1021.0,1022.0,1023.0,1027.0,1021.0,1022.0,1013.0,1020.0,1022.0,1023.0,1027.0,1022.0,1024.0,1014.0,1021.0,1022.0,1023.0,1027.0,1021.0,1023.0,1013.0,1021.0,1021.0,1023.0,1028.0,1022.0,1024.0,1013.0,1021.0,1023.0,1027.0,1021.0,1022.0,1012.0,1022.0,1024.0,1028.0,1023.0,1024.0,1015.0,1023.0,1026.0,1031.0,1024.0,1026.0,1017.0,1022.0,1024.0,1030.0,1023.0,1024.0,1015.0,1023.0,1027.0,1032.0,1025.0,1025.0,1016.0,1025.0,1030.0,1035.0,1028.0,1027.0,1019.0,1025.0,1030.0,1037.0,1028.0,1028.0,1020.0,1027.0,1032.0,1040.0,1028.0,1028.0,1022.0,1031.0,1033.0,1043.0,1028.0,1028.0,1025.0,1031.0,1036.0,1050.0,1031.0,1028.0,1031.0,1028.0,1032.0,1046.0,1027.0,1025.0,1029.0,1029.0,1033.0,1054.0,1030.0,1027.0,1086.0,1027.0,1032.0,1051.0,1030.0,1026.0,2339,2256,1901,	00:29:22.507,-0.01220703125,0.0791015625,1.01953125,-0.06103515625,0.3662109375,0.18310546875,4.4439697265625,0.692138671875,-75.7672119140625,102.0,-688.0,-4005.0,-0.78851318359375,-0.0343017578125,0.01904296875,0.61376953125,4.444301153146026,0.6921525353786603,-79.97386830424114,-0.7654503642587237,-0.03358639033454684,0.020291880525255684,0.6422973873722603,1,	00:29:22.508,0.02685546875,0.02490234375,1.02099609375,-0.18310546875,0.244140625,0.42724609375,1.395263671875,-1.4996337890625,41.24267578125,-11.0,622.0,-1844.0,0.93572998046875,0.0159912109375,-0.007965087890625,0.352264404296875,1.3950004415549915,-1.5010065492563585,34.73910322521235,0.954198921058069,0.01552727823995258,-0.008866304469978914,0.29863809423300586,1
1782117271.646149,0.263,1017.0,1024.0,1021.0,1020.0,1022.0,1025.0,1021.0,1021.0,1012.0,1020.0,1022.0,1025.0,1022.0,1021.0,1012.0,1020.0,1020.0,1022.0,1025.0,1020.0,1022.0,1012.0,1020.0,1020.0,1020.0,1022.0,1025.0,1021.0,1021.0,1012.0,1020.0,1019.0,1021.0,1021.0,1022.0,1026.0,1021.0,1022.0,1011.0,1020.0,1020.0,1021.0,1021.0,1022.0,1025.0,1021.0,1021.0,1012.0,1020.0,1020.0,1021.0,1018.0,1021.0,1022.0,1025.0,1021.0,1021.0,1012.0,1020.0,1020.0,1021.0,1018.0,1021.0,1022.0,1025.0,1021.0,1023.0,1012.0,1020.0,1021.0,1022.0,1021.0,1021.0,1023.0,1026.0,1021.0,1022.0,1012.0,1020.0,1020.0,1022.0,1019.0,1021.0,1022.0,1026.0,1021.0,1022.0,1012.0,1020.0,1021.0,1022.0,1020.0,1021.0,1023.0,1025.0,1021.0,1022.0,1012.0,1020.0,1020.0,1022.0,1019.0,1021.0,1022.0,1026.0,1021.0,1022.0,1012.0,1020.0,1020.0,1021.0,1019.0,1021.0,1023.0,1027.0,1021.0,1024.0,1013.0,1022.0,1022.0,1025.0,1022.0,1024.0,1027.0,1022.0,1024.0,1013.0,1021.0,1021.0,1021.0,1023.0,1027.0,1021.0,1022.0,1012.0,1021.0,1022.0,1023.0,1027.0,1022.0,1024.0,1013.0,1021.0,1022.0,1023.0,1028.0,1021.0,1023.0,1013.0,1021.0,1021.0,1023.0,1027.0,1022.0,1024.0,1014.0,1022.0,1023.0,1026.0,1021.0,1022.0,1013.0,1022.0,1024.0,1028.0,1023.0,1024.0,1014.0,1023.0,1026.0,1030.0,1024.0,1026.0,1016.0,1022.0,1025.0,1029.0,1024.0,1024.0,1015.0,1023.0,1027.0,1032.0,1024.0,1025.0,1016.0,1025.0,1030.0,1034.0,1027.0,1028.0,1019.0,1025.0,1030.0,1037.0,1027.0,1027.0,1020.0,1027.0,1032.0,1040.0,1027.0,1028.0,1022.0,1031.0,1034.0,1043.0,1028.0,1028.0,1025.0,1030.0,1036.0,1050.0,1030.0,1028.0,1032.0,1027.0,1032.0,1046.0,1027.0,1025.0,1031.0,1029.0,1033.0,1054.0,1029.0,1026.0,1086.0,1027.0,1033.0,1052.0,1028.0,1026.0,2338,2256,1902,	00:29:22.517,-0.01171875,0.07958984375,1.01953125,-0.1220703125,0.3662109375,0.1220703125,4.4879150390625,0.615234375,-75.7672119140625,102.0,-688.0,-4003.0,-0.788543701171875,-0.0341796875,0.019805908203125,0.613739013671875,4.487026098927822,0.6152830740816659,-79.97186542955372,-0.765468818893717,-0.0334415299319961,0.02104443679991775,0.6422587352905679,1,	00:29:22.518,0.02783203125,0.0244140625,1.021484375,-0.18310546875,0.30517578125,0.48828125,1.3568115234375,-1.58203125,41.2481689453125,-10.0,623.0,-1846.0,0.935699462890625,0.01593017578125,-0.008758544921875,0.352325439453125,1.3563837616520689,-1.5820947027769063,34.74504802725679,0.9541770206538553,0.015417327357340355,-0.009641427821265352,0.29868974227926914,1
1782117271.656044,0.273,1016.0,1025.0,1020.0,1019.0,1022.0,1025.0,1020.0,1021.0,1012.0,1019.0,1022.0,1025.0,1021.0,1021.0,1012.0,1020.0,1020.0,1022.0,1025.0,1020.0,1022.0,1012.0,1020.0,1020.0,1020.0,1022.0,1025.0,1021.0,1022.0,1012.0,1020.0,1020.0,1022.0,1020.0,1023.0,1026.0,1021.0,1022.0,1012.0,1019.0,1020.0,1021.0,1020.0,1022.0,1025.0,1021.0,1021.0,1012.0,1020.0,1019.0,1021.0,1018.0,1021.0,1021.0,1025.0,1021.0,1021.0,1012.0,1020.0,1020.0,1021.0,1018.0,1021.0,1023.0,1026.0,1021.0,1023.0,1012.0,1021.0,1021.0,1023.0,1020.0,1021.0,1023.0,1026.0,1020.0,1022.0,1012.0,1020.0,1020.0,1022.0,1019.0,1021.0,1022.0,1025.0,1021.0,1022.0,1012.0,1020.0,1020.0,1022.0,1019.0,1021.0,1023.0,1025.0,1021.0,1022.0,1012.0,1020.0,1020.0,1022.0,1019.0,1021.0,1022.0,1026.0,1021.0,1022.0,1011.0,1020.0,1020.0,1022.0,1019.0,1022.0,1023.0,1028.0,1021.0,1025.0,1013.0,1021.0,1022.0,1025.0,1022.0,1023.0,1027.0,1021.0,1024.0,1013.0,1020.0,1021.0,1022.0,1023.0,1027.0,1021.0,1022.0,1013.0,1020.0,1022.0,1024.0,1028.0,1021.0,1024.0,1014.0,1021.0,1022.0,1024.0,1027.0,1021.0,1023.0,1013.0,1021.0,1022.0,1024.0,1028.0,1021.0,1024.0,1014.0,1022.0,1024.0,1027.0,1020.0,1022.0,1013.0,1023.0,1024.0,1028.0,1022.0,1024.0,1015.0,1023.0,1025.0,1031.0,1024.0,1026.0,1016.0,1022.0,1025.0,1030.0,1023.0,1024.0,1015.0,1024.0,1027.0,1031.0,1024.0,1025.0,1017.0,1025.0,1029.0,1034.0,1026.0,1027.0,1019.0,1025.0,1030.0,1036.0,1026.0,1027.0,1021.0,1027.0,1032.0,1040.0,1026.0,1028.0,1022.0,1031.0,1033.0,1043.0,1027.0,1028.0,1026.0,1030.0,1035.0,1050.0,1030.0,1028.0,1031.0,1027.0,1031.0,1046.0,1027.0,1025.0,1031.0,1029.0,1033.0,1055.0,1029.0,1026.0,1086.0,1028.0,1032.0,1052.0,1028.0,1026.0,2338,2255,1902,	00:29:22.527,-0.01220703125,0.0791015625,1.0185546875,-0.1220703125,0.3662109375,0.18310546875,4.4329833984375,0.6976318359375,-75.76171875,100.0,-686.0,-4003.0,-0.788543701171875,-0.034271240234375,0.01898193359375,0.613739013671875,4.4349153024934305,0.6949658802654434,-79.97033626848787,-0.7654721855837949,-0.03354007803983028,0.020219437945699845,0.6422760859566626,1,	00:29:22.528,0.02685546875,0.0244140625,1.02197265625,-0.18310546875,0.30517578125,0.48828125,1.3677978515625,-1.4886474609375,41.253662109375,-9.0,623.0,-1846.0,0.935699462890625,0.0157470703125,-0.0079345703125,0.35235595703125,1.3686070685843816,-1.4886143676181016,34.749621851540674,0.9541767873900318,0.01527604904571451,-0.008830486360760862,0.2987228200894993,1
1782117271.665548,0.282,1016.0,1024.0,1019.0,1020.0,1021.0,1024.0,1020.0,1020.0,1012.0,1020.0,1022.0,1025.0,1020.0,1021.0,1013.0,1020.0,1020.0,1022.0,1025.0,1020.0,1022.0,1012.0,1020.0,1021.0,1020.0,1022.0,1025.0,1020.0,1021.0,1012.0,1019.0,1020.0,1021.0,1021.0,1022.0,1026.0,1021.0,1022.0,1012.0,1020.0,1020.0,1021.0,1020.0,1022.0,1025.0,1021.0,1022.0,1012.0,1020.0,1020.0,1021.0,1018.0,1020.0,1022.0,1025.0,1020.0,1021.0,1012.0,1020.0,1020.0,1021.0,1018.0,1021.0,1023.0,1026.0,1021.0,1023.0,1012.0,1021.0,1021.0,1023.0,1021.0,1021.0,1022.0,1026.0,1021.0,1022.0,1012.0,1020.0,1020.0,1022.0,1019.0,1021.0,1022.0,1026.0,1020.0,1022.0,1012.0,1020.0,1021.0,1023.0,1020.0,1021.0,1022.0,1026.0,1021.0,1022.0,1012.0,1020.0,1020.0,1022.0,1019.0,1021.0,1022.0,1026.0,1021.0,1023.0,1012.0,1020.0,1021.0,1022.0,1018.0,1022.0,1023.0,1027.0,1021.0,1024.0,1013.0,1021.0,1022.0,1025.0,1022.0,1023.0,1027.0,1021.0,1024.0,1013.0,1021.0,1021.0,1021.0,1023.0,1027.0,1022.0,1022.0,1013.0,1020.0,1022.0,1023.0,1027.0,1021.0,1024.0,1013.0,1021.0,1022.0,1023.0,1028.0,1021.0,1023.0,1013.0,1021.0,1022.0,1023.0,1028.0,1021.0,1024.0,1014.0,1022.0,1023.0,1026.0,1021.0,1022.0,1013.0,1022.0,1024.0,1028.0,1022.0,1024.0,1014.0,1023.0,1025.0,1031.0,1024.0,1026.0,1016.0,1022.0,1024.0,1029.0,1023.0,1024.0,1015.0,1023.0,1026.0,1031.0,1024.0,1024.0,1017.0,1025.0,1029.0,1036.0,1027.0,1027.0,1019.0,1025.0,1029.0,1037.0,1026.0,1028.0,1020.0,1027.0,1031.0,1040.0,1027.0,1029.0,1023.0,1032.0,1033.0,1043.0,1028.0,1028.0,1026.0,1031.0,1036.0,1050.0,1030.0,1029.0,1031.0,1027.0,1032.0,1046.0,1027.0,1025.0,1030.0,1029.0,1033.0,1055.0,1029.0,1027.0,1086.0,1027.0,1033.0,1053.0,1028.0,1027.0,2338,2255,1901,	00:29:22.537,-0.01220703125,0.0791015625,1.0185546875,-0.1220703125,0.3662109375,0.18310546875,4.4769287109375,0.6207275390625,-75.76171875,100.0,-688.0,-4002.0,-0.788543701171875,-0.034149169921875,0.019744873046875,0.61370849609375,4.47836237373544,0.6184454381775804,-79.96771494741459,-0.7654938005154854,-0.03340213150886844,0.020973536760205882,0.6422333296698255,1,	00:29:22.539,0.02685546875,0.0244140625,1.021484375,-0.1220703125,0.3662109375,0.48828125,1.3677978515625,-1.5765380859375,41.2591552734375,-10.0,622.0,-1845.0,0.9356689453125,0.016021728515625,-0.0086669921875,0.3524169921875,1.370140341924774,-1.5766632053549123,34.75451623475141,0.954151272788623,0.015518522278129483,-0.009559056808291612,0.29876939022445015,1
1782117271.675435,0.292,1017.0,1025.0,1019.0,1019.0,1022.0,1025.0,1020.0,1021.0,1012.0,1020.0,1022.0,1025.0,1020.0,1021.0,1011.0,1019.0,1021.0,1022.0,1025.0,1021.0,1022.0,1012.0,1020.0,1020.0,1020.0,1021.0,1025.0,1021.0,1022.0,1011.0,1020.0,1020.0,1021.0,1020.0,1022.0,1026.0,1021.0,1022.0,1012.0,1020.0,1020.0,1021.0,1020.0,1022.0,1025.0,1021.0,1021.0,1011.0,1020.0,1020.0,1021.0,1018.0,1021.0,1022.0,1025.0,1021.0,1022.0,1011.0,1020.0,1020.0,1021.0,1018.0,1022.0,1022.0,1026.0,1021.0,1023.0,1012.0,1020.0,1021.0,1023.0,1020.0,1021.0,1022.0,1026.0,1021.0,1022.0,1012.0,1020.0,1020.0,1022.0,1019.0,1021.0,1023.0,1026.0,1021.0,1022.0,1012.0,1020.0,1021.0,1022.0,1019.0,1021.0,1023.0,1026.0,1021.0,1022.0,1012.0,1020.0,1020.0,1022.0,1019.0,1021.0,1023.0,1026.0,1021.0,1022.0,1012.0,1020.0,1021.0,1022.0,1019.0,1022.0,1023.0,1027.0,1021.0,1024.0,1013.0,1021.0,1023.0,1026.0,1022.0,1023.0,1027.0,1021.0,1024.0,1013.0,1021.0,1022.0,1021.0,1023.0,1027.0,1021.0,1022.0,1012.0,1020.0,1022.0,1024.0,1028.0,1021.0,1024.0,1013.0,1021.0,1022.0,1023.0,1028.0,1021.0,1023.0,1013.0,1021.0,1022.0,1023.0,1028.0,1021.0,1024.0,1013.0,1021.0,1023.0,1027.0,1021.0,1022.0,1013.0,1022.0,1024.0,1029.0,1022.0,1024.0,1014.0,1023.0,1025.0,1032.0,1023.0,1026.0,1016.0,1022.0,1025.0,1030.0,1023.0,1024.0,1015.0,1023.0,1026.0,1032.0,1025.0,1025.0,1017.0,1025.0,1029.0,1035.0,1026.0,1028.0,1019.0,1026.0,1030.0,1037.0,1027.0,1027.0,1020.0,1027.0,1031.0,1040.0,1027.0,1028.0,1022.0,1032.0,1033.0,1044.0,1028.0,1028.0,1025.0,1031.0,1036.0,1051.0,1030.0,1028.0,1031.0,1028.0,1032.0,1046.0,1027.0,1025.0,1030.0,1029.0,1033.0,1055.0,1028.0,1027.0,1087.0,1027.0,1032.0,1053.0,1028.0,1026.0,2338,2255,1901,	00:29:22.548,-0.0126953125,0.0791015625,1.02001953125,-0.1220703125,0.3662109375,0.18310546875,4.4384765625,0.703125,-75.7562255859375,101.0,-687.0,-4004.0,-0.788543701171875,-0.034332275390625,0.0189208984375,0.61370849609375,4.437793346131738,0.7047161048669645,-79.96605887337674,-0.7654928022076792,-0.033614674669651394,0.020169157174133895,0.6422491950278906,1,	00:29:22.549,0.02734375,0.02490234375,1.021484375,-0.1220703125,0.3662109375,0.48828125,1.417236328125,-1.494140625,41.2591552734375,-9.0,622.0,-1844.0,0.9356689453125,0.01617431640625,-0.007843017578125,0.352447509765625,1.4161120032206218,-1.4946035517239253,34.75821781373445,0.9541471191476353,0.01568786393359784,-0.008755345842115266,0.2987984435479113,1
1782117271.685963,0.303,1016.0,1025.0,1019.0,1019.0,1021.0,1025.0,1020.0,1021.0,1012.0,1020.0,1022.0,1025.0,1021.0,1022.0,1012.0,1020.0,1020.0,1022.0,1026.0,1021.0,1022.0,1011.0,1020.0,1021.0,1020.0,1021.0,1025.0,1020.0,1021.0,1011.0,1020.0,1020.0,1021.0,1020.0,1021.0,1025.0,1021.0,1022.0,1011.0,1020.0,1020.0,1021.0,1020.0,1022.0,1025.0,1021.0,1021.0,1011.0,1020.0,1020.0,1021.0,1019.0,1021.0,1022.0,1025.0,1020.0,1021.0,1011.0,1020.0,1020.0,1021.0,1018.0,1021.0,1022.0,1026.0,1022.0,1023.0,1012.0,1021.0,1021.0,1023.0,1021.0,1021.0,1022.0,1026.0,1021.0,1022.0,1012.0,1020.0,1020.0,1022.0,1019.0,1021.0,1022.0,1026.0,1021.0,1022.0,1012.0,1020.0,1020.0,1022.0,1020.0,1021.0,1022.0,1026.0,1021.0,1022.0,1012.0,1020.0,1020.0,1022.0,1019.0,1021.0,1022.0,1026.0,1021.0,1022.0,1012.0,1020.0,1020.0,1022.0,1019.0,1022.0,1023.0,1027.0,1021.0,1024.0,1012.0,1021.0,1023.0,1025.0,1022.0,1023.0,1027.0,1021.0,1023.0,1013.0,1021.0,1021.0,1021.0,1023.0,1027.0,1021.0,1023.0,1012.0,1019.0,1022.0,1023.0,1027.0,1021.0,1024.0,1013.0,1021.0,1022.0,1023.0,1027.0,1022.0,1023.0,1013.0,1020.0,1022.0,1023.0,1027.0,1021.0,1024.0,1013.0,1021.0,1023.0,1027.0,1021.0,1021.0,1013.0,1022.0,1023.0,1029.0,1022.0,1024.0,1015.0,1023.0,1025.0,1031.0,1024.0,1026.0,1016.0,1022.0,1024.0,1030.0,1023.0,1024.0,1015.0,1024.0,1027.0,1032.0,1024.0,1025.0,1017.0,1026.0,1029.0,1035.0,1027.0,1027.0,1019.0,1027.0,1029.0,1037.0,1026.0,1027.0,1019.0,1028.0,1031.0,1040.0,1027.0,1028.0,1022.0,1032.0,1033.0,1045.0,1027.0,1028.0,1026.0,1031.0,1035.0,1052.0,1030.0,1028.0,1031.0,1027.0,1031.0,1047.0,1027.0,1026.0,1030.0,1029.0,1033.0,1056.0,1029.0,1026.0,1086.0,1028.0,1032.0,1054.0,1028.0,1026.0,2338,2255,1901,	00:29:22.558,-0.01220703125,0.07958984375,1.0185546875,-0.1220703125,0.42724609375,0.18310546875,4.515380859375,0.6591796875,-75.7562255859375,101.0,-688.0,-4003.0,-0.788543701171875,-0.03460693359375,0.0196533203125,0.613677978515625,4.51272672252683,0.6580312956375874,-79.96299686554799,-0.7654999790350275,-0.033854295024927816,0.02090020511160843,0.6422046793912596,1,	00:29:22.559,0.02685546875,0.02490234375,1.02001953125,-0.18310546875,0.3662109375,0.48828125,1.34033203125,-1.5435791015625,41.2701416015625,-10.0,622.0,-1844.0,0.935638427734375,0.01568603515625,-0.008514404296875,0.35247802734375,1.3406112509966013,-1.5458311447873043,34.76514321558116,0.954131967279963,0.015193212078815407,-0.009377885720349472,0.29885349350578416,1
1782117271.696424,0.313,1017.0,1025.0,1019.0,1019.0,1022.0,1026.0,1021.0,1021.0,1012.0,1021.0,1021.0,1025.0,1020.0,1022.0,1011.0,1020.0,1021.0,1022.0,1025.0,1020.0,1022.0,1012.0,1020.0,1020.0,1020.0,1022.0,1025.0,1021.0,1021.0,1011.0,1020.0,1020.0,1021.0,1021.0,1022.0,1026.0,1021.0,1022.0,1011.0,1020.0,1020.0,1021.0,1021.0,1022.0,1025.0,1020.0,1021.0,1011.0,1020.0,1020.0,1021.0,1019.0,1021.0,1021.0,1025.0,1020.0,1022.0,1012.0,1020.0,1020.0,1021.0,1018.0,1021.0,1022.0,1026.0,1021.0,1023.0,1012.0,1020.0,1022.0,1023.0,1020.0,1021.0,1023.0,1026.0,1021.0,1023.0,1012.0,1020.0,1020.0,1022.0,1019.0,1021.0,1023.0,1025.0,1021.0,1023.0,1011.0,1020.0,1020.0,1022.0,1020.0,1022.0,1023.0,1026.0,1021.0,1022.0,1012.0,1020.0,1020.0,1022.0,1019.0,1022.0,1022.0,1026.0,1021.0,1022.0,1011.0,1020.0,1020.0,1022.0,1019.0,1022.0,1024.0,1028.0,1021.0,1024.0,1012.0,1021.0,1022.0,1025.0,1022.0,1024.0,1027.0,1021.0,1024.0,1013.0,1020.0,1021.0,1022.0,1023.0,1026.0,1021.0,1022.0,1012.0,1020.0,1022.0,1023.0,1028.0,1021.0,1024.0,1013.0,1021.0,1022.0,1023.0,1027.0,1021.0,1023.0,1013.0,1020.0,1022.0,1023.0,1028.0,1022.0,1024.0,1013.0,1022.0,1023.0,1027.0,1021.0,1021.0,1012.0,1023.0,1024.0,1028.0,1022.0,1024.0,1014.0,1023.0,1025.0,1030.0,1024.0,1026.0,1016.0,1023.0,1024.0,1029.0,1023.0,1024.0,1016.0,1024.0,1026.0,1031.0,1024.0,1025.0,1017.0,1026.0,1029.0,1035.0,1026.0,1028.0,1019.0,1026.0,1030.0,1037.0,1026.0,1028.0,1020.0,1027.0,1032.0,1040.0,1026.0,1028.0,1022.0,1032.0,1034.0,1044.0,1027.0,1028.0,1025.0,1032.0,1036.0,1051.0,1029.0,1028.0,1031.0,1028.0,1032.0,1048.0,1027.0,1025.0,1030.0,1030.0,1034.0,1056.0,1028.0,1027.0,1087.0,1028.0,1032.0,1053.0,1028.0,1026.0,2338,2255,1902,	00:29:22.568,-0.01171875,0.0791015625,1.01904296875,-0.18310546875,0.42724609375,0.18310546875,4.4219970703125,0.6591796875,-75.7562255859375,102.0,-684.0,-4005.0,-0.788604736328125,-0.033966064453125,0.019134521484375,0.613677978515625,4.419529997306945,0.6607325334108004,-79.96188682468785,-0.7655327926468057,-0.03324703484253513,0.02035952214241988,0.642214658751024,1,	00:29:22.569,0.0263671875,0.02587890625,1.021484375,-0.18310546875,0.3662109375,0.42724609375,1.417236328125,-1.494140625,41.2701416015625,-10.0,624.0,-1850.0,0.935638427734375,0.01617431640625,-0.007843017578125,0.352508544921875,1.4168864541427049,-1.494426844545088,34.76742574403946,0.9541230251487832,0.01569455531029388,-0.008750593855642759,0.2988751594256711,1
1782117271.706339,0.323,1017.0,1025.0,1019.0,1019.0,1022.0,1025.0,1020.0,1021.0,1011.0,1020.0,1022.0,1026.0,1020.0,1021.0,1011.0,1019.0,1021.0,1022.0,1025.0,1020.0,1022.0,1011.0,1020.0,1020.0,1021.0,1022.0,1025.0,1021.0,1022.0,1011.0,1020.0,1020.0,1021.0,1021.0,1022.0,1026.0,1020.0,1022.0,1011.0,1020.0,1020.0,1021.0,1021.0,1022.0,1026.0,1020.0,1021.0,1011.0,1020.0,1020.0,1021.0,1019.0,1021.0,1022.0,1026.0,1020.0,1021.0,1011.0,1020.0,1020.0,1021.0,1018.0,1021.0,1023.0,1026.0,1020.0,1023.0,1012.0,1020.0,1021.0,1023.0,1021.0,1022.0,1023.0,1027.0,1021.0,1022.0,1012.0,1020.0,1020.0,1022.0,1019.0,1021.0,1023.0,1026.0,1020.0,1023.0,1012.0,1020.0,1020.0,1022.0,1020.0,1021.0,1022.0,1027.0,1021.0,1022.0,1012.0,1020.0,1020.0,1022.0,1019.0,1021.0,1022.0,1027.0,1021.0,1022.0,1012.0,1020.0,1020.0,1022.0,1019.0,1022.0,1024.0,1027.0,1021.0,1025.0,1012.0,1021.0,1022.0,1026.0,1022.0,1024.0,1027.0,1021.0,1023.0,1013.0,1020.0,1021.0,1022.0,1023.0,1028.0,1021.0,1023.0,1012.0,1020.0,1022.0,1024.0,1028.0,1021.0,1024.0,1013.0,1021.0,1022.0,1023.0,1028.0,1021.0,1023.0,1013.0,1020.0,1022.0,1023.0,1028.0,1022.0,1024.0,1013.0,1021.0,1023.0,1027.0,1021.0,1022.0,1013.0,1022.0,1024.0,1029.0,1022.0,1025.0,1014.0,1024.0,1025.0,1031.0,1024.0,1026.0,1016.0,1023.0,1024.0,1029.0,1023.0,1024.0,1015.0,1024.0,1026.0,1032.0,1024.0,1025.0,1016.0,1025.0,1029.0,1035.0,1026.0,1028.0,1019.0,1026.0,1030.0,1038.0,1026.0,1028.0,1020.0,1028.0,1031.0,1041.0,1027.0,1029.0,1022.0,1032.0,1034.0,1044.0,1027.0,1028.0,1025.0,1031.0,1036.0,1052.0,1030.0,1028.0,1032.0,1028.0,1032.0,1047.0,1026.0,1026.0,1030.0,1029.0,1034.0,1056.0,1028.0,1026.0,1087.0,1028.0,1032.0,1054.0,1027.0,1026.0,2337,2255,1902,	00:29:22.578,-0.0126953125,0.0791015625,1.01953125,-0.1220703125,0.42724609375,0.18310546875,4.449462890625,0.7525634765625,-75.750732421875,101.0,-687.0,-4005.0,-0.78857421875,-0.034637451171875,0.018646240234375,0.613677978515625,4.447454953291975,0.7517136733178974,-79.95937391922911,-0.765515210678122,-0.03394363015311179,0.019907248444934172,0.6422133552424854,1,	00:29:22.579,0.02685546875,0.02490234375,1.021484375,-0.1220703125,0.3662109375,0.42724609375,1.3348388671875,-1.5325927734375,41.275634765625,-10.0,620.0,-1845.0,0.93560791015625,0.015625,-0.0084228515625,0.352569580078125,1.335065914252119,-1.5348018648255324,34.77391683885071,0.954111386693656,0.01511901617267065,-0.00929934729369036,0.29892540753738317,1
1782117271.716509,0.333,1017.0,1026.0,1020.0,1019.0,1022.0,1025.0,1020.0,1021.0,1012.0,1020.0,1022.0,1025.0,1020.0,1022.0,1011.0,1020.0,1021.0,1022.0,1025.0,1020.0,1022.0,1012.0,1020.0,1021.0,1021.0,1022.0,1026.0,1021.0,1021.0,1012.0,1020.0,1020.0,1021.0,1020.0,1022.0,1025.0,1020.0,1021.0,1011.0,1020.0,1020.0,1021.0,1020.0,1022.0,1025.0,1020.0,1021.0,1011.0,1020.0,1019.0,1021.0,1019.0,1021.0,1022.0,1025.0,1020.0,1021.0,1012.0,1020.0,1020.0,1021.0,1018.0,1021.0,1023.0,1026.0,1021.0,1023.0,1012.0,1021.0,1022.0,1023.0,1021.0,1021.0,1022.0,1027.0,1020.0,1022.0,1012.0,1020.0,1020.0,1022.0,1019.0,1022.0,1022.0,1026.0,1020.0,1023.0,1012.0,1020.0,1021.0,1023.0,1020.0,1021.0,1023.0,1027.0,1021.0,1023.0,1012.0,1020.0,1021.0,1022.0,1019.0,1021.0,1022.0,1026.0,1021.0,1022.0,1012.0,1019.0,1020.0,1022.0,1019.0,1022.0,1024.0,1028.0,1021.0,1024.0,1013.0,1021.0,1022.0,1025.0,1022.0,1024.0,1028.0,1021.0,1023.0,1013.0,1020.0,1021.0,1021.0,1023.0,1027.0,1021.0,1022.0,1013.0,1020.0,1022.0,1024.0,1028.0,1022.0,1024.0,1013.0,1021.0,1022.0,1023.0,1028.0,1021.0,1023.0,1013.0,1021.0,1021.0,1023.0,1028.0,1022.0,1024.0,1014.0,1022.0,1023.0,1027.0,1021.0,1021.0,1013.0,1022.0,1024.0,1029.0,1021.0,1024.0,1015.0,1023.0,1025.0,1032.0,1023.0,1026.0,1016.0,1022.0,1024.0,1030.0,1023.0,1024.0,1016.0,1024.0,1026.0,1032.0,1024.0,1025.0,1017.0,1025.0,1029.0,1036.0,1026.0,1028.0,1019.0,1026.0,1030.0,1037.0,1025.0,1028.0,1020.0,1028.0,1031.0,1040.0,1026.0,1028.0,1022.0,1032.0,1034.0,1045.0,1027.0,1029.0,1026.0,1031.0,1036.0,1052.0,1029.0,1029.0,1031.0,1027.0,1032.0,1047.0,1027.0,1025.0,1031.0,1029.0,1033.0,1056.0,1029.0,1027.0,1087.0,1027.0,1033.0,1053.0,1028.0,1026.0,2337,2255,1902,	00:29:22.589,-0.01123046875,0.0791015625,1.01953125,-0.18310546875,0.42724609375,0.18310546875,4.4384765625,0.6646728515625,-75.750732421875,102.0,-686.0,-4005.0,-0.788604736328125,-0.03411865234375,0.019195556640625,0.6136474609375,4.437467418473804,0.6645410554006158,-79.95731663360758,-0.7655522174899003,-0.03338901385026742,0.02043326606840523,0.6421817948900302,1,	00:29:22.590,0.02685546875,0.02490234375,1.02099609375,-0.1220703125,0.30517578125,0.48828125,1.417236328125,-1.494140625,41.2811279296875,-9.0,623.0,-1844.0,0.93560791015625,0.01617431640625,-0.007843017578125,0.35260009765625,1.4170370858752452,-1.4935908471869923,34.77666885888289,0.9540990114428898,0.01569433652043829,-0.00874197361971928,0.298952073185847,1
1782117271.726945,0.344,1017.0,1025.0,1020.0,1019.0,1021.0,1026.0,1020.0,1021.0,1011.0,1020.0,1022.0,1026.0,1020.0,1021.0,1011.0,1020.0,1020.0,1022.0,1025.0,1021.0,1022.0,1011.0,1019.0,1020.0,1021.0,1021.0,1025.0,1021.0,1022.0,1011.0,1020.0,1020.0,1021.0,1021.0,1022.0,1026.0,1020.0,1022.0,1011.0,1020.0,1020.0,1021.0,1021.0,1022.0,1025.0,1020.0,1022.0,1011.0,1020.0,1020.0,1021.0,1018.0,1021.0,1022.0,1026.0,1020.0,1022.0,1011.0,1020.0,1020.0,1021.0,1018.0,1021.0,1023.0,1026.0,1021.0,1022.0,1012.0,1021.0,1021.0,1023.0,1020.0,1021.0,1023.0,1026.0,1020.0,1022.0,1012.0,1020.0,1020.0,1022.0,1020.0,1021.0,1022.0,1026.0,1021.0,1023.0,1012.0,1020.0,1021.0,1023.0,1019.0,1021.0,1022.0,1026.0,1021.0,1022.0,1012.0,1020.0,1020.0,1022.0,1019.0,1021.0,1022.0,1026.0,1020.0,1022.0,1011.0,1020.0,1020.0,1022.0,1019.0,1022.0,1023.0,1027.0,1021.0,1024.0,1013.0,1020.0,1022.0,1025.0,1022.0,1023.0,1028.0,1021.0,1024.0,1013.0,1020.0,1022.0,1022.0,1023.0,1027.0,1021.0,1022.0,1012.0,1020.0,1022.0,1024.0,1028.0,1021.0,1024.0,1013.0,1021.0,1022.0,1023.0,1028.0,1022.0,1023.0,1013.0,1020.0,1021.0,1023.0,1028.0,1021.0,1024.0,1014.0,1021.0,1023.0,1027.0,1021.0,1022.0,1013.0,1022.0,1024.0,1029.0,1022.0,1024.0,1015.0,1023.0,1025.0,1031.0,1024.0,1026.0,1016.0,1022.0,1024.0,1029.0,1023.0,1024.0,1015.0,1024.0,1026.0,1032.0,1024.0,1025.0,1016.0,1026.0,1029.0,1035.0,1026.0,1028.0,1019.0,1026.0,1030.0,1037.0,1026.0,1028.0,1020.0,1028.0,1031.0,1040.0,1027.0,1029.0,1022.0,1033.0,1034.0,1045.0,1028.0,1029.0,1026.0,1032.0,1036.0,1051.0,1030.0,1029.0,1031.0,1028.0,1032.0,1047.0,1027.0,1026.0,1031.0,1029.0,1034.0,1055.0,1028.0,1027.0,1087.0,1028.0,1032.0,1053.0,1028.0,1026.0,2337,2255,1902,	00:29:22.599,-0.01123046875,0.0791015625,1.0185546875,-0.18310546875,0.3662109375,0.18310546875,4.4439697265625,0.5767822265625,-75.7452392578125,101.0,-688.0,-4007.0,-0.78863525390625,-0.03369140625,0.01983642578125,0.613616943359375,4.44418481644102,0.5767749708656024,-79.95511385924767,-0.7655848590595122,-0.03294270127428598,0.021056830625083185,0.6421457871041486,1,	00:29:22.600,0.02734375,0.02490234375,1.0224609375,-0.1220703125,0.30517578125,0.48828125,1.3677978515625,-1.571044921875,41.28662109375,-8.0,622.0,-1846.0,0.935577392578125,0.016021728515625,-0.00860595703125,0.352630615234375,1.3698434056233344,-1.5700509576222565,34.782853692439154,0.9540783629798038,0.015501178070577406,-0.009500935149653613,0.2990048879257398,1
1782117271.736959,0.354,1017.0,1025.0,1019.0,1019.0,1021.0,1025.0,1020.0,1021.0,1012.0,1020.0,1022.0,1025.0,1020.0,1021.0,1012.0,1020.0,1020.0,1022.0,1025.0,1021.0,1022.0,1012.0,1019.0,1020.0,1020.0,1022.0,1025.0,1020.0,1021.0,1011.0,1020.0,1020.0,1022.0,1021.0,1021.0,1026.0,1021.0,1022.0,1012.0,1020.0,1020.0,1021.0,1020.0,1022.0,1026.0,1021.0,1022.0,1011.0,1020.0,1020.0,1021.0,1019.0,1021.0,1022.0,1025.0,1020.0,1021.0,1012.0,1020.0,1020.0,1021.0,1019.0,1022.0,1023.0,1027.0,1020.0,1023.0,1012.0,1020.0,1021.0,1022.0,1020.0,1021.0,1022.0,1027.0,1020.0,1022.0,1012.0,1020.0,1020.0,1022.0,1019.0,1021.0,1023.0,1026.0,1021.0,1023.0,1012.0,1020.0,1020.0,1022.0,1020.0,1022.0,1022.0,1027.0,1021.0,1023.0,1012.0,1020.0,1020.0,1022.0,1019.0,1021.0,1022.0,1026.0,1021.0,1022.0,1012.0,1020.0,1020.0,1022.0,1019.0,1022.0,1023.0,1027.0,1021.0,1024.0,1012.0,1021.0,1022.0,1025.0,1022.0,1023.0,1027.0,1021.0,1024.0,1013.0,1021.0,1021.0,1021.0,1023.0,1027.0,1020.0,1022.0,1013.0,1020.0,1022.0,1024.0,1028.0,1021.0,1024.0,1013.0,1021.0,1022.0,1024.0,1028.0,1021.0,1023.0,1013.0,1021.0,1022.0,1023.0,1027.0,1021.0,1024.0,1013.0,1022.0,1023.0,1027.0,1021.0,1022.0,1013.0,1023.0,1024.0,1028.0,1022.0,1024.0,1015.0,1024.0,1025.0,1031.0,1023.0,1026.0,1017.0,1023.0,1024.0,1031.0,1023.0,1025.0,1015.0,1024.0,1026.0,1032.0,1024.0,1025.0,1017.0,1026.0,1029.0,1036.0,1026.0,1028.0,1019.0,1026.0,1029.0,1037.0,1026.0,1028.0,1020.0,1027.0,1031.0,1040.0,1026.0,1029.0,1022.0,1032.0,1033.0,1044.0,1028.0,1028.0,1026.0,1031.0,1036.0,1051.0,1030.0,1029.0,1032.0,1028.0,1031.0,1047.0,1027.0,1026.0,1031.0,1030.0,1033.0,1056.0,1029.0,1027.0,1087.0,1028.0,1032.0,1053.0,1028.0,1026.0,2337,2254,1902,	00:29:22.609,-0.01220703125,0.07958984375,1.01953125,-0.18310546875,0.3662109375,0.18310546875,4.46044921875,0.670166015625,-75.7452392578125,102.0,-691.0,-4008.0,-0.78863525390625,-0.0343017578125,0.019256591796875,0.613616943359375,4.45884231155294,0.6704382956246612,-79.95282672704413,-0.7655696214742002,-0.03356564697637814,0.02051232512360995,0.6421493179447676,1,	00:29:22.610,0.0263671875,0.02392578125,1.02099609375,-0.06103515625,0.30517578125,0.48828125,1.34033203125,-1.4776611328125,41.2921142578125,-11.0,620.0,-1846.0,0.935577392578125,0.0155029296875,-0.0079345703125,0.352691650390625,1.3426871610945497,-1.4793772410373904,34.78851218981393,0.9540800612500927,0.015039156334951153,-0.008816028889043002,0.29904404046290567,1
1782117271.748463,0.365,1017.0,1025.0,1020.0,1020.0,1022.0,1025.0,1020.0,1021.0,1012.0,1020.0,1022.0,1025.0,1021.0,1022.0,1011.0,1020.0,1020.0,1022.0,1025.0,1020.0,1022.0,1012.0,1020.0,1020.0,1020.0,1022.0,1025.0,1020.0,1021.0,1011.0,1020.0,1020.0,1021.0,1021.0,1021.0,1026.0,1020.0,1022.0,1012.0,1020.0,1020.0,1021.0,1020.0,1022.0,1026.0,1020.0,1022.0,1011.0,1020.0,1020.0,1021.0,1018.0,1020.0,1022.0,1026.0,1021.0,1021.0,1011.0,1019.0,1020.0,1021.0,1019.0,1021.0,1022.0,1026.0,1021.0,1023.0,1012.0,1021.0,1021.0,1023.0,1021.0,1021.0,1022.0,1026.0,1021.0,1023.0,1012.0,1020.0,1021.0,1023.0,1020.0,1021.0,1022.0,1027.0,1020.0,1023.0,1012.0,1020.0,1021.0,1022.0,1020.0,1020.0,1022.0,1027.0,1021.0,1023.0,1012.0,1020.0,1020.0,1022.0,1019.0,1021.0,1022.0,1027.0,1021.0,1022.0,1012.0,1020.0,1021.0,1022.0,1019.0,1021.0,1023.0,1028.0,1021.0,1025.0,1013.0,1021.0,1022.0,1026.0,1021.0,1023.0,1028.0,1021.0,1024.0,1013.0,1021.0,1021.0,1022.0,1023.0,1027.0,1021.0,1023.0,1012.0,1020.0,1022.0,1024.0,1028.0,1021.0,1024.0,1013.0,1021.0,1021.0,1023.0,1028.0,1021.0,1023.0,1014.0,1021.0,1022.0,1023.0,1028.0,1021.0,1024.0,1014.0,1021.0,1023.0,1027.0,1021.0,1022.0,1013.0,1022.0,1023.0,1029.0,1022.0,1024.0,1015.0,1023.0,1025.0,1031.0,1023.0,1026.0,1016.0,1022.0,1024.0,1030.0,1023.0,1024.0,1015.0,1024.0,1026.0,1032.0,1025.0,1025.0,1016.0,1026.0,1029.0,1036.0,1026.0,1028.0,1019.0,1026.0,1029.0,1037.0,1026.0,1028.0,1020.0,1027.0,1031.0,1041.0,1027.0,1029.0,1022.0,1032.0,1034.0,1045.0,1028.0,1029.0,1026.0,1032.0,1035.0,1051.0,1030.0,1029.0,1032.0,1029.0,1032.0,1047.0,1029.0,1026.0,1031.0,1030.0,1033.0,1056.0,1030.0,1027.0,1087.0,1028.0,1032.0,1053.0,1028.0,1026.0,2336,2254,1902,	00:29:22.619,-0.01318359375,0.07958984375,1.01953125,-0.18310546875,0.3662109375,0.18310546875,4.4659423828125,0.7635498046875,-75.7452392578125,102.0,-690.0,-4004.0,-0.788604736328125,-0.03485107421875,0.018646240234375,0.613616943359375,4.4636193650044405,0.7653686453486442,-79.95063540556774,-0.7655558010944704,-0.034129612439457266,0.01990397787932482,0.642155212257843,1,	00:29:22.620,0.02734375,0.0244140625,1.0205078125,-0.1220703125,0.30517578125,0.42724609375,1.38427734375,-1.56005859375,41.297607421875,-9.0,622.0,-1846.0,0.935546875,0.016082763671875,-0.00848388671875,0.35272216796875,1.3826328205026965,-1.5582271079981889,34.791763148826114,0.9540550924937354,0.015577570091374395,-0.009367898112237285,0.299079357832962,1
1782117271.757881,0.375,1017.0,1025.0,1020.0,1020.0,1021.0,1026.0,1021.0,1021.0,1012.0,1020.0,1022.0,1025.0,1021.0,1021.0,1011.0,1020.0,1020.0,1022.0,1025.0,1021.0,1022.0,1012.0,1020.0,1020.0,1021.0,1021.0,1026.0,1021.0,1021.0,1012.0,1020.0,1020.0,1022.0,1021.0,1021.0,1025.0,1021.0,1022.0,1011.0,1019.0,1020.0,1021.0,1020.0,1022.0,1025.0,1021.0,1022.0,1011.0,1020.0,1020.0,1020.0,1019.0,1021.0,1022.0,1026.0,1021.0,1021.0,1011.0,1019.0,1020.0,1021.0,1019.0,1021.0,1023.0,1026.0,1021.0,1023.0,1012.0,1020.0,1021.0,1023.0,1020.0,1021.0,1022.0,1027.0,1021.0,1022.0,1011.0,1020.0,1020.0,1022.0,1019.0,1021.0,1022.0,1026.0,1020.0,1022.0,1012.0,1019.0,1020.0,1022.0,1020.0,1022.0,1022.0,1026.0,1021.0,1023.0,1012.0,1020.0,1021.0,1022.0,1019.0,1021.0,1023.0,1026.0,1021.0,1022.0,1012.0,1020.0,1020.0,1022.0,1019.0,1022.0,1023.0,1028.0,1021.0,1025.0,1013.0,1021.0,1023.0,1026.0,1022.0,1023.0,1028.0,1021.0,1024.0,1013.0,1020.0,1021.0,1022.0,1023.0,1027.0,1021.0,1023.0,1012.0,1020.0,1022.0,1024.0,1028.0,1021.0,1024.0,1013.0,1022.0,1022.0,1024.0,1028.0,1021.0,1023.0,1013.0,1020.0,1021.0,1023.0,1028.0,1021.0,1024.0,1013.0,1021.0,1023.0,1027.0,1021.0,1022.0,1012.0,1023.0,1024.0,1029.0,1022.0,1024.0,1015.0,1023.0,1025.0,1031.0,1023.0,1027.0,1016.0,1022.0,1024.0,1030.0,1023.0,1025.0,1015.0,1023.0,1026.0,1033.0,1024.0,1025.0,1017.0,1025.0,1029.0,1036.0,1026.0,1028.0,1019.0,1026.0,1030.0,1037.0,1026.0,1028.0,1020.0,1027.0,1031.0,1040.0,1027.0,1029.0,1022.0,1032.0,1034.0,1045.0,1028.0,1029.0,1026.0,1032.0,1035.0,1051.0,1030.0,1029.0,1031.0,1028.0,1032.0,1047.0,1028.0,1026.0,1031.0,1030.0,1034.0,1055.0,1030.0,1027.0,1087.0,1028.0,1033.0,1054.0,1029.0,1026.0,2336,2254,1902,	00:29:22.630,-0.01220703125,0.07861328125,1.01806640625,-0.18310546875,0.3662109375,0.18310546875,4.41650390625,0.692138671875,-75.73974609375,101.0,-687.0,-4007.0,-0.788665771484375,-0.034088134765625,0.018890380859375,0.61358642578125,4.414824579677324,0.6902982776386508,-79.94912036682443,-0.7655981515524637,-0.033383452139275044,0.020131842487412954,0.6421368424103835,1,	00:29:22.631,0.02734375,0.0244140625,1.01904296875,-0.06103515625,0.30517578125,0.48828125,1.34033203125,-1.47216796875,41.3031005859375,-9.0,622.0,-1844.0,0.935546875,0.0155029296875,-0.007904052734375,0.352752685546875,1.3427754281529645,-1.4724354710181338,34.797753890818534,0.9540568856437408,0.01502249937505776,-0.00875678491024633,0.29912054791727044,1
1782117271.768416,0.385,1017.0,1025.0,1020.0,1020.0,1022.0,1025.0,1020.0,1021.0,1012.0,1020.0,1022.0,1025.0,1020.0,1022.0,1012.0,1020.0,1020.0,1022.0,1026.0,1020.0,1022.0,1011.0,1020.0,1020.0,1020.0,1021.0,1026.0,1020.0,1021.0,1011.0,1019.0,1020.0,1021.0,1021.0,1022.0,1026.0,1020.0,1022.0,1012.0,1020.0,1020.0,1021.0,1021.0,1022.0,1025.0,1020.0,1022.0,1011.0,1019.0,1019.0,1021.0,1018.0,1021.0,1022.0,1025.0,1021.0,1022.0,1011.0,1020.0,1020.0,1021.0,1018.0,1021.0,1023.0,1026.0,1021.0,1023.0,1012.0,1021.0,1021.0,1023.0,1020.0,1021.0,1023.0,1027.0,1020.0,1022.0,1012.0,1020.0,1020.0,1022.0,1019.0,1021.0,1023.0,1026.0,1021.0,1022.0,1012.0,1020.0,1020.0,1023.0,1020.0,1021.0,1023.0,1026.0,1021.0,1022.0,1012.0,1020.0,1020.0,1022.0,1019.0,1022.0,1023.0,1026.0,1020.0,1022.0,1012.0,1020.0,1020.0,1022.0,1019.0,1022.0,1024.0,1027.0,1021.0,1025.0,1013.0,1021.0,1022.0,1026.0,1022.0,1024.0,1027.0,1021.0,1024.0,1013.0,1021.0,1021.0,1021.0,1023.0,1026.0,1021.0,1023.0,1013.0,1020.0,1022.0,1024.0,1028.0,1021.0,1024.0,1013.0,1021.0,1021.0,1023.0,1027.0,1021.0,1023.0,1013.0,1020.0,1022.0,1024.0,1028.0,1021.0,1024.0,1014.0,1022.0,1023.0,1026.0,1021.0,1021.0,1013.0,1023.0,1024.0,1028.0,1022.0,1024.0,1014.0,1024.0,1025.0,1031.0,1023.0,1026.0,1017.0,1023.0,1024.0,1030.0,1023.0,1024.0,1015.0,1024.0,1026.0,1032.0,1024.0,1025.0,1017.0,1026.0,1029.0,1035.0,1026.0,1028.0,1019.0,1027.0,1030.0,1037.0,1026.0,1028.0,1020.0,1029.0,1031.0,1040.0,1026.0,1029.0,1022.0,1032.0,1034.0,1044.0,1027.0,1029.0,1026.0,1032.0,1035.0,1051.0,1030.0,1029.0,1032.0,1028.0,1032.0,1047.0,1027.0,1026.0,1031.0,1030.0,1034.0,1055.0,1029.0,1027.0,1087.0,1029.0,1033.0,1053.0,1028.0,1026.0,2336,2254,1902,	00:29:22.640,-0.01220703125,0.07958984375,1.01953125,-0.18310546875,0.3662109375,0.18310546875,4.50439453125,0.68115234375,-75.73974609375,100.0,-689.0,-4006.0,-0.78863525390625,-0.03466796875,0.019439697265625,0.613555908203125,4.503665896251037,0.6819506643872651,-79.94592720571018,-0.765592105269473,-0.033930826501873006,0.020684522545774416,0.6420977946458073,1,	00:29:22.641,0.02685546875,0.025390625,1.02099609375,-0.1220703125,0.30517578125,0.48828125,1.42822265625,-1.505126953125,41.3031005859375,-8.0,622.0,-1845.0,0.935516357421875,0.016265869140625,-0.007904052734375,0.352783203125,1.4261249280734174,-1.504519433476245,34.80050867037785,0.9540340032384649,0.01580031646641928,-0.008805979272558733,0.29915201051204904,1
1782117271.778317,0.395,1017.0,1024.0,1019.0,1019.0,1021.0,1025.0,1020.0,1021.0,1013.0,1020.0,1022.0,1025.0,1021.0,1021.0,1012.0,1020.0,1021.0,1022.0,1025.0,1021.0,1022.0,1012.0,1020.0,1021.0,1020.0,1022.0,1025.0,1021.0,1021.0,1011.0,1020.0,1020.0,1021.0,1021.0,1022.0,1025.0,1021.0,1021.0,1011.0,1020.0,1020.0,1021.0,1021.0,1021.0,1025.0,1021.0,1021.0,1012.0,1020.0,1020.0,1021.0,1018.0,1021.0,1021.0,1025.0,1021.0,1021.0,1012.0,1020.0,1020.0,1021.0,1018.0,1021.0,1023.0,1026.0,1021.0,1023.0,1012.0,1020.0,1022.0,1023.0,1020.0,1022.0,1022.0,1025.0,1021.0,1022.0,1013.0,1020.0,1020.0,1022.0,1019.0,1021.0,1022.0,1025.0,1021.0,1022.0,1012.0,1020.0,1021.0,1023.0,1020.0,1022.0,1023.0,1026.0,1021.0,1022.0,1012.0,1020.0,1020.0,1022.0,1019.0,1021.0,1023.0,1026.0,1021.0,1022.0,1012.0,1020.0,1020.0,1022.0,1019.0,1022.0,1023.0,1027.0,1021.0,1024.0,1013.0,1021.0,1023.0,1025.0,1022.0,1023.0,1027.0,1021.0,1024.0,1013.0,1021.0,1021.0,1021.0,1023.0,1027.0,1021.0,1023.0,1013.0,1020.0,1022.0,1024.0,1028.0,1021.0,1024.0,1013.0,1021.0,1021.0,1023.0,1027.0,1022.0,1023.0,1013.0,1020.0,1022.0,1023.0,1027.0,1022.0,1024.0,1014.0,1021.0,1022.0,1026.0,1022.0,1021.0,1012.0,1023.0,1023.0,1028.0,1022.0,1024.0,1015.0,1023.0,1025.0,1030.0,1024.0,1026.0,1016.0,1022.0,1024.0,1029.0,1024.0,1024.0,1015.0,1024.0,1027.0,1031.0,1025.0,1025.0,1017.0,1025.0,1029.0,1035.0,1027.0,1028.0,1019.0,1026.0,1029.0,1036.0,1027.0,1029.0,1020.0,1028.0,1031.0,1040.0,1028.0,1030.0,1022.0,1032.0,1034.0,1043.0,1029.0,1030.0,1025.0,1032.0,1035.0,1051.0,1031.0,1029.0,1032.0,1029.0,1032.0,1047.0,1028.0,1026.0,1031.0,1030.0,1033.0,1055.0,1030.0,1027.0,1087.0,1029.0,1033.0,1053.0,1028.0,1027.0,2336,2254,1901,	00:29:22.650,-0.01171875,0.0791015625,1.01904296875,-0.18310546875,0.3662109375,0.18310546875,4.41650390625,0.6536865234375,-75.73974609375,101.0,-684.0,-4007.0,-0.7886962890625,-0.033905029296875,0.0191650390625,0.613555908203125,4.41655961078242,0.6526001894049506,-79.94480690023366,-0.7656314362983988,-0.03318467820577118,0.02039227766689991,0.6420992414694061,1,	00:29:22.651,0.02685546875,0.02490234375,1.0205078125,-0.18310546875,0.3662109375,0.42724609375,1.3348388671875,-1.5106201171875,41.30859375,-10.0,622.0,-1845.0,0.935516357421875,0.015533447265625,-0.008209228515625,0.35284423828125,1.3328431709199742,-1.5089317021554234,34.80727422670375,0.9540282688309061,0.015035735996844437,-0.009085347811173813,0.2992013458687773,1
1782117271.788796,0.405,1017.0,1024.0,1019.0,1020.0,1021.0,1025.0,1020.0,1021.0,1013.0,1020.0,1022.0,1025.0,1021.0,1022.0,1011.0,1020.0,1020.0,1022.0,1025.0,1020.0,1021.0,1012.0,1020.0,1021.0,1020.0,1021.0,1025.0,1020.0,1021.0,1012.0,1020.0,1020.0,1020.0,1021.0,1022.0,1025.0,1021.0,1022.0,1012.0,1020.0,1020.0,1021.0,1021.0,1022.0,1025.0,1021.0,1021.0,1011.0,1020.0,1020.0,1021.0,1019.0,1020.0,1021.0,1025.0,1021.0,1022.0,1012.0,1020.0,1020.0,1021.0,1018.0,1021.0,1022.0,1026.0,1021.0,1023.0,1013.0,1020.0,1021.0,1023.0,1020.0,1021.0,1023.0,1025.0,1021.0,1022.0,1012.0,1020.0,1021.0,1022.0,1019.0,1021.0,1022.0,1025.0,1021.0,1022.0,1012.0,1020.0,1021.0,1022.0,1020.0,1022.0,1022.0,1025.0,1021.0,1022.0,1011.0,1020.0,1020.0,1022.0,1019.0,1021.0,1023.0,1026.0,1021.0,1022.0,1012.0,1020.0,1020.0,1022.0,1020.0,1022.0,1023.0,1026.0,1022.0,1024.0,1013.0,1021.0,1022.0,1025.0,1022.0,1023.0,1026.0,1021.0,1023.0,1013.0,1021.0,1021.0,1021.0,1023.0,1027.0,1022.0,1023.0,1013.0,1020.0,1022.0,1023.0,1027.0,1022.0,1024.0,1014.0,1021.0,1021.0,1023.0,1027.0,1022.0,1023.0,1014.0,1021.0,1022.0,1023.0,1027.0,1022.0,1024.0,1014.0,1022.0,1023.0,1027.0,1022.0,1022.0,1013.0,1022.0,1023.0,1028.0,1023.0,1025.0,1015.0,1023.0,1025.0,1030.0,1024.0,1026.0,1016.0,1023.0,1024.0,1028.0,1023.0,1024.0,1016.0,1023.0,1026.0,1031.0,1025.0,1025.0,1017.0,1025.0,1028.0,1034.0,1029.0,1028.0,1019.0,1026.0,1029.0,1036.0,1028.0,1028.0,1020.0,1027.0,1031.0,1039.0,1029.0,1029.0,1022.0,1032.0,1033.0,1043.0,1030.0,1029.0,1026.0,1032.0,1035.0,1051.0,1031.0,1030.0,1032.0,1028.0,1031.0,1046.0,1029.0,1026.0,1031.0,1031.0,1033.0,1054.0,1030.0,1027.0,1087.0,1029.0,1032.0,1052.0,1030.0,1027.0,2336,2253,1901,	00:29:22.660,-0.01171875,0.0791015625,1.01953125,-0.18310546875,0.42724609375,0.244140625,4.50439453125,0.6756591796875,-75.7342529296875,101.0,-685.0,-4004.0,-0.788665771484375,-0.034637451171875,0.01947021484375,0.613525390625,4.504394875515009,0.6745372407763657,-79.94100599197603,-0.7656213904201196,-0.03389507047573954,0.020736700497909124,0.6420630809983296,1,	00:29:22.661,0.02685546875,0.02587890625,1.02099609375,-0.18310546875,0.3662109375,0.42724609375,1.4227294921875,-1.505126953125,41.3140869140625,-10.0,621.0,-1846.0,0.935516357421875,0.0162353515625,-0.007904052734375,0.35284423828125,1.4225537028265391,-1.50329626438026,34.80922299024794,0.9540119161945749,0.01576806384117823,-0.008803918639870569,0.2992242017919646,1
1782117271.798912,0.416,1017.0,1024.0,1021.0,1020.0,1022.0,1024.0,1021.0,1022.0,1012.0,1020.0,1021.0,1024.0,1021.0,1021.0,1012.0,1020.0,1020.0,1022.0,1024.0,1021.0,1022.0,1011.0,1020.0,1020.0,1020.0,1022.0,1025.0,1022.0,1021.0,1011.0,1020.0,1019.0,1021.0,1021.0,1022.0,1025.0,1021.0,1022.0,1011.0,1019.0,1020.0,1021.0,1020.0,1022.0,1024.0,1021.0,1021.0,1011.0,1019.0,1020.0,1021.0,1018.0,1021.0,1022.0,1025.0,1021.0,1022.0,1012.0,1020.0,1020.0,1021.0,1019.0,1021.0,1023.0,1025.0,1021.0,1023.0,1012.0,1020.0,1021.0,1023.0,1020.0,1021.0,1022.0,1025.0,1021.0,1022.0,1012.0,1020.0,1021.0,1022.0,1019.0,1021.0,1022.0,1025.0,1021.0,1022.0,1012.0,1020.0,1020.0,1022.0,1020.0,1022.0,1022.0,1025.0,1021.0,1022.0,1012.0,1020.0,1020.0,1022.0,1019.0,1021.0,1022.0,1025.0,1021.0,1022.0,1012.0,1020.0,1020.0,1022.0,1019.0,1022.0,1024.0,1026.0,1022.0,1024.0,1013.0,1021.0,1023.0,1025.0,1022.0,1023.0,1026.0,1022.0,1024.0,1013.0,1021.0,1021.0,1022.0,1023.0,1026.0,1022.0,1022.0,1012.0,1020.0,1022.0,1024.0,1026.0,1022.0,1024.0,1013.0,1021.0,1021.0,1023.0,1026.0,1022.0,1023.0,1013.0,1021.0,1022.0,1023.0,1026.0,1022.0,1024.0,1014.0,1022.0,1023.0,1026.0,1022.0,1022.0,1013.0,1022.0,1023.0,1028.0,1023.0,1024.0,1015.0,1023.0,1024.0,1030.0,1023.0,1026.0,1017.0,1022.0,1024.0,1029.0,1024.0,1024.0,1016.0,1024.0,1026.0,1030.0,1025.0,1026.0,1017.0,1026.0,1029.0,1034.0,1028.0,1028.0,1019.0,1026.0,1029.0,1036.0,1028.0,1028.0,1020.0,1028.0,1030.0,1039.0,1027.0,1030.0,1022.0,1032.0,1033.0,1043.0,1029.0,1029.0,1026.0,1032.0,1035.0,1051.0,1030.0,1030.0,1031.0,1029.0,1031.0,1046.0,1027.0,1026.0,1031.0,1031.0,1033.0,1055.0,1030.0,1027.0,1086.0,1029.0,1031.0,1052.0,1029.0,1027.0,2335,2253,1901,	00:29:22.670,-0.01123046875,0.0791015625,1.0185546875,-0.1220703125,0.3662109375,0.1220703125,4.427490234375,0.626220703125,-75.7342529296875,100.0,-684.0,-4007.0,-0.788726806640625,-0.033843994140625,0.0194091796875,0.613525390625,4.428350165745763,0.6255357300031101,-79.94034983069349,-0.7656598621003543,-0.03311268508453443,0.020637950248517768,0.6420612125525873,1,	00:29:22.672,0.02734375,0.02392578125,1.02099609375,-0.1220703125,0.3662109375,0.48828125,1.3348388671875,-1.5325927734375,41.319580078125,-9.0,621.0,-1844.0,0.93548583984375,0.015625,-0.008392333984375,0.3529052734375,1.3354611841161346,-1.53225390805784,34.81646835792482,0.9540006295846841,0.015119111085648944,-0.009271485761004313,0.29927955289960845,1
1782117271.808126,0.425,1017.0,1024.0,1019.0,1019.0,1022.0,1024.0,1020.0,1022.0,1012.0,1020.0,1022.0,1025.0,1021.0,1022.0,1012.0,1020.0,1021.0,1022.0,1024.0,1020.0,1022.0,1011.0,1020.0,1020.0,1021.0,1022.0,1025.0,1020.0,1021.0,1011.0,1020.0,1020.0,1021.0,1021.0,1022.0,1025.0,1021.0,1021.0,1012.0,1020.0,1020.0,1021.0,1021.0,1022.0,1025.0,1021.0,1022.0,1011.0,1020.0,1020.0,1021.0,1018.0,1021.0,1022.0,1025.0,1020.0,1021.0,1011.0,1020.0,1020.0,1021.0,1018.0,1022.0,1023.0,1026.0,1021.0,1024.0,1012.0,1021.0,1021.0,1023.0,1021.0,1021.0,1022.0,1025.0,1021.0,1022.0,1012.0,1020.0,1021.0,1022.0,1019.0,1021.0,1022.0,1026.0,1021.0,1022.0,1011.0,1020.0,1021.0,1023.0,1020.0,1021.0,1023.0,1025.0,1021.0,1022.0,1012.0,1020.0,1020.0,1022.0,1019.0,1021.0,1022.0,1025.0,1021.0,1022.0,1012.0,1020.0,1020.0,1022.0,1019.0,1023.0,1023.0,1026.0,1021.0,1025.0,1013.0,1021.0,1023.0,1025.0,1022.0,1023.0,1027.0,1022.0,1024.0,1014.0,1021.0,1021.0,1022.0,1023.0,1026.0,1022.0,1023.0,1013.0,1021.0,1022.0,1023.0,1026.0,1022.0,1024.0,1013.0,1021.0,1022.0,1023.0,1027.0,1021.0,1024.0,1013.0,1021.0,1022.0,1023.0,1026.0,1022.0,1024.0,1014.0,1021.0,1022.0,1026.0,1021.0,1021.0,1013.0,1023.0,1023.0,1028.0,1022.0,1024.0,1015.0,1024.0,1024.0,1030.0,1024.0,1026.0,1016.0,1023.0,1024.0,1029.0,1023.0,1024.0,1015.0,1024.0,1026.0,1031.0,1025.0,1026.0,1017.0,1026.0,1029.0,1034.0,1027.0,1029.0,1020.0,1026.0,1029.0,1036.0,1027.0,1028.0,1019.0,1028.0,1031.0,1039.0,1028.0,1029.0,1022.0,1033.0,1032.0,1044.0,1028.0,1030.0,1026.0,1031.0,1036.0,1051.0,1030.0,1030.0,1032.0,1028.0,1033.0,1046.0,1029.0,1026.0,1032.0,1030.0,1034.0,1055.0,1031.0,1028.0,1087.0,1029.0,1032.0,1052.0,1031.0,1027.0,2335,2253,1902,	00:29:22.681,-0.0126953125,0.078125,1.02001953125,-0.18310546875,0.42724609375,0.1220703125,4.383544921875,0.7086181640625,-75.7342529296875,101.0,-687.0,-4004.0,-0.7886962890625,-0.033966064453125,0.018585205078125,0.613555908203125,4.381289931702603,0.7093915798378586,-79.93933116389022,-0.7656578711837168,-0.033268029829955185,0.019813466034380393,0.6420815283508446,1,	00:29:22.682,0.02587890625,0.02392578125,1.0224609375,-0.18310546875,0.30517578125,0.42724609375,1.34033203125,-1.439208984375,41.3250732421875,-7.0,621.0,-1844.0,0.93548583984375,0.015350341796875,-0.00762939453125,0.352935791015625,1.3390719752870321,-1.4378251764178298,34.82066677804471,0.9540022568935866,0.014903102455496472,-0.008475289175235235,0.29930880517041325,1
1782117271.818662,0.435,1017.0,1024.0,1020.0,1019.0,1021.0,1024.0,1021.0,1022.0,1013.0,1020.0,1021.0,1024.0,1020.0,1022.0,1012.0,1019.0,1021.0,1022.0,1025.0,1021.0,1022.0,1012.0,1020.0,1020.0,1021.0,1021.0,1024.0,1021.0,1022.0,1012.0,1020.0,1020.0,1021.0,1020.0,1022.0,1025.0,1021.0,1022.0,1011.0,1020.0,1020.0,1021.0,1021.0,1022.0,1025.0,1021.0,1022.0,1011.0,1019.0,1020.0,1021.0,1018.0,1021.0,1022.0,1025.0,1021.0,1021.0,1012.0,1020.0,1020.0,1021.0,1019.0,1021.0,1022.0,1025.0,1021.0,1023.0,1012.0,1020.0,1021.0,1023.0,1020.0,1021.0,1022.0,1025.0,1020.0,1022.0,1012.0,1020.0,1020.0,1022.0,1019.0,1022.0,1022.0,1026.0,1021.0,1023.0,1012.0,1020.0,1021.0,1023.0,1020.0,1022.0,1023.0,1025.0,1021.0,1023.0,1012.0,1020.0,1020.0,1022.0,1019.0,1021.0,1022.0,1025.0,1021.0,1023.0,1012.0,1020.0,1020.0,1022.0,1019.0,1022.0,1023.0,1026.0,1021.0,1024.0,1014.0,1021.0,1022.0,1025.0,1022.0,1023.0,1026.0,1022.0,1023.0,1013.0,1021.0,1021.0,1021.0,1023.0,1027.0,1021.0,1023.0,1013.0,1020.0,1022.0,1023.0,1027.0,1021.0,1024.0,1014.0,1021.0,1022.0,1023.0,1027.0,1021.0,1024.0,1013.0,1020.0,1022.0,1023.0,1026.0,1022.0,1024.0,1014.0,1022.0,1023.0,1026.0,1022.0,1022.0,1013.0,1022.0,1024.0,1028.0,1022.0,1024.0,1015.0,1023.0,1025.0,1030.0,1024.0,1026.0,1017.0,1022.0,1024.0,1029.0,1023.0,1024.0,1016.0,1023.0,1026.0,1031.0,1024.0,1025.0,1017.0,1025.0,1029.0,1035.0,1027.0,1028.0,1020.0,1026.0,1029.0,1035.0,1026.0,1028.0,1020.0,1028.0,1031.0,1040.0,1026.0,1029.0,1023.0,1032.0,1034.0,1044.0,1028.0,1029.0,1027.0,1032.0,1035.0,1050.0,1030.0,1029.0,1032.0,1029.0,1032.0,1046.0,1027.0,1026.0,1032.0,1031.0,1034.0,1054.0,1029.0,1027.0,1088.0,1030.0,1033.0,1052.0,1028.0,1027.0,2335,2253,1902,	00:29:22.691,-0.01123046875,0.07861328125,1.01904296875,-0.06103515625,0.42724609375,0.18310546875,4.4110107421875,0.626220703125,-75.728759765625,103.0,-686.0,-4005.0,-0.788726806640625,-0.03375244140625,0.019317626953125,0.613494873046875,4.41295211861875,0.6277086360827934,-79.93680226793911,-0.76568363314125,-0.03302260513571924,0.020536128066867495,0.6420407689031027,1,	00:29:22.692,0.02734375,0.02490234375,1.02294921875,-0.18310546875,0.30517578125,0.48828125,1.38427734375,-1.51611328125,41.3250732421875,-9.0,621.0,-1845.0,0.935455322265625,0.015960693359375,-0.008087158203125,0.35296630859375,1.3840728603263703,-1.5135692815506048,34.82441303303682,0.9539760349714569,0.015475686719438485,-0.008987884016012387,0.2993483685634755,1
1782117271.828947,0.446,1017.0,1024.0,1019.0,1020.0,1022.0,1024.0,1020.0,1021.0,1012.0,1020.0,1022.0,1024.0,1020.0,1021.0,1012.0,1020.0,1021.0,1022.0,1024.0,1020.0,1022.0,1012.0,1020.0,1020.0,1021.0,1022.0,1024.0,1020.0,1022.0,1012.0,1020.0,1020.0,1021.0,1020.0,1022.0,1025.0,1021.0,1022.0,1012.0,1020.0,1021.0,1021.0,1021.0,1022.0,1024.0,1021.0,1022.0,1012.0,1020.0,1020.0,1021.0,1018.0,1020.0,1022.0,1025.0,1021.0,1022.0,1012.0,1020.0,1020.0,1021.0,1019.0,1021.0,1022.0,1025.0,1021.0,1023.0,1012.0,1020.0,1021.0,1023.0,1020.0,1021.0,1022.0,1025.0,1021.0,1023.0,1012.0,1020.0,1020.0,1022.0,1020.0,1021.0,1022.0,1025.0,1021.0,1022.0,1012.0,1020.0,1021.0,1022.0,1020.0,1021.0,1022.0,1025.0,1021.0,1023.0,1012.0,1020.0,1020.0,1022.0,1019.0,1021.0,1022.0,1026.0,1021.0,1023.0,1012.0,1020.0,1020.0,1022.0,1019.0,1022.0,1023.0,1026.0,1021.0,1025.0,1013.0,1021.0,1022.0,1025.0,1022.0,1024.0,1026.0,1022.0,1024.0,1013.0,1021.0,1021.0,1022.0,1023.0,1026.0,1021.0,1023.0,1013.0,1021.0,1022.0,1024.0,1026.0,1022.0,1025.0,1014.0,1021.0,1022.0,1024.0,1027.0,1022.0,1023.0,1013.0,1021.0,1022.0,1023.0,1026.0,1021.0,1024.0,1015.0,1021.0,1022.0,1025.0,1021.0,1022.0,1013.0,1023.0,1024.0,1027.0,1023.0,1025.0,1015.0,1023.0,1025.0,1030.0,1023.0,1027.0,1017.0,1022.0,1024.0,1029.0,1023.0,1024.0,1016.0,1024.0,1026.0,1030.0,1024.0,1026.0,1017.0,1026.0,1029.0,1034.0,1027.0,1029.0,1019.0,1026.0,1029.0,1036.0,1026.0,1028.0,1020.0,1027.0,1031.0,1039.0,1026.0,1030.0,1023.0,1033.0,1033.0,1044.0,1028.0,1030.0,1027.0,1032.0,1036.0,1050.0,1031.0,1030.0,1033.0,1030.0,1032.0,1046.0,1028.0,1027.0,1032.0,1032.0,1034.0,1055.0,1030.0,1027.0,1088.0,1030.0,1033.0,1052.0,1030.0,1026.0,2335,2252,1901,	00:29:22.701,-0.01220703125,0.078125,1.02001953125,-0.06103515625,0.42724609375,0.18310546875,4.3670654296875,0.7086181640625,-75.728759765625,101.0,-688.0,-4008.0,-0.788726806640625,-0.03387451171875,0.01849365234375,0.613525390625,4.365677781720139,0.7106786789889156,-79.93519342528457,-0.7656852527200476,-0.0331716347951983,0.019716186428383298,0.6420568576105795,1,	00:29:22.702,0.0263671875,0.0244140625,1.02099609375,-0.18310546875,0.244140625,0.42724609375,1.3458251953125,-1.42822265625,41.33056640625,-9.0,624.0,-1846.0,0.935455322265625,0.015380859375,-0.00750732421875,0.352996826171875,1.3472323421758126,-1.426508099682849,34.82963857151101,0.9539792813154941,0.014942161795713638,-0.008358578697527859,0.2993833609000361,1
1782117271.838954,0.456,1017.0,1023.0,1020.0,1019.0,1022.0,1024.0,1020.0,1021.0,1012.0,1020.0,1022.0,1024.0,1021.0,1022.0,1012.0,1020.0,1021.0,1022.0,1024.0,1021.0,1022.0,1012.0,1020.0,1020.0,1021.0,1021.0,1025.0,1021.0,1022.0,1012.0,1020.0,1020.0,1021.0,1021.0,1022.0,1025.0,1020.0,1022.0,1012.0,1020.0,1020.0,1021.0,1021.0,1022.0,1025.0,1020.0,1022.0,1012.0,1020.0,1020.0,1021.0,1018.0,1021.0,1021.0,1024.0,1021.0,1022.0,1012.0,1020.0,1020.0,1021.0,1019.0,1021.0,1022.0,1025.0,1021.0,1024.0,1013.0,1020.0,1021.0,1023.0,1020.0,1021.0,1023.0,1024.0,1021.0,1023.0,1013.0,1020.0,1021.0,1022.0,1020.0,1021.0,1022.0,1025.0,1021.0,1023.0,1012.0,1020.0,1020.0,1023.0,1020.0,1021.0,1022.0,1025.0,1021.0,1023.0,1012.0,1020.0,1021.0,1022.0,1019.0,1021.0,1022.0,1025.0,1021.0,1022.0,1013.0,1020.0,1020.0,1022.0,1019.0,1022.0,1024.0,1026.0,1022.0,1024.0,1013.0,1021.0,1022.0,1025.0,1022.0,1023.0,1025.0,1021.0,1024.0,1013.0,1021.0,1021.0,1022.0,1023.0,1026.0,1021.0,1023.0,1013.0,1020.0,1021.0,1024.0,1026.0,1022.0,1024.0,1015.0,1021.0,1022.0,1023.0,1027.0,1022.0,1023.0,1014.0,1021.0,1022.0,1023.0,1027.0,1022.0,1024.0,1014.0,1021.0,1023.0,1026.0,1022.0,1022.0,1014.0,1022.0,1024.0,1027.0,1023.0,1024.0,1016.0,1024.0,1025.0,1029.0,1024.0,1027.0,1017.0,1022.0,1024.0,1028.0,1023.0,1024.0,1015.0,1024.0,1026.0,1030.0,1024.0,1026.0,1017.0,1026.0,1029.0,1034.0,1027.0,1029.0,1019.0,1026.0,1030.0,1035.0,1028.0,1029.0,1021.0,1028.0,1031.0,1039.0,1028.0,1029.0,1022.0,1033.0,1033.0,1043.0,1028.0,1029.0,1027.0,1032.0,1036.0,1050.0,1031.0,1029.0,1033.0,1029.0,1032.0,1046.0,1028.0,1026.0,1033.0,1032.0,1034.0,1054.0,1030.0,1027.0,1088.0,1030.0,1033.0,1051.0,1029.0,1027.0,2334,2252,1902,	00:29:22.711,-0.0126953125,0.078125,1.0185546875,-0.1220703125,0.3662109375,0.18310546875,4.4549560546875,0.7196044921875,-75.7232666015625,101.0,-688.0,-4005.0,-0.788726806640625,-0.0345458984375,0.018890380859375,0.613494873046875,4.455696024456754,0.720129566882943,-79.93195011504649,-0.7656746761215973,-0.03382660615782237,0.020156422394752484,0.6420216271265126,1,	00:29:22.712,0.02685546875,0.02490234375,1.02099609375,-0.18310546875,0.244140625,0.42724609375,1.395263671875,-1.4996337890625,41.3360595703125,-8.0,623.0,-1848.0,0.9354248046875,0.0159912109375,-0.007965087890625,0.353057861328125,1.3939224765230784,-1.5018263416418356,34.832727197125784,0.9539546389505765,0.015527683032355164,-0.008863257301888115,0.29941756888052273,1
1782117271.850514,0.467,1017.0,1024.0,1019.0,1019.0,1022.0,1024.0,1021.0,1021.0,1012.0,1020.0,1022.0,1025.0,1021.0,1021.0,1011.0,1019.0,1021.0,1022.0,1024.0,1021.0,1022.0,1012.0,1020.0,1020.0,1021.0,1021.0,1024.0,1021.0,1021.0,1011.0,1020.0,1020.0,1021.0,1021.0,1022.0,1024.0,1021.0,1022.0,1012.0,1020.0,1020.0,1021.0,1021.0,1022.0,1024.0,1021.0,1022.0,1012.0,1020.0,1020.0,1021.0,1019.0,1021.0,1022.0,1025.0,1021.0,1022.0,1012.0,1020.0,1020.0,1021.0,1018.0,1022.0,1023.0,1026.0,1021.0,1023.0,1012.0,1020.0,1021.0,1023.0,1020.0,1021.0,1022.0,1025.0,1021.0,1022.0,1013.0,1021.0,1021.0,1022.0,1019.0,1021.0,1022.0,1025.0,1021.0,1023.0,1013.0,1020.0,1020.0,1023.0,1019.0,1021.0,1023.0,1025.0,1021.0,1022.0,1012.0,1020.0,1020.0,1022.0,1019.0,1021.0,1022.0,1026.0,1021.0,1022.0,1013.0,1020.0,1021.0,1022.0,1019.0,1022.0,1024.0,1026.0,1021.0,1025.0,1013.0,1021.0,1023.0,1025.0,1022.0,1024.0,1026.0,1021.0,1023.0,1013.0,1020.0,1021.0,1021.0,1023.0,1026.0,1021.0,1023.0,1013.0,1020.0,1022.0,1024.0,1026.0,1022.0,1024.0,1014.0,1021.0,1022.0,1023.0,1026.0,1021.0,1023.0,1014.0,1021.0,1022.0,1023.0,1026.0,1021.0,1024.0,1015.0,1021.0,1023.0,1025.0,1021.0,1022.0,1013.0,1022.0,1024.0,1028.0,1022.0,1024.0,1015.0,1024.0,1025.0,1030.0,1024.0,1026.0,1017.0,1023.0,1024.0,1028.0,1023.0,1024.0,1016.0,1024.0,1026.0,1030.0,1024.0,1025.0,1017.0,1026.0,1029.0,1034.0,1027.0,1028.0,1019.0,1026.0,1030.0,1035.0,1026.0,1028.0,1021.0,1028.0,1031.0,1038.0,1027.0,1029.0,1023.0,1033.0,1033.0,1044.0,1028.0,1030.0,1027.0,1032.0,1036.0,1050.0,1030.0,1030.0,1033.0,1029.0,1032.0,1046.0,1028.0,1026.0,1032.0,1032.0,1034.0,1055.0,1030.0,1027.0,1088.0,1030.0,1033.0,1052.0,1029.0,1027.0,2334,2252,1902,	00:29:22.722,-0.01220703125,0.07861328125,1.01806640625,-0.1220703125,0.42724609375,0.1220703125,4.383544921875,0.6646728515625,-75.7232666015625,101.0,-688.0,-4008.0,-0.78875732421875,-0.03375244140625,0.0189208984375,0.61346435546875,4.385686997497349,0.6640131591809137,-79.93123149168339,-0.7657135262999385,-0.03304470919702565,0.020139088142264887,0.6420165573910035,1,	00:29:22.723,0.0263671875,0.02490234375,1.02099609375,-0.18310546875,0.244140625,0.42724609375,1.40625,-1.40625,41.341552734375,-8.0,621.0,-1844.0,0.9354248046875,0.01580810546875,-0.007171630859375,0.353057861328125,1.4048741918968768,-1.4087490929184574,34.836730244499144,0.9539555123717754,0.015376176254355693,-0.008059172747702764,0.29944532615140457,1
1782117271.860100,0.477,1017.0,1024.0,1020.0,1020.0,1021.0,1025.0,1020.0,1021.0,1012.0,1020.0,1022.0,1025.0,1020.0,1022.0,1011.0,1019.0,1020.0,1022.0,1025.0,1021.0,1022.0,1012.0,1020.0,1020.0,1021.0,1021.0,1025.0,1021.0,1021.0,1012.0,1020.0,1020.0,1020.0,1021.0,1021.0,1025.0,1021.0,1021.0,1012.0,1020.0,1020.0,1021.0,1021.0,1022.0,1025.0,1020.0,1022.0,1011.0,1020.0,1019.0,1021.0,1018.0,1021.0,1022.0,1025.0,1020.0,1021.0,1011.0,1020.0,1020.0,1021.0,1019.0,1022.0,1022.0,1026.0,1021.0,1023.0,1012.0,1020.0,1021.0,1023.0,1021.0,1021.0,1022.0,1026.0,1021.0,1022.0,1012.0,1020.0,1021.0,1022.0,1019.0,1021.0,1022.0,1025.0,1020.0,1022.0,1011.0,1020.0,1021.0,1022.0,1019.0,1022.0,1022.0,1026.0,1021.0,1022.0,1012.0,1020.0,1020.0,1022.0,1019.0,1021.0,1022.0,1026.0,1021.0,1023.0,1012.0,1020.0,1020.0,1022.0,1019.0,1022.0,1023.0,1027.0,1021.0,1024.0,1013.0,1021.0,1022.0,1025.0,1022.0,1023.0,1027.0,1021.0,1024.0,1013.0,1021.0,1021.0,1022.0,1023.0,1026.0,1021.0,1022.0,1013.0,1020.0,1022.0,1024.0,1027.0,1022.0,1024.0,1014.0,1021.0,1022.0,1023.0,1027.0,1021.0,1024.0,1013.0,1021.0,1022.0,1023.0,1027.0,1022.0,1024.0,1014.0,1022.0,1022.0,1027.0,1021.0,1022.0,1013.0,1023.0,1024.0,1029.0,1022.0,1025.0,1015.0,1024.0,1024.0,1030.0,1023.0,1027.0,1017.0,1023.0,1024.0,1029.0,1023.0,1024.0,1015.0,1025.0,1026.0,1031.0,1024.0,1026.0,1016.0,1026.0,1029.0,1035.0,1026.0,1029.0,1019.0,1027.0,1029.0,1036.0,1026.0,1028.0,1021.0,1028.0,1031.0,1040.0,1026.0,1029.0,1022.0,1033.0,1033.0,1044.0,1028.0,1030.0,1027.0,1033.0,1035.0,1051.0,1030.0,1030.0,1033.0,1030.0,1032.0,1047.0,1027.0,1026.0,1032.0,1033.0,1033.0,1056.0,1030.0,1027.0,1088.0,1031.0,1032.0,1053.0,1029.0,1027.0,2334,2252,1902,	00:29:22.732,-0.0126953125,0.07861328125,1.0185546875,0.0,0.42724609375,0.18310546875,4.4329833984375,0.7470703125,-75.7232666015625,101.0,-686.0,-4007.0,-0.78875732421875,-0.034515380859375,0.018585205078125,0.61346435546875,4.431527835148645,0.7474111465092708,-79.92851470365794,-0.7656939610156445,-0.03381847558743441,0.019837635215104187,0.6420089851413195,1,	00:29:22.733,0.02734375,0.02490234375,1.0224609375,-0.244140625,0.244140625,0.42724609375,1.395263671875,-1.4996337890625,41.3470458984375,-7.0,621.0,-1845.0,0.9354248046875,0.0159912109375,-0.0079345703125,0.353118896484375,1.3951045472169006,-1.4977765484999053,34.84124764289832,0.9539327830030396,0.015527608807501442,-0.008825296932757846,0.29948831865507797,1
1782117271.870562,0.487,1018.0,1025.0,1020.0,1020.0,1022.0,1025.0,1021.0,1021.0,1012.0,1021.0,1022.0,1025.0,1021.0,1022.0,1012.0,1020.0,1021.0,1021.0,1025.0,1020.0,1022.0,1012.0,1020.0,1021.0,1021.0,1022.0,1025.0,1020.0,1021.0,1011.0,1020.0,1020.0,1021.0,1021.0,1022.0,1025.0,1021.0,1022.0,1011.0,1020.0,1019.0,1021.0,1021.0,1022.0,1025.0,1021.0,1022.0,1011.0,1020.0,1019.0,1021.0,1018.0,1021.0,1022.0,1025.0,1020.0,1022.0,1012.0,1020.0,1020.0,1021.0,1019.0,1021.0,1022.0,1026.0,1021.0,1023.0,1012.0,1020.0,1021.0,1023.0,1021.0,1022.0,1022.0,1025.0,1020.0,1022.0,1012.0,1019.0,1020.0,1022.0,1020.0,1022.0,1022.0,1025.0,1021.0,1023.0,1012.0,1020.0,1021.0,1022.0,1019.0,1021.0,1022.0,1026.0,1021.0,1023.0,1012.0,1020.0,1020.0,1022.0,1019.0,1022.0,1022.0,1025.0,1022.0,1022.0,1012.0,1020.0,1020.0,1022.0,1019.0,1022.0,1024.0,1027.0,1021.0,1024.0,1013.0,1021.0,1022.0,1025.0,1022.0,1023.0,1026.0,1021.0,1024.0,1013.0,1020.0,1021.0,1022.0,1023.0,1026.0,1021.0,1023.0,1013.0,1020.0,1022.0,1023.0,1027.0,1022.0,1024.0,1014.0,1021.0,1022.0,1023.0,1027.0,1021.0,1023.0,1013.0,1021.0,1022.0,1023.0,1027.0,1022.0,1024.0,1014.0,1021.0,1023.0,1026.0,1021.0,1022.0,1013.0,1023.0,1024.0,1028.0,1022.0,1025.0,1015.0,1023.0,1025.0,1030.0,1023.0,1027.0,1017.0,1022.0,1024.0,1028.0,1023.0,1024.0,1015.0,1024.0,1025.0,1031.0,1024.0,1026.0,1016.0,1027.0,1029.0,1034.0,1026.0,1029.0,1019.0,1027.0,1030.0,1036.0,1026.0,1029.0,1020.0,1028.0,1031.0,1038.0,1027.0,1030.0,1023.0,1033.0,1034.0,1043.0,1028.0,1030.0,1027.0,1033.0,1035.0,1049.0,1030.0,1030.0,1033.0,1030.0,1032.0,1046.0,1027.0,1026.0,1033.0,1033.0,1033.0,1054.0,1030.0,1028.0,1089.0,1031.0,1032.0,1052.0,1030.0,1027.0,2334,2251,1902,	00:29:22.742,-0.01220703125,0.07958984375,1.0205078125,0.0,0.42724609375,0.18310546875,4.4659423828125,0.670166015625,-75.7177734375,99.0,-687.0,-4008.0,-0.78875732421875,-0.03436279296875,0.019317626953125,0.613433837890625,4.468178418373021,0.6675071684511737,-79.92590668474747,-0.7657184723241822,-0.033616438291753356,0.020576336017025267,0.6419671102277839,1,	00:29:22.743,0.0263671875,0.02587890625,1.02099609375,-0.30517578125,0.244140625,0.42724609375,1.4776611328125,-1.4666748046875,41.3470458984375,-8.0,621.0,-1844.0,0.935394287109375,0.0166015625,-0.007415771484375,0.353118896484375,1.478938568429369,-1.4664884693432665,34.8433285955039,0.9539201530582933,0.01614395693602028,-0.008345412278879753,0.2995097132608325,1
1782117271.880491,0.497,1017.0,1024.0,1019.0,1019.0,1022.0,1024.0,1021.0,1021.0,1011.0,1021.0,1022.0,1024.0,1021.0,1022.0,1012.0,1020.0,1021.0,1022.0,1025.0,1020.0,1022.0,1012.0,1020.0,1020.0,1021.0,1022.0,1024.0,1021.0,1022.0,1012.0,1020.0,1021.0,1022.0,1021.0,1022.0,1024.0,1020.0,1022.0,1011.0,1020.0,1020.0,1021.0,1021.0,1022.0,1024.0,1020.0,1022.0,1011.0,1020.0,1020.0,1021.0,1018.0,1021.0,1022.0,1025.0,1020.0,1022.0,1012.0,1020.0,1020.0,1021.0,1018.0,1021.0,1023.0,1025.0,1020.0,1023.0,1012.0,1021.0,1021.0,1023.0,1020.0,1022.0,1022.0,1025.0,1021.0,1023.0,1012.0,1020.0,1021.0,1022.0,1019.0,1021.0,1022.0,1026.0,1021.0,1023.0,1012.0,1020.0,1021.0,1022.0,1020.0,1022.0,1022.0,1025.0,1021.0,1022.0,1013.0,1020.0,1020.0,1022.0,1019.0,1021.0,1022.0,1025.0,1021.0,1023.0,1013.0,1020.0,1020.0,1022.0,1018.0,1023.0,1023.0,1026.0,1021.0,1024.0,1014.0,1021.0,1022.0,1025.0,1022.0,1023.0,1026.0,1021.0,1024.0,1013.0,1021.0,1021.0,1022.0,1023.0,1026.0,1021.0,1022.0,1013.0,1020.0,1022.0,1023.0,1027.0,1022.0,1025.0,1014.0,1020.0,1022.0,1023.0,1026.0,1022.0,1024.0,1014.0,1021.0,1022.0,1023.0,1026.0,1022.0,1024.0,1014.0,1022.0,1023.0,1025.0,1021.0,1022.0,1013.0,1023.0,1024.0,1027.0,1023.0,1025.0,1016.0,1024.0,1025.0,1029.0,1024.0,1027.0,1017.0,1023.0,1024.0,1028.0,1023.0,1025.0,1016.0,1024.0,1026.0,1030.0,1025.0,1026.0,1018.0,1026.0,1029.0,1033.0,1027.0,1029.0,1020.0,1028.0,1030.0,1035.0,1027.0,1029.0,1020.0,1029.0,1031.0,1038.0,1027.0,1030.0,1023.0,1034.0,1034.0,1043.0,1029.0,1030.0,1027.0,1033.0,1035.0,1050.0,1030.0,1030.0,1033.0,1030.0,1032.0,1045.0,1028.0,1026.0,1033.0,1033.0,1034.0,1054.0,1031.0,1027.0,1089.0,1031.0,1032.0,1052.0,1030.0,1028.0,2333,2251,1902,	00:29:22.752,-0.01171875,0.0791015625,1.01904296875,0.0,0.42724609375,0.18310546875,4.383544921875,0.6427001953125,-75.7177734375,101.0,-684.0,-4008.0,-0.788818359375,-0.033599853515625,0.01904296875,0.613433837890625,4.382170079912461,0.6407315798196938,-79.92473025701408,-0.7657568379164231,-0.03289198859202138,0.020273145720802094,0.6419685209052595,1,	00:29:22.753,0.02685546875,0.025390625,1.02099609375,-0.244140625,0.244140625,0.42724609375,1.4007568359375,-1.51611328125,41.3525390625,-8.0,622.0,-1843.0,0.935394287109375,0.01611328125,-0.008087158203125,0.353179931640625,1.4023698722785372,-1.5182788592917424,34.84959292401761,0.9539070815371985,0.015642272284723292,-0.008975860684249156,0.299559732000034,1
1782117271.892005,0.509,1017.0,1024.0,1020.0,1020.0,1022.0,1024.0,1021.0,1021.0,1012.0,1021.0,1021.0,1025.0,1020.0,1021.0,1011.0,1020.0,1021.0,1022.0,1025.0,1021.0,1022.0,1011.0,1020.0,1021.0,1021.0,1022.0,1025.0,1021.0,1022.0,1012.0,1019.0,1020.0,1021.0,1021.0,1022.0,1025.0,1020.0,1021.0,1011.0,1020.0,1020.0,1021.0,1021.0,1022.0,1025.0,1021.0,1021.0,1011.0,1020.0,1020.0,1021.0,1018.0,1021.0,1022.0,1025.0,1021.0,1022.0,1011.0,1019.0,1020.0,1021.0,1018.0,1022.0,1023.0,1026.0,1021.0,1023.0,1012.0,1020.0,1021.0,1023.0,1021.0,1022.0,1022.0,1026.0,1021.0,1023.0,1012.0,1020.0,1020.0,1022.0,1020.0,1022.0,1022.0,1025.0,1021.0,1022.0,1012.0,1020.0,1021.0,1023.0,1020.0,1022.0,1023.0,1025.0,1021.0,1022.0,1012.0,1020.0,1020.0,1022.0,1019.0,1022.0,1022.0,1025.0,1021.0,1022.0,1012.0,1020.0,1020.0,1022.0,1019.0,1022.0,1023.0,1026.0,1021.0,1025.0,1013.0,1021.0,1022.0,1025.0,1022.0,1023.0,1026.0,1021.0,1024.0,1013.0,1021.0,1021.0,1022.0,1023.0,1026.0,1021.0,1023.0,1013.0,1020.0,1022.0,1024.0,1027.0,1021.0,1024.0,1013.0,1021.0,1022.0,1023.0,1027.0,1022.0,1024.0,1013.0,1021.0,1021.0,1023.0,1026.0,1021.0,1024.0,1014.0,1022.0,1022.0,1026.0,1021.0,1022.0,1013.0,1023.0,1024.0,1028.0,1022.0,1025.0,1015.0,1023.0,1025.0,1029.0,1024.0,1027.0,1017.0,1023.0,1024.0,1028.0,1024.0,1025.0,1016.0,1024.0,1026.0,1030.0,1024.0,1026.0,1017.0,1026.0,1029.0,1033.0,1027.0,1029.0,1020.0,1027.0,1030.0,1036.0,1026.0,1029.0,1021.0,1028.0,1031.0,1038.0,1027.0,1030.0,1023.0,1033.0,1034.0,1043.0,1028.0,1030.0,1027.0,1033.0,1035.0,1050.0,1030.0,1029.0,1033.0,1030.0,1032.0,1046.0,1028.0,1026.0,1033.0,1032.0,1034.0,1054.0,1031.0,1027.0,1088.0,1031.0,1033.0,1052.0,1030.0,1027.0,2333,2251,1902,	00:29:22.763,-0.01171875,0.07861328125,1.01953125,-0.06103515625,0.42724609375,0.18310546875,4.46044921875,0.692138671875,-75.7122802734375,98.0,-688.0,-4006.0,-0.788787841796875,-0.034423828125,0.019134521484375,0.6134033203125,4.46044471004282,0.6911337457115816,-79.92166179066196,-0.7657384304309679,-0.03369780433581169,0.020373824384236107,0.6419454972379067,1,	00:29:22.764,0.02783203125,0.02490234375,1.02001953125,-0.244140625,0.244140625,0.42724609375,1.3897705078125,-1.6094970703125,41.3580322265625,-9.0,620.0,-1846.0,0.93536376953125,0.016326904296875,-0.008819580078125,0.35321044921875,1.3918591210574116,-1.6072415417192292,34.854144213212216,0.9538836895258066,0.015787481622582568,-0.00974334527363626,0.29960261932020865,1
