Unix_Time_s,EMG_t_s,sample_idx,fs,gain,flags,emg_valid,ch1_raw_uV,ch1_filt_uV,ch1_env_uV,ch2_raw_uV,ch2_filt_uV,ch2_env_uV
1782115933.887775,0.000000,387480,1000,12,0,1,217.411,-26.669,20.902,486.395,-0.190,1.074
1782115933.888775,0.001000,387481,1000,12,0,1,217.003,-22.081,20.699,487.451,0.756,1.066
1782115933.889775,0.002000,387482,1000,12,0,1,217.003,-16.729,20.362,486.731,0.357,1.057
1782115933.890775,0.003000,387483,1000,12,0,1,219.573,-11.179,19.929,484.473,-1.829,1.079
1782115933.891775,0.004000,387484,1000,12,0,1,210.061,-13.991,19.480,485.073,-1.473,1.077
1782115933.892775,0.005000,387485,1000,12,0,1,205.064,-18.049,19.198,485.170,-0.677,1.079
1782115933.893775,0.006000,387486,1000,12,0,1,208.596,-10.025,18.893,486.923,0.383,1.080
1782115933.894775,0.007000,387487,1000,12,0,1,222.335,3.136,18.691,486.010,0.400,1.080
1782115933.895775,0.008000,387488,1000,12,0,1,236.219,17.566,18.704,485.530,-0.905,1.086
1782115933.896775,0.009000,387489,1000,12,0,1,248.158,25.451,18.970,485.770,-0.181,1.066
1782115933.897775,0.010000,387490,1000,12,0,1,269.152,38.993,19.733,487.476,0.898,1.046
1782115933.898775,0.011000,387491,1000,12,0,1,288.680,51.417,21.011,486.611,0.687,1.050
1782115933.899775,0.012000,387492,1000,12,0,1,301.243,53.281,22.292,485.818,-0.698,1.049
1782115933.900775,0.013000,387493,1000,12,0,1,308.017,50.190,23.364,485.842,-0.393,1.044
1782115933.901775,0.014000,387494,1000,12,0,1,311.308,42.797,24.084,485.938,-0.267,1.044
1782115933.902775,0.015000,387495,1000,12,0,1,311.380,34.492,24.379,486.178,-0.014,1.043
1782115933.903775,0.016000,387496,1000,12,0,1,308.618,24.174,24.215,486.443,0.389,1.033
1782115933.904775,0.017000,387497,1000,12,0,1,310.683,19.152,23.767,482.791,-2.346,1.081
1782115933.905775,0.018000,387498,1000,12,0,1,312.125,16.128,23.247,485.073,-1.251,1.078
1782115933.906775,0.019000,387499,1000,12,0,1,307.032,7.290,22.872,485.242,0.721,1.083
1782115933.907775,0.020000,387500,1000,12,0,1,299.322,-3.070,22.678,485.842,0.134,1.069
1782115933.908775,0.021000,387501,1000,12,0,1,288.632,-13.972,22.699,487.644,2.366,1.120
1782115933.909775,0.022000,387502,1000,12,0,1,277.895,-24.064,22.951,486.371,1.136,1.128
1782115933.910775,0.023000,387503,1000,12,0,1,283.708,-19.732,23.038,485.121,-0.531,1.124
1782115933.911775,0.024000,387504,1000,12,0,1,303.717,-1.212,22.719,485.842,0.212,1.122
1782115933.912775,0.025000,387505,1000,12,0,1,320.244,11.967,22.324,487.115,1.169,1.119
1782115933.913775,0.026000,387506,1000,12,0,1,316.256,5.279,21.787,486.178,0.636,1.033
1782115933.914775,0.027000,387507,1000,12,0,1,311.740,-6.238,21.409,486.611,0.151,1.032
1782115933.915775,0.028000,387508,1000,12,0,1,310.539,-9.987,21.274,486.154,0.355,1.022
1782115933.916775,0.029000,387509,1000,12,0,1,308.425,-15.219,21.310,484.953,-1.254,0.966
1782115933.917775,0.030000,387510,1000,12,0,1,304.246,-20.287,21.373,484.401,-1.439,0.974
1782115933.918775,0.031000,387511,1000,12,0,1,296.367,-27.505,21.319,487.644,0.998,0.971
1782115933.919775,0.032000,387512,1000,12,0,1,288.560,-33.520,21.488,487.764,2.030,1.011
1782115933.920775,0.033000,387513,1000,12,0,1,277.655,-38.997,21.997,486.995,0.328,1.011
1782115933.921775,0.034000,387514,1000,12,0,1,268.095,-43.260,22.676,485.530,-0.557,0.986
1782115933.922775,0.035000,387515,1000,12,0,1,261.009,-42.028,23.373,485.890,-0.775,0.989
1782115933.923775,0.036000,387516,1000,12,0,1,253.658,-40.737,24.064,485.194,-0.647,0.988
1782115933.924775,0.037000,387517,1000,12,0,1,247.125,-37.830,24.651,486.034,-0.375,0.978
1782115933.925775,0.038000,387518,1000,12,0,1,243.233,-32.641,25.075,487.211,1.157,0.990
1782115933.926775,0.039000,387519,1000,12,0,1,240.231,-26.445,25.345,485.338,-0.331,0.973
1782115933.927775,0.040000,387520,1000,12,0,1,241.528,-18.098,25.473,485.938,-0.526,0.973
1782115933.928775,0.041000,387521,1000,12,0,1,240.543,-11.361,25.515,486.923,1.104,0.964
1782115933.929775,0.042000,387522,1000,12,0,1,244.747,-3.956,25.487,485.842,-0.187,0.959
1782115933.930775,0.043000,387523,1000,12,0,1,251.953,6.870,25.485,486.202,-0.025,0.927
1782115933.931775,0.044000,387524,1000,12,0,1,260.768,15.406,25.574,488.677,1.964,0.963
1782115933.932775,0.045000,387525,1000,12,0,1,270.545,23.603,25.781,486.779,0.799,0.964
1782115933.933775,0.046000,387526,1000,12,0,1,269.416,21.451,25.942,486.371,-0.808,0.971
1782115933.934775,0.047000,387527,1000,12,0,1,270.617,17.350,26.055,487.572,0.773,0.958
1782115933.935775,0.048000,387528,1000,12,0,1,283.900,25.935,26.212,483.800,-2.256,1.010
1782115933.936775,0.049000,387529,1000,12,0,1,297.136,33.932,26.427,485.242,-2.109,1.052
1782115933.937775,0.050000,387530,1000,12,0,1,293.629,27.052,26.435,485.458,-0.176,1.052
1782115933.938775,0.051000,387531,1000,12,0,1,283.252,11.751,26.303,482.671,-3.182,1.139
1782115933.939775,0.052000,387532,1000,12,0,1,286.807,10.728,26.240,485.170,-0.958,1.146
1782115933.940775,0.053000,387533,1000,12,0,1,301.171,21.834,26.374,486.250,1.083,1.127
1782115933.941775,0.054000,387534,1000,12,0,1,306.984,25.514,26.546,486.803,0.904,1.115
1782115933.942775,0.055000,387535,1000,12,0,1,297.688,14.499,26.502,486.971,1.456,1.130
1782115933.943775,0.056000,387536,1000,12,0,1,284.357,0.049,26.464,484.521,-0.869,1.135
1782115933.944775,0.057000,387537,1000,12,0,1,286.014,-0.037,26.460,485.170,-0.752,1.139
1782115933.945775,0.058000,387538,1000,12,0,1,293.557,8.503,26.371,486.515,1.088,1.142
1782115933.946775,0.059000,387539,1000,12,0,1,289.545,5.641,26.136,486.274,0.716,1.146
1782115933.947775,0.060000,387540,1000,12,0,1,281.282,-3.050,25.552,485.362,-0.075,1.139
1782115933.948775,0.061000,387541,1000,12,0,1,278.328,-5.798,24.509,485.170,-0.408,1.137
1782115933.949775,0.062000,387542,1000,12,0,1,275.157,-7.661,23.347,484.281,-0.839,1.138
1782115933.950775,0.063000,387543,1000,12,0,1,272.827,-9.833,22.285,486.515,0.629,1.141
1782115933.951775,0.064000,387544,1000,12,0,1,270.449,-11.234,21.506,483.968,-0.353,1.141
1782115933.952775,0.065000,387545,1000,12,0,1,270.353,-11.665,21.011,483.824,-1.874,1.171
1782115933.953775,0.066000,387546,1000,12,0,1,270.353,-11.086,20.790,483.824,-0.491,1.172
1782115933.954775,0.067000,387547,1000,12,0,1,270.353,-11.436,20.676,483.824,-1.023,1.134
1782115933.955775,0.068000,387548,1000,12,0,1,277.151,-6.287,20.569,486.034,1.202,1.132
1782115933.956775,0.069000,387549,1000,12,0,1,271.482,-9.005,20.583,485.962,1.514,1.148
1782115933.957775,0.070000,387550,1000,12,0,1,271.818,-12.068,20.649,486.755,1.318,1.163
1782115933.958775,0.071000,387551,1000,12,0,1,280.850,-1.658,20.555,484.737,0.331,1.115
1782115933.959775,0.072000,387552,1000,12,0,1,272.995,-6.398,20.292,483.488,-1.850,1.134
1782115933.960775,0.073000,387553,1000,12,0,1,254.955,-21.700,20.332,484.857,0.015,1.131
1782115933.961775,0.074000,387554,1000,12,0,1,234.057,-35.084,20.928,485.938,0.944,1.139
1782115933.962775,0.075000,387555,1000,12,0,1,223.849,-38.738,21.567,484.569,0.060,1.127
1782115933.963775,0.076000,387556,1000,12,0,1,230.767,-23.766,21.814,484.161,-0.769,1.128
1782115933.964775,0.077000,387557,1000,12,0,1,232.496,-12.475,21.868,485.842,0.923,1.136
1782115933.965775,0.078000,387558,1000,12,0,1,231.079,-8.529,21.856,485.242,0.782,1.140
1782115933.966775,0.079000,387559,1000,12,0,1,242.272,5.453,21.763,483.248,-1.285,1.140
1782115933.967775,0.080000,387560,1000,12,0,1,267.470,29.844,21.982,486.010,0.804,1.128
1782115933.968775,0.081000,387561,1000,12,0,1,288.993,48.649,22.703,486.250,1.935,1.152
1782115933.969775,0.082000,387562,1000,12,0,1,300.763,53.120,23.439,484.689,-0.207,1.116
1782115933.970775,0.083000,387563,1000,12,0,1,296.896,43.028,23.579,484.833,-0.087,1.115
1782115933.971775,0.084000,387564,1000,12,0,1,289.305,26.873,23.087,486.491,1.267,1.127
1782115933.972775,0.085000,387565,1000,12,0,1,291.299,21.486,22.515,488.052,2.550,1.178
1782115933.973775,0.086000,387566,1000,12,0,1,287.383,14.208,21.858,486.635,1.252,1.188
1782115933.974775,0.087000,387567,1000,12,0,1,288.849,8.252,21.225,487.451,0.862,1.193
1782115933.975775,0.088000,387568,1000,12,0,1,292.956,9.728,20.762,486.683,0.834,1.187
1782115933.976775,0.089000,387569,1000,12,0,1,291.491,4.475,20.433,485.746,-0.941,1.194
1782115933.977775,0.090000,387570,1000,12,0,1,294.710,3.683,20.278,485.842,-0.517,1.194
1782115933.978775,0.091000,387571,1000,12,0,1,290.314,-0.392,20.215,486.082,-0.470,1.185
1782115933.979775,0.092000,387572,1000,12,0,1,282.867,-9.527,20.252,487.932,1.016,1.194
1782115933.980775,0.093000,387573,1000,12,0,1,265.404,-21.797,20.462,487.163,0.750,1.198
1782115933.981775,0.094000,387574,1000,12,0,1,256.757,-29.536,20.770,486.010,-0.993,1.174
1782115933.982775,0.095000,387575,1000,12,0,1,262.210,-18.812,20.672,485.482,-1.103,1.179
1782115933.983775,0.096000,387576,1000,12,0,1,272.322,-5.981,20.466,485.530,-1.197,1.186
1782115933.984775,0.097000,387577,1000,12,0,1,268.623,-4.431,20.328,483.872,-2.007,1.214
1782115933.985775,0.098000,387578,1000,12,0,1,262.786,-9.615,20.040,485.290,-1.286,1.186
1782115933.986775,0.099000,387579,1000,12,0,1,261.201,-8.378,19.493,484.377,-0.783,1.153
1782115933.987775,0.100000,387580,1000,12,0,1,259.880,-7.559,19.144,484.137,-1.737,1.179
1782115933.988775,0.101000,387581,1000,12,0,1,258.078,-7.764,19.103,485.554,0.190,1.090
1782115933.989775,0.102000,387582,1000,12,0,1,259.880,-5.259,19.058,484.089,-0.762,1.086
1782115933.990775,0.103000,387583,1000,12,0,1,269.800,3.024,18.811,483.920,-1.380,1.093
1782115933.991775,0.104000,387584,1000,12,0,1,279.024,11.369,18.531,485.049,0.211,1.086
1782115933.992775,0.105000,387585,1000,12,0,1,291.155,17.841,18.589,484.857,0.015,1.066
1782115933.993775,0.106000,387586,1000,12,0,1,306.720,27.988,19.006,485.818,0.711,1.064
1782115933.994775,0.107000,387587,1000,12,0,1,313.206,28.581,19.431,486.419,1.348,1.076
1782115933.995775,0.108000,387588,1000,12,0,1,305.375,16.073,19.527,486.803,1.352,1.082
1782115933.996775,0.109000,387589,1000,12,0,1,297.712,3.251,19.516,484.209,-0.657,1.081
1782115933.997775,0.110000,387590,1000,12,0,1,294.541,-1.605,19.512,486.539,0.244,1.081
1782115933.998775,0.111000,387591,1000,12,0,1,289.257,-6.633,19.518,486.875,1.874,1.112
1782115933.999775,0.112000,387592,1000,12,0,1,286.807,-8.955,19.529,485.938,-0.023,1.106
1782115934.000775,0.113000,387593,1000,12,0,1,282.123,-10.302,19.534,485.194,-0.256,1.103
1782115934.001775,0.114000,387594,1000,12,0,1,276.142,-13.898,19.568,484.641,-0.928,1.109
1782115934.002775,0.115000,387595,1000,12,0,1,272.010,-14.071,19.599,486.250,0.464,1.079
1782115934.003775,0.116000,387596,1000,12,0,1,278.808,-6.184,19.556,486.779,1.432,1.096
1782115934.004775,0.117000,387597,1000,12,0,1,281.138,0.532,19.489,487.572,1.452,1.105
1782115934.005775,0.118000,387598,1000,12,0,1,274.508,-4.734,19.481,485.458,0.220,1.093
1782115934.006775,0.119000,387599,1000,12,0,1,269.272,-8.538,19.476,484.761,-1.433,1.091
1782115934.007775,0.120000,387600,1000,12,0,1,268.599,-7.939,19.434,485.314,-0.185,1.075
1782115934.008775,0.121000,387601,1000,12,0,1,275.037,-2.030,19.435,483.944,-1.383,1.091
1782115934.009775,0.122000,387602,1000,12,0,1,281.474,4.346,19.423,484.857,-0.807,1.066
1782115934.010775,0.123000,387603,1000,12,0,1,282.219,3.378,19.185,482.719,-1.652,1.091
1782115934.011775,0.124000,387604,1000,12,0,1,275.445,-3.828,18.540,483.176,-2.182,1.126
1782115934.012775,0.125000,387605,1000,12,0,1,270.665,-10.407,17.774,485.410,0.847,1.132
1782115934.013775,0.126000,387606,1000,12,0,1,270.905,-9.899,17.509,484.713,0.192,1.127
1782115934.014775,0.127000,387607,1000,12,0,1,271.890,-8.522,17.461,485.578,0.494,1.122
1782115934.015775,0.128000,387608,1000,12,0,1,276.814,-4.005,17.429,485.025,0.530,1.119
1782115934.016775,0.129000,387609,1000,12,0,1,285.221,4.065,17.421,483.128,-1.569,1.126
1782115934.017775,0.130000,387610,1000,12,0,1,286.543,6.079,16.924,483.128,-1.424,1.138
1782115934.018775,0.131000,387611,1000,12,0,1,278.856,-0.690,15.463,482.671,-1.328,1.121
1782115934.019775,0.132000,387612,1000,12,0,1,268.527,-8.906,13.574,481.735,-1.926,1.153
1782115934.020775,0.133000,387613,1000,12,0,1,265.476,-9.715,12.211,483.008,-0.638,1.157
1782115934.021775,0.134000,387614,1000,12,0,1,270.353,-1.960,11.608,483.512,0.511,1.145
1782115934.022775,0.135000,387615,1000,12,0,1,271.241,2.665,11.210,482.791,-0.142,1.087
1782115934.023775,0.136000,387616,1000,12,0,1,264.852,-0.924,11.029,483.152,0.239,1.073
1782115934.024775,0.137000,387617,1000,12,0,1,256.397,-6.313,11.003,484.209,1.347,1.083
1782115934.025775,0.138000,387618,1000,12,0,1,250.560,-9.158,10.994,483.320,0.799,1.082
1782115934.026775,0.139000,387619,1000,12,0,1,248.734,-7.995,11.033,484.113,0.964,1.083
1782115934.027775,0.140000,387620,1000,12,0,1,249.070,-5.216,11.046,483.656,1.128,1.092
1782115934.028775,0.141000,387621,1000,12,0,1,250.367,-2.478,11.051,483.152,0.114,1.090
1782115934.029775,0.142000,387622,1000,12,0,1,246.332,-4.402,10.986,484.161,1.099,1.092
1782115934.030775,0.143000,387623,1000,12,0,1,243.353,-7.435,10.597,483.680,0.821,1.093
1782115934.031775,0.144000,387624,1000,12,0,1,250.800,-0.838,9.740,483.512,0.211,1.084
1782115934.032775,0.145000,387625,1000,12,0,1,261.945,9.288,9.462,483.848,0.673,1.077
1782115934.033775,0.146000,387626,1000,12,0,1,271.722,16.034,9.693,483.224,0.007,1.064
1782115934.034775,0.147000,387627,1000,12,0,1,280.465,20.745,10.107,482.455,-0.696,1.030
1782115934.035775,0.148000,387628,1000,12,0,1,282.555,19.531,10.389,483.032,-0.295,1.014
1782115934.036775,0.149000,387629,1000,12,0,1,280.730,13.933,10.508,481.903,-0.755,1.014
1782115934.037775,0.150000,387630,1000,12,0,1,274.196,6.406,10.493,482.936,-0.415,0.985
1782115934.038775,0.151000,387631,1000,12,0,1,265.621,-2.394,10.441,483.872,1.140,0.998
1782115934.039775,0.152000,387632,1000,12,0,1,255.027,-10.060,10.511,484.353,1.109,1.005
1782115934.040775,0.153000,387633,1000,12,0,1,246.356,-15.271,10.722,485.410,1.999,1.025
1782115934.041775,0.154000,387634,1000,12,0,1,240.231,-15.961,10.838,483.656,0.574,1.028
1782115934.042775,0.155000,387635,1000,12,0,1,230.334,-18.848,10.872,486.154,1.566,1.052
1782115934.043775,0.156000,387636,1000,12,0,1,218.012,-24.126,10.686,483.224,0.545,1.050
1782115934.044775,0.157000,387637,1000,12,0,1,219.117,-18.259,10.223,483.272,-1.490,1.054
1782115934.045775,0.158000,387638,1000,12,0,1,230.430,-2.111,9.972,482.984,0.012,1.036
1782115934.046775,0.159000,387639,1000,12,0,1,236.147,6.943,10.009,483.440,-0.699,1.037
1782115934.047775,0.160000,387640,1000,12,0,1,245.635,14.260,10.208,482.767,-0.246,1.037
1782115934.048775,0.161000,387641,1000,12,0,1,240.159,11.471,10.293,483.152,-0.578,1.005
1782115934.049775,0.162000,387642,1000,12,0,1,236.700,2.881,10.223,481.638,-1.093,1.017
1782115934.050775,0.163000,387643,1000,12,0,1,241.071,6.735,10.164,482.912,-0.662,1.021
1782115934.051775,0.164000,387644,1000,12,0,1,239.774,3.925,9.987,484.401,1.344,1.030
1782115934.052775,0.165000,387645,1000,12,0,1,243.161,3.711,9.801,482.527,-0.263,1.029
1782115934.053775,0.166000,387646,1000,12,0,1,253.010,11.066,9.887,483.008,-0.640,1.013
1782115934.054775,0.167000,387647,1000,12,0,1,251.352,8.633,9.961,484.641,1.449,1.013
1782115934.055775,0.168000,387648,1000,12,0,1,247.845,2.296,9.944,483.416,0.111,1.012
1782115934.056775,0.169000,387649,1000,12,0,1,252.049,5.002,9.896,482.864,-0.616,0.996
1782115934.057775,0.170000,387650,1000,12,0,1,258.246,10.639,9.947,484.137,0.388,0.997
1782115934.058775,0.171000,387651,1000,12,0,1,257.357,10.046,10.043,482.623,-0.377,0.979
1782115934.059775,0.172000,387652,1000,12,0,1,255.076,7.293,10.078,480.750,-2.501,1.034
1782115934.060775,0.173000,387653,1000,12,0,1,251.809,5.374,10.095,482.960,-0.401,1.009
1782115934.061775,0.174000,387654,1000,12,0,1,250.223,4.519,10.101,482.551,0.166,0.961
1782115934.062775,0.175000,387655,1000,12,0,1,257.021,10.895,10.111,484.905,1.235,0.970
1782115934.063775,0.176000,387656,1000,12,0,1,266.365,19.878,10.401,484.977,2.404,1.027
1782115934.064775,0.177000,387657,1000,12,0,1,268.935,20.878,10.744,482.960,-0.337,1.026
1782115934.065775,0.178000,387658,1000,12,0,1,265.741,15.272,10.944,483.152,-0.150,1.023
1782115934.066775,0.179000,387659,1000,12,0,1,264.588,10.548,11.031,483.416,0.288,1.000
1782115934.067775,0.180000,387660,1000,12,0,1,256.877,2.350,11.002,482.119,-0.793,0.986
1782115934.068775,0.181000,387661,1000,12,0,1,250.295,-7.336,11.051,481.831,-1.115,0.980
1782115934.069775,0.182000,387662,1000,12,0,1,243.401,-13.421,11.141,481.062,-1.364,0.961
1782115934.070775,0.183000,387663,1000,12,0,1,233.433,-22.867,11.520,482.287,-0.460,0.959
1782115934.071775,0.184000,387664,1000,12,0,1,227.812,-27.230,12.143,483.152,0.844,0.964
1782115934.072775,0.185000,387665,1000,12,0,1,227.380,-25.370,12.656,481.446,-0.635,0.968
1782115934.073775,0.186000,387666,1000,12,0,1,229.710,-20.989,12.999,480.173,-1.964,1.007
1782115934.074775,0.187000,387667,1000,12,0,1,237.685,-12.052,13.080,481.062,-0.926,0.997
1782115934.075775,0.188000,387668,1000,12,0,1,259.639,7.259,13.056,482.431,0.521,0.993
1782115934.076775,0.189000,387669,1000,12,0,1,275.829,23.040,13.409,481.614,0.134,0.984
1782115934.077775,0.190000,387670,1000,12,0,1,273.692,18.307,13.637,482.239,0.121,0.971
1782115934.078775,0.191000,387671,1000,12,0,1,270.641,11.577,13.730,481.951,0.493,0.974
1782115934.079775,0.192000,387672,1000,12,0,1,268.455,8.782,13.772,482.888,0.635,0.965
1782115934.080775,0.193000,387673,1000,12,0,1,260.360,1.463,13.734,482.551,0.976,0.968
1782115934.081775,0.194000,387674,1000,12,0,1,250.271,-6.741,13.766,482.431,0.224,0.968
1782115934.082775,0.195000,387675,1000,12,0,1,245.131,-9.391,13.767,480.558,-0.799,0.970
1782115934.083775,0.196000,387676,1000,12,0,1,245.515,-5.918,13.605,482.047,-0.257,0.971
1782115934.084775,0.197000,387677,1000,12,0,1,249.407,0.124,13.285,481.542,0.518,0.969
1782115934.085775,0.198000,387678,1000,12,0,1,244.386,-1.129,12.996,481.086,-0.620,0.972
1782115934.086775,0.199000,387679,1000,12,0,1,234.466,-9.494,12.916,478.876,-1.638,0.993
1782115934.087775,0.200000,387680,1000,12,0,1,237.949,-6.260,12.914,481.927,0.126,0.992
1782115934.088775,0.201000,387681,1000,12,0,1,242.825,0.675,12.910,483.608,2.984,1.065
1782115934.089775,0.202000,387682,1000,12,0,1,236.580,-4.837,12.850,484.905,2.988,1.135
1782115934.090775,0.203000,387683,1000,12,0,1,230.863,-11.203,12.766,482.888,1.645,1.124
1782115934.091775,0.204000,387684,1000,12,0,1,230.935,-10.967,12.660,481.326,-0.804,1.127
1782115934.092775,0.205000,387685,1000,12,0,1,230.863,-10.273,12.461,480.822,-0.963,1.113
1782115934.093775,0.206000,387686,1000,12,0,1,236.147,-6.289,12.018,480.149,-1.423,1.129
1782115934.094775,0.207000,387687,1000,12,0,1,246.620,3.179,11.746,478.828,-2.414,1.160
1782115934.095775,0.208000,387688,1000,12,0,1,246.788,3.851,11.754,479.405,-1.698,1.185
1782115934.096775,0.209000,387689,1000,12,0,1,247.389,1.704,11.716,478.756,-1.628,1.203
1782115934.097775,0.210000,387690,1000,12,0,1,248.013,3.270,11.550,478.732,-1.603,1.224
1782115934.098775,0.211000,387691,1000,12,0,1,249.647,3.914,11.449,480.317,0.076,1.221
1782115934.099775,0.212000,387692,1000,12,0,1,245.563,2.525,11.447,479.116,-0.271,1.212
1782115934.100775,0.213000,387693,1000,12,0,1,242.993,0.131,11.408,478.492,-1.346,1.223
1782115934.101775,0.214000,387694,1000,12,0,1,242.993,2.895,11.402,479.669,0.278,1.209
1782115934.102775,0.215000,387695,1000,12,0,1,247.077,7.679,11.441,480.750,1.237,1.221
1782115934.103775,0.216000,387696,1000,12,0,1,248.806,11.437,11.448,480.606,1.319,1.232
1782115934.104775,0.217000,387697,1000,12,0,1,244.651,8.333,11.444,479.909,0.466,1.216
1782115934.105775,0.218000,387698,1000,12,0,1,246.812,9.001,11.510,478.396,-0.661,1.220
1782115934.106775,0.219000,387699,1000,12,0,1,251.593,13.859,11.654,479.621,0.069,1.217
1782115934.107775,0.220000,387700,1000,12,0,1,239.462,3.198,11.565,479.236,0.604,1.218
1782115934.108775,0.221000,387701,1000,12,0,1,230.911,-7.868,11.532,478.564,-0.461,1.219
1782115934.109775,0.222000,387702,1000,12,0,1,236.748,-2.781,11.492,478.420,-0.158,1.167
1782115934.110775,0.223000,387703,1000,12,0,1,245.443,4.572,11.485,479.861,0.925,1.173
1782115934.111775,0.224000,387704,1000,12,0,1,253.730,9.343,11.543,478.324,0.265,1.173
1782115934.112775,0.225000,387705,1000,12,0,1,254.475,7.768,11.493,478.588,-0.308,1.161
1782115934.113775,0.226000,387706,1000,12,0,1,249.455,-0.771,11.144,478.324,0.286,1.111
1782115934.114775,0.227000,387707,1000,12,0,1,242.080,-9.110,10.823,479.092,0.389,1.111
1782115934.115775,0.228000,387708,1000,12,0,1,242.705,-10.716,10.713,478.996,0.844,1.117
1782115934.116775,0.229000,387709,1000,12,0,1,244.530,-7.319,10.659,480.149,1.244,1.130
1782115934.117775,0.230000,387710,1000,12,0,1,240.735,-9.901,10.745,480.317,1.712,1.150
1782115934.118775,0.231000,387711,1000,12,0,1,237.060,-11.698,10.822,480.774,1.482,1.159
1782115934.119775,0.232000,387712,1000,12,0,1,238.141,-8.345,10.720,478.516,-0.181,1.143
1782115934.120775,0.233000,387713,1000,12,0,1,240.471,-3.083,10.230,480.005,0.089,1.141
1782115934.121775,0.234000,387714,1000,12,0,1,227.740,-9.448,9.571,479.236,0.542,1.137
1782115934.122775,0.235000,387715,1000,12,0,1,214.913,-19.190,9.279,480.197,0.231,1.134
1782115934.123775,0.236000,387716,1000,12,0,1,219.093,-10.887,8.925,480.606,1.393,1.117
1782115934.124775,0.237000,387717,1000,12,0,1,224.089,-0.562,8.761,479.284,-0.218,1.110
1782115934.125775,0.238000,387718,1000,12,0,1,227.260,4.318,8.722,478.011,-1.331,1.123
1782115934.126775,0.239000,387719,1000,12,0,1,245.035,19.453,8.545,478.228,-1.012,1.132
1782115934.127775,0.240000,387720,1000,12,0,1,254.187,28.808,9.106,479.068,-0.098,1.132
1782115934.128775,0.241000,387721,1000,12,0,1,251.617,21.231,9.447,476.138,-1.863,1.160
1782115934.129775,0.242000,387722,1000,12,0,1,242.633,9.850,9.468,476.546,-2.386,1.205
1782115934.130775,0.243000,387723,1000,12,0,1,238.165,1.006,9.467,478.708,0.784,1.202
1782115934.131775,0.244000,387724,1000,12,0,1,241.384,1.733,9.422,479.549,1.231,1.214
1782115934.132775,0.245000,387725,1000,12,0,1,243.810,2.226,9.333,478.300,0.453,1.211
1782115934.133775,0.246000,387726,1000,12,0,1,242.849,-0.902,9.297,476.426,-1.565,1.230
1782115934.134775,0.247000,387727,1000,12,0,1,240.183,-4.618,9.320,477.795,-0.473,1.230
1782115934.135775,0.248000,387728,1000,12,0,1,239.438,-6.534,9.364,478.228,0.588,1.230
1782115934.136775,0.249000,387729,1000,12,0,1,247.293,-0.091,9.267,477.123,-0.683,1.211
1782115934.137775,0.250000,387730,1000,12,0,1,248.085,2.376,9.231,476.906,-0.769,1.216
1782115934.138775,0.251000,387731,1000,12,0,1,231.968,-10.951,9.359,475.441,-1.682,1.165
1782115934.139775,0.252000,387732,1000,12,0,1,210.277,-28.232,10.152,479.453,1.142,1.098
1782115934.140775,0.253000,387733,1000,12,0,1,205.425,-28.896,10.829,481.518,4.146,1.223
1782115934.141775,0.254000,387734,1000,12,0,1,221.206,-8.745,10.788,478.636,0.814,1.223
1782115934.142775,0.255000,387735,1000,12,0,1,234.057,8.999,10.765,477.747,-0.539,1.218
1782115934.143775,0.256000,387736,1000,12,0,1,241.120,15.942,10.963,477.771,-0.153,1.201
1782115934.144775,0.257000,387737,1000,12,0,1,250.199,23.363,11.441,478.324,0.149,1.152
1782115934.145775,0.258000,387738,1000,12,0,1,246.188,19.470,11.755,479.212,1.202,1.139
1782115934.146775,0.259000,387739,1000,12,0,1,236.027,6.613,11.790,477.531,-0.146,1.116
1782115934.147775,0.260000,387740,1000,12,0,1,220.846,-6.884,11.821,478.155,-0.136,1.093
1782115934.148775,0.261000,387741,1000,12,0,1,224.569,-7.173,11.852,479.092,1.255,1.107
1782115934.149775,0.262000,387742,1000,12,0,1,247.389,13.989,12.010,478.804,0.743,1.111
1782115934.150775,0.263000,387743,1000,12,0,1,254.475,19.984,12.338,479.164,0.874,1.102
1782115934.151775,0.264000,387744,1000,12,0,1,245.179,6.654,12.367,478.948,0.729,1.106
1782115934.152775,0.265000,387745,1000,12,0,1,237.012,-4.330,12.335,475.825,-1.927,1.125
1782115934.153775,0.266000,387746,1000,12,0,1,234.682,-8.299,12.284,475.994,-2.314,1.157
1782115934.154775,0.267000,387747,1000,12,0,1,242.921,-2.133,12.232,476.642,-0.789,1.161
1782115934.155775,0.268000,387748,1000,12,0,1,258.727,11.103,12.266,478.516,0.456,1.159
1782115934.156775,0.269000,387749,1000,12,0,1,255.532,9.234,12.179,477.843,0.599,1.162
1782115934.157775,0.270000,387750,1000,12,0,1,230.238,-14.845,12.350,478.444,0.176,1.159
1782115934.158775,0.271000,387751,1000,12,0,1,223.104,-22.854,12.717,477.651,0.185,1.157
1782115934.159775,0.272000,387752,1000,12,0,1,237.612,-5.465,12.735,477.315,-0.803,1.163
1782115934.160775,0.273000,387753,1000,12,0,1,242.801,3.821,12.730,477.219,-0.446,1.157
1782115934.161775,0.274000,387754,1000,12,0,1,240.807,2.288,12.665,476.594,-0.986,1.165
1782115934.162775,0.275000,387755,1000,12,0,1,236.219,0.007,12.617,474.360,-2.566,1.219
1782115934.163775,0.276000,387756,1000,12,0,1,231.343,-3.616,12.627,475.585,-1.656,1.241
1782115934.164775,0.277000,387757,1000,12,0,1,231.992,-1.866,12.564,476.882,0.435,1.241
1782115934.165775,0.278000,387758,1000,12,0,1,235.042,2.225,12.476,477.867,1.160,1.246
1782115934.166775,0.279000,387759,1000,12,0,1,226.227,-3.735,12.445,477.435,1.062,1.243
1782115934.167775,0.280000,387760,1000,12,0,1,213.159,-15.733,12.564,475.705,-0.547,1.222
1782115934.168775,0.281000,387761,1000,12,0,1,208.812,-18.274,12.720,473.760,-2.147,1.241
1782115934.169775,0.282000,387762,1000,12,0,1,211.070,-13.688,12.812,473.784,-1.869,1.269
1782115934.170775,0.283000,387763,1000,12,0,1,199.107,-19.920,13.111,475.585,0.105,1.269
1782115934.171775,0.284000,387764,1000,12,0,1,190.796,-27.164,13.597,475.345,0.556,1.269
1782115934.172775,0.285000,387765,1000,12,0,1,181.668,-28.756,13.930,473.784,-1.026,1.277
1782115934.173775,0.286000,387766,1000,12,0,1,177.609,-29.439,14.457,475.465,0.370,1.262
1782115934.174775,0.287000,387767,1000,12,0,1,193.559,-10.910,14.539,474.624,0.437,1.264
1782115934.175775,0.288000,387768,1000,12,0,1,207.827,7.515,14.565,472.799,-1.631,1.271
1782115934.176775,0.289000,387769,1000,12,0,1,212.535,12.153,14.406,471.526,-2.231,1.301
1782115934.177775,0.290000,387770,1000,12,0,1,217.339,16.348,14.010,474.408,0.055,1.301
1782115934.178775,0.291000,387771,1000,12,0,1,215.417,15.030,13.848,475.009,1.743,1.298
1782115934.179775,0.292000,387772,1000,12,0,1,214.649,12.951,13.899,475.994,1.655,1.275
1782115934.180775,0.293000,387773,1000,12,0,1,235.403,28.960,14.489,474.576,1.131,1.280
1782115934.181775,0.294000,387774,1000,12,0,1,245.467,39.916,15.548,473.760,-0.466,1.270
1782115934.182775,0.295000,387775,1000,12,0,1,235.619,26.343,15.985,473.832,0.106,1.269
1782115934.183775,0.296000,387776,1000,12,0,1,234.634,20.576,16.247,475.273,1.161,1.260
1782115934.184775,0.297000,387777,1000,12,0,1,236.315,21.073,16.506,474.240,0.804,1.263
1782115934.185775,0.298000,387778,1000,12,0,1,235.355,16.988,16.654,475.081,0.836,1.266
1782115934.186775,0.299000,387779,1000,12,0,1,219.933,3.347,16.661,473.087,0.012,1.262
1782115934.187775,0.300000,387780,1000,12,0,1,206.938,-11.774,16.740,472.943,-0.959,1.265
1782115934.188775,0.301000,387781,1000,12,0,1,197.786,-17.106,16.843,473.111,0.120,1.242
1782115934.189775,0.302000,387782,1000,12,0,1,188.034,-24.125,16.715,473.207,0.032,1.232
1782115934.190775,0.303000,387783,1000,12,0,1,184.142,-24.761,16.582,472.943,0.128,1.084
1782115934.191775,0.304000,387784,1000,12,0,1,189.739,-16.911,16.708,472.751,0.002,1.077
1782115934.192775,0.305000,387785,1000,12,0,1,201.870,-4.089,16.669,474.120,1.029,1.085
1782115934.193775,0.306000,387786,1000,12,0,1,214.192,7.580,16.551,474.793,1.982,1.120
1782115934.194775,0.307000,387787,1000,12,0,1,215.009,7.695,16.254,473.111,0.168,1.120
1782115934.195775,0.308000,387788,1000,12,0,1,206.434,-1.945,16.021,472.102,-0.909,1.115
1782115934.196775,0.309000,387789,1000,12,0,1,190.988,-15.676,16.147,472.511,-0.558,1.117
1782115934.197775,0.310000,387790,1000,12,0,1,177.969,-26.010,16.532,470.901,-1.401,1.134
1782115934.198775,0.311000,387791,1000,12,0,1,186.112,-16.680,16.669,470.829,-1.887,1.152
1782115934.199775,0.312000,387792,1000,12,0,1,194.640,-2.298,16.554,471.742,-0.335,1.148
1782115934.200775,0.313000,387793,1000,12,0,1,197.474,1.683,16.313,470.565,-1.121,1.152
1782115934.201775,0.314000,387794,1000,12,0,1,198.963,5.643,16.305,469.628,-1.870,1.178
1782115934.202775,0.315000,387795,1000,12,0,1,215.489,18.912,16.512,466.241,-3.866,1.269
1782115934.203775,0.316000,387796,1000,12,0,1,232.904,35.961,17.237,470.061,-1.288,1.240
1782115934.204775,0.317000,387797,1000,12,0,1,225.698,28.073,17.686,472.030,2.674,1.292
1782115934.205775,0.318000,387798,1000,12,0,1,216.258,13.914,17.726,471.958,1.525,1.308
1782115934.206775,0.319000,387799,1000,12,0,1,210.373,8.260,17.716,472.150,2.142,1.340
1782115934.207775,0.320000,387800,1000,12,0,1,211.070,6.174,17.613,473.015,2.362,1.381
1782115934.208775,0.321000,387801,1000,12,0,1,216.859,11.232,17.386,472.174,1.838,1.405
1782115934.209775,0.322000,387802,1000,12,0,1,207.947,3.289,17.375,472.318,1.321,1.412
1782115934.210775,0.323000,387803,1000,12,0,1,171.532,-27.977,17.812,471.478,0.868,1.416
1782115934.211775,0.324000,387804,1000,12,0,1,186.953,-21.522,18.067,470.997,0.065,1.409
1782115934.212775,0.325000,387805,1000,12,0,1,208.836,9.206,18.114,470.517,-0.152,1.362
1782115934.213775,0.326000,387806,1000,12,0,1,211.142,6.849,18.133,469.676,-0.781,1.346
1782115934.214775,0.327000,387807,1000,12,0,1,210.661,5.251,18.146,469.700,-0.794,1.350
1782115934.215775,0.328000,387808,1000,12,0,1,219.501,8.848,18.187,471.262,0.809,1.345
1782115934.216775,0.329000,387809,1000,12,0,1,227.524,14.452,18.293,469.964,0.059,1.336
1782115934.217775,0.330000,387810,1000,12,0,1,220.774,6.503,18.181,469.028,-1.187,1.344
1782115934.218775,0.331000,387811,1000,12,0,1,207.875,-8.556,18.037,468.956,-0.864,1.315
1782115934.219775,0.332000,387812,1000,12,0,1,197.858,-16.500,18.084,471.021,0.785,1.293
1782115934.220775,0.333000,387813,1000,12,0,1,198.867,-15.330,17.994,470.901,1.280,1.306
1782115934.221775,0.334000,387814,1000,12,0,1,206.482,-4.363,17.590,469.676,-0.309,1.304
1782115934.222775,0.335000,387815,1000,12,0,1,209.652,0.378,17.114,467.923,-1.565,1.315
1782115934.223775,0.336000,387816,1000,12,0,1,211.382,3.211,16.606,468.932,-0.944,1.321
1782115934.224775,0.337000,387817,1000,12,0,1,222.552,12.279,16.625,467.995,-0.756,1.323
1782115934.225775,0.338000,387818,1000,12,0,1,233.505,22.633,16.897,466.025,-2.649,1.356
1782115934.226775,0.339000,387819,1000,12,0,1,239.510,24.728,17.169,468.307,-0.533,1.321
1782115934.227775,0.340000,387820,1000,12,0,1,237.132,19.871,17.243,469.556,1.583,1.340
1782115934.228775,0.341000,387821,1000,12,0,1,220.726,2.477,17.115,470.397,1.738,1.340
1782115934.229775,0.342000,387822,1000,12,0,1,192.886,-23.330,17.334,468.956,1.072,1.328
1782115934.230775,0.343000,387823,1000,12,0,1,191.084,-27.125,17.274,468.115,-0.464,1.320
1782115934.231775,0.344000,387824,1000,12,0,1,203.936,-10.200,16.390,468.643,0.490,1.320
1782115934.232775,0.345000,387825,1000,12,0,1,213.087,-1.172,15.962,469.196,0.881,1.326
1782115934.233775,0.346000,387826,1000,12,0,1,216.642,1.965,15.696,467.346,-0.344,1.316
1782115934.234775,0.347000,387827,1000,12,0,1,213.207,-2.134,15.414,469.076,0.407,1.313
1782115934.235775,0.348000,387828,1000,12,0,1,216.883,-1.926,15.228,469.340,1.641,1.328
1782115934.236775,0.349000,387829,1000,12,0,1,220.246,1.815,15.223,468.019,-0.159,1.328
1782115934.237775,0.350000,387830,1000,12,0,1,210.733,-7.427,15.168,465.521,-1.935,1.349
1782115934.238775,0.351000,387831,1000,12,0,1,197.042,-19.552,15.227,465.833,-1.976,1.378
1782115934.239775,0.352000,387832,1000,12,0,1,189.331,-24.559,15.241,466.674,-0.374,1.379
1782115934.240775,0.353000,387833,1000,12,0,1,191.661,-18.793,15.069,466.361,-0.483,1.380
1782115934.241775,0.354000,387834,1000,12,0,1,202.278,-5.544,14.899,466.986,0.026,1.380
1782115934.242775,0.355000,387835,1000,12,0,1,212.559,6.798,14.919,466.097,-0.142,1.373
1782115934.243775,0.356000,387836,1000,12,0,1,219.165,13.411,15.001,467.658,0.518,1.346
1782115934.244775,0.357000,387837,1000,12,0,1,225.626,18.290,15.183,469.436,2.816,1.403
1782115934.245775,0.358000,387838,1000,12,0,1,218.204,12.324,15.280,467.562,0.866,1.403
1782115934.246775,0.359000,387839,1000,12,0,1,213.928,4.737,15.133,467.586,0.293,1.401
1782115934.247775,0.360000,387840,1000,12,0,1,208.571,2.027,14.682,466.722,0.093,1.387
1782115934.248775,0.361000,387841,1000,12,0,1,205.329,-2.467,14.496,467.298,-0.016,1.361
1782115934.249775,0.362000,387842,1000,12,0,1,203.407,-2.362,14.496,467.154,0.588,1.363
1782115934.250775,0.363000,387843,1000,12,0,1,208.427,1.018,14.495,466.169,-0.621,1.356
1782115934.251775,0.364000,387844,1000,12,0,1,217.363,9.330,14.533,465.280,-1.057,1.339
1782115934.252775,0.365000,387845,1000,12,0,1,217.123,8.507,14.335,465.641,-0.723,1.226
1782115934.253775,0.366000,387846,1000,12,0,1,210.229,-0.272,13.403,466.578,0.466,1.214
1782115934.254775,0.367000,387847,1000,12,0,1,212.727,-0.489,12.801,466.794,0.821,1.160
1782115934.255775,0.368000,387848,1000,12,0,1,221.014,6.039,12.678,464.896,-0.693,1.144
1782115934.256775,0.369000,387849,1000,12,0,1,230.935,12.654,12.750,465.761,-0.356,1.104
1782115934.257775,0.370000,387850,1000,12,0,1,232.064,11.901,12.831,466.674,1.100,1.064
1782115934.258775,0.371000,387851,1000,12,0,1,225.530,2.864,12.739,465.376,-0.117,1.032
1782115934.259775,0.372000,387852,1000,12,0,1,222.407,-2.384,12.735,465.136,-0.571,1.018
1782115934.260775,0.373000,387853,1000,12,0,1,226.587,0.588,12.105,465.665,0.200,1.011
1782115934.261775,0.374000,387854,1000,12,0,1,229.181,3.151,11.725,464.224,-0.865,1.018
1782115934.262775,0.375000,387855,1000,12,0,1,228.341,1.863,11.655,463.743,-1.434,1.038
1782115934.263775,0.376000,387856,1000,12,0,1,225.314,-0.929,11.616,464.992,-0.040,1.032
1782115934.264775,0.377000,387857,1000,12,0,1,226.251,-0.517,11.592,464.632,0.098,1.026
1782115934.265775,0.378000,387858,1000,12,0,1,221.423,-2.863,11.531,465.040,0.104,1.020
1782115934.266775,0.379000,387859,1000,12,0,1,216.426,-7.757,11.402,465.040,0.598,1.023
1782115934.267775,0.380000,387860,1000,12,0,1,216.811,-5.953,11.396,463.503,-0.826,1.016
1782115934.268775,0.381000,387861,1000,12,0,1,218.492,-3.183,11.340,463.455,-0.881,1.016
1782115934.269775,0.382000,387862,1000,12,0,1,222.407,0.358,11.098,465.160,0.884,1.018
1782115934.270775,0.383000,387863,1000,12,0,1,219.213,-1.240,10.885,464.728,0.929,1.010
1782115934.271775,0.384000,387864,1000,12,0,1,214.168,-7.355,10.917,465.737,1.227,1.024
1782115934.272775,0.385000,387865,1000,12,0,1,215.417,-6.212,10.953,466.529,2.329,1.053
1782115934.273775,0.386000,387866,1000,12,0,1,216.979,-4.477,10.961,463.695,-0.232,1.045
1782115934.274775,0.387000,387867,1000,12,0,1,215.057,-6.210,10.859,463.119,-1.338,1.057
1782115934.275775,0.388000,387868,1000,12,0,1,223.993,-0.380,10.376,465.112,0.911,0.996
1782115934.276775,0.389000,387869,1000,12,0,1,236.123,10.744,9.887,465.232,1.218,1.008
1782115934.277775,0.390000,387870,1000,12,0,1,239.438,11.630,9.620,464.920,0.651,0.987
1782115934.278775,0.391000,387871,1000,12,0,1,231.175,2.364,9.620,464.800,0.531,0.959
1782115934.279775,0.392000,387872,1000,12,0,1,222.263,-7.830,9.104,463.599,-0.474,0.950
1782115934.280775,0.393000,387873,1000,12,0,1,213.904,-14.002,8.491,462.182,-1.748,0.979
1782115934.281775,0.394000,387874,1000,12,0,1,209.004,-16.726,8.695,464.536,0.122,0.977
1782115934.282775,0.395000,387875,1000,12,0,1,203.239,-17.600,9.043,465.232,1.543,0.993
1782115934.283775,0.396000,387876,1000,12,0,1,202.662,-15.209,9.291,466.193,1.542,1.015
1782115934.284775,0.397000,387877,1000,12,0,1,213.159,-2.440,9.292,465.256,1.185,1.028
1782115934.285775,0.398000,387878,1000,12,0,1,223.825,10.316,9.402,463.647,-0.932,1.010
1782115934.286775,0.399000,387879,1000,12,0,1,219.405,7.981,9.466,463.311,-1.066,1.021
1782115934.287775,0.400000,387880,1000,12,0,1,210.757,-0.788,9.409,463.335,-0.858,0.991
1782115934.288775,0.401000,387881,1000,12,0,1,207.971,-2.839,9.002,462.638,-1.217,0.966
1782115934.289775,0.402000,387882,1000,12,0,1,211.070,0.659,8.306,461.966,-1.581,0.990
1782115934.290775,0.403000,387883,1000,12,0,1,220.870,8.964,7.970,461.269,-1.858,1.022
1782115934.291775,0.404000,387884,1000,12,0,1,227.284,14.528,8.193,463.599,0.202,1.023
1782115934.292775,0.405000,387885,1000,12,0,1,220.029,6.297,8.185,463.791,1.221,1.037
1782115934.293775,0.406000,387886,1000,12,0,1,209.917,-5.460,8.000,464.416,1.068,1.045
1782115934.294775,0.407000,387887,1000,12,0,1,199.852,-14.136,7.830,464.632,1.656,0.994
1782115934.295775,0.408000,387888,1000,12,0,1,192.670,-19.731,8.127,466.097,2.220,1.035
1782115934.296775,0.409000,387889,1000,12,0,1,190.076,-19.253,8.545,463.911,0.871,1.042
1782115934.297775,0.410000,387890,1000,12,0,1,187.553,-17.841,8.905,461.797,-1.915,1.076
1782115934.298775,0.411000,387891,1000,12,0,1,195.024,-9.389,8.997,464.079,0.173,1.077
1782115934.299775,0.412000,387892,1000,12,0,1,211.814,8.410,9.069,462.590,-0.150,1.074
1782115934.300775,0.413000,387893,1000,12,0,1,229.061,23.843,9.675,462.398,-1.370,1.088
1782115934.301775,0.414000,387894,1000,12,0,1,243.834,34.591,10.760,462.422,-0.261,1.078
1782115934.302775,0.415000,387895,1000,12,0,1,254.931,39.882,12.089,460.404,-2.235,1.119
1782115934.303775,0.416000,387896,1000,12,0,1,260.528,39.124,13.295,460.164,-2.188,1.159
1782115934.304775,0.417000,387897,1000,12,0,1,257.934,30.971,13.998,463.503,0.876,1.160
1782115934.305775,0.418000,387898,1000,12,0,1,262.162,27.072,14.487,464.175,2.237,1.198
1782115934.306775,0.419000,387899,1000,12,0,1,261.777,23.725,14.762,463.383,0.875,1.203
1782115934.307775,0.420000,387900,1000,12,0,1,260.480,15.819,14.836,461.221,-0.769,1.198
1782115934.308775,0.421000,387901,1000,12,0,1,261.537,13.329,14.949,460.813,-1.543,1.218
1782115934.309775,0.422000,387902,1000,12,0,1,268.647,14.375,15.083,463.503,1.089,1.225
1782115934.310775,0.423000,387903,1000,12,0,1,269.008,12.281,15.183,462.950,1.255,1.237
1782115934.311775,0.424000,387904,1000,12,0,1,267.230,4.915,15.192,461.485,-0.714,1.235
1782115934.312775,0.425000,387905,1000,12,0,1,269.056,2.850,15.195,464.296,1.641,1.240
1782115934.313775,0.426000,387906,1000,12,0,1,266.341,-2.233,15.198,465.953,3.442,1.332
1782115934.314775,0.427000,387907,1000,12,0,1,255.412,-14.598,15.337,466.217,2.960,1.397
1782115934.315775,0.428000,387908,1000,12,0,1,233.145,-33.932,16.065,463.335,0.444,1.398
1782115934.316775,0.429000,387909,1000,12,0,1,217.579,-47.816,17.396,464.440,0.141,1.396
1782115934.317775,0.430000,387910,1000,12,0,1,207.923,-49.713,18.744,464.896,1.491,1.407
1782115934.318775,0.431000,387911,1000,12,0,1,195.624,-54.089,20.240,466.578,1.807,1.424
1782115934.319775,0.432000,387912,1000,12,0,1,178.137,-60.466,21.972,463.431,0.035,1.419
1782115934.320775,0.433000,387913,1000,12,0,1,161.827,-65.604,23.850,464.320,-0.999,1.420
1782115934.321775,0.434000,387914,1000,12,0,1,146.046,-66.970,25.640,465.905,1.640,1.428
1782115934.322775,0.435000,387915,1000,12,0,1,125.652,-71.159,27.531,466.337,1.198,1.400
1782115934.323775,0.436000,387916,1000,12,0,1,112.921,-69.032,29.203,463.215,-1.134,1.408
1782115934.324775,0.437000,387917,1000,12,0,1,128.847,-41.879,29.785,462.830,-2.384,1.436
1782115934.325775,0.438000,387918,1000,12,0,1,173.573,8.709,29.810,465.857,0.694,1.433
1782115934.326775,0.439000,387919,1000,12,0,1,198.002,40.000,30.304,466.265,1.477,1.438
1782115934.327775,0.440000,387920,1000,12,0,1,207.563,44.521,30.908,464.944,-0.389,1.436
1782115934.328775,0.441000,387921,1000,12,0,1,229.469,59.267,32.022,463.743,-1.280,1.446
1782115934.329775,0.442000,387922,1000,12,0,1,243.498,67.249,33.386,464.872,-0.820,1.449
1782115934.330775,0.443000,387923,1000,12,0,1,234.898,51.943,34.128,466.938,1.473,1.443
1782115934.331775,0.444000,387924,1000,12,0,1,223.656,33.185,34.367,464.896,-0.306,1.443
1782115934.332775,0.445000,387925,1000,12,0,1,230.622,32.543,34.585,465.497,-0.664,1.430
1782115934.333775,0.446000,387926,1000,12,0,1,249.935,45.419,35.110,464.632,-0.539,1.415
1782115934.334775,0.447000,387927,1000,12,0,1,268.263,55.306,35.969,462.014,-3.250,1.478
1782115934.335775,0.448000,387928,1000,12,0,1,270.329,50.436,36.641,465.328,-0.580,1.475
1782115934.336775,0.449000,387929,1000,12,0,1,261.393,33.028,36.920,464.175,-0.009,1.467
1782115934.337775,0.450000,387930,1000,12,0,1,256.253,21.023,37.039,462.902,-2.339,1.499
1782115934.338775,0.451000,387931,1000,12,0,1,250.512,11.668,37.074,464.704,0.024,1.489
1782115934.339775,0.452000,387932,1000,12,0,1,251.448,7.239,37.088,466.073,1.220,1.482
1782115934.340775,0.453000,387933,1000,12,0,1,264.732,15.440,37.130,465.545,0.877,1.464
1782115934.341775,0.454000,387934,1000,12,0,1,273.740,20.229,37.184,466.674,1.240,1.474
1782115934.342775,0.455000,387935,1000,12,0,1,273.379,14.078,37.226,463.671,-0.653,1.467
1782115934.343775,0.456000,387936,1000,12,0,1,276.094,9.698,37.244,466.241,-0.001,1.459
1782115934.344775,0.457000,387937,1000,12,0,1,280.177,8.375,37.209,467.634,2.729,1.491
1782115934.345775,0.458000,387938,1000,12,0,1,290.578,10.578,37.134,466.578,0.664,1.461
1782115934.346775,0.459000,387939,1000,12,0,1,299.081,13.294,37.082,466.457,0.473,1.457
1782115934.347775,0.460000,387940,1000,12,0,1,304.822,10.695,37.027,467.034,0.752,1.436
1782115934.348775,0.461000,387941,1000,12,0,1,308.810,7.925,37.020,465.425,-0.596,1.438
1782115934.349775,0.462000,387942,1000,12,0,1,307.897,1.042,37.001,465.449,-1.024,1.445
1782115934.350775,0.463000,387943,1000,12,0,1,301.892,-9.228,36.870,464.488,-1.339,1.444
1782115934.351775,0.464000,387944,1000,12,0,1,293.509,-19.741,36.651,465.328,-0.975,1.451
1782115934.352775,0.465000,387945,1000,12,0,1,287.984,-26.142,36.403,467.370,1.171,1.425
1782115934.353775,0.466000,387946,1000,12,0,1,279.553,-31.542,36.255,466.505,0.633,1.394
1782115934.354775,0.467000,387947,1000,12,0,1,267.782,-39.697,36.425,466.313,-0.282,1.389
1782115934.355775,0.468000,387948,1000,12,0,1,254.691,-46.169,36.807,467.610,1.100,1.362
1782115934.356775,0.469000,387949,1000,12,0,1,240.711,-52.083,37.386,468.019,1.200,1.367
1782115934.357775,0.470000,387950,1000,12,0,1,233.409,-51.150,38.014,467.130,0.342,1.363
1782115934.358775,0.471000,387951,1000,12,0,1,227.812,-46.438,38.531,465.545,-1.322,1.358
1782115934.359775,0.472000,387952,1000,12,0,1,216.931,-46.988,39.047,466.217,-0.922,1.356
1782115934.360775,0.473000,387953,1000,12,0,1,211.838,-43.792,39.497,467.514,0.528,1.346
1782115934.361775,0.474000,387954,1000,12,0,1,216.186,-31.418,39.740,467.827,0.708,1.346
1782115934.362775,0.475000,387955,1000,12,0,1,230.022,-13.134,39.781,466.746,-0.278,1.327
1782115934.363775,0.476000,387956,1000,12,0,1,240.759,1.694,39.781,467.490,-0.106,1.234
1782115934.364775,0.477000,387957,1000,12,0,1,238.237,1.383,39.727,469.700,1.934,1.193
1782115934.365775,0.478000,387958,1000,12,0,1,231.655,-4.495,39.442,469.508,1.718,1.216
1782115934.366775,0.479000,387959,1000,12,0,1,222.215,-10.772,38.888,469.436,0.880,1.222
1782115934.367775,0.480000,387960,1000,12,0,1,217.916,-13.436,38.294,468.595,0.230,1.204
1782115934.368775,0.481000,387961,1000,12,0,1,232.088,1.006,37.522,470.181,0.747,1.181
1782115934.369775,0.482000,387962,1000,12,0,1,246.524,17.374,36.618,468.259,-0.094,1.182
1782115934.370775,0.483000,387963,1000,12,0,1,249.839,20.051,35.536,467.899,-1.699,1.197
1782115934.371775,0.484000,387964,1000,12,0,1,247.989,17.265,34.338,466.770,-1.605,1.196
1782115934.372775,0.485000,387965,1000,12,0,1,236.628,7.781,32.848,467.562,-1.673,1.208
1782115934.373775,0.486000,387966,1000,12,0,1,218.564,-7.352,31.381,468.595,0.084,1.197
1782115934.374775,0.487000,387967,1000,12,0,1,205.617,-15.698,30.897,470.493,1.229,1.162
1782115934.375775,0.488000,387968,1000,12,0,1,204.800,-11.560,30.916,468.547,0.114,1.158
1782115934.376775,0.489000,387969,1000,12,0,1,215.730,3.276,30.397,469.604,-0.223,1.139
1782115934.377775,0.490000,387970,1000,12,0,1,235.715,23.844,29.929,470.157,1.083,1.148
1782115934.378775,0.491000,387971,1000,12,0,1,261.081,45.685,29.449,469.316,-0.277,1.134
1782115934.379775,0.492000,387972,1000,12,0,1,272.370,53.063,28.863,468.427,-1.074,1.139
1782115934.380775,0.493000,387973,1000,12,0,1,281.618,51.459,28.846,469.484,-0.346,1.121
1782115934.381775,0.494000,387974,1000,12,0,1,275.781,40.998,29.046,470.301,0.534,1.122
1782115934.382775,0.495000,387975,1000,12,0,1,251.833,11.165,28.723,469.940,0.161,1.119
1782115934.383775,0.496000,387976,1000,12,0,1,220.222,-20.455,28.144,469.940,-0.240,1.116
1782115934.384775,0.497000,387977,1000,12,0,1,190.028,-46.912,27.838,470.661,0.474,1.020
1782115934.385775,0.498000,387978,1000,12,0,1,176.216,-55.120,28.015,472.679,1.759,1.046
1782115934.386775,0.499000,387979,1000,12,0,1,171.940,-49.514,28.497,470.541,0.437,1.048
1782115934.387775,0.500000,387980,1000,12,0,1,179.675,-36.071,28.796,469.076,-2.034,1.035
1782115934.388775,0.501000,387981,1000,12,0,1,186.016,-20.893,28.901,470.421,-0.378,1.037
1782115934.389775,0.502000,387982,1000,12,0,1,191.421,-12.373,28.935,471.021,0.208,1.023
1782115934.390775,0.503000,387983,1000,12,0,1,196.561,-2.745,28.855,471.526,0.476,1.017
1782115934.391775,0.504000,387984,1000,12,0,1,203.383,5.048,28.722,472.318,1.066,1.013
1782115934.392775,0.505000,387985,1000,12,0,1,216.498,17.760,28.763,470.805,-0.242,1.010
1782115934.393775,0.506000,387986,1000,12,0,1,218.972,21.680,28.893,471.550,-0.296,1.011
1782115934.394775,0.507000,387987,1000,12,0,1,213.592,14.590,28.943,470.709,-0.350,0.935
1782115934.395775,0.508000,387988,1000,12,0,1,184.695,-7.357,28.923,470.589,-1.179,0.946
1782115934.396775,0.509000,387989,1000,12,0,1,156.711,-32.853,29.233,472.030,0.409,0.945
1782115934.397775,0.510000,387990,1000,12,0,1,156.230,-26.869,29.440,472.751,0.958,0.949
1782115934.398775,0.511000,387991,1000,12,0,1,175.063,-3.082,29.422,473.231,1.029,0.956
1782115934.399775,0.512000,387992,1000,12,0,1,199.708,23.296,29.606,472.102,0.068,0.945
1782115934.400775,0.513000,387993,1000,12,0,1,226.659,46.515,30.300,471.670,-0.951,0.936
1782115934.401775,0.514000,387994,1000,12,0,1,263.243,72.084,31.846,467.875,-3.402,1.043
1782115934.402775,0.515000,387995,1000,12,0,1,289.353,87.361,33.958,469.460,-3.176,1.123
1782115934.403775,0.516000,387996,1000,12,0,1,313.926,91.509,36.066,471.286,0.232,1.120
1782115934.404775,0.517000,387997,1000,12,0,1,337.899,96.886,38.170,472.679,0.647,1.123
1782115934.405775,0.518000,387998,1000,12,0,1,339.748,80.789,39.305,470.637,-0.258,1.113
1782115934.406775,0.519000,387999,1000,12,0,1,337.923,58.519,39.486,473.111,0.442,1.102
1782115934.407775,0.520000,388000,1000,12,0,1,321.276,31.583,39.073,474.408,2.779,1.169
1782115934.408775,0.521000,388001,1000,12,0,1,293.076,-6.327,38.528,472.847,0.492,1.156
1782115934.409775,0.522000,388002,1000,12,0,1,273.307,-29.628,38.181,471.982,-0.521,1.151
1782115934.410775,0.523000,388003,1000,12,0,1,262.258,-39.938,38.097,472.607,-0.025,1.148
1782115934.411775,0.524000,388004,1000,12,0,1,245.587,-50.565,38.506,471.358,-0.923,1.152
1782115934.412775,0.525000,388005,1000,12,0,1,231.655,-58.978,39.356,473.832,0.626,1.154
1782115934.413775,0.526000,388006,1000,12,0,1,225.122,-57.114,40.175,472.679,0.613,1.157
1782115934.414775,0.527000,388007,1000,12,0,1,224.978,-49.562,40.782,471.646,-1.340,1.140
1782115934.415775,0.528000,388008,1000,12,0,1,227.380,-39.758,41.162,473.544,0.574,1.117
1782115934.416775,0.529000,388009,1000,12,0,1,230.935,-30.593,41.361,474.072,1.267,1.125
1782115934.417775,0.530000,388010,1000,12,0,1,231.992,-24.757,41.466,473.351,0.168,1.124
1782115934.418775,0.531000,388011,1000,12,0,1,217.651,-32.033,41.712,470.157,-2.233,1.163
1782115934.419775,0.532000,388012,1000,12,0,1,208.379,-38.888,42.001,470.757,-2.569,1.218
1782115934.420775,0.533000,388013,1000,12,0,1,205.161,-34.842,42.194,470.565,-1.246,1.207
1782115934.421775,0.534000,388014,1000,12,0,1,195.720,-37.606,42.458,472.126,-0.740,1.191
1782115934.422775,0.535000,388015,1000,12,0,1,184.311,-41.726,42.852,471.838,0.246,1.167
1782115934.423775,0.536000,388016,1000,12,0,1,172.853,-44.301,43.295,473.159,0.312,1.168
1782115934.424775,0.537000,388017,1000,12,0,1,154.237,-51.145,43.839,471.982,0.325,1.156
1782115934.425775,0.538000,388018,1000,12,0,1,130.937,-61.075,44.652,473.544,0.379,1.157
1782115934.426775,0.539000,388019,1000,12,0,1,106.003,-69.341,45.713,472.943,0.957,1.165
1782115934.427775,0.540000,388020,1000,12,0,1,82.775,-73.737,46.766,474.408,0.904,1.162
1782115934.428775,0.541000,388021,1000,12,0,1,87.147,-55.100,46.969,473.231,0.833,1.167
1782115934.429775,0.542000,388022,1000,12,0,1,119.383,-9.732,46.386,472.967,-0.541,1.159
1782115934.430775,0.543000,388023,1000,12,0,1,141.145,23.125,45.928,473.688,0.528,1.161
1782115934.431775,0.544000,388024,1000,12,0,1,164.926,46.166,46.026,472.246,-0.628,1.162
1782115934.432775,0.545000,388025,1000,12,0,1,185.392,66.965,46.964,474.793,0.698,1.166
1782115934.433775,0.546000,388026,1000,12,0,1,178.209,58.544,47.600,474.961,2.076,1.202
1782115934.434775,0.547000,388027,1000,12,0,1,169.562,43.829,47.541,473.520,-0.434,1.201
1782115934.435775,0.548000,388028,1000,12,0,1,184.863,52.558,47.483,474.504,0.663,1.179
1782115934.436775,0.549000,388029,1000,12,0,1,217.315,75.874,48.174,474.000,0.221,1.178
1782115934.437775,0.550000,388030,1000,12,0,1,225.434,78.327,49.167,472.367,-1.317,1.157
1782115934.438775,0.551000,388031,1000,12,0,1,219.981,59.745,49.800,473.111,-0.899,1.163
1782115934.439775,0.552000,388032,1000,12,0,1,214.336,45.978,50.193,472.318,-0.900,1.170
1782115934.440775,0.553000,388033,1000,12,0,1,197.474,23.934,50.305,473.351,-0.607,1.171
1782115934.441775,0.554000,388034,1000,12,0,1,172.444,-3.222,50.302,474.769,1.218,1.174
1782115934.442775,0.555000,388035,1000,12,0,1,148.640,-25.057,50.364,473.471,-0.057,1.173
1782115934.443775,0.556000,388036,1000,12,0,1,146.790,-26.280,50.408,474.504,0.178,1.173
1782115934.444775,0.557000,388037,1000,12,0,1,155.246,-12.535,50.397,474.841,1.007,1.180
1782115934.445775,0.558000,388038,1000,12,0,1,178.353,7.709,50.398,474.600,0.096,1.169
1782115934.446775,0.559000,388039,1000,12,0,1,211.838,37.859,50.468,474.312,0.009,1.167
1782115934.447775,0.560000,388040,1000,12,0,1,252.601,66.430,51.194,473.544,-0.927,1.167
1782115934.448775,0.561000,388041,1000,12,0,1,275.709,78.881,52.394,475.129,0.233,1.158
1782115934.449775,0.562000,388042,1000,12,0,1,240.423,38.004,52.566,472.198,-1.431,1.176
1782115934.450775,0.563000,388043,1000,12,0,1,199.804,-13.779,52.189,474.504,-0.938,1.175
1782115934.451775,0.564000,388044,1000,12,0,1,180.107,-32.213,51.386,475.249,1.525,1.094
1782115934.452775,0.565000,388045,1000,12,0,1,173.021,-37.541,50.160,475.994,0.752,1.003
1782115934.453775,0.566000,388046,1000,12,0,1,162.740,-39.964,48.791,474.024,0.066,1.003
1782115934.454775,0.567000,388047,1000,12,0,1,167.280,-33.962,47.073,474.024,-1.152,1.012
1782115934.455775,0.568000,388048,1000,12,0,1,178.089,-16.910,45.728,473.640,-0.476,1.013
1782115934.456775,0.569000,388049,1000,12,0,1,183.134,-9.602,44.993,473.784,-0.827,1.018
1782115934.457775,0.570000,388050,1000,12,0,1,183.998,-6.862,44.781,473.760,-0.379,0.941
1782115934.458775,0.571000,388051,1000,12,0,1,179.771,-8.910,44.790,473.303,-0.742,0.944
1782115934.459775,0.572000,388052,1000,12,0,1,177.176,-11.072,44.621,473.808,-0.428,0.943
1782115934.460775,0.573000,388053,1000,12,0,1,185.464,-2.801,44.264,474.072,0.239,0.943
1782115934.461775,0.574000,388054,1000,12,0,1,190.220,3.038,43.685,472.198,-1.480,0.958
1782115934.462775,0.575000,388055,1000,12,0,1,193.102,4.125,42.885,472.895,-1.065,0.965
1782115934.463775,0.576000,388056,1000,12,0,1,199.107,8.070,42.133,475.249,1.266,0.978
1782115934.464775,0.577000,388057,1000,12,0,1,201.197,8.897,41.565,474.312,0.790,0.966
1782115934.465775,0.578000,388058,1000,12,0,1,199.083,4.579,41.188,473.616,-0.592,0.966
1782115934.466775,0.579000,388059,1000,12,0,1,187.097,-5.970,40.969,474.024,0.074,0.949
1782115934.467775,0.580000,388060,1000,12,0,1,177.200,-16.291,40.884,473.471,-0.469,0.951
1782115934.468775,0.581000,388061,1000,12,0,1,181.909,-10.568,40.660,472.823,-1.000,0.909
1782115934.469775,0.582000,388062,1000,12,0,1,181.909,-6.556,40.297,473.544,-0.390,0.835
1782115934.470775,0.583000,388063,1000,12,0,1,174.558,-11.782,40.029,473.616,0.062,0.816
1782115934.471775,0.584000,388064,1000,12,0,1,169.658,-13.761,39.722,475.009,0.929,0.820
1782115934.472775,0.585000,388065,1000,12,0,1,178.570,-4.409,39.286,473.856,0.545,0.823
1782115934.473775,0.586000,388066,1000,12,0,1,195.384,13.044,38.827,472.823,-1.018,0.834
1782115934.474775,0.587000,388067,1000,12,0,1,217.003,30.429,38.389,472.439,-0.842,0.841
1782115934.475775,0.588000,388068,1000,12,0,1,237.877,45.357,37.951,471.838,-1.262,0.858
1782115934.476775,0.589000,388069,1000,12,0,1,245.659,46.077,37.237,473.664,0.314,0.849
1782115934.477775,0.590000,388070,1000,12,0,1,235.955,29.759,35.994,473.399,0.859,0.848
1782115934.478775,0.591000,388071,1000,12,0,1,241.840,24.192,35.306,473.616,0.301,0.840
1782115934.479775,0.592000,388072,1000,12,0,1,242.393,22.414,35.422,473.856,1.028,0.850
1782115934.480775,0.593000,388073,1000,12,0,1,218.084,-4.387,35.276,476.810,2.706,0.929
1782115934.481775,0.594000,388074,1000,12,0,1,189.907,-32.485,34.969,473.760,1.134,0.938
1782115934.482775,0.595000,388075,1000,12,0,1,178.233,-41.554,34.172,474.817,-0.153,0.933
1782115934.483775,0.596000,388076,1000,12,0,1,186.400,-30.194,33.428,475.393,1.832,0.923
1782115934.484775,0.597000,388077,1000,12,0,1,203.960,-9.741,32.877,472.054,-1.911,0.960
1782115934.485775,0.598000,388078,1000,12,0,1,209.076,-1.846,32.027,473.303,-1.290,0.973
1782115934.486775,0.599000,388079,1000,12,0,1,207.394,-4.123,30.181,475.465,1.425,0.993
1782115934.487775,0.600000,388080,1000,12,0,1,201.245,-8.698,28.102,474.961,0.629,0.979
1782115934.488775,0.601000,388081,1000,12,0,1,181.812,-23.764,27.011,476.090,1.276,0.987
1782115934.489775,0.602000,388082,1000,12,0,1,164.542,-37.557,26.750,474.865,0.434,0.981
1782115934.490775,0.603000,388083,1000,12,0,1,158.104,-37.294,27.054,473.327,-1.420,0.998
1782115934.491775,0.604000,388084,1000,12,0,1,151.643,-35.611,27.515,473.640,-1.047,0.994
1782115934.492775,0.605000,388085,1000,12,0,1,139.296,-38.818,27.832,476.762,1.627,1.020
1782115934.493775,0.606000,388086,1000,12,0,1,116.188,-50.069,28.477,475.441,1.177,1.033
1782115934.494775,0.607000,388087,1000,12,0,1,96.947,-58.352,29.596,474.576,-0.677,1.028
1782115934.495775,0.608000,388088,1000,12,0,1,99.470,-45.418,30.265,474.144,-0.476,1.030
1782115934.496775,0.609000,388089,1000,12,0,1,116.212,-19.030,29.909,475.177,-0.032,1.030
1782115934.497775,0.610000,388090,1000,12,0,1,151.811,17.674,28.505,476.162,1.206,1.036
1782115934.498775,0.611000,388091,1000,12,0,1,196.441,59.647,27.555,473.135,-1.273,1.051
1782115934.499775,0.612000,388092,1000,12,0,1,196.153,59.678,28.313,472.174,-2.837,1.106
1782115934.500775,0.613000,388093,1000,12,0,1,180.491,33.923,28.650,473.904,-0.580,1.102
1782115934.501775,0.614000,388094,1000,12,0,1,175.927,25.837,28.521,474.793,0.289,1.081
1782115934.502775,0.615000,388095,1000,12,0,1,184.719,28.521,28.311,475.970,1.228,1.090
1782115934.503775,0.616000,388096,1000,12,0,1,214.144,49.648,28.616,474.504,0.125,1.090
1782115934.504775,0.617000,388097,1000,12,0,1,248.590,74.358,30.106,474.624,-0.543,1.080
1782115934.505775,0.618000,388098,1000,12,0,1,257.862,73.856,31.777,473.664,-0.697,1.083
1782115934.506775,0.619000,388099,1000,12,0,1,240.999,47.073,32.438,474.865,-0.426,1.078
1782115934.507775,0.620000,388100,1000,12,0,1,223.080,20.032,32.547,475.874,1.189,1.090
1782115934.508775,0.621000,388101,1000,12,0,1,191.301,-9.861,32.552,475.922,0.724,1.090
1782115934.509775,0.622000,388102,1000,12,0,1,139.608,-55.434,33.447,472.943,-1.481,1.108
1782115934.510775,0.623000,388103,1000,12,0,1,90.990,-91.570,35.864,474.096,-1.368,1.124
1782115934.511775,0.624000,388104,1000,12,0,1,48.017,-113.902,39.313,474.360,0.136,1.105
1782115934.512775,0.625000,388105,1000,12,0,1,15.445,-123.463,43.012,476.402,1.039,1.104
1782115934.513775,0.626000,388106,1000,12,0,1,-3.507,-116.790,46.060,475.825,1.483,1.109
1782115934.514775,0.627000,388107,1000,12,0,1,-15.878,-103.559,48.316,476.018,0.561,1.107
1782115934.515775,0.628000,388108,1000,12,0,1,-39.010,-99.050,50.301,475.585,0.722,1.108
1782115934.516775,0.629000,388109,1000,12,0,1,-73.599,-106.880,52.517,473.808,-1.130,1.120
1782115934.517775,0.630000,388110,1000,12,0,1,-106.652,-112.187,54.812,474.360,-0.892,1.125
1782115934.518775,0.631000,388111,1000,12,0,1,-85.297,-74.608,55.799,475.081,0.362,1.117
1782115934.519775,0.632000,388112,1000,12,0,1,16.646,32.292,55.978,475.321,0.199,1.116
1782115934.520775,0.633000,388113,1000,12,0,1,136.029,146.459,59.663,475.345,0.479,1.118
1782115934.521775,0.634000,388114,1000,12,0,1,208.523,199.534,65.971,476.738,1.102,1.121
1782115934.522775,0.635000,388115,1000,12,0,1,240.975,200.614,71.810,476.450,1.276,1.133
1782115934.523775,0.636000,388116,1000,12,0,1,312.941,223.817,78.455,475.177,-0.558,1.127
1782115934.524775,0.637000,388117,1000,12,0,1,363.120,241.202,85.442,472.847,-2.260,1.165
1782115934.525775,0.638000,388118,1000,12,0,1,337.923,179.579,88.905,473.375,-2.267,1.195
1782115934.526775,0.639000,388119,1000,12,0,1,295.358,104.474,89.888,473.904,-0.854,1.200
1782115934.527775,0.640000,388120,1000,12,0,1,261.177,51.825,90.088,474.648,-0.456,1.196
1782115934.528775,0.641000,388121,1000,12,0,1,253.971,28.380,90.113,473.976,-0.480,1.197
1782115934.529775,0.642000,388122,1000,12,0,1,224.593,2.598,90.058,475.345,0.178,1.188
1782115934.530775,0.643000,388123,1000,12,0,1,176.264,-46.174,90.292,474.697,0.407,1.127
1782115934.531775,0.644000,388124,1000,12,0,1,150.129,-65.460,90.649,475.081,-0.018,1.115
1782115934.532775,0.645000,388125,1000,12,0,1,130.793,-71.793,91.026,474.865,0.412,1.116
1782115934.533775,0.646000,388126,1000,12,0,1,98.653,-88.397,91.782,474.408,-0.334,1.087
1782115934.534775,0.647000,388127,1000,12,0,1,98.653,-81.721,92.496,474.408,-0.165,1.053
1782115934.535775,0.648000,388128,1000,12,0,1,97.140,-66.385,92.971,473.544,-0.660,1.041
1782115934.536775,0.649000,388129,1000,12,0,1,112.249,-51.971,93.259,474.432,-0.207,1.022
1782115934.537775,0.650000,388130,1000,12,0,1,143.620,-18.191,93.287,476.234,1.837,1.051
1782115934.538775,0.651000,388131,1000,12,0,1,153.828,-9.778,93.236,474.841,0.621,1.039
1782115934.539775,0.652000,388132,1000,12,0,1,132.930,-32.653,93.199,473.087,-1.244,1.052
1782115934.540775,0.653000,388133,1000,12,0,1,123.634,-47.922,93.296,474.937,0.146,1.033
1782115934.541775,0.654000,388134,1000,12,0,1,133.002,-39.610,93.329,477.483,2.754,1.094
1782115934.542775,0.655000,388135,1000,12,0,1,103.721,-57.800,93.525,475.201,0.815,1.076
1782115934.543775,0.656000,388136,1000,12,0,1,55.103,-99.006,94.302,472.823,-2.035,1.101
1782115934.544775,0.657000,388137,1000,12,0,1,23.348,-112.394,95.275,473.880,-1.016,1.106
1782115934.545775,0.658000,388138,1000,12,0,1,17.031,-99.343,96.091,473.111,-0.998,1.113
1782115934.546775,0.659000,388139,1000,12,0,1,-1.489,-87.032,96.839,474.456,-0.422,1.115
1782115934.547775,0.660000,388140,1000,12,0,1,-17.271,-80.254,97.470,474.889,0.837,1.108
1782115934.548775,0.661000,388141,1000,12,0,1,-3.171,-42.946,97.294,475.970,0.996,1.102
1782115934.549775,0.662000,388142,1000,12,0,1,38.313,14.480,96.949,476.042,1.532,1.049
1782115934.550775,0.663000,388143,1000,12,0,1,81.334,67.838,97.304,474.961,0.039,1.046
1782115934.551775,0.664000,388144,1000,12,0,1,149.553,126.708,98.873,474.889,-0.133,1.045
1782115934.552775,0.665000,388145,1000,12,0,1,217.651,182.058,102.090,473.808,-0.783,1.037
1782115934.553775,0.666000,388146,1000,12,0,1,223.656,172.088,104.716,476.042,0.515,1.039
1782115934.554775,0.667000,388147,1000,12,0,1,198.915,121.638,105.597,475.297,1.015,1.046
1782115934.555775,0.668000,388148,1000,12,0,1,166.896,73.757,105.596,475.321,-0.216,1.042
1782115934.556775,0.669000,388149,1000,12,0,1,133.051,25.747,105.449,474.793,0.234,1.041
1782115934.557775,0.670000,388150,1000,12,0,1,129.015,8.684,105.418,474.408,-0.777,1.033
1782115934.558775,0.671000,388151,1000,12,0,1,150.802,19.837,105.446,474.384,-0.325,1.029
1782115934.559775,0.672000,388152,1000,12,0,1,188.106,41.709,105.319,476.162,0.872,1.015
1782115934.560775,0.673000,388153,1000,12,0,1,244.434,75.863,105.069,475.153,0.588,1.000
1782115934.561775,0.674000,388154,1000,12,0,1,280.754,92.317,104.645,473.063,-1.778,1.031
1782115934.562775,0.675000,388155,1000,12,0,1,285.990,73.213,103.696,475.681,0.203,1.020
1782115934.563775,0.676000,388156,1000,12,0,1,268.287,37.553,102.510,477.315,2.418,1.056
1782115934.564775,0.677000,388157,1000,12,0,1,239.750,-3.744,101.460,475.946,0.583,1.056
1782115934.565775,0.678000,388158,1000,12,0,1,234.466,-19.494,100.526,474.817,-0.587,1.054
1782115934.566775,0.679000,388159,1000,12,0,1,248.085,-9.020,99.391,475.225,-0.507,1.044
1782115934.567775,0.680000,388160,1000,12,0,1,252.049,-5.874,98.120,475.297,-0.114,1.037
1782115934.568775,0.681000,388161,1000,12,0,1,234.898,-20.604,97.595,475.153,-0.466,1.038
1782115934.569775,0.682000,388162,1000,12,0,1,216.811,-36.889,97.627,476.018,0.300,1.038
1782115934.570775,0.683000,388163,1000,12,0,1,202.662,-43.760,95.605,474.384,-0.756,1.042
1782115934.571775,0.684000,388164,1000,12,0,1,187.698,-50.630,91.626,474.360,-1.364,1.048
1782115934.572775,0.685000,388165,1000,12,0,1,176.936,-53.133,87.447,475.225,0.039,1.032
1782115934.573775,0.686000,388166,1000,12,0,1,159.689,-59.062,81.944,474.480,-0.584,1.032
1782115934.574775,0.687000,388167,1000,12,0,1,146.502,-64.960,75.071,473.159,-1.612,1.008
1782115934.575775,0.688000,388168,1000,12,0,1,126.493,-71.811,71.371,471.502,-2.728,1.030
1782115934.576775,0.689000,388169,1000,12,0,1,91.255,-94.211,71.084,473.688,-0.933,1.032
1782115934.577775,0.690000,388170,1000,12,0,1,72.134,-102.536,72.177,475.153,1.395,1.048
1782115934.578775,0.691000,388171,1000,12,0,1,65.480,-93.627,73.272,475.753,1.390,1.065
1782115934.579775,0.692000,388172,1000,12,0,1,58.803,-86.751,74.291,473.135,-0.346,1.065
1782115934.580775,0.693000,388173,1000,12,0,1,64.760,-70.239,74.667,473.712,-0.911,1.072
1782115934.581775,0.694000,388174,1000,12,0,1,94.377,-34.528,74.252,473.904,0.376,1.073
1782115934.582775,0.695000,388175,1000,12,0,1,131.777,6.686,73.560,475.033,0.586,1.075
1782115934.583775,0.696000,388176,1000,12,0,1,99.253,-10.257,72.505,474.096,0.520,1.076
1782115934.584775,0.697000,388177,1000,12,0,1,57.890,-50.709,71.936,473.760,-0.541,1.079
1782115934.585775,0.698000,388178,1000,12,0,1,75.209,-25.488,71.412,474.721,0.608,1.078
1782115934.586775,0.699000,388179,1000,12,0,1,95.338,9.076,71.044,474.648,0.623,1.081
1782115934.587775,0.700000,388180,1000,12,0,1,124.619,38.882,71.210,472.318,-1.408,1.068
1782115934.588775,0.701000,388181,1000,12,0,1,187.433,97.475,72.519,472.679,-1.355,1.082
1782115934.589775,0.702000,388182,1000,12,0,1,231.727,136.231,74.892,472.246,-0.930,1.075
1782115934.590775,0.703000,388183,1000,12,0,1,223.512,119.397,76.473,473.784,0.049,1.075
1782115934.591775,0.704000,388184,1000,12,0,1,192.358,77.122,77.043,474.456,1.362,1.020
1782115934.592775,0.705000,388185,1000,12,0,1,161.851,41.494,76.833,476.402,2.374,1.068
1782115934.593775,0.706000,388186,1000,12,0,1,125.628,6.480,75.552,475.513,2.112,1.071
1782115934.594775,0.707000,388187,1000,12,0,1,68.243,-41.073,74.089,473.520,-0.442,1.063
1782115934.595775,0.708000,388188,1000,12,0,1,35.479,-68.592,73.388,474.240,0.036,1.054
1782115934.596775,0.709000,388189,1000,12,0,1,44.943,-49.386,72.685,473.760,0.148,1.052
1782115934.597775,0.710000,388190,1000,12,0,1,30.410,-47.048,72.101,472.799,-1.106,1.057
1782115934.598775,0.711000,388191,1000,12,0,1,-16.310,-81.345,72.760,473.640,-0.123,1.048
1782115934.599775,0.712000,388192,1000,12,0,1,-42.421,-96.106,73.991,473.231,-0.228,1.026
1782115934.600775,0.713000,388193,1000,12,0,1,-64.399,-97.229,74.643,471.694,-1.515,1.048
1782115934.601775,0.714000,388194,1000,12,0,1,-41.195,-68.847,73.112,472.391,-1.045,1.058
1782115934.602775,0.715000,388195,1000,12,0,1,27.648,6.456,68.434,473.183,0.245,1.053
1782115934.603775,0.716000,388196,1000,12,0,1,66.393,48.941,64.334,472.150,-0.633,1.054
1782115934.604775,0.717000,388197,1000,12,0,1,68.771,45.963,62.332,472.823,-0.260,1.045
1782115934.605775,0.718000,388198,1000,12,0,1,65.240,37.584,61.682,474.480,1.451,1.065
1782115934.606775,0.719000,388199,1000,12,0,1,54.623,26.283,61.687,473.471,0.690,1.069
1782115934.607775,0.720000,388200,1000,12,0,1,50.900,21.582,61.750,472.318,-0.755,1.068
1782115934.608775,0.721000,388201,1000,12,0,1,48.522,23.699,61.777,473.976,0.606,1.071
1782115934.609775,0.722000,388202,1000,12,0,1,53.662,30.289,61.644,473.664,0.845,1.070
1782115934.610775,0.723000,388203,1000,12,0,1,97.716,68.623,61.474,473.183,-0.144,1.067
1782115934.611775,0.724000,388204,1000,12,0,1,176.744,135.694,63.062,472.823,-0.120,1.037
1782115934.612775,0.725000,388205,1000,12,0,1,194.399,148.165,65.641,472.943,-0.216,1.037
1782115934.613775,0.726000,388206,1000,12,0,1,146.454,86.015,66.547,475.057,1.630,1.006
1782115934.614775,0.727000,388207,1000,12,0,1,121.376,44.714,66.844,475.273,2.112,1.046
1782115934.615775,0.728000,388208,1000,12,0,1,153.588,62.002,67.361,473.279,-0.061,1.043
1782115934.616775,0.729000,388209,1000,12,0,1,197.042,91.448,68.579,473.495,-0.221,1.041
1782115934.617775,0.730000,388210,1000,12,0,1,225.722,98.782,69.983,473.736,0.352,1.042
1782115934.618775,0.731000,388211,1000,12,0,1,245.155,92.364,71.131,472.222,-0.965,1.049
1782115934.619775,0.732000,388212,1000,12,0,1,265.981,84.548,71.940,473.399,-0.298,1.049
1782115934.620775,0.733000,388213,1000,12,0,1,284.957,74.968,72.454,472.342,-0.329,1.044
1782115934.621775,0.734000,388214,1000,12,0,1,293.797,56.863,72.546,472.246,-1.181,1.040
1782115934.622775,0.735000,388215,1000,12,0,1,280.465,21.844,72.222,472.342,-0.322,1.041
1782115934.623775,0.736000,388216,1000,12,0,1,248.206,-25.864,71.831,473.520,0.238,1.038
1782115934.624775,0.737000,388217,1000,12,0,1,219.333,-64.275,71.818,472.943,0.347,1.014
1782115934.625775,0.738000,388218,1000,12,0,1,203.167,-81.589,72.027,472.823,-0.388,0.939
1782115934.626775,0.739000,388219,1000,12,0,1,198.963,-83.026,71.751,474.624,1.279,0.948
1782115934.627775,0.740000,388220,1000,12,0,1,201.894,-73.805,71.041,474.841,1.591,0.954
1782115934.628775,0.741000,388221,1000,12,0,1,207.971,-61.144,70.330,473.399,-0.105,0.933
1782115934.629775,0.742000,388222,1000,12,0,1,200.380,-57.945,69.735,472.439,-1.021,0.943
1782115934.630775,0.743000,388223,1000,12,0,1,182.173,-66.268,69.657,473.592,-0.217,0.935
1782115934.631775,0.744000,388224,1000,12,0,1,173.045,-65.043,70.092,473.231,0.099,0.933
1782115934.632775,0.745000,388225,1000,12,0,1,183.302,-46.004,70.387,471.454,-1.730,0.961
1782115934.633775,0.746000,388226,1000,12,0,1,186.617,-31.321,70.511,471.958,-1.188,0.973
1782115934.634775,0.747000,388227,1000,12,0,1,181.596,-30.655,70.280,472.583,-0.129,0.970
1782115934.635775,0.748000,388228,1000,12,0,1,187.313,-22.093,70.257,471.334,-0.976,0.976
1782115934.636775,0.749000,388229,1000,12,0,1,185.968,-18.067,70.291,472.943,0.104,0.972
1782115934.637775,0.750000,388230,1000,12,0,1,185.608,-19.914,70.132,472.463,0.621,0.956
1782115934.638775,0.751000,388231,1000,12,0,1,202.590,-5.721,68.769,472.703,0.037,0.937
1782115934.639775,0.752000,388232,1000,12,0,1,217.363,6.118,66.021,471.790,0.013,0.927
1782115934.640775,0.753000,388233,1000,12,0,1,215.201,-0.026,63.825,470.877,-1.279,0.945
1782115934.641775,0.754000,388234,1000,12,0,1,213.616,-8.197,62.897,472.174,0.086,0.925
1782115934.642775,0.755000,388235,1000,12,0,1,207.611,-15.242,62.660,472.991,1.085,0.875
1782115934.643775,0.756000,388236,1000,12,0,1,196.033,-27.614,62.775,472.270,0.296,0.824
1782115934.644775,0.757000,388237,1000,12,0,1,190.220,-31.764,62.667,471.598,-0.373,0.823
1782115934.645775,0.758000,388238,1000,12,0,1,194.808,-24.259,62.006,471.934,-0.217,0.824
1782115934.646775,0.759000,388239,1000,12,0,1,202.951,-11.898,61.635,473.664,1.335,0.845
1782115934.647775,0.760000,388240,1000,12,0,1,200.837,-7.785,61.284,473.640,1.427,0.854
1782115934.648775,0.761000,388241,1000,12,0,1,184.263,-16.950,60.243,473.952,1.128,0.869
1782115934.649775,0.762000,388242,1000,12,0,1,191.205,-8.219,58.701,473.904,1.152,0.884
1782115934.650775,0.763000,388243,1000,12,0,1,198.363,8.932,57.082,473.303,0.295,0.858
1782115934.651775,0.764000,388244,1000,12,0,1,180.539,-1.575,56.246,474.528,1.056,0.859
1782115934.652775,0.765000,388245,1000,12,0,1,157.407,-17.759,56.294,477.411,3.443,0.986
1782115934.653775,0.766000,388246,1000,12,0,1,153.324,-16.206,55.914,476.834,2.934,1.066
1782115934.654775,0.767000,388247,1000,12,0,1,158.128,-4.339,55.538,472.943,-1.073,1.076
1782115934.655775,0.768000,388248,1000,12,0,1,156.879,-0.528,55.284,472.198,-2.308,1.106
1782115934.656775,0.769000,388249,1000,12,0,1,157.119,0.530,55.158,472.463,-1.319,1.117
1782115934.657775,0.770000,388250,1000,12,0,1,174.846,14.992,55.115,472.270,-1.453,1.131
1782115934.658775,0.771000,388251,1000,12,0,1,196.225,32.040,55.199,474.264,0.355,1.129
1782115934.659775,0.772000,388252,1000,12,0,1,205.449,34.269,55.246,473.952,0.641,1.126
1782115934.660775,0.773000,388253,1000,12,0,1,217.651,34.317,54.603,472.583,-1.066,1.136
1782115934.661775,0.774000,388254,1000,12,0,1,225.338,33.680,51.341,472.679,-0.898,1.143
1782115934.662775,0.775000,388255,1000,12,0,1,219.381,19.027,46.947,472.318,-0.993,1.151
1782115934.663775,0.776000,388256,1000,12,0,1,221.759,11.908,45.375,471.766,-1.484,1.147
1782115934.664775,0.777000,388257,1000,12,0,1,218.636,6.813,44.943,471.910,-1.211,1.121
1782115934.665775,0.778000,388258,1000,12,0,1,213.856,-2.224,44.080,472.174,-0.806,1.127
1782115934.666775,0.779000,388259,1000,12,0,1,228.028,8.498,42.158,470.781,-1.687,1.151
1782115934.667775,0.780000,388260,1000,12,0,1,259.231,35.057,40.084,472.799,-0.429,1.152
1782115934.668775,0.781000,388261,1000,12,0,1,271.962,46.398,38.459,474.072,1.577,1.165
1782115934.669775,0.782000,388262,1000,12,0,1,261.489,31.642,36.826,473.351,0.442,1.166
1782115934.670775,0.783000,388263,1000,12,0,1,240.159,9.572,35.293,473.423,0.389,1.166
1782115934.671775,0.784000,388264,1000,12,0,1,209.724,-16.907,34.448,474.841,1.472,1.173
1782115934.672775,0.785000,388265,1000,12,0,1,184.022,-37.321,34.713,471.958,-0.510,1.174
1782115934.673775,0.786000,388266,1000,12,0,1,157.383,-51.798,35.288,471.718,-1.689,1.198
1782115934.674775,0.787000,388267,1000,12,0,1,120.007,-74.677,35.695,471.021,-1.055,1.206
1782115934.675775,0.788000,388268,1000,12,0,1,79.460,-97.472,36.483,471.862,-0.834,1.211
1782115934.676775,0.789000,388269,1000,12,0,1,27.648,-124.516,38.772,471.982,0.270,1.198
1782115934.677775,0.790000,388270,1000,12,0,1,-6.005,-137.057,42.071,470.493,-1.122,1.187
1782115934.678775,0.791000,388271,1000,12,0,1,37.304,-82.207,42.783,470.589,-0.977,1.195
1782115934.679775,0.792000,388272,1000,12,0,1,116.837,7.874,42.006,473.039,1.447,1.204
1782115934.680775,0.793000,388273,1000,12,0,1,183.470,69.514,42.111,471.310,0.514,1.206
1782115934.681775,0.794000,388274,1000,12,0,1,250.440,116.589,44.278,472.919,0.798,1.211
1782115934.682775,0.795000,388275,1000,12,0,1,306.288,148.163,48.552,473.303,2.071,1.221
1782115934.683775,0.796000,388276,1000,12,0,1,320.724,137.069,52.090,473.183,0.968,1.218
1782115934.684775,0.797000,388277,1000,12,0,1,320.772,107.584,54.093,473.760,1.494,1.236
1782115934.685775,0.798000,388278,1000,12,0,1,281.186,56.765,54.597,475.153,2.194,1.266
1782115934.686775,0.799000,388279,1000,12,0,1,201.654,-27.290,54.673,476.186,2.772,1.326
1782115934.687775,0.800000,388280,1000,12,0,1,134.300,-87.834,55.996,473.327,0.214,1.323
1782115934.688775,0.801000,388281,1000,12,0,1,119.094,-90.165,57.423,472.270,-1.839,1.348
1782115934.689775,0.802000,388282,1000,12,0,1,125.700,-61.782,58.078,472.078,-1.213,1.359
1782115934.690775,0.803000,388283,1000,12,0,1,97.236,-63.328,58.764,473.351,-0.584,1.350
1782115934.691775,0.804000,388284,1000,12,0,1,66.249,-75.996,59.728,472.102,-0.655,1.353
1782115934.692775,0.805000,388285,1000,12,0,1,72.975,-50.768,60.119,473.039,-0.755,1.348
1782115934.693775,0.806000,388286,1000,12,0,1,91.831,-15.166,60.031,474.072,1.129,1.357
1782115934.694775,0.807000,388287,1000,12,0,1,94.353,-0.294,59.862,473.327,0.143,1.356
1782115934.695775,0.808000,388288,1000,12,0,1,74.080,-11.258,59.785,473.808,0.420,1.357
1782115934.696775,0.809000,388289,1000,12,0,1,86.354,-2.764,59.763,474.745,1.383,1.358
1782115934.697775,0.810000,388290,1000,12,0,1,170.763,68.040,60.522,475.561,1.753,1.366
1782115934.698775,0.811000,388291,1000,12,0,1,285.918,159.193,64.529,474.312,0.803,1.361
1782115934.699775,0.812000,388292,1000,12,0,1,377.941,213.559,71.238,473.471,-0.674,1.355
1782115934.700775,0.813000,388293,1000,12,0,1,330.765,146.086,74.163,475.201,0.856,1.359
1782115934.701775,0.814000,388294,1000,12,0,1,250.319,24.796,74.245,475.561,1.237,1.363
1782115934.702775,0.815000,388295,1000,12,0,1,221.807,-18.355,74.248,474.120,-0.369,1.274
1782115934.703775,0.816000,388296,1000,12,0,1,204.176,-40.203,74.430,472.318,-2.110,1.241
1782115934.704775,0.817000,388297,1000,12,0,1,141.986,-88.815,75.480,472.294,-2.237,1.271
1782115934.705775,0.818000,388298,1000,12,0,1,55.248,-155.525,78.619,472.559,-1.533,1.248
1782115934.706775,0.819000,388299,1000,12,0,1,-7.326,-187.913,82.989,474.408,-0.098,1.234
1782115934.707775,0.820000,388300,1000,12,0,1,-38.938,-178.729,86.727,474.697,0.690,1.220
1782115934.708775,0.821000,388301,1000,12,0,1,-40.163,-142.253,88.914,472.391,-1.562,1.239
1782115934.709775,0.822000,388302,1000,12,0,1,-9.128,-77.454,89.455,472.463,-1.776,1.261
1782115934.710775,0.823000,388303,1000,12,0,1,63.991,11.493,89.338,473.255,-0.458,1.254
1782115934.711775,0.824000,388304,1000,12,0,1,141.145,97.780,90.277,473.039,-0.589,1.250
1782115934.712775,0.825000,388305,1000,12,0,1,205.473,149.746,92.688,472.439,-0.878,1.248
1782115934.713775,0.826000,388306,1000,12,0,1,246.884,172.719,95.838,474.000,0.313,1.231
1782115934.714775,0.827000,388307,1000,12,0,1,293.316,182.980,99.265,475.465,2.046,1.253
1782115934.715775,0.828000,388308,1000,12,0,1,294.397,160.587,101.830,475.153,1.536,1.267
1782115934.716775,0.829000,388309,1000,12,0,1,253.346,88.099,102.582,474.360,0.598,1.247
1782115934.717775,0.830000,388310,1000,12,0,1,233.721,41.313,102.629,474.312,0.354,1.247
1782115934.718775,0.831000,388311,1000,12,0,1,235.907,25.297,102.481,474.745,0.690,1.230
1782115934.719775,0.832000,388312,1000,12,0,1,284.477,45.620,102.586,474.360,0.386,1.230
1782115934.720775,0.833000,388313,1000,12,0,1,323.078,70.488,103.061,472.150,-1.533,1.248
1782115934.721775,0.834000,388314,1000,12,0,1,329.107,52.451,103.300,471.502,-2.297,1.272
1782115934.722775,0.835000,388315,1000,12,0,1,327.258,33.189,103.271,471.838,-1.462,1.287
1782115934.723775,0.836000,388316,1000,12,0,1,321.349,13.334,103.029,472.078,-1.043,1.273
1782115934.724775,0.837000,388317,1000,12,0,1,315.848,-1.147,102.486,470.901,-1.642,1.286
1782115934.725775,0.838000,388318,1000,12,0,1,318.250,-4.806,101.557,472.967,-0.239,1.281
1782115934.726775,0.839000,388319,1000,12,0,1,314.767,-8.968,100.027,473.351,1.051,1.289
1782115934.727775,0.840000,388320,1000,12,0,1,296.847,-24.509,98.192,472.679,-0.174,1.279
1782115934.728775,0.841000,388321,1000,12,0,1,276.454,-41.263,97.676,472.991,0.234,1.272
1782115934.729775,0.842000,388322,1000,12,0,1,261.633,-48.939,97.914,475.825,2.327,1.298
1782115934.730775,0.843000,388323,1000,12,0,1,253.514,-50.177,97.678,474.432,1.711,1.318
1782115934.731775,0.844000,388324,1000,12,0,1,250.271,-46.291,96.498,474.721,0.605,1.316
1782115934.732775,0.845000,388325,1000,12,0,1,254.091,-39.079,94.358,473.351,0.274,1.284
1782115934.733775,0.846000,388326,1000,12,0,1,260.168,-30.694,92.447,473.760,-0.392,1.278
1782115934.734775,0.847000,388327,1000,12,0,1,259.856,-31.072,91.293,474.889,1.264,1.273
1782115934.735775,0.848000,388328,1000,12,0,1,255.556,-37.206,91.091,473.231,-0.194,1.235
1782115934.736775,0.849000,388329,1000,12,0,1,255.292,-40.566,91.190,471.502,-1.962,1.203
1782115934.737775,0.850000,388330,1000,12,0,1,258.294,-40.105,90.518,472.751,-0.648,1.206
1782115934.738775,0.851000,388331,1000,12,0,1,250.199,-47.657,89.868,473.111,0.171,1.178
1782115934.739775,0.852000,388332,1000,12,0,1,229.349,-65.990,89.928,472.367,-0.426,1.167
1782115934.740775,0.853000,388333,1000,12,0,1,217.435,-74.170,90.094,472.270,-0.574,1.167
1782115934.741775,0.854000,388334,1000,12,0,1,212.919,-69.179,89.984,471.286,-0.970,1.171
1782115934.742775,0.855000,388335,1000,12,0,1,209.292,-62.167,90.127,473.952,0.705,1.171
1782115934.743775,0.856000,388336,1000,12,0,1,222.768,-40.406,90.282,474.456,2.179,1.200
1782115934.744775,0.857000,388337,1000,12,0,1,232.688,-17.223,90.315,472.799,-0.205,1.200
1782115934.745775,0.858000,388338,1000,12,0,1,217.843,-19.054,90.341,473.495,0.257,1.199
1782115934.746775,0.859000,388339,1000,12,0,1,206.241,-20.630,90.388,473.664,0.551,1.186
1782115934.747775,0.860000,388340,1000,12,0,1,200.140,-12.139,89.890,474.648,0.875,1.166
1782115934.748775,0.861000,388341,1000,12,0,1,203.119,0.606,87.025,473.183,0.066,1.161
1782115934.749775,0.862000,388342,1000,12,0,1,216.450,22.547,81.679,475.345,0.693,1.161
1782115934.750775,0.863000,388343,1000,12,0,1,237.637,45.880,79.289,474.745,1.396,1.171
1782115934.751775,0.864000,388344,1000,12,0,1,243.209,53.805,79.576,473.471,-0.984,1.167
1782115934.752775,0.865000,388345,1000,12,0,1,232.880,40.156,79.736,471.670,-1.772,1.192
1782115934.753775,0.866000,388346,1000,12,0,1,222.744,25.932,79.618,473.303,-1.007,1.163
1782115934.754775,0.867000,388347,1000,12,0,1,216.931,16.063,78.653,472.318,-0.486,1.121
1782115934.755775,0.868000,388348,1000,12,0,1,210.637,6.041,75.520,474.192,0.094,1.100
1782115934.756775,0.869000,388349,1000,12,0,1,199.300,-7.605,70.698,473.495,0.859,1.107
1782115934.757775,0.870000,388350,1000,12,0,1,199.131,-13.186,66.052,470.829,-2.143,1.143
1782115934.758775,0.871000,388351,1000,12,0,1,215.369,-1.128,62.914,474.000,0.373,1.123
1782115934.759775,0.872000,388352,1000,12,0,1,223.152,4.342,61.956,473.279,1.217,1.108
1782115934.760775,0.873000,388353,1000,12,0,1,212.535,-7.882,61.945,473.279,-0.315,1.107
1782115934.761775,0.874000,388354,1000,12,0,1,188.754,-29.285,60.523,469.508,-1.943,1.137
1782115934.762775,0.875000,388355,1000,12,0,1,197.834,-23.072,56.791,470.709,-2.704,1.194
1782115934.763775,0.876000,388356,1000,12,0,1,221.543,6.724,51.279,472.222,0.716,1.197
1782115934.764775,0.877000,388357,1000,12,0,1,208.043,1.713,44.271,471.550,-0.668,1.165
1782115934.765775,0.878000,388358,1000,12,0,1,188.106,-14.831,38.060,474.120,1.528,1.165
1782115934.766775,0.879000,388359,1000,12,0,1,179.026,-13.770,36.016,473.520,1.594,1.184
1782115934.767775,0.880000,388360,1000,12,0,1,184.094,-2.065,35.540,472.871,-0.128,1.183
1782115934.768775,0.881000,388361,1000,12,0,1,194.664,16.928,35.440,472.174,-0.115,1.179
1782115934.769775,0.882000,388362,1000,12,0,1,191.132,20.216,34.965,472.078,-0.851,1.184
1782115934.770775,0.883000,388363,1000,12,0,1,197.330,25.625,33.709,470.685,-1.242,1.177
1782115934.771775,0.884000,388364,1000,12,0,1,226.923,51.610,33.683,472.294,-0.570,1.134
1782115934.772775,0.885000,388365,1000,12,0,1,240.111,61.958,34.486,473.351,1.457,1.134
1782115934.773775,0.886000,388366,1000,12,0,1,246.524,55.488,35.318,471.718,-0.285,1.125
1782115934.774775,0.887000,388367,1000,12,0,1,242.080,43.281,35.844,471.670,-0.447,1.103
1782115934.775775,0.888000,388368,1000,12,0,1,242.080,28.547,36.064,471.670,0.060,1.102
1782115934.776775,0.889000,388369,1000,12,0,1,203.071,-8.203,36.060,469.772,-1.445,1.111
1782115934.777775,0.890000,388370,1000,12,0,1,191.901,-34.976,36.233,470.997,-0.512,1.113
1782115934.778775,0.891000,388371,1000,12,0,1,183.254,-34.743,36.096,471.238,0.571,1.116
1782115934.779775,0.892000,388372,1000,12,0,1,180.011,-43.191,35.949,469.700,-0.894,1.073
1782115934.780775,0.893000,388373,1000,12,0,1,184.263,-33.340,35.555,472.006,0.813,1.052
1782115934.781775,0.894000,388374,1000,12,0,1,188.418,-27.278,35.160,471.910,1.659,1.074
1782115934.782775,0.895000,388375,1000,12,0,1,189.355,-22.138,34.863,470.997,-0.050,1.074
1782115934.783775,0.896000,388376,1000,12,0,1,165.863,-34.181,34.928,472.559,1.387,1.090
1782115934.784775,0.897000,388377,1000,12,0,1,144.989,-49.334,35.346,470.757,0.118,1.076
1782115934.785775,0.898000,388378,1000,12,0,1,166.752,-20.318,35.070,471.742,-0.083,1.075
1782115934.786775,0.899000,388379,1000,12,0,1,184.503,8.806,34.620,472.463,1.372,1.057
1782115934.787775,0.900000,388380,1000,12,0,1,176.336,8.361,34.173,470.901,-0.540,1.056
1782115934.788775,0.901000,388381,1000,12,0,1,159.906,-2.012,33.503,470.397,-1.046,1.066
1782115934.789775,0.902000,388382,1000,12,0,1,142.731,-10.403,32.211,472.030,0.353,1.065
1782115934.790775,0.903000,388383,1000,12,0,1,129.447,-16.078,30.540,471.262,0.214,1.062
1782115934.791775,0.904000,388384,1000,12,0,1,132.786,-7.007,28.947,467.082,-3.389,1.157
1782115934.792775,0.905000,388385,1000,12,0,1,173.429,30.140,27.907,468.235,-2.802,1.219
1782115934.793775,0.906000,388386,1000,12,0,1,218.156,71.490,29.127,469.436,-0.130,1.180
1782115934.794775,0.907000,388387,1000,12,0,1,243.305,83.309,31.325,469.556,-0.285,1.180
1782115934.795775,0.908000,388388,1000,12,0,1,254.043,78.045,33.103,470.157,0.765,1.185
1782115934.796775,0.909000,388389,1000,12,0,1,258.174,64.234,34.203,470.037,0.709,1.186
1782115934.797775,0.910000,388390,1000,12,0,1,240.783,35.344,34.523,467.803,-0.929,1.187
1782115934.798775,0.911000,388391,1000,12,0,1,214.865,-1.655,34.524,467.250,-1.634,1.209
1782115934.799775,0.912000,388392,1000,12,0,1,189.691,-29.517,34.629,468.259,-0.180,1.206
1782115934.800775,0.913000,388393,1000,12,0,1,173.934,-45.203,34.611,467.851,-0.125,1.189
1782115934.801775,0.914000,388394,1000,12,0,1,160.170,-51.867,34.552,468.043,-0.140,1.181
1782115934.802775,0.915000,388395,1000,12,0,1,163.196,-44.605,34.661,468.235,0.446,1.156
1782115934.803775,0.916000,388396,1000,12,0,1,182.245,-19.068,34.572,468.019,0.099,1.148
1782115934.804775,0.917000,388397,1000,12,0,1,209.484,10.349,34.528,470.109,1.742,1.172
1782115934.805775,0.918000,388398,1000,12,0,1,212.895,19.392,34.626,468.980,1.268,1.185
1782115934.806775,0.919000,388399,1000,12,0,1,195.961,4.012,34.614,466.433,-1.616,1.201
1782115934.807775,0.920000,388400,1000,12,0,1,178.618,-9.522,34.590,466.265,-1.622,1.185
1782115934.808775,0.921000,388401,1000,12,0,1,172.540,-11.516,34.628,467.995,0.162,1.184
1782115934.809775,0.922000,388402,1000,12,0,1,181.020,-0.324,34.622,467.106,0.025,1.171
1782115934.810775,0.923000,388403,1000,12,0,1,193.919,14.606,34.666,466.457,-0.887,1.177
1782115934.811775,0.924000,388404,1000,12,0,1,188.851,11.450,34.456,467.899,0.696,1.149
1782115934.812775,0.925000,388405,1000,12,0,1,179.146,-0.396,34.301,469.796,2.511,1.140
1782115934.813775,0.926000,388406,1000,12,0,1,172.685,-7.051,34.302,469.868,2.607,1.194
1782115934.814775,0.927000,388407,1000,12,0,1,160.939,-17.391,34.390,467.490,0.393,1.191
1782115934.815775,0.928000,388408,1000,12,0,1,149.433,-28.194,34.556,466.650,-0.793,1.177
1782115934.816775,0.929000,388409,1000,12,0,1,152.003,-25.334,34.687,468.115,0.818,1.161
1782115934.817775,0.930000,388410,1000,12,0,1,151.306,-22.096,34.826,468.091,1.084,1.171
1782115934.818775,0.931000,388411,1000,12,0,1,147.439,-24.698,34.919,466.794,-0.164,1.171
1782115934.819775,0.932000,388412,1000,12,0,1,149.985,-20.119,34.918,467.298,0.073,1.165
1782115934.820775,0.933000,388413,1000,12,0,1,165.959,-4.344,34.735,466.698,0.048,1.151
1782115934.821775,0.934000,388414,1000,12,0,1,183.614,13.959,34.017,467.827,0.445,1.150
1782115934.822775,0.935000,388415,1000,12,0,1,170.835,6.048,32.880,465.184,-0.855,1.138
1782115934.823775,0.936000,388416,1000,12,0,1,159.713,-7.100,31.945,465.977,-1.460,1.156
1782115934.824775,0.937000,388417,1000,12,0,1,160.458,-0.982,31.354,465.713,-0.188,1.155
1782115934.825775,0.938000,388418,1000,12,0,1,161.683,3.787,31.098,464.416,-1.996,1.189
1782115934.826775,0.939000,388419,1000,12,0,1,160.050,7.162,31.092,466.962,0.383,1.172
1782115934.827775,0.940000,388420,1000,12,0,1,177.825,23.020,30.869,466.626,0.924,1.177
1782115934.828775,0.941000,388421,1000,12,0,1,206.193,50.432,31.298,465.376,-0.937,1.182
1782115934.829775,0.942000,388422,1000,12,0,1,206.314,50.039,31.502,463.263,-1.994,1.208
1782115934.830775,0.943000,388423,1000,12,0,1,192.334,29.723,31.429,464.007,-1.887,1.232
1782115934.831775,0.944000,388424,1000,12,0,1,185.175,18.863,31.306,464.896,0.153,1.210
1782115934.832775,0.945000,388425,1000,12,0,1,184.431,13.906,31.211,466.193,0.890,1.216
1782115934.833775,0.946000,388426,1000,12,0,1,176.792,5.327,30.843,466.746,1.960,1.232
1782115934.834775,0.947000,388427,1000,12,0,1,156.278,-15.549,30.124,467.514,2.113,1.268
1782115934.835775,0.948000,388428,1000,12,0,1,137.807,-33.481,30.358,466.529,1.541,1.286
1782115934.836775,0.949000,388429,1000,12,0,1,127.021,-40.787,30.876,465.425,0.082,1.272
1782115934.837775,0.950000,388430,1000,12,0,1,112.921,-48.118,31.595,466.554,0.994,1.277
1782115934.838775,0.951000,388431,1000,12,0,1,105.187,-50.676,32.396,466.962,1.682,1.291
1782115934.839775,0.952000,388432,1000,12,0,1,119.815,-32.331,32.684,466.842,1.122,1.299
1782115934.840775,0.953000,388433,1000,12,0,1,138.623,-8.496,32.627,467.034,1.297,1.312
1782115934.841775,0.954000,388434,1000,12,0,1,150.994,4.797,32.619,465.809,0.097,1.221
1782115934.842775,0.955000,388435,1000,12,0,1,170.619,21.395,32.481,466.361,0.153,1.155
1782115934.843775,0.956000,388436,1000,12,0,1,200.068,45.386,31.528,466.361,0.506,1.157
1782115934.844775,0.957000,388437,1000,12,0,1,220.654,60.043,30.451,466.337,0.055,1.157
1782115934.845775,0.958000,388438,1000,12,0,1,217.459,51.046,29.285,464.632,-1.077,1.162
1782115934.846775,0.959000,388439,1000,12,0,1,213.376,38.038,28.355,465.689,-0.833,1.163
1782115934.847775,0.960000,388440,1000,12,0,1,209.316,30.768,28.248,465.473,-0.099,1.156
1782115934.848775,0.961000,388441,1000,12,0,1,207.491,23.781,28.447,463.022,-2.524,1.187
1782115934.849775,0.962000,388442,1000,12,0,1,203.167,18.385,28.258,464.031,-1.745,1.213
1782115934.850775,0.963000,388443,1000,12,0,1,196.945,9.746,27.560,464.248,-0.562,1.215
1782115934.851775,0.964000,388444,1000,12,0,1,192.862,4.536,26.574,465.713,0.171,1.215
1782115934.852775,0.965000,388445,1000,12,0,1,189.619,0.459,25.815,464.464,0.146,1.214
1782115934.853775,0.966000,388446,1000,12,0,1,187.553,-3.059,25.677,462.830,-2.020,1.247
1782115934.854775,0.967000,388447,1000,12,0,1,192.934,-0.625,25.635,463.527,-0.836,1.228
1782115934.855775,0.968000,388448,1000,12,0,1,199.179,2.803,25.491,464.151,0.032,1.215
1782115934.856775,0.969000,388449,1000,12,0,1,200.861,0.599,25.485,464.536,0.502,1.195
1782115934.857775,0.970000,388450,1000,12,0,1,197.234,-6.744,25.468,466.529,2.138,1.211
1782115934.858775,0.971000,388451,1000,12,0,1,188.418,-17.785,25.540,464.416,0.844,1.217
1782115934.859775,0.972000,388452,1000,12,0,1,178.233,-28.979,25.866,465.040,0.217,1.217
1782115934.860775,0.973000,388453,1000,12,0,1,172.300,-34.133,26.232,465.833,1.767,1.236
1782115934.861775,0.974000,388454,1000,12,0,1,172.372,-32.236,26.575,467.058,2.034,1.266
1782115934.862775,0.975000,388455,1000,12,0,1,180.491,-22.541,26.766,464.536,0.441,1.216
1782115934.863775,0.976000,388456,1000,12,0,1,198.915,-4.367,26.754,462.950,-1.953,1.192
1782115934.864775,0.977000,388457,1000,12,0,1,206.770,5.919,26.654,462.278,-1.815,1.218
1782115934.865775,0.978000,388458,1000,12,0,1,218.012,12.618,26.415,462.662,-1.486,1.230
1782115934.866775,0.979000,388459,1000,12,0,1,236.556,28.817,26.486,463.455,-0.339,1.226
1782115934.867775,0.980000,388460,1000,12,0,1,234.850,26.661,26.570,463.527,-0.013,1.216
1782115934.868775,0.981000,388461,1000,12,0,1,229.806,16.487,26.442,464.175,0.342,1.217
1782115934.869775,0.982000,388462,1000,12,0,1,228.341,14.416,26.368,463.071,-0.075,1.217
1782115934.870775,0.983000,388463,1000,12,0,1,230.550,13.562,26.430,465.545,1.093,1.227
1782115934.871775,0.984000,388464,1000,12,0,1,232.976,14.931,26.441,465.184,2.010,1.258
1782115934.872775,0.985000,388465,1000,12,0,1,232.712,11.951,26.481,463.647,-0.549,1.254
1782115934.873775,0.986000,388466,1000,12,0,1,233.841,9.812,26.498,463.383,-0.340,1.238
1782115934.874775,0.987000,388467,1000,12,0,1,234.538,7.451,26.519,463.623,-0.280,1.239
1782115934.875775,0.988000,388468,1000,12,0,1,234.057,3.016,26.517,465.881,1.637,1.228
1782115934.876775,0.989000,388469,1000,12,0,1,234.370,-0.578,26.498,464.632,1.152,1.238
1782115934.877775,0.990000,388470,1000,12,0,1,234.874,-4.099,26.303,463.911,-0.492,1.233
1782115934.878775,0.991000,388471,1000,12,0,1,236.940,-6.184,25.333,464.536,0.600,1.228
1782115934.879775,0.992000,388472,1000,12,0,1,238.862,-7.871,24.350,465.617,1.161,1.207
1782115934.880775,0.993000,388473,1000,12,0,1,238.117,-11.462,24.039,467.010,2.444,1.227
1782115934.881775,0.994000,388474,1000,12,0,1,233.097,-17.906,24.025,463.671,-0.282,1.227
1782115934.882775,0.995000,388475,1000,12,0,1,229.133,-22.669,24.158,464.296,-1.004,1.229
1782115934.883775,0.996000,388476,1000,12,0,1,227.212,-23.302,24.370,465.473,1.146,1.208
1782115934.884775,0.997000,388477,1000,12,0,1,225.314,-22.825,24.484,466.121,0.950,1.178
1782115934.885775,0.998000,388478,1000,12,0,1,230.166,-16.509,24.135,466.169,1.248,1.171
1782115934.886775,0.999000,388479,1000,12,0,1,242.200,-2.886,23.439,466.433,0.860,1.177
1782115934.887775,1.000000,388480,1000,12,0,1,247.029,4.365,22.438,466.409,0.822,1.175
1782115934.888775,1.001000,388481,1000,12,0,1,241.960,0.748,21.263,465.977,0.127,1.151
1782115934.889775,1.002000,388482,1000,12,0,1,244.963,2.823,20.770,466.505,0.256,1.140
1782115934.890775,1.003000,388483,1000,12,0,1,249.455,9.125,20.775,464.560,-1.033,1.135
1782115934.891775,1.004000,388484,1000,12,0,1,241.600,2.952,20.768,464.055,-2.219,1.177
1782115934.892775,1.005000,388485,1000,12,0,1,235.835,-3.453,20.552,463.503,-1.793,1.204
1782115934.893775,1.006000,388486,1000,12,0,1,231.463,-5.518,19.540,463.863,-1.813,1.229
1782115934.894775,1.007000,388487,1000,12,0,1,236.459,-2.462,17.602,463.455,-1.310,1.243
1782115934.895775,1.008000,388488,1000,12,0,1,240.279,2.696,16.058,464.920,-0.464,1.235
1782115934.896775,1.009000,388489,1000,12,0,1,241.744,1.238,15.131,466.554,1.588,1.250
1782115934.897775,1.010000,388490,1000,12,0,1,241.432,-0.364,14.492,463.935,-0.583,1.253
1782115934.898775,1.011000,388491,1000,12,0,1,236.532,-6.878,14.130,464.007,-1.343,1.216
1782115934.899775,1.012000,388492,1000,12,0,1,229.566,-14.674,14.043,464.656,0.152,1.190
1782115934.900775,1.013000,388493,1000,12,0,1,230.238,-15.278,14.141,465.521,0.403,1.189
1782115934.901775,1.014000,388494,1000,12,0,1,240.159,-6.577,14.157,465.593,0.948,1.197
1782115934.902775,1.015000,388495,1000,12,0,1,248.350,1.296,14.158,465.833,0.601,1.199
1782115934.903775,1.016000,388496,1000,12,0,1,245.083,-2.016,14.154,468.379,2.653,1.224
1782115934.904775,1.017000,388497,1000,12,0,1,225.410,-18.257,14.388,468.547,2.898,1.285
1782115934.905775,1.018000,388498,1000,12,0,1,200.861,-38.049,15.356,466.025,0.014,1.285
1782115934.906775,1.019000,388499,1000,12,0,1,192.550,-40.122,16.370,465.953,-0.579,1.286
1782115934.907775,1.020000,388500,1000,12,0,1,200.477,-24.570,16.708,464.992,-0.936,1.257
1782115934.908775,1.021000,388501,1000,12,0,1,234.706,10.169,16.580,464.272,-1.882,1.279
1782115934.909775,1.022000,388502,1000,12,0,1,272.418,48.432,17.465,468.043,1.311,1.292
1782115934.910775,1.023000,388503,1000,12,0,1,285.269,57.269,18.636,467.827,2.023,1.300
1782115934.911775,1.024000,388504,1000,12,0,1,279.216,44.619,19.140,466.866,-0.045,1.267
1782115934.912775,1.025000,388505,1000,12,0,1,282.555,38.205,19.631,466.698,0.154,1.266
1782115934.913775,1.026000,388506,1000,12,0,1,281.907,33.375,20.181,466.313,-0.531,1.238
1782115934.914775,1.027000,388507,1000,12,0,1,272.346,17.643,20.317,466.073,-0.632,1.214
1782115934.915775,1.028000,388508,1000,12,0,1,262.258,3.665,20.245,467.058,0.058,1.196
1782115934.916775,1.029000,388509,1000,12,0,1,256.156,-5.373,19.846,467.466,0.600,1.198
1782115934.917775,1.030000,388510,1000,12,0,1,252.649,-10.344,19.539,466.866,-0.102,1.198
1782115934.918775,1.031000,388511,1000,12,0,1,252.625,-11.684,19.470,465.473,-1.363,1.212
1782115934.919775,1.032000,388512,1000,12,0,1,252.313,-12.443,19.442,464.944,-1.864,1.241
1782115934.920775,1.033000,388513,1000,12,0,1,259.183,-8.135,19.382,466.770,-0.241,1.232
1782115934.921775,1.034000,388514,1000,12,0,1,263.819,-3.657,19.273,467.755,1.076,1.208
1782115934.922775,1.035000,388515,1000,12,0,1,254.595,-12.248,19.277,468.067,0.902,1.212
1782115934.923775,1.036000,388516,1000,12,0,1,238.958,-26.497,19.589,468.691,1.342,1.226
1782115934.924775,1.037000,388517,1000,12,0,1,229.013,-33.119,20.113,467.586,0.259,1.226
1782115934.925775,1.038000,388518,1000,12,0,1,228.749,-29.217,20.529,469.076,0.808,1.209
1782115934.926775,1.039000,388519,1000,12,0,1,230.430,-21.713,20.757,468.259,0.759,1.203
1782115934.927775,1.040000,388520,1000,12,0,1,237.901,-11.669,20.814,468.475,-0.152,1.201
1782115934.928775,1.041000,388521,1000,12,0,1,250.800,3.649,20.803,468.451,0.426,1.200
1782115934.929775,1.042000,388522,1000,12,0,1,255.724,10.417,20.825,467.178,-1.109,1.199
1782115934.930775,1.043000,388523,1000,12,0,1,260.528,13.334,20.847,467.034,-1.233,1.161
1782115934.931775,1.044000,388524,1000,12,0,1,271.866,22.203,20.930,466.842,-1.077,1.170
1782115934.932775,1.045000,388525,1000,12,0,1,287.720,33.076,21.205,467.394,-0.727,1.166
1782115934.933775,1.046000,388526,1000,12,0,1,278.712,24.170,21.224,469.316,1.146,1.166
1782115934.934775,1.047000,388527,1000,12,0,1,269.152,7.263,21.003,469.916,1.656,1.182
1782115934.935775,1.048000,388528,1000,12,0,1,265.909,3.684,20.879,467.154,-0.758,1.173
1782115934.936775,1.049000,388529,1000,12,0,1,263.219,-1.353,20.876,466.505,-2.052,1.203
1782115934.937775,1.050000,388530,1000,12,0,1,263.459,-2.226,20.869,466.674,-1.174,1.208
1782115934.938775,1.051000,388531,1000,12,0,1,264.900,-1.809,20.870,466.914,-1.111,1.219
1782115934.939775,1.052000,388532,1000,12,0,1,263.603,-3.907,20.874,467.034,-0.621,1.221
1782115934.940775,1.053000,388533,1000,12,0,1,260.696,-7.126,20.858,466.145,-1.308,1.226
1782115934.941775,1.054000,388534,1000,12,0,1,255.676,-11.805,20.921,466.938,-0.760,1.190
1782115934.942775,1.055000,388535,1000,12,0,1,253.442,-13.467,21.002,469.172,1.451,1.181
1782115934.943775,1.056000,388536,1000,12,0,1,252.409,-12.918,21.067,468.547,1.067,1.163
1782115934.944775,1.057000,388537,1000,12,0,1,248.037,-14.612,21.165,467.298,-0.533,1.150
1782115934.945775,1.058000,388538,1000,12,0,1,252.890,-10.090,21.209,468.475,0.321,1.149
1782115934.946775,1.059000,388539,1000,12,0,1,260.360,-0.187,21.209,467.971,0.327,1.128
1782115934.947775,1.060000,388540,1000,12,0,1,251.737,-5.699,21.224,466.866,-1.066,1.135
1782115934.948775,1.061000,388541,1000,12,0,1,254.811,-5.159,21.214,468.595,0.421,1.121
1782115934.949775,1.062000,388542,1000,12,0,1,269.248,10.353,21.163,470.133,2.035,1.157
1782115934.950775,1.063000,388543,1000,12,0,1,266.726,9.479,21.095,468.403,0.488,1.158
1782115934.951775,1.064000,388544,1000,12,0,1,255.676,-2.283,21.077,467.562,-0.824,1.156
1782115934.952775,1.065000,388545,1000,12,0,1,253.514,-4.526,21.086,468.619,0.286,1.153
1782115934.953775,1.066000,388546,1000,12,0,1,261.681,3.235,21.089,469.676,1.232,1.104
1782115934.954775,1.067000,388547,1000,12,0,1,264.972,7.714,20.959,469.340,0.916,1.034
1782115934.955775,1.068000,388548,1000,12,0,1,259.447,1.836,20.258,467.755,-0.646,1.038
1782115934.956775,1.069000,388549,1000,12,0,1,248.494,-7.809,19.479,468.787,-0.178,1.035
1782115934.957775,1.070000,388550,1000,12,0,1,239.150,-15.784,19.296,468.067,-0.096,1.026
1782115934.958775,1.071000,388551,1000,12,0,1,231.031,-20.084,19.451,470.349,0.838,0.998
1782115934.959775,1.072000,388552,1000,12,0,1,223.464,-23.539,18.506,467.827,0.007,0.981
1782115934.960775,1.073000,388553,1000,12,0,1,231.367,-14.451,16.765,467.875,-1.726,0.969
1782115934.961775,1.074000,388554,1000,12,0,1,230.911,-8.127,15.575,466.986,-0.951,0.979
1782115934.962775,1.075000,388555,1000,12,0,1,235.403,-5.524,14.629,469.916,0.234,0.979
1782115934.963775,1.076000,388556,1000,12,0,1,232.904,-2.180,13.850,467.058,-0.364,0.978
1782115934.964775,1.077000,388557,1000,12,0,1,264.684,19.052,13.887,467.995,-1.629,1.000
1782115934.965775,1.078000,388558,1000,12,0,1,303.117,56.708,16.028,469.124,1.025,1.011
1782115934.966775,1.079000,388559,1000,12,0,1,296.439,45.497,17.254,468.739,-0.079,1.007
1782115934.967775,1.080000,388560,1000,12,0,1,285.942,24.044,17.525,468.547,-0.125,1.007
1782115934.968775,1.081000,388561,1000,12,0,1,276.094,13.115,17.546,468.115,-0.377,0.990
1782115934.969775,1.082000,388562,1000,12,0,1,277.271,6.957,17.485,467.298,-1.257,0.971
1782115934.970775,1.083000,388563,1000,12,0,1,284.405,14.030,17.559,468.956,0.330,0.971
1782115934.971775,1.084000,388564,1000,12,0,1,279.793,7.471,17.584,470.349,1.653,0.987
1782115934.972775,1.085000,388565,1000,12,0,1,269.728,-3.010,17.503,470.012,1.411,0.999
1782115934.973775,1.086000,388566,1000,12,0,1,261.537,-10.826,17.166,470.061,0.813,0.988
1782115934.974775,1.087000,388567,1000,12,0,1,257.430,-13.341,16.622,469.772,0.800,0.994
1782115934.975775,1.088000,388568,1000,12,0,1,254.187,-13.841,16.219,470.901,1.073,0.999
1782115934.976775,1.089000,388569,1000,12,0,1,254.955,-11.899,16.014,468.331,-0.375,0.994
1782115934.977775,1.090000,388570,1000,12,0,1,258.967,-6.209,15.953,468.427,-1.595,1.019
1782115934.978775,1.091000,388571,1000,12,0,1,261.153,-3.471,15.952,469.148,0.154,1.018
1782115934.979775,1.092000,388572,1000,12,0,1,255.484,-7.496,15.919,468.595,-0.749,1.011
1782115934.980775,1.093000,388573,1000,12,0,1,250.656,-12.718,15.909,469.436,0.014,0.996
1782115934.981775,1.094000,388574,1000,12,0,1,248.998,-12.817,15.701,469.340,0.200,0.985
1782115934.982775,1.095000,388575,1000,12,0,1,245.996,-14.250,15.123,468.211,-1.050,0.990
1782115934.983775,1.096000,388576,1000,12,0,1,245.828,-13.516,14.855,470.757,0.865,0.985
1782115934.984775,1.097000,388577,1000,12,0,1,262.210,0.594,14.820,469.676,0.694,0.961
1782115934.985775,1.098000,388578,1000,12,0,1,269.368,9.952,14.878,467.851,-1.783,0.988
1782115934.986775,1.099000,388579,1000,12,0,1,259.063,-1.095,14.877,468.595,-0.918,0.953
1782115934.987775,1.100000,388580,1000,12,0,1,251.593,-9.082,14.929,470.157,0.600,0.943
1782115934.988775,1.101000,388581,1000,12,0,1,261.249,-0.595,14.927,470.012,0.602,0.933
1782115934.989775,1.102000,388582,1000,12,0,1,267.134,7.690,14.957,469.076,-0.412,0.931
1782115934.990775,1.103000,388583,1000,12,0,1,258.318,0.258,14.923,468.499,-0.983,0.923
1782115934.991775,1.104000,388584,1000,12,0,1,254.187,-4.306,14.841,469.340,-0.193,0.917
1782115934.992775,1.105000,388585,1000,12,0,1,250.728,-3.945,14.729,471.382,1.582,0.922
1782115934.993775,1.106000,388586,1000,12,0,1,250.992,-3.237,14.623,468.835,-0.051,0.909
1782115934.994775,1.107000,388587,1000,12,0,1,246.068,-3.311,14.484,469.820,-0.531,0.909
1782115934.995775,1.108000,388588,1000,12,0,1,244.242,-5.066,14.431,470.781,1.493,0.932
1782115934.996775,1.109000,388589,1000,12,0,1,244.026,-1.743,14.433,470.205,0.245,0.932
1782115934.997775,1.110000,388590,1000,12,0,1,242.825,-1.993,14.413,469.772,0.034,0.919
1782115934.998775,1.111000,388591,1000,12,0,1,244.434,0.388,14.395,469.364,-0.475,0.920
1782115934.999775,1.112000,388592,1000,12,0,1,246.548,2.957,14.326,469.028,-0.723,0.880
1782115935.000775,1.113000,388593,1000,12,0,1,248.037,3.652,14.273,468.595,-0.933,0.887
1782115935.001775,1.114000,388594,1000,12,0,1,250.920,5.364,14.289,470.517,0.425,0.881
1782115935.002775,1.115000,388595,1000,12,0,1,256.949,8.722,14.328,471.334,1.709,0.913
1782115935.003775,1.116000,388596,1000,12,0,1,256.997,8.090,14.366,469.556,-0.302,0.897
1782115935.004775,1.117000,388597,1000,12,0,1,253.706,2.147,14.328,469.148,-0.926,0.897
1782115935.005775,1.118000,388598,1000,12,0,1,252.121,-0.308,14.326,472.102,1.446,0.916
1782115935.006775,1.119000,388599,1000,12,0,1,251.809,-1.387,14.285,471.670,1.660,0.945
1782115935.007775,1.120000,388600,1000,12,0,1,250.872,-1.916,14.112,468.811,-1.586,0.971
1782115935.008775,1.121000,388601,1000,12,0,1,251.641,-1.199,13.824,470.085,-0.818,0.971
1782115935.009775,1.122000,388602,1000,12,0,1,259.784,5.972,13.444,470.589,0.370,0.972
1782115935.010775,1.123000,388603,1000,12,0,1,265.933,12.537,13.405,471.742,0.698,0.946
1782115935.011775,1.124000,388604,1000,12,0,1,265.597,11.238,13.450,472.102,1.467,0.959
1782115935.012775,1.125000,388605,1000,12,0,1,259.159,5.246,13.448,470.181,-0.609,0.963
1782115935.013775,1.126000,388606,1000,12,0,1,253.274,-0.816,13.445,469.124,-1.689,0.991
1782115935.014775,1.127000,388607,1000,12,0,1,246.788,-4.984,13.191,471.382,0.223,0.964
1782115935.015775,1.128000,388608,1000,12,0,1,237.084,-11.894,10.607,472.439,1.663,0.982
1782115935.016775,1.129000,388609,1000,12,0,1,237.228,-10.821,8.571,470.877,0.029,0.982
1782115935.017775,1.130000,388610,1000,12,0,1,235.955,-7.589,7.940,471.069,-0.281,0.982
1782115935.018775,1.131000,388611,1000,12,0,1,236.628,-6.917,7.782,469.508,-1.010,0.991
1782115935.019775,1.132000,388612,1000,12,0,1,230.454,-8.715,7.818,470.493,-0.967,0.985
1782115935.020775,1.133000,388613,1000,12,0,1,244.747,0.235,7.562,471.238,0.634,0.988
1782115935.021775,1.134000,388614,1000,12,0,1,264.636,20.866,8.048,471.189,0.019,0.959
1782115935.022775,1.135000,388615,1000,12,0,1,254.811,10.795,8.181,469.076,-1.342,0.958
1782115935.023775,1.136000,388616,1000,12,0,1,261.105,7.511,8.106,468.427,-2.435,1.011
1782115935.024775,1.137000,388617,1000,12,0,1,269.104,16.503,8.222,468.956,-1.319,1.022
1782115935.025775,1.138000,388618,1000,12,0,1,274.580,14.403,8.241,470.637,0.120,1.011
1782115935.026775,1.139000,388619,1000,12,0,1,277.559,15.660,8.366,470.781,0.666,1.014
1782115935.027775,1.140000,388620,1000,12,0,1,271.890,6.545,8.371,469.436,-0.699,0.993
1782115935.028775,1.141000,388621,1000,12,0,1,265.933,-1.100,8.358,471.454,0.577,0.996
1782115935.029775,1.142000,388622,1000,12,0,1,265.452,-2.393,8.297,472.006,1.806,1.023
1782115935.030775,1.143000,388623,1000,12,0,1,263.579,-3.081,8.112,469.700,-0.766,1.029
1782115935.031775,1.144000,388624,1000,12,0,1,258.174,-6.671,7.963,470.469,-0.399,1.030
1782115935.032775,1.145000,388625,1000,12,0,1,250.872,-11.479,7.873,470.229,0.020,1.019
1782115935.033775,1.146000,388626,1000,12,0,1,255.196,-6.492,7.692,470.661,-0.094,1.012
1782115935.034775,1.147000,388627,1000,12,0,1,272.418,10.438,7.832,470.229,0.117,1.007
1782115935.035775,1.148000,388628,1000,12,0,1,274.628,14.912,7.988,467.274,-2.465,1.036
1782115935.036775,1.149000,388629,1000,12,0,1,269.824,6.607,8.041,466.265,-3.327,1.130
1782115935.037775,1.150000,388630,1000,12,0,1,267.134,3.367,7.952,468.259,-0.963,1.135
1782115935.038775,1.151000,388631,1000,12,0,1,266.341,0.424,7.952,470.229,1.257,1.146
1782115935.039775,1.152000,388632,1000,12,0,1,265.236,-1.397,7.879,470.637,1.736,1.170
1782115935.040775,1.153000,388633,1000,12,0,1,268.671,-0.848,7.880,471.117,1.756,1.188
1782115935.041775,1.154000,388634,1000,12,0,1,273.187,2.004,7.862,471.502,1.998,1.221
1782115935.042775,1.155000,388635,1000,12,0,1,272.491,-0.561,7.842,471.021,1.233,1.213
1782115935.043775,1.156000,388636,1000,12,0,1,268.767,-6.179,7.878,470.253,0.300,1.214
1782115935.044775,1.157000,388637,1000,12,0,1,269.536,-7.254,7.930,470.661,0.342,1.212
1782115935.045775,1.158000,388638,1000,12,0,1,270.160,-6.747,7.955,470.373,0.258,1.194
1782115935.046775,1.159000,388639,1000,12,0,1,267.254,-9.338,8.060,469.676,-0.616,1.197
1782115935.047775,1.160000,388640,1000,12,0,1,262.906,-12.642,8.251,470.301,-0.131,1.197
1782115935.048775,1.161000,388641,1000,12,0,1,259.303,-14.098,8.489,470.541,0.289,1.196
1782115935.049775,1.162000,388642,1000,12,0,1,258.270,-12.751,8.668,469.796,-0.443,1.193
1782115935.050775,1.163000,388643,1000,12,0,1,255.412,-11.568,8.806,471.478,0.718,1.190
1782115935.051775,1.164000,388644,1000,12,0,1,260.216,-5.819,8.812,471.189,1.033,1.198
1782115935.052775,1.165000,388645,1000,12,0,1,264.732,2.392,8.731,471.262,0.336,1.174
1782115935.053775,1.166000,388646,1000,12,0,1,265.500,3.864,8.673,471.189,0.646,1.177
1782115935.054775,1.167000,388647,1000,12,0,1,263.363,3.417,8.682,471.598,0.530,1.172
1782115935.055775,1.168000,388648,1000,12,0,1,262.378,2.465,8.688,470.085,-0.372,1.155
1782115935.056775,1.169000,388649,1000,12,0,1,264.468,4.652,8.711,467.202,-3.082,1.212
1782115935.057775,1.170000,388650,1000,12,0,1,271.241,9.841,8.817,470.565,-0.549,1.194
1782115935.058775,1.171000,388651,1000,12,0,1,276.622,13.617,9.024,471.622,1.837,1.216
1782115935.059775,1.172000,388652,1000,12,0,1,278.135,12.291,9.151,471.910,0.908,1.222
1782115935.060775,1.173000,388653,1000,12,0,1,279.625,10.081,9.090,472.991,2.168,1.256
1782115935.061775,1.174000,388654,1000,12,0,1,280.129,7.748,9.017,472.391,1.157,1.249
1782115935.062775,1.175000,388655,1000,12,0,1,279.793,4.100,9.005,471.358,-0.082,1.246
1782115935.063775,1.176000,388656,1000,12,0,1,280.153,1.970,9.008,470.901,-0.675,1.227
1782115935.064775,1.177000,388657,1000,12,0,1,279.432,-0.634,8.981,472.943,0.747,1.231
1782115935.065775,1.178000,388658,1000,12,0,1,280.393,-1.574,8.825,473.832,1.884,1.238
1782115935.066775,1.179000,388659,1000,12,0,1,282.411,-0.551,8.692,472.391,0.074,1.238
1782115935.067775,1.180000,388660,1000,12,0,1,277.895,-4.294,8.646,470.877,-1.423,1.253
1782115935.068775,1.181000,388661,1000,12,0,1,273.403,-8.938,8.683,471.814,-0.882,1.251
1782115935.069775,1.182000,388662,1000,12,0,1,274.652,-6.610,8.646,472.294,0.060,1.244
1782115935.070775,1.183000,388663,1000,12,0,1,271.434,-6.812,8.700,470.781,-1.330,1.255
1782115935.071775,1.184000,388664,1000,12,0,1,269.776,-7.617,8.255,471.478,-0.974,1.262
1782115935.072775,1.185000,388665,1000,12,0,1,271.410,-3.603,8.128,472.967,0.782,1.253
1782115935.073775,1.186000,388666,1000,12,0,1,269.704,-3.151,8.071,472.799,0.590,1.207
1782115935.074775,1.187000,388667,1000,12,0,1,266.437,-4.830,7.756,474.048,1.245,1.206
1782115935.075775,1.188000,388668,1000,12,0,1,264.972,-4.867,7.515,473.279,0.912,1.213
1782115935.076775,1.189000,388669,1000,12,0,1,266.101,-2.871,7.193,472.631,-0.406,1.210
1782115935.077775,1.190000,388670,1000,12,0,1,266.245,-1.661,7.137,471.238,-1.198,1.218
1782115935.078775,1.191000,388671,1000,12,0,1,266.942,-1.387,7.138,470.901,-1.889,1.244
1782115935.079775,1.192000,388672,1000,12,0,1,267.206,-1.011,7.132,471.478,-0.906,1.225
1782115935.080775,1.193000,388673,1000,12,0,1,268.959,-0.575,7.119,473.063,0.374,1.221
1782115935.081775,1.194000,388674,1000,12,0,1,268.575,-0.988,7.057,473.279,0.845,1.225
1782115935.082775,1.195000,388675,1000,12,0,1,268.863,-2.246,6.875,472.487,-0.187,1.226
1782115935.083775,1.196000,388676,1000,12,0,1,265.380,-4.828,6.848,470.109,-2.115,1.262
1782115935.084775,1.197000,388677,1000,12,0,1,264.612,-6.713,6.754,472.463,-0.707,1.265
1782115935.085775,1.198000,388678,1000,12,0,1,261.345,-7.563,6.505,470.901,-0.593,1.219
1782115935.086775,1.199000,388679,1000,12,0,1,259.663,-8.946,6.561,471.141,-1.674,1.150
1782115935.087775,1.200000,388680,1000,12,0,1,258.342,-7.371,6.626,472.126,0.318,1.142
1782115935.088775,1.201000,388681,1000,12,0,1,247.749,-13.474,6.894,471.358,-0.601,1.132
1782115935.089775,1.202000,388682,1000,12,0,1,241.792,-17.043,7.301,469.484,-1.976,1.140
1782115935.090775,1.203000,388683,1000,12,0,1,235.451,-16.241,7.652,470.517,-1.207,1.125
1782115935.091775,1.204000,388684,1000,12,0,1,232.352,-15.698,7.963,472.318,0.938,1.097
1782115935.092775,1.205000,388685,1000,12,0,1,245.683,0.166,7.963,472.222,1.050,1.093
1782115935.093775,1.206000,388686,1000,12,0,1,270.881,24.874,8.661,471.141,-0.160,1.093
1782115935.094775,1.207000,388687,1000,12,0,1,298.793,48.115,10.966,469.532,-1.286,1.107
1782115935.095775,1.208000,388688,1000,12,0,1,313.278,56.503,13.535,472.391,0.596,1.109
1782115935.096775,1.209000,388689,1000,12,0,1,311.092,45.849,14.950,471.790,1.466,1.125
1782115935.097775,1.210000,388690,1000,12,0,1,317.697,40.450,15.907,470.613,-0.785,1.130
1782115935.098775,1.211000,388691,1000,12,0,1,322.862,38.530,16.696,471.790,0.739,1.135
1782115935.099775,1.212000,388692,1000,12,0,1,314.190,22.408,16.898,472.030,0.918,1.140
1782115935.100775,1.213000,388693,1000,12,0,1,295.815,-0.195,16.818,472.102,0.766,1.141
1782115935.101775,1.214000,388694,1000,12,0,1,275.781,-21.606,17.074,472.198,0.831,1.138
1782115935.102775,1.215000,388695,1000,12,0,1,265.981,-30.995,17.624,472.559,0.827,1.143
1782115935.103775,1.216000,388696,1000,12,0,1,261.657,-31.083,18.156,470.997,-0.257,1.139
1782115935.104775,1.217000,388697,1000,12,0,1,260.216,-29.157,18.612,471.454,-0.596,1.140
1782115935.105775,1.218000,388698,1000,12,0,1,260.072,-24.591,18.931,472.607,1.003,1.148
1782115935.106775,1.219000,388699,1000,12,0,1,261.921,-19.566,19.121,471.718,0.044,1.062
1782115935.107775,1.220000,388700,1000,12,0,1,256.493,-19.281,19.264,471.069,-0.688,1.063
1782115935.108775,1.221000,388701,1000,12,0,1,244.723,-26.427,19.529,469.556,-1.677,1.058
1782115935.109775,1.222000,388702,1000,12,0,1,262.690,-10.140,19.504,471.430,-0.494,1.053
1782115935.110775,1.223000,388703,1000,12,0,1,288.704,18.868,19.634,470.949,0.269,1.008
1782115935.111775,1.224000,388704,1000,12,0,1,286.350,17.133,19.752,469.628,-1.584,1.019
1782115935.112775,1.225000,388705,1000,12,0,1,281.258,7.556,19.773,471.021,-0.034,1.019
1782115935.113775,1.226000,388706,1000,12,0,1,277.343,4.027,19.779,472.943,1.793,1.046
1782115935.114775,1.227000,388707,1000,12,0,1,275.397,-0.053,19.779,470.637,0.129,1.041
1782115935.115775,1.228000,388708,1000,12,0,1,277.295,1.739,19.779,472.102,0.278,1.007
1782115935.116775,1.229000,388709,1000,12,0,1,274.652,-0.534,19.779,473.784,2.591,1.071
1782115935.117775,1.230000,388710,1000,12,0,1,271.025,-4.444,19.780,473.087,1.378,1.070
1782115935.118775,1.231000,388711,1000,12,0,1,270.689,-4.320,19.749,471.910,0.097,1.063
1782115935.119775,1.232000,388712,1000,12,0,1,271.386,-3.018,19.731,471.766,-0.272,1.064
1782115935.120775,1.233000,388713,1000,12,0,1,272.034,-1.719,19.709,469.004,-2.245,1.094
1782115935.121775,1.234000,388714,1000,12,0,1,272.659,-0.737,19.680,468.956,-2.761,1.153
1782115935.122775,1.235000,388715,1000,12,0,1,272.394,-0.336,19.674,469.820,-1.048,1.158
1782115935.123775,1.236000,388716,1000,12,0,1,273.259,0.454,19.669,471.958,0.654,1.158
1782115935.124775,1.237000,388717,1000,12,0,1,272.779,0.858,19.657,472.126,1.374,1.161
1782115935.125775,1.238000,388718,1000,12,0,1,275.085,2.290,19.648,471.069,-0.003,1.154
1782115935.126775,1.239000,388719,1000,12,0,1,275.685,3.772,19.651,471.262,0.022,1.153
1782115935.127775,1.240000,388720,1000,12,0,1,275.877,2.969,19.654,473.063,1.573,1.162
1782115935.128775,1.241000,388721,1000,12,0,1,269.800,-1.332,19.654,473.015,1.606,1.153
1782115935.129775,1.242000,388722,1000,12,0,1,266.077,-5.826,19.671,472.439,0.639,1.149
1782115935.130775,1.243000,388723,1000,12,0,1,260.864,-8.036,19.703,470.757,-0.786,1.154
1782115935.131775,1.244000,388724,1000,12,0,1,253.514,-13.545,19.796,471.910,-0.290,1.148
1782115935.132775,1.245000,388725,1000,12,0,1,247.317,-16.448,19.929,471.790,0.336,1.149
1782115935.133775,1.246000,388726,1000,12,0,1,243.522,-16.786,20.059,471.382,-0.532,1.112
1782115935.134775,1.247000,388727,1000,12,0,1,239.270,-16.805,20.177,471.694,-0.033,1.107
1782115935.135775,1.248000,388728,1000,12,0,1,230.574,-20.128,20.348,471.406,-0.212,1.104
1782115935.136775,1.249000,388729,1000,12,0,1,231.703,-16.889,20.449,471.286,-0.433,1.080
1782115935.137775,1.250000,388730,1000,12,0,1,237.060,-6.572,20.443,470.973,-0.447,1.081
1782115935.138775,1.251000,388731,1000,12,0,1,242.104,-0.151,20.354,471.358,-0.315,1.079
1782115935.139775,1.252000,388732,1000,12,0,1,236.099,-1.617,20.212,468.499,-2.019,1.081
1782115935.140775,1.253000,388733,1000,12,0,1,221.783,-13.195,20.168,468.475,-2.819,1.139
1782115935.141775,1.254000,388734,1000,12,0,1,210.829,-19.650,20.237,471.550,0.828,1.137
1782115935.142775,1.255000,388735,1000,12,0,1,215.225,-12.411,20.313,471.430,1.034,1.137
1782115935.143775,1.256000,388736,1000,12,0,1,235.186,9.107,20.048,470.133,-0.456,1.139
1782115935.144775,1.257000,388737,1000,12,0,1,266.702,37.508,19.589,471.502,0.558,1.127
1782115935.145775,1.258000,388738,1000,12,0,1,287.840,54.752,19.490,471.598,1.032,1.133
1782115935.146775,1.259000,388739,1000,12,0,1,291.491,51.038,19.746,471.454,0.436,1.116
1782115935.147775,1.260000,388740,1000,12,0,1,287.383,39.241,19.697,472.174,1.039,1.120
1782115935.148775,1.261000,388741,1000,12,0,1,281.282,27.176,19.315,470.301,-0.366,1.116
1782115935.149775,1.262000,388742,1000,12,0,1,274.508,15.942,19.186,469.580,-1.569,1.130
1782115935.150775,1.263000,388743,1000,12,0,1,270.929,9.173,19.230,470.661,-0.126,1.125
1782115935.151775,1.264000,388744,1000,12,0,1,269.872,6.080,19.005,470.613,0.006,1.119
1782115935.152775,1.265000,388745,1000,12,0,1,269.272,4.177,18.502,471.550,0.644,1.117
1782115935.153775,1.266000,388746,1000,12,0,1,274.100,6.291,17.994,470.157,-0.040,1.116
1782115935.154775,1.267000,388747,1000,12,0,1,270.064,3.362,17.522,470.229,-0.660,1.117
1782115935.155775,1.268000,388748,1000,12,0,1,261.489,-6.864,17.200,471.934,1.330,1.124
1782115935.156775,1.269000,388749,1000,12,0,1,245.035,-19.413,17.197,471.214,0.781,1.129
1782115935.157775,1.270000,388750,1000,12,0,1,235.739,-28.128,17.439,468.787,-1.484,1.144
1782115935.158775,1.271000,388751,1000,12,0,1,233.745,-25.031,17.398,469.460,-1.145,1.131
1782115935.159775,1.272000,388752,1000,12,0,1,221.206,-30.958,17.883,469.796,-0.109,1.129
1782115935.160775,1.273000,388753,1000,12,0,1,216.378,-33.077,18.291,470.685,0.336,1.130
1782115935.161775,1.274000,388754,1000,12,0,1,221.014,-22.545,18.408,469.748,0.071,1.107
1782115935.162775,1.275000,388755,1000,12,0,1,212.054,-24.511,18.701,469.100,-0.984,1.116
1782115935.163775,1.276000,388756,1000,12,0,1,196.273,-34.514,19.319,470.637,0.517,1.089
1782115935.164775,1.277000,388757,1000,12,0,1,195.792,-30.576,19.797,471.478,1.470,1.109
1782115935.165775,1.278000,388758,1000,12,0,1,201.509,-17.768,19.954,470.277,0.239,1.108
1782115935.166775,1.279000,388759,1000,12,0,1,213.856,-3.459,19.960,469.652,-0.551,1.049
1782115935.167775,1.280000,388760,1000,12,0,1,227.812,12.904,20.034,469.076,-0.883,1.038
1782115935.168775,1.281000,388761,1000,12,0,1,235.427,20.124,20.226,469.196,-0.766,1.044
1782115935.169775,1.282000,388762,1000,12,0,1,221.639,9.488,20.266,471.622,1.310,1.059
1782115935.170775,1.283000,388763,1000,12,0,1,210.974,-2.825,20.268,470.157,0.761,1.016
1782115935.171775,1.284000,388764,1000,12,0,1,229.950,14.163,20.367,469.436,-0.874,0.947
1782115935.172775,1.285000,388765,1000,12,0,1,275.109,53.250,21.714,469.028,-0.440,0.937
1782115935.173775,1.286000,388766,1000,12,0,1,304.582,77.139,24.300,469.100,-0.717,0.938
1782115935.174775,1.287000,388767,1000,12,0,1,302.636,65.510,26.006,469.988,0.475,0.920
1782115935.175775,1.288000,388768,1000,12,0,1,287.503,40.683,26.633,467.827,-1.007,0.931
1782115935.176775,1.289000,388769,1000,12,0,1,277.991,23.445,26.833,468.355,-1.172,0.946
1782115935.177775,1.290000,388770,1000,12,0,1,269.560,11.420,26.879,470.709,1.671,0.949
1782115935.178775,1.291000,388771,1000,12,0,1,267.446,5.074,26.888,469.100,0.416,0.923
1782115935.179775,1.292000,388772,1000,12,0,1,271.338,6.412,26.890,467.947,-1.080,0.931
1782115935.180775,1.293000,388773,1000,12,0,1,271.530,4.874,26.875,469.052,0.086,0.925
1782115935.181775,1.294000,388774,1000,12,0,1,266.029,-2.542,26.809,468.715,0.149,0.924
1782115935.182775,1.295000,388775,1000,12,0,1,262.474,-7.901,26.731,467.106,-1.342,0.942
1782115935.183775,1.296000,388776,1000,12,0,1,262.017,-9.439,26.659,467.562,-1.001,0.950
1782115935.184775,1.297000,388777,1000,12,0,1,262.618,-9.610,26.588,466.265,-1.357,0.969
1782115935.185775,1.298000,388778,1000,12,0,1,257.934,-13.826,26.507,467.298,-0.971,0.978
1782115935.186775,1.299000,388779,1000,12,0,1,254.571,-17.873,26.520,468.884,1.270,0.993
1782115935.187775,1.300000,388780,1000,12,0,1,252.601,-18.544,26.633,466.025,-1.024,1.001
1782115935.188775,1.301000,388781,1000,12,0,1,249.022,-20.616,26.792,467.875,-0.314,1.001
1782115935.189775,1.302000,388782,1000,12,0,1,247.773,-20.484,26.948,468.187,1.403,0.980
1782115935.190775,1.303000,388783,1000,12,0,1,241.120,-22.863,27.077,467.875,0.149,0.895
1782115935.191775,1.304000,388784,1000,12,0,1,234.105,-27.154,27.206,466.289,-0.395,0.890
1782115935.192775,1.305000,388785,1000,12,0,1,229.109,-26.757,27.412,466.722,-0.719,0.883
1782115935.193775,1.306000,388786,1000,12,0,1,225.290,-25.611,27.620,466.578,0.143,0.881
1782115935.194775,1.307000,388787,1000,12,0,1,219.357,-24.815,27.332,465.665,-0.873,0.886
1782115935.195775,1.308000,388788,1000,12,0,1,216.859,-22.237,26.400,466.073,-0.282,0.875
1782115935.196775,1.309000,388789,1000,12,0,1,214.457,-17.725,25.518,465.641,-0.135,0.873
1782115935.197775,1.310000,388790,1000,12,0,1,212.175,-14.773,24.995,466.554,0.333,0.862
1782115935.198775,1.311000,388791,1000,12,0,1,216.378,-6.621,24.715,464.632,-0.334,0.862
1782115935.199775,1.312000,388792,1000,12,0,1,212.799,-3.835,24.618,465.737,-0.435,0.835
1782115935.200775,1.313000,388793,1000,12,0,1,209.652,-5.205,24.595,465.953,1.130,0.850
1782115935.201775,1.314000,388794,1000,12,0,1,206.962,-2.971,24.583,466.554,0.714,0.856
1782115935.202775,1.315000,388795,1000,12,0,1,203.071,-4.272,24.584,466.818,1.583,0.880
1782115935.203775,1.316000,388796,1000,12,0,1,203.767,-1.105,24.568,465.833,0.303,0.881
1782115935.204775,1.317000,388797,1000,12,0,1,199.155,-1.626,24.565,464.608,-0.725,0.882
1782115935.205775,1.318000,388798,1000,12,0,1,189.835,-8.173,24.573,464.392,-0.890,0.871
1782115935.206775,1.319000,388799,1000,12,0,1,177.897,-14.948,24.510,461.317,-2.876,0.955
1782115935.207775,1.320000,388800,1000,12,0,1,163.148,-23.673,24.416,463.407,-1.656,0.960
1782115935.208775,1.321000,388801,1000,12,0,1,122.914,-49.064,25.135,462.782,-0.344,0.948
1782115935.209775,1.322000,388802,1000,12,0,1,122.914,-48.101,25.668,462.782,-1.211,0.963
1782115935.210775,1.323000,388803,1000,12,0,1,105.955,-39.959,25.863,462.446,-0.324,0.963
1782115935.211775,1.324000,388804,1000,12,0,1,87.195,-53.016,26.739,461.533,-1.242,0.979
1782115935.212775,1.325000,388805,1000,12,0,1,75.497,-44.991,27.266,459.275,-2.464,1.030
1782115935.213775,1.326000,388806,1000,12,0,1,85.009,-28.062,27.117,458.939,-2.594,1.091
1782115935.214775,1.327000,388807,1000,12,0,1,122.121,16.163,26.868,461.245,0.079,1.071
1782115935.215775,1.328000,388808,1000,12,0,1,165.839,60.462,28.083,458.411,-1.028,1.080
1782115935.216775,1.329000,388809,1000,12,0,1,190.748,80.801,30.315,461.245,0.045,1.077
1782115935.217775,1.330000,388810,1000,12,0,1,201.221,82.321,32.422,461.509,2.603,1.131
1782115935.218775,1.331000,388811,1000,12,0,1,203.984,74.014,33.951,460.020,-0.108,1.126
1782115935.219775,1.332000,388812,1000,12,0,1,186.833,52.125,34.716,459.972,0.653,1.115
1782115935.220775,1.333000,388813,1000,12,0,1,144.749,7.993,34.732,457.786,-1.097,1.120
1782115935.221775,1.334000,388814,1000,12,0,1,100.767,-31.878,34.966,458.098,-1.010,1.123
1782115935.222775,1.335000,388815,1000,12,0,1,78.235,-47.711,34.806,458.314,0.237,1.122
1782115935.223775,1.336000,388816,1000,12,0,1,93.777,-25.749,33.252,457.450,-0.623,1.120
1782115935.224775,1.337000,388817,1000,12,0,1,113.450,3.102,31.939,458.939,0.957,1.127
1782115935.225775,1.338000,388818,1000,12,0,1,125.580,17.236,31.511,458.459,1.119,1.129
1782115935.226775,1.339000,388819,1000,12,0,1,123.178,18.367,31.443,459.227,1.309,1.132
1782115935.227775,1.340000,388820,1000,12,0,1,95.794,-4.153,31.407,457.185,0.414,1.108
1782115935.228775,1.341000,388821,1000,12,0,1,62.358,-32.176,31.727,455.504,-1.671,1.132
1782115935.229775,1.342000,388822,1000,12,0,1,33.028,-50.251,32.500,455.216,-1.107,1.132
1782115935.230775,1.343000,388823,1000,12,0,1,5.861,-63.458,33.710,456.489,0.152,1.132
1782115935.231775,1.344000,388824,1000,12,0,1,-16.238,-69.097,35.096,456.537,0.943,1.140
1782115935.232775,1.345000,388825,1000,12,0,1,-15.301,-55.324,35.940,455.840,0.290,1.125
1782115935.233775,1.346000,388826,1000,12,0,1,-17.031,-38.581,36.327,454.063,-0.845,1.122
1782115935.234775,1.347000,388827,1000,12,0,1,-5.020,-20.183,36.414,455.576,0.249,1.106
1782115935.235775,1.348000,388828,1000,12,0,1,51.957,36.555,36.727,454.928,0.793,1.103
1782115935.236775,1.349000,388829,1000,12,0,1,126.469,104.135,39.489,453.678,-0.716,1.093
1782115935.237775,1.350000,388830,1000,12,0,1,152.747,122.277,43.029,453.054,-0.704,1.088
1782115935.238775,1.351000,388831,1000,12,0,1,150.081,100.326,45.214,452.381,-0.972,1.096
1782115935.239775,1.352000,388832,1000,12,0,1,167.688,97.193,47.168,453.222,-0.064,1.078
