Unix_Time_s,RelativeTime_s,P_1,P_2,P_3,P_4,P_5,P_6,P_7,P_8,P_9,P_10,P_11,P_12,P_13,P_14,P_15,P_16,P_17,P_18,P_19,P_20,P_21,P_22,P_23,P_24,P_25,P_26,P_27,P_28,P_29,P_30,P_31,P_32,P_33,P_34,P_35,P_36,P_37,P_38,P_39,P_40,P_41,P_42,P_43,P_44,P_45,P_46,P_47,P_48,P_49,P_50,P_51,P_52,P_53,P_54,P_55,P_56,P_57,P_58,P_59,P_60,P_61,P_62,P_63,P_64,P_65,P_66,P_67,P_68,P_69,P_70,P_71,P_72,P_73,P_74,P_75,P_76,P_77,P_78,P_79,P_80,P_81,P_82,P_83,P_84,P_85,P_86,P_87,P_88,P_89,P_90,P_91,P_92,P_93,P_94,P_95,P_96,P_97,P_98,P_99,P_100,P_101,P_102,P_103,P_104,P_105,P_106,P_107,P_108,P_109,P_110,P_111,P_112,P_113,P_114,P_115,P_116,P_117,P_118,P_119,P_120,P_121,P_122,P_123,P_124,P_125,P_126,P_127,P_128,P_129,P_130,P_131,P_132,P_133,P_134,P_135,P_136,P_137,P_138,P_139,P_140,P_141,P_142,P_143,P_144,P_145,P_146,P_147,P_148,P_149,P_150,P_151,P_152,P_153,P_154,P_155,P_156,P_157,P_158,P_159,P_160,P_161,P_162,P_163,P_164,P_165,P_166,P_167,P_168,P_169,P_170,P_171,P_172,P_173,P_174,P_175,P_176,P_177,P_178,P_179,P_180,P_181,P_182,P_183,P_184,P_185,P_186,P_187,P_188,P_189,P_190,P_191,P_192,P_193,P_194,P_195,P_196,P_197,P_198,P_199,P_200,P_201,P_202,P_203,P_204,P_205,P_206,P_207,P_208,P_209,P_210,P_211,P_212,P_213,P_214,P_215,P_216,P_217,P_218,P_219,P_220,P_221,P_222,P_223,P_224,P_225,P_226,P_227,P_228,P_229,P_230,P_231,P_232,P_233,Flex1,Flex2,Bat,IMU1_RefTime,IMU1_Ax,IMU1_Ay,IMU1_Az,IMU1_Wx,IMU1_Wy,IMU1_Wz,IMU1_Roll,IMU1_Pitch,IMU1_Yaw,IMU1_Hx,IMU1_Hy,IMU1_Hz,IMU1_Q0,IMU1_Q1,IMU1_Q2,IMU1_Q3,IMU2_RefTime,IMU2_Ax,IMU2_Ay,IMU2_Az,IMU2_Wx,IMU2_Wy,IMU2_Wz,IMU2_Roll,IMU2_Pitch,IMU2_Yaw,IMU2_Hx,IMU2_Hy,IMU2_Hz,IMU2_Q0,IMU2_Q1,IMU2_Q2,IMU2_Q3,IMU1_FusedRoll,IMU1_FusedPitch,IMU1_FusedYaw,IMU1_FusedQ0,IMU1_FusedQ1,IMU1_FusedQ2,IMU1_FusedQ3,IMU1_MagValid,IMU2_FusedRoll,IMU2_FusedPitch,IMU2_FusedYaw,IMU2_FusedQ0,IMU2_FusedQ1,IMU2_FusedQ2,IMU2_FusedQ3,IMU2_MagValid
1782115933.904645,0.017,1024.0,1022.0,1022.0,1023.0,1023.0,1022.0,1023.0,1023.0,1022.0,1024.0,1022.0,1022.0,1023.0,1023.0,1023.0,1023.0,1023.0,1023.0,1023.0,1023.0,1023.0,1022.0,1024.0,1022.0,1024.0,1023.0,1023.0,1023.0,1023.0,1023.0,1024.0,1023.0,1022.0,1024.0,1023.0,1023.0,1023.0,1024.0,1023.0,1024.0,1023.0,1023.0,1024.0,1023.0,1022.0,1023.0,1023.0,1023.0,1024.0,1022.0,1022.0,1024.0,1023.0,1024.0,1023.0,1023.0,1023.0,1023.0,1024.0,1022.0,1022.0,1023.0,1023.0,1023.0,1023.0,1023.0,1023.0,1023.0,1023.0,1022.0,1022.0,1023.0,1023.0,1023.0,1023.0,1023.0,1023.0,1023.0,1024.0,1022.0,1023.0,1023.0,1023.0,1024.0,1023.0,1023.0,1023.0,1023.0,1024.0,1022.0,1023.0,1023.0,1023.0,1024.0,1023.0,1023.0,1024.0,1023.0,1024.0,1023.0,1022.0,1023.0,1023.0,1024.0,1023.0,1024.0,1024.0,1023.0,1024.0,1023.0,1023.0,1023.0,1023.0,1024.0,1022.0,1023.0,1023.0,1022.0,1024.0,1021.0,1022.0,1023.0,1024.0,1023.0,1022.0,1023.0,1023.0,1024.0,1022.0,1023.0,1024.0,1022.0,1023.0,1024.0,1023.0,1024.0,1024.0,1024.0,1024.0,1024.0,1024.0,1024.0,1025.0,1024.0,1024.0,1024.0,1024.0,1025.0,1025.0,1026.0,1024.0,1025.0,1024.0,1024.0,1025.0,1024.0,1025.0,1025.0,1025.0,1026.0,1027.0,1026.0,1025.0,1026.0,1024.0,1027.0,1028.0,1026.0,1027.0,1028.0,1026.0,1028.0,1031.0,1026.0,1028.0,1028.0,1027.0,1026.0,1030.0,1026.0,1028.0,1028.0,1027.0,1025.0,1030.0,1025.0,1029.0,1028.0,1027.0,1026.0,1029.0,1025.0,1032.0,1034.0,1033.0,1029.0,1032.0,1026.0,1030.0,1030.0,1027.0,1026.0,1028.0,1024.0,1033.0,1031.0,1028.0,1026.0,1028.0,1025.0,1025.0,1023.0,1022.0,1022.0,1023.0,1022.0,1039.0,1032.0,1029.0,1027.0,1028.0,1025.0,1033.0,1028.0,1026.0,1025.0,1026.0,1024.0,1028.0,1025.0,1024.0,1023.0,1025.0,1940,1914,1906,	00:07:06.664,0.05078125,0.06640625,1.01513671875,-2.99072265625,0.42724609375,0.3662109375,3.6419677734375,-2.8179931640625,-85.6878662109375,580.0,-1373.0,-2847.0,0.733154296875,0.006561279296875,-0.039642333984375,-0.678863525390625,3.64175347733205,-2.820547244648227,-84.25820911385145,0.7415607521037247,0.00705718203586799,-0.039551773706858355,-0.6696816440053527,1,	00:07:06.665,0.07666015625,0.0185546875,1.0,0.732421875,2.197265625,-0.3662109375,0.999755859375,-4.39453125,29.5477294921875,-157.0,-918.0,-2030.0,-0.966094970703125,-0.018218994140625,0.034820556640625,-0.255126953125,1.0021265524831267,-4.391848424013148,32.54577133319522,-0.9591024953272258,-0.01912499541351681,0.03433159017954703,-0.2803176411203289,1
1782115933.912737,0.025,1024.0,1023.0,1023.0,1023.0,1023.0,1023.0,1023.0,1023.0,1022.0,1024.0,1023.0,1023.0,1023.0,1023.0,1022.0,1023.0,1024.0,1023.0,1023.0,1023.0,1023.0,1023.0,1024.0,1023.0,1023.0,1023.0,1023.0,1023.0,1023.0,1023.0,1024.0,1023.0,1022.0,1023.0,1023.0,1023.0,1023.0,1023.0,1022.0,1024.0,1022.0,1022.0,1024.0,1023.0,1022.0,1023.0,1023.0,1023.0,1023.0,1022.0,1023.0,1023.0,1024.0,1023.0,1023.0,1023.0,1023.0,1023.0,1024.0,1022.0,1022.0,1023.0,1023.0,1023.0,1023.0,1023.0,1024.0,1022.0,1023.0,1022.0,1022.0,1023.0,1023.0,1023.0,1023.0,1023.0,1023.0,1022.0,1024.0,1022.0,1022.0,1024.0,1024.0,1024.0,1023.0,1023.0,1023.0,1023.0,1024.0,1023.0,1022.0,1023.0,1023.0,1024.0,1023.0,1023.0,1024.0,1023.0,1024.0,1024.0,1022.0,1023.0,1024.0,1024.0,1023.0,1023.0,1024.0,1023.0,1025.0,1023.0,1023.0,1023.0,1023.0,1023.0,1022.0,1022.0,1023.0,1022.0,1024.0,1021.0,1022.0,1024.0,1023.0,1023.0,1023.0,1023.0,1023.0,1024.0,1022.0,1024.0,1023.0,1023.0,1023.0,1024.0,1023.0,1025.0,1024.0,1024.0,1023.0,1024.0,1025.0,1024.0,1027.0,1024.0,1024.0,1024.0,1024.0,1024.0,1024.0,1026.0,1024.0,1024.0,1024.0,1024.0,1026.0,1025.0,1025.0,1025.0,1025.0,1026.0,1028.0,1025.0,1026.0,1025.0,1026.0,1026.0,1029.0,1025.0,1027.0,1027.0,1027.0,1028.0,1031.0,1026.0,1027.0,1027.0,1027.0,1027.0,1031.0,1025.0,1028.0,1028.0,1027.0,1025.0,1030.0,1024.0,1028.0,1029.0,1027.0,1026.0,1029.0,1024.0,1033.0,1034.0,1033.0,1030.0,1033.0,1025.0,1031.0,1029.0,1028.0,1026.0,1028.0,1024.0,1034.0,1031.0,1028.0,1027.0,1029.0,1024.0,1025.0,1023.0,1022.0,1022.0,1023.0,1021.0,1038.0,1033.0,1029.0,1026.0,1028.0,1025.0,1033.0,1029.0,1027.0,1025.0,1026.0,1024.0,1028.0,1024.0,1024.0,1024.0,1025.0,1938,1914,1905,	00:07:06.674,0.0498046875,0.06591796875,1.015625,-2.74658203125,0.3662109375,0.42724609375,3.702392578125,-2.7960205078125,-85.6878662109375,580.0,-1372.0,-2847.0,0.733154296875,0.007110595703125,-0.039825439453125,-0.678863525390625,3.7026825763675677,-2.793721512669481,-84.25805372821196,0.7415569817123143,0.007608570235381336,-0.039734483135439515,-0.6696689655215142,1,	00:07:06.675,0.07568359375,0.0185546875,1.0,0.244140625,2.44140625,-0.3662109375,1.065673828125,-4.3011474609375,29.5367431640625,-155.0,-919.0,-2028.0,-0.966156005859375,-0.0185546875,0.033905029296875,-0.25506591796875,1.06775603579751,-4.300667547698248,32.53775946886463,-0.9591420211004344,-0.01944943263244231,0.033409077396775476,-0.28027154061221815,1
1782115933.922741,0.035,1024.0,1023.0,1023.0,1024.0,1022.0,1022.0,1023.0,1023.0,1023.0,1024.0,1023.0,1023.0,1022.0,1023.0,1023.0,1024.0,1023.0,1022.0,1023.0,1023.0,1023.0,1023.0,1023.0,1023.0,1023.0,1023.0,1023.0,1023.0,1023.0,1023.0,1024.0,1022.0,1023.0,1023.0,1023.0,1023.0,1023.0,1023.0,1022.0,1024.0,1022.0,1023.0,1023.0,1023.0,1023.0,1023.0,1023.0,1023.0,1024.0,1022.0,1022.0,1023.0,1023.0,1023.0,1022.0,1023.0,1023.0,1023.0,1023.0,1022.0,1022.0,1024.0,1023.0,1023.0,1022.0,1023.0,1023.0,1022.0,1023.0,1021.0,1022.0,1023.0,1023.0,1023.0,1023.0,1023.0,1023.0,1023.0,1023.0,1023.0,1022.0,1023.0,1024.0,1023.0,1023.0,1023.0,1023.0,1024.0,1024.0,1023.0,1022.0,1022.0,1024.0,1023.0,1023.0,1023.0,1024.0,1022.0,1024.0,1023.0,1023.0,1023.0,1024.0,1023.0,1023.0,1023.0,1024.0,1023.0,1024.0,1023.0,1023.0,1023.0,1023.0,1023.0,1023.0,1023.0,1024.0,1023.0,1024.0,1020.0,1022.0,1024.0,1023.0,1023.0,1023.0,1024.0,1023.0,1024.0,1023.0,1024.0,1023.0,1023.0,1023.0,1024.0,1023.0,1024.0,1024.0,1024.0,1024.0,1024.0,1024.0,1023.0,1026.0,1024.0,1024.0,1024.0,1024.0,1026.0,1024.0,1026.0,1025.0,1024.0,1024.0,1024.0,1026.0,1024.0,1025.0,1025.0,1025.0,1027.0,1029.0,1025.0,1025.0,1025.0,1025.0,1027.0,1028.0,1025.0,1026.0,1027.0,1027.0,1029.0,1031.0,1026.0,1028.0,1028.0,1027.0,1027.0,1031.0,1025.0,1028.0,1028.0,1027.0,1026.0,1029.0,1024.0,1029.0,1029.0,1027.0,1026.0,1028.0,1024.0,1033.0,1035.0,1032.0,1029.0,1033.0,1025.0,1030.0,1031.0,1027.0,1026.0,1028.0,1024.0,1034.0,1033.0,1028.0,1026.0,1028.0,1024.0,1024.0,1024.0,1022.0,1022.0,1024.0,1021.0,1039.0,1033.0,1029.0,1026.0,1028.0,1025.0,1033.0,1030.0,1026.0,1025.0,1026.0,1024.0,1029.0,1025.0,1024.0,1024.0,1024.0,1937,1913,1906,	00:07:06.684,0.048828125,0.06396484375,1.015625,-2.50244140625,0.30517578125,0.3662109375,3.592529296875,-2.7520751953125,-85.6768798828125,583.0,-1371.0,-2849.0,0.73321533203125,0.006683349609375,-0.038909912109375,-0.678863525390625,3.5947370979143254,-2.7518710854075144,-84.25020437088479,0.741608561516691,0.007157678480897227,-0.038832688523139446,-0.669669718164091,1,	00:07:06.685,0.07470703125,0.017578125,1.001953125,-0.244140625,2.5634765625,-0.3662109375,0.98876953125,-4.229736328125,29.542236328125,-153.0,-914.0,-2029.0,-0.9661865234375,-0.017730712890625,0.033477783203125,-0.25506591796875,0.9866508584410585,-4.228185542040763,32.54043238026755,-0.9591731243738205,-0.0185944645591019,0.03300019395070184,-0.28027156574640233,1
1782115933.932735,0.045,1024.0,1023.0,1023.0,1024.0,1023.0,1022.0,1023.0,1023.0,1022.0,1024.0,1023.0,1023.0,1023.0,1023.0,1023.0,1023.0,1023.0,1023.0,1022.0,1023.0,1023.0,1022.0,1023.0,1022.0,1024.0,1023.0,1023.0,1023.0,1023.0,1023.0,1023.0,1022.0,1022.0,1023.0,1023.0,1023.0,1023.0,1024.0,1023.0,1024.0,1023.0,1022.0,1023.0,1023.0,1023.0,1023.0,1023.0,1023.0,1024.0,1022.0,1022.0,1023.0,1024.0,1023.0,1023.0,1023.0,1023.0,1023.0,1023.0,1022.0,1022.0,1023.0,1023.0,1023.0,1022.0,1023.0,1023.0,1023.0,1023.0,1022.0,1022.0,1023.0,1023.0,1023.0,1023.0,1023.0,1023.0,1023.0,1023.0,1022.0,1022.0,1023.0,1024.0,1023.0,1023.0,1024.0,1023.0,1023.0,1023.0,1023.0,1022.0,1023.0,1024.0,1023.0,1023.0,1024.0,1024.0,1023.0,1024.0,1023.0,1023.0,1024.0,1023.0,1023.0,1023.0,1023.0,1024.0,1023.0,1024.0,1024.0,1023.0,1024.0,1023.0,1024.0,1022.0,1023.0,1024.0,1023.0,1023.0,1021.0,1022.0,1023.0,1023.0,1023.0,1023.0,1024.0,1023.0,1024.0,1023.0,1024.0,1023.0,1023.0,1023.0,1023.0,1023.0,1024.0,1024.0,1024.0,1024.0,1024.0,1024.0,1024.0,1025.0,1024.0,1024.0,1024.0,1024.0,1025.0,1024.0,1025.0,1024.0,1024.0,1024.0,1025.0,1026.0,1024.0,1025.0,1025.0,1024.0,1027.0,1028.0,1026.0,1026.0,1026.0,1025.0,1027.0,1028.0,1025.0,1026.0,1027.0,1027.0,1028.0,1031.0,1025.0,1028.0,1028.0,1027.0,1028.0,1030.0,1025.0,1028.0,1028.0,1026.0,1027.0,1030.0,1025.0,1029.0,1029.0,1028.0,1026.0,1029.0,1024.0,1033.0,1035.0,1033.0,1030.0,1033.0,1026.0,1031.0,1031.0,1028.0,1026.0,1029.0,1024.0,1034.0,1032.0,1028.0,1026.0,1029.0,1025.0,1024.0,1023.0,1022.0,1023.0,1024.0,1021.0,1039.0,1033.0,1029.0,1027.0,1028.0,1025.0,1034.0,1029.0,1027.0,1025.0,1027.0,1024.0,1029.0,1025.0,1023.0,1024.0,1024.0,1935,1912,1905,	00:07:06.695,0.0498046875,0.06298828125,1.015625,-2.38037109375,0.30517578125,0.3662109375,3.5101318359375,-2.8179931640625,-85.67138671875,582.0,-1373.0,-2848.0,0.733245849609375,0.0057373046875,-0.038818359375,-0.6788330078125,3.5088959301104667,-2.816781176134404,-84.24333551178229,0.7416552824910774,0.006224488445412774,-0.03875017170743452,-0.6696320794953878,1,	00:07:06.696,0.07177734375,0.0185546875,1.00439453125,-0.48828125,2.44140625,-0.42724609375,1.021728515625,-4.119873046875,29.5367431640625,-152.0,-916.0,-2025.0,-0.966217041015625,-0.017791748046875,0.032501220703125,-0.255035400390625,1.0234842251335805,-4.122036750101922,32.53354958026911,-0.9592186377318687,-0.018641795027435182,0.032022540306531,-0.280226061276052,1
1782115933.942936,0.055,1024.0,1022.0,1023.0,1024.0,1023.0,1022.0,1022.0,1023.0,1022.0,1023.0,1023.0,1022.0,1023.0,1023.0,1022.0,1024.0,1024.0,1023.0,1022.0,1023.0,1023.0,1023.0,1023.0,1023.0,1024.0,1023.0,1023.0,1023.0,1023.0,1023.0,1023.0,1023.0,1022.0,1023.0,1023.0,1022.0,1023.0,1023.0,1023.0,1024.0,1022.0,1023.0,1023.0,1023.0,1023.0,1023.0,1024.0,1023.0,1023.0,1022.0,1022.0,1023.0,1024.0,1023.0,1023.0,1023.0,1023.0,1023.0,1023.0,1022.0,1022.0,1023.0,1023.0,1023.0,1022.0,1023.0,1023.0,1023.0,1023.0,1022.0,1023.0,1023.0,1023.0,1023.0,1022.0,1023.0,1023.0,1023.0,1023.0,1022.0,1022.0,1023.0,1023.0,1024.0,1023.0,1023.0,1024.0,1023.0,1024.0,1023.0,1023.0,1023.0,1023.0,1024.0,1023.0,1023.0,1024.0,1023.0,1024.0,1023.0,1023.0,1023.0,1023.0,1023.0,1023.0,1024.0,1024.0,1023.0,1024.0,1023.0,1023.0,1023.0,1023.0,1023.0,1023.0,1023.0,1023.0,1023.0,1023.0,1021.0,1022.0,1023.0,1023.0,1023.0,1023.0,1024.0,1023.0,1024.0,1022.0,1023.0,1023.0,1024.0,1023.0,1024.0,1023.0,1024.0,1024.0,1024.0,1024.0,1024.0,1025.0,1024.0,1026.0,1024.0,1024.0,1024.0,1024.0,1025.0,1024.0,1025.0,1025.0,1024.0,1024.0,1025.0,1025.0,1024.0,1025.0,1025.0,1025.0,1027.0,1028.0,1026.0,1026.0,1025.0,1025.0,1027.0,1028.0,1025.0,1026.0,1027.0,1027.0,1028.0,1030.0,1026.0,1027.0,1027.0,1027.0,1027.0,1030.0,1025.0,1028.0,1028.0,1027.0,1026.0,1029.0,1025.0,1029.0,1029.0,1028.0,1026.0,1028.0,1024.0,1032.0,1035.0,1033.0,1029.0,1032.0,1026.0,1031.0,1031.0,1029.0,1026.0,1028.0,1024.0,1034.0,1032.0,1028.0,1026.0,1027.0,1024.0,1025.0,1023.0,1023.0,1023.0,1023.0,1021.0,1040.0,1034.0,1029.0,1027.0,1028.0,1025.0,1036.0,1031.0,1028.0,1025.0,1025.0,1024.0,1029.0,1025.0,1025.0,1024.0,1024.0,1933,1912,1905,	00:07:06.705,0.0498046875,0.06201171875,1.01611328125,-2.25830078125,0.3662109375,0.30517578125,3.4222412109375,-2.7520751953125,-85.6658935546875,583.0,-1374.0,-2845.0,0.733306884765625,0.005584716796875,-0.037872314453125,-0.6788330078125,3.4201498218591584,-2.7500016469686313,-84.23686940502601,0.7416965008053344,0.006043126428401522,-0.03779957489978943,-0.6696424220832249,1,	00:07:06.706,0.0732421875,0.01708984375,1.00537109375,-0.67138671875,2.197265625,-0.67138671875,0.9503173828125,-4.1583251953125,29.53125,-151.0,-920.0,-2031.0,-0.966217041015625,-0.017242431640625,0.032989501953125,-0.2550048828125,0.9486074946736329,-4.160855501900681,32.5321707204623,-0.9592214505820371,-0.018109351296619766,0.03253085867133647,-0.2801927967900205,1
1782115933.953897,0.066,1024.0,1022.0,1023.0,1024.0,1023.0,1022.0,1023.0,1023.0,1022.0,1024.0,1023.0,1022.0,1022.0,1023.0,1022.0,1023.0,1023.0,1023.0,1022.0,1023.0,1023.0,1023.0,1024.0,1022.0,1023.0,1023.0,1023.0,1023.0,1023.0,1022.0,1023.0,1022.0,1023.0,1023.0,1023.0,1023.0,1023.0,1023.0,1022.0,1024.0,1022.0,1022.0,1024.0,1024.0,1023.0,1023.0,1023.0,1023.0,1024.0,1023.0,1023.0,1023.0,1023.0,1023.0,1023.0,1023.0,1023.0,1023.0,1023.0,1022.0,1022.0,1023.0,1023.0,1023.0,1023.0,1023.0,1023.0,1023.0,1023.0,1022.0,1022.0,1023.0,1023.0,1023.0,1023.0,1022.0,1023.0,1023.0,1023.0,1021.0,1022.0,1023.0,1023.0,1023.0,1023.0,1023.0,1023.0,1023.0,1023.0,1022.0,1022.0,1023.0,1023.0,1024.0,1023.0,1023.0,1024.0,1023.0,1024.0,1024.0,1023.0,1024.0,1024.0,1024.0,1023.0,1023.0,1024.0,1023.0,1024.0,1023.0,1022.0,1024.0,1023.0,1024.0,1022.0,1023.0,1023.0,1023.0,1023.0,1021.0,1022.0,1023.0,1023.0,1023.0,1023.0,1024.0,1023.0,1024.0,1022.0,1024.0,1023.0,1022.0,1023.0,1023.0,1022.0,1024.0,1024.0,1024.0,1024.0,1023.0,1024.0,1024.0,1026.0,1024.0,1024.0,1023.0,1024.0,1024.0,1024.0,1025.0,1024.0,1024.0,1024.0,1024.0,1025.0,1024.0,1025.0,1025.0,1024.0,1026.0,1028.0,1026.0,1026.0,1026.0,1024.0,1027.0,1027.0,1025.0,1027.0,1027.0,1026.0,1029.0,1031.0,1026.0,1028.0,1028.0,1028.0,1028.0,1030.0,1025.0,1028.0,1027.0,1027.0,1027.0,1030.0,1025.0,1028.0,1028.0,1028.0,1027.0,1029.0,1025.0,1032.0,1034.0,1032.0,1029.0,1033.0,1026.0,1032.0,1030.0,1028.0,1026.0,1028.0,1025.0,1034.0,1032.0,1028.0,1026.0,1028.0,1024.0,1024.0,1022.0,1023.0,1022.0,1023.0,1022.0,1041.0,1034.0,1029.0,1027.0,1028.0,1026.0,1036.0,1030.0,1027.0,1026.0,1026.0,1024.0,1029.0,1025.0,1024.0,1024.0,1024.0,1930,1911,1905,	00:07:06.715,0.048828125,0.060546875,1.0166015625,-2.197265625,0.30517578125,0.244140625,3.3123779296875,-2.713623046875,-85.660400390625,582.0,-1369.0,-2849.0,0.73333740234375,0.005126953125,-0.0369873046875,-0.6788330078125,3.313877792524309,-2.711174482153384,-84.23024464826774,0.7417399180732611,0.00558466642099515,-0.036927212323453036,-0.6696469864246808,1,	00:07:06.717,0.07080078125,0.01708984375,1.00537109375,-0.6103515625,1.953125,-0.6103515625,0.9613037109375,-4.053955078125,29.5257568359375,-152.0,-917.0,-2025.0,-0.966278076171875,-0.01708984375,0.03204345703125,-0.25494384765625,0.9599554681460993,-4.051351021138709,32.525150878189685,-0.9592719193062378,-0.01793520010914312,0.03158739546694918,-0.28013916162362296,1
1782115933.963890,0.076,1024.0,1022.0,1023.0,1024.0,1022.0,1023.0,1023.0,1023.0,1023.0,1023.0,1023.0,1023.0,1023.0,1023.0,1022.0,1023.0,1023.0,1023.0,1023.0,1023.0,1023.0,1023.0,1023.0,1022.0,1023.0,1023.0,1023.0,1023.0,1023.0,1023.0,1023.0,1022.0,1023.0,1023.0,1023.0,1023.0,1023.0,1023.0,1023.0,1023.0,1022.0,1023.0,1023.0,1024.0,1023.0,1023.0,1023.0,1022.0,1024.0,1022.0,1022.0,1023.0,1023.0,1023.0,1024.0,1023.0,1023.0,1023.0,1024.0,1022.0,1023.0,1023.0,1023.0,1023.0,1023.0,1023.0,1023.0,1022.0,1023.0,1021.0,1022.0,1024.0,1023.0,1024.0,1023.0,1023.0,1023.0,1022.0,1023.0,1022.0,1022.0,1023.0,1023.0,1023.0,1023.0,1023.0,1024.0,1023.0,1023.0,1022.0,1023.0,1023.0,1024.0,1023.0,1024.0,1023.0,1023.0,1023.0,1024.0,1023.0,1023.0,1023.0,1024.0,1024.0,1023.0,1023.0,1024.0,1023.0,1024.0,1023.0,1023.0,1023.0,1023.0,1023.0,1023.0,1023.0,1023.0,1022.0,1023.0,1021.0,1022.0,1024.0,1024.0,1023.0,1023.0,1023.0,1023.0,1023.0,1022.0,1023.0,1024.0,1023.0,1023.0,1024.0,1023.0,1023.0,1024.0,1024.0,1024.0,1024.0,1024.0,1024.0,1026.0,1024.0,1024.0,1024.0,1024.0,1024.0,1024.0,1026.0,1024.0,1024.0,1024.0,1024.0,1025.0,1024.0,1025.0,1025.0,1024.0,1027.0,1028.0,1025.0,1025.0,1026.0,1025.0,1027.0,1028.0,1025.0,1026.0,1028.0,1027.0,1030.0,1032.0,1026.0,1027.0,1028.0,1026.0,1028.0,1031.0,1025.0,1028.0,1029.0,1027.0,1028.0,1030.0,1025.0,1029.0,1029.0,1027.0,1027.0,1029.0,1024.0,1033.0,1034.0,1032.0,1030.0,1035.0,1026.0,1032.0,1031.0,1028.0,1027.0,1029.0,1024.0,1035.0,1032.0,1028.0,1026.0,1028.0,1024.0,1025.0,1023.0,1023.0,1023.0,1023.0,1022.0,1042.0,1034.0,1029.0,1027.0,1028.0,1026.0,1036.0,1030.0,1027.0,1026.0,1026.0,1024.0,1030.0,1025.0,1025.0,1024.0,1024.0,1928,1910,1905,	00:07:06.726,0.05029296875,0.060546875,1.01513671875,-2.25830078125,0.18310546875,0.244140625,3.350830078125,-2.779541015625,-85.660400390625,581.0,-1368.0,-2850.0,0.73333740234375,0.00494384765625,-0.03765869140625,-0.678802490234375,3.3495031062079237,-2.779942183738357,-84.23047909394442,0.7417378742260177,0.005412715941883241,-0.03757997013500468,-0.6696143474339935,1,	00:07:06.727,0.06982421875,0.01708984375,1.009765625,-0.48828125,1.708984375,-0.732421875,0.966796875,-3.944091796875,29.520263671875,-150.0,-915.0,-2027.0,-0.966339111328125,-0.01690673828125,0.0311279296875,-0.2548828125,0.9646945292724627,-3.943131147879146,32.5174558588062,-0.9593238289603893,-0.017708780176609974,0.03067089548401572,-0.2800776436341231,1
1782115933.974868,0.087,1024.0,1023.0,1023.0,1023.0,1023.0,1023.0,1023.0,1022.0,1023.0,1024.0,1023.0,1022.0,1023.0,1023.0,1022.0,1023.0,1024.0,1023.0,1023.0,1023.0,1023.0,1023.0,1024.0,1023.0,1023.0,1023.0,1023.0,1022.0,1023.0,1023.0,1024.0,1023.0,1023.0,1024.0,1023.0,1023.0,1023.0,1023.0,1023.0,1023.0,1022.0,1023.0,1024.0,1023.0,1023.0,1022.0,1023.0,1023.0,1024.0,1022.0,1022.0,1023.0,1023.0,1023.0,1023.0,1023.0,1023.0,1022.0,1023.0,1022.0,1022.0,1023.0,1023.0,1023.0,1022.0,1023.0,1023.0,1022.0,1023.0,1022.0,1022.0,1023.0,1023.0,1023.0,1023.0,1023.0,1023.0,1022.0,1024.0,1022.0,1022.0,1024.0,1023.0,1023.0,1023.0,1023.0,1023.0,1023.0,1024.0,1023.0,1023.0,1023.0,1024.0,1024.0,1023.0,1023.0,1024.0,1023.0,1024.0,1024.0,1023.0,1024.0,1023.0,1023.0,1023.0,1024.0,1024.0,1023.0,1024.0,1023.0,1022.0,1023.0,1023.0,1023.0,1023.0,1023.0,1023.0,1023.0,1023.0,1021.0,1022.0,1024.0,1023.0,1023.0,1023.0,1023.0,1023.0,1024.0,1023.0,1023.0,1024.0,1023.0,1023.0,1024.0,1023.0,1024.0,1024.0,1024.0,1024.0,1024.0,1025.0,1024.0,1026.0,1023.0,1024.0,1024.0,1024.0,1024.0,1024.0,1025.0,1024.0,1024.0,1024.0,1024.0,1025.0,1024.0,1024.0,1025.0,1025.0,1026.0,1028.0,1026.0,1026.0,1025.0,1026.0,1026.0,1028.0,1025.0,1026.0,1026.0,1028.0,1029.0,1030.0,1026.0,1027.0,1027.0,1029.0,1027.0,1030.0,1025.0,1028.0,1028.0,1028.0,1027.0,1030.0,1025.0,1028.0,1028.0,1028.0,1026.0,1028.0,1025.0,1033.0,1033.0,1035.0,1029.0,1032.0,1026.0,1032.0,1031.0,1029.0,1026.0,1028.0,1024.0,1035.0,1031.0,1029.0,1026.0,1028.0,1024.0,1025.0,1023.0,1022.0,1022.0,1023.0,1021.0,1042.0,1035.0,1031.0,1027.0,1029.0,1025.0,1035.0,1031.0,1028.0,1025.0,1026.0,1024.0,1030.0,1027.0,1025.0,1024.0,1025.0,1925,1909,1906,	00:07:06.736,0.0498046875,0.060546875,1.017578125,-2.3193359375,0.18310546875,0.18310546875,3.4112548828125,-2.8070068359375,-85.660400390625,580.0,-1371.0,-2850.0,0.733306884765625,0.005218505859375,-0.038177490234375,-0.678802490234375,3.4136814298119735,-2.805240765931296,-84.2327981958745,0.7417215949848096,0.005679298404582986,-0.03811864362551366,-0.6695997237984591,1,	00:07:06.737,0.07177734375,0.0166015625,1.005859375,-0.30517578125,1.89208984375,-0.8544921875,0.9503173828125,-4.0155029296875,29.50927734375,-150.0,-919.0,-2024.0,-0.96630859375,-0.016937255859375,0.031768798828125,-0.25482177734375,0.9496588113005001,-4.014680032086559,32.51008407718767,-0.9593219036510214,-0.01775541941669956,0.03130786632867267,-0.2800107993679233,1
1782115933.984254,0.096,1024.0,1023.0,1023.0,1024.0,1023.0,1023.0,1023.0,1023.0,1022.0,1023.0,1023.0,1023.0,1023.0,1023.0,1022.0,1023.0,1024.0,1023.0,1023.0,1023.0,1023.0,1022.0,1023.0,1022.0,1023.0,1023.0,1023.0,1023.0,1023.0,1022.0,1024.0,1022.0,1022.0,1023.0,1023.0,1023.0,1022.0,1023.0,1022.0,1023.0,1022.0,1023.0,1024.0,1023.0,1022.0,1023.0,1023.0,1022.0,1023.0,1022.0,1022.0,1023.0,1023.0,1023.0,1023.0,1023.0,1023.0,1023.0,1024.0,1022.0,1022.0,1023.0,1024.0,1023.0,1023.0,1023.0,1023.0,1023.0,1024.0,1022.0,1022.0,1023.0,1023.0,1024.0,1023.0,1022.0,1023.0,1022.0,1024.0,1022.0,1022.0,1023.0,1023.0,1024.0,1023.0,1023.0,1023.0,1022.0,1024.0,1022.0,1023.0,1023.0,1024.0,1023.0,1023.0,1024.0,1024.0,1023.0,1024.0,1024.0,1023.0,1023.0,1023.0,1023.0,1023.0,1023.0,1024.0,1023.0,1024.0,1023.0,1023.0,1023.0,1024.0,1023.0,1022.0,1022.0,1023.0,1022.0,1023.0,1021.0,1022.0,1023.0,1023.0,1023.0,1022.0,1023.0,1023.0,1024.0,1023.0,1024.0,1023.0,1023.0,1023.0,1023.0,1023.0,1024.0,1024.0,1024.0,1024.0,1024.0,1024.0,1024.0,1026.0,1024.0,1024.0,1024.0,1024.0,1024.0,1023.0,1025.0,1024.0,1024.0,1024.0,1025.0,1025.0,1024.0,1025.0,1025.0,1025.0,1027.0,1028.0,1026.0,1025.0,1025.0,1025.0,1028.0,1028.0,1025.0,1026.0,1026.0,1027.0,1029.0,1031.0,1026.0,1028.0,1026.0,1028.0,1028.0,1030.0,1026.0,1028.0,1027.0,1028.0,1028.0,1030.0,1025.0,1029.0,1028.0,1028.0,1027.0,1029.0,1025.0,1032.0,1033.0,1035.0,1030.0,1032.0,1026.0,1032.0,1030.0,1029.0,1027.0,1028.0,1025.0,1035.0,1031.0,1029.0,1027.0,1028.0,1024.0,1025.0,1023.0,1023.0,1022.0,1023.0,1021.0,1042.0,1035.0,1032.0,1028.0,1028.0,1026.0,1035.0,1032.0,1029.0,1026.0,1026.0,1024.0,1030.0,1027.0,1025.0,1024.0,1024.0,1922,1908,1905,	00:07:06.746,0.04931640625,0.06103515625,1.01611328125,-2.3193359375,0.244140625,0.1220703125,3.4442138671875,-2.7301025390625,-85.660400390625,579.0,-1368.0,-2847.0,0.733306884765625,0.005859375,-0.03790283203125,-0.678802490234375,3.4455825990680293,-2.7296077742829423,-84.23411127786977,0.7417108260339491,0.006328015932651212,-0.0378162160608234,-0.6696229838955904,1,	00:07:06.747,0.0732421875,0.017578125,1.00830078125,-0.1220703125,2.25830078125,-0.8544921875,0.977783203125,-4.075927734375,29.498291015625,-148.0,-918.0,-2026.0,-0.96630859375,-0.017333984375,0.0322265625,-0.254730224609375,0.9794149332917421,-4.078217334081174,32.49974992478856,-0.9593223918331025,-0.018156602035951666,0.031768790483702715,-0.2799314742599088,1
1782115933.994261,0.106,1024.0,1023.0,1023.0,1024.0,1023.0,1023.0,1022.0,1023.0,1022.0,1024.0,1022.0,1023.0,1023.0,1023.0,1022.0,1023.0,1024.0,1023.0,1023.0,1023.0,1023.0,1022.0,1023.0,1022.0,1024.0,1023.0,1023.0,1023.0,1024.0,1023.0,1024.0,1022.0,1022.0,1023.0,1024.0,1023.0,1023.0,1023.0,1022.0,1023.0,1022.0,1022.0,1023.0,1023.0,1023.0,1023.0,1023.0,1023.0,1024.0,1022.0,1022.0,1023.0,1023.0,1024.0,1023.0,1023.0,1023.0,1023.0,1024.0,1022.0,1022.0,1023.0,1023.0,1023.0,1023.0,1023.0,1023.0,1023.0,1023.0,1022.0,1022.0,1023.0,1023.0,1023.0,1022.0,1022.0,1023.0,1022.0,1023.0,1022.0,1022.0,1023.0,1023.0,1023.0,1024.0,1023.0,1023.0,1023.0,1023.0,1022.0,1022.0,1023.0,1024.0,1023.0,1023.0,1023.0,1023.0,1023.0,1024.0,1023.0,1023.0,1023.0,1023.0,1023.0,1023.0,1023.0,1024.0,1023.0,1024.0,1023.0,1023.0,1023.0,1023.0,1022.0,1022.0,1023.0,1024.0,1023.0,1023.0,1021.0,1022.0,1023.0,1023.0,1023.0,1023.0,1024.0,1023.0,1024.0,1023.0,1024.0,1023.0,1023.0,1023.0,1023.0,1023.0,1024.0,1024.0,1024.0,1024.0,1024.0,1025.0,1024.0,1026.0,1024.0,1024.0,1023.0,1024.0,1024.0,1024.0,1026.0,1024.0,1024.0,1024.0,1024.0,1025.0,1024.0,1025.0,1024.0,1025.0,1026.0,1028.0,1026.0,1026.0,1025.0,1025.0,1027.0,1029.0,1026.0,1026.0,1026.0,1027.0,1029.0,1031.0,1025.0,1028.0,1026.0,1028.0,1027.0,1032.0,1025.0,1028.0,1027.0,1028.0,1028.0,1030.0,1024.0,1029.0,1027.0,1029.0,1027.0,1029.0,1024.0,1033.0,1033.0,1035.0,1031.0,1034.0,1026.0,1032.0,1030.0,1029.0,1027.0,1029.0,1024.0,1034.0,1031.0,1029.0,1027.0,1028.0,1024.0,1025.0,1023.0,1023.0,1022.0,1024.0,1022.0,1041.0,1035.0,1031.0,1028.0,1029.0,1025.0,1036.0,1032.0,1029.0,1026.0,1027.0,1024.0,1030.0,1026.0,1026.0,1024.0,1025.0,1918,1907,1906,	00:07:06.756,0.0498046875,0.060546875,1.01611328125,-2.3193359375,0.3662109375,0.244140625,3.3837890625,-2.8070068359375,-85.6549072265625,583.0,-1368.0,-2849.0,0.73333740234375,0.004974365234375,-0.03802490234375,-0.67877197265625,3.381461086537349,-2.8082005250893234,-84.22946419029861,0.7417426862009646,0.005454525450578027,-0.03794934114215334,-0.6695878457128408,1,	00:07:06.758,0.07177734375,0.01806640625,1.01123046875,0.0,2.62451171875,-0.79345703125,1.065673828125,-4.0155029296875,29.4873046875,-148.0,-920.0,-2021.0,-0.96636962890625,-0.01788330078125,0.031524658203125,-0.254638671875,1.0644430893095818,-4.01580399803151,32.48628314638271,-0.9593614264251484,-0.018712639466584514,0.03104066734790423,-0.279842755100601,1
1782115934.007258,0.119,1025.0,1023.0,1023.0,1024.0,1023.0,1023.0,1023.0,1023.0,1022.0,1024.0,1023.0,1023.0,1023.0,1023.0,1022.0,1024.0,1023.0,1023.0,1023.0,1023.0,1023.0,1023.0,1023.0,1022.0,1023.0,1023.0,1023.0,1023.0,1023.0,1022.0,1024.0,1022.0,1022.0,1023.0,1023.0,1023.0,1023.0,1023.0,1023.0,1023.0,1022.0,1023.0,1023.0,1023.0,1023.0,1023.0,1023.0,1022.0,1024.0,1022.0,1022.0,1023.0,1024.0,1023.0,1023.0,1023.0,1023.0,1022.0,1024.0,1022.0,1022.0,1023.0,1023.0,1023.0,1023.0,1023.0,1023.0,1023.0,1024.0,1022.0,1023.0,1023.0,1024.0,1023.0,1023.0,1023.0,1023.0,1022.0,1024.0,1022.0,1023.0,1023.0,1023.0,1023.0,1023.0,1023.0,1023.0,1023.0,1024.0,1023.0,1023.0,1023.0,1024.0,1023.0,1023.0,1023.0,1023.0,1023.0,1024.0,1023.0,1022.0,1024.0,1024.0,1023.0,1024.0,1023.0,1024.0,1023.0,1025.0,1023.0,1022.0,1023.0,1023.0,1023.0,1023.0,1023.0,1023.0,1022.0,1023.0,1021.0,1022.0,1024.0,1023.0,1023.0,1022.0,1024.0,1023.0,1024.0,1022.0,1024.0,1023.0,1024.0,1023.0,1023.0,1023.0,1024.0,1024.0,1024.0,1024.0,1024.0,1024.0,1024.0,1027.0,1024.0,1024.0,1024.0,1024.0,1024.0,1024.0,1026.0,1024.0,1024.0,1024.0,1024.0,1025.0,1024.0,1025.0,1024.0,1024.0,1025.0,1027.0,1025.0,1025.0,1025.0,1026.0,1026.0,1028.0,1025.0,1026.0,1026.0,1028.0,1029.0,1030.0,1026.0,1027.0,1027.0,1029.0,1028.0,1031.0,1025.0,1028.0,1027.0,1029.0,1027.0,1030.0,1024.0,1029.0,1026.0,1029.0,1026.0,1029.0,1024.0,1032.0,1032.0,1036.0,1030.0,1033.0,1026.0,1032.0,1029.0,1030.0,1026.0,1029.0,1024.0,1034.0,1030.0,1031.0,1027.0,1028.0,1024.0,1025.0,1022.0,1023.0,1023.0,1024.0,1021.0,1042.0,1035.0,1032.0,1028.0,1028.0,1025.0,1036.0,1030.0,1029.0,1026.0,1026.0,1023.0,1030.0,1025.0,1026.0,1024.0,1025.0,1915,1906,1906,	00:07:06.767,0.05078125,0.05859375,1.01611328125,-2.197265625,0.244140625,0.244140625,3.2794189453125,-2.8509521484375,-85.6494140625,580.0,-1368.0,-2850.0,0.7333984375,0.004058837890625,-0.037689208984375,-0.678741455078125,3.2804428649188515,-2.852659118813888,-84.22297429658055,0.7417854683270949,0.004542572134762816,-0.0376462050587717,-0.6695643712607666,1,	00:07:06.768,0.07275390625,0.01708984375,1.00830078125,0.18310546875,2.8076171875,-0.67138671875,1.0052490234375,-4.0594482421875,29.4873046875,-145.0,-922.0,-2023.0,-0.96636962890625,-0.01751708984375,0.032012939453125,-0.254608154296875,1.0075604882199478,-4.057664499365822,32.48423995131199,-0.9593623366012531,-0.018337857516618945,0.031530423512616486,-0.27980968976395243,1
1782115934.015785,0.128,1024.0,1024.0,1023.0,1024.0,1023.0,1024.0,1023.0,1023.0,1023.0,1024.0,1023.0,1023.0,1023.0,1023.0,1023.0,1024.0,1023.0,1023.0,1023.0,1023.0,1023.0,1023.0,1024.0,1022.0,1023.0,1023.0,1023.0,1023.0,1023.0,1022.0,1023.0,1022.0,1022.0,1023.0,1023.0,1023.0,1022.0,1023.0,1023.0,1023.0,1022.0,1022.0,1023.0,1023.0,1023.0,1023.0,1023.0,1023.0,1023.0,1022.0,1022.0,1024.0,1023.0,1023.0,1023.0,1023.0,1023.0,1023.0,1024.0,1022.0,1022.0,1023.0,1023.0,1023.0,1023.0,1023.0,1024.0,1023.0,1023.0,1022.0,1022.0,1024.0,1023.0,1023.0,1023.0,1023.0,1023.0,1023.0,1024.0,1021.0,1023.0,1023.0,1023.0,1023.0,1023.0,1023.0,1023.0,1023.0,1024.0,1022.0,1023.0,1024.0,1023.0,1023.0,1024.0,1023.0,1023.0,1023.0,1024.0,1023.0,1023.0,1024.0,1023.0,1023.0,1024.0,1023.0,1024.0,1023.0,1024.0,1023.0,1023.0,1023.0,1024.0,1023.0,1024.0,1024.0,1023.0,1023.0,1023.0,1021.0,1022.0,1024.0,1023.0,1023.0,1023.0,1024.0,1022.0,1024.0,1022.0,1024.0,1023.0,1024.0,1023.0,1024.0,1023.0,1024.0,1024.0,1023.0,1024.0,1024.0,1024.0,1024.0,1026.0,1024.0,1024.0,1024.0,1024.0,1024.0,1024.0,1026.0,1024.0,1024.0,1025.0,1024.0,1024.0,1024.0,1024.0,1024.0,1026.0,1026.0,1026.0,1025.0,1025.0,1024.0,1026.0,1026.0,1027.0,1025.0,1025.0,1025.0,1028.0,1028.0,1030.0,1025.0,1027.0,1026.0,1029.0,1027.0,1030.0,1024.0,1028.0,1026.0,1030.0,1027.0,1029.0,1025.0,1028.0,1027.0,1030.0,1026.0,1028.0,1024.0,1033.0,1032.0,1038.0,1029.0,1033.0,1026.0,1031.0,1029.0,1032.0,1026.0,1028.0,1024.0,1035.0,1031.0,1033.0,1026.0,1028.0,1024.0,1025.0,1023.0,1024.0,1022.0,1023.0,1021.0,1041.0,1034.0,1034.0,1027.0,1028.0,1026.0,1037.0,1030.0,1031.0,1026.0,1026.0,1024.0,1032.0,1026.0,1027.0,1024.0,1024.0,1911,1905,1906,	00:07:06.777,0.04833984375,0.05810546875,1.01611328125,-1.5869140625,-0.06103515625,0.42724609375,3.2574462890625,-2.7630615234375,-85.6439208984375,582.0,-1367.0,-2851.0,0.7333984375,0.004486083984375,-0.0369873046875,-0.67877197265625,3.2591569253189974,-2.7621108640506953,-84.2184960772347,0.7418117565789714,0.004936137337018717,-0.03693622857963114,-0.669572003124178,1,	00:07:06.778,0.0712890625,0.0166015625,1.01123046875,0.42724609375,3.11279296875,-0.48828125,0.9283447265625,-3.9935302734375,29.4873046875,-146.0,-918.0,-2025.0,-0.96636962890625,-0.016693115234375,0.031646728515625,-0.254608154296875,0.92642404145215,-3.9936105502322605,32.48591432085291,-0.9593911039041417,-0.017502943155343675,0.031191916622191965,-0.2798024679446689,1
1782115934.024845,0.137,1024.0,1023.0,1022.0,1023.0,1023.0,1023.0,1023.0,1023.0,1022.0,1023.0,1023.0,1024.0,1023.0,1023.0,1022.0,1023.0,1023.0,1023.0,1023.0,1023.0,1023.0,1022.0,1024.0,1022.0,1023.0,1023.0,1023.0,1023.0,1023.0,1023.0,1024.0,1022.0,1023.0,1023.0,1023.0,1023.0,1023.0,1023.0,1023.0,1024.0,1022.0,1023.0,1023.0,1023.0,1024.0,1023.0,1023.0,1023.0,1024.0,1022.0,1022.0,1023.0,1023.0,1023.0,1023.0,1023.0,1024.0,1023.0,1023.0,1022.0,1022.0,1023.0,1023.0,1023.0,1023.0,1022.0,1023.0,1023.0,1023.0,1021.0,1022.0,1023.0,1023.0,1023.0,1023.0,1022.0,1023.0,1023.0,1024.0,1021.0,1022.0,1023.0,1023.0,1023.0,1023.0,1023.0,1023.0,1023.0,1023.0,1022.0,1022.0,1023.0,1023.0,1023.0,1024.0,1023.0,1023.0,1023.0,1024.0,1023.0,1023.0,1023.0,1024.0,1023.0,1024.0,1023.0,1024.0,1023.0,1024.0,1024.0,1023.0,1023.0,1023.0,1023.0,1023.0,1023.0,1023.0,1022.0,1024.0,1021.0,1023.0,1023.0,1024.0,1024.0,1023.0,1023.0,1023.0,1024.0,1022.0,1023.0,1023.0,1023.0,1023.0,1023.0,1022.0,1024.0,1024.0,1024.0,1024.0,1024.0,1024.0,1024.0,1027.0,1024.0,1024.0,1025.0,1024.0,1024.0,1024.0,1026.0,1024.0,1024.0,1025.0,1024.0,1025.0,1024.0,1025.0,1025.0,1026.0,1025.0,1026.0,1026.0,1025.0,1025.0,1027.0,1026.0,1027.0,1025.0,1026.0,1026.0,1029.0,1028.0,1030.0,1025.0,1027.0,1026.0,1029.0,1027.0,1030.0,1025.0,1028.0,1026.0,1030.0,1027.0,1029.0,1024.0,1027.0,1027.0,1030.0,1025.0,1028.0,1024.0,1031.0,1032.0,1039.0,1028.0,1033.0,1027.0,1030.0,1029.0,1032.0,1026.0,1028.0,1024.0,1034.0,1031.0,1032.0,1027.0,1029.0,1025.0,1024.0,1022.0,1024.0,1022.0,1023.0,1021.0,1040.0,1035.0,1034.0,1027.0,1029.0,1025.0,1035.0,1030.0,1031.0,1026.0,1026.0,1024.0,1029.0,1026.0,1027.0,1024.0,1025.0,1907,1904,1906,	00:07:06.787,0.04931640625,0.05908203125,1.01708984375,-1.28173828125,-0.06103515625,0.42724609375,3.3343505859375,-2.7740478515625,-85.6439208984375,579.0,-1366.0,-2850.0,0.7333984375,0.0048828125,-0.03753662109375,-0.678741455078125,3.3368352194777713,-2.775720910961673,-84.21864045859455,0.7418075866036891,0.005359295800160194,-0.03747810282823329,-0.6695432579110427,1,	00:07:06.788,0.06982421875,0.0166015625,1.013671875,0.67138671875,2.86865234375,-0.42724609375,0.955810546875,-3.878173828125,29.4818115234375,-144.0,-920.0,-2024.0,-0.9664306640625,-0.016632080078125,0.03057861328125,-0.25457763671875,0.9531386960112573,-3.875513159756726,32.480749815677804,-0.959435969152896,-0.017437440488474586,0.030138549452430757,-0.2797681622375171,1
1782115934.034777,0.147,1024.0,1023.0,1023.0,1024.0,1023.0,1023.0,1022.0,1023.0,1022.0,1023.0,1023.0,1023.0,1023.0,1023.0,1022.0,1023.0,1023.0,1023.0,1023.0,1023.0,1022.0,1023.0,1023.0,1022.0,1023.0,1023.0,1023.0,1023.0,1023.0,1023.0,1024.0,1022.0,1022.0,1022.0,1023.0,1023.0,1023.0,1023.0,1023.0,1023.0,1022.0,1022.0,1023.0,1023.0,1023.0,1023.0,1023.0,1023.0,1023.0,1022.0,1022.0,1023.0,1023.0,1023.0,1024.0,1023.0,1023.0,1023.0,1023.0,1022.0,1022.0,1023.0,1023.0,1023.0,1023.0,1023.0,1023.0,1023.0,1023.0,1022.0,1022.0,1023.0,1023.0,1023.0,1023.0,1023.0,1023.0,1023.0,1023.0,1022.0,1022.0,1023.0,1023.0,1023.0,1023.0,1023.0,1023.0,1023.0,1024.0,1022.0,1023.0,1024.0,1023.0,1023.0,1023.0,1022.0,1023.0,1024.0,1024.0,1023.0,1023.0,1023.0,1024.0,1023.0,1024.0,1023.0,1023.0,1024.0,1024.0,1023.0,1023.0,1023.0,1023.0,1023.0,1023.0,1023.0,1023.0,1023.0,1024.0,1021.0,1022.0,1023.0,1023.0,1023.0,1022.0,1023.0,1023.0,1024.0,1022.0,1023.0,1024.0,1023.0,1023.0,1023.0,1023.0,1024.0,1024.0,1024.0,1024.0,1024.0,1024.0,1024.0,1027.0,1024.0,1024.0,1024.0,1024.0,1024.0,1024.0,1027.0,1024.0,1024.0,1024.0,1024.0,1024.0,1024.0,1025.0,1025.0,1025.0,1026.0,1026.0,1025.0,1025.0,1025.0,1026.0,1026.0,1027.0,1025.0,1026.0,1026.0,1028.0,1027.0,1030.0,1026.0,1027.0,1026.0,1029.0,1027.0,1031.0,1025.0,1027.0,1027.0,1028.0,1026.0,1030.0,1024.0,1027.0,1027.0,1029.0,1025.0,1028.0,1024.0,1032.0,1032.0,1035.0,1029.0,1033.0,1026.0,1031.0,1029.0,1030.0,1026.0,1028.0,1024.0,1034.0,1033.0,1031.0,1027.0,1028.0,1024.0,1025.0,1024.0,1023.0,1022.0,1023.0,1021.0,1041.0,1036.0,1033.0,1027.0,1028.0,1025.0,1036.0,1031.0,1029.0,1025.0,1026.0,1024.0,1031.0,1027.0,1027.0,1024.0,1024.0,1904,1903,1906,	00:07:06.797,0.0498046875,0.05859375,1.015625,-0.8544921875,-0.06103515625,0.42724609375,3.2574462890625,-2.83447265625,-85.638427734375,581.0,-1365.0,-2852.0,0.73345947265625,0.0040283203125,-0.03741455078125,-0.678680419921875,3.2555485128580206,-2.832730076347886,-84.21085265489947,0.7418571495914645,0.004502006878587957,-0.03737142670154165,-0.6695006183719204,1,	00:07:06.798,0.0693359375,0.017578125,1.01220703125,0.79345703125,2.44140625,-0.3662109375,1.0272216796875,-3.9166259765625,29.476318359375,-142.0,-920.0,-2028.0,-0.9664306640625,-0.017333984375,0.03076171875,-0.2545166015625,1.02548820786175,-3.9163950378137726,32.47312241828466,-0.9594308543499435,-0.01814078645992097,0.030305458641356614,-0.27972294643895423,1
1782115934.045235,0.157,1024.0,1024.0,1023.0,1024.0,1023.0,1023.0,1022.0,1023.0,1022.0,1023.0,1022.0,1023.0,1023.0,1023.0,1023.0,1024.0,1023.0,1023.0,1023.0,1023.0,1023.0,1023.0,1024.0,1023.0,1023.0,1023.0,1023.0,1022.0,1024.0,1023.0,1024.0,1022.0,1022.0,1023.0,1023.0,1023.0,1023.0,1023.0,1022.0,1024.0,1022.0,1022.0,1023.0,1023.0,1023.0,1023.0,1023.0,1023.0,1024.0,1022.0,1023.0,1023.0,1023.0,1023.0,1023.0,1023.0,1023.0,1023.0,1024.0,1022.0,1022.0,1023.0,1023.0,1023.0,1023.0,1023.0,1023.0,1022.0,1024.0,1022.0,1022.0,1023.0,1023.0,1023.0,1022.0,1023.0,1023.0,1023.0,1024.0,1022.0,1022.0,1023.0,1023.0,1023.0,1023.0,1022.0,1023.0,1023.0,1024.0,1022.0,1022.0,1023.0,1024.0,1023.0,1023.0,1023.0,1023.0,1023.0,1024.0,1023.0,1023.0,1023.0,1023.0,1024.0,1024.0,1023.0,1023.0,1023.0,1025.0,1023.0,1023.0,1024.0,1024.0,1023.0,1023.0,1023.0,1023.0,1023.0,1024.0,1021.0,1022.0,1023.0,1024.0,1023.0,1023.0,1023.0,1023.0,1024.0,1022.0,1023.0,1023.0,1023.0,1024.0,1023.0,1023.0,1024.0,1024.0,1024.0,1024.0,1024.0,1024.0,1024.0,1027.0,1024.0,1024.0,1024.0,1024.0,1024.0,1024.0,1027.0,1024.0,1024.0,1024.0,1024.0,1024.0,1024.0,1024.0,1025.0,1025.0,1025.0,1026.0,1024.0,1025.0,1025.0,1025.0,1025.0,1028.0,1024.0,1025.0,1026.0,1027.0,1027.0,1030.0,1025.0,1026.0,1027.0,1028.0,1027.0,1030.0,1025.0,1026.0,1027.0,1027.0,1026.0,1030.0,1024.0,1027.0,1027.0,1028.0,1026.0,1028.0,1024.0,1030.0,1031.0,1034.0,1029.0,1033.0,1025.0,1030.0,1029.0,1030.0,1026.0,1028.0,1024.0,1034.0,1032.0,1030.0,1027.0,1029.0,1025.0,1025.0,1023.0,1023.0,1022.0,1023.0,1021.0,1040.0,1036.0,1032.0,1027.0,1029.0,1026.0,1035.0,1031.0,1030.0,1026.0,1027.0,1023.0,1030.0,1027.0,1026.0,1024.0,1024.0,1900,1902,1906,	00:07:06.807,0.05078125,0.0595703125,1.01806640625,-0.06103515625,-0.1220703125,0.3662109375,3.3453369140625,-2.8509521484375,-85.638427734375,579.0,-1366.0,-2850.0,0.73345947265625,0.004486083984375,-0.0380859375,-0.67864990234375,3.3446897740770485,-2.8514855180484715,-84.21172047323668,0.7418485445813212,0.004969062367944108,-0.03801352223084908,-0.6694706994703827,1,	00:07:06.808,0.06884765625,0.01904296875,1.01220703125,0.9765625,1.953125,-0.244140625,1.1151123046875,-3.856201171875,29.46533203125,-142.0,-920.0,-2029.0,-0.9664306640625,-0.017974853515625,0.030059814453125,-0.254486083984375,1.1176502448306185,-3.8559853490033813,32.465456557279076,-0.9594532641064254,-0.018763298423930506,0.029575851093591673,-0.27968310935748353,1
1782115934.055836,0.168,1024.0,1024.0,1023.0,1024.0,1023.0,1023.0,1022.0,1023.0,1022.0,1023.0,1023.0,1023.0,1023.0,1023.0,1022.0,1024.0,1023.0,1023.0,1023.0,1023.0,1024.0,1022.0,1023.0,1022.0,1023.0,1023.0,1023.0,1023.0,1024.0,1022.0,1024.0,1022.0,1022.0,1023.0,1023.0,1023.0,1022.0,1023.0,1023.0,1024.0,1022.0,1022.0,1023.0,1024.0,1023.0,1023.0,1023.0,1023.0,1024.0,1022.0,1022.0,1023.0,1023.0,1023.0,1023.0,1023.0,1023.0,1022.0,1024.0,1022.0,1023.0,1023.0,1023.0,1023.0,1023.0,1023.0,1023.0,1022.0,1024.0,1022.0,1022.0,1023.0,1023.0,1023.0,1023.0,1022.0,1023.0,1023.0,1023.0,1022.0,1022.0,1023.0,1022.0,1023.0,1023.0,1023.0,1023.0,1023.0,1023.0,1022.0,1022.0,1024.0,1023.0,1023.0,1023.0,1023.0,1024.0,1023.0,1024.0,1023.0,1022.0,1023.0,1023.0,1023.0,1024.0,1023.0,1024.0,1023.0,1024.0,1023.0,1022.0,1023.0,1023.0,1022.0,1023.0,1023.0,1023.0,1022.0,1024.0,1021.0,1022.0,1023.0,1023.0,1023.0,1022.0,1023.0,1022.0,1024.0,1022.0,1023.0,1023.0,1023.0,1023.0,1024.0,1023.0,1024.0,1024.0,1023.0,1024.0,1024.0,1025.0,1024.0,1027.0,1024.0,1024.0,1024.0,1024.0,1024.0,1024.0,1026.0,1024.0,1023.0,1024.0,1024.0,1025.0,1024.0,1025.0,1024.0,1025.0,1025.0,1026.0,1025.0,1024.0,1024.0,1026.0,1026.0,1027.0,1024.0,1026.0,1025.0,1027.0,1028.0,1030.0,1025.0,1026.0,1026.0,1027.0,1026.0,1030.0,1024.0,1027.0,1027.0,1028.0,1026.0,1030.0,1024.0,1027.0,1026.0,1027.0,1026.0,1028.0,1024.0,1030.0,1032.0,1034.0,1029.0,1033.0,1026.0,1030.0,1029.0,1029.0,1026.0,1028.0,1024.0,1034.0,1032.0,1031.0,1027.0,1029.0,1024.0,1025.0,1022.0,1023.0,1022.0,1023.0,1021.0,1040.0,1035.0,1033.0,1028.0,1028.0,1026.0,1035.0,1030.0,1030.0,1026.0,1027.0,1024.0,1030.0,1026.0,1026.0,1024.0,1025.0,1897,1901,1906,	00:07:06.818,0.05078125,0.05810546875,1.01904296875,0.0,0.0,0.244140625,3.251953125,-2.845458984375,-85.6329345703125,582.0,-1367.0,-2849.0,0.733489990234375,0.003936767578125,-0.037506103515625,-0.67864990234375,3.253018704009692,-2.8479248966351736,-84.20472858467829,0.7418931129589517,0.004398716912671693,-0.037454656327767406,-0.6694568014091478,1,	00:07:06.819,0.06640625,0.0185546875,1.00341796875,1.15966796875,0.6103515625,-0.30517578125,1.0711669921875,-3.779296875,29.46533203125,-140.0,-919.0,-2030.0,-0.966461181640625,-0.017425537109375,0.029510498046875,-0.254486083984375,1.0710027156999735,-3.779325201533461,32.4664166796835,-0.9594816203224164,-0.018186273222905405,0.02904755863421828,-0.27967931469296076,1
1782115934.065982,0.178,1024.0,1023.0,1023.0,1023.0,1023.0,1024.0,1022.0,1023.0,1022.0,1023.0,1022.0,1023.0,1023.0,1023.0,1022.0,1024.0,1024.0,1023.0,1023.0,1023.0,1023.0,1023.0,1024.0,1022.0,1023.0,1023.0,1023.0,1023.0,1023.0,1023.0,1024.0,1022.0,1022.0,1023.0,1023.0,1023.0,1023.0,1023.0,1022.0,1024.0,1022.0,1022.0,1023.0,1023.0,1023.0,1023.0,1023.0,1023.0,1024.0,1023.0,1022.0,1023.0,1023.0,1023.0,1023.0,1023.0,1023.0,1022.0,1024.0,1022.0,1022.0,1023.0,1023.0,1024.0,1023.0,1023.0,1023.0,1023.0,1023.0,1022.0,1022.0,1023.0,1023.0,1023.0,1022.0,1023.0,1023.0,1023.0,1023.0,1022.0,1022.0,1023.0,1023.0,1023.0,1023.0,1023.0,1022.0,1023.0,1024.0,1023.0,1022.0,1023.0,1023.0,1023.0,1023.0,1023.0,1023.0,1023.0,1023.0,1023.0,1022.0,1023.0,1023.0,1024.0,1023.0,1023.0,1023.0,1023.0,1024.0,1024.0,1023.0,1023.0,1023.0,1023.0,1023.0,1023.0,1023.0,1022.0,1024.0,1021.0,1022.0,1023.0,1023.0,1023.0,1023.0,1023.0,1023.0,1023.0,1022.0,1023.0,1023.0,1023.0,1023.0,1023.0,1023.0,1024.0,1024.0,1024.0,1024.0,1024.0,1024.0,1024.0,1027.0,1024.0,1023.0,1024.0,1024.0,1024.0,1024.0,1026.0,1024.0,1024.0,1024.0,1024.0,1024.0,1024.0,1024.0,1024.0,1024.0,1025.0,1026.0,1024.0,1025.0,1025.0,1025.0,1025.0,1027.0,1025.0,1026.0,1025.0,1026.0,1026.0,1029.0,1025.0,1026.0,1026.0,1027.0,1026.0,1029.0,1024.0,1026.0,1026.0,1027.0,1026.0,1029.0,1024.0,1026.0,1026.0,1027.0,1025.0,1027.0,1024.0,1030.0,1032.0,1035.0,1029.0,1032.0,1025.0,1029.0,1028.0,1029.0,1026.0,1028.0,1024.0,1033.0,1032.0,1032.0,1027.0,1028.0,1024.0,1024.0,1023.0,1023.0,1022.0,1023.0,1021.0,1039.0,1036.0,1033.0,1028.0,1029.0,1025.0,1034.0,1031.0,1030.0,1026.0,1026.0,1024.0,1030.0,1027.0,1026.0,1024.0,1024.0,1894,1901,1906,	00:07:06.828,0.05078125,0.05908203125,1.01611328125,0.91552734375,0.30517578125,0.0,3.350830078125,-2.8564453125,-85.638427734375,578.0,-1363.0,-2852.0,0.73345947265625,0.0045166015625,-0.03814697265625,-0.67864990234375,3.3532116180048988,-2.8549820417208855,-84.20908504393293,0.7418636045458057,0.005004647022891863,-0.03808579979531223,-0.6694496378462179,1,	00:07:06.829,0.0625,0.021484375,1.0087890625,1.15966796875,-0.244140625,-0.42724609375,1.131591796875,-3.702392578125,29.4598388671875,-141.0,-919.0,-2028.0,-0.96649169921875,-0.01776123046875,0.02874755859375,-0.254425048828125,1.1319904084071954,-3.704316438712463,32.45889287346222,-0.9595124913858375,-0.018512392096271674,0.028271748141354826,-0.2796315047887999,1
1782115934.078192,0.190,1024.0,1023.0,1022.0,1024.0,1022.0,1023.0,1022.0,1023.0,1023.0,1024.0,1023.0,1023.0,1023.0,1023.0,1022.0,1024.0,1023.0,1023.0,1023.0,1022.0,1023.0,1022.0,1023.0,1022.0,1023.0,1023.0,1023.0,1023.0,1023.0,1022.0,1024.0,1022.0,1022.0,1023.0,1023.0,1023.0,1023.0,1023.0,1023.0,1023.0,1021.0,1022.0,1023.0,1023.0,1023.0,1023.0,1023.0,1023.0,1024.0,1022.0,1022.0,1023.0,1024.0,1023.0,1023.0,1023.0,1023.0,1023.0,1024.0,1022.0,1023.0,1023.0,1023.0,1023.0,1023.0,1022.0,1023.0,1022.0,1023.0,1021.0,1022.0,1023.0,1023.0,1023.0,1023.0,1023.0,1023.0,1023.0,1023.0,1022.0,1022.0,1023.0,1023.0,1022.0,1023.0,1023.0,1023.0,1023.0,1024.0,1022.0,1022.0,1023.0,1023.0,1023.0,1023.0,1024.0,1024.0,1023.0,1024.0,1022.0,1023.0,1023.0,1024.0,1024.0,1024.0,1024.0,1024.0,1023.0,1024.0,1023.0,1022.0,1023.0,1023.0,1023.0,1022.0,1023.0,1023.0,1023.0,1023.0,1021.0,1022.0,1023.0,1023.0,1023.0,1023.0,1023.0,1023.0,1023.0,1022.0,1023.0,1023.0,1023.0,1023.0,1023.0,1023.0,1023.0,1024.0,1024.0,1024.0,1024.0,1024.0,1023.0,1026.0,1024.0,1024.0,1024.0,1024.0,1024.0,1023.0,1025.0,1024.0,1023.0,1024.0,1024.0,1024.0,1024.0,1024.0,1024.0,1024.0,1025.0,1026.0,1024.0,1024.0,1024.0,1026.0,1026.0,1027.0,1024.0,1025.0,1026.0,1026.0,1027.0,1028.0,1025.0,1026.0,1026.0,1026.0,1026.0,1028.0,1024.0,1026.0,1026.0,1027.0,1026.0,1027.0,1024.0,1026.0,1027.0,1028.0,1027.0,1028.0,1024.0,1029.0,1032.0,1034.0,1030.0,1032.0,1025.0,1029.0,1029.0,1030.0,1027.0,1028.0,1024.0,1032.0,1032.0,1032.0,1027.0,1028.0,1024.0,1024.0,1023.0,1023.0,1023.0,1023.0,1021.0,1039.0,1035.0,1035.0,1028.0,1029.0,1026.0,1033.0,1030.0,1031.0,1026.0,1026.0,1024.0,1029.0,1026.0,1027.0,1025.0,1025.0,1890,1900,1906,	00:07:06.838,0.04931640625,0.06201171875,1.01318359375,0.79345703125,-0.48828125,-0.06103515625,3.4442138671875,-2.8179931640625,-85.6439208984375,582.0,-1365.0,-2845.0,0.733428955078125,0.00531005859375,-0.0384521484375,-0.67864990234375,3.4434635732757166,-2.81927968679688,-84.21405082820093,0.7418298679621149,0.005796182887119407,-0.03838247135799204,-0.6694636936800255,1,	00:07:06.839,0.0625,0.0224609375,1.01220703125,0.8544921875,-1.64794921875,-0.6103515625,1.197509765625,-3.6474609375,29.4488525390625,-139.0,-918.0,-2029.0,-0.966522216796875,-0.018218994140625,0.02813720703125,-0.254364013671875,1.198658972663023,-3.649424416077507,32.448754883854306,-0.9595424495748255,-0.01893453128183141,0.02765101367968994,-0.2795625018337876,1
1782115934.086886,0.199,1024.0,1024.0,1023.0,1024.0,1023.0,1023.0,1022.0,1022.0,1022.0,1023.0,1023.0,1023.0,1023.0,1023.0,1022.0,1023.0,1023.0,1023.0,1023.0,1023.0,1024.0,1023.0,1023.0,1022.0,1023.0,1023.0,1023.0,1022.0,1023.0,1023.0,1024.0,1022.0,1022.0,1024.0,1023.0,1023.0,1023.0,1023.0,1023.0,1023.0,1022.0,1023.0,1024.0,1023.0,1023.0,1022.0,1023.0,1023.0,1024.0,1023.0,1022.0,1023.0,1023.0,1023.0,1023.0,1023.0,1023.0,1022.0,1023.0,1022.0,1022.0,1023.0,1023.0,1023.0,1023.0,1023.0,1023.0,1023.0,1024.0,1023.0,1023.0,1023.0,1023.0,1024.0,1023.0,1023.0,1023.0,1023.0,1023.0,1021.0,1022.0,1023.0,1023.0,1023.0,1024.0,1023.0,1023.0,1023.0,1023.0,1022.0,1023.0,1022.0,1023.0,1024.0,1023.0,1023.0,1023.0,1023.0,1024.0,1023.0,1022.0,1022.0,1023.0,1024.0,1024.0,1023.0,1023.0,1023.0,1024.0,1024.0,1023.0,1023.0,1023.0,1023.0,1023.0,1022.0,1023.0,1022.0,1023.0,1021.0,1022.0,1023.0,1023.0,1023.0,1022.0,1023.0,1023.0,1023.0,1022.0,1023.0,1023.0,1024.0,1022.0,1024.0,1023.0,1024.0,1024.0,1023.0,1024.0,1024.0,1024.0,1024.0,1025.0,1024.0,1023.0,1024.0,1024.0,1024.0,1023.0,1025.0,1024.0,1024.0,1024.0,1024.0,1025.0,1024.0,1024.0,1024.0,1025.0,1024.0,1024.0,1024.0,1025.0,1024.0,1026.0,1025.0,1025.0,1024.0,1026.0,1025.0,1026.0,1026.0,1028.0,1024.0,1026.0,1025.0,1026.0,1025.0,1027.0,1024.0,1026.0,1026.0,1027.0,1025.0,1027.0,1024.0,1027.0,1026.0,1028.0,1024.0,1026.0,1024.0,1030.0,1031.0,1034.0,1028.0,1032.0,1025.0,1029.0,1029.0,1029.0,1025.0,1028.0,1024.0,1034.0,1032.0,1031.0,1027.0,1029.0,1025.0,1024.0,1023.0,1023.0,1023.0,1023.0,1021.0,1039.0,1035.0,1033.0,1028.0,1029.0,1025.0,1034.0,1030.0,1030.0,1026.0,1027.0,1024.0,1030.0,1026.0,1027.0,1024.0,1026.0,1886,1899,1906,	00:07:06.849,0.05029296875,0.0625,1.01416015625,1.03759765625,-0.67138671875,-0.06103515625,3.5430908203125,-2.8399658203125,-85.6494140625,581.0,-1365.0,-2849.0,0.7333984375,0.005828857421875,-0.0391845703125,-0.67864990234375,3.544117719044326,-2.841550652253075,-84.21952203349989,0.7417929971825772,0.006315592725865623,-0.03911477218152365,-0.6694574648299904,1,	00:07:06.850,0.0625,0.02294921875,1.0068359375,0.30517578125,-2.685546875,-0.67138671875,1.2689208984375,-3.614501953125,29.4378662109375,-140.0,-923.0,-2031.0,-0.966552734375,-0.01873779296875,0.027679443359375,-0.2542724609375,1.2697799171363724,-3.614116345139745,32.43718445908141,-0.9595690653166351,-0.0194413838614629,0.027183748207416744,-0.27948217351793014,1
1782115934.096422,0.209,1024.0,1024.0,1023.0,1023.0,1023.0,1023.0,1022.0,1023.0,1022.0,1023.0,1023.0,1023.0,1023.0,1023.0,1023.0,1023.0,1024.0,1023.0,1023.0,1023.0,1023.0,1022.0,1024.0,1022.0,1024.0,1023.0,1023.0,1023.0,1023.0,1022.0,1023.0,1022.0,1022.0,1024.0,1023.0,1023.0,1023.0,1023.0,1022.0,1023.0,1022.0,1022.0,1024.0,1023.0,1023.0,1023.0,1023.0,1023.0,1024.0,1022.0,1022.0,1023.0,1024.0,1023.0,1023.0,1023.0,1023.0,1023.0,1024.0,1022.0,1022.0,1023.0,1023.0,1023.0,1023.0,1023.0,1023.0,1023.0,1023.0,1022.0,1022.0,1023.0,1023.0,1023.0,1023.0,1022.0,1023.0,1022.0,1023.0,1022.0,1022.0,1023.0,1024.0,1023.0,1023.0,1023.0,1023.0,1023.0,1024.0,1022.0,1022.0,1024.0,1023.0,1023.0,1024.0,1023.0,1023.0,1023.0,1024.0,1022.0,1022.0,1023.0,1024.0,1023.0,1024.0,1023.0,1024.0,1023.0,1024.0,1023.0,1022.0,1023.0,1023.0,1023.0,1023.0,1023.0,1023.0,1022.0,1023.0,1021.0,1022.0,1024.0,1023.0,1024.0,1023.0,1022.0,1023.0,1024.0,1022.0,1023.0,1023.0,1024.0,1023.0,1023.0,1023.0,1024.0,1024.0,1024.0,1024.0,1024.0,1024.0,1024.0,1025.0,1024.0,1024.0,1024.0,1024.0,1024.0,1023.0,1026.0,1024.0,1024.0,1024.0,1024.0,1024.0,1024.0,1024.0,1024.0,1025.0,1023.0,1024.0,1024.0,1025.0,1025.0,1025.0,1025.0,1025.0,1024.0,1026.0,1025.0,1026.0,1025.0,1027.0,1024.0,1027.0,1026.0,1027.0,1025.0,1027.0,1024.0,1027.0,1026.0,1027.0,1025.0,1027.0,1023.0,1027.0,1026.0,1027.0,1025.0,1027.0,1024.0,1031.0,1031.0,1033.0,1028.0,1032.0,1025.0,1030.0,1028.0,1029.0,1026.0,1028.0,1024.0,1033.0,1032.0,1032.0,1026.0,1029.0,1024.0,1025.0,1023.0,1023.0,1022.0,1023.0,1021.0,1040.0,1035.0,1033.0,1027.0,1029.0,1025.0,1035.0,1031.0,1030.0,1025.0,1027.0,1024.0,1030.0,1026.0,1027.0,1024.0,1025.0,1883,1899,1906,	00:07:06.859,0.05078125,0.0625,1.01220703125,1.28173828125,-0.54931640625,-0.1220703125,3.5211181640625,-2.933349609375,-85.6494140625,580.0,-1366.0,-2849.0,0.7333984375,0.005157470703125,-0.03961181640625,-0.678619384765625,3.5207142483972467,-2.931134743356624,-84.21926415303133,0.7417972767576871,0.005639929982144501,-0.03955713381642529,-0.6694327632771682,1,	00:07:06.860,0.06298828125,0.02587890625,1.0009765625,-0.6103515625,-3.662109375,-0.79345703125,1.3568115234375,-3.6419677734375,29.42138671875,-141.0,-923.0,-2036.0,-0.966552734375,-0.019500732421875,0.027740478515625,-0.254180908203125,1.3558547277264,-3.6442086499643565,32.42262468196768,-0.9595808453914462,-0.02023190371117959,0.027228417357828372,-0.2793812529828138,1
1782115934.110587,0.223,1024.0,1024.0,1022.0,1024.0,1023.0,1023.0,1023.0,1023.0,1022.0,1023.0,1023.0,1023.0,1023.0,1023.0,1022.0,1024.0,1024.0,1023.0,1023.0,1022.0,1023.0,1023.0,1024.0,1022.0,1023.0,1023.0,1023.0,1022.0,1023.0,1023.0,1024.0,1022.0,1022.0,1023.0,1023.0,1023.0,1023.0,1022.0,1023.0,1023.0,1021.0,1022.0,1024.0,1023.0,1023.0,1023.0,1023.0,1022.0,1023.0,1022.0,1022.0,1023.0,1024.0,1023.0,1024.0,1022.0,1023.0,1023.0,1023.0,1022.0,1022.0,1023.0,1023.0,1023.0,1023.0,1023.0,1023.0,1023.0,1023.0,1022.0,1022.0,1023.0,1023.0,1022.0,1023.0,1023.0,1023.0,1023.0,1023.0,1022.0,1022.0,1023.0,1024.0,1022.0,1023.0,1023.0,1023.0,1022.0,1024.0,1022.0,1023.0,1023.0,1023.0,1023.0,1023.0,1023.0,1023.0,1023.0,1024.0,1023.0,1022.0,1023.0,1024.0,1023.0,1024.0,1023.0,1023.0,1022.0,1024.0,1023.0,1022.0,1024.0,1023.0,1023.0,1023.0,1023.0,1023.0,1022.0,1024.0,1021.0,1022.0,1023.0,1023.0,1023.0,1023.0,1023.0,1023.0,1023.0,1022.0,1023.0,1023.0,1024.0,1022.0,1023.0,1023.0,1024.0,1024.0,1024.0,1024.0,1023.0,1024.0,1024.0,1025.0,1024.0,1024.0,1024.0,1023.0,1024.0,1023.0,1024.0,1024.0,1024.0,1024.0,1024.0,1024.0,1024.0,1024.0,1024.0,1025.0,1024.0,1024.0,1024.0,1025.0,1024.0,1026.0,1024.0,1025.0,1024.0,1026.0,1025.0,1026.0,1025.0,1027.0,1025.0,1027.0,1026.0,1027.0,1025.0,1026.0,1024.0,1027.0,1026.0,1028.0,1025.0,1026.0,1024.0,1027.0,1026.0,1028.0,1025.0,1026.0,1024.0,1032.0,1032.0,1035.0,1028.0,1032.0,1025.0,1030.0,1029.0,1030.0,1026.0,1028.0,1024.0,1035.0,1032.0,1032.0,1026.0,1029.0,1024.0,1025.0,1023.0,1024.0,1022.0,1023.0,1021.0,1041.0,1035.0,1035.0,1027.0,1029.0,1026.0,1036.0,1030.0,1031.0,1025.0,1027.0,1024.0,1030.0,1025.0,1027.0,1024.0,1024.0,1879,1898,1906,	00:07:06.869,0.0498046875,0.0634765625,1.009765625,1.52587890625,-0.732421875,-0.30517578125,3.5870361328125,-2.8619384765625,-85.6549072265625,578.0,-1369.0,-2849.0,0.733367919921875,0.0059814453125,-0.039581298828125,-0.67864990234375,3.587486552796964,-2.8622631953644655,-84.22534946893374,0.7417569668509145,0.006473115022831662,-0.03950235510725482,-0.6694731248160846,1,	00:07:06.870,0.064453125,0.0244140625,0.990234375,-1.8310546875,-4.2724609375,-0.732421875,1.3897705078125,-3.7628173828125,29.410400390625,-142.0,-922.0,-2032.0,-0.966552734375,-0.02008056640625,0.028656005859375,-0.25408935546875,1.3914450848071769,-3.761119705821212,32.410846703169945,-0.9595681229188099,-0.020811320929552582,0.028122987070027035,-0.2792937593242963,1
1782115934.117655,0.230,1024.0,1024.0,1022.0,1024.0,1023.0,1023.0,1023.0,1023.0,1022.0,1024.0,1023.0,1024.0,1023.0,1023.0,1022.0,1023.0,1023.0,1023.0,1023.0,1022.0,1023.0,1022.0,1024.0,1022.0,1024.0,1023.0,1024.0,1023.0,1023.0,1022.0,1023.0,1022.0,1022.0,1024.0,1023.0,1023.0,1023.0,1022.0,1023.0,1023.0,1021.0,1022.0,1023.0,1023.0,1024.0,1023.0,1023.0,1022.0,1024.0,1023.0,1022.0,1023.0,1024.0,1023.0,1023.0,1022.0,1023.0,1022.0,1024.0,1023.0,1022.0,1023.0,1023.0,1024.0,1022.0,1023.0,1023.0,1023.0,1024.0,1022.0,1022.0,1023.0,1023.0,1023.0,1023.0,1022.0,1023.0,1022.0,1024.0,1021.0,1022.0,1023.0,1024.0,1023.0,1023.0,1023.0,1023.0,1023.0,1023.0,1022.0,1022.0,1023.0,1024.0,1023.0,1024.0,1023.0,1023.0,1023.0,1024.0,1022.0,1022.0,1023.0,1023.0,1023.0,1024.0,1023.0,1024.0,1023.0,1024.0,1023.0,1022.0,1023.0,1024.0,1023.0,1023.0,1023.0,1023.0,1023.0,1023.0,1022.0,1022.0,1023.0,1023.0,1023.0,1023.0,1023.0,1022.0,1023.0,1021.0,1024.0,1023.0,1023.0,1023.0,1023.0,1023.0,1024.0,1024.0,1023.0,1024.0,1024.0,1024.0,1023.0,1025.0,1024.0,1024.0,1024.0,1023.0,1023.0,1023.0,1025.0,1024.0,1024.0,1024.0,1023.0,1024.0,1023.0,1024.0,1024.0,1024.0,1024.0,1024.0,1023.0,1025.0,1024.0,1025.0,1024.0,1025.0,1024.0,1026.0,1025.0,1026.0,1025.0,1027.0,1024.0,1027.0,1026.0,1027.0,1025.0,1027.0,1024.0,1028.0,1026.0,1027.0,1025.0,1027.0,1024.0,1027.0,1026.0,1028.0,1025.0,1027.0,1024.0,1031.0,1031.0,1034.0,1028.0,1032.0,1026.0,1031.0,1029.0,1030.0,1026.0,1027.0,1024.0,1035.0,1032.0,1032.0,1026.0,1027.0,1024.0,1026.0,1023.0,1024.0,1022.0,1023.0,1021.0,1043.0,1036.0,1034.0,1028.0,1028.0,1025.0,1037.0,1031.0,1031.0,1026.0,1026.0,1024.0,1031.0,1027.0,1026.0,1024.0,1024.0,1876,1897,1906,	00:07:06.879,0.0498046875,0.0625,1.0126953125,1.5869140625,-0.8544921875,-0.30517578125,3.53759765625,-2.8070068359375,-85.6549072265625,582.0,-1366.0,-2848.0,0.733367919921875,0.0059814453125,-0.0389404296875,-0.6787109375,3.536618743099371,-2.808270746045699,-84.22561705285048,0.7417571000020586,0.006459737710883226,-0.038856169088027796,-0.6695109218743523,1,	00:07:06.881,0.0634765625,0.02197265625,0.99267578125,-3.0517578125,-4.638671875,-0.8544921875,1.2908935546875,-3.746337890625,29.4049072265625,-141.0,-922.0,-2035.0,-0.966583251953125,-0.019195556640625,0.028778076171875,-0.2540283203125,1.2912710671841956,-3.748517994009821,32.40575640386132,-0.9596021587389207,-0.01994058587021308,0.0282624668339399,-0.2792262576249167,1
1782115934.129988,0.242,1025.0,1023.0,1022.0,1024.0,1022.0,1023.0,1023.0,1023.0,1023.0,1023.0,1023.0,1023.0,1023.0,1022.0,1022.0,1024.0,1023.0,1023.0,1023.0,1023.0,1023.0,1023.0,1023.0,1023.0,1024.0,1023.0,1023.0,1022.0,1023.0,1022.0,1024.0,1023.0,1022.0,1024.0,1023.0,1023.0,1022.0,1023.0,1022.0,1023.0,1021.0,1022.0,1023.0,1023.0,1023.0,1023.0,1023.0,1023.0,1023.0,1022.0,1022.0,1023.0,1023.0,1024.0,1023.0,1023.0,1023.0,1023.0,1023.0,1022.0,1022.0,1023.0,1024.0,1023.0,1023.0,1022.0,1023.0,1022.0,1024.0,1022.0,1022.0,1024.0,1023.0,1023.0,1023.0,1023.0,1023.0,1022.0,1023.0,1022.0,1022.0,1023.0,1023.0,1023.0,1023.0,1023.0,1023.0,1022.0,1024.0,1022.0,1022.0,1023.0,1024.0,1023.0,1023.0,1023.0,1023.0,1023.0,1024.0,1022.0,1023.0,1023.0,1024.0,1023.0,1023.0,1023.0,1023.0,1023.0,1024.0,1022.0,1022.0,1023.0,1024.0,1023.0,1023.0,1022.0,1023.0,1023.0,1023.0,1020.0,1022.0,1024.0,1023.0,1023.0,1023.0,1023.0,1023.0,1023.0,1022.0,1024.0,1023.0,1023.0,1023.0,1023.0,1023.0,1023.0,1024.0,1023.0,1024.0,1023.0,1024.0,1024.0,1024.0,1024.0,1023.0,1024.0,1023.0,1024.0,1023.0,1024.0,1024.0,1024.0,1023.0,1024.0,1024.0,1023.0,1024.0,1024.0,1024.0,1024.0,1024.0,1023.0,1024.0,1024.0,1025.0,1025.0,1025.0,1024.0,1026.0,1025.0,1026.0,1025.0,1027.0,1025.0,1027.0,1026.0,1026.0,1025.0,1027.0,1024.0,1027.0,1026.0,1026.0,1025.0,1027.0,1024.0,1028.0,1027.0,1027.0,1025.0,1027.0,1024.0,1032.0,1032.0,1032.0,1028.0,1034.0,1026.0,1031.0,1029.0,1029.0,1026.0,1028.0,1024.0,1035.0,1032.0,1030.0,1027.0,1028.0,1025.0,1025.0,1023.0,1022.0,1023.0,1023.0,1022.0,1041.0,1036.0,1032.0,1028.0,1029.0,1026.0,1036.0,1031.0,1030.0,1026.0,1027.0,1024.0,1031.0,1027.0,1026.0,1024.0,1025.0,1873,1897,1906,	00:07:06.890,0.05078125,0.060546875,1.01318359375,1.3427734375,-0.79345703125,-0.3662109375,3.4661865234375,-2.8564453125,-85.6549072265625,579.0,-1370.0,-2850.0,0.733367919921875,0.0052490234375,-0.038818359375,-0.6787109375,3.467538923954065,-2.855587381868808,-84.22568590101373,0.7417612665022801,0.005735640244931033,-0.038758431507978135,-0.6695185657881008,1,	00:07:06.891,0.06982421875,0.01904296875,0.990234375,-3.72314453125,-4.57763671875,-0.79345703125,1.2030029296875,-3.8726806640625,29.3994140625,-144.0,-921.0,-2031.0,-0.966583251953125,-0.01873779296875,0.029998779296875,-0.25396728515625,1.203779586373118,-3.8703572797523513,32.40019052969333,-0.9595936150474328,-0.019502635607748592,0.02949709601820949,-0.279158848133179,1
1782115934.139619,0.252,1025.0,1023.0,1023.0,1024.0,1023.0,1023.0,1022.0,1023.0,1023.0,1024.0,1023.0,1023.0,1023.0,1024.0,1022.0,1024.0,1024.0,1024.0,1023.0,1023.0,1023.0,1022.0,1024.0,1022.0,1024.0,1024.0,1023.0,1023.0,1023.0,1023.0,1024.0,1023.0,1022.0,1023.0,1023.0,1023.0,1023.0,1023.0,1022.0,1023.0,1021.0,1022.0,1024.0,1023.0,1023.0,1023.0,1023.0,1023.0,1023.0,1022.0,1022.0,1023.0,1023.0,1023.0,1023.0,1023.0,1023.0,1023.0,1023.0,1023.0,1022.0,1023.0,1024.0,1023.0,1023.0,1022.0,1023.0,1023.0,1023.0,1022.0,1022.0,1024.0,1024.0,1023.0,1023.0,1023.0,1022.0,1022.0,1023.0,1021.0,1022.0,1023.0,1024.0,1023.0,1023.0,1023.0,1024.0,1023.0,1024.0,1022.0,1022.0,1023.0,1024.0,1023.0,1023.0,1023.0,1023.0,1023.0,1024.0,1023.0,1022.0,1023.0,1024.0,1023.0,1023.0,1022.0,1024.0,1023.0,1024.0,1023.0,1022.0,1023.0,1024.0,1023.0,1022.0,1023.0,1023.0,1022.0,1023.0,1021.0,1022.0,1024.0,1024.0,1023.0,1022.0,1024.0,1023.0,1023.0,1023.0,1024.0,1023.0,1023.0,1023.0,1024.0,1023.0,1023.0,1024.0,1024.0,1024.0,1024.0,1023.0,1023.0,1024.0,1024.0,1024.0,1023.0,1024.0,1024.0,1023.0,1024.0,1024.0,1024.0,1023.0,1024.0,1024.0,1023.0,1024.0,1024.0,1024.0,1024.0,1024.0,1024.0,1025.0,1025.0,1024.0,1025.0,1026.0,1024.0,1026.0,1026.0,1026.0,1025.0,1027.0,1025.0,1027.0,1026.0,1026.0,1025.0,1027.0,1024.0,1027.0,1026.0,1026.0,1025.0,1028.0,1024.0,1028.0,1027.0,1027.0,1025.0,1027.0,1024.0,1032.0,1031.0,1032.0,1030.0,1032.0,1026.0,1031.0,1029.0,1028.0,1026.0,1029.0,1024.0,1034.0,1032.0,1030.0,1027.0,1029.0,1025.0,1025.0,1022.0,1023.0,1022.0,1023.0,1021.0,1041.0,1034.0,1032.0,1027.0,1030.0,1026.0,1036.0,1031.0,1029.0,1027.0,1028.0,1024.0,1031.0,1025.0,1026.0,1024.0,1025.0,1870,1896,1906,	00:07:06.900,0.05126953125,0.05859375,1.01611328125,1.03759765625,-0.732421875,-0.30517578125,3.3892822265625,-2.87841796875,-85.6549072265625,578.0,-1369.0,-2852.0,0.733367919921875,0.004608154296875,-0.038482666015625,-0.6787109375,3.3876918640632097,-2.8779212181811826,-84.22466050770318,0.7417713211927011,0.005088418640109523,-0.03843623442972002,-0.6695312322324039,1,	00:07:06.901,0.072265625,0.01806640625,0.9892578125,-3.96728515625,-3.662109375,-0.6103515625,1.12060546875,-3.988037109375,29.3994140625,-143.0,-923.0,-2025.0,-0.966552734375,-0.018310546875,0.031158447265625,-0.25390625,1.1227699756266767,-3.988344962855419,32.39620848378869,-0.9595801529058222,-0.01910993368467398,0.03068332288809753,-0.27910441465578983,1
1782115934.148391,0.261,1024.0,1023.0,1023.0,1024.0,1023.0,1023.0,1023.0,1023.0,1022.0,1024.0,1023.0,1023.0,1023.0,1023.0,1022.0,1023.0,1024.0,1023.0,1023.0,1023.0,1023.0,1022.0,1023.0,1022.0,1024.0,1023.0,1024.0,1024.0,1023.0,1022.0,1024.0,1022.0,1022.0,1024.0,1023.0,1022.0,1023.0,1023.0,1023.0,1024.0,1022.0,1022.0,1024.0,1023.0,1023.0,1023.0,1023.0,1023.0,1023.0,1022.0,1023.0,1023.0,1024.0,1023.0,1023.0,1023.0,1024.0,1022.0,1023.0,1022.0,1023.0,1023.0,1024.0,1023.0,1023.0,1023.0,1023.0,1023.0,1023.0,1022.0,1022.0,1023.0,1024.0,1023.0,1023.0,1023.0,1024.0,1023.0,1024.0,1021.0,1022.0,1023.0,1023.0,1023.0,1023.0,1023.0,1023.0,1023.0,1024.0,1022.0,1022.0,1023.0,1023.0,1023.0,1023.0,1024.0,1023.0,1023.0,1024.0,1022.0,1023.0,1023.0,1024.0,1023.0,1024.0,1023.0,1023.0,1023.0,1024.0,1023.0,1022.0,1023.0,1023.0,1023.0,1023.0,1023.0,1022.0,1022.0,1023.0,1021.0,1022.0,1024.0,1023.0,1023.0,1023.0,1023.0,1023.0,1023.0,1022.0,1024.0,1023.0,1023.0,1023.0,1023.0,1023.0,1024.0,1024.0,1024.0,1023.0,1024.0,1024.0,1023.0,1025.0,1024.0,1024.0,1024.0,1024.0,1023.0,1024.0,1024.0,1024.0,1023.0,1024.0,1023.0,1024.0,1023.0,1024.0,1024.0,1024.0,1024.0,1025.0,1023.0,1025.0,1025.0,1024.0,1024.0,1025.0,1024.0,1026.0,1026.0,1025.0,1025.0,1027.0,1025.0,1027.0,1026.0,1026.0,1025.0,1027.0,1024.0,1027.0,1026.0,1026.0,1025.0,1028.0,1024.0,1029.0,1027.0,1027.0,1025.0,1028.0,1024.0,1033.0,1032.0,1032.0,1028.0,1033.0,1026.0,1032.0,1030.0,1028.0,1026.0,1028.0,1024.0,1035.0,1032.0,1029.0,1027.0,1029.0,1024.0,1025.0,1023.0,1023.0,1022.0,1024.0,1021.0,1042.0,1035.0,1031.0,1028.0,1030.0,1025.0,1037.0,1031.0,1029.0,1026.0,1027.0,1024.0,1031.0,1026.0,1025.0,1024.0,1025.0,1868,1895,1906,	00:07:06.910,0.05078125,0.06005859375,1.0166015625,0.6103515625,-0.42724609375,-0.18310546875,3.3673095703125,-2.7960205078125,-85.6549072265625,579.0,-1370.0,-2847.0,0.733367919921875,0.004974365234375,-0.037841796875,-0.67877197265625,3.3685006869980203,-2.7941780558927474,-84.22548230734589,0.7417663719516465,0.005454014721637648,-0.03778277190701404,-0.6695710308190838,1,	00:07:06.911,0.072265625,0.0185546875,0.99072265625,-3.96728515625,-2.74658203125,-0.42724609375,1.0601806640625,-4.1033935546875,29.3939208984375,-145.0,-919.0,-2022.0,-0.966522216796875,-0.01800537109375,0.03228759765625,-0.25384521484375,1.0593727807561488,-4.104010934843226,32.39312462809795,-0.9595612702133766,-0.018859262968008744,0.031806991831841734,-0.2790605887211663,1
1782115934.158768,0.271,1025.0,1023.0,1022.0,1024.0,1023.0,1023.0,1023.0,1023.0,1022.0,1024.0,1023.0,1023.0,1023.0,1023.0,1022.0,1023.0,1024.0,1023.0,1023.0,1023.0,1024.0,1022.0,1024.0,1023.0,1024.0,1023.0,1023.0,1023.0,1023.0,1023.0,1024.0,1022.0,1022.0,1024.0,1023.0,1023.0,1023.0,1023.0,1023.0,1023.0,1022.0,1022.0,1024.0,1023.0,1023.0,1023.0,1023.0,1022.0,1023.0,1022.0,1022.0,1022.0,1024.0,1023.0,1023.0,1023.0,1023.0,1023.0,1024.0,1022.0,1022.0,1023.0,1023.0,1023.0,1023.0,1023.0,1023.0,1023.0,1024.0,1021.0,1022.0,1023.0,1023.0,1023.0,1023.0,1023.0,1023.0,1022.0,1023.0,1021.0,1022.0,1023.0,1024.0,1024.0,1023.0,1023.0,1023.0,1023.0,1024.0,1022.0,1022.0,1024.0,1023.0,1023.0,1023.0,1023.0,1023.0,1023.0,1024.0,1023.0,1023.0,1023.0,1024.0,1024.0,1023.0,1023.0,1024.0,1022.0,1024.0,1022.0,1022.0,1023.0,1024.0,1023.0,1023.0,1023.0,1023.0,1022.0,1023.0,1021.0,1022.0,1023.0,1023.0,1023.0,1023.0,1024.0,1023.0,1024.0,1022.0,1024.0,1023.0,1023.0,1023.0,1023.0,1023.0,1024.0,1024.0,1023.0,1024.0,1024.0,1024.0,1024.0,1024.0,1024.0,1024.0,1023.0,1024.0,1024.0,1023.0,1025.0,1024.0,1023.0,1024.0,1024.0,1024.0,1023.0,1025.0,1025.0,1024.0,1024.0,1024.0,1023.0,1026.0,1025.0,1024.0,1024.0,1025.0,1024.0,1027.0,1026.0,1025.0,1026.0,1027.0,1024.0,1027.0,1026.0,1026.0,1026.0,1028.0,1024.0,1028.0,1027.0,1026.0,1025.0,1028.0,1024.0,1029.0,1028.0,1027.0,1026.0,1028.0,1024.0,1033.0,1033.0,1032.0,1029.0,1033.0,1026.0,1032.0,1030.0,1028.0,1025.0,1028.0,1024.0,1037.0,1032.0,1029.0,1026.0,1029.0,1025.0,1026.0,1023.0,1022.0,1022.0,1023.0,1021.0,1044.0,1037.0,1031.0,1027.0,1028.0,1025.0,1038.0,1032.0,1028.0,1026.0,1027.0,1024.0,1032.0,1027.0,1026.0,1024.0,1024.0,1866,1894,1906,	00:07:06.921,0.05029296875,0.0595703125,1.01611328125,0.1220703125,-0.3662109375,-0.1220703125,3.3343505859375,-2.8839111328125,-85.6549072265625,579.0,-1370.0,-2849.0,0.733367919921875,0.004241943359375,-0.038238525390625,-0.678741455078125,3.3367720996165064,-2.8832670902544093,-84.22528348756782,0.7417699100570773,0.004727311961799314,-0.03817330335531422,-0.6695504850020456,1,	00:07:06.922,0.07177734375,0.01806640625,0.99267578125,-3.96728515625,-1.89208984375,-0.30517578125,0.977783203125,-4.2022705078125,29.3939208984375,-144.0,-920.0,-2025.0,-0.966522216796875,-0.017547607421875,0.0333251953125,-0.253814697265625,0.9764521678606275,-4.203475666009905,32.392899479414744,-0.9595429456862921,-0.018406524159388333,0.03284199333112826,-0.2790339383051494,1
1782115934.168854,0.281,1026.0,1023.0,1023.0,1024.0,1023.0,1023.0,1023.0,1022.0,1023.0,1024.0,1022.0,1023.0,1023.0,1023.0,1022.0,1024.0,1024.0,1023.0,1022.0,1023.0,1023.0,1023.0,1024.0,1022.0,1024.0,1023.0,1023.0,1023.0,1023.0,1023.0,1024.0,1022.0,1022.0,1023.0,1023.0,1022.0,1023.0,1023.0,1022.0,1023.0,1021.0,1022.0,1024.0,1023.0,1023.0,1023.0,1023.0,1023.0,1023.0,1022.0,1022.0,1023.0,1024.0,1023.0,1023.0,1023.0,1023.0,1023.0,1023.0,1022.0,1023.0,1023.0,1024.0,1023.0,1022.0,1023.0,1023.0,1023.0,1022.0,1022.0,1022.0,1023.0,1024.0,1023.0,1022.0,1023.0,1023.0,1023.0,1023.0,1022.0,1022.0,1023.0,1024.0,1024.0,1023.0,1022.0,1022.0,1023.0,1024.0,1022.0,1022.0,1023.0,1024.0,1024.0,1023.0,1023.0,1023.0,1023.0,1024.0,1023.0,1022.0,1023.0,1024.0,1023.0,1023.0,1024.0,1023.0,1023.0,1024.0,1023.0,1022.0,1023.0,1024.0,1023.0,1023.0,1022.0,1023.0,1023.0,1024.0,1021.0,1022.0,1024.0,1024.0,1022.0,1022.0,1023.0,1023.0,1024.0,1022.0,1024.0,1024.0,1023.0,1023.0,1023.0,1022.0,1024.0,1024.0,1024.0,1024.0,1023.0,1024.0,1024.0,1024.0,1024.0,1023.0,1023.0,1023.0,1024.0,1023.0,1024.0,1024.0,1024.0,1023.0,1023.0,1023.0,1023.0,1026.0,1024.0,1024.0,1024.0,1024.0,1024.0,1026.0,1025.0,1024.0,1024.0,1025.0,1024.0,1027.0,1026.0,1025.0,1025.0,1027.0,1024.0,1028.0,1026.0,1026.0,1025.0,1028.0,1024.0,1029.0,1027.0,1025.0,1025.0,1028.0,1024.0,1030.0,1027.0,1026.0,1026.0,1027.0,1024.0,1035.0,1034.0,1031.0,1030.0,1031.0,1025.0,1034.0,1031.0,1027.0,1025.0,1028.0,1024.0,1038.0,1033.0,1028.0,1026.0,1028.0,1025.0,1027.0,1023.0,1022.0,1022.0,1023.0,1021.0,1044.0,1035.0,1030.0,1026.0,1028.0,1025.0,1040.0,1032.0,1029.0,1026.0,1026.0,1024.0,1033.0,1026.0,1024.0,1024.0,1024.0,1864,1892,1906,	00:07:06.931,0.05126953125,0.06103515625,1.015625,-0.1220703125,-0.67138671875,0.0,3.427734375,-2.889404296875,-85.660400390625,578.0,-1372.0,-2847.0,0.73333740234375,0.004791259765625,-0.038818359375,-0.678741455078125,3.4271892453079844,-2.89123988023165,-84.2302895343295,0.7417367948995662,0.005264242414137672,-0.038753361104802216,-0.6695498426905981,1,	00:07:06.932,0.06982421875,0.017578125,0.9931640625,-4.0283203125,-1.28173828125,-0.244140625,0.955810546875,-4.1253662109375,29.388427734375,-147.0,-918.0,-2020.0,-0.966552734375,-0.017181396484375,0.03271484375,-0.2537841796875,0.9547838157148244,-4.126650836523088,32.3888679163647,-0.9595811771309662,-0.01803726995651042,0.03225196673286409,-0.27899539786585614,1
1782115934.180458,0.293,1025.0,1023.0,1023.0,1024.0,1023.0,1022.0,1023.0,1024.0,1022.0,1024.0,1024.0,1023.0,1023.0,1023.0,1022.0,1024.0,1024.0,1023.0,1023.0,1023.0,1023.0,1023.0,1024.0,1023.0,1024.0,1023.0,1023.0,1023.0,1023.0,1023.0,1023.0,1022.0,1022.0,1023.0,1023.0,1023.0,1023.0,1023.0,1023.0,1023.0,1022.0,1023.0,1023.0,1023.0,1022.0,1023.0,1023.0,1023.0,1024.0,1022.0,1022.0,1023.0,1024.0,1023.0,1022.0,1023.0,1023.0,1023.0,1024.0,1022.0,1022.0,1023.0,1024.0,1023.0,1023.0,1022.0,1023.0,1023.0,1023.0,1022.0,1022.0,1023.0,1024.0,1023.0,1022.0,1022.0,1023.0,1023.0,1023.0,1022.0,1022.0,1023.0,1024.0,1023.0,1023.0,1023.0,1023.0,1023.0,1024.0,1023.0,1023.0,1023.0,1024.0,1024.0,1023.0,1022.0,1023.0,1023.0,1024.0,1023.0,1022.0,1023.0,1024.0,1023.0,1022.0,1023.0,1024.0,1023.0,1024.0,1023.0,1023.0,1023.0,1024.0,1023.0,1023.0,1023.0,1022.0,1023.0,1023.0,1020.0,1023.0,1024.0,1023.0,1023.0,1023.0,1023.0,1023.0,1023.0,1022.0,1024.0,1023.0,1023.0,1023.0,1023.0,1023.0,1023.0,1024.0,1024.0,1024.0,1023.0,1024.0,1023.0,1024.0,1024.0,1024.0,1023.0,1024.0,1024.0,1023.0,1024.0,1024.0,1024.0,1024.0,1024.0,1024.0,1023.0,1024.0,1024.0,1024.0,1025.0,1024.0,1024.0,1025.0,1025.0,1024.0,1025.0,1025.0,1024.0,1026.0,1026.0,1025.0,1027.0,1027.0,1024.0,1027.0,1027.0,1025.0,1026.0,1028.0,1024.0,1028.0,1027.0,1026.0,1026.0,1028.0,1024.0,1029.0,1028.0,1026.0,1026.0,1029.0,1025.0,1034.0,1035.0,1029.0,1028.0,1032.0,1026.0,1034.0,1031.0,1027.0,1025.0,1028.0,1024.0,1038.0,1033.0,1028.0,1026.0,1028.0,1024.0,1026.0,1023.0,1022.0,1023.0,1023.0,1021.0,1045.0,1036.0,1030.0,1028.0,1028.0,1025.0,1040.0,1032.0,1029.0,1026.0,1026.0,1024.0,1033.0,1026.0,1025.0,1024.0,1024.0,1863,1891,1906,	00:07:06.941,0.05029296875,0.05859375,1.01318359375,-0.67138671875,-1.0986328125,0.06103515625,3.33984375,-2.8619384765625,-85.6549072265625,580.0,-1370.0,-2853.0,0.733367919921875,0.004364013671875,-0.038116455078125,-0.678741455078125,3.337397766582551,-2.8638675806276925,-84.22616796585707,0.7417645589671606,0.004844602196294197,-0.038051586079087714,-0.6695625031964372,1,	00:07:06.943,0.06982421875,0.017578125,0.98779296875,-4.150390625,-0.91552734375,-0.244140625,0.966796875,-4.06494140625,29.3829345703125,-144.0,-918.0,-2017.0,-0.966583251953125,-0.017181396484375,0.032135009765625,-0.253753662109375,0.9694290853538604,-4.063168888985,32.382248326340125,-0.9596152919765207,-0.01800383774978331,0.03168565894093807,-0.2789451061563452,1
1782115934.192044,0.304,1026.0,1022.0,1023.0,1024.0,1023.0,1022.0,1022.0,1023.0,1022.0,1024.0,1024.0,1023.0,1023.0,1023.0,1022.0,1024.0,1024.0,1023.0,1023.0,1023.0,1023.0,1022.0,1023.0,1022.0,1024.0,1023.0,1023.0,1023.0,1023.0,1022.0,1024.0,1022.0,1023.0,1024.0,1023.0,1023.0,1023.0,1023.0,1022.0,1023.0,1021.0,1022.0,1024.0,1023.0,1023.0,1023.0,1023.0,1023.0,1023.0,1022.0,1023.0,1024.0,1024.0,1023.0,1022.0,1023.0,1023.0,1022.0,1023.0,1022.0,1022.0,1023.0,1023.0,1023.0,1022.0,1022.0,1023.0,1022.0,1023.0,1022.0,1022.0,1023.0,1024.0,1023.0,1022.0,1023.0,1022.0,1023.0,1023.0,1022.0,1022.0,1023.0,1024.0,1023.0,1023.0,1023.0,1023.0,1022.0,1023.0,1023.0,1022.0,1023.0,1024.0,1023.0,1023.0,1023.0,1023.0,1022.0,1024.0,1022.0,1022.0,1023.0,1024.0,1023.0,1023.0,1023.0,1024.0,1023.0,1024.0,1023.0,1022.0,1023.0,1023.0,1023.0,1022.0,1022.0,1023.0,1023.0,1023.0,1021.0,1022.0,1024.0,1023.0,1023.0,1023.0,1023.0,1023.0,1024.0,1022.0,1024.0,1023.0,1023.0,1023.0,1023.0,1023.0,1023.0,1024.0,1024.0,1023.0,1024.0,1024.0,1023.0,1025.0,1025.0,1023.0,1023.0,1024.0,1024.0,1023.0,1024.0,1024.0,1024.0,1024.0,1023.0,1024.0,1024.0,1025.0,1024.0,1024.0,1024.0,1024.0,1024.0,1026.0,1025.0,1024.0,1024.0,1025.0,1024.0,1027.0,1026.0,1025.0,1026.0,1027.0,1025.0,1029.0,1027.0,1025.0,1026.0,1028.0,1025.0,1030.0,1027.0,1025.0,1026.0,1029.0,1025.0,1032.0,1029.0,1027.0,1026.0,1028.0,1026.0,1036.0,1034.0,1030.0,1028.0,1032.0,1027.0,1035.0,1032.0,1027.0,1025.0,1027.0,1025.0,1040.0,1034.0,1028.0,1026.0,1028.0,1024.0,1026.0,1024.0,1022.0,1022.0,1023.0,1021.0,1046.0,1037.0,1029.0,1027.0,1028.0,1026.0,1041.0,1034.0,1028.0,1026.0,1027.0,1025.0,1034.0,1027.0,1025.0,1024.0,1024.0,1862,1890,1906,	00:07:06.952,0.0517578125,0.05908203125,1.013671875,-1.89208984375,-1.89208984375,0.244140625,3.31787109375,-2.9718017578125,-85.6549072265625,576.0,-1370.0,-2848.0,0.733367919921875,0.003570556640625,-0.0386962890625,-0.6787109375,3.3155731287038863,-2.97441774779824,-84.2246677672114,0.7417747220260249,0.004056842191402267,-0.038638662029889866,-0.6695228581543633,1,	00:07:06.953,0.0673828125,0.01611328125,0.99462890625,-4.39453125,-0.6103515625,-0.18310546875,0.9063720703125,-3.9825439453125,29.3829345703125,-146.0,-916.0,-2014.0,-0.96661376953125,-0.016448974609375,0.031585693359375,-0.25372314453125,0.9059948568510926,-3.9799252639197444,32.381653783723614,-0.9596526360651827,-0.017270224056052164,0.031142929071212265,-0.2789241391903277,1
1782115934.200367,0.313,1026.0,1023.0,1022.0,1025.0,1023.0,1022.0,1022.0,1023.0,1022.0,1024.0,1023.0,1023.0,1022.0,1022.0,1023.0,1023.0,1024.0,1023.0,1023.0,1022.0,1023.0,1022.0,1023.0,1023.0,1025.0,1024.0,1022.0,1023.0,1023.0,1022.0,1023.0,1022.0,1023.0,1024.0,1023.0,1022.0,1023.0,1023.0,1023.0,1023.0,1021.0,1022.0,1024.0,1024.0,1023.0,1023.0,1023.0,1022.0,1024.0,1022.0,1023.0,1024.0,1024.0,1023.0,1023.0,1023.0,1023.0,1023.0,1024.0,1022.0,1022.0,1023.0,1024.0,1023.0,1023.0,1023.0,1023.0,1023.0,1023.0,1022.0,1023.0,1023.0,1023.0,1023.0,1023.0,1022.0,1023.0,1023.0,1023.0,1021.0,1022.0,1023.0,1024.0,1023.0,1023.0,1023.0,1023.0,1023.0,1024.0,1023.0,1022.0,1023.0,1024.0,1023.0,1023.0,1023.0,1024.0,1023.0,1024.0,1023.0,1022.0,1023.0,1024.0,1023.0,1023.0,1023.0,1023.0,1023.0,1024.0,1023.0,1023.0,1023.0,1024.0,1023.0,1023.0,1023.0,1023.0,1023.0,1023.0,1021.0,1022.0,1024.0,1024.0,1023.0,1022.0,1023.0,1022.0,1024.0,1022.0,1024.0,1023.0,1023.0,1023.0,1023.0,1022.0,1024.0,1024.0,1024.0,1023.0,1023.0,1024.0,1024.0,1024.0,1025.0,1024.0,1024.0,1023.0,1024.0,1023.0,1024.0,1024.0,1024.0,1024.0,1023.0,1024.0,1023.0,1025.0,1025.0,1024.0,1024.0,1025.0,1024.0,1026.0,1025.0,1024.0,1024.0,1026.0,1024.0,1027.0,1026.0,1025.0,1026.0,1027.0,1024.0,1028.0,1027.0,1026.0,1025.0,1028.0,1024.0,1030.0,1028.0,1026.0,1026.0,1028.0,1024.0,1032.0,1029.0,1027.0,1026.0,1029.0,1025.0,1036.0,1035.0,1031.0,1029.0,1032.0,1026.0,1036.0,1032.0,1028.0,1025.0,1028.0,1024.0,1041.0,1035.0,1029.0,1026.0,1028.0,1024.0,1026.0,1024.0,1022.0,1022.0,1022.0,1021.0,1048.0,1039.0,1031.0,1027.0,1027.0,1026.0,1043.0,1035.0,1028.0,1027.0,1026.0,1024.0,1035.0,1028.0,1025.0,1024.0,1025.0,1862,1889,1906,	00:07:06.962,0.0517578125,0.05859375,1.01611328125,-2.86865234375,-2.50244140625,0.30517578125,3.262939453125,-2.911376953125,-85.6494140625,577.0,-1370.0,-2849.0,0.7333984375,0.003631591796875,-0.037994384765625,-0.678741455078125,3.2653156878295233,-2.910638206129032,-84.22197918127472,0.7417921055648794,0.0041056685176185884,-0.03793261043125839,-0.6695436749559485,1,	00:07:06.963,0.0673828125,0.01318359375,1.01025390625,-4.08935546875,-0.91552734375,-0.3662109375,0.802001953125,-3.922119140625,29.3829345703125,-144.0,-919.0,-2014.0,-0.966644287109375,-0.01544189453125,0.031341552734375,-0.253692626953125,0.8017925300549446,-3.923057221300351,32.38219870927375,-0.9596840156503121,-0.01625953932802557,0.03092015193807517,-0.2789017061444012,1
1782115934.212106,0.324,1026.0,1022.0,1022.0,1024.0,1023.0,1022.0,1022.0,1023.0,1022.0,1024.0,1023.0,1023.0,1023.0,1023.0,1023.0,1024.0,1024.0,1023.0,1022.0,1023.0,1023.0,1023.0,1023.0,1022.0,1024.0,1023.0,1023.0,1023.0,1023.0,1022.0,1024.0,1023.0,1022.0,1024.0,1024.0,1023.0,1023.0,1023.0,1023.0,1023.0,1021.0,1022.0,1024.0,1023.0,1023.0,1023.0,1023.0,1023.0,1023.0,1022.0,1023.0,1023.0,1024.0,1023.0,1023.0,1023.0,1024.0,1022.0,1024.0,1022.0,1022.0,1023.0,1024.0,1023.0,1023.0,1023.0,1023.0,1023.0,1023.0,1022.0,1022.0,1023.0,1024.0,1023.0,1023.0,1023.0,1023.0,1022.0,1023.0,1021.0,1022.0,1023.0,1024.0,1023.0,1023.0,1023.0,1023.0,1023.0,1024.0,1023.0,1023.0,1023.0,1024.0,1023.0,1023.0,1024.0,1024.0,1023.0,1023.0,1023.0,1023.0,1024.0,1024.0,1024.0,1023.0,1024.0,1023.0,1023.0,1024.0,1022.0,1022.0,1023.0,1024.0,1023.0,1022.0,1023.0,1023.0,1023.0,1023.0,1021.0,1022.0,1024.0,1023.0,1024.0,1023.0,1023.0,1023.0,1023.0,1022.0,1024.0,1023.0,1023.0,1023.0,1023.0,1022.0,1023.0,1025.0,1024.0,1023.0,1023.0,1024.0,1023.0,1025.0,1024.0,1024.0,1023.0,1023.0,1024.0,1024.0,1024.0,1025.0,1024.0,1023.0,1024.0,1024.0,1023.0,1025.0,1024.0,1024.0,1024.0,1025.0,1024.0,1026.0,1025.0,1025.0,1025.0,1025.0,1024.0,1027.0,1027.0,1025.0,1026.0,1028.0,1025.0,1029.0,1028.0,1026.0,1026.0,1028.0,1024.0,1030.0,1028.0,1028.0,1026.0,1029.0,1024.0,1032.0,1031.0,1029.0,1027.0,1028.0,1025.0,1038.0,1036.0,1031.0,1028.0,1032.0,1026.0,1037.0,1032.0,1028.0,1026.0,1028.0,1024.0,1043.0,1035.0,1029.0,1026.0,1028.0,1026.0,1027.0,1024.0,1022.0,1022.0,1022.0,1021.0,1050.0,1040.0,1029.0,1027.0,1028.0,1027.0,1045.0,1037.0,1029.0,1026.0,1027.0,1024.0,1037.0,1028.0,1026.0,1025.0,1025.0,1863,1888,1905,	00:07:06.972,0.05224609375,0.05615234375,1.0185546875,-2.685546875,-1.89208984375,0.244140625,3.1475830078125,-2.9498291015625,-85.6439208984375,573.0,-1366.0,-2851.0,0.733428955078125,0.002655029296875,-0.037506103515625,-0.6787109375,3.148370773380755,-2.947119273032274,-84.21600944123777,0.7418306192514238,0.0031370970158170687,-0.03748498980142266,-0.6695314529601651,1,	00:07:06.974,0.0673828125,0.01416015625,1.01953125,-3.47900390625,-1.708984375,-0.48828125,0.7635498046875,-3.8507080078125,29.37744140625,-145.0,-918.0,-2009.0,-0.966705322265625,-0.01495361328125,0.030792236328125,-0.253631591796875,0.7634478192432634,-3.8487013877115968,32.37730719371822,-0.9597236381694146,-0.015756425638707553,0.030391339670742073,-0.27885236212550185,1
1782115934.221138,0.333,1026.0,1023.0,1022.0,1025.0,1023.0,1023.0,1023.0,1022.0,1022.0,1024.0,1023.0,1023.0,1022.0,1023.0,1022.0,1023.0,1024.0,1024.0,1023.0,1023.0,1023.0,1022.0,1023.0,1022.0,1024.0,1023.0,1023.0,1023.0,1023.0,1022.0,1023.0,1022.0,1022.0,1024.0,1024.0,1023.0,1022.0,1023.0,1022.0,1023.0,1022.0,1023.0,1024.0,1023.0,1023.0,1023.0,1024.0,1023.0,1023.0,1022.0,1023.0,1023.0,1024.0,1024.0,1022.0,1023.0,1023.0,1022.0,1023.0,1022.0,1022.0,1023.0,1024.0,1023.0,1022.0,1023.0,1023.0,1022.0,1023.0,1022.0,1022.0,1023.0,1024.0,1023.0,1023.0,1023.0,1023.0,1023.0,1023.0,1022.0,1022.0,1023.0,1024.0,1023.0,1023.0,1023.0,1023.0,1022.0,1023.0,1023.0,1022.0,1023.0,1024.0,1023.0,1023.0,1023.0,1024.0,1023.0,1023.0,1023.0,1022.0,1023.0,1024.0,1024.0,1023.0,1024.0,1023.0,1022.0,1023.0,1023.0,1022.0,1023.0,1024.0,1023.0,1023.0,1022.0,1023.0,1023.0,1023.0,1021.0,1022.0,1024.0,1023.0,1023.0,1023.0,1023.0,1023.0,1024.0,1022.0,1024.0,1023.0,1023.0,1023.0,1022.0,1023.0,1023.0,1024.0,1024.0,1023.0,1023.0,1024.0,1023.0,1024.0,1025.0,1024.0,1023.0,1023.0,1024.0,1023.0,1025.0,1024.0,1024.0,1023.0,1023.0,1024.0,1023.0,1026.0,1024.0,1024.0,1024.0,1025.0,1024.0,1027.0,1026.0,1025.0,1024.0,1025.0,1024.0,1028.0,1027.0,1026.0,1026.0,1027.0,1025.0,1030.0,1028.0,1027.0,1027.0,1029.0,1024.0,1031.0,1028.0,1027.0,1025.0,1029.0,1024.0,1033.0,1030.0,1028.0,1026.0,1029.0,1025.0,1039.0,1035.0,1031.0,1027.0,1031.0,1026.0,1039.0,1031.0,1029.0,1025.0,1028.0,1025.0,1044.0,1033.0,1030.0,1026.0,1028.0,1026.0,1027.0,1023.0,1023.0,1022.0,1023.0,1021.0,1051.0,1038.0,1032.0,1026.0,1028.0,1026.0,1045.0,1036.0,1030.0,1025.0,1027.0,1025.0,1037.0,1030.0,1026.0,1024.0,1025.0,1863,1887,1906,	00:07:06.983,0.052734375,0.05810546875,1.01806640625,-1.953125,-1.15966796875,0.1220703125,3.218994140625,-2.96630859375,-85.6494140625,575.0,-1367.0,-2848.0,0.7333984375,0.00299072265625,-0.0380859375,-0.6787109375,3.2198625427127756,-2.9689815868262714,-84.2201217430598,0.7418044321722492,0.0034706104568255815,-0.03804416057504494,-0.6695272818330886,1,	00:07:06.984,0.0673828125,0.01416015625,1.0205078125,-2.74658203125,-2.62451171875,-0.54931640625,0.7745361328125,-3.790283203125,29.3719482421875,-147.0,-919.0,-2009.0,-0.96673583984375,-0.014923095703125,0.0302734375,-0.253570556640625,0.773354627952823,-3.7911059161882967,32.36897409447114,-0.9597595804333464,-0.015697283504606495,0.02988593502738617,-0.2787866100524232,1
1782115934.232203,0.344,1026.0,1022.0,1022.0,1024.0,1024.0,1022.0,1022.0,1023.0,1022.0,1024.0,1023.0,1023.0,1023.0,1024.0,1022.0,1024.0,1024.0,1024.0,1023.0,1023.0,1022.0,1023.0,1023.0,1022.0,1024.0,1023.0,1023.0,1023.0,1022.0,1022.0,1024.0,1022.0,1022.0,1024.0,1024.0,1022.0,1022.0,1023.0,1022.0,1023.0,1022.0,1022.0,1024.0,1023.0,1023.0,1023.0,1024.0,1023.0,1022.0,1022.0,1022.0,1022.0,1023.0,1024.0,1022.0,1023.0,1024.0,1023.0,1023.0,1022.0,1022.0,1023.0,1024.0,1024.0,1023.0,1023.0,1024.0,1023.0,1023.0,1022.0,1022.0,1023.0,1024.0,1023.0,1023.0,1023.0,1023.0,1022.0,1023.0,1022.0,1022.0,1023.0,1024.0,1024.0,1023.0,1023.0,1023.0,1022.0,1023.0,1022.0,1023.0,1023.0,1024.0,1024.0,1023.0,1023.0,1024.0,1023.0,1024.0,1022.0,1023.0,1023.0,1024.0,1024.0,1023.0,1024.0,1023.0,1023.0,1023.0,1022.0,1023.0,1023.0,1024.0,1024.0,1022.0,1022.0,1023.0,1022.0,1023.0,1021.0,1022.0,1024.0,1024.0,1023.0,1023.0,1023.0,1022.0,1023.0,1022.0,1024.0,1024.0,1023.0,1023.0,1023.0,1023.0,1023.0,1024.0,1024.0,1024.0,1024.0,1024.0,1024.0,1024.0,1024.0,1025.0,1023.0,1024.0,1024.0,1024.0,1024.0,1025.0,1024.0,1023.0,1024.0,1024.0,1023.0,1025.0,1025.0,1024.0,1024.0,1025.0,1024.0,1026.0,1025.0,1024.0,1025.0,1025.0,1024.0,1028.0,1027.0,1028.0,1027.0,1028.0,1025.0,1029.0,1028.0,1027.0,1026.0,1029.0,1025.0,1030.0,1030.0,1026.0,1026.0,1030.0,1024.0,1034.0,1033.0,1028.0,1027.0,1030.0,1025.0,1039.0,1038.0,1031.0,1029.0,1033.0,1026.0,1038.0,1034.0,1027.0,1026.0,1029.0,1025.0,1043.0,1036.0,1028.0,1026.0,1029.0,1025.0,1026.0,1024.0,1022.0,1022.0,1023.0,1021.0,1052.0,1041.0,1030.0,1027.0,1029.0,1026.0,1047.0,1039.0,1030.0,1026.0,1028.0,1025.0,1037.0,1031.0,1025.0,1024.0,1025.0,1864,1886,1905,	00:07:06.993,0.0537109375,0.05908203125,1.01708984375,-1.708984375,-0.79345703125,0.0,3.284912109375,-3.0157470703125,-85.6549072265625,574.0,-1367.0,-2848.0,0.733367919921875,0.003143310546875,-0.038787841796875,-0.6787109375,3.285742283451223,-3.0156017731467517,-84.22489093632136,0.7417743916634776,0.003622639358811844,-0.038730607306506744,-0.6695204017907317,1,	00:07:06.994,0.06787109375,0.01513671875,1.02490234375,-2.25830078125,-3.2958984375,-0.67138671875,0.8404541015625,-3.8177490234375,29.35546875,-147.0,-918.0,-2005.0,-0.96673583984375,-0.01556396484375,0.0303955078125,-0.25347900390625,0.8430502642943335,-3.820425130659153,32.355712558667626,-0.9597734315594608,-0.016348761980500538,0.0299638549704278,-0.2786931026229263,1
1782115934.241268,0.353,1026.0,1022.0,1022.0,1024.0,1024.0,1022.0,1022.0,1023.0,1022.0,1024.0,1024.0,1023.0,1023.0,1023.0,1022.0,1023.0,1024.0,1024.0,1023.0,1023.0,1023.0,1023.0,1024.0,1022.0,1024.0,1024.0,1023.0,1023.0,1023.0,1023.0,1024.0,1023.0,1022.0,1024.0,1024.0,1023.0,1023.0,1023.0,1022.0,1023.0,1021.0,1022.0,1024.0,1024.0,1022.0,1023.0,1022.0,1023.0,1024.0,1021.0,1023.0,1023.0,1024.0,1024.0,1022.0,1023.0,1023.0,1022.0,1023.0,1022.0,1022.0,1023.0,1024.0,1024.0,1023.0,1023.0,1023.0,1022.0,1023.0,1022.0,1022.0,1023.0,1023.0,1024.0,1023.0,1023.0,1023.0,1023.0,1024.0,1022.0,1022.0,1023.0,1024.0,1024.0,1023.0,1023.0,1023.0,1023.0,1023.0,1023.0,1022.0,1022.0,1023.0,1024.0,1023.0,1023.0,1023.0,1023.0,1024.0,1023.0,1023.0,1023.0,1024.0,1024.0,1023.0,1024.0,1024.0,1023.0,1024.0,1022.0,1022.0,1023.0,1024.0,1024.0,1022.0,1023.0,1023.0,1023.0,1023.0,1021.0,1022.0,1024.0,1024.0,1023.0,1023.0,1024.0,1023.0,1023.0,1023.0,1023.0,1024.0,1023.0,1023.0,1023.0,1022.0,1023.0,1024.0,1024.0,1023.0,1023.0,1024.0,1024.0,1025.0,1024.0,1024.0,1023.0,1023.0,1024.0,1023.0,1024.0,1024.0,1024.0,1024.0,1024.0,1024.0,1023.0,1025.0,1025.0,1024.0,1024.0,1025.0,1024.0,1026.0,1026.0,1024.0,1025.0,1026.0,1024.0,1028.0,1028.0,1025.0,1027.0,1028.0,1025.0,1029.0,1029.0,1026.0,1026.0,1029.0,1025.0,1030.0,1030.0,1027.0,1026.0,1029.0,1024.0,1034.0,1032.0,1028.0,1027.0,1030.0,1025.0,1038.0,1039.0,1030.0,1029.0,1032.0,1025.0,1038.0,1035.0,1027.0,1026.0,1028.0,1024.0,1044.0,1036.0,1028.0,1027.0,1029.0,1024.0,1027.0,1024.0,1022.0,1022.0,1022.0,1021.0,1054.0,1041.0,1029.0,1028.0,1029.0,1026.0,1047.0,1040.0,1029.0,1027.0,1027.0,1025.0,1038.0,1032.0,1026.0,1024.0,1024.0,1865,1885,1906,	00:07:07.003,0.0537109375,0.0576171875,1.01708984375,-1.40380859375,-0.67138671875,-0.06103515625,3.1805419921875,-3.0267333984375,-85.6494140625,575.0,-1363.0,-2848.0,0.7333984375,0.00238037109375,-0.038238525390625,-0.6787109375,3.1802327189613266,-3.0274529895001296,-84.22106077290181,0.7417996936407966,0.0028715711923578673,-0.03819065184708094,-0.6695270291069677,1,	00:07:07.004,0.0693359375,0.01318359375,1.02001953125,-1.89208984375,-3.662109375,-0.79345703125,0.7470703125,-3.9056396484375,29.35546875,-146.0,-915.0,-2010.0,-0.96673583984375,-0.01495361328125,0.031341552734375,-0.25341796875,0.7481854239494024,-3.907633639065326,32.35239119393784,-0.959768689106765,-0.015765064224560022,0.030925535640852684,-0.27863800423776275,1
1782115934.251776,0.364,1026.0,1022.0,1023.0,1024.0,1023.0,1023.0,1023.0,1023.0,1023.0,1024.0,1024.0,1023.0,1023.0,1023.0,1022.0,1023.0,1024.0,1023.0,1023.0,1023.0,1023.0,1022.0,1023.0,1022.0,1024.0,1023.0,1023.0,1023.0,1023.0,1022.0,1023.0,1022.0,1022.0,1024.0,1023.0,1022.0,1023.0,1023.0,1022.0,1024.0,1021.0,1022.0,1023.0,1024.0,1022.0,1023.0,1023.0,1022.0,1023.0,1021.0,1022.0,1023.0,1024.0,1024.0,1022.0,1023.0,1023.0,1023.0,1023.0,1022.0,1022.0,1023.0,1023.0,1023.0,1022.0,1023.0,1023.0,1023.0,1023.0,1022.0,1022.0,1023.0,1024.0,1023.0,1023.0,1023.0,1023.0,1022.0,1024.0,1022.0,1022.0,1023.0,1024.0,1024.0,1023.0,1023.0,1023.0,1023.0,1024.0,1023.0,1022.0,1023.0,1024.0,1023.0,1023.0,1024.0,1023.0,1023.0,1024.0,1023.0,1023.0,1023.0,1024.0,1023.0,1023.0,1023.0,1023.0,1022.0,1024.0,1022.0,1022.0,1023.0,1024.0,1023.0,1022.0,1023.0,1023.0,1023.0,1023.0,1021.0,1022.0,1024.0,1023.0,1023.0,1023.0,1024.0,1023.0,1024.0,1023.0,1024.0,1024.0,1023.0,1023.0,1023.0,1023.0,1023.0,1024.0,1024.0,1024.0,1024.0,1023.0,1023.0,1025.0,1024.0,1024.0,1023.0,1024.0,1024.0,1023.0,1025.0,1024.0,1024.0,1024.0,1023.0,1024.0,1023.0,1025.0,1024.0,1024.0,1024.0,1025.0,1024.0,1026.0,1026.0,1025.0,1025.0,1026.0,1024.0,1028.0,1027.0,1026.0,1027.0,1029.0,1024.0,1030.0,1029.0,1028.0,1027.0,1029.0,1024.0,1030.0,1030.0,1028.0,1027.0,1029.0,1025.0,1034.0,1033.0,1029.0,1027.0,1029.0,1025.0,1040.0,1039.0,1033.0,1030.0,1032.0,1026.0,1040.0,1035.0,1029.0,1027.0,1028.0,1025.0,1045.0,1037.0,1029.0,1026.0,1029.0,1025.0,1027.0,1024.0,1022.0,1023.0,1022.0,1021.0,1055.0,1043.0,1032.0,1027.0,1029.0,1027.0,1048.0,1040.0,1031.0,1025.0,1028.0,1025.0,1040.0,1032.0,1027.0,1024.0,1025.0,1866,1884,1905,	00:07:07.013,0.05322265625,0.05810546875,1.0166015625,-1.220703125,-0.244140625,-0.06103515625,3.251953125,-2.999267578125,-85.6549072265625,572.0,-1365.0,-2850.0,0.733367919921875,0.0030517578125,-0.0384521484375,-0.678741455078125,3.2535528228744335,-2.9965889612867085,-84.2263018985107,0.7417672056238656,0.003525068435154998,-0.038419668611973504,-0.6695467986759667,1,	00:07:07.014,0.07177734375,0.013671875,1.01904296875,-1.46484375,-3.35693359375,-0.732421875,0.7470703125,-4.031982421875,29.344482421875,-148.0,-915.0,-2008.0,-0.966705322265625,-0.015228271484375,0.032379150390625,-0.25335693359375,0.7493262118702186,-4.031276640699244,32.34357054695076,-0.9597521241211857,-0.016072335227214612,0.03195969425241053,-0.27856079808276757,1
1782115934.261830,0.374,1026.0,1023.0,1022.0,1024.0,1023.0,1023.0,1023.0,1023.0,1022.0,1024.0,1023.0,1023.0,1023.0,1023.0,1022.0,1024.0,1024.0,1023.0,1023.0,1023.0,1023.0,1022.0,1024.0,1022.0,1024.0,1023.0,1023.0,1022.0,1023.0,1022.0,1023.0,1022.0,1022.0,1024.0,1023.0,1023.0,1022.0,1023.0,1022.0,1024.0,1022.0,1022.0,1024.0,1023.0,1023.0,1022.0,1023.0,1022.0,1024.0,1022.0,1022.0,1023.0,1023.0,1023.0,1023.0,1023.0,1023.0,1022.0,1024.0,1022.0,1022.0,1023.0,1023.0,1023.0,1023.0,1022.0,1023.0,1023.0,1023.0,1022.0,1022.0,1023.0,1024.0,1023.0,1023.0,1023.0,1023.0,1023.0,1024.0,1022.0,1023.0,1023.0,1024.0,1024.0,1023.0,1023.0,1023.0,1023.0,1024.0,1022.0,1022.0,1023.0,1024.0,1023.0,1023.0,1023.0,1023.0,1023.0,1024.0,1023.0,1023.0,1023.0,1024.0,1023.0,1023.0,1023.0,1024.0,1023.0,1024.0,1023.0,1022.0,1023.0,1023.0,1024.0,1022.0,1023.0,1023.0,1022.0,1023.0,1020.0,1022.0,1024.0,1023.0,1023.0,1023.0,1024.0,1023.0,1024.0,1023.0,1024.0,1024.0,1023.0,1023.0,1023.0,1023.0,1024.0,1024.0,1024.0,1023.0,1023.0,1024.0,1023.0,1025.0,1024.0,1024.0,1023.0,1023.0,1024.0,1023.0,1024.0,1025.0,1024.0,1023.0,1024.0,1023.0,1023.0,1025.0,1025.0,1024.0,1024.0,1025.0,1024.0,1026.0,1027.0,1024.0,1024.0,1026.0,1024.0,1028.0,1028.0,1026.0,1026.0,1029.0,1024.0,1029.0,1030.0,1026.0,1026.0,1029.0,1024.0,1031.0,1031.0,1027.0,1026.0,1030.0,1024.0,1034.0,1034.0,1029.0,1026.0,1030.0,1025.0,1040.0,1040.0,1033.0,1027.0,1033.0,1025.0,1039.0,1035.0,1029.0,1026.0,1028.0,1024.0,1045.0,1037.0,1030.0,1026.0,1029.0,1025.0,1027.0,1024.0,1023.0,1021.0,1022.0,1021.0,1055.0,1044.0,1032.0,1026.0,1029.0,1026.0,1049.0,1041.0,1030.0,1025.0,1026.0,1025.0,1039.0,1033.0,1027.0,1024.0,1025.0,1867,1883,1905,	00:07:07.024,0.05224609375,0.05859375,1.01611328125,-0.9765625,-0.06103515625,0.0,3.3013916015625,-2.9278564453125,-85.6549072265625,573.0,-1366.0,-2850.0,0.73333740234375,0.0037841796875,-0.038299560546875,-0.67877197265625,3.3013072896141944,-2.9257539207891052,-84.22931396395873,0.7417479792380715,0.004247746283471497,-0.03824089429623985,-0.6695741377556129,1,	00:07:07.025,0.07275390625,0.01416015625,1.015625,-1.3427734375,-2.74658203125,-0.54931640625,0.791015625,-4.130859375,29.33349609375,-146.0,-917.0,-2012.0,-0.966705322265625,-0.01580810546875,0.033111572265625,-0.253265380859375,0.7913928176093107,-4.13181418677455,32.333795359988514,-0.9597382263150293,-0.016665861466045366,0.03270099912878202,-0.2784877567636603,1
1782115934.271966,0.384,1026.0,1022.0,1022.0,1024.0,1022.0,1022.0,1022.0,1022.0,1021.0,1024.0,1023.0,1023.0,1023.0,1023.0,1022.0,1024.0,1024.0,1023.0,1023.0,1023.0,1023.0,1022.0,1024.0,1022.0,1024.0,1023.0,1022.0,1023.0,1023.0,1022.0,1024.0,1022.0,1022.0,1024.0,1024.0,1023.0,1022.0,1023.0,1022.0,1024.0,1022.0,1023.0,1024.0,1023.0,1022.0,1023.0,1023.0,1022.0,1024.0,1022.0,1022.0,1023.0,1024.0,1023.0,1023.0,1023.0,1023.0,1022.0,1024.0,1022.0,1022.0,1023.0,1024.0,1024.0,1023.0,1022.0,1023.0,1023.0,1024.0,1022.0,1022.0,1023.0,1024.0,1023.0,1023.0,1023.0,1023.0,1023.0,1024.0,1022.0,1022.0,1023.0,1024.0,1024.0,1023.0,1023.0,1023.0,1023.0,1024.0,1022.0,1023.0,1023.0,1024.0,1024.0,1022.0,1023.0,1024.0,1023.0,1024.0,1023.0,1023.0,1024.0,1024.0,1024.0,1023.0,1022.0,1024.0,1023.0,1024.0,1022.0,1022.0,1023.0,1024.0,1023.0,1022.0,1023.0,1023.0,1022.0,1024.0,1021.0,1023.0,1023.0,1024.0,1023.0,1023.0,1023.0,1023.0,1024.0,1023.0,1024.0,1024.0,1022.0,1023.0,1023.0,1023.0,1024.0,1024.0,1024.0,1023.0,1024.0,1025.0,1023.0,1025.0,1025.0,1024.0,1023.0,1023.0,1024.0,1023.0,1025.0,1024.0,1024.0,1023.0,1024.0,1024.0,1023.0,1025.0,1025.0,1024.0,1025.0,1026.0,1024.0,1026.0,1026.0,1024.0,1025.0,1026.0,1024.0,1028.0,1028.0,1026.0,1027.0,1029.0,1024.0,1029.0,1030.0,1027.0,1028.0,1030.0,1024.0,1031.0,1031.0,1027.0,1028.0,1030.0,1025.0,1034.0,1034.0,1028.0,1028.0,1031.0,1025.0,1040.0,1040.0,1032.0,1029.0,1033.0,1025.0,1039.0,1035.0,1029.0,1026.0,1029.0,1025.0,1045.0,1037.0,1030.0,1027.0,1029.0,1025.0,1027.0,1024.0,1022.0,1022.0,1023.0,1021.0,1055.0,1044.0,1033.0,1027.0,1029.0,1028.0,1048.0,1041.0,1031.0,1025.0,1027.0,1026.0,1040.0,1033.0,1028.0,1024.0,1026.0,1868,1882,1906,	00:07:07.034,0.0517578125,0.05908203125,1.01513671875,-0.8544921875,0.30517578125,0.1220703125,3.3782958984375,-2.889404296875,-85.660400390625,574.0,-1367.0,-2848.0,0.73333740234375,0.004486083984375,-0.03851318359375,-0.67877197265625,3.37777534815362,-2.8885294402766206,-84.23223580197578,0.7417275985686489,0.004959602352583641,-0.03844719926270538,-0.6695800062240087,1,	00:07:07.035,0.07080078125,0.01416015625,1.01708984375,-1.52587890625,-2.13623046875,-0.48828125,0.780029296875,-4.0594482421875,29.3280029296875,-149.0,-920.0,-2010.0,-0.96673583984375,-0.01556396484375,0.032562255859375,-0.25323486328125,0.7803012226523606,-4.061741629569081,32.32832404070867,-0.9597752814686491,-0.01640142373017171,0.032141768560622896,-0.27844085385444867,1
1782115934.282448,0.395,1026.0,1022.0,1022.0,1024.0,1024.0,1023.0,1023.0,1023.0,1022.0,1024.0,1024.0,1023.0,1023.0,1023.0,1022.0,1024.0,1024.0,1023.0,1023.0,1023.0,1023.0,1023.0,1024.0,1022.0,1024.0,1024.0,1023.0,1023.0,1023.0,1022.0,1024.0,1022.0,1023.0,1024.0,1023.0,1022.0,1023.0,1023.0,1022.0,1023.0,1022.0,1022.0,1024.0,1023.0,1022.0,1023.0,1023.0,1022.0,1024.0,1022.0,1022.0,1023.0,1024.0,1024.0,1023.0,1023.0,1023.0,1023.0,1024.0,1022.0,1022.0,1022.0,1024.0,1023.0,1022.0,1023.0,1023.0,1022.0,1023.0,1022.0,1022.0,1023.0,1024.0,1023.0,1022.0,1023.0,1023.0,1023.0,1023.0,1022.0,1022.0,1023.0,1024.0,1023.0,1023.0,1023.0,1023.0,1023.0,1023.0,1022.0,1023.0,1023.0,1024.0,1024.0,1023.0,1023.0,1023.0,1023.0,1024.0,1024.0,1023.0,1023.0,1024.0,1024.0,1023.0,1023.0,1024.0,1023.0,1024.0,1022.0,1023.0,1023.0,1024.0,1023.0,1023.0,1023.0,1024.0,1022.0,1023.0,1021.0,1022.0,1024.0,1024.0,1023.0,1023.0,1024.0,1022.0,1024.0,1022.0,1024.0,1024.0,1023.0,1023.0,1023.0,1023.0,1024.0,1024.0,1024.0,1024.0,1024.0,1024.0,1023.0,1025.0,1024.0,1024.0,1023.0,1023.0,1024.0,1023.0,1025.0,1025.0,1024.0,1023.0,1024.0,1024.0,1023.0,1025.0,1025.0,1024.0,1025.0,1026.0,1024.0,1026.0,1026.0,1024.0,1025.0,1027.0,1024.0,1028.0,1028.0,1026.0,1027.0,1030.0,1025.0,1030.0,1029.0,1026.0,1027.0,1030.0,1024.0,1031.0,1030.0,1026.0,1026.0,1031.0,1024.0,1035.0,1035.0,1029.0,1028.0,1031.0,1025.0,1041.0,1040.0,1032.0,1028.0,1034.0,1026.0,1040.0,1035.0,1028.0,1026.0,1029.0,1024.0,1046.0,1037.0,1029.0,1027.0,1029.0,1025.0,1027.0,1024.0,1022.0,1022.0,1023.0,1021.0,1055.0,1045.0,1032.0,1027.0,1031.0,1026.0,1048.0,1043.0,1030.0,1026.0,1030.0,1025.0,1040.0,1034.0,1027.0,1024.0,1027.0,1869,1881,1906,	00:07:07.044,0.0537109375,0.05712890625,1.01611328125,-0.8544921875,0.30517578125,0.1220703125,3.2958984375,-2.9443359375,-85.6549072265625,572.0,-1365.0,-2851.0,0.733367919921875,0.003631591796875,-0.03839111328125,-0.678741455078125,3.298539613174477,-2.9441071018524174,-84.2272384754434,0.741760257707966,0.0041231107270639665,-0.03834328902128481,-0.669555458666401,1,	00:07:07.045,0.0712890625,0.0146484375,1.01318359375,-1.52587890625,-1.77001953125,-0.3662109375,0.8404541015625,-4.02099609375,29.322509765625,-147.0,-915.0,-2015.0,-0.966766357421875,-0.015960693359375,0.0321044921875,-0.253173828125,0.837729332138937,-4.023014222080638,32.31930173897215,-0.9598009979631218,-0.01678598326526786,0.03167913051758426,-0.27838230504912453,1
1782115934.294592,0.407,1026.0,1023.0,1023.0,1024.0,1024.0,1022.0,1022.0,1023.0,1022.0,1024.0,1024.0,1023.0,1022.0,1023.0,1022.0,1024.0,1024.0,1023.0,1023.0,1022.0,1023.0,1022.0,1024.0,1022.0,1024.0,1024.0,1023.0,1023.0,1023.0,1023.0,1023.0,1022.0,1022.0,1024.0,1023.0,1022.0,1023.0,1024.0,1022.0,1024.0,1022.0,1023.0,1024.0,1024.0,1023.0,1022.0,1023.0,1023.0,1024.0,1021.0,1022.0,1023.0,1024.0,1023.0,1022.0,1023.0,1023.0,1023.0,1024.0,1022.0,1022.0,1023.0,1023.0,1024.0,1023.0,1023.0,1023.0,1023.0,1024.0,1022.0,1022.0,1023.0,1023.0,1023.0,1023.0,1023.0,1023.0,1022.0,1024.0,1023.0,1022.0,1023.0,1024.0,1023.0,1023.0,1023.0,1024.0,1023.0,1024.0,1022.0,1022.0,1023.0,1024.0,1024.0,1023.0,1023.0,1024.0,1022.0,1024.0,1023.0,1022.0,1023.0,1024.0,1023.0,1023.0,1023.0,1024.0,1023.0,1024.0,1023.0,1022.0,1023.0,1024.0,1023.0,1022.0,1022.0,1023.0,1022.0,1024.0,1021.0,1022.0,1024.0,1024.0,1023.0,1023.0,1024.0,1023.0,1024.0,1022.0,1024.0,1024.0,1023.0,1022.0,1023.0,1022.0,1024.0,1024.0,1024.0,1023.0,1023.0,1024.0,1023.0,1026.0,1025.0,1024.0,1023.0,1024.0,1024.0,1024.0,1025.0,1024.0,1025.0,1023.0,1024.0,1024.0,1023.0,1025.0,1025.0,1023.0,1024.0,1025.0,1024.0,1026.0,1027.0,1024.0,1025.0,1026.0,1024.0,1028.0,1029.0,1026.0,1026.0,1029.0,1025.0,1030.0,1031.0,1027.0,1026.0,1030.0,1024.0,1031.0,1032.0,1026.0,1026.0,1031.0,1024.0,1036.0,1036.0,1029.0,1026.0,1032.0,1025.0,1042.0,1043.0,1032.0,1028.0,1034.0,1026.0,1041.0,1038.0,1028.0,1025.0,1030.0,1024.0,1048.0,1041.0,1029.0,1027.0,1030.0,1025.0,1027.0,1024.0,1022.0,1022.0,1023.0,1021.0,1056.0,1046.0,1032.0,1028.0,1029.0,1026.0,1049.0,1043.0,1031.0,1025.0,1028.0,1025.0,1040.0,1034.0,1027.0,1024.0,1025.0,1870,1881,1905,	00:07:07.054,0.052734375,0.06005859375,1.01611328125,-0.79345703125,0.30517578125,0.1220703125,3.3782958984375,-2.96630859375,-85.660400390625,575.0,-1366.0,-2852.0,0.73333740234375,0.0040283203125,-0.03900146484375,-0.678741455078125,3.379219205113926,-2.9639251187912943,-84.2304114091199,0.7417387452495232,0.0045282908998870225,-0.03894292039468591,-0.6695420653912059,1,	00:07:07.056,0.0693359375,0.0166015625,1.0126953125,-1.708984375,-2.13623046875,-0.1220703125,0.8843994140625,-3.97705078125,29.3170166015625,-150.0,-916.0,-2011.0,-0.966766357421875,-0.0162353515625,0.0316162109375,-0.253143310546875,0.8839140766925629,-3.977874649136245,32.31335150667541,-0.9598226597542632,-0.01706173755794165,0.031189674181871255,-0.2783461211480851,1
1782115934.302645,0.415,1027.0,1023.0,1022.0,1024.0,1023.0,1022.0,1022.0,1023.0,1022.0,1024.0,1024.0,1023.0,1022.0,1023.0,1022.0,1023.0,1023.0,1024.0,1023.0,1022.0,1023.0,1023.0,1023.0,1022.0,1024.0,1024.0,1022.0,1022.0,1023.0,1022.0,1024.0,1022.0,1022.0,1024.0,1023.0,1022.0,1023.0,1023.0,1022.0,1023.0,1022.0,1022.0,1024.0,1023.0,1022.0,1023.0,1023.0,1023.0,1023.0,1022.0,1022.0,1023.0,1024.0,1024.0,1023.0,1023.0,1023.0,1023.0,1024.0,1023.0,1022.0,1023.0,1024.0,1023.0,1023.0,1023.0,1022.0,1023.0,1024.0,1023.0,1022.0,1023.0,1024.0,1023.0,1022.0,1022.0,1023.0,1023.0,1024.0,1022.0,1023.0,1023.0,1024.0,1023.0,1023.0,1023.0,1023.0,1023.0,1024.0,1023.0,1022.0,1023.0,1024.0,1024.0,1023.0,1023.0,1024.0,1023.0,1024.0,1023.0,1022.0,1023.0,1024.0,1024.0,1023.0,1023.0,1023.0,1023.0,1024.0,1022.0,1022.0,1023.0,1024.0,1023.0,1023.0,1023.0,1023.0,1023.0,1023.0,1021.0,1023.0,1024.0,1023.0,1023.0,1023.0,1023.0,1023.0,1023.0,1023.0,1024.0,1023.0,1023.0,1023.0,1023.0,1023.0,1023.0,1025.0,1024.0,1023.0,1024.0,1024.0,1024.0,1024.0,1024.0,1024.0,1024.0,1023.0,1024.0,1023.0,1025.0,1024.0,1024.0,1024.0,1024.0,1024.0,1023.0,1025.0,1025.0,1024.0,1024.0,1026.0,1024.0,1027.0,1026.0,1025.0,1025.0,1027.0,1024.0,1029.0,1029.0,1026.0,1027.0,1030.0,1024.0,1031.0,1030.0,1028.0,1027.0,1032.0,1024.0,1032.0,1031.0,1028.0,1026.0,1030.0,1024.0,1036.0,1035.0,1030.0,1027.0,1032.0,1025.0,1043.0,1040.0,1033.0,1029.0,1033.0,1026.0,1041.0,1035.0,1029.0,1026.0,1029.0,1025.0,1048.0,1038.0,1030.0,1026.0,1029.0,1025.0,1026.0,1024.0,1022.0,1022.0,1023.0,1021.0,1057.0,1045.0,1032.0,1027.0,1030.0,1027.0,1049.0,1042.0,1031.0,1026.0,1028.0,1025.0,1040.0,1033.0,1027.0,1025.0,1026.0,1871,1880,1906,	00:07:07.065,0.052734375,0.05859375,1.0146484375,-0.732421875,0.3662109375,0.06103515625,3.2794189453125,-2.96630859375,-85.6549072265625,573.0,-1368.0,-2847.0,0.733367919921875,0.003387451171875,-0.0384521484375,-0.678741455078125,3.2805162884238683,-2.9680539251814935,-84.2248588548202,0.7417748139524657,0.003867091545665165,-0.038392701327496996,-0.6695380283998363,1,	00:07:07.066,0.07080078125,0.015625,1.009765625,-2.01416015625,-2.5634765625,-0.06103515625,0.8734130859375,-4.0924072265625,29.3115234375,-147.0,-916.0,-2013.0,-0.96673583984375,-0.016387939453125,0.03265380859375,-0.25311279296875,0.8711603452749414,-4.094645856499631,32.31184878744457,-0.9597915811340625,-0.017237601195237796,0.032199093860087104,-0.27832751255274696,1
1782115934.314792,0.427,1026.0,1023.0,1022.0,1024.0,1023.0,1022.0,1022.0,1023.0,1022.0,1024.0,1023.0,1023.0,1023.0,1024.0,1023.0,1023.0,1024.0,1023.0,1022.0,1023.0,1023.0,1023.0,1023.0,1022.0,1024.0,1024.0,1023.0,1023.0,1024.0,1022.0,1023.0,1022.0,1022.0,1024.0,1024.0,1022.0,1023.0,1023.0,1023.0,1023.0,1022.0,1022.0,1023.0,1023.0,1022.0,1023.0,1023.0,1023.0,1023.0,1022.0,1022.0,1023.0,1024.0,1023.0,1023.0,1023.0,1023.0,1023.0,1023.0,1022.0,1022.0,1023.0,1024.0,1023.0,1023.0,1023.0,1023.0,1022.0,1023.0,1022.0,1022.0,1023.0,1023.0,1023.0,1022.0,1023.0,1023.0,1023.0,1023.0,1022.0,1022.0,1023.0,1024.0,1023.0,1023.0,1023.0,1023.0,1023.0,1024.0,1023.0,1022.0,1023.0,1024.0,1024.0,1023.0,1023.0,1024.0,1023.0,1024.0,1023.0,1023.0,1023.0,1024.0,1024.0,1023.0,1023.0,1023.0,1023.0,1024.0,1022.0,1022.0,1023.0,1023.0,1024.0,1022.0,1023.0,1023.0,1023.0,1023.0,1020.0,1022.0,1024.0,1023.0,1022.0,1022.0,1024.0,1023.0,1023.0,1022.0,1024.0,1023.0,1023.0,1023.0,1023.0,1022.0,1023.0,1025.0,1024.0,1023.0,1024.0,1024.0,1023.0,1025.0,1025.0,1024.0,1023.0,1023.0,1024.0,1023.0,1025.0,1025.0,1024.0,1024.0,1023.0,1024.0,1023.0,1026.0,1025.0,1024.0,1025.0,1026.0,1025.0,1027.0,1026.0,1025.0,1025.0,1027.0,1025.0,1029.0,1028.0,1026.0,1026.0,1031.0,1025.0,1031.0,1030.0,1027.0,1026.0,1031.0,1025.0,1032.0,1031.0,1028.0,1026.0,1032.0,1025.0,1037.0,1035.0,1029.0,1027.0,1032.0,1025.0,1043.0,1042.0,1032.0,1028.0,1033.0,1027.0,1042.0,1036.0,1028.0,1026.0,1030.0,1025.0,1048.0,1039.0,1030.0,1026.0,1029.0,1026.0,1026.0,1024.0,1022.0,1022.0,1023.0,1021.0,1058.0,1046.0,1032.0,1027.0,1029.0,1027.0,1049.0,1043.0,1030.0,1026.0,1027.0,1026.0,1041.0,1035.0,1027.0,1024.0,1025.0,1872,1879,1906,	00:07:07.075,0.0517578125,0.05859375,1.01611328125,-0.6103515625,0.42724609375,0.1220703125,3.306884765625,-2.87841796875,-85.6549072265625,576.0,-1366.0,-2849.0,0.733367919921875,0.00408935546875,-0.037994384765625,-0.678741455078125,3.3043998934345304,-2.877282511873317,-84.22493141169815,0.741773236959968,0.004552902009363805,-0.037945450837222214,-0.669560959714636,1,	00:07:07.076,0.0703125,0.01416015625,1.00927734375,-2.13623046875,-2.74658203125,-0.1220703125,0.802001953125,-4.04296875,29.3170166015625,-151.0,-915.0,-2014.0,-0.966766357421875,-0.01568603515625,0.032379150390625,-0.25311279296875,0.8020851874216955,-4.044058168162753,32.31359112635696,-0.9598134794144366,-0.016536875056669263,0.03194283134845486,-0.27832404140346406,1
1782115934.323325,0.436,1026.0,1022.0,1022.0,1024.0,1024.0,1023.0,1022.0,1023.0,1022.0,1024.0,1023.0,1023.0,1022.0,1023.0,1022.0,1023.0,1024.0,1023.0,1023.0,1023.0,1024.0,1022.0,1023.0,1023.0,1024.0,1023.0,1023.0,1023.0,1023.0,1023.0,1023.0,1022.0,1023.0,1024.0,1023.0,1022.0,1022.0,1023.0,1023.0,1023.0,1021.0,1022.0,1023.0,1023.0,1023.0,1023.0,1024.0,1022.0,1023.0,1022.0,1022.0,1023.0,1023.0,1023.0,1023.0,1023.0,1023.0,1023.0,1024.0,1023.0,1022.0,1023.0,1023.0,1023.0,1022.0,1023.0,1023.0,1023.0,1023.0,1022.0,1022.0,1023.0,1024.0,1023.0,1023.0,1023.0,1024.0,1023.0,1023.0,1021.0,1022.0,1023.0,1023.0,1023.0,1023.0,1023.0,1023.0,1023.0,1024.0,1023.0,1023.0,1023.0,1024.0,1024.0,1023.0,1023.0,1024.0,1023.0,1024.0,1023.0,1022.0,1023.0,1024.0,1023.0,1023.0,1023.0,1024.0,1023.0,1024.0,1023.0,1023.0,1023.0,1024.0,1024.0,1022.0,1022.0,1024.0,1022.0,1023.0,1021.0,1022.0,1024.0,1024.0,1023.0,1023.0,1024.0,1023.0,1024.0,1022.0,1024.0,1023.0,1023.0,1023.0,1024.0,1022.0,1023.0,1024.0,1024.0,1024.0,1024.0,1024.0,1024.0,1025.0,1024.0,1024.0,1023.0,1024.0,1024.0,1023.0,1024.0,1024.0,1024.0,1023.0,1024.0,1024.0,1023.0,1025.0,1026.0,1024.0,1025.0,1025.0,1024.0,1027.0,1027.0,1024.0,1026.0,1027.0,1025.0,1028.0,1029.0,1026.0,1027.0,1030.0,1024.0,1030.0,1031.0,1027.0,1027.0,1031.0,1025.0,1031.0,1032.0,1027.0,1027.0,1031.0,1025.0,1036.0,1037.0,1030.0,1028.0,1031.0,1026.0,1042.0,1043.0,1032.0,1029.0,1033.0,1027.0,1041.0,1037.0,1028.0,1026.0,1029.0,1025.0,1048.0,1039.0,1030.0,1027.0,1029.0,1025.0,1026.0,1024.0,1022.0,1022.0,1023.0,1021.0,1057.0,1047.0,1032.0,1028.0,1029.0,1027.0,1049.0,1044.0,1031.0,1026.0,1028.0,1026.0,1039.0,1034.0,1027.0,1025.0,1025.0,1873,1879,1905,	00:07:07.085,0.05322265625,0.05859375,1.0166015625,-0.54931640625,0.42724609375,0.06103515625,3.2958984375,-2.96630859375,-85.6494140625,574.0,-1365.0,-2848.0,0.733367919921875,0.003509521484375,-0.038482666015625,-0.6787109375,3.2943175059600085,-2.964507675234751,-84.22383887787397,0.7417802999436133,0.003977526033927491,-0.03845037898344669,-0.6695279936330085,1,	00:07:07.086,0.07080078125,0.0146484375,1.0068359375,-2.13623046875,-2.74658203125,-0.18310546875,0.85693359375,-4.02099609375,29.3060302734375,-149.0,-916.0,-2017.0,-0.966796875,-0.016082763671875,0.03204345703125,-0.2530517578125,0.8560250956716045,-4.018785687754336,32.30608248594693,-0.959831734027083,-0.01692532593721111,0.03160121327312713,-0.27827673100018335,1
1782115934.333411,0.446,1026.0,1023.0,1022.0,1024.0,1023.0,1022.0,1023.0,1023.0,1022.0,1024.0,1023.0,1023.0,1023.0,1023.0,1022.0,1023.0,1023.0,1023.0,1023.0,1023.0,1023.0,1022.0,1024.0,1023.0,1023.0,1024.0,1023.0,1023.0,1023.0,1023.0,1024.0,1022.0,1023.0,1024.0,1023.0,1023.0,1022.0,1024.0,1023.0,1023.0,1021.0,1022.0,1024.0,1024.0,1022.0,1022.0,1023.0,1023.0,1024.0,1022.0,1022.0,1023.0,1024.0,1024.0,1022.0,1023.0,1023.0,1023.0,1024.0,1022.0,1022.0,1023.0,1024.0,1023.0,1023.0,1022.0,1023.0,1023.0,1024.0,1022.0,1022.0,1023.0,1023.0,1023.0,1023.0,1023.0,1023.0,1022.0,1023.0,1022.0,1022.0,1023.0,1024.0,1023.0,1023.0,1023.0,1023.0,1023.0,1024.0,1023.0,1022.0,1023.0,1024.0,1024.0,1023.0,1024.0,1024.0,1023.0,1024.0,1023.0,1022.0,1023.0,1024.0,1024.0,1023.0,1024.0,1023.0,1023.0,1024.0,1023.0,1022.0,1023.0,1024.0,1023.0,1022.0,1023.0,1024.0,1022.0,1023.0,1021.0,1021.0,1024.0,1023.0,1023.0,1023.0,1023.0,1022.0,1024.0,1022.0,1023.0,1023.0,1023.0,1022.0,1023.0,1022.0,1023.0,1024.0,1024.0,1023.0,1024.0,1024.0,1023.0,1025.0,1024.0,1024.0,1024.0,1024.0,1024.0,1024.0,1024.0,1024.0,1024.0,1023.0,1024.0,1024.0,1023.0,1025.0,1025.0,1024.0,1025.0,1025.0,1024.0,1026.0,1027.0,1024.0,1026.0,1027.0,1024.0,1028.0,1029.0,1026.0,1028.0,1029.0,1025.0,1030.0,1030.0,1027.0,1028.0,1030.0,1025.0,1032.0,1033.0,1028.0,1028.0,1031.0,1024.0,1036.0,1037.0,1029.0,1029.0,1032.0,1025.0,1043.0,1043.0,1033.0,1030.0,1033.0,1026.0,1041.0,1036.0,1029.0,1027.0,1028.0,1025.0,1049.0,1039.0,1030.0,1028.0,1030.0,1025.0,1026.0,1024.0,1022.0,1022.0,1023.0,1021.0,1058.0,1046.0,1033.0,1028.0,1030.0,1027.0,1049.0,1043.0,1031.0,1026.0,1028.0,1025.0,1040.0,1034.0,1027.0,1025.0,1026.0,1875,1878,1906,	00:07:07.095,0.052734375,0.05810546875,1.015625,-0.3662109375,0.42724609375,0.06103515625,3.2025146484375,-2.9718017578125,-85.6439208984375,575.0,-1368.0,-2848.0,0.733428955078125,0.002838134765625,-0.037994384765625,-0.6787109375,3.199916422482898,-2.973724357967238,-84.21828477392312,0.7418157368090337,0.003314342973268248,-0.0379582291280197,-0.6695204258232833,1,	00:07:07.096,0.072265625,0.0126953125,1.00732421875,-2.0751953125,-2.50244140625,-0.18310546875,0.758056640625,-4.0924072265625,29.3115234375,-149.0,-915.0,-2019.0,-0.966766357421875,-0.01544189453125,0.032867431640625,-0.2530517578125,0.7577181036425215,-4.092667197658643,32.30938182680216,-0.9598147906291762,-0.016281931450350437,0.03245838920541799,-0.2782748989181491,1
1782115934.343596,0.456,1026.0,1022.0,1022.0,1024.0,1023.0,1023.0,1022.0,1023.0,1022.0,1024.0,1023.0,1022.0,1023.0,1023.0,1022.0,1023.0,1024.0,1024.0,1023.0,1023.0,1023.0,1023.0,1023.0,1022.0,1024.0,1023.0,1023.0,1023.0,1023.0,1023.0,1023.0,1022.0,1023.0,1023.0,1024.0,1023.0,1023.0,1023.0,1023.0,1023.0,1022.0,1022.0,1024.0,1024.0,1022.0,1022.0,1022.0,1023.0,1023.0,1022.0,1023.0,1023.0,1024.0,1023.0,1022.0,1022.0,1023.0,1023.0,1023.0,1022.0,1022.0,1023.0,1023.0,1024.0,1022.0,1022.0,1023.0,1023.0,1023.0,1022.0,1022.0,1023.0,1023.0,1023.0,1023.0,1023.0,1023.0,1022.0,1023.0,1022.0,1022.0,1023.0,1024.0,1024.0,1023.0,1023.0,1023.0,1022.0,1024.0,1023.0,1022.0,1023.0,1024.0,1024.0,1023.0,1023.0,1024.0,1023.0,1024.0,1023.0,1022.0,1023.0,1024.0,1024.0,1024.0,1023.0,1024.0,1023.0,1024.0,1022.0,1023.0,1023.0,1023.0,1024.0,1023.0,1022.0,1023.0,1023.0,1023.0,1021.0,1022.0,1024.0,1024.0,1023.0,1023.0,1024.0,1023.0,1023.0,1022.0,1024.0,1024.0,1023.0,1023.0,1024.0,1023.0,1023.0,1025.0,1024.0,1024.0,1024.0,1024.0,1023.0,1025.0,1024.0,1024.0,1023.0,1024.0,1024.0,1023.0,1025.0,1025.0,1024.0,1023.0,1024.0,1024.0,1024.0,1025.0,1026.0,1024.0,1024.0,1025.0,1024.0,1026.0,1027.0,1025.0,1026.0,1027.0,1024.0,1028.0,1029.0,1026.0,1027.0,1030.0,1025.0,1030.0,1031.0,1027.0,1027.0,1031.0,1024.0,1031.0,1033.0,1028.0,1027.0,1031.0,1025.0,1037.0,1037.0,1030.0,1028.0,1032.0,1025.0,1042.0,1043.0,1033.0,1028.0,1034.0,1026.0,1041.0,1037.0,1030.0,1026.0,1029.0,1025.0,1049.0,1039.0,1030.0,1027.0,1030.0,1026.0,1026.0,1024.0,1022.0,1022.0,1023.0,1021.0,1059.0,1047.0,1034.0,1027.0,1030.0,1027.0,1049.0,1042.0,1032.0,1025.0,1028.0,1025.0,1039.0,1033.0,1027.0,1024.0,1026.0,1876,1877,1905,	00:07:07.105,0.05322265625,0.05712890625,1.0166015625,-0.244140625,0.42724609375,0.1220703125,3.2574462890625,-3.0377197265625,-85.6494140625,575.0,-1365.0,-2851.0,0.7333984375,0.002838134765625,-0.03875732421875,-0.678680419921875,3.2583319314556203,-3.0377352989030184,-84.22001924905297,0.7418035986224638,0.0033173172691585316,-0.038713396074363325,-0.6694906193825928,1,	00:07:07.107,0.07080078125,0.01318359375,1.0126953125,-1.89208984375,-2.197265625,-0.1220703125,0.72509765625,-4.0264892578125,29.3115234375,-152.0,-912.0,-2023.0,-0.966796875,-0.0150146484375,0.0323486328125,-0.2530517578125,0.7274257742139125,-4.023904168586577,32.30866779150491,-0.9598422621333227,-0.015861283276791097,0.03195600825683576,-0.27826258291744543,1
1782115934.353227,0.465,1026.0,1023.0,1022.0,1024.0,1024.0,1023.0,1022.0,1023.0,1022.0,1024.0,1024.0,1023.0,1023.0,1023.0,1023.0,1023.0,1024.0,1023.0,1023.0,1023.0,1023.0,1022.0,1024.0,1023.0,1024.0,1023.0,1022.0,1022.0,1023.0,1023.0,1023.0,1022.0,1023.0,1024.0,1024.0,1023.0,1023.0,1023.0,1022.0,1023.0,1022.0,1022.0,1024.0,1023.0,1023.0,1022.0,1023.0,1022.0,1023.0,1022.0,1022.0,1023.0,1024.0,1023.0,1023.0,1023.0,1023.0,1022.0,1023.0,1023.0,1022.0,1024.0,1024.0,1023.0,1023.0,1023.0,1023.0,1022.0,1023.0,1022.0,1022.0,1023.0,1024.0,1024.0,1023.0,1023.0,1023.0,1023.0,1023.0,1022.0,1022.0,1023.0,1023.0,1024.0,1023.0,1023.0,1024.0,1023.0,1023.0,1023.0,1023.0,1023.0,1024.0,1024.0,1023.0,1023.0,1024.0,1023.0,1024.0,1023.0,1023.0,1024.0,1024.0,1024.0,1023.0,1023.0,1023.0,1023.0,1024.0,1022.0,1022.0,1023.0,1024.0,1024.0,1022.0,1023.0,1024.0,1023.0,1023.0,1021.0,1021.0,1024.0,1024.0,1023.0,1023.0,1023.0,1022.0,1023.0,1023.0,1024.0,1024.0,1023.0,1023.0,1023.0,1023.0,1023.0,1024.0,1024.0,1024.0,1024.0,1024.0,1024.0,1025.0,1024.0,1024.0,1023.0,1024.0,1024.0,1023.0,1025.0,1024.0,1024.0,1024.0,1024.0,1024.0,1023.0,1025.0,1025.0,1024.0,1024.0,1026.0,1024.0,1027.0,1026.0,1025.0,1026.0,1027.0,1024.0,1028.0,1029.0,1027.0,1027.0,1030.0,1024.0,1030.0,1031.0,1028.0,1028.0,1031.0,1024.0,1033.0,1032.0,1028.0,1027.0,1031.0,1024.0,1036.0,1036.0,1030.0,1028.0,1031.0,1025.0,1042.0,1042.0,1034.0,1029.0,1034.0,1025.0,1042.0,1036.0,1029.0,1026.0,1029.0,1024.0,1048.0,1039.0,1030.0,1026.0,1029.0,1025.0,1027.0,1024.0,1022.0,1022.0,1023.0,1021.0,1058.0,1045.0,1034.0,1027.0,1030.0,1027.0,1049.0,1041.0,1031.0,1026.0,1027.0,1025.0,1039.0,1033.0,1027.0,1024.0,1025.0,1878,1877,1906,	00:07:07.116,0.05322265625,0.05712890625,1.01611328125,-0.06103515625,0.3662109375,0.18310546875,3.197021484375,-2.96630859375,-85.6439208984375,575.0,-1365.0,-2851.0,0.733428955078125,0.00286865234375,-0.037933349609375,-0.678680419921875,3.1958627385644935,-2.9667125814600586,-84.21474628266631,0.7418365598508837,0.003330304425786792,-0.03788911007369526,-0.6695011896022749,1,	00:07:07.117,0.0732421875,0.0126953125,1.01806640625,-1.708984375,-2.01416015625,-0.1220703125,0.6976318359375,-4.1363525390625,29.3115234375,-149.0,-915.0,-2022.0,-0.966766357421875,-0.0150146484375,0.033355712890625,-0.253021240234375,0.6974784163846062,-4.134568393192719,32.308126355673096,-0.9598130418241771,-0.015878595860660833,0.032955853165303264,-0.27824576668812273,1
1782115934.364318,0.477,1026.0,1022.0,1023.0,1024.0,1023.0,1022.0,1022.0,1023.0,1022.0,1024.0,1024.0,1023.0,1023.0,1023.0,1022.0,1024.0,1023.0,1023.0,1023.0,1023.0,1022.0,1023.0,1023.0,1023.0,1023.0,1024.0,1023.0,1023.0,1023.0,1022.0,1023.0,1023.0,1022.0,1024.0,1023.0,1023.0,1023.0,1023.0,1023.0,1024.0,1021.0,1022.0,1023.0,1023.0,1023.0,1023.0,1023.0,1023.0,1023.0,1022.0,1022.0,1023.0,1024.0,1023.0,1023.0,1023.0,1023.0,1023.0,1023.0,1022.0,1022.0,1023.0,1024.0,1024.0,1023.0,1023.0,1023.0,1023.0,1023.0,1021.0,1022.0,1023.0,1024.0,1023.0,1023.0,1023.0,1023.0,1023.0,1024.0,1022.0,1022.0,1023.0,1024.0,1023.0,1023.0,1023.0,1023.0,1023.0,1024.0,1023.0,1022.0,1023.0,1024.0,1024.0,1023.0,1023.0,1024.0,1023.0,1024.0,1023.0,1023.0,1023.0,1024.0,1024.0,1023.0,1024.0,1024.0,1023.0,1024.0,1022.0,1022.0,1023.0,1023.0,1024.0,1022.0,1023.0,1023.0,1022.0,1023.0,1021.0,1022.0,1024.0,1024.0,1023.0,1023.0,1023.0,1023.0,1024.0,1022.0,1024.0,1024.0,1023.0,1023.0,1024.0,1023.0,1023.0,1024.0,1024.0,1024.0,1024.0,1024.0,1023.0,1024.0,1025.0,1024.0,1023.0,1023.0,1024.0,1023.0,1025.0,1025.0,1024.0,1023.0,1024.0,1024.0,1023.0,1025.0,1026.0,1024.0,1025.0,1026.0,1024.0,1027.0,1027.0,1024.0,1026.0,1027.0,1024.0,1028.0,1030.0,1026.0,1028.0,1030.0,1025.0,1030.0,1031.0,1027.0,1027.0,1030.0,1024.0,1032.0,1034.0,1028.0,1027.0,1031.0,1024.0,1037.0,1037.0,1030.0,1028.0,1032.0,1024.0,1042.0,1042.0,1033.0,1029.0,1034.0,1025.0,1041.0,1037.0,1029.0,1026.0,1029.0,1024.0,1048.0,1039.0,1030.0,1026.0,1030.0,1025.0,1027.0,1024.0,1022.0,1022.0,1023.0,1021.0,1058.0,1045.0,1034.0,1027.0,1030.0,1027.0,1048.0,1041.0,1031.0,1025.0,1028.0,1025.0,1037.0,1032.0,1026.0,1024.0,1026.0,1880,1876,1905,	00:07:07.126,0.05322265625,0.05810546875,1.015625,0.0,0.30517578125,0.18310546875,3.2794189453125,-2.9937744140625,-85.6439208984375,575.0,-1364.0,-2851.0,0.733428955078125,0.00323486328125,-0.038604736328125,-0.678680419921875,3.2819370613039363,-2.994680399715449,-84.21722655472853,0.7418193360797365,0.0037230282285738775,-0.038572881259787986,-0.669479159130698,1,	00:07:07.127,0.0732421875,0.01318359375,1.01611328125,-1.46484375,-1.8310546875,-0.1220703125,0.76904296875,-4.130859375,29.300537109375,-151.0,-912.0,-2023.0,-0.966766357421875,-0.015625,0.03314208984375,-0.25299072265625,0.7717786084500422,-4.129377949469567,32.30027682138221,-0.9598232568277575,-0.016486101879273223,0.03273308286599378,-0.2782014906205049,1
1782115934.376452,0.489,1026.0,1022.0,1022.0,1024.0,1023.0,1023.0,1023.0,1023.0,1022.0,1024.0,1023.0,1023.0,1023.0,1023.0,1022.0,1023.0,1024.0,1024.0,1023.0,1022.0,1023.0,1023.0,1023.0,1022.0,1024.0,1023.0,1022.0,1022.0,1024.0,1022.0,1024.0,1022.0,1022.0,1023.0,1023.0,1023.0,1023.0,1023.0,1022.0,1023.0,1021.0,1022.0,1024.0,1023.0,1023.0,1022.0,1023.0,1023.0,1024.0,1022.0,1022.0,1023.0,1024.0,1023.0,1023.0,1023.0,1023.0,1023.0,1023.0,1023.0,1022.0,1023.0,1024.0,1023.0,1023.0,1023.0,1023.0,1023.0,1023.0,1022.0,1022.0,1023.0,1024.0,1024.0,1023.0,1023.0,1024.0,1023.0,1024.0,1023.0,1022.0,1023.0,1024.0,1024.0,1023.0,1023.0,1023.0,1022.0,1024.0,1023.0,1022.0,1024.0,1024.0,1024.0,1024.0,1023.0,1024.0,1023.0,1024.0,1023.0,1022.0,1023.0,1024.0,1024.0,1023.0,1023.0,1024.0,1023.0,1024.0,1023.0,1022.0,1023.0,1023.0,1023.0,1022.0,1023.0,1024.0,1023.0,1023.0,1021.0,1022.0,1024.0,1024.0,1023.0,1023.0,1023.0,1023.0,1024.0,1023.0,1024.0,1023.0,1023.0,1023.0,1024.0,1023.0,1023.0,1024.0,1024.0,1024.0,1024.0,1024.0,1023.0,1025.0,1024.0,1024.0,1023.0,1024.0,1024.0,1023.0,1025.0,1025.0,1024.0,1023.0,1024.0,1024.0,1023.0,1025.0,1025.0,1024.0,1024.0,1026.0,1024.0,1027.0,1027.0,1024.0,1025.0,1026.0,1024.0,1028.0,1030.0,1027.0,1027.0,1029.0,1025.0,1030.0,1031.0,1028.0,1027.0,1030.0,1024.0,1031.0,1032.0,1028.0,1027.0,1031.0,1024.0,1035.0,1037.0,1029.0,1028.0,1031.0,1024.0,1042.0,1043.0,1033.0,1029.0,1033.0,1025.0,1040.0,1036.0,1029.0,1026.0,1029.0,1024.0,1047.0,1039.0,1030.0,1026.0,1029.0,1024.0,1027.0,1024.0,1022.0,1022.0,1023.0,1021.0,1058.0,1044.0,1034.0,1027.0,1030.0,1026.0,1049.0,1040.0,1030.0,1025.0,1028.0,1024.0,1037.0,1031.0,1026.0,1024.0,1026.0,1882,1876,1905,	00:07:07.136,0.05224609375,0.056640625,1.015625,0.1220703125,0.244140625,0.244140625,3.2025146484375,-2.9443359375,-85.638427734375,575.0,-1366.0,-2849.0,0.73345947265625,0.0030517578125,-0.037841796875,-0.678680419921875,3.204739517417264,-2.945002662566723,-84.2105893405205,0.7418606589344766,0.00351618474882179,-0.03780048380765375,-0.669478545282837,1,	00:07:07.137,0.07275390625,0.01220703125,1.01416015625,-1.28173828125,-1.89208984375,-0.1220703125,0.670166015625,-4.119873046875,29.3060302734375,-149.0,-914.0,-2028.0,-0.966766357421875,-0.0147705078125,0.033294677734375,-0.25299072265625,0.671637337318598,-4.12017588273036,32.30508520927524,-0.95982853085017,-0.01562638343000599,0.032898446709565266,-0.2782134067779633,1
1782115934.384663,0.497,1026.0,1023.0,1022.0,1024.0,1023.0,1023.0,1022.0,1023.0,1022.0,1024.0,1024.0,1023.0,1023.0,1023.0,1023.0,1023.0,1024.0,1023.0,1023.0,1022.0,1023.0,1022.0,1024.0,1022.0,1023.0,1024.0,1023.0,1023.0,1023.0,1022.0,1023.0,1022.0,1022.0,1024.0,1023.0,1022.0,1022.0,1023.0,1023.0,1023.0,1021.0,1023.0,1023.0,1024.0,1023.0,1022.0,1023.0,1023.0,1023.0,1023.0,1022.0,1023.0,1023.0,1024.0,1023.0,1023.0,1023.0,1023.0,1023.0,1022.0,1022.0,1023.0,1024.0,1024.0,1023.0,1023.0,1022.0,1022.0,1023.0,1022.0,1022.0,1023.0,1024.0,1024.0,1023.0,1023.0,1023.0,1023.0,1023.0,1022.0,1022.0,1023.0,1023.0,1023.0,1023.0,1023.0,1024.0,1023.0,1024.0,1023.0,1023.0,1023.0,1024.0,1024.0,1023.0,1023.0,1023.0,1023.0,1024.0,1023.0,1023.0,1023.0,1024.0,1024.0,1023.0,1023.0,1024.0,1023.0,1024.0,1022.0,1022.0,1023.0,1024.0,1024.0,1022.0,1023.0,1023.0,1023.0,1023.0,1021.0,1022.0,1024.0,1024.0,1023.0,1023.0,1023.0,1023.0,1024.0,1023.0,1024.0,1024.0,1024.0,1023.0,1023.0,1022.0,1024.0,1024.0,1024.0,1024.0,1023.0,1024.0,1023.0,1025.0,1024.0,1024.0,1024.0,1023.0,1024.0,1024.0,1024.0,1024.0,1025.0,1023.0,1023.0,1024.0,1023.0,1025.0,1026.0,1024.0,1024.0,1025.0,1024.0,1026.0,1027.0,1024.0,1025.0,1026.0,1024.0,1028.0,1030.0,1026.0,1026.0,1029.0,1025.0,1029.0,1031.0,1028.0,1027.0,1029.0,1024.0,1031.0,1033.0,1028.0,1026.0,1030.0,1024.0,1034.0,1036.0,1029.0,1026.0,1031.0,1025.0,1041.0,1042.0,1033.0,1028.0,1033.0,1025.0,1039.0,1036.0,1029.0,1025.0,1028.0,1024.0,1046.0,1039.0,1030.0,1026.0,1029.0,1025.0,1027.0,1024.0,1022.0,1022.0,1023.0,1022.0,1057.0,1043.0,1033.0,1027.0,1029.0,1027.0,1048.0,1040.0,1030.0,1025.0,1028.0,1024.0,1036.0,1030.0,1026.0,1024.0,1025.0,1884,1875,1906,	00:07:07.146,0.052734375,0.05712890625,1.015625,0.18310546875,0.18310546875,0.18310546875,3.2574462890625,-3.021240234375,-85.638427734375,576.0,-1363.0,-2850.0,0.73345947265625,0.0029296875,-0.03863525390625,-0.678619384765625,3.2564425170302234,-3.019876386503771,-84.21125748126518,0.7418549273436945,0.003412549863809172,-0.03858664455067975,-0.6694405814869819,1,	00:07:07.148,0.07275390625,0.01318359375,1.01611328125,-0.8544921875,-2.01416015625,-0.1220703125,0.7525634765625,-4.10888671875,29.300537109375,-152.0,-911.0,-2030.0,-0.966796875,-0.015380859375,0.033050537109375,-0.252960205078125,0.7499092589686596,-4.109925274484034,32.29740154124251,-0.9598395351716327,-0.016254955677100023,0.03262362419102898,-0.27817178556079714,1
