Unix_Time_s,RelativeTime_s,P_1,P_2,P_3,P_4,P_5,P_6,P_7,P_8,P_9,P_10,P_11,P_12,P_13,P_14,P_15,P_16,P_17,P_18,P_19,P_20,P_21,P_22,P_23,P_24,P_25,P_26,P_27,P_28,P_29,P_30,P_31,P_32,P_33,P_34,P_35,P_36,P_37,P_38,P_39,P_40,P_41,P_42,P_43,P_44,P_45,P_46,P_47,P_48,P_49,P_50,P_51,P_52,P_53,P_54,P_55,P_56,P_57,P_58,P_59,P_60,P_61,P_62,P_63,P_64,P_65,P_66,P_67,P_68,P_69,P_70,P_71,P_72,P_73,P_74,P_75,P_76,P_77,P_78,P_79,P_80,P_81,P_82,P_83,P_84,P_85,P_86,P_87,P_88,P_89,P_90,P_91,P_92,P_93,P_94,P_95,P_96,P_97,P_98,P_99,P_100,P_101,P_102,P_103,P_104,P_105,P_106,P_107,P_108,P_109,P_110,P_111,P_112,P_113,P_114,P_115,P_116,P_117,P_118,P_119,P_120,P_121,P_122,P_123,P_124,P_125,P_126,P_127,P_128,P_129,P_130,P_131,P_132,P_133,P_134,P_135,P_136,P_137,P_138,P_139,P_140,P_141,P_142,P_143,P_144,P_145,P_146,P_147,P_148,P_149,P_150,P_151,P_152,P_153,P_154,P_155,P_156,P_157,P_158,P_159,P_160,P_161,P_162,P_163,P_164,P_165,P_166,P_167,P_168,P_169,P_170,P_171,P_172,P_173,P_174,P_175,P_176,P_177,P_178,P_179,P_180,P_181,P_182,P_183,P_184,P_185,P_186,P_187,P_188,P_189,P_190,P_191,P_192,P_193,P_194,P_195,P_196,P_197,P_198,P_199,P_200,P_201,P_202,P_203,P_204,P_205,P_206,P_207,P_208,P_209,P_210,P_211,P_212,P_213,P_214,P_215,P_216,P_217,P_218,P_219,P_220,P_221,P_222,P_223,P_224,P_225,P_226,P_227,P_228,P_229,P_230,P_231,P_232,P_233,Flex1,Flex2,Bat,IMU1_RefTime,IMU1_Ax,IMU1_Ay,IMU1_Az,IMU1_Wx,IMU1_Wy,IMU1_Wz,IMU1_Roll,IMU1_Pitch,IMU1_Yaw,IMU1_Hx,IMU1_Hy,IMU1_Hz,IMU1_Q0,IMU1_Q1,IMU1_Q2,IMU1_Q3,IMU2_RefTime,IMU2_Ax,IMU2_Ay,IMU2_Az,IMU2_Wx,IMU2_Wy,IMU2_Wz,IMU2_Roll,IMU2_Pitch,IMU2_Yaw,IMU2_Hx,IMU2_Hy,IMU2_Hz,IMU2_Q0,IMU2_Q1,IMU2_Q2,IMU2_Q3,IMU1_FusedRoll,IMU1_FusedPitch,IMU1_FusedYaw,IMU1_FusedQ0,IMU1_FusedQ1,IMU1_FusedQ2,IMU1_FusedQ3,IMU1_MagValid,IMU2_FusedRoll,IMU2_FusedPitch,IMU2_FusedYaw,IMU2_FusedQ0,IMU2_FusedQ1,IMU2_FusedQ2,IMU2_FusedQ3,IMU2_MagValid
1782115933.897194,0.009,1018.0,1019.0,1019.0,1019.0,1020.0,1020.0,1020.0,1020.0,1020.0,1018.0,1020.0,1020.0,1020.0,1020.0,1019.0,1019.0,1020.0,1019.0,1020.0,1020.0,1020.0,1019.0,1020.0,1020.0,1020.0,1020.0,1020.0,1020.0,1020.0,1019.0,1019.0,1020.0,1019.0,1019.0,1020.0,1021.0,1021.0,1020.0,1019.0,1020.0,1021.0,1020.0,1020.0,1020.0,1020.0,1020.0,1020.0,1018.0,1019.0,1020.0,1020.0,1020.0,1020.0,1021.0,1020.0,1020.0,1020.0,1018.0,1020.0,1020.0,1020.0,1019.0,1020.0,1020.0,1021.0,1021.0,1021.0,1019.0,1020.0,1021.0,1021.0,1020.0,1019.0,1020.0,1021.0,1021.0,1020.0,1018.0,1019.0,1020.0,1020.0,1019.0,1020.0,1019.0,1021.0,1021.0,1020.0,1018.0,1019.0,1021.0,1020.0,1019.0,1019.0,1020.0,1021.0,1020.0,1020.0,1018.0,1020.0,1020.0,1019.0,1019.0,1020.0,1020.0,1021.0,1021.0,1020.0,1019.0,1019.0,1021.0,1020.0,1019.0,1020.0,1020.0,1021.0,1021.0,1021.0,1020.0,1020.0,1022.0,1021.0,1020.0,1020.0,1022.0,1021.0,1021.0,1020.0,1020.0,1022.0,1020.0,1020.0,1021.0,1020.0,1020.0,1019.0,1019.0,1020.0,1020.0,1022.0,1021.0,1021.0,1020.0,1019.0,1020.0,1020.0,1021.0,1021.0,1020.0,1019.0,1019.0,1020.0,1020.0,1021.0,1020.0,1020.0,1019.0,1019.0,1020.0,1020.0,1020.0,1020.0,1018.0,1020.0,1021.0,1021.0,1021.0,1020.0,1019.0,1020.0,1021.0,1021.0,1021.0,1021.0,1019.0,1020.0,1020.0,1021.0,1021.0,1020.0,1019.0,1020.0,1021.0,1022.0,1021.0,1020.0,1021.0,1020.0,1021.0,1022.0,1022.0,1022.0,1021.0,1020.0,1021.0,1023.0,1022.0,1022.0,1021.0,1020.0,1021.0,1022.0,1022.0,1023.0,1021.0,1020.0,1022.0,1023.0,1022.0,1022.0,1023.0,1021.0,1022.0,1024.0,1023.0,1023.0,1024.0,1020.0,1021.0,1023.0,1022.0,1022.0,1022.0,1021.0,1022.0,1026.0,1024.0,1024.0,1061.0,1020.0,1022.0,1025.0,1023.0,1024.0,2369,2209,1898,	00:07:04.762,-0.01025390625,0.072265625,1.017578125,2.50244140625,1.0986328125,0.06103515625,4.10888671875,0.6317138671875,31.036376953125,674.0,-517.0,-4235.0,0.96295166015625,0.0330810546875,0.014892578125,0.267181396484375,4.109611919213486,0.6322434160705381,32.69380929058492,0.9589992686277525,0.0328536009037299,0.015382340058530479,0.28107726214231227,1,	00:07:04.763,0.04736328125,0.01953125,1.0146484375,-2.62451171875,1.03759765625,0.48828125,1.0986328125,-2.5048828125,156.346435546875,696.0,503.0,-2041.0,0.204681396484375,0.023345947265625,0.004913330078125,0.978546142578125,1.098686487038541,-2.5040300061759746,157.6833713058204,0.19325997864521033,0.023290985952512645,0.005175972266696038,0.9808574411903633,1
1782115933.908691,0.021,1018.0,1019.0,1019.0,1019.0,1019.0,1020.0,1020.0,1020.0,1019.0,1019.0,1020.0,1020.0,1020.0,1020.0,1018.0,1019.0,1019.0,1020.0,1021.0,1020.0,1020.0,1018.0,1019.0,1021.0,1019.0,1020.0,1020.0,1020.0,1020.0,1018.0,1020.0,1021.0,1019.0,1020.0,1020.0,1020.0,1020.0,1020.0,1018.0,1020.0,1022.0,1020.0,1019.0,1020.0,1021.0,1020.0,1020.0,1018.0,1019.0,1021.0,1020.0,1019.0,1019.0,1020.0,1021.0,1020.0,1021.0,1018.0,1020.0,1021.0,1020.0,1019.0,1020.0,1020.0,1021.0,1020.0,1021.0,1018.0,1020.0,1022.0,1020.0,1020.0,1020.0,1020.0,1021.0,1020.0,1021.0,1018.0,1019.0,1021.0,1020.0,1019.0,1020.0,1020.0,1021.0,1021.0,1020.0,1018.0,1019.0,1022.0,1020.0,1020.0,1019.0,1020.0,1021.0,1021.0,1020.0,1018.0,1020.0,1021.0,1020.0,1018.0,1020.0,1020.0,1021.0,1021.0,1020.0,1018.0,1020.0,1021.0,1019.0,1019.0,1020.0,1021.0,1021.0,1021.0,1021.0,1019.0,1019.0,1023.0,1021.0,1020.0,1021.0,1022.0,1021.0,1021.0,1019.0,1020.0,1022.0,1019.0,1020.0,1021.0,1020.0,1020.0,1019.0,1019.0,1020.0,1020.0,1021.0,1020.0,1020.0,1019.0,1020.0,1019.0,1021.0,1021.0,1021.0,1020.0,1019.0,1019.0,1020.0,1021.0,1021.0,1020.0,1020.0,1018.0,1020.0,1020.0,1020.0,1020.0,1019.0,1017.0,1020.0,1020.0,1021.0,1021.0,1020.0,1019.0,1020.0,1020.0,1021.0,1021.0,1021.0,1019.0,1020.0,1020.0,1021.0,1021.0,1021.0,1018.0,1021.0,1021.0,1021.0,1021.0,1021.0,1021.0,1020.0,1021.0,1022.0,1021.0,1022.0,1021.0,1020.0,1021.0,1023.0,1023.0,1022.0,1022.0,1020.0,1021.0,1023.0,1023.0,1022.0,1022.0,1021.0,1021.0,1023.0,1023.0,1022.0,1022.0,1020.0,1022.0,1024.0,1023.0,1022.0,1024.0,1020.0,1022.0,1023.0,1023.0,1022.0,1022.0,1021.0,1022.0,1026.0,1025.0,1023.0,1061.0,1019.0,1022.0,1024.0,1024.0,1023.0,2374,2210,1898,	00:07:04.772,-0.009765625,0.07080078125,1.01806640625,2.197265625,1.03759765625,0.18310546875,4.053955078125,0.59326171875,31.0418701171875,676.0,-516.0,-4234.0,0.962982177734375,0.03271484375,0.01446533203125,0.267242431640625,4.054528213667872,0.5932021312042585,32.695547682941374,0.9590090408742866,0.03248827476838092,0.014921019082175612,0.28111124970997564,1,	00:07:04.773,0.044921875,0.02001953125,1.01513671875,-2.50244140625,1.15966796875,0.48828125,1.142578125,-2.5543212890625,156.3519287109375,696.0,503.0,-2043.0,0.20465087890625,0.02386474609375,0.005157470703125,0.978546142578125,1.1401498732904327,-2.555343101489474,157.68554718850322,0.19322663118387703,0.023799987983207472,0.005444605758037629,0.9808503381461765,1
1782115933.918709,0.031,1018.0,1019.0,1019.0,1019.0,1020.0,1020.0,1021.0,1019.0,1019.0,1020.0,1021.0,1020.0,1019.0,1020.0,1018.0,1019.0,1020.0,1020.0,1020.0,1020.0,1020.0,1018.0,1020.0,1021.0,1019.0,1020.0,1020.0,1020.0,1020.0,1018.0,1020.0,1021.0,1019.0,1020.0,1020.0,1020.0,1021.0,1020.0,1018.0,1020.0,1021.0,1020.0,1019.0,1020.0,1020.0,1021.0,1020.0,1018.0,1020.0,1021.0,1020.0,1019.0,1020.0,1021.0,1021.0,1020.0,1020.0,1019.0,1020.0,1021.0,1020.0,1020.0,1020.0,1020.0,1020.0,1021.0,1021.0,1018.0,1020.0,1022.0,1020.0,1020.0,1019.0,1020.0,1021.0,1020.0,1021.0,1019.0,1019.0,1022.0,1020.0,1019.0,1020.0,1021.0,1021.0,1020.0,1020.0,1019.0,1019.0,1021.0,1020.0,1019.0,1020.0,1021.0,1021.0,1020.0,1020.0,1018.0,1020.0,1021.0,1019.0,1018.0,1019.0,1021.0,1021.0,1020.0,1020.0,1018.0,1019.0,1022.0,1020.0,1019.0,1020.0,1022.0,1021.0,1021.0,1021.0,1019.0,1020.0,1023.0,1021.0,1020.0,1021.0,1022.0,1021.0,1020.0,1019.0,1020.0,1023.0,1019.0,1022.0,1022.0,1020.0,1020.0,1018.0,1019.0,1020.0,1022.0,1022.0,1020.0,1021.0,1018.0,1020.0,1020.0,1021.0,1022.0,1020.0,1020.0,1018.0,1019.0,1019.0,1021.0,1022.0,1020.0,1020.0,1017.0,1020.0,1022.0,1021.0,1020.0,1020.0,1017.0,1020.0,1021.0,1022.0,1021.0,1021.0,1018.0,1020.0,1022.0,1021.0,1020.0,1020.0,1019.0,1019.0,1022.0,1022.0,1020.0,1020.0,1018.0,1020.0,1022.0,1022.0,1021.0,1021.0,1020.0,1020.0,1022.0,1022.0,1022.0,1021.0,1021.0,1020.0,1023.0,1023.0,1023.0,1022.0,1022.0,1020.0,1023.0,1023.0,1022.0,1022.0,1022.0,1020.0,1022.0,1023.0,1022.0,1022.0,1023.0,1020.0,1023.0,1023.0,1022.0,1023.0,1024.0,1020.0,1022.0,1023.0,1022.0,1022.0,1022.0,1021.0,1023.0,1025.0,1025.0,1024.0,1062.0,1020.0,1022.0,1024.0,1023.0,1023.0,2379,2211,1898,	00:07:04.783,-0.00927734375,0.0712890625,1.01806640625,1.708984375,0.9765625,0.18310546875,4.02099609375,0.52734375,31.0418701171875,678.0,-514.0,-4241.0,0.962982177734375,0.032562255859375,0.013824462890625,0.26727294921875,4.02031273115624,0.526982361660736,32.69755319637497,0.9590107816345113,0.032364322422847674,0.014283511091341131,0.2811527212277648,1,	00:07:04.784,0.046875,0.01806640625,1.01806640625,-2.38037109375,1.46484375,0.54931640625,1.0382080078125,-2.5927734375,156.357421875,699.0,503.0,-2042.0,0.20458984375,0.02398681640625,0.004241943359375,0.978546142578125,1.0392264588499909,-2.5908792721057123,157.69479456111935,0.19316425798514442,0.02393358377473336,0.004522626225631355,0.9808640572764248,1
1782115933.928737,0.041,1018.0,1018.0,1020.0,1019.0,1020.0,1020.0,1020.0,1020.0,1019.0,1019.0,1021.0,1020.0,1020.0,1020.0,1019.0,1020.0,1019.0,1020.0,1020.0,1020.0,1020.0,1019.0,1019.0,1020.0,1020.0,1020.0,1020.0,1020.0,1020.0,1017.0,1020.0,1021.0,1019.0,1019.0,1020.0,1020.0,1021.0,1020.0,1018.0,1020.0,1021.0,1019.0,1020.0,1020.0,1020.0,1021.0,1020.0,1018.0,1019.0,1020.0,1020.0,1019.0,1020.0,1020.0,1020.0,1020.0,1020.0,1018.0,1020.0,1021.0,1020.0,1019.0,1020.0,1020.0,1020.0,1021.0,1020.0,1018.0,1020.0,1021.0,1021.0,1020.0,1020.0,1021.0,1021.0,1021.0,1021.0,1019.0,1020.0,1021.0,1021.0,1019.0,1020.0,1020.0,1020.0,1020.0,1020.0,1018.0,1020.0,1021.0,1020.0,1019.0,1020.0,1020.0,1020.0,1021.0,1020.0,1018.0,1019.0,1020.0,1020.0,1019.0,1020.0,1021.0,1021.0,1020.0,1021.0,1018.0,1020.0,1020.0,1020.0,1019.0,1020.0,1021.0,1021.0,1021.0,1021.0,1020.0,1019.0,1022.0,1021.0,1020.0,1021.0,1021.0,1021.0,1021.0,1020.0,1020.0,1022.0,1020.0,1021.0,1021.0,1021.0,1020.0,1019.0,1019.0,1020.0,1021.0,1020.0,1021.0,1021.0,1019.0,1020.0,1020.0,1021.0,1021.0,1021.0,1020.0,1019.0,1019.0,1020.0,1020.0,1020.0,1020.0,1020.0,1018.0,1019.0,1021.0,1020.0,1020.0,1020.0,1018.0,1020.0,1021.0,1021.0,1020.0,1021.0,1019.0,1020.0,1021.0,1021.0,1021.0,1021.0,1019.0,1020.0,1021.0,1021.0,1021.0,1020.0,1018.0,1020.0,1022.0,1021.0,1022.0,1022.0,1019.0,1020.0,1022.0,1022.0,1022.0,1022.0,1021.0,1020.0,1022.0,1023.0,1023.0,1023.0,1022.0,1020.0,1022.0,1022.0,1024.0,1022.0,1021.0,1021.0,1022.0,1023.0,1024.0,1023.0,1022.0,1021.0,1022.0,1024.0,1025.0,1023.0,1023.0,1020.0,1022.0,1023.0,1024.0,1022.0,1023.0,1022.0,1023.0,1025.0,1026.0,1023.0,1061.0,1021.0,1022.0,1024.0,1025.0,1023.0,2384,2212,1898,	00:07:04.793,-0.009765625,0.07080078125,1.01806640625,1.03759765625,1.03759765625,0.244140625,3.9495849609375,0.5767822265625,31.0418701171875,678.0,-520.0,-4237.0,0.962982177734375,0.0318603515625,0.014068603515625,0.26727294921875,3.9490261800848727,0.5784309682471782,32.69993297405302,0.9590271683665135,0.03164104692962403,0.014539800619067577,0.28116601622895704,1,	00:07:04.794,0.04541015625,0.017578125,1.02392578125,-1.77001953125,1.77001953125,0.54931640625,0.955810546875,-2.5103759765625,156.368408203125,699.0,504.0,-2040.0,0.20452880859375,0.023162841796875,0.003662109375,0.97857666015625,0.9542240966156165,-2.5108076179782297,157.70358507296856,0.19311542836054327,0.02310464653520668,0.003932051106676123,0.9808960931779174,1
1782115933.939904,0.052,1018.0,1019.0,1020.0,1020.0,1020.0,1019.0,1020.0,1020.0,1019.0,1020.0,1020.0,1020.0,1020.0,1019.0,1019.0,1019.0,1019.0,1020.0,1020.0,1020.0,1020.0,1018.0,1019.0,1021.0,1020.0,1020.0,1020.0,1020.0,1020.0,1018.0,1020.0,1020.0,1020.0,1020.0,1021.0,1021.0,1020.0,1020.0,1018.0,1020.0,1020.0,1020.0,1020.0,1021.0,1021.0,1020.0,1020.0,1018.0,1020.0,1020.0,1020.0,1019.0,1020.0,1021.0,1021.0,1020.0,1020.0,1018.0,1019.0,1020.0,1020.0,1019.0,1020.0,1020.0,1020.0,1021.0,1020.0,1019.0,1019.0,1021.0,1021.0,1020.0,1020.0,1021.0,1021.0,1020.0,1020.0,1018.0,1020.0,1020.0,1020.0,1019.0,1020.0,1020.0,1021.0,1020.0,1020.0,1018.0,1020.0,1021.0,1020.0,1019.0,1020.0,1020.0,1021.0,1020.0,1021.0,1018.0,1020.0,1020.0,1020.0,1019.0,1019.0,1020.0,1021.0,1020.0,1021.0,1018.0,1020.0,1020.0,1020.0,1019.0,1020.0,1021.0,1021.0,1021.0,1021.0,1020.0,1020.0,1022.0,1021.0,1019.0,1021.0,1021.0,1021.0,1021.0,1019.0,1020.0,1022.0,1020.0,1021.0,1021.0,1021.0,1020.0,1019.0,1019.0,1020.0,1021.0,1021.0,1021.0,1021.0,1019.0,1020.0,1020.0,1020.0,1021.0,1020.0,1020.0,1019.0,1020.0,1020.0,1021.0,1021.0,1021.0,1020.0,1018.0,1021.0,1021.0,1021.0,1020.0,1020.0,1018.0,1021.0,1021.0,1021.0,1021.0,1021.0,1019.0,1020.0,1021.0,1021.0,1021.0,1021.0,1019.0,1020.0,1021.0,1021.0,1020.0,1020.0,1018.0,1020.0,1022.0,1022.0,1021.0,1022.0,1020.0,1021.0,1022.0,1022.0,1021.0,1022.0,1020.0,1021.0,1022.0,1023.0,1022.0,1024.0,1022.0,1020.0,1022.0,1022.0,1022.0,1023.0,1023.0,1021.0,1022.0,1024.0,1023.0,1022.0,1023.0,1020.0,1023.0,1023.0,1023.0,1022.0,1023.0,1020.0,1022.0,1023.0,1022.0,1022.0,1023.0,1022.0,1022.0,1025.0,1024.0,1024.0,1062.0,1020.0,1021.0,1024.0,1024.0,1023.0,2388,2213,1897,	00:07:04.803,-0.00927734375,0.07080078125,1.0185546875,0.54931640625,0.91552734375,0.244140625,3.9935302734375,0.50537109375,31.04736328125,679.0,-516.0,-4242.0,0.96295166015625,0.03240966796875,0.0135498046875,0.267333984375,3.9936340584391274,0.5044932842947406,32.7033649888697,0.9590029516541472,0.032195575319689605,0.014031492976420309,0.2812114877691169,1,	00:07:04.804,0.04248046875,0.01904296875,1.0234375,-1.15966796875,1.953125,0.54931640625,0.999755859375,-2.4224853515625,156.3739013671875,699.0,505.0,-2046.0,0.204498291015625,0.0224609375,0.00421142578125,0.978607177734375,1.001003624585426,-2.4208812262170785,157.70687659303627,0.19308779344405752,0.02241363942538936,0.004484958613577794,0.9809151940595314,1
1782115933.949893,0.062,1018.0,1020.0,1019.0,1019.0,1020.0,1021.0,1019.0,1020.0,1018.0,1019.0,1020.0,1020.0,1020.0,1020.0,1018.0,1019.0,1019.0,1021.0,1021.0,1020.0,1020.0,1018.0,1020.0,1021.0,1020.0,1020.0,1020.0,1020.0,1020.0,1018.0,1020.0,1021.0,1020.0,1019.0,1020.0,1021.0,1020.0,1020.0,1018.0,1019.0,1021.0,1020.0,1020.0,1020.0,1021.0,1020.0,1020.0,1018.0,1020.0,1021.0,1020.0,1019.0,1020.0,1020.0,1022.0,1020.0,1020.0,1017.0,1020.0,1021.0,1020.0,1019.0,1019.0,1020.0,1022.0,1020.0,1021.0,1018.0,1020.0,1022.0,1021.0,1020.0,1020.0,1020.0,1022.0,1020.0,1020.0,1018.0,1019.0,1021.0,1020.0,1019.0,1019.0,1020.0,1021.0,1020.0,1020.0,1018.0,1020.0,1021.0,1020.0,1019.0,1020.0,1020.0,1022.0,1020.0,1020.0,1018.0,1019.0,1021.0,1020.0,1019.0,1020.0,1020.0,1022.0,1020.0,1020.0,1018.0,1020.0,1021.0,1019.0,1019.0,1020.0,1020.0,1023.0,1021.0,1021.0,1019.0,1020.0,1022.0,1021.0,1020.0,1020.0,1023.0,1020.0,1021.0,1019.0,1020.0,1022.0,1020.0,1020.0,1022.0,1020.0,1020.0,1018.0,1020.0,1019.0,1020.0,1023.0,1020.0,1021.0,1019.0,1019.0,1020.0,1020.0,1023.0,1020.0,1020.0,1018.0,1019.0,1019.0,1020.0,1022.0,1021.0,1020.0,1018.0,1020.0,1021.0,1022.0,1020.0,1020.0,1017.0,1020.0,1020.0,1022.0,1020.0,1020.0,1018.0,1020.0,1020.0,1023.0,1021.0,1020.0,1018.0,1019.0,1021.0,1022.0,1021.0,1020.0,1017.0,1020.0,1021.0,1023.0,1021.0,1021.0,1020.0,1020.0,1021.0,1024.0,1022.0,1022.0,1021.0,1020.0,1022.0,1025.0,1022.0,1022.0,1022.0,1020.0,1022.0,1025.0,1022.0,1023.0,1022.0,1020.0,1022.0,1025.0,1022.0,1023.0,1022.0,1019.0,1022.0,1026.0,1024.0,1023.0,1023.0,1020.0,1021.0,1025.0,1023.0,1022.0,1022.0,1022.0,1022.0,1029.0,1024.0,1023.0,1062.0,1020.0,1021.0,1027.0,1024.0,1022.0,2391,2214,1897,	00:07:04.814,-0.01025390625,0.072265625,1.017578125,0.18310546875,0.8544921875,0.18310546875,4.0594482421875,0.5767822265625,31.0528564453125,673.0,-517.0,-4236.0,0.96295166015625,0.03277587890625,0.01434326171875,0.267333984375,4.058878048684249,0.57892121680638,32.7063872380481,0.9589805801752529,0.03255835381445418,0.014815266651442912,0.28120581131561834,1,	00:07:04.815,0.04296875,0.01953125,1.025390625,-0.732421875,1.708984375,0.54931640625,1.0821533203125,-2.384033203125,156.3739013671875,698.0,505.0,-2041.0,0.2044677734375,0.02227783203125,0.0050048828125,0.978607177734375,1.0826262004057967,-2.3823871187950263,157.70893257881283,0.1930586538889805,0.022221586724423984,0.005249042312808217,0.9809215079693289,1
1782115933.958941,0.071,1018.0,1019.0,1019.0,1019.0,1020.0,1020.0,1020.0,1020.0,1018.0,1019.0,1021.0,1020.0,1020.0,1021.0,1018.0,1019.0,1019.0,1021.0,1020.0,1021.0,1021.0,1018.0,1020.0,1021.0,1019.0,1020.0,1020.0,1020.0,1020.0,1018.0,1019.0,1020.0,1020.0,1019.0,1020.0,1021.0,1020.0,1020.0,1018.0,1020.0,1021.0,1020.0,1020.0,1020.0,1021.0,1020.0,1021.0,1018.0,1019.0,1021.0,1020.0,1019.0,1019.0,1020.0,1021.0,1020.0,1020.0,1018.0,1020.0,1021.0,1020.0,1019.0,1019.0,1021.0,1021.0,1020.0,1020.0,1019.0,1020.0,1022.0,1021.0,1020.0,1020.0,1021.0,1021.0,1020.0,1020.0,1019.0,1020.0,1021.0,1021.0,1019.0,1019.0,1021.0,1021.0,1020.0,1021.0,1017.0,1020.0,1022.0,1021.0,1019.0,1019.0,1020.0,1021.0,1020.0,1020.0,1018.0,1020.0,1021.0,1020.0,1019.0,1020.0,1020.0,1021.0,1020.0,1020.0,1017.0,1020.0,1021.0,1019.0,1019.0,1020.0,1021.0,1021.0,1021.0,1021.0,1019.0,1020.0,1023.0,1021.0,1020.0,1021.0,1021.0,1021.0,1021.0,1019.0,1020.0,1023.0,1020.0,1021.0,1021.0,1021.0,1020.0,1018.0,1019.0,1020.0,1021.0,1022.0,1021.0,1021.0,1018.0,1019.0,1020.0,1021.0,1022.0,1021.0,1020.0,1019.0,1019.0,1019.0,1021.0,1021.0,1021.0,1020.0,1018.0,1019.0,1020.0,1021.0,1020.0,1020.0,1017.0,1020.0,1021.0,1021.0,1021.0,1021.0,1018.0,1020.0,1021.0,1021.0,1021.0,1021.0,1018.0,1020.0,1021.0,1020.0,1020.0,1021.0,1018.0,1021.0,1021.0,1022.0,1022.0,1021.0,1020.0,1020.0,1022.0,1022.0,1022.0,1023.0,1021.0,1020.0,1023.0,1023.0,1023.0,1023.0,1022.0,1020.0,1022.0,1023.0,1023.0,1023.0,1022.0,1020.0,1022.0,1023.0,1023.0,1024.0,1023.0,1021.0,1023.0,1024.0,1024.0,1023.0,1024.0,1020.0,1022.0,1023.0,1024.0,1022.0,1023.0,1021.0,1023.0,1025.0,1026.0,1023.0,1062.0,1020.0,1021.0,1024.0,1025.0,1023.0,2395,2215,1898,	00:07:04.824,-0.009765625,0.07177734375,1.01708984375,-0.244140625,0.732421875,0.1220703125,4.0045166015625,0.5108642578125,31.0528564453125,682.0,-519.0,-4242.0,0.96295166015625,0.032440185546875,0.013641357421875,0.267364501953125,4.0022979762193716,0.5123095891722312,32.707609156591516,0.9589904792056962,0.03224835799198864,0.014119356491835499,0.28124357409886874,1,	00:07:04.825,0.041015625,0.02001953125,1.02392578125,-0.30517578125,1.28173828125,0.48828125,1.1151123046875,-2.28515625,156.37939453125,698.0,504.0,-2045.0,0.204437255859375,0.021514892578125,0.00543212890625,0.9786376953125,1.1149396692688414,-2.285208871692945,157.71260968872338,0.19303233474713158,0.021444042350698928,0.005690389276920776,0.9809415325388205,1
1782115933.970538,0.083,1018.0,1019.0,1020.0,1020.0,1020.0,1020.0,1020.0,1020.0,1018.0,1020.0,1020.0,1020.0,1020.0,1020.0,1018.0,1019.0,1020.0,1020.0,1020.0,1020.0,1020.0,1018.0,1019.0,1021.0,1020.0,1020.0,1020.0,1020.0,1020.0,1017.0,1019.0,1021.0,1020.0,1020.0,1020.0,1020.0,1020.0,1020.0,1018.0,1020.0,1021.0,1019.0,1020.0,1021.0,1020.0,1021.0,1021.0,1018.0,1020.0,1021.0,1020.0,1019.0,1020.0,1020.0,1020.0,1020.0,1020.0,1018.0,1020.0,1021.0,1020.0,1019.0,1020.0,1020.0,1021.0,1021.0,1021.0,1019.0,1020.0,1022.0,1020.0,1020.0,1020.0,1020.0,1020.0,1020.0,1021.0,1019.0,1020.0,1021.0,1020.0,1019.0,1019.0,1020.0,1020.0,1021.0,1021.0,1018.0,1019.0,1021.0,1020.0,1019.0,1019.0,1021.0,1020.0,1021.0,1020.0,1018.0,1020.0,1021.0,1020.0,1018.0,1020.0,1021.0,1021.0,1021.0,1020.0,1018.0,1020.0,1021.0,1020.0,1019.0,1020.0,1021.0,1021.0,1021.0,1021.0,1019.0,1020.0,1023.0,1022.0,1020.0,1021.0,1022.0,1021.0,1021.0,1019.0,1019.0,1022.0,1019.0,1020.0,1021.0,1020.0,1020.0,1019.0,1020.0,1020.0,1021.0,1021.0,1020.0,1020.0,1019.0,1020.0,1019.0,1021.0,1021.0,1021.0,1020.0,1019.0,1019.0,1019.0,1021.0,1021.0,1021.0,1020.0,1018.0,1020.0,1021.0,1021.0,1021.0,1020.0,1017.0,1020.0,1020.0,1022.0,1021.0,1021.0,1018.0,1020.0,1022.0,1022.0,1021.0,1020.0,1019.0,1020.0,1020.0,1022.0,1021.0,1020.0,1018.0,1020.0,1022.0,1023.0,1022.0,1022.0,1020.0,1020.0,1022.0,1024.0,1022.0,1022.0,1022.0,1020.0,1023.0,1024.0,1022.0,1023.0,1022.0,1020.0,1022.0,1024.0,1023.0,1022.0,1023.0,1020.0,1023.0,1026.0,1023.0,1022.0,1022.0,1020.0,1023.0,1027.0,1024.0,1023.0,1024.0,1020.0,1022.0,1025.0,1022.0,1021.0,1023.0,1021.0,1023.0,1028.0,1024.0,1023.0,1063.0,1020.0,1022.0,1026.0,1024.0,1023.0,2398,2215,1898,	00:07:04.834,-0.0107421875,0.072265625,1.01708984375,-0.732421875,0.54931640625,0.1220703125,4.0484619140625,0.59326171875,31.0528564453125,676.0,-518.0,-4241.0,0.96295166015625,0.032623291015625,0.014434814453125,0.267333984375,4.046334016338756,0.5935268090014416,32.709700600880765,0.9589766488904382,0.03241705955876245,0.014907638165333822,0.2812306588136514,1,	00:07:04.835,0.0400390625,0.0205078125,1.02197265625,-0.1220703125,0.732421875,0.42724609375,1.1700439453125,-2.208251953125,156.37939453125,698.0,506.0,-2043.0,0.204437255859375,0.02093505859375,0.006072998046875,0.9786376953125,1.1718466528438185,-2.2072068872967923,157.7147413411563,0.19301282063841813,0.020872111578450616,0.006309579324221283,0.9809539210565448,1
1782115933.979904,0.092,1018.0,1020.0,1020.0,1019.0,1020.0,1020.0,1020.0,1019.0,1018.0,1019.0,1020.0,1020.0,1020.0,1020.0,1018.0,1019.0,1019.0,1020.0,1021.0,1020.0,1021.0,1018.0,1019.0,1020.0,1019.0,1020.0,1021.0,1021.0,1020.0,1017.0,1020.0,1021.0,1020.0,1020.0,1020.0,1021.0,1020.0,1020.0,1017.0,1020.0,1021.0,1020.0,1019.0,1020.0,1021.0,1020.0,1020.0,1018.0,1020.0,1021.0,1020.0,1020.0,1020.0,1020.0,1021.0,1020.0,1020.0,1017.0,1019.0,1021.0,1020.0,1019.0,1020.0,1021.0,1021.0,1021.0,1021.0,1018.0,1020.0,1021.0,1021.0,1020.0,1020.0,1021.0,1021.0,1020.0,1021.0,1018.0,1020.0,1021.0,1020.0,1020.0,1020.0,1020.0,1021.0,1020.0,1020.0,1018.0,1019.0,1021.0,1020.0,1019.0,1020.0,1021.0,1021.0,1021.0,1020.0,1018.0,1020.0,1020.0,1020.0,1018.0,1019.0,1020.0,1022.0,1020.0,1020.0,1017.0,1020.0,1021.0,1020.0,1019.0,1020.0,1021.0,1022.0,1020.0,1021.0,1018.0,1020.0,1022.0,1022.0,1020.0,1021.0,1021.0,1021.0,1021.0,1019.0,1019.0,1022.0,1019.0,1020.0,1021.0,1021.0,1021.0,1018.0,1019.0,1020.0,1021.0,1021.0,1021.0,1021.0,1018.0,1019.0,1020.0,1021.0,1021.0,1020.0,1021.0,1018.0,1020.0,1020.0,1021.0,1021.0,1021.0,1020.0,1018.0,1020.0,1021.0,1020.0,1020.0,1020.0,1017.0,1020.0,1021.0,1021.0,1021.0,1021.0,1018.0,1020.0,1021.0,1021.0,1020.0,1020.0,1019.0,1020.0,1021.0,1021.0,1021.0,1021.0,1018.0,1020.0,1022.0,1021.0,1021.0,1022.0,1020.0,1021.0,1022.0,1022.0,1022.0,1022.0,1021.0,1020.0,1023.0,1023.0,1023.0,1023.0,1023.0,1020.0,1023.0,1023.0,1023.0,1023.0,1023.0,1021.0,1023.0,1023.0,1023.0,1023.0,1024.0,1020.0,1024.0,1024.0,1023.0,1023.0,1024.0,1020.0,1023.0,1023.0,1023.0,1022.0,1023.0,1021.0,1023.0,1025.0,1024.0,1024.0,1063.0,1020.0,1022.0,1023.0,1024.0,1023.0,2400,2215,1898,	00:07:04.844,-0.009765625,0.07421875,1.01708984375,-1.220703125,0.42724609375,0.06103515625,4.119873046875,0.5657958984375,31.058349609375,680.0,-516.0,-4245.0,0.962921142578125,0.0333251953125,0.014404296875,0.267364501953125,4.12041885800569,0.5673147832691948,32.71148774419453,0.958949899842021,0.033101219155374235,0.014870639496437547,0.2812441340977134,1,	00:07:04.845,0.0419921875,0.0205078125,1.02001953125,-0.244140625,0.18310546875,0.30517578125,1.1590576171875,-2.296142578125,156.3848876953125,700.0,505.0,-2046.0,0.204376220703125,0.02166748046875,0.005767822265625,0.9786376953125,1.1571244610924958,-2.2962420944731985,157.7183119379915,0.19297428859351065,0.021609242219665578,0.006033956879461919,0.9809472748098631,1
1782115933.989757,0.102,1018.0,1018.0,1020.0,1018.0,1021.0,1020.0,1020.0,1020.0,1018.0,1020.0,1020.0,1020.0,1020.0,1020.0,1018.0,1020.0,1020.0,1020.0,1020.0,1020.0,1020.0,1017.0,1020.0,1021.0,1019.0,1020.0,1020.0,1020.0,1020.0,1017.0,1020.0,1021.0,1020.0,1019.0,1020.0,1020.0,1020.0,1021.0,1017.0,1020.0,1020.0,1020.0,1020.0,1020.0,1020.0,1020.0,1021.0,1017.0,1020.0,1021.0,1020.0,1019.0,1020.0,1020.0,1020.0,1021.0,1020.0,1017.0,1019.0,1021.0,1020.0,1019.0,1020.0,1021.0,1020.0,1021.0,1020.0,1018.0,1020.0,1022.0,1021.0,1020.0,1020.0,1020.0,1021.0,1021.0,1020.0,1018.0,1020.0,1021.0,1020.0,1019.0,1020.0,1020.0,1020.0,1020.0,1020.0,1017.0,1020.0,1021.0,1020.0,1019.0,1020.0,1021.0,1020.0,1021.0,1020.0,1017.0,1020.0,1021.0,1020.0,1019.0,1020.0,1021.0,1020.0,1021.0,1020.0,1017.0,1019.0,1022.0,1020.0,1019.0,1020.0,1021.0,1021.0,1020.0,1021.0,1018.0,1020.0,1023.0,1022.0,1020.0,1021.0,1021.0,1021.0,1021.0,1018.0,1020.0,1023.0,1020.0,1021.0,1021.0,1021.0,1020.0,1018.0,1019.0,1021.0,1021.0,1020.0,1021.0,1020.0,1018.0,1019.0,1020.0,1021.0,1021.0,1020.0,1020.0,1018.0,1020.0,1020.0,1021.0,1021.0,1020.0,1020.0,1018.0,1019.0,1021.0,1020.0,1020.0,1019.0,1017.0,1020.0,1021.0,1020.0,1020.0,1020.0,1019.0,1020.0,1021.0,1021.0,1021.0,1020.0,1018.0,1020.0,1021.0,1021.0,1021.0,1020.0,1018.0,1020.0,1021.0,1022.0,1021.0,1021.0,1020.0,1020.0,1022.0,1022.0,1022.0,1022.0,1021.0,1021.0,1023.0,1024.0,1023.0,1023.0,1022.0,1020.0,1023.0,1024.0,1023.0,1023.0,1023.0,1020.0,1022.0,1023.0,1023.0,1022.0,1023.0,1020.0,1023.0,1025.0,1023.0,1022.0,1024.0,1020.0,1023.0,1024.0,1023.0,1022.0,1022.0,1022.0,1024.0,1026.0,1024.0,1023.0,1062.0,1021.0,1023.0,1025.0,1024.0,1023.0,2402,2215,1898,	00:07:04.854,-0.00927734375,0.0732421875,1.01708984375,-1.708984375,0.48828125,0.06103515625,4.097900390625,0.4779052734375,31.058349609375,674.0,-514.0,-4240.0,0.962921142578125,0.033355712890625,0.01361083984375,0.26739501953125,4.100210082560009,0.4805275276820314,32.7124317494607,0.9589490963273156,0.03314524053210673,0.014095108599481153,0.2812816232828984,1,	00:07:04.856,0.041015625,0.01904296875,1.02099609375,-0.1220703125,-0.244140625,0.244140625,1.065673828125,-2.3016357421875,156.390380859375,696.0,505.0,-2046.0,0.204345703125,0.021575927734375,0.004974365234375,0.9786376953125,1.0641599057857307,-2.3026783087544174,157.724382709058,0.1929390580215137,0.021507496773243963,0.0052284222930454646,0.9809610650136148,1
1782115933.999775,0.112,1018.0,1019.0,1020.0,1019.0,1020.0,1020.0,1020.0,1020.0,1018.0,1019.0,1020.0,1020.0,1020.0,1020.0,1018.0,1020.0,1020.0,1020.0,1021.0,1020.0,1021.0,1018.0,1020.0,1021.0,1019.0,1020.0,1021.0,1020.0,1020.0,1017.0,1020.0,1021.0,1020.0,1019.0,1020.0,1021.0,1021.0,1020.0,1017.0,1020.0,1021.0,1020.0,1019.0,1020.0,1021.0,1020.0,1021.0,1017.0,1020.0,1021.0,1020.0,1019.0,1020.0,1020.0,1021.0,1020.0,1021.0,1017.0,1019.0,1021.0,1020.0,1019.0,1020.0,1021.0,1021.0,1020.0,1021.0,1018.0,1020.0,1022.0,1021.0,1020.0,1020.0,1020.0,1021.0,1021.0,1021.0,1018.0,1020.0,1021.0,1020.0,1019.0,1019.0,1021.0,1021.0,1020.0,1020.0,1017.0,1020.0,1021.0,1020.0,1019.0,1020.0,1021.0,1021.0,1021.0,1020.0,1017.0,1020.0,1021.0,1020.0,1019.0,1020.0,1021.0,1021.0,1020.0,1020.0,1017.0,1020.0,1021.0,1020.0,1019.0,1020.0,1021.0,1022.0,1020.0,1021.0,1018.0,1020.0,1023.0,1021.0,1020.0,1021.0,1021.0,1021.0,1021.0,1019.0,1020.0,1022.0,1020.0,1021.0,1020.0,1021.0,1020.0,1018.0,1019.0,1020.0,1021.0,1021.0,1021.0,1021.0,1019.0,1020.0,1020.0,1021.0,1021.0,1021.0,1020.0,1018.0,1020.0,1020.0,1021.0,1021.0,1021.0,1020.0,1018.0,1020.0,1020.0,1021.0,1021.0,1019.0,1017.0,1020.0,1021.0,1021.0,1021.0,1020.0,1018.0,1020.0,1021.0,1021.0,1021.0,1021.0,1018.0,1020.0,1021.0,1021.0,1021.0,1021.0,1018.0,1021.0,1022.0,1022.0,1022.0,1021.0,1019.0,1020.0,1022.0,1022.0,1022.0,1022.0,1021.0,1021.0,1023.0,1024.0,1023.0,1023.0,1022.0,1021.0,1023.0,1024.0,1023.0,1023.0,1022.0,1021.0,1023.0,1024.0,1023.0,1023.0,1023.0,1020.0,1023.0,1024.0,1024.0,1023.0,1024.0,1020.0,1022.0,1024.0,1023.0,1022.0,1023.0,1022.0,1023.0,1026.0,1026.0,1024.0,1062.0,1020.0,1022.0,1025.0,1024.0,1023.0,2404,2215,1898,	00:07:04.865,-0.01025390625,0.0712890625,1.01708984375,-1.89208984375,0.48828125,0.0,4.0155029296875,0.54931640625,31.058349609375,682.0,-513.0,-4249.0,0.96295166015625,0.032501220703125,0.014007568359375,0.26739501953125,4.0182266264420035,0.551821550916362,32.71220099012535,0.9589765856966219,0.03228400058966658,0.014490377641037073,0.28126798670911035,1,	00:07:04.866,0.041015625,0.02001953125,1.02099609375,-0.06103515625,-0.54931640625,0.18310546875,1.153564453125,-2.3016357421875,156.3848876953125,699.0,504.0,-2049.0,0.204345703125,0.021728515625,0.0057373046875,0.9786376953125,1.1551205455134363,-2.3040811816059463,157.72242971150015,0.19293847493179433,0.021672752017953684,0.006004353080236624,0.980953100028258,1
1782115934.010260,0.122,1018.0,1019.0,1020.0,1019.0,1020.0,1020.0,1020.0,1019.0,1018.0,1019.0,1020.0,1020.0,1020.0,1020.0,1018.0,1019.0,1020.0,1020.0,1021.0,1020.0,1020.0,1018.0,1019.0,1022.0,1020.0,1020.0,1021.0,1020.0,1020.0,1017.0,1020.0,1021.0,1019.0,1019.0,1020.0,1020.0,1020.0,1020.0,1018.0,1019.0,1021.0,1020.0,1020.0,1020.0,1021.0,1021.0,1020.0,1017.0,1020.0,1021.0,1020.0,1019.0,1020.0,1021.0,1021.0,1020.0,1020.0,1018.0,1020.0,1022.0,1020.0,1019.0,1019.0,1021.0,1021.0,1020.0,1021.0,1018.0,1019.0,1022.0,1021.0,1020.0,1020.0,1020.0,1021.0,1020.0,1020.0,1017.0,1019.0,1021.0,1019.0,1019.0,1020.0,1021.0,1021.0,1020.0,1021.0,1017.0,1020.0,1022.0,1020.0,1019.0,1019.0,1020.0,1020.0,1020.0,1020.0,1018.0,1020.0,1021.0,1019.0,1018.0,1020.0,1020.0,1021.0,1021.0,1020.0,1017.0,1019.0,1021.0,1020.0,1019.0,1020.0,1021.0,1021.0,1021.0,1021.0,1018.0,1020.0,1023.0,1021.0,1020.0,1021.0,1021.0,1021.0,1021.0,1018.0,1020.0,1023.0,1019.0,1021.0,1021.0,1020.0,1020.0,1017.0,1019.0,1020.0,1021.0,1021.0,1021.0,1021.0,1017.0,1020.0,1020.0,1021.0,1021.0,1021.0,1020.0,1018.0,1020.0,1020.0,1020.0,1021.0,1021.0,1019.0,1017.0,1020.0,1021.0,1020.0,1020.0,1019.0,1017.0,1020.0,1021.0,1021.0,1021.0,1020.0,1018.0,1020.0,1021.0,1021.0,1021.0,1021.0,1019.0,1020.0,1021.0,1021.0,1021.0,1020.0,1018.0,1021.0,1021.0,1021.0,1022.0,1021.0,1020.0,1020.0,1022.0,1023.0,1022.0,1021.0,1020.0,1021.0,1022.0,1024.0,1023.0,1023.0,1022.0,1021.0,1023.0,1023.0,1023.0,1023.0,1022.0,1020.0,1023.0,1024.0,1023.0,1022.0,1022.0,1021.0,1023.0,1024.0,1024.0,1023.0,1024.0,1020.0,1023.0,1023.0,1024.0,1022.0,1022.0,1022.0,1024.0,1026.0,1025.0,1023.0,1063.0,1020.0,1023.0,1024.0,1024.0,1023.0,2405,2215,1898,	00:07:04.875,-0.0107421875,0.072265625,1.017578125,-1.89208984375,0.3662109375,0.0,4.0594482421875,0.626220703125,31.058349609375,673.0,-511.0,-4238.0,0.962921142578125,0.03265380859375,0.014739990234375,0.267364501953125,4.058738677450583,0.6251050201488819,32.71305588071924,0.9589662421777267,0.03244282744586773,0.015203268539034354,0.28124734654139827,1,	00:07:04.876,0.04296875,0.0205078125,1.01513671875,-0.1220703125,-0.6103515625,0.1220703125,1.153564453125,-2.4005126953125,156.390380859375,696.0,507.0,-2043.0,0.204345703125,0.0225830078125,0.005584716796875,0.9786376953125,1.1555546139709088,-2.401787061447666,157.72345930629572,0.19291776311090417,0.022509759982727078,0.00584342186602844,0.9809392956767001,1
1782115934.021323,0.134,1018.0,1019.0,1020.0,1019.0,1020.0,1019.0,1020.0,1020.0,1018.0,1019.0,1020.0,1020.0,1020.0,1020.0,1018.0,1020.0,1019.0,1020.0,1020.0,1020.0,1020.0,1018.0,1019.0,1021.0,1020.0,1020.0,1020.0,1020.0,1020.0,1018.0,1020.0,1022.0,1020.0,1020.0,1020.0,1020.0,1021.0,1020.0,1017.0,1020.0,1021.0,1021.0,1019.0,1021.0,1020.0,1020.0,1020.0,1018.0,1019.0,1021.0,1020.0,1019.0,1020.0,1021.0,1020.0,1020.0,1020.0,1017.0,1019.0,1022.0,1020.0,1019.0,1019.0,1021.0,1021.0,1021.0,1021.0,1018.0,1020.0,1022.0,1021.0,1020.0,1020.0,1021.0,1021.0,1020.0,1020.0,1017.0,1019.0,1021.0,1021.0,1019.0,1019.0,1021.0,1020.0,1020.0,1021.0,1018.0,1019.0,1021.0,1020.0,1019.0,1020.0,1021.0,1021.0,1021.0,1021.0,1017.0,1019.0,1021.0,1020.0,1019.0,1019.0,1020.0,1021.0,1020.0,1021.0,1018.0,1020.0,1021.0,1020.0,1019.0,1020.0,1021.0,1021.0,1021.0,1022.0,1018.0,1020.0,1023.0,1022.0,1021.0,1021.0,1021.0,1021.0,1021.0,1018.0,1020.0,1023.0,1020.0,1021.0,1020.0,1020.0,1020.0,1018.0,1020.0,1020.0,1020.0,1021.0,1021.0,1021.0,1018.0,1020.0,1020.0,1021.0,1021.0,1021.0,1021.0,1018.0,1020.0,1020.0,1020.0,1021.0,1021.0,1021.0,1017.0,1020.0,1020.0,1021.0,1020.0,1020.0,1017.0,1020.0,1021.0,1021.0,1021.0,1021.0,1018.0,1020.0,1021.0,1021.0,1021.0,1022.0,1018.0,1020.0,1020.0,1021.0,1021.0,1021.0,1018.0,1021.0,1022.0,1022.0,1022.0,1022.0,1020.0,1020.0,1022.0,1022.0,1022.0,1023.0,1021.0,1021.0,1022.0,1023.0,1023.0,1023.0,1022.0,1021.0,1022.0,1023.0,1023.0,1024.0,1022.0,1021.0,1023.0,1023.0,1023.0,1024.0,1022.0,1021.0,1023.0,1024.0,1023.0,1023.0,1023.0,1020.0,1022.0,1023.0,1023.0,1022.0,1022.0,1022.0,1023.0,1025.0,1025.0,1024.0,1062.0,1021.0,1023.0,1024.0,1024.0,1023.0,2407,2215,1899,	00:07:04.885,-0.0107421875,0.07177734375,1.01708984375,-1.5869140625,0.3662109375,0.06103515625,3.97705078125,0.5657958984375,31.058349609375,682.0,-513.0,-4244.0,0.96295166015625,0.0321044921875,0.0140380859375,0.26739501953125,3.977412118543178,0.5647540848740243,32.7132525925584,0.9589860179591362,0.031910522967336256,0.014498707706267983,0.2812780179069788,1,	00:07:04.886,0.04541015625,0.02001953125,1.01318359375,-0.54931640625,-0.42724609375,0.244140625,1.1370849609375,-2.4993896484375,156.390380859375,699.0,504.0,-2046.0,0.20428466796875,0.023345947265625,0.0052490234375,0.978607177734375,1.1369139690774217,-2.4967773674250386,157.72637832740918,0.19288494508458517,0.023291309836759973,0.005524183630736847,0.9809293533384648,1
1782115934.031229,0.143,1018.0,1019.0,1020.0,1019.0,1021.0,1020.0,1020.0,1020.0,1018.0,1019.0,1021.0,1019.0,1020.0,1020.0,1017.0,1020.0,1019.0,1020.0,1019.0,1020.0,1020.0,1018.0,1020.0,1021.0,1019.0,1021.0,1020.0,1020.0,1021.0,1017.0,1020.0,1020.0,1020.0,1020.0,1020.0,1020.0,1020.0,1020.0,1018.0,1020.0,1021.0,1020.0,1020.0,1021.0,1020.0,1020.0,1021.0,1017.0,1020.0,1021.0,1020.0,1019.0,1020.0,1020.0,1020.0,1020.0,1020.0,1017.0,1019.0,1021.0,1020.0,1020.0,1020.0,1020.0,1020.0,1021.0,1021.0,1017.0,1020.0,1022.0,1021.0,1020.0,1020.0,1021.0,1021.0,1021.0,1020.0,1017.0,1020.0,1021.0,1021.0,1019.0,1020.0,1021.0,1020.0,1020.0,1020.0,1017.0,1020.0,1022.0,1020.0,1019.0,1020.0,1021.0,1020.0,1021.0,1020.0,1017.0,1020.0,1021.0,1020.0,1019.0,1019.0,1020.0,1020.0,1021.0,1020.0,1017.0,1020.0,1021.0,1020.0,1019.0,1020.0,1021.0,1020.0,1021.0,1022.0,1018.0,1020.0,1023.0,1022.0,1020.0,1022.0,1021.0,1021.0,1021.0,1018.0,1020.0,1022.0,1020.0,1021.0,1021.0,1021.0,1021.0,1017.0,1020.0,1020.0,1021.0,1021.0,1021.0,1021.0,1018.0,1019.0,1020.0,1022.0,1021.0,1020.0,1021.0,1018.0,1019.0,1020.0,1021.0,1020.0,1021.0,1021.0,1018.0,1020.0,1021.0,1020.0,1020.0,1020.0,1017.0,1020.0,1021.0,1021.0,1021.0,1021.0,1018.0,1021.0,1021.0,1021.0,1021.0,1021.0,1018.0,1020.0,1021.0,1020.0,1020.0,1020.0,1018.0,1020.0,1022.0,1022.0,1021.0,1021.0,1020.0,1020.0,1023.0,1022.0,1023.0,1022.0,1020.0,1021.0,1024.0,1023.0,1023.0,1023.0,1021.0,1021.0,1023.0,1024.0,1023.0,1024.0,1022.0,1020.0,1023.0,1024.0,1023.0,1023.0,1023.0,1020.0,1024.0,1024.0,1024.0,1024.0,1024.0,1020.0,1024.0,1023.0,1023.0,1023.0,1022.0,1021.0,1024.0,1025.0,1025.0,1024.0,1064.0,1020.0,1024.0,1024.0,1024.0,1023.0,2408,2215,1898,	00:07:04.896,-0.01220703125,0.0703125,1.01708984375,-1.46484375,0.30517578125,0.1220703125,3.944091796875,0.6591796875,31.058349609375,673.0,-512.0,-4241.0,0.96295166015625,0.031646728515625,0.014739990234375,0.26739501953125,3.945845532693848,0.6578099091537635,32.71448958047859,0.9589954547865224,0.03141749122420943,0.015200246421299256,0.2812643088852545,1,	00:07:04.897,0.044921875,0.0185546875,1.01220703125,-0.9765625,-0.18310546875,0.3662109375,1.043701171875,-2.537841796875,156.4013671875,695.0,506.0,-2040.0,0.204254150390625,0.0235595703125,0.00439453125,0.9786376953125,1.0451392935049306,-2.540120607913071,157.73360719550308,0.19283666659781337,0.023507528018987946,0.004666941289409777,0.9809381406596858,1
1782115934.043169,0.155,1018.0,1019.0,1019.0,1019.0,1020.0,1021.0,1020.0,1020.0,1017.0,1020.0,1020.0,1021.0,1021.0,1020.0,1017.0,1020.0,1019.0,1020.0,1021.0,1020.0,1020.0,1017.0,1019.0,1021.0,1020.0,1021.0,1021.0,1020.0,1020.0,1017.0,1020.0,1020.0,1020.0,1020.0,1021.0,1021.0,1020.0,1020.0,1016.0,1020.0,1021.0,1021.0,1020.0,1021.0,1021.0,1021.0,1020.0,1017.0,1019.0,1021.0,1021.0,1020.0,1020.0,1020.0,1020.0,1020.0,1020.0,1017.0,1020.0,1021.0,1020.0,1019.0,1020.0,1021.0,1021.0,1021.0,1020.0,1017.0,1020.0,1022.0,1021.0,1020.0,1020.0,1021.0,1022.0,1020.0,1020.0,1017.0,1019.0,1022.0,1021.0,1019.0,1020.0,1020.0,1021.0,1021.0,1020.0,1017.0,1019.0,1021.0,1021.0,1019.0,1020.0,1020.0,1021.0,1020.0,1020.0,1017.0,1019.0,1021.0,1020.0,1018.0,1019.0,1021.0,1021.0,1021.0,1020.0,1017.0,1020.0,1021.0,1021.0,1019.0,1020.0,1022.0,1021.0,1021.0,1021.0,1019.0,1020.0,1022.0,1022.0,1020.0,1020.0,1021.0,1022.0,1021.0,1018.0,1019.0,1022.0,1020.0,1021.0,1021.0,1021.0,1020.0,1018.0,1020.0,1020.0,1020.0,1021.0,1022.0,1021.0,1019.0,1019.0,1021.0,1021.0,1021.0,1021.0,1021.0,1018.0,1019.0,1020.0,1020.0,1021.0,1020.0,1020.0,1019.0,1020.0,1020.0,1020.0,1020.0,1020.0,1017.0,1020.0,1021.0,1020.0,1021.0,1020.0,1019.0,1020.0,1021.0,1021.0,1021.0,1020.0,1018.0,1020.0,1020.0,1021.0,1021.0,1020.0,1018.0,1021.0,1022.0,1021.0,1022.0,1021.0,1019.0,1020.0,1023.0,1022.0,1022.0,1022.0,1021.0,1021.0,1023.0,1023.0,1023.0,1023.0,1022.0,1021.0,1023.0,1023.0,1023.0,1024.0,1022.0,1021.0,1023.0,1023.0,1023.0,1023.0,1023.0,1021.0,1023.0,1024.0,1024.0,1023.0,1024.0,1020.0,1023.0,1023.0,1022.0,1023.0,1023.0,1022.0,1023.0,1025.0,1025.0,1025.0,1065.0,1021.0,1023.0,1023.0,1024.0,1024.0,2409,2214,1898,	00:07:04.906,-0.0107421875,0.07080078125,1.0166015625,-1.220703125,0.244140625,0.18310546875,3.988037109375,0.5877685546875,31.0638427734375,683.0,-511.0,-4246.0,0.96295166015625,0.032135009765625,0.01422119140625,0.267425537109375,3.986539121679064,0.5852855295695031,32.71706569625226,0.9589750061425844,0.0319359593601042,0.014693977788737605,0.28130254017751805,1,	00:07:04.907,0.044921875,0.01904296875,1.0126953125,-1.28173828125,0.0,0.42724609375,1.1260986328125,-2.537841796875,156.4013671875,697.0,504.0,-2047.0,0.2042236328125,0.023681640625,0.00506591796875,0.9786376953125,1.1238611854477094,-2.5382984474127026,157.7338190228817,0.19281887964367503,0.023624390296374594,0.005343939718086488,0.9809353751111091,1
1782115934.052835,0.165,1018.0,1019.0,1020.0,1019.0,1020.0,1020.0,1020.0,1020.0,1018.0,1020.0,1020.0,1020.0,1020.0,1020.0,1017.0,1019.0,1020.0,1020.0,1020.0,1020.0,1020.0,1017.0,1020.0,1022.0,1020.0,1021.0,1020.0,1020.0,1020.0,1017.0,1019.0,1021.0,1020.0,1020.0,1020.0,1021.0,1020.0,1020.0,1017.0,1019.0,1021.0,1020.0,1020.0,1021.0,1020.0,1021.0,1020.0,1017.0,1019.0,1021.0,1021.0,1020.0,1020.0,1020.0,1021.0,1021.0,1021.0,1017.0,1019.0,1021.0,1020.0,1019.0,1020.0,1021.0,1021.0,1020.0,1020.0,1017.0,1020.0,1022.0,1021.0,1020.0,1021.0,1021.0,1021.0,1020.0,1020.0,1017.0,1020.0,1021.0,1021.0,1019.0,1020.0,1020.0,1021.0,1020.0,1021.0,1017.0,1020.0,1021.0,1021.0,1019.0,1020.0,1020.0,1021.0,1021.0,1020.0,1018.0,1020.0,1021.0,1020.0,1018.0,1020.0,1020.0,1020.0,1021.0,1020.0,1017.0,1019.0,1021.0,1020.0,1019.0,1020.0,1020.0,1021.0,1021.0,1021.0,1019.0,1020.0,1023.0,1021.0,1020.0,1021.0,1021.0,1021.0,1021.0,1019.0,1020.0,1022.0,1021.0,1020.0,1021.0,1020.0,1020.0,1017.0,1019.0,1020.0,1021.0,1021.0,1021.0,1021.0,1018.0,1020.0,1020.0,1020.0,1021.0,1020.0,1020.0,1018.0,1019.0,1020.0,1020.0,1021.0,1020.0,1020.0,1018.0,1020.0,1020.0,1021.0,1020.0,1020.0,1017.0,1020.0,1021.0,1022.0,1020.0,1020.0,1018.0,1020.0,1021.0,1022.0,1021.0,1021.0,1018.0,1020.0,1021.0,1021.0,1020.0,1021.0,1018.0,1020.0,1022.0,1022.0,1022.0,1021.0,1019.0,1021.0,1022.0,1023.0,1021.0,1022.0,1021.0,1021.0,1024.0,1023.0,1022.0,1023.0,1022.0,1021.0,1023.0,1023.0,1023.0,1024.0,1023.0,1021.0,1023.0,1023.0,1023.0,1023.0,1023.0,1021.0,1024.0,1023.0,1024.0,1023.0,1024.0,1021.0,1022.0,1024.0,1023.0,1023.0,1023.0,1022.0,1024.0,1025.0,1025.0,1025.0,1063.0,1021.0,1023.0,1024.0,1024.0,1024.0,2409,2213,1898,	00:07:04.916,-0.0107421875,0.0693359375,1.01806640625,-0.9765625,0.18310546875,0.244140625,3.88916015625,0.604248046875,31.0638427734375,673.0,-509.0,-4240.0,0.96295166015625,0.03125,0.01416015625,0.267425537109375,3.887051059656962,0.6046713224496003,32.71869515799733,0.9589991447562711,0.031055512701194946,0.014612408380227388,0.2813230758557428,1,	00:07:04.917,0.04541015625,0.01953125,1.0146484375,-1.64794921875,0.3662109375,0.6103515625,1.043701171875,-2.603759765625,156.4068603515625,696.0,508.0,-2043.0,0.20416259765625,0.02410888671875,0.004302978515625,0.9786376953125,1.0462331433787775,-2.603326674493498,157.74273915308873,0.19275094038247775,0.024050020691687386,0.00457163767778398,0.9809422876068412,1
1782115934.062468,0.175,1018.0,1019.0,1019.0,1019.0,1020.0,1020.0,1020.0,1020.0,1018.0,1020.0,1020.0,1020.0,1019.0,1020.0,1018.0,1020.0,1020.0,1019.0,1020.0,1021.0,1021.0,1017.0,1019.0,1021.0,1020.0,1020.0,1020.0,1020.0,1020.0,1017.0,1020.0,1022.0,1020.0,1020.0,1020.0,1021.0,1020.0,1021.0,1017.0,1020.0,1021.0,1021.0,1020.0,1021.0,1020.0,1020.0,1020.0,1017.0,1020.0,1021.0,1020.0,1019.0,1020.0,1020.0,1020.0,1021.0,1020.0,1017.0,1020.0,1021.0,1020.0,1019.0,1021.0,1021.0,1021.0,1020.0,1021.0,1018.0,1020.0,1022.0,1022.0,1020.0,1020.0,1020.0,1021.0,1020.0,1020.0,1018.0,1019.0,1021.0,1021.0,1019.0,1020.0,1020.0,1020.0,1020.0,1020.0,1018.0,1019.0,1022.0,1020.0,1019.0,1020.0,1020.0,1020.0,1021.0,1021.0,1018.0,1020.0,1021.0,1020.0,1019.0,1020.0,1020.0,1020.0,1020.0,1020.0,1018.0,1020.0,1021.0,1020.0,1018.0,1021.0,1020.0,1021.0,1021.0,1022.0,1018.0,1019.0,1023.0,1022.0,1020.0,1020.0,1021.0,1020.0,1021.0,1018.0,1020.0,1023.0,1020.0,1020.0,1020.0,1020.0,1020.0,1018.0,1019.0,1020.0,1021.0,1021.0,1021.0,1021.0,1018.0,1019.0,1020.0,1021.0,1021.0,1021.0,1021.0,1018.0,1019.0,1021.0,1021.0,1021.0,1020.0,1021.0,1018.0,1020.0,1021.0,1021.0,1020.0,1020.0,1017.0,1021.0,1021.0,1021.0,1020.0,1021.0,1018.0,1021.0,1020.0,1021.0,1022.0,1021.0,1019.0,1020.0,1020.0,1021.0,1021.0,1021.0,1018.0,1021.0,1021.0,1021.0,1022.0,1022.0,1020.0,1021.0,1021.0,1022.0,1022.0,1023.0,1021.0,1021.0,1023.0,1022.0,1023.0,1024.0,1022.0,1021.0,1022.0,1022.0,1023.0,1024.0,1023.0,1020.0,1022.0,1024.0,1023.0,1023.0,1022.0,1021.0,1023.0,1024.0,1024.0,1024.0,1024.0,1021.0,1022.0,1023.0,1023.0,1023.0,1022.0,1021.0,1023.0,1025.0,1025.0,1024.0,1063.0,1020.0,1023.0,1025.0,1024.0,1024.0,2409,2213,1897,	00:07:04.926,-0.01025390625,0.06884765625,1.0185546875,-0.91552734375,-0.06103515625,0.244140625,3.8232421875,0.52734375,31.0638427734375,684.0,-514.0,-4249.0,0.962982177734375,0.030914306640625,0.01336669921875,0.267486572265625,3.8259748717727544,0.5284789585189518,32.7205822029371,0.9590078285481932,0.03073141934688318,0.013825379647164742,0.2813688389388868,1,	00:07:04.927,0.04443359375,0.01806640625,1.02197265625,-1.5869140625,0.67138671875,0.732421875,1.0052490234375,-2.5103759765625,156.4178466796875,698.0,503.0,-2048.0,0.2041015625,0.023223876953125,0.00408935546875,0.978668212890625,1.0042709210240017,-2.5088671061319983,157.7513279370418,0.19269684461294162,0.023170556282297892,0.004373378695123486,0.9809749869168805,1
1782115934.072507,0.185,1018.0,1019.0,1019.0,1020.0,1020.0,1020.0,1020.0,1021.0,1018.0,1019.0,1020.0,1020.0,1021.0,1019.0,1018.0,1020.0,1020.0,1020.0,1020.0,1021.0,1021.0,1018.0,1020.0,1021.0,1019.0,1020.0,1020.0,1021.0,1021.0,1017.0,1020.0,1020.0,1020.0,1020.0,1020.0,1020.0,1021.0,1020.0,1018.0,1020.0,1020.0,1021.0,1020.0,1020.0,1020.0,1020.0,1020.0,1018.0,1020.0,1021.0,1020.0,1019.0,1020.0,1020.0,1020.0,1020.0,1020.0,1018.0,1019.0,1021.0,1020.0,1019.0,1020.0,1020.0,1020.0,1020.0,1021.0,1018.0,1020.0,1022.0,1021.0,1020.0,1020.0,1020.0,1020.0,1020.0,1021.0,1018.0,1019.0,1021.0,1020.0,1019.0,1020.0,1020.0,1020.0,1020.0,1021.0,1018.0,1019.0,1021.0,1020.0,1019.0,1020.0,1020.0,1020.0,1020.0,1020.0,1018.0,1020.0,1021.0,1021.0,1018.0,1020.0,1020.0,1021.0,1021.0,1021.0,1018.0,1020.0,1021.0,1020.0,1019.0,1020.0,1020.0,1020.0,1022.0,1021.0,1019.0,1020.0,1023.0,1021.0,1020.0,1020.0,1021.0,1021.0,1021.0,1019.0,1019.0,1022.0,1020.0,1020.0,1020.0,1021.0,1020.0,1018.0,1020.0,1020.0,1021.0,1021.0,1020.0,1021.0,1019.0,1019.0,1020.0,1021.0,1020.0,1021.0,1021.0,1019.0,1020.0,1020.0,1020.0,1020.0,1021.0,1020.0,1018.0,1020.0,1020.0,1020.0,1021.0,1020.0,1017.0,1020.0,1020.0,1020.0,1021.0,1021.0,1018.0,1020.0,1020.0,1021.0,1021.0,1021.0,1018.0,1020.0,1020.0,1020.0,1020.0,1020.0,1018.0,1021.0,1021.0,1021.0,1022.0,1022.0,1020.0,1020.0,1022.0,1022.0,1023.0,1022.0,1022.0,1021.0,1022.0,1022.0,1023.0,1024.0,1024.0,1021.0,1022.0,1023.0,1023.0,1024.0,1024.0,1021.0,1022.0,1023.0,1023.0,1024.0,1024.0,1021.0,1023.0,1024.0,1024.0,1024.0,1025.0,1020.0,1022.0,1023.0,1023.0,1023.0,1024.0,1022.0,1023.0,1024.0,1025.0,1025.0,1065.0,1021.0,1022.0,1023.0,1024.0,1024.0,2409,2212,1898,	00:07:04.937,-0.01025390625,0.06982421875,1.01611328125,-0.244140625,-0.30517578125,0.244140625,3.9056396484375,0.5657958984375,31.0693359375,670.0,-508.0,-4243.0,0.96295166015625,0.031524658203125,0.01385498046875,0.267486572265625,3.906661413898637,0.5635093108020932,32.72360572571042,0.9589800665713754,0.03132018886366625,0.014317452714017609,0.28137392956009,1,	00:07:04.938,0.04296875,0.017578125,1.0234375,-1.52587890625,0.6103515625,0.732421875,0.9722900390625,-2.4114990234375,156.42333984375,695.0,510.0,-2044.0,0.204071044921875,0.0223388671875,0.003997802734375,0.97869873046875,0.9713390088128344,-2.412968103689039,157.7594972243367,0.19264398563121826,0.022293969685346204,0.004254622602321937,0.9810062038041858,1
1782115934.082515,0.195,1018.0,1019.0,1019.0,1019.0,1020.0,1019.0,1020.0,1020.0,1019.0,1019.0,1020.0,1020.0,1020.0,1021.0,1018.0,1019.0,1020.0,1020.0,1020.0,1020.0,1020.0,1018.0,1020.0,1021.0,1020.0,1020.0,1020.0,1020.0,1021.0,1017.0,1019.0,1020.0,1020.0,1019.0,1020.0,1020.0,1021.0,1021.0,1018.0,1020.0,1021.0,1020.0,1020.0,1020.0,1020.0,1020.0,1021.0,1017.0,1019.0,1021.0,1020.0,1019.0,1020.0,1020.0,1020.0,1021.0,1021.0,1017.0,1019.0,1021.0,1020.0,1019.0,1020.0,1020.0,1020.0,1021.0,1021.0,1018.0,1020.0,1022.0,1021.0,1020.0,1019.0,1020.0,1020.0,1020.0,1021.0,1019.0,1019.0,1022.0,1021.0,1019.0,1020.0,1020.0,1021.0,1020.0,1021.0,1018.0,1020.0,1021.0,1020.0,1019.0,1020.0,1021.0,1020.0,1020.0,1021.0,1017.0,1019.0,1021.0,1019.0,1018.0,1020.0,1021.0,1020.0,1021.0,1021.0,1017.0,1019.0,1021.0,1020.0,1019.0,1021.0,1021.0,1020.0,1021.0,1022.0,1019.0,1020.0,1023.0,1021.0,1021.0,1021.0,1020.0,1021.0,1022.0,1019.0,1020.0,1022.0,1020.0,1020.0,1021.0,1021.0,1021.0,1019.0,1020.0,1020.0,1020.0,1020.0,1021.0,1021.0,1019.0,1020.0,1020.0,1020.0,1021.0,1021.0,1021.0,1019.0,1020.0,1020.0,1021.0,1021.0,1021.0,1021.0,1018.0,1020.0,1020.0,1020.0,1020.0,1020.0,1018.0,1020.0,1021.0,1021.0,1021.0,1021.0,1018.0,1020.0,1020.0,1021.0,1021.0,1022.0,1019.0,1020.0,1020.0,1020.0,1020.0,1021.0,1018.0,1020.0,1021.0,1022.0,1022.0,1023.0,1020.0,1021.0,1022.0,1021.0,1022.0,1024.0,1022.0,1021.0,1022.0,1023.0,1023.0,1024.0,1023.0,1021.0,1023.0,1023.0,1023.0,1025.0,1023.0,1021.0,1022.0,1023.0,1023.0,1024.0,1023.0,1021.0,1023.0,1023.0,1023.0,1024.0,1025.0,1020.0,1022.0,1023.0,1023.0,1024.0,1023.0,1022.0,1023.0,1025.0,1025.0,1026.0,1065.0,1020.0,1022.0,1024.0,1024.0,1025.0,2409,2211,1897,	00:07:04.947,-0.01171875,0.072265625,1.015625,0.8544921875,-0.244140625,0.244140625,3.9935302734375,0.6097412109375,31.0693359375,675.0,-512.0,-4241.0,0.962921142578125,0.03216552734375,0.014434814453125,0.267486572265625,3.9941170021542076,0.6072359233175018,32.726684353634724,0.9589502015182999,0.03194417506247511,0.014898936516914145,0.2813753762827428,1,	00:07:04.948,0.04296875,0.01904296875,1.04248046875,-1.708984375,0.48828125,0.8544921875,1.0272216796875,-2.3565673828125,156.4288330078125,698.0,505.0,-2047.0,0.204010009765625,0.021942138671875,0.00457763671875,0.97869873046875,1.0288081883784217,-2.3553187388898653,157.7650059279087,0.1925920701222685,0.021896852403882,0.0048447590568711325,0.9810226045767256,1
1782115934.092884,0.205,1018.0,1018.0,1020.0,1019.0,1020.0,1019.0,1020.0,1021.0,1019.0,1020.0,1020.0,1020.0,1020.0,1020.0,1018.0,1019.0,1019.0,1020.0,1020.0,1020.0,1021.0,1017.0,1020.0,1021.0,1020.0,1020.0,1019.0,1020.0,1020.0,1018.0,1019.0,1021.0,1019.0,1019.0,1020.0,1019.0,1021.0,1021.0,1018.0,1020.0,1022.0,1020.0,1020.0,1020.0,1020.0,1021.0,1021.0,1017.0,1020.0,1021.0,1020.0,1019.0,1020.0,1020.0,1020.0,1021.0,1021.0,1017.0,1019.0,1021.0,1020.0,1019.0,1019.0,1020.0,1020.0,1020.0,1021.0,1018.0,1020.0,1022.0,1020.0,1020.0,1020.0,1020.0,1020.0,1021.0,1021.0,1018.0,1020.0,1022.0,1020.0,1019.0,1020.0,1020.0,1020.0,1021.0,1020.0,1018.0,1020.0,1021.0,1019.0,1019.0,1020.0,1020.0,1020.0,1021.0,1021.0,1018.0,1019.0,1021.0,1019.0,1019.0,1020.0,1020.0,1020.0,1020.0,1020.0,1017.0,1020.0,1021.0,1020.0,1019.0,1020.0,1020.0,1021.0,1022.0,1021.0,1018.0,1020.0,1023.0,1021.0,1020.0,1021.0,1020.0,1021.0,1022.0,1018.0,1020.0,1023.0,1020.0,1020.0,1021.0,1021.0,1021.0,1017.0,1019.0,1020.0,1020.0,1020.0,1021.0,1021.0,1018.0,1020.0,1020.0,1021.0,1020.0,1021.0,1021.0,1018.0,1019.0,1020.0,1020.0,1020.0,1021.0,1021.0,1018.0,1019.0,1021.0,1020.0,1021.0,1020.0,1017.0,1020.0,1020.0,1021.0,1021.0,1021.0,1018.0,1020.0,1021.0,1021.0,1021.0,1021.0,1018.0,1020.0,1020.0,1020.0,1021.0,1021.0,1018.0,1020.0,1021.0,1021.0,1022.0,1022.0,1020.0,1021.0,1022.0,1021.0,1023.0,1022.0,1021.0,1021.0,1022.0,1022.0,1024.0,1023.0,1022.0,1020.0,1022.0,1023.0,1024.0,1025.0,1023.0,1021.0,1023.0,1022.0,1024.0,1024.0,1023.0,1021.0,1023.0,1024.0,1024.0,1024.0,1024.0,1020.0,1022.0,1022.0,1023.0,1023.0,1023.0,1022.0,1023.0,1024.0,1025.0,1025.0,1063.0,1020.0,1022.0,1023.0,1024.0,1024.0,2408,2211,1898,	00:07:04.957,-0.009765625,0.06884765625,1.0166015625,1.3427734375,-0.30517578125,0.244140625,3.9276123046875,0.5657958984375,31.0748291015625,681.0,-511.0,-4245.0,0.962921142578125,0.03167724609375,0.013916015625,0.26751708984375,3.9252702585688595,0.5640882107707185,32.72806122099733,0.9589640517795543,0.03147393815777692,0.014369213515598446,0.28140871399856077,1,	00:07:04.958,0.04345703125,0.01513671875,1.044921875,-1.40380859375,0.79345703125,0.9765625,0.9228515625,-2.362060546875,156.4453125,695.0,513.0,-2046.0,0.20391845703125,0.02178955078125,0.003692626953125,0.978729248046875,0.9233889599306884,-2.359411875354787,157.7786633764856,0.19249478503479747,0.02175423702840342,0.003937960379479196,0.9810489301628991,1
1782115934.103462,0.216,1018.0,1019.0,1020.0,1019.0,1020.0,1019.0,1020.0,1021.0,1018.0,1019.0,1019.0,1020.0,1021.0,1020.0,1018.0,1020.0,1020.0,1020.0,1020.0,1021.0,1021.0,1018.0,1020.0,1021.0,1019.0,1020.0,1020.0,1020.0,1021.0,1018.0,1020.0,1020.0,1020.0,1020.0,1020.0,1021.0,1021.0,1021.0,1018.0,1020.0,1021.0,1020.0,1019.0,1020.0,1020.0,1020.0,1020.0,1018.0,1020.0,1021.0,1020.0,1020.0,1019.0,1020.0,1021.0,1020.0,1021.0,1017.0,1020.0,1021.0,1021.0,1019.0,1020.0,1020.0,1021.0,1021.0,1021.0,1018.0,1020.0,1021.0,1021.0,1020.0,1020.0,1020.0,1020.0,1021.0,1021.0,1018.0,1020.0,1020.0,1020.0,1019.0,1020.0,1020.0,1020.0,1021.0,1021.0,1018.0,1020.0,1020.0,1020.0,1019.0,1020.0,1021.0,1020.0,1021.0,1021.0,1018.0,1020.0,1020.0,1020.0,1019.0,1019.0,1020.0,1021.0,1021.0,1021.0,1018.0,1020.0,1020.0,1021.0,1019.0,1020.0,1021.0,1021.0,1021.0,1022.0,1019.0,1020.0,1021.0,1022.0,1020.0,1021.0,1021.0,1021.0,1022.0,1019.0,1020.0,1020.0,1020.0,1020.0,1021.0,1021.0,1021.0,1018.0,1020.0,1020.0,1021.0,1020.0,1022.0,1021.0,1019.0,1020.0,1020.0,1020.0,1020.0,1021.0,1021.0,1018.0,1020.0,1020.0,1020.0,1021.0,1021.0,1021.0,1018.0,1020.0,1021.0,1021.0,1021.0,1020.0,1018.0,1020.0,1021.0,1020.0,1022.0,1021.0,1018.0,1020.0,1021.0,1021.0,1022.0,1021.0,1018.0,1020.0,1021.0,1021.0,1021.0,1021.0,1018.0,1021.0,1021.0,1022.0,1022.0,1021.0,1020.0,1021.0,1022.0,1023.0,1023.0,1023.0,1021.0,1021.0,1022.0,1023.0,1023.0,1024.0,1022.0,1021.0,1023.0,1023.0,1024.0,1024.0,1023.0,1021.0,1023.0,1023.0,1024.0,1024.0,1023.0,1020.0,1023.0,1024.0,1024.0,1024.0,1024.0,1020.0,1022.0,1023.0,1023.0,1023.0,1022.0,1021.0,1024.0,1025.0,1026.0,1024.0,1063.0,1021.0,1023.0,1023.0,1026.0,1024.0,2408,2210,1898,	00:07:04.967,-0.0126953125,0.0703125,1.01513671875,2.685546875,-0.30517578125,0.18310546875,3.9715576171875,0.648193359375,31.0748291015625,674.0,-514.0,-4241.0,0.962921142578125,0.031890869140625,0.014739990234375,0.26751708984375,3.973959386680053,0.6499238028074965,32.72993038735871,0.9589495146535577,0.031670103376234694,0.01520752967850611,0.28139218883778966,1,	00:07:04.968,0.04443359375,0.01904296875,1.0390625,-0.6103515625,1.40380859375,0.8544921875,0.9942626953125,-2.4005126953125,156.4508056640625,696.0,510.0,-2048.0,0.203857421875,0.022247314453125,0.00421142578125,0.978729248046875,0.9919431863464134,-2.3981825739552263,157.78432905830752,0.1924290043972625,0.022201073267785438,0.004460725842966633,0.9810495871959739,1
1782115934.113023,0.225,1017.0,1018.0,1020.0,1019.0,1020.0,1019.0,1020.0,1021.0,1018.0,1020.0,1020.0,1019.0,1020.0,1020.0,1018.0,1020.0,1019.0,1020.0,1020.0,1020.0,1020.0,1018.0,1019.0,1021.0,1019.0,1020.0,1020.0,1020.0,1020.0,1018.0,1020.0,1021.0,1020.0,1020.0,1020.0,1020.0,1021.0,1020.0,1018.0,1020.0,1021.0,1019.0,1020.0,1020.0,1021.0,1020.0,1021.0,1018.0,1020.0,1021.0,1020.0,1019.0,1020.0,1020.0,1020.0,1021.0,1020.0,1018.0,1020.0,1021.0,1019.0,1019.0,1020.0,1020.0,1021.0,1021.0,1021.0,1018.0,1020.0,1021.0,1021.0,1020.0,1020.0,1020.0,1021.0,1020.0,1020.0,1018.0,1020.0,1021.0,1020.0,1019.0,1020.0,1020.0,1020.0,1021.0,1020.0,1018.0,1020.0,1021.0,1020.0,1019.0,1020.0,1019.0,1021.0,1021.0,1021.0,1018.0,1020.0,1020.0,1020.0,1020.0,1020.0,1020.0,1020.0,1020.0,1021.0,1018.0,1020.0,1021.0,1020.0,1019.0,1021.0,1021.0,1021.0,1021.0,1022.0,1019.0,1020.0,1022.0,1021.0,1020.0,1021.0,1021.0,1021.0,1021.0,1019.0,1020.0,1020.0,1020.0,1020.0,1021.0,1021.0,1020.0,1019.0,1020.0,1020.0,1020.0,1021.0,1021.0,1021.0,1019.0,1020.0,1020.0,1021.0,1021.0,1021.0,1021.0,1019.0,1020.0,1020.0,1020.0,1020.0,1021.0,1020.0,1019.0,1020.0,1020.0,1020.0,1021.0,1020.0,1018.0,1020.0,1021.0,1020.0,1021.0,1020.0,1019.0,1020.0,1020.0,1021.0,1022.0,1021.0,1018.0,1019.0,1020.0,1021.0,1021.0,1021.0,1018.0,1021.0,1021.0,1022.0,1022.0,1022.0,1020.0,1020.0,1022.0,1022.0,1023.0,1022.0,1022.0,1021.0,1022.0,1023.0,1023.0,1022.0,1022.0,1020.0,1023.0,1023.0,1023.0,1024.0,1023.0,1020.0,1022.0,1024.0,1024.0,1024.0,1024.0,1020.0,1022.0,1023.0,1025.0,1023.0,1024.0,1020.0,1022.0,1023.0,1023.0,1022.0,1022.0,1021.0,1023.0,1025.0,1024.0,1024.0,1062.0,1020.0,1022.0,1023.0,1024.0,1023.0,2407,2210,1898,	00:07:04.978,-0.01123046875,0.07421875,1.01611328125,3.60107421875,0.0,0.244140625,4.1033935546875,0.6427001953125,31.080322265625,686.0,-519.0,-4245.0,0.962860107421875,0.032958984375,0.014984130859375,0.26751708984375,4.101088166006145,0.6415308247723176,32.73338990487111,0.9589049516043476,0.03275412045682643,0.015450462865558139,0.2814067244736766,1,	00:07:04.979,0.046875,0.0205078125,1.02783203125,-0.244140625,2.197265625,0.91552734375,1.043701171875,-2.449951171875,156.456298828125,695.0,515.0,-2045.0,0.203765869140625,0.022796630859375,0.004547119140625,0.978729248046875,1.042178592730291,-2.4510393884254795,157.7916273051671,0.19235077572626794,0.022737608004615606,0.004803323934167976,0.981051022291356,1
1782115934.123451,0.236,1018.0,1018.0,1020.0,1019.0,1020.0,1020.0,1021.0,1020.0,1019.0,1019.0,1020.0,1020.0,1020.0,1020.0,1019.0,1020.0,1019.0,1019.0,1020.0,1021.0,1020.0,1019.0,1020.0,1020.0,1019.0,1020.0,1020.0,1020.0,1020.0,1019.0,1020.0,1020.0,1020.0,1019.0,1020.0,1020.0,1020.0,1020.0,1019.0,1020.0,1019.0,1020.0,1020.0,1020.0,1020.0,1021.0,1020.0,1019.0,1020.0,1020.0,1020.0,1019.0,1020.0,1020.0,1020.0,1021.0,1020.0,1019.0,1020.0,1019.0,1020.0,1019.0,1019.0,1020.0,1020.0,1021.0,1021.0,1019.0,1020.0,1020.0,1021.0,1020.0,1020.0,1020.0,1021.0,1020.0,1020.0,1019.0,1020.0,1020.0,1021.0,1020.0,1019.0,1021.0,1020.0,1021.0,1020.0,1020.0,1020.0,1019.0,1021.0,1019.0,1019.0,1021.0,1020.0,1020.0,1021.0,1019.0,1019.0,1019.0,1020.0,1018.0,1019.0,1020.0,1021.0,1021.0,1020.0,1018.0,1020.0,1020.0,1020.0,1019.0,1020.0,1021.0,1021.0,1021.0,1021.0,1020.0,1020.0,1021.0,1022.0,1020.0,1020.0,1021.0,1021.0,1021.0,1020.0,1020.0,1021.0,1019.0,1020.0,1021.0,1020.0,1020.0,1019.0,1020.0,1020.0,1021.0,1021.0,1021.0,1021.0,1020.0,1020.0,1020.0,1021.0,1021.0,1021.0,1021.0,1019.0,1020.0,1020.0,1021.0,1021.0,1021.0,1021.0,1019.0,1020.0,1020.0,1020.0,1020.0,1020.0,1018.0,1020.0,1021.0,1022.0,1021.0,1021.0,1019.0,1020.0,1021.0,1021.0,1021.0,1021.0,1019.0,1020.0,1021.0,1021.0,1021.0,1021.0,1019.0,1020.0,1021.0,1022.0,1021.0,1022.0,1021.0,1020.0,1021.0,1023.0,1022.0,1022.0,1021.0,1020.0,1023.0,1023.0,1023.0,1023.0,1022.0,1020.0,1023.0,1023.0,1023.0,1022.0,1022.0,1020.0,1022.0,1024.0,1023.0,1022.0,1023.0,1020.0,1023.0,1024.0,1024.0,1023.0,1024.0,1020.0,1022.0,1023.0,1022.0,1022.0,1021.0,1022.0,1022.0,1025.0,1024.0,1023.0,1061.0,1020.0,1022.0,1024.0,1023.0,1022.0,2407,2210,1898,	00:07:04.988,-0.0107421875,0.0712890625,1.017578125,4.150390625,0.30517578125,0.30517578125,4.0594482421875,0.6097412109375,31.080322265625,681.0,-515.0,-4238.0,0.962890625,0.032684326171875,0.014617919921875,0.267547607421875,4.057944001398259,0.6098244003245644,32.73571621886722,0.9589101906106835,0.032470748838687315,0.015079877043121677,0.2814418130292686,1,	00:07:04.989,0.04638671875,0.0166015625,1.0302734375,0.48828125,3.11279296875,0.9765625,0.9832763671875,-2.4884033203125,156.46728515625,695.0,517.0,-2045.0,0.20367431640625,0.022979736328125,0.00396728515625,0.978759765625,0.9838022609252889,-2.4868911661891864,157.80467144155415,0.1922467253605956,0.022946047495846094,0.004245862370853992,0.9810691352525436,1
1782115934.134086,0.246,1018.0,1019.0,1020.0,1019.0,1019.0,1020.0,1020.0,1020.0,1020.0,1019.0,1020.0,1020.0,1021.0,1020.0,1019.0,1020.0,1020.0,1020.0,1020.0,1020.0,1021.0,1020.0,1020.0,1020.0,1019.0,1020.0,1020.0,1021.0,1020.0,1019.0,1020.0,1019.0,1020.0,1020.0,1020.0,1020.0,1021.0,1020.0,1019.0,1020.0,1020.0,1020.0,1020.0,1020.0,1020.0,1021.0,1021.0,1019.0,1020.0,1020.0,1020.0,1019.0,1020.0,1020.0,1020.0,1021.0,1020.0,1019.0,1020.0,1020.0,1019.0,1019.0,1020.0,1020.0,1020.0,1020.0,1021.0,1019.0,1021.0,1020.0,1021.0,1020.0,1020.0,1020.0,1020.0,1021.0,1020.0,1019.0,1020.0,1020.0,1020.0,1019.0,1020.0,1020.0,1020.0,1021.0,1021.0,1019.0,1020.0,1020.0,1020.0,1019.0,1020.0,1020.0,1020.0,1021.0,1020.0,1019.0,1020.0,1019.0,1019.0,1019.0,1020.0,1020.0,1020.0,1021.0,1020.0,1019.0,1020.0,1020.0,1020.0,1020.0,1019.0,1020.0,1020.0,1021.0,1022.0,1020.0,1020.0,1022.0,1021.0,1020.0,1021.0,1020.0,1021.0,1021.0,1020.0,1020.0,1022.0,1020.0,1020.0,1020.0,1021.0,1020.0,1019.0,1019.0,1019.0,1021.0,1020.0,1022.0,1021.0,1019.0,1020.0,1019.0,1021.0,1020.0,1021.0,1020.0,1019.0,1020.0,1019.0,1020.0,1020.0,1021.0,1021.0,1019.0,1020.0,1020.0,1020.0,1021.0,1020.0,1018.0,1020.0,1021.0,1020.0,1022.0,1021.0,1019.0,1020.0,1021.0,1020.0,1022.0,1021.0,1020.0,1020.0,1020.0,1020.0,1021.0,1020.0,1019.0,1021.0,1021.0,1021.0,1022.0,1023.0,1021.0,1020.0,1020.0,1021.0,1022.0,1023.0,1021.0,1020.0,1021.0,1022.0,1023.0,1024.0,1023.0,1020.0,1021.0,1022.0,1023.0,1024.0,1023.0,1020.0,1021.0,1022.0,1023.0,1024.0,1023.0,1020.0,1021.0,1023.0,1023.0,1023.0,1024.0,1019.0,1021.0,1022.0,1022.0,1022.0,1022.0,1022.0,1022.0,1024.0,1023.0,1024.0,1060.0,1020.0,1021.0,1023.0,1022.0,1023.0,2407,2210,1899,	00:07:04.998,-0.00927734375,0.07080078125,1.01806640625,4.150390625,0.67138671875,0.3662109375,4.0374755859375,0.54931640625,31.0858154296875,690.0,-523.0,-4237.0,0.962860107421875,0.03265380859375,0.0140380859375,0.267608642578125,4.038393018502159,0.5480972172284057,32.739204893553556,0.9589044083629922,0.03245849758132532,0.014516361356812772,0.2814925519613997,1,	00:07:04.999,0.04541015625,0.015625,1.03369140625,1.77001953125,3.35693359375,1.0986328125,0.911865234375,-2.4774169921875,156.4837646484375,699.0,512.0,-2049.0,0.20355224609375,0.02276611328125,0.003387451171875,0.978790283203125,0.9117733852796835,-2.474880396723093,157.82010757852933,0.1921302075333771,0.02272188760936839,0.003652438342478563,0.9810995662371903,1
1782115934.145333,0.258,1018.0,1019.0,1019.0,1019.0,1020.0,1019.0,1020.0,1020.0,1021.0,1019.0,1020.0,1020.0,1020.0,1020.0,1020.0,1020.0,1019.0,1020.0,1020.0,1020.0,1020.0,1020.0,1020.0,1020.0,1019.0,1020.0,1020.0,1020.0,1019.0,1020.0,1020.0,1020.0,1020.0,1020.0,1020.0,1020.0,1020.0,1020.0,1020.0,1020.0,1020.0,1020.0,1019.0,1020.0,1020.0,1020.0,1021.0,1020.0,1020.0,1019.0,1020.0,1020.0,1020.0,1020.0,1020.0,1020.0,1021.0,1019.0,1019.0,1020.0,1020.0,1019.0,1020.0,1020.0,1020.0,1020.0,1022.0,1020.0,1020.0,1021.0,1021.0,1020.0,1020.0,1020.0,1021.0,1020.0,1021.0,1020.0,1020.0,1020.0,1021.0,1019.0,1020.0,1020.0,1020.0,1020.0,1022.0,1020.0,1019.0,1020.0,1021.0,1019.0,1021.0,1020.0,1020.0,1020.0,1021.0,1020.0,1020.0,1019.0,1020.0,1019.0,1019.0,1020.0,1020.0,1020.0,1021.0,1020.0,1020.0,1019.0,1020.0,1019.0,1020.0,1020.0,1021.0,1021.0,1021.0,1020.0,1020.0,1021.0,1022.0,1020.0,1020.0,1021.0,1020.0,1021.0,1020.0,1020.0,1020.0,1020.0,1020.0,1021.0,1020.0,1020.0,1020.0,1019.0,1020.0,1020.0,1021.0,1020.0,1021.0,1021.0,1020.0,1020.0,1020.0,1021.0,1021.0,1021.0,1020.0,1020.0,1020.0,1020.0,1020.0,1020.0,1020.0,1019.0,1020.0,1020.0,1020.0,1020.0,1020.0,1019.0,1021.0,1020.0,1020.0,1020.0,1020.0,1020.0,1020.0,1020.0,1020.0,1021.0,1021.0,1021.0,1020.0,1020.0,1020.0,1021.0,1020.0,1020.0,1021.0,1020.0,1022.0,1021.0,1021.0,1022.0,1020.0,1020.0,1021.0,1021.0,1021.0,1022.0,1020.0,1021.0,1022.0,1021.0,1021.0,1022.0,1020.0,1021.0,1022.0,1022.0,1022.0,1022.0,1020.0,1021.0,1022.0,1022.0,1022.0,1023.0,1020.0,1021.0,1022.0,1022.0,1022.0,1023.0,1020.0,1021.0,1022.0,1021.0,1022.0,1021.0,1021.0,1022.0,1024.0,1023.0,1022.0,1058.0,1020.0,1021.0,1023.0,1022.0,1022.0,2407,2211,1899,	00:07:05.009,-0.0126953125,0.07080078125,1.0166015625,4.150390625,0.732421875,0.30517578125,4.053955078125,0.6427001953125,31.0858154296875,686.0,-521.0,-4234.0,0.962860107421875,0.032562255859375,0.014862060546875,0.267608642578125,4.051292842028721,0.6422655470421336,32.74250172629446,0.9588967438865837,0.03233440271212309,0.015336895882557364,0.28148943246531527,1,	00:07:05.010,0.0439453125,0.01513671875,1.03515625,2.99072265625,3.5400390625,1.15966796875,0.8624267578125,-2.39501953125,156.500244140625,696.0,517.0,-2046.0,0.20343017578125,0.02197265625,0.00311279296875,0.978851318359375,0.8624681452519944,-2.392634989037685,157.83564030141082,0.1920152073688591,0.021934637782986207,0.003371406222268604,0.9811410018058097,1
1782115934.155740,0.268,1018.0,1018.0,1020.0,1019.0,1019.0,1020.0,1020.0,1020.0,1021.0,1020.0,1019.0,1020.0,1020.0,1019.0,1020.0,1020.0,1020.0,1019.0,1020.0,1020.0,1020.0,1021.0,1020.0,1019.0,1020.0,1019.0,1020.0,1020.0,1020.0,1020.0,1020.0,1020.0,1020.0,1020.0,1020.0,1020.0,1020.0,1020.0,1020.0,1020.0,1020.0,1020.0,1020.0,1020.0,1020.0,1020.0,1020.0,1020.0,1020.0,1020.0,1020.0,1020.0,1019.0,1020.0,1020.0,1021.0,1021.0,1020.0,1020.0,1020.0,1020.0,1019.0,1020.0,1019.0,1020.0,1020.0,1021.0,1020.0,1020.0,1020.0,1021.0,1020.0,1020.0,1020.0,1020.0,1020.0,1021.0,1020.0,1020.0,1021.0,1021.0,1019.0,1019.0,1020.0,1020.0,1020.0,1021.0,1020.0,1020.0,1020.0,1020.0,1019.0,1019.0,1020.0,1020.0,1020.0,1020.0,1020.0,1019.0,1019.0,1019.0,1019.0,1019.0,1020.0,1020.0,1020.0,1021.0,1020.0,1020.0,1019.0,1020.0,1019.0,1020.0,1020.0,1020.0,1021.0,1021.0,1021.0,1021.0,1021.0,1022.0,1020.0,1020.0,1020.0,1021.0,1021.0,1021.0,1020.0,1021.0,1020.0,1020.0,1021.0,1021.0,1020.0,1020.0,1019.0,1020.0,1020.0,1021.0,1020.0,1020.0,1020.0,1020.0,1020.0,1020.0,1021.0,1021.0,1020.0,1020.0,1020.0,1020.0,1020.0,1020.0,1020.0,1020.0,1020.0,1019.0,1020.0,1020.0,1020.0,1020.0,1019.0,1020.0,1020.0,1021.0,1020.0,1020.0,1020.0,1020.0,1020.0,1020.0,1021.0,1021.0,1021.0,1020.0,1020.0,1020.0,1020.0,1020.0,1020.0,1020.0,1020.0,1021.0,1021.0,1021.0,1021.0,1020.0,1020.0,1022.0,1021.0,1021.0,1021.0,1020.0,1020.0,1022.0,1022.0,1021.0,1022.0,1020.0,1021.0,1021.0,1023.0,1021.0,1022.0,1020.0,1021.0,1021.0,1023.0,1021.0,1021.0,1020.0,1020.0,1022.0,1022.0,1022.0,1023.0,1019.0,1021.0,1021.0,1022.0,1021.0,1021.0,1021.0,1022.0,1023.0,1023.0,1022.0,1057.0,1020.0,1021.0,1022.0,1022.0,1022.0,2408,2213,1899,	00:07:05.019,-0.0107421875,0.07421875,1.01708984375,4.8828125,0.8544921875,0.3662109375,4.185791015625,0.6207275390625,31.09130859375,693.0,-527.0,-4229.0,0.962799072265625,0.03375244140625,0.0150146484375,0.26763916015625,4.187377272659657,0.6228858580351119,32.74771300198415,0.9588440206141653,0.033520090646229676,0.015510552766770774,0.28152081700719755,1,	00:07:05.020,0.0478515625,0.02099609375,1.033203125,3.96728515625,3.90625,1.15966796875,0.9722900390625,-2.4114990234375,156.51123046875,700.0,513.0,-2047.0,0.203338623046875,0.0223388671875,0.003997802734375,0.978851318359375,0.9712150803142484,-2.4134045290770723,157.8449092556387,0.1919127058578221,0.02229432119103526,0.00426944513196437,0.9811494526376833,1
1782115934.164289,0.277,1018.0,1018.0,1019.0,1019.0,1020.0,1019.0,1020.0,1020.0,1022.0,1019.0,1020.0,1019.0,1020.0,1020.0,1021.0,1020.0,1020.0,1020.0,1020.0,1020.0,1020.0,1021.0,1020.0,1020.0,1020.0,1019.0,1020.0,1020.0,1020.0,1021.0,1020.0,1020.0,1020.0,1020.0,1019.0,1019.0,1020.0,1020.0,1020.0,1020.0,1020.0,1020.0,1020.0,1020.0,1019.0,1020.0,1020.0,1021.0,1020.0,1020.0,1020.0,1020.0,1020.0,1020.0,1020.0,1020.0,1020.0,1021.0,1020.0,1020.0,1020.0,1019.0,1020.0,1020.0,1020.0,1019.0,1021.0,1021.0,1020.0,1020.0,1021.0,1020.0,1019.0,1020.0,1020.0,1020.0,1021.0,1020.0,1020.0,1020.0,1021.0,1019.0,1020.0,1020.0,1020.0,1020.0,1021.0,1020.0,1021.0,1020.0,1020.0,1019.0,1019.0,1020.0,1020.0,1020.0,1021.0,1020.0,1020.0,1019.0,1020.0,1019.0,1019.0,1020.0,1020.0,1020.0,1020.0,1020.0,1020.0,1020.0,1020.0,1019.0,1020.0,1020.0,1021.0,1020.0,1021.0,1021.0,1020.0,1021.0,1021.0,1020.0,1021.0,1021.0,1021.0,1020.0,1022.0,1020.0,1021.0,1020.0,1020.0,1020.0,1020.0,1020.0,1021.0,1020.0,1020.0,1020.0,1020.0,1020.0,1020.0,1021.0,1020.0,1020.0,1021.0,1020.0,1020.0,1021.0,1021.0,1020.0,1020.0,1020.0,1020.0,1020.0,1021.0,1020.0,1020.0,1020.0,1020.0,1020.0,1021.0,1020.0,1020.0,1020.0,1019.0,1020.0,1021.0,1020.0,1020.0,1020.0,1020.0,1021.0,1022.0,1021.0,1020.0,1020.0,1020.0,1020.0,1021.0,1020.0,1020.0,1020.0,1021.0,1020.0,1022.0,1022.0,1020.0,1020.0,1020.0,1020.0,1022.0,1022.0,1020.0,1021.0,1021.0,1021.0,1022.0,1022.0,1020.0,1020.0,1021.0,1021.0,1022.0,1022.0,1020.0,1020.0,1021.0,1021.0,1023.0,1022.0,1020.0,1020.0,1021.0,1021.0,1023.0,1023.0,1019.0,1020.0,1021.0,1020.0,1023.0,1021.0,1021.0,1021.0,1022.0,1022.0,1024.0,1055.0,1019.0,1020.0,1021.0,1021.0,1023.0,2409,2215,1899,	00:07:05.029,-0.01025390625,0.07421875,1.017578125,4.94384765625,0.79345703125,0.54931640625,4.207763671875,0.5438232421875,31.0968017578125,693.0,-526.0,-4230.0,0.962799072265625,0.034088134765625,0.014404296875,0.2677001953125,4.207724079476998,0.5435347619870134,32.753440312803,0.9588201937044899,0.033884796867355516,0.014898341427643003,0.28159136369648813,1,	00:07:05.030,0.04443359375,0.01953125,1.029296875,4.39453125,4.7607421875,1.0986328125,1.0986328125,-2.406005859375,156.5167236328125,699.0,518.0,-2046.0,0.2032470703125,0.02252197265625,0.005096435546875,0.978851318359375,1.0966409687734882,-2.4070522264983603,157.85326597191184,0.19181738159760128,0.022449590052297814,0.005355653185403658,0.9811592251018596,1
1782115934.175436,0.288,1018.0,1019.0,1019.0,1019.0,1019.0,1019.0,1020.0,1019.0,1022.0,1019.0,1020.0,1020.0,1020.0,1020.0,1021.0,1020.0,1020.0,1020.0,1020.0,1019.0,1020.0,1021.0,1020.0,1020.0,1020.0,1019.0,1020.0,1020.0,1020.0,1021.0,1019.0,1020.0,1020.0,1019.0,1019.0,1020.0,1020.0,1020.0,1020.0,1020.0,1020.0,1020.0,1019.0,1020.0,1020.0,1019.0,1020.0,1020.0,1020.0,1020.0,1021.0,1020.0,1020.0,1019.0,1020.0,1020.0,1020.0,1021.0,1020.0,1020.0,1020.0,1019.0,1020.0,1019.0,1020.0,1020.0,1020.0,1021.0,1020.0,1021.0,1021.0,1020.0,1019.0,1020.0,1020.0,1022.0,1020.0,1020.0,1019.0,1020.0,1021.0,1020.0,1020.0,1020.0,1021.0,1021.0,1020.0,1020.0,1020.0,1020.0,1021.0,1019.0,1020.0,1019.0,1021.0,1021.0,1020.0,1019.0,1019.0,1020.0,1020.0,1018.0,1019.0,1020.0,1020.0,1021.0,1020.0,1020.0,1020.0,1020.0,1020.0,1019.0,1020.0,1020.0,1021.0,1021.0,1020.0,1021.0,1020.0,1022.0,1022.0,1020.0,1020.0,1020.0,1021.0,1020.0,1021.0,1020.0,1021.0,1020.0,1020.0,1020.0,1020.0,1019.0,1021.0,1019.0,1020.0,1020.0,1021.0,1020.0,1021.0,1021.0,1020.0,1020.0,1020.0,1020.0,1020.0,1020.0,1021.0,1020.0,1020.0,1020.0,1020.0,1020.0,1019.0,1020.0,1020.0,1020.0,1020.0,1020.0,1019.0,1020.0,1020.0,1020.0,1021.0,1020.0,1020.0,1020.0,1020.0,1020.0,1021.0,1020.0,1020.0,1021.0,1020.0,1020.0,1021.0,1020.0,1019.0,1021.0,1021.0,1020.0,1021.0,1020.0,1021.0,1021.0,1019.0,1020.0,1021.0,1020.0,1021.0,1022.0,1020.0,1020.0,1021.0,1021.0,1020.0,1022.0,1020.0,1020.0,1021.0,1021.0,1020.0,1022.0,1020.0,1020.0,1021.0,1021.0,1020.0,1022.0,1020.0,1020.0,1021.0,1021.0,1020.0,1022.0,1019.0,1020.0,1020.0,1021.0,1020.0,1020.0,1021.0,1020.0,1022.0,1022.0,1022.0,1054.0,1020.0,1020.0,1021.0,1022.0,1021.0,2411,2218,1899,	00:07:05.039,-0.0107421875,0.07421875,1.017578125,4.7607421875,0.732421875,0.67138671875,4.207763671875,0.626220703125,31.102294921875,701.0,-532.0,-4228.0,0.9627685546875,0.033905029296875,0.01513671875,0.267730712890625,4.207938689001117,0.6287297927399728,32.76022389319015,0.9588075102383395,0.03367605672252039,0.015613636214602622,0.28162083708123603,1,	00:07:05.040,0.0439453125,0.02099609375,1.0283203125,4.82177734375,5.2490234375,0.9765625,1.2249755859375,-2.4005126953125,156.5277099609375,705.0,512.0,-2049.0,0.203155517578125,0.022674560546875,0.006195068359375,0.978851318359375,1.225047527143482,-2.398361149610128,157.86066644099816,0.19172984143934557,0.022589692648569783,0.006471134576108855,0.9811663967467418,1
1782115934.186505,0.299,1018.0,1019.0,1019.0,1019.0,1019.0,1019.0,1019.0,1019.0,1022.0,1020.0,1019.0,1020.0,1019.0,1020.0,1021.0,1020.0,1019.0,1020.0,1020.0,1019.0,1020.0,1021.0,1020.0,1020.0,1019.0,1020.0,1020.0,1020.0,1019.0,1021.0,1020.0,1020.0,1020.0,1019.0,1019.0,1020.0,1020.0,1020.0,1021.0,1019.0,1020.0,1020.0,1019.0,1019.0,1020.0,1020.0,1020.0,1021.0,1020.0,1020.0,1020.0,1019.0,1019.0,1019.0,1020.0,1020.0,1019.0,1021.0,1020.0,1020.0,1020.0,1019.0,1020.0,1020.0,1020.0,1020.0,1020.0,1021.0,1020.0,1021.0,1020.0,1019.0,1019.0,1020.0,1020.0,1020.0,1019.0,1021.0,1019.0,1021.0,1021.0,1020.0,1020.0,1020.0,1021.0,1020.0,1020.0,1021.0,1020.0,1020.0,1020.0,1020.0,1019.0,1020.0,1021.0,1020.0,1020.0,1021.0,1019.0,1020.0,1020.0,1019.0,1020.0,1019.0,1020.0,1020.0,1020.0,1021.0,1020.0,1020.0,1020.0,1019.0,1020.0,1019.0,1021.0,1019.0,1021.0,1021.0,1020.0,1022.0,1021.0,1020.0,1020.0,1021.0,1020.0,1020.0,1022.0,1020.0,1020.0,1019.0,1019.0,1021.0,1020.0,1020.0,1021.0,1020.0,1020.0,1020.0,1020.0,1020.0,1020.0,1021.0,1020.0,1019.0,1020.0,1022.0,1021.0,1020.0,1020.0,1019.0,1019.0,1020.0,1020.0,1020.0,1020.0,1021.0,1020.0,1020.0,1020.0,1020.0,1020.0,1020.0,1020.0,1020.0,1021.0,1020.0,1019.0,1020.0,1020.0,1019.0,1021.0,1020.0,1020.0,1021.0,1019.0,1020.0,1022.0,1020.0,1020.0,1020.0,1020.0,1020.0,1021.0,1020.0,1020.0,1022.0,1020.0,1020.0,1020.0,1020.0,1020.0,1021.0,1020.0,1020.0,1021.0,1021.0,1020.0,1022.0,1019.0,1020.0,1020.0,1020.0,1021.0,1021.0,1020.0,1020.0,1020.0,1020.0,1021.0,1021.0,1020.0,1021.0,1020.0,1020.0,1021.0,1022.0,1020.0,1020.0,1021.0,1020.0,1020.0,1021.0,1022.0,1020.0,1022.0,1021.0,1021.0,1053.0,1020.0,1020.0,1021.0,1020.0,1021.0,2412,2220,1900,	00:07:05.050,-0.01025390625,0.07763671875,1.0166015625,4.7607421875,0.67138671875,0.91552734375,4.3450927734375,0.604248046875,31.11328125,697.0,-530.0,-4227.0,0.96270751953125,0.03509521484375,0.0152587890625,0.267822265625,4.342515672920593,0.6060866876033483,32.7707738087189,0.9587402786273596,0.03485633393786555,0.015758143627850267,0.2816980564919621,1,	00:07:05.051,0.0439453125,0.0244140625,1.02392578125,4.2724609375,6.103515625,0.67138671875,1.351318359375,-2.373046875,156.5277099609375,704.0,523.0,-2045.0,0.203094482421875,0.022674560546875,0.00732421875,0.9788818359375,1.3521034828732972,-2.372654573741727,157.8651758258219,0.19166955971867738,0.022581879531189567,0.007603023289387593,0.9811702363152626,1
1782115934.196101,0.308,1018.0,1019.0,1018.0,1019.0,1019.0,1020.0,1019.0,1020.0,1023.0,1019.0,1019.0,1020.0,1019.0,1020.0,1021.0,1020.0,1019.0,1019.0,1020.0,1020.0,1020.0,1022.0,1020.0,1020.0,1019.0,1020.0,1019.0,1019.0,1020.0,1021.0,1020.0,1020.0,1020.0,1020.0,1020.0,1019.0,1020.0,1020.0,1021.0,1020.0,1020.0,1019.0,1020.0,1020.0,1020.0,1020.0,1020.0,1022.0,1020.0,1020.0,1021.0,1019.0,1020.0,1019.0,1020.0,1020.0,1020.0,1021.0,1020.0,1020.0,1020.0,1020.0,1019.0,1020.0,1020.0,1020.0,1020.0,1021.0,1020.0,1020.0,1021.0,1020.0,1020.0,1020.0,1020.0,1020.0,1020.0,1021.0,1020.0,1020.0,1020.0,1019.0,1020.0,1020.0,1020.0,1020.0,1020.0,1021.0,1019.0,1020.0,1020.0,1019.0,1020.0,1020.0,1020.0,1020.0,1020.0,1021.0,1020.0,1020.0,1020.0,1019.0,1020.0,1019.0,1020.0,1020.0,1020.0,1021.0,1020.0,1020.0,1020.0,1019.0,1019.0,1019.0,1020.0,1020.0,1021.0,1022.0,1020.0,1021.0,1022.0,1020.0,1020.0,1020.0,1020.0,1020.0,1022.0,1020.0,1021.0,1020.0,1020.0,1020.0,1020.0,1020.0,1021.0,1020.0,1020.0,1020.0,1020.0,1019.0,1020.0,1022.0,1020.0,1020.0,1020.0,1021.0,1020.0,1020.0,1021.0,1020.0,1020.0,1020.0,1020.0,1020.0,1020.0,1020.0,1019.0,1020.0,1021.0,1020.0,1020.0,1020.0,1020.0,1020.0,1020.0,1020.0,1020.0,1021.0,1020.0,1020.0,1021.0,1020.0,1020.0,1021.0,1020.0,1020.0,1020.0,1020.0,1020.0,1020.0,1020.0,1020.0,1020.0,1020.0,1020.0,1022.0,1020.0,1019.0,1020.0,1019.0,1019.0,1020.0,1021.0,1019.0,1021.0,1020.0,1020.0,1021.0,1020.0,1019.0,1023.0,1020.0,1020.0,1020.0,1020.0,1020.0,1023.0,1020.0,1020.0,1021.0,1020.0,1020.0,1024.0,1020.0,1020.0,1021.0,1020.0,1020.0,1023.0,1020.0,1020.0,1020.0,1021.0,1020.0,1025.0,1020.0,1021.0,1052.0,1020.0,1019.0,1023.0,1020.0,1020.0,2414,2224,1899,	00:07:05.060,-0.0078125,0.08203125,1.01611328125,4.57763671875,0.8544921875,1.15966796875,4.4659423828125,0.5657958984375,31.1297607421875,704.0,-536.0,-4220.0,0.962646484375,0.036224365234375,0.01519775390625,0.267913818359375,4.466479743744044,0.5659612249458879,32.78376663648162,0.9586679321944095,0.03599045595391617,0.015731293446552757,0.28180313921037664,1,	00:07:05.061,0.0400390625,0.0283203125,1.01953125,2.9296875,6.7138671875,0.18310546875,1.461181640625,-2.26318359375,156.533203125,708.0,515.0,-2045.0,0.20306396484375,0.021942138671875,0.00848388671875,0.9788818359375,1.4626119405787912,-2.263195828140022,157.8653310766881,0.19166203499640258,0.021829569890114815,0.00873281344939364,0.9811793272326462,1
1782115934.205629,0.318,1018.0,1019.0,1019.0,1019.0,1019.0,1020.0,1019.0,1020.0,1022.0,1020.0,1020.0,1020.0,1020.0,1020.0,1021.0,1020.0,1019.0,1019.0,1022.0,1020.0,1020.0,1021.0,1020.0,1020.0,1019.0,1019.0,1020.0,1019.0,1020.0,1021.0,1020.0,1020.0,1020.0,1020.0,1019.0,1020.0,1020.0,1020.0,1021.0,1019.0,1020.0,1020.0,1020.0,1020.0,1020.0,1019.0,1020.0,1021.0,1020.0,1020.0,1020.0,1019.0,1020.0,1020.0,1020.0,1020.0,1020.0,1021.0,1020.0,1021.0,1020.0,1019.0,1020.0,1019.0,1020.0,1020.0,1020.0,1021.0,1020.0,1021.0,1021.0,1021.0,1020.0,1020.0,1020.0,1020.0,1021.0,1021.0,1020.0,1021.0,1020.0,1019.0,1020.0,1020.0,1021.0,1020.0,1020.0,1021.0,1020.0,1019.0,1020.0,1019.0,1020.0,1020.0,1020.0,1020.0,1020.0,1020.0,1020.0,1020.0,1020.0,1019.0,1020.0,1019.0,1020.0,1020.0,1020.0,1021.0,1020.0,1020.0,1020.0,1019.0,1020.0,1020.0,1020.0,1020.0,1020.0,1021.0,1021.0,1022.0,1021.0,1020.0,1020.0,1022.0,1020.0,1020.0,1021.0,1020.0,1021.0,1020.0,1020.0,1021.0,1020.0,1019.0,1021.0,1020.0,1020.0,1019.0,1021.0,1020.0,1020.0,1021.0,1020.0,1021.0,1020.0,1021.0,1020.0,1019.0,1022.0,1020.0,1020.0,1020.0,1021.0,1020.0,1020.0,1020.0,1019.0,1020.0,1021.0,1019.0,1019.0,1020.0,1020.0,1020.0,1021.0,1019.0,1019.0,1021.0,1021.0,1020.0,1021.0,1020.0,1020.0,1021.0,1020.0,1019.0,1020.0,1020.0,1019.0,1020.0,1020.0,1020.0,1020.0,1020.0,1020.0,1021.0,1020.0,1020.0,1020.0,1020.0,1019.0,1021.0,1020.0,1019.0,1020.0,1020.0,1020.0,1022.0,1020.0,1020.0,1020.0,1019.0,1020.0,1020.0,1020.0,1020.0,1020.0,1020.0,1020.0,1021.0,1020.0,1020.0,1020.0,1019.0,1020.0,1021.0,1019.0,1019.0,1020.0,1019.0,1020.0,1021.0,1021.0,1020.0,1021.0,1020.0,1020.0,1052.0,1020.0,1020.0,1020.0,1020.0,1020.0,2415,2227,1899,	00:07:05.070,-0.0078125,0.08251953125,1.01611328125,4.5166015625,0.91552734375,1.708984375,4.5867919921875,0.5218505859375,31.146240234375,704.0,-537.0,-4218.0,0.962554931640625,0.037322998046875,0.015106201171875,0.26806640625,4.5861047128834915,0.5202913368021655,32.80220370592634,0.9585817965688366,0.037101148749909184,0.015649421749830188,0.28195662724467885,1,	00:07:05.071,0.0380859375,0.037109375,1.01416015625,2.0751953125,7.62939453125,-0.244140625,1.571044921875,-2.1697998046875,156.5277099609375,709.0,521.0,-2046.0,0.203094482421875,0.021331787109375,0.00958251953125,0.9788818359375,1.5736549458557443,-2.170630360211706,157.86136225872525,0.1916886579632378,0.021223128404530653,0.009838100907505405,0.98117697129494,1
1782115934.216626,0.329,1018.0,1020.0,1019.0,1019.0,1019.0,1020.0,1019.0,1019.0,1022.0,1020.0,1020.0,1020.0,1020.0,1020.0,1022.0,1020.0,1019.0,1020.0,1020.0,1020.0,1020.0,1022.0,1021.0,1021.0,1019.0,1020.0,1020.0,1019.0,1020.0,1022.0,1020.0,1019.0,1020.0,1020.0,1020.0,1020.0,1020.0,1020.0,1021.0,1020.0,1020.0,1021.0,1020.0,1019.0,1020.0,1020.0,1020.0,1021.0,1020.0,1020.0,1021.0,1019.0,1019.0,1019.0,1020.0,1020.0,1020.0,1021.0,1020.0,1019.0,1021.0,1019.0,1020.0,1020.0,1020.0,1020.0,1020.0,1021.0,1020.0,1020.0,1021.0,1020.0,1019.0,1020.0,1020.0,1019.0,1020.0,1021.0,1020.0,1020.0,1020.0,1019.0,1020.0,1020.0,1020.0,1019.0,1021.0,1021.0,1021.0,1020.0,1020.0,1019.0,1020.0,1020.0,1020.0,1020.0,1020.0,1020.0,1020.0,1020.0,1020.0,1018.0,1020.0,1020.0,1020.0,1020.0,1020.0,1021.0,1021.0,1020.0,1020.0,1019.0,1020.0,1021.0,1020.0,1020.0,1021.0,1022.0,1020.0,1022.0,1021.0,1020.0,1020.0,1020.0,1020.0,1021.0,1022.0,1021.0,1021.0,1020.0,1020.0,1019.0,1019.0,1021.0,1021.0,1020.0,1020.0,1020.0,1020.0,1020.0,1021.0,1022.0,1020.0,1019.0,1020.0,1020.0,1020.0,1021.0,1021.0,1020.0,1020.0,1020.0,1020.0,1019.0,1021.0,1021.0,1021.0,1020.0,1019.0,1019.0,1019.0,1020.0,1020.0,1020.0,1020.0,1019.0,1020.0,1021.0,1020.0,1020.0,1020.0,1019.0,1020.0,1020.0,1020.0,1019.0,1019.0,1020.0,1020.0,1020.0,1020.0,1020.0,1019.0,1020.0,1020.0,1021.0,1020.0,1019.0,1020.0,1020.0,1020.0,1020.0,1020.0,1020.0,1020.0,1020.0,1021.0,1021.0,1020.0,1020.0,1020.0,1019.0,1020.0,1020.0,1020.0,1020.0,1020.0,1020.0,1020.0,1021.0,1020.0,1020.0,1020.0,1020.0,1020.0,1021.0,1020.0,1020.0,1020.0,1019.0,1020.0,1020.0,1021.0,1020.0,1020.0,1020.0,1020.0,1051.0,1020.0,1019.0,1020.0,1020.0,1020.0,2417,2231,1899,	00:07:05.081,-0.009765625,0.0869140625,1.01611328125,4.82177734375,1.28173828125,2.3193359375,4.72412109375,0.538330078125,31.1737060546875,706.0,-538.0,-4215.0,0.96246337890625,0.0384521484375,0.015594482421875,0.26824951171875,4.7255210931880764,0.5396996917853725,32.82719688984247,0.9584756554909417,0.038216030060593605,0.016163113580788622,0.2821395162627741,1,	00:07:05.082,0.04541015625,0.00390625,1.0087890625,2.74658203125,7.32421875,-0.30517578125,1.5106201171875,-2.1258544921875,156.5277099609375,713.0,519.0,-2044.0,0.203094482421875,0.020843505859375,0.0091552734375,0.9788818359375,1.5133421523078592,-2.123804062293635,157.8636238133013,0.19168720222603947,0.020721139434417467,0.009400622589362776,0.9811922743164181,1
1782115934.226662,0.339,1019.0,1019.0,1019.0,1019.0,1019.0,1020.0,1019.0,1019.0,1022.0,1020.0,1019.0,1020.0,1020.0,1020.0,1021.0,1020.0,1019.0,1020.0,1020.0,1019.0,1020.0,1022.0,1020.0,1020.0,1020.0,1020.0,1020.0,1020.0,1020.0,1021.0,1020.0,1020.0,1020.0,1020.0,1020.0,1020.0,1020.0,1019.0,1021.0,1020.0,1020.0,1021.0,1019.0,1020.0,1020.0,1020.0,1020.0,1021.0,1019.0,1020.0,1020.0,1020.0,1019.0,1020.0,1020.0,1020.0,1019.0,1021.0,1020.0,1020.0,1020.0,1020.0,1020.0,1019.0,1020.0,1020.0,1020.0,1022.0,1020.0,1020.0,1021.0,1020.0,1019.0,1020.0,1020.0,1019.0,1020.0,1021.0,1020.0,1020.0,1020.0,1020.0,1020.0,1020.0,1019.0,1020.0,1020.0,1021.0,1020.0,1020.0,1020.0,1019.0,1020.0,1020.0,1020.0,1020.0,1020.0,1021.0,1020.0,1019.0,1020.0,1019.0,1020.0,1019.0,1020.0,1020.0,1020.0,1021.0,1019.0,1020.0,1020.0,1019.0,1020.0,1020.0,1019.0,1020.0,1021.0,1022.0,1020.0,1021.0,1022.0,1020.0,1020.0,1020.0,1020.0,1021.0,1022.0,1020.0,1022.0,1020.0,1020.0,1019.0,1019.0,1020.0,1021.0,1020.0,1020.0,1020.0,1021.0,1020.0,1020.0,1021.0,1020.0,1020.0,1020.0,1020.0,1020.0,1019.0,1021.0,1020.0,1020.0,1020.0,1020.0,1020.0,1020.0,1020.0,1020.0,1020.0,1019.0,1020.0,1019.0,1021.0,1020.0,1020.0,1020.0,1020.0,1020.0,1021.0,1019.0,1019.0,1019.0,1020.0,1020.0,1021.0,1020.0,1020.0,1019.0,1020.0,1020.0,1020.0,1020.0,1020.0,1020.0,1020.0,1020.0,1021.0,1019.0,1019.0,1020.0,1020.0,1019.0,1020.0,1020.0,1020.0,1019.0,1019.0,1020.0,1021.0,1019.0,1019.0,1019.0,1020.0,1020.0,1020.0,1019.0,1019.0,1020.0,1019.0,1020.0,1020.0,1020.0,1020.0,1020.0,1020.0,1020.0,1022.0,1020.0,1020.0,1020.0,1019.0,1020.0,1020.0,1020.0,1020.0,1020.0,1021.0,1021.0,1051.0,1019.0,1020.0,1020.0,1020.0,1020.0,2419,2235,1899,	00:07:05.091,-0.009765625,0.08349609375,1.01611328125,4.57763671875,1.40380859375,2.74658203125,4.6856689453125,0.582275390625,31.201171875,708.0,-539.0,-4212.0,0.96240234375,0.037994384765625,0.015869140625,0.26849365234375,4.684633984215078,0.5797000407359323,32.85489567508034,0.9584234032957347,0.03777145260091853,0.01640611342442557,0.28236277521256714,1,	00:07:05.092,0.07275390625,0.0263671875,0.99951171875,-0.06103515625,7.50732421875,0.48828125,1.5106201171875,-2.142333984375,156.533203125,713.0,522.0,-2041.0,0.203033447265625,0.020965576171875,0.009124755859375,0.978912353515625,1.5123763918757143,-2.1404959186449655,157.87049598149713,0.19162612701051115,0.020861872725896482,0.009365612407142433,0.9812015567749365,1
1782115934.236191,0.348,1019.0,1019.0,1019.0,1019.0,1020.0,1020.0,1020.0,1019.0,1023.0,1020.0,1020.0,1020.0,1019.0,1020.0,1022.0,1019.0,1020.0,1020.0,1020.0,1020.0,1020.0,1022.0,1020.0,1020.0,1019.0,1019.0,1020.0,1020.0,1020.0,1022.0,1020.0,1019.0,1021.0,1020.0,1020.0,1020.0,1020.0,1020.0,1021.0,1020.0,1020.0,1020.0,1019.0,1019.0,1020.0,1020.0,1020.0,1021.0,1019.0,1019.0,1021.0,1019.0,1020.0,1020.0,1020.0,1020.0,1020.0,1022.0,1020.0,1020.0,1020.0,1020.0,1020.0,1020.0,1020.0,1020.0,1020.0,1022.0,1020.0,1020.0,1021.0,1020.0,1020.0,1020.0,1020.0,1020.0,1020.0,1021.0,1020.0,1020.0,1021.0,1020.0,1019.0,1020.0,1020.0,1020.0,1020.0,1021.0,1020.0,1019.0,1020.0,1019.0,1020.0,1019.0,1019.0,1020.0,1020.0,1021.0,1020.0,1019.0,1021.0,1019.0,1020.0,1020.0,1020.0,1020.0,1020.0,1021.0,1020.0,1019.0,1020.0,1019.0,1020.0,1020.0,1020.0,1020.0,1021.0,1023.0,1020.0,1021.0,1022.0,1020.0,1020.0,1020.0,1019.0,1021.0,1022.0,1020.0,1020.0,1019.0,1020.0,1020.0,1020.0,1020.0,1022.0,1019.0,1020.0,1020.0,1020.0,1020.0,1020.0,1022.0,1020.0,1020.0,1020.0,1020.0,1020.0,1020.0,1021.0,1020.0,1020.0,1020.0,1020.0,1020.0,1020.0,1021.0,1020.0,1019.0,1019.0,1019.0,1020.0,1020.0,1020.0,1020.0,1020.0,1020.0,1020.0,1021.0,1020.0,1020.0,1020.0,1020.0,1020.0,1020.0,1019.0,1020.0,1020.0,1020.0,1019.0,1020.0,1021.0,1020.0,1020.0,1020.0,1020.0,1021.0,1020.0,1019.0,1019.0,1019.0,1020.0,1020.0,1020.0,1020.0,1020.0,1019.0,1020.0,1021.0,1020.0,1020.0,1020.0,1019.0,1020.0,1020.0,1019.0,1020.0,1020.0,1020.0,1020.0,1020.0,1020.0,1019.0,1020.0,1020.0,1020.0,1021.0,1020.0,1020.0,1020.0,1020.0,1020.0,1021.0,1021.0,1020.0,1020.0,1019.0,1021.0,1049.0,1020.0,1019.0,1020.0,1019.0,1020.0,2420,2238,1899,	00:07:05.101,-0.0087890625,0.0732421875,1.017578125,4.33349609375,1.64794921875,3.173828125,4.63623046875,0.582275390625,31.234130859375,712.0,-541.0,-4206.0,0.96234130859375,0.03759765625,0.0157470703125,0.268768310546875,4.637962972879696,0.579848544269259,32.88696357904438,0.9583596587004823,0.03737617420382643,0.016302813068760556,0.2826375850155554,1,	00:07:05.102,0.0869140625,0.02001953125,1.0078125,-0.79345703125,4.45556640625,1.28173828125,1.494140625,-2.186279296875,156.5496826171875,718.0,519.0,-2041.0,0.202911376953125,0.021331787109375,0.008880615234375,0.978912353515625,1.491748862850027,-2.1871021451060932,157.8849571904746,0.19149938396766833,0.021225259403571797,0.009113531841868085,0.9812208812701765,1
1782115934.248238,0.360,1019.0,1020.0,1020.0,1019.0,1020.0,1020.0,1019.0,1019.0,1022.0,1020.0,1020.0,1020.0,1019.0,1020.0,1021.0,1020.0,1020.0,1020.0,1020.0,1019.0,1021.0,1022.0,1020.0,1020.0,1019.0,1020.0,1020.0,1019.0,1020.0,1021.0,1020.0,1020.0,1020.0,1019.0,1020.0,1021.0,1020.0,1020.0,1021.0,1020.0,1019.0,1020.0,1020.0,1020.0,1021.0,1019.0,1020.0,1021.0,1020.0,1020.0,1020.0,1020.0,1020.0,1020.0,1020.0,1019.0,1020.0,1021.0,1019.0,1020.0,1020.0,1019.0,1020.0,1020.0,1021.0,1020.0,1020.0,1021.0,1021.0,1020.0,1021.0,1020.0,1020.0,1021.0,1020.0,1019.0,1020.0,1021.0,1020.0,1020.0,1021.0,1020.0,1020.0,1020.0,1021.0,1019.0,1020.0,1021.0,1020.0,1020.0,1021.0,1019.0,1019.0,1020.0,1020.0,1020.0,1020.0,1021.0,1020.0,1020.0,1020.0,1019.0,1019.0,1020.0,1021.0,1020.0,1019.0,1021.0,1019.0,1019.0,1020.0,1019.0,1020.0,1020.0,1020.0,1020.0,1021.0,1021.0,1020.0,1021.0,1022.0,1020.0,1020.0,1021.0,1020.0,1021.0,1022.0,1020.0,1021.0,1020.0,1020.0,1020.0,1020.0,1020.0,1021.0,1019.0,1020.0,1020.0,1021.0,1020.0,1020.0,1021.0,1020.0,1020.0,1020.0,1020.0,1020.0,1019.0,1021.0,1020.0,1019.0,1020.0,1020.0,1019.0,1020.0,1021.0,1020.0,1020.0,1021.0,1020.0,1019.0,1020.0,1020.0,1019.0,1020.0,1019.0,1019.0,1021.0,1020.0,1020.0,1020.0,1020.0,1020.0,1021.0,1019.0,1020.0,1020.0,1020.0,1020.0,1020.0,1020.0,1020.0,1020.0,1020.0,1020.0,1021.0,1019.0,1019.0,1020.0,1020.0,1020.0,1020.0,1020.0,1020.0,1020.0,1020.0,1020.0,1021.0,1019.0,1020.0,1020.0,1020.0,1020.0,1020.0,1020.0,1019.0,1020.0,1020.0,1020.0,1020.0,1020.0,1020.0,1020.0,1020.0,1020.0,1021.0,1019.0,1020.0,1020.0,1020.0,1020.0,1020.0,1020.0,1020.0,1020.0,1020.0,1021.0,1049.0,1020.0,1020.0,1020.0,1020.0,1020.0,2422,2241,1899,	00:07:05.111,-0.01123046875,0.0751953125,1.01708984375,3.84521484375,1.5869140625,3.47900390625,4.5867919921875,0.604248046875,31.26708984375,714.0,-543.0,-4194.0,0.9622802734375,0.037109375,0.015869140625,0.26904296875,4.586091871316454,0.6041747922258816,32.921998175093485,0.9582913759679635,0.03687726445270582,0.016389573627814052,0.28292947529059387,1,	00:07:05.112,0.02392578125,0.01416015625,1.017578125,-2.25830078125,4.2724609375,2.13623046875,1.4117431640625,-2.076416015625,156.5771484375,716.0,525.0,-2041.0,0.202728271484375,0.020233154296875,0.00836181640625,0.97900390625,1.409952644191505,-2.0743358460245007,157.90958824261554,0.1913189567999472,0.020121191850985924,0.008606366190267953,0.9812839165442766,1
1782115934.257296,0.370,1018.0,1020.0,1019.0,1019.0,1020.0,1019.0,1020.0,1019.0,1022.0,1019.0,1019.0,1020.0,1020.0,1020.0,1022.0,1020.0,1020.0,1019.0,1020.0,1019.0,1021.0,1021.0,1020.0,1021.0,1020.0,1020.0,1021.0,1020.0,1020.0,1021.0,1020.0,1020.0,1020.0,1019.0,1020.0,1020.0,1019.0,1020.0,1021.0,1020.0,1019.0,1020.0,1019.0,1020.0,1020.0,1020.0,1020.0,1021.0,1020.0,1020.0,1020.0,1020.0,1020.0,1020.0,1020.0,1020.0,1020.0,1021.0,1020.0,1020.0,1021.0,1019.0,1020.0,1020.0,1020.0,1020.0,1020.0,1022.0,1020.0,1020.0,1022.0,1020.0,1020.0,1020.0,1020.0,1020.0,1021.0,1021.0,1020.0,1020.0,1022.0,1019.0,1020.0,1020.0,1020.0,1020.0,1020.0,1021.0,1019.0,1020.0,1021.0,1019.0,1020.0,1020.0,1019.0,1020.0,1020.0,1021.0,1020.0,1020.0,1021.0,1018.0,1020.0,1020.0,1020.0,1019.0,1020.0,1021.0,1019.0,1019.0,1021.0,1019.0,1020.0,1019.0,1021.0,1020.0,1021.0,1022.0,1020.0,1021.0,1024.0,1020.0,1020.0,1021.0,1020.0,1020.0,1022.0,1020.0,1021.0,1020.0,1020.0,1020.0,1020.0,1020.0,1021.0,1019.0,1020.0,1019.0,1020.0,1020.0,1021.0,1021.0,1020.0,1020.0,1020.0,1020.0,1014.0,1020.0,1021.0,1020.0,1020.0,1020.0,1020.0,1020.0,1021.0,1021.0,1020.0,1020.0,1020.0,1020.0,1020.0,1020.0,1020.0,1019.0,1020.0,1020.0,1021.0,1020.0,1019.0,1020.0,1020.0,1020.0,1021.0,1020.0,1019.0,1019.0,1020.0,1020.0,1020.0,1020.0,1019.0,1020.0,1020.0,1019.0,1020.0,1021.0,1020.0,1019.0,1020.0,1020.0,1020.0,1020.0,1020.0,1019.0,1020.0,1020.0,1021.0,1021.0,1019.0,1019.0,1020.0,1020.0,1020.0,1020.0,1020.0,1019.0,1020.0,1020.0,1021.0,1020.0,1020.0,1020.0,1020.0,1020.0,1020.0,1020.0,1019.0,1020.0,1019.0,1019.0,1021.0,1020.0,1020.0,1020.0,1020.0,1020.0,1022.0,1049.0,1019.0,1020.0,1020.0,1020.0,1021.0,2423,2244,1899,	00:07:05.122,-0.0107421875,0.080078125,1.0166015625,3.2958984375,1.220703125,3.11279296875,4.5263671875,0.615234375,31.300048828125,717.0,-543.0,-4202.0,0.96221923828125,0.036590576171875,0.01580810546875,0.269317626953125,4.528003665623986,0.6131638412374113,32.953038103873595,0.95823375037066,0.03636483859800648,0.016331165772309454,0.2831942287350461,1,	00:07:05.123,-0.11181640625,0.01318359375,1.025390625,-1.77001953125,3.23486328125,1.40380859375,1.38427734375,-1.9500732421875,156.588134765625,722.0,522.0,-2038.0,0.20263671875,0.019134521484375,0.00836181640625,0.979034423828125,1.3843350085478174,-1.9510273626921966,157.92466778952246,0.1912106922373935,0.019021436831376252,0.00859583152381778,0.9813270442596499,1
1782115934.267921,0.380,1019.0,1020.0,1020.0,1019.0,1020.0,1019.0,1020.0,1019.0,1022.0,1020.0,1020.0,1019.0,1020.0,1020.0,1021.0,1019.0,1019.0,1021.0,1020.0,1019.0,1021.0,1021.0,1020.0,1021.0,1019.0,1020.0,1020.0,1020.0,1020.0,1021.0,1020.0,1020.0,1021.0,1020.0,1020.0,1020.0,1020.0,1020.0,1020.0,1020.0,1020.0,1020.0,1019.0,1020.0,1020.0,1020.0,1021.0,1020.0,1020.0,1019.0,1021.0,1020.0,1019.0,1020.0,1020.0,1020.0,1021.0,1021.0,1020.0,1020.0,1021.0,1020.0,1020.0,1020.0,1020.0,1020.0,1021.0,1021.0,1020.0,1020.0,1022.0,1020.0,1020.0,1020.0,1020.0,1020.0,1020.0,1021.0,1020.0,1020.0,1021.0,1020.0,1020.0,1020.0,1020.0,1020.0,1020.0,1021.0,1020.0,1020.0,1020.0,1019.0,1019.0,1020.0,1019.0,1020.0,1020.0,1021.0,1020.0,1019.0,1020.0,1018.0,1020.0,1020.0,1020.0,1020.0,1020.0,1021.0,1020.0,1020.0,1020.0,1019.0,1020.0,1021.0,1020.0,1020.0,1021.0,1022.0,1020.0,1022.0,1022.0,1020.0,1020.0,1021.0,1020.0,1021.0,1022.0,1021.0,1021.0,1020.0,1020.0,1020.0,1020.0,1020.0,1020.0,1020.0,1020.0,1020.0,1020.0,1020.0,1020.0,1021.0,1021.0,1020.0,1020.0,1020.0,1020.0,1020.0,1021.0,1020.0,1020.0,1020.0,1020.0,1020.0,1020.0,1020.0,1020.0,1020.0,1019.0,1020.0,1019.0,1020.0,1020.0,1020.0,1020.0,1020.0,1021.0,1021.0,1019.0,1020.0,1020.0,1020.0,1020.0,1019.0,1019.0,1019.0,1020.0,1019.0,1021.0,1020.0,1020.0,1020.0,1020.0,1020.0,1020.0,1020.0,1019.0,1020.0,1020.0,1020.0,1020.0,1019.0,1020.0,1020.0,1020.0,1020.0,1020.0,1021.0,1019.0,1019.0,1020.0,1020.0,1020.0,1019.0,1020.0,1020.0,1020.0,1020.0,1021.0,1021.0,1020.0,1020.0,1020.0,1019.0,1020.0,1020.0,1019.0,1020.0,1019.0,1019.0,1020.0,1019.0,1020.0,1020.0,1020.0,1020.0,1020.0,1048.0,1019.0,1020.0,1020.0,1020.0,1019.0,2424,2246,1899,	00:07:05.132,-0.01611328125,0.091796875,1.01513671875,2.74658203125,-0.244140625,1.28173828125,4.63623046875,0.648193359375,31.31103515625,714.0,-550.0,-4189.0,0.962158203125,0.037445068359375,0.016357421875,0.2694091796875,4.638718136651046,0.6477547997046348,32.96654558064313,0.9581666572657384,0.03720303460232585,0.016898362963218092,0.2832790787363982,1,	00:07:05.133,0.12158203125,0.02685546875,1.017578125,-1.46484375,5.55419921875,0.1220703125,1.373291015625,-1.988525390625,156.5936279296875,720.0,524.0,-2037.0,0.202606201171875,0.0194091796875,0.008209228515625,0.979034423828125,1.371987546818908,-1.987117063375059,157.92715397395426,0.19118671348783517,0.019309686416810377,0.008430163166659376,0.9813275237886626,1
1782115934.278107,0.390,1019.0,1020.0,1020.0,1019.0,1019.0,1020.0,1020.0,1019.0,1022.0,1020.0,1019.0,1020.0,1020.0,1020.0,1022.0,1020.0,1020.0,1020.0,1020.0,1020.0,1020.0,1021.0,1020.0,1021.0,1020.0,1019.0,1020.0,1020.0,1020.0,1021.0,1020.0,1020.0,1021.0,1020.0,1019.0,1020.0,1020.0,1020.0,1021.0,1020.0,1020.0,1021.0,1019.0,1020.0,1020.0,1020.0,1020.0,1021.0,1020.0,1020.0,1020.0,1019.0,1019.0,1020.0,1020.0,1020.0,1020.0,1021.0,1020.0,1020.0,1021.0,1019.0,1020.0,1021.0,1020.0,1020.0,1020.0,1021.0,1020.0,1020.0,1021.0,1020.0,1020.0,1020.0,1020.0,1020.0,1020.0,1021.0,1020.0,1020.0,1021.0,1019.0,1020.0,1020.0,1020.0,1020.0,1020.0,1021.0,1020.0,1020.0,1021.0,1019.0,1020.0,1020.0,1020.0,1020.0,1020.0,1021.0,1019.0,1020.0,1020.0,1018.0,1019.0,1020.0,1020.0,1019.0,1020.0,1021.0,1020.0,1019.0,1020.0,1019.0,1020.0,1020.0,1020.0,1020.0,1021.0,1021.0,1020.0,1021.0,1022.0,1020.0,1020.0,1020.0,1020.0,1021.0,1022.0,1020.0,1021.0,1020.0,1020.0,1020.0,1020.0,1020.0,1021.0,1019.0,1020.0,1020.0,1020.0,1020.0,1020.0,1021.0,1020.0,1020.0,1020.0,1020.0,1020.0,1020.0,1021.0,1019.0,1020.0,1020.0,1020.0,1019.0,1020.0,1021.0,1020.0,1020.0,1020.0,1019.0,1019.0,1020.0,1020.0,1020.0,1020.0,1020.0,1020.0,1020.0,1020.0,1020.0,1019.0,1020.0,1020.0,1020.0,1019.0,1019.0,1020.0,1020.0,1020.0,1020.0,1020.0,1020.0,1020.0,1020.0,1020.0,1020.0,1019.0,1019.0,1019.0,1019.0,1020.0,1020.0,1019.0,1020.0,1020.0,1020.0,1020.0,1020.0,1020.0,1020.0,1020.0,1020.0,1020.0,1019.0,1020.0,1020.0,1020.0,1019.0,1020.0,1020.0,1019.0,1019.0,1020.0,1020.0,1020.0,1020.0,1020.0,1020.0,1019.0,1019.0,1020.0,1020.0,1020.0,1020.0,1020.0,1020.0,1020.0,1048.0,1020.0,1020.0,1020.0,1020.0,1020.0,2425,2249,1899,	00:07:05.142,-0.00927734375,0.0810546875,1.0166015625,2.74658203125,0.18310546875,1.953125,4.6197509765625,0.5712890625,31.3275146484375,720.0,-551.0,-4196.0,0.962127685546875,0.037445068359375,0.015655517578125,0.26959228515625,4.617425451036296,0.5706494329515264,32.98562359839415,0.9581221095555851,0.03721319356012967,0.016207277006521394,0.28346873827257507,1,	00:07:05.143,0.07080078125,0.0166015625,1.03271484375,0.1220703125,1.5869140625,1.0986328125,1.351318359375,-2.0599365234375,156.6046142578125,720.0,522.0,-2037.0,0.202484130859375,0.019989013671875,0.007904052734375,0.979034423828125,1.3520294400903956,-2.060764707799172,157.93925721234933,0.1910768108482263,0.019906170956202746,0.008138213305563498,0.9813394755119793,1
1782115934.288022,0.400,1018.0,1020.0,1020.0,1020.0,1020.0,1020.0,1019.0,1019.0,1021.0,1019.0,1020.0,1020.0,1019.0,1020.0,1021.0,1020.0,1020.0,1020.0,1020.0,1020.0,1020.0,1021.0,1020.0,1020.0,1019.0,1020.0,1020.0,1020.0,1020.0,1021.0,1019.0,1019.0,1021.0,1020.0,1020.0,1020.0,1020.0,1020.0,1020.0,1020.0,1020.0,1020.0,1019.0,1020.0,1020.0,1020.0,1020.0,1021.0,1020.0,1020.0,1021.0,1020.0,1020.0,1020.0,1020.0,1020.0,1020.0,1020.0,1020.0,1020.0,1021.0,1019.0,1020.0,1020.0,1020.0,1021.0,1020.0,1021.0,1020.0,1021.0,1022.0,1020.0,1020.0,1020.0,1020.0,1020.0,1021.0,1021.0,1020.0,1020.0,1022.0,1020.0,1020.0,1020.0,1020.0,1020.0,1020.0,1021.0,1020.0,1020.0,1021.0,1019.0,1020.0,1019.0,1020.0,1020.0,1020.0,1020.0,1020.0,1019.0,1021.0,1019.0,1020.0,1020.0,1020.0,1020.0,1021.0,1020.0,1019.0,1019.0,1020.0,1019.0,1021.0,1020.0,1021.0,1020.0,1021.0,1022.0,1020.0,1021.0,1022.0,1020.0,1020.0,1021.0,1020.0,1020.0,1022.0,1020.0,1022.0,1020.0,1020.0,1020.0,1020.0,1020.0,1021.0,1019.0,1020.0,1020.0,1020.0,1020.0,1021.0,1021.0,1020.0,1020.0,1020.0,1020.0,1020.0,1020.0,1021.0,1019.0,1020.0,1021.0,1020.0,1020.0,1020.0,1021.0,1020.0,1020.0,1019.0,1020.0,1020.0,1019.0,1020.0,1020.0,1020.0,1020.0,1020.0,1020.0,1019.0,1019.0,1020.0,1019.0,1019.0,1020.0,1021.0,1020.0,1020.0,1020.0,1019.0,1020.0,1020.0,1020.0,1020.0,1019.0,1020.0,1021.0,1021.0,1019.0,1020.0,1020.0,1020.0,1020.0,1021.0,1020.0,1020.0,1020.0,1020.0,1021.0,1020.0,1019.0,1020.0,1020.0,1019.0,1019.0,1020.0,1020.0,1020.0,1020.0,1019.0,1021.0,1020.0,1020.0,1020.0,1020.0,1020.0,1020.0,1019.0,1020.0,1020.0,1019.0,1020.0,1020.0,1021.0,1020.0,1020.0,1020.0,1020.0,1048.0,1020.0,1020.0,1020.0,1019.0,1020.0,2426,2251,1899,	00:07:05.152,-0.01123046875,0.078125,1.017578125,2.5634765625,-0.244140625,2.01416015625,4.5538330078125,0.5877685546875,31.3494873046875,716.0,-554.0,-4188.0,0.96209716796875,0.036865234375,0.01568603515625,0.269744873046875,4.554853534147327,0.5898885338259156,33.004614480513176,0.9580963743641002,0.03663966661826594,0.016219407002753813,0.2836296936093737,1,	00:07:05.153,-0.0126953125,0.013671875,0.99609375,-0.67138671875,2.9296875,0.9765625,1.329345703125,-1.944580078125,156.6156005859375,720.0,525.0,-2038.0,0.202423095703125,0.018951416015625,0.007904052734375,0.979095458984375,1.3267376465871814,-1.94192662095,157.95034678663788,0.19100147639009502,0.018845575887906307,0.008122024829185857,0.9813752151949483,1
1782115934.298103,0.410,1019.0,1020.0,1020.0,1019.0,1020.0,1020.0,1019.0,1020.0,1021.0,1020.0,1019.0,1019.0,1020.0,1020.0,1020.0,1020.0,1020.0,1019.0,1020.0,1020.0,1020.0,1020.0,1020.0,1021.0,1020.0,1019.0,1020.0,1020.0,1020.0,1020.0,1019.0,1021.0,1020.0,1019.0,1019.0,1020.0,1020.0,1020.0,1020.0,1020.0,1021.0,1020.0,1020.0,1020.0,1019.0,1020.0,1019.0,1021.0,1020.0,1021.0,1020.0,1019.0,1020.0,1021.0,1020.0,1020.0,1020.0,1020.0,1019.0,1021.0,1021.0,1020.0,1020.0,1021.0,1020.0,1021.0,1020.0,1021.0,1020.0,1022.0,1022.0,1021.0,1020.0,1021.0,1020.0,1020.0,1020.0,1021.0,1020.0,1022.0,1021.0,1020.0,1020.0,1020.0,1020.0,1020.0,1020.0,1020.0,1020.0,1021.0,1020.0,1019.0,1020.0,1020.0,1020.0,1020.0,1019.0,1020.0,1020.0,1020.0,1020.0,1018.0,1020.0,1020.0,1020.0,1019.0,1020.0,1020.0,1019.0,1021.0,1020.0,1018.0,1020.0,1021.0,1020.0,1020.0,1020.0,1021.0,1020.0,1022.0,1022.0,1020.0,1020.0,1020.0,1020.0,1021.0,1021.0,1020.0,1023.0,1020.0,1020.0,1020.0,1020.0,1020.0,1021.0,1019.0,1020.0,1020.0,1020.0,1020.0,1020.0,1021.0,1019.0,1020.0,1020.0,1020.0,1020.0,1020.0,1020.0,1019.0,1020.0,1020.0,1020.0,1020.0,1020.0,1020.0,1020.0,1020.0,1020.0,1020.0,1019.0,1020.0,1020.0,1020.0,1020.0,1019.0,1020.0,1020.0,1020.0,1020.0,1019.0,1019.0,1020.0,1019.0,1020.0,1020.0,1020.0,1020.0,1019.0,1019.0,1020.0,1020.0,1020.0,1020.0,1019.0,1020.0,1019.0,1020.0,1019.0,1020.0,1020.0,1020.0,1020.0,1020.0,1019.0,1019.0,1019.0,1020.0,1019.0,1020.0,1019.0,1019.0,1020.0,1020.0,1020.0,1020.0,1020.0,1020.0,1020.0,1020.0,1020.0,1020.0,1020.0,1020.0,1020.0,1020.0,1020.0,1020.0,1020.0,1020.0,1019.0,1020.0,1020.0,1020.0,1021.0,1019.0,1020.0,1048.0,1020.0,1020.0,1020.0,1020.0,1019.0,2426,2254,1898,	00:07:05.162,-0.01318359375,0.08203125,1.01513671875,2.01416015625,-0.48828125,1.15966796875,4.6087646484375,0.670166015625,31.3604736328125,723.0,-549.0,-4195.0,0.962066650390625,0.03717041015625,0.0164794921875,0.26983642578125,4.611213267576121,0.668277718006105,33.01619725432122,0.958053786950028,0.03691486539890918,0.017017947141821577,0.28369107052984394,1,	00:07:05.164,-0.001953125,0.0205078125,0.998046875,-0.48828125,3.173828125,0.3662109375,1.3128662109375,-1.8182373046875,156.62109375,724.0,521.0,-2037.0,0.202392578125,0.017852783203125,0.008026123046875,0.979095458984375,1.3150509413659028,-1.8189042516649065,157.95495839454628,0.1909793618886691,0.017772255925484915,0.00822811494576974,0.9813986592493159,1
1782115934.308859,0.421,1019.0,1020.0,1020.0,1020.0,1020.0,1020.0,1020.0,1020.0,1021.0,1019.0,1020.0,1020.0,1019.0,1019.0,1020.0,1019.0,1019.0,1019.0,1020.0,1020.0,1020.0,1020.0,1019.0,1021.0,1019.0,1019.0,1020.0,1019.0,1019.0,1020.0,1019.0,1021.0,1020.0,1019.0,1020.0,1020.0,1020.0,1020.0,1020.0,1020.0,1021.0,1020.0,1020.0,1019.0,1020.0,1019.0,1020.0,1021.0,1019.0,1021.0,1021.0,1019.0,1020.0,1020.0,1020.0,1020.0,1020.0,1021.0,1020.0,1021.0,1021.0,1019.0,1020.0,1019.0,1020.0,1019.0,1020.0,1021.0,1020.0,1022.0,1022.0,1020.0,1020.0,1019.0,1020.0,1020.0,1020.0,1020.0,1020.0,1021.0,1021.0,1019.0,1020.0,1019.0,1020.0,1020.0,1020.0,1021.0,1020.0,1021.0,1021.0,1019.0,1019.0,1020.0,1020.0,1019.0,1020.0,1021.0,1020.0,1020.0,1021.0,1019.0,1020.0,1020.0,1020.0,1020.0,1020.0,1021.0,1020.0,1021.0,1021.0,1019.0,1020.0,1020.0,1020.0,1020.0,1021.0,1021.0,1020.0,1022.0,1022.0,1020.0,1020.0,1020.0,1020.0,1020.0,1021.0,1020.0,1022.0,1020.0,1020.0,1020.0,1020.0,1019.0,1020.0,1020.0,1020.0,1020.0,1020.0,1019.0,1020.0,1021.0,1020.0,1020.0,1020.0,1020.0,1020.0,1020.0,1021.0,1020.0,1020.0,1020.0,1020.0,1020.0,1019.0,1020.0,1020.0,1020.0,1020.0,1020.0,1019.0,1020.0,1020.0,1020.0,1020.0,1019.0,1020.0,1020.0,1020.0,1020.0,1020.0,1020.0,1020.0,1019.0,1020.0,1020.0,1020.0,1020.0,1019.0,1020.0,1020.0,1019.0,1020.0,1020.0,1020.0,1020.0,1020.0,1020.0,1019.0,1020.0,1019.0,1019.0,1020.0,1020.0,1019.0,1020.0,1020.0,1020.0,1020.0,1020.0,1019.0,1020.0,1020.0,1020.0,1019.0,1020.0,1020.0,1019.0,1020.0,1020.0,1020.0,1020.0,1019.0,1020.0,1020.0,1021.0,1019.0,1020.0,1019.0,1019.0,1019.0,1020.0,1020.0,1020.0,1020.0,1019.0,1020.0,1048.0,1020.0,1020.0,1019.0,1019.0,1020.0,2426,2256,1898,	00:07:05.173,-0.0078125,0.0849609375,1.01611328125,1.64794921875,-0.9765625,0.732421875,4.68017578125,0.582275390625,31.365966796875,716.0,-550.0,-4189.0,0.962005615234375,0.037933349609375,0.01593017578125,0.2698974609375,4.681984711258479,0.5841161043442951,33.02329328523242,0.9580085557040855,0.03771420272696211,0.016491956644515242,0.2837697331930896,1,	00:07:05.174,0.029296875,0.01806640625,0.99658203125,-0.42724609375,3.11279296875,0.54931640625,1.23046875,-1.746826171875,156.6265869140625,725.0,520.0,-2037.0,0.20233154296875,0.01708984375,0.007415771484375,0.9791259765625,1.2282581685966274,-1.747616998853609,157.96372681000378,0.1909260657018206,0.017016525938508408,0.007605116425386537,0.9814274489154888,1
1782115934.318785,0.431,1019.0,1019.0,1019.0,1020.0,1020.0,1020.0,1020.0,1019.0,1021.0,1020.0,1019.0,1020.0,1020.0,1020.0,1020.0,1020.0,1020.0,1020.0,1019.0,1020.0,1019.0,1021.0,1020.0,1021.0,1020.0,1020.0,1020.0,1020.0,1020.0,1021.0,1019.0,1020.0,1021.0,1020.0,1020.0,1020.0,1020.0,1020.0,1020.0,1020.0,1020.0,1020.0,1020.0,1019.0,1020.0,1020.0,1020.0,1020.0,1020.0,1020.0,1021.0,1020.0,1020.0,1020.0,1020.0,1020.0,1020.0,1020.0,1020.0,1019.0,1021.0,1020.0,1020.0,1020.0,1020.0,1020.0,1020.0,1020.0,1020.0,1021.0,1022.0,1020.0,1020.0,1020.0,1019.0,1019.0,1020.0,1021.0,1020.0,1021.0,1021.0,1019.0,1020.0,1020.0,1019.0,1020.0,1020.0,1020.0,1020.0,1021.0,1021.0,1020.0,1020.0,1020.0,1019.0,1020.0,1019.0,1020.0,1019.0,1021.0,1020.0,1018.0,1020.0,1020.0,1020.0,1020.0,1020.0,1020.0,1020.0,1021.0,1021.0,1020.0,1020.0,1020.0,1019.0,1020.0,1021.0,1021.0,1020.0,1022.0,1022.0,1020.0,1019.0,1020.0,1020.0,1021.0,1021.0,1019.0,1023.0,1020.0,1020.0,1020.0,1020.0,1020.0,1020.0,1020.0,1021.0,1020.0,1020.0,1020.0,1020.0,1021.0,1020.0,1020.0,1020.0,1020.0,1020.0,1019.0,1020.0,1019.0,1020.0,1020.0,1020.0,1020.0,1019.0,1020.0,1020.0,1019.0,1020.0,1019.0,1019.0,1020.0,1020.0,1020.0,1019.0,1020.0,1019.0,1019.0,1020.0,1020.0,1020.0,1020.0,1020.0,1019.0,1020.0,1020.0,1019.0,1020.0,1019.0,1019.0,1020.0,1020.0,1019.0,1020.0,1019.0,1020.0,1020.0,1019.0,1020.0,1020.0,1020.0,1019.0,1020.0,1020.0,1020.0,1020.0,1020.0,1020.0,1020.0,1019.0,1019.0,1020.0,1019.0,1019.0,1020.0,1020.0,1019.0,1020.0,1020.0,1020.0,1020.0,1019.0,1020.0,1020.0,1020.0,1020.0,1019.0,1019.0,1020.0,1019.0,1020.0,1019.0,1021.0,1020.0,1021.0,1020.0,1020.0,1047.0,1019.0,1020.0,1021.0,1019.0,1019.0,2426,2258,1898,	00:07:05.183,-0.01171875,0.07763671875,1.0185546875,-0.3662109375,-1.77001953125,-0.18310546875,4.5867919921875,0.5877685546875,31.365966796875,723.0,-553.0,-4195.0,0.9620361328125,0.03717041015625,0.0157470703125,0.269866943359375,4.5891346285894485,0.5868024801520031,33.01911212010746,0.9580493057841024,0.036931877237505566,0.016283130289360882,0.2837471124052069,1,	00:07:05.184,0.0185546875,0.01513671875,1.01171875,-0.3662109375,2.62451171875,0.79345703125,1.1810302734375,-1.6424560546875,156.6375732421875,725.0,523.0,-2040.0,0.2022705078125,0.01611328125,0.0072021484375,0.979156494140625,1.181278680160789,-1.640674070472061,157.97349565517786,0.19086143678591982,0.01602174639240841,0.007382596234709974,0.981458462118182,1
1782115934.328881,0.441,1019.0,1019.0,1019.0,1019.0,1019.0,1019.0,1020.0,1019.0,1021.0,1020.0,1019.0,1019.0,1020.0,1020.0,1020.0,1019.0,1020.0,1020.0,1020.0,1020.0,1020.0,1020.0,1020.0,1022.0,1020.0,1019.0,1020.0,1020.0,1020.0,1020.0,1020.0,1021.0,1020.0,1020.0,1020.0,1020.0,1019.0,1020.0,1020.0,1020.0,1021.0,1020.0,1020.0,1019.0,1020.0,1019.0,1020.0,1020.0,1020.0,1021.0,1020.0,1019.0,1020.0,1019.0,1020.0,1020.0,1020.0,1020.0,1019.0,1021.0,1021.0,1020.0,1020.0,1020.0,1020.0,1020.0,1020.0,1020.0,1021.0,1022.0,1021.0,1020.0,1020.0,1020.0,1020.0,1020.0,1020.0,1020.0,1020.0,1021.0,1021.0,1019.0,1021.0,1020.0,1020.0,1019.0,1020.0,1020.0,1020.0,1021.0,1020.0,1020.0,1020.0,1020.0,1019.0,1020.0,1020.0,1020.0,1020.0,1021.0,1020.0,1019.0,1020.0,1020.0,1019.0,1019.0,1020.0,1020.0,1020.0,1021.0,1020.0,1019.0,1020.0,1020.0,1020.0,1020.0,1021.0,1021.0,1020.0,1022.0,1023.0,1021.0,1020.0,1020.0,1020.0,1020.0,1021.0,1020.0,1022.0,1020.0,1020.0,1020.0,1019.0,1020.0,1020.0,1019.0,1020.0,1020.0,1019.0,1019.0,1021.0,1020.0,1020.0,1020.0,1020.0,1020.0,1020.0,1020.0,1020.0,1019.0,1020.0,1020.0,1019.0,1020.0,1020.0,1020.0,1020.0,1020.0,1020.0,1020.0,1019.0,1019.0,1020.0,1020.0,1020.0,1019.0,1019.0,1020.0,1020.0,1019.0,1020.0,1020.0,1020.0,1020.0,1020.0,1020.0,1019.0,1020.0,1020.0,1019.0,1020.0,1020.0,1020.0,1020.0,1019.0,1020.0,1020.0,1020.0,1019.0,1020.0,1019.0,1019.0,1020.0,1020.0,1020.0,1019.0,1020.0,1020.0,1020.0,1020.0,1020.0,1020.0,1019.0,1020.0,1020.0,1020.0,1020.0,1020.0,1020.0,1020.0,1020.0,1020.0,1019.0,1020.0,1020.0,1020.0,1019.0,1019.0,1020.0,1020.0,1019.0,1020.0,1020.0,1020.0,1020.0,1020.0,1020.0,1046.0,1020.0,1020.0,1020.0,1019.0,1020.0,2426,2260,1898,	00:07:05.193,-0.01025390625,0.08154296875,1.01708984375,-1.40380859375,-2.13623046875,-0.42724609375,4.537353515625,0.4833984375,31.35498046875,712.0,-553.0,-4189.0,0.962066650390625,0.036956787109375,0.014739990234375,0.269866943359375,4.534940946975783,0.48350404430387683,33.01278186627131,0.9580762384530813,0.036735753869178066,0.01528335608773086,0.2837372459264966,1,	00:07:05.195,0.02392578125,0.013671875,1.0068359375,0.9765625,2.01416015625,1.15966796875,1.1151123046875,-1.571044921875,156.654052734375,724.0,523.0,-2034.0,0.202178955078125,0.015380859375,0.00677490234375,0.979217529296875,1.1153765963971864,-1.5685696784298613,157.98762551835853,0.19075729071177122,0.015293588055347493,0.006940312248351784,0.9814935528420925,1
1782115934.342043,0.454,1019.0,1019.0,1020.0,1019.0,1019.0,1020.0,1019.0,1020.0,1020.0,1020.0,1020.0,1020.0,1020.0,1020.0,1020.0,1020.0,1019.0,1019.0,1020.0,1019.0,1020.0,1020.0,1020.0,1020.0,1019.0,1020.0,1020.0,1020.0,1020.0,1020.0,1019.0,1020.0,1021.0,1020.0,1020.0,1020.0,1020.0,1020.0,1020.0,1020.0,1021.0,1021.0,1020.0,1020.0,1020.0,1019.0,1020.0,1021.0,1020.0,1020.0,1021.0,1019.0,1019.0,1020.0,1020.0,1019.0,1020.0,1020.0,1020.0,1021.0,1021.0,1019.0,1020.0,1020.0,1019.0,1019.0,1021.0,1020.0,1020.0,1021.0,1022.0,1020.0,1020.0,1020.0,1020.0,1019.0,1020.0,1020.0,1020.0,1021.0,1021.0,1020.0,1020.0,1019.0,1020.0,1019.0,1020.0,1020.0,1020.0,1020.0,1021.0,1020.0,1020.0,1020.0,1020.0,1019.0,1020.0,1020.0,1019.0,1020.0,1021.0,1018.0,1019.0,1020.0,1020.0,1020.0,1020.0,1020.0,1020.0,1020.0,1021.0,1019.0,1020.0,1020.0,1020.0,1019.0,1021.0,1020.0,1020.0,1022.0,1023.0,1021.0,1020.0,1020.0,1020.0,1021.0,1021.0,1020.0,1021.0,1020.0,1020.0,1020.0,1020.0,1020.0,1020.0,1019.0,1020.0,1020.0,1019.0,1019.0,1021.0,1020.0,1020.0,1021.0,1019.0,1020.0,1020.0,1020.0,1020.0,1020.0,1020.0,1019.0,1019.0,1019.0,1020.0,1020.0,1020.0,1020.0,1020.0,1019.0,1019.0,1019.0,1020.0,1020.0,1019.0,1019.0,1020.0,1020.0,1020.0,1020.0,1019.0,1019.0,1019.0,1020.0,1019.0,1020.0,1019.0,1019.0,1020.0,1019.0,1020.0,1020.0,1019.0,1019.0,1020.0,1020.0,1020.0,1019.0,1019.0,1019.0,1019.0,1019.0,1020.0,1019.0,1020.0,1019.0,1020.0,1020.0,1019.0,1020.0,1019.0,1019.0,1020.0,1019.0,1020.0,1020.0,1020.0,1020.0,1020.0,1020.0,1020.0,1020.0,1020.0,1020.0,1020.0,1020.0,1020.0,1019.0,1020.0,1020.0,1020.0,1020.0,1020.0,1019.0,1020.0,1020.0,1021.0,1047.0,1020.0,1020.0,1020.0,1020.0,1020.0,2425,2262,1897,	00:07:05.204,-0.00830078125,0.083984375,1.0166015625,-1.953125,-2.62451171875,-0.42724609375,4.6087646484375,0.450439453125,31.3494873046875,720.0,-551.0,-4196.0,0.962066650390625,0.037628173828125,0.014617919921875,0.26983642578125,4.606368152482772,0.44931194506150857,33.007194520245626,0.9580647444025421,0.0374184292577937,0.01517254964553809,0.2836927923335823,1,	00:07:05.205,0.0244140625,0.01806640625,1.005859375,0.06103515625,1.5869140625,1.52587890625,1.07666015625,-1.47216796875,156.6705322265625,725.0,520.0,-2041.0,0.202056884765625,0.01446533203125,0.006591796875,0.979248046875,1.0756356679994497,-1.4705250535599121,158.00425545864297,0.19063019014861693,0.014386717741877374,0.0067654428567029265,0.9815331791332733,1
1782115934.350187,0.462,1018.0,1019.0,1019.0,1020.0,1019.0,1019.0,1019.0,1019.0,1020.0,1019.0,1019.0,1019.0,1020.0,1020.0,1020.0,1020.0,1020.0,1020.0,1020.0,1020.0,1020.0,1020.0,1019.0,1020.0,1019.0,1019.0,1020.0,1020.0,1020.0,1019.0,1020.0,1020.0,1021.0,1020.0,1020.0,1020.0,1019.0,1020.0,1020.0,1020.0,1020.0,1021.0,1020.0,1019.0,1020.0,1020.0,1020.0,1019.0,1020.0,1020.0,1021.0,1020.0,1020.0,1020.0,1020.0,1019.0,1020.0,1020.0,1020.0,1020.0,1021.0,1019.0,1019.0,1020.0,1020.0,1019.0,1020.0,1020.0,1020.0,1021.0,1022.0,1020.0,1019.0,1020.0,1020.0,1020.0,1020.0,1020.0,1020.0,1020.0,1021.0,1020.0,1019.0,1020.0,1019.0,1019.0,1020.0,1020.0,1020.0,1020.0,1021.0,1019.0,1019.0,1020.0,1020.0,1020.0,1020.0,1020.0,1020.0,1021.0,1021.0,1020.0,1020.0,1020.0,1020.0,1019.0,1020.0,1020.0,1020.0,1020.0,1021.0,1020.0,1021.0,1020.0,1019.0,1020.0,1021.0,1020.0,1020.0,1021.0,1023.0,1020.0,1020.0,1020.0,1019.0,1021.0,1020.0,1020.0,1021.0,1020.0,1020.0,1020.0,1020.0,1020.0,1020.0,1019.0,1020.0,1020.0,1020.0,1020.0,1021.0,1020.0,1020.0,1020.0,1020.0,1020.0,1020.0,1020.0,1021.0,1020.0,1021.0,1020.0,1020.0,1020.0,1020.0,1020.0,1021.0,1020.0,1019.0,1020.0,1019.0,1019.0,1021.0,1019.0,1020.0,1019.0,1020.0,1020.0,1020.0,1020.0,1020.0,1019.0,1021.0,1020.0,1020.0,1020.0,1020.0,1020.0,1020.0,1019.0,1020.0,1020.0,1020.0,1020.0,1020.0,1019.0,1019.0,1020.0,1020.0,1020.0,1020.0,1019.0,1021.0,1020.0,1020.0,1019.0,1021.0,1020.0,1021.0,1019.0,1020.0,1020.0,1021.0,1020.0,1020.0,1019.0,1020.0,1020.0,1021.0,1020.0,1020.0,1020.0,1019.0,1019.0,1021.0,1020.0,1020.0,1019.0,1019.0,1020.0,1021.0,1019.0,1020.0,1020.0,1020.0,1019.0,1021.0,1047.0,1020.0,1020.0,1019.0,1019.0,1020.0,2425,2264,1898,	00:07:05.214,-0.00830078125,0.0849609375,1.01708984375,-2.685546875,-2.86865234375,-0.67138671875,4.669189453125,0.428466796875,31.343994140625,711.0,-551.0,-4190.0,0.962066650390625,0.0382080078125,0.014617919921875,0.269744873046875,4.670375525823548,0.43024874225843257,32.99890126341404,0.958062909102914,0.03800191078155281,0.015168896044234926,0.28362161689654725,1,	00:07:05.215,0.02001953125,0.01953125,1.01123046875,0.91552734375,0.8544921875,1.708984375,1.0931396484375,-1.373291015625,156.68701171875,726.0,519.0,-2037.0,0.201904296875,0.013641357421875,0.006927490234375,0.979278564453125,1.092730852481606,-1.3710384809530034,158.0213084288731,0.19049215086451868,0.01356198765152656,0.007079595955115065,0.9815695045543447,1
1782115934.358795,0.471,1019.0,1019.0,1020.0,1019.0,1019.0,1019.0,1019.0,1020.0,1021.0,1020.0,1019.0,1020.0,1019.0,1020.0,1020.0,1020.0,1020.0,1020.0,1020.0,1019.0,1020.0,1020.0,1020.0,1020.0,1020.0,1020.0,1020.0,1020.0,1020.0,1020.0,1020.0,1020.0,1020.0,1021.0,1020.0,1020.0,1019.0,1020.0,1020.0,1020.0,1020.0,1021.0,1020.0,1020.0,1020.0,1020.0,1020.0,1020.0,1020.0,1020.0,1021.0,1019.0,1020.0,1019.0,1020.0,1020.0,1020.0,1020.0,1020.0,1021.0,1021.0,1020.0,1020.0,1019.0,1020.0,1020.0,1020.0,1020.0,1020.0,1021.0,1021.0,1020.0,1020.0,1020.0,1019.0,1020.0,1020.0,1020.0,1020.0,1021.0,1021.0,1019.0,1020.0,1019.0,1020.0,1020.0,1020.0,1020.0,1020.0,1020.0,1021.0,1019.0,1020.0,1020.0,1020.0,1020.0,1020.0,1020.0,1020.0,1020.0,1021.0,1019.0,1020.0,1019.0,1020.0,1019.0,1020.0,1019.0,1021.0,1020.0,1021.0,1019.0,1020.0,1020.0,1020.0,1020.0,1022.0,1020.0,1021.0,1021.0,1022.0,1020.0,1020.0,1020.0,1020.0,1021.0,1020.0,1021.0,1021.0,1020.0,1019.0,1020.0,1019.0,1020.0,1020.0,1020.0,1020.0,1019.0,1020.0,1020.0,1021.0,1021.0,1021.0,1020.0,1019.0,1020.0,1020.0,1020.0,1020.0,1021.0,1020.0,1020.0,1020.0,1020.0,1020.0,1020.0,1020.0,1020.0,1020.0,1019.0,1020.0,1019.0,1020.0,1020.0,1019.0,1019.0,1020.0,1020.0,1020.0,1020.0,1019.0,1020.0,1020.0,1020.0,1020.0,1020.0,1020.0,1019.0,1019.0,1019.0,1020.0,1020.0,1020.0,1019.0,1020.0,1020.0,1019.0,1020.0,1020.0,1020.0,1020.0,1019.0,1020.0,1020.0,1020.0,1020.0,1020.0,1020.0,1020.0,1020.0,1020.0,1020.0,1021.0,1019.0,1020.0,1020.0,1019.0,1020.0,1020.0,1020.0,1020.0,1019.0,1020.0,1020.0,1021.0,1020.0,1020.0,1019.0,1020.0,1020.0,1021.0,1019.0,1021.0,1020.0,1020.0,1020.0,1022.0,1047.0,1020.0,1020.0,1020.0,1020.0,1021.0,2424,2265,1897,	00:07:05.224,-0.0087890625,0.08544921875,1.01708984375,-4.0283203125,-2.86865234375,-0.67138671875,4.713134765625,0.439453125,31.3330078125,719.0,-549.0,-4201.0,0.962066650390625,0.038543701171875,0.014801025390625,0.269683837890625,4.712481371314282,0.441647072065393,32.99049759151817,0.9580704761436024,0.038326827805627316,0.015365586605454926,0.2835417354828019,1,	00:07:05.225,0.01904296875,0.02197265625,1.01025390625,0.42724609375,-0.42724609375,1.64794921875,1.1370849609375,-1.29638671875,156.7034912109375,724.0,518.0,-2044.0,0.2017822265625,0.0130615234375,0.0074462890625,0.97930908203125,1.1392904451128125,-1.294493852353859,158.03671820807642,0.19036262505827645,0.012982724849947369,0.007607557080350358,0.981598515133179,1
1782115934.369916,0.482,1019.0,1019.0,1019.0,1019.0,1020.0,1019.0,1020.0,1020.0,1020.0,1020.0,1020.0,1020.0,1020.0,1020.0,1019.0,1021.0,1020.0,1020.0,1020.0,1019.0,1020.0,1020.0,1021.0,1020.0,1020.0,1020.0,1019.0,1020.0,1020.0,1019.0,1020.0,1020.0,1021.0,1020.0,1020.0,1019.0,1020.0,1020.0,1020.0,1021.0,1020.0,1021.0,1020.0,1020.0,1020.0,1019.0,1020.0,1019.0,1020.0,1020.0,1021.0,1019.0,1020.0,1019.0,1020.0,1019.0,1020.0,1019.0,1021.0,1020.0,1021.0,1019.0,1020.0,1020.0,1020.0,1020.0,1021.0,1020.0,1021.0,1020.0,1022.0,1020.0,1020.0,1019.0,1020.0,1021.0,1020.0,1020.0,1020.0,1021.0,1022.0,1020.0,1020.0,1020.0,1019.0,1019.0,1020.0,1020.0,1020.0,1020.0,1021.0,1019.0,1020.0,1019.0,1020.0,1019.0,1020.0,1019.0,1021.0,1020.0,1021.0,1019.0,1020.0,1020.0,1019.0,1020.0,1020.0,1019.0,1020.0,1020.0,1020.0,1019.0,1020.0,1020.0,1020.0,1020.0,1022.0,1020.0,1021.0,1021.0,1023.0,1020.0,1020.0,1020.0,1020.0,1021.0,1020.0,1021.0,1020.0,1020.0,1019.0,1020.0,1020.0,1020.0,1019.0,1021.0,1021.0,1020.0,1020.0,1020.0,1021.0,1020.0,1021.0,1021.0,1020.0,1019.0,1020.0,1020.0,1020.0,1021.0,1020.0,1020.0,1019.0,1020.0,1021.0,1020.0,1020.0,1019.0,1019.0,1020.0,1020.0,1019.0,1020.0,1020.0,1020.0,1020.0,1020.0,1020.0,1020.0,1020.0,1020.0,1020.0,1020.0,1020.0,1020.0,1019.0,1020.0,1020.0,1020.0,1019.0,1021.0,1020.0,1020.0,1020.0,1021.0,1019.0,1021.0,1019.0,1020.0,1020.0,1020.0,1019.0,1021.0,1020.0,1020.0,1020.0,1021.0,1020.0,1020.0,1020.0,1020.0,1020.0,1021.0,1020.0,1021.0,1020.0,1021.0,1020.0,1020.0,1020.0,1020.0,1020.0,1020.0,1020.0,1020.0,1020.0,1020.0,1020.0,1020.0,1020.0,1020.0,1020.0,1020.0,1020.0,1020.0,1020.0,1020.0,1047.0,1020.0,1020.0,1020.0,1020.0,1020.0,2423,2267,1897,	00:07:05.234,-0.0078125,0.08349609375,1.01708984375,-5.126953125,-2.44140625,-0.79345703125,4.5703125,0.406494140625,31.322021484375,704.0,-550.0,-4194.0,0.962127685546875,0.037445068359375,0.01416015625,0.269622802734375,4.570855622205569,0.4038671703181735,32.979933975522925,0.9581406827000808,0.03723764009771787,0.014695852562211915,0.28348513582275503,1,	00:07:05.235,0.021484375,0.02294921875,1.0107421875,-0.18310546875,-2.197265625,1.64794921875,1.219482421875,-1.2799072265625,156.7144775390625,723.0,518.0,-2040.0,0.20166015625,0.0130615234375,0.0081787109375,0.979339599609375,1.2198324551311812,-1.2772781908156428,158.05090454602745,0.19023382194690316,0.012968026485118741,0.008327721696082487,0.9816178341533469,1
1782115934.380054,0.492,1019.0,1020.0,1019.0,1019.0,1020.0,1019.0,1019.0,1020.0,1020.0,1020.0,1020.0,1019.0,1020.0,1020.0,1020.0,1020.0,1020.0,1020.0,1020.0,1019.0,1020.0,1020.0,1020.0,1021.0,1020.0,1019.0,1019.0,1020.0,1020.0,1020.0,1020.0,1020.0,1020.0,1020.0,1019.0,1020.0,1020.0,1020.0,1020.0,1020.0,1021.0,1021.0,1020.0,1020.0,1020.0,1020.0,1020.0,1020.0,1020.0,1020.0,1020.0,1019.0,1020.0,1020.0,1020.0,1019.0,1020.0,1020.0,1020.0,1020.0,1020.0,1019.0,1020.0,1020.0,1020.0,1020.0,1021.0,1019.0,1020.0,1021.0,1022.0,1020.0,1020.0,1020.0,1020.0,1020.0,1020.0,1020.0,1021.0,1020.0,1021.0,1020.0,1020.0,1020.0,1020.0,1020.0,1020.0,1019.0,1021.0,1020.0,1021.0,1019.0,1020.0,1020.0,1020.0,1019.0,1020.0,1019.0,1020.0,1020.0,1020.0,1019.0,1020.0,1019.0,1020.0,1020.0,1020.0,1019.0,1020.0,1020.0,1021.0,1019.0,1020.0,1020.0,1020.0,1021.0,1021.0,1021.0,1020.0,1022.0,1023.0,1020.0,1020.0,1020.0,1019.0,1021.0,1021.0,1021.0,1021.0,1020.0,1019.0,1020.0,1019.0,1020.0,1020.0,1020.0,1020.0,1020.0,1020.0,1020.0,1021.0,1020.0,1021.0,1020.0,1020.0,1020.0,1020.0,1021.0,1020.0,1021.0,1020.0,1019.0,1020.0,1020.0,1021.0,1020.0,1020.0,1020.0,1020.0,1019.0,1020.0,1019.0,1020.0,1020.0,1020.0,1020.0,1020.0,1021.0,1020.0,1020.0,1020.0,1020.0,1020.0,1020.0,1020.0,1020.0,1020.0,1020.0,1020.0,1019.0,1021.0,1020.0,1020.0,1019.0,1020.0,1021.0,1020.0,1019.0,1020.0,1020.0,1020.0,1019.0,1020.0,1020.0,1020.0,1020.0,1020.0,1021.0,1020.0,1020.0,1020.0,1020.0,1020.0,1020.0,1020.0,1020.0,1020.0,1020.0,1021.0,1021.0,1020.0,1020.0,1020.0,1020.0,1021.0,1021.0,1020.0,1020.0,1019.0,1020.0,1020.0,1020.0,1021.0,1020.0,1021.0,1020.0,1021.0,1048.0,1020.0,1020.0,1020.0,1020.0,1021.0,2422,2269,1897,	00:07:05.245,-0.00732421875,0.08056640625,1.0185546875,-6.2255859375,-2.197265625,-0.79345703125,4.41650390625,0.3955078125,31.3165283203125,714.0,-547.0,-4202.0,0.96221923828125,0.03619384765625,0.01373291015625,0.269561767578125,4.418030902582774,0.39542154458099915,32.96964613024744,0.9582143813671307,0.035981978545967436,0.014243925256074172,0.2834212538861968,1,	00:07:05.246,0.025390625,0.02099609375,1.01953125,-1.77001953125,-4.2724609375,1.28173828125,1.175537109375,-1.40625,156.73095703125,722.0,514.0,-2045.0,0.2015380859375,0.01409912109375,0.007598876953125,0.979339599609375,1.1780601194463762,-1.4087812337318346,158.06339089064983,0.1901174341496443,0.014024264660744697,0.007752840408065657,0.981630569358294,1
1782115934.390834,0.503,1019.0,1020.0,1019.0,1019.0,1019.0,1020.0,1019.0,1020.0,1020.0,1020.0,1020.0,1020.0,1020.0,1020.0,1019.0,1020.0,1020.0,1020.0,1020.0,1020.0,1020.0,1019.0,1020.0,1020.0,1020.0,1019.0,1020.0,1020.0,1020.0,1019.0,1020.0,1020.0,1020.0,1020.0,1020.0,1020.0,1020.0,1020.0,1019.0,1020.0,1020.0,1021.0,1020.0,1020.0,1020.0,1019.0,1020.0,1020.0,1020.0,1020.0,1020.0,1019.0,1020.0,1020.0,1020.0,1019.0,1020.0,1019.0,1020.0,1020.0,1020.0,1019.0,1020.0,1019.0,1020.0,1019.0,1020.0,1020.0,1021.0,1021.0,1022.0,1021.0,1020.0,1020.0,1020.0,1019.0,1020.0,1020.0,1020.0,1020.0,1021.0,1020.0,1019.0,1019.0,1020.0,1020.0,1020.0,1019.0,1020.0,1020.0,1021.0,1018.0,1019.0,1019.0,1020.0,1020.0,1021.0,1020.0,1021.0,1020.0,1021.0,1019.0,1020.0,1019.0,1020.0,1020.0,1020.0,1020.0,1020.0,1019.0,1021.0,1019.0,1020.0,1020.0,1020.0,1020.0,1022.0,1020.0,1021.0,1021.0,1023.0,1020.0,1020.0,1020.0,1020.0,1021.0,1021.0,1020.0,1021.0,1020.0,1019.0,1020.0,1020.0,1021.0,1020.0,1020.0,1020.0,1020.0,1020.0,1020.0,1021.0,1020.0,1020.0,1020.0,1020.0,1019.0,1020.0,1021.0,1020.0,1020.0,1020.0,1020.0,1020.0,1020.0,1022.0,1020.0,1020.0,1019.0,1020.0,1020.0,1020.0,1019.0,1020.0,1020.0,1020.0,1020.0,1022.0,1020.0,1020.0,1020.0,1019.0,1019.0,1021.0,1020.0,1020.0,1020.0,1020.0,1020.0,1020.0,1019.0,1020.0,1020.0,1021.0,1020.0,1022.0,1020.0,1020.0,1019.0,1020.0,1020.0,1021.0,1020.0,1021.0,1020.0,1021.0,1020.0,1021.0,1021.0,1020.0,1020.0,1021.0,1020.0,1021.0,1020.0,1020.0,1021.0,1021.0,1020.0,1023.0,1021.0,1020.0,1020.0,1020.0,1020.0,1022.0,1020.0,1020.0,1020.0,1020.0,1020.0,1023.0,1021.0,1021.0,1020.0,1021.0,1021.0,1023.0,1047.0,1020.0,1019.0,1020.0,1020.0,1022.0,2420,2270,1897,	00:07:05.255,-0.02001953125,0.08544921875,1.015625,-6.65283203125,-1.5869140625,-0.54931640625,4.39453125,0.46142578125,31.3055419921875,699.0,-544.0,-4201.0,0.962249755859375,0.03582763671875,0.01422119140625,0.26947021484375,4.39471757988323,0.46074824258389,32.963232167432366,0.9582417049517495,0.03562613066317992,0.014730490403525956,0.28334894804393723,1,	00:07:05.256,0.03271484375,0.02099609375,1.02197265625,-1.52587890625,-4.08935546875,1.15966796875,1.16455078125,-1.5435791015625,156.741943359375,719.0,516.0,-2040.0,0.201446533203125,0.015228271484375,0.007232666015625,0.9793701171875,1.162286136430025,-1.5415458019489563,158.07417184723295,0.19001263656162173,0.015134641502537644,0.007398579915980748,0.9816371027975244,1
