Unix_Time_s,EMG_t_s,sample_idx,fs,gain,flags,emg_valid,ch1_raw_uV,ch1_filt_uV,ch1_env_uV,ch2_raw_uV,ch2_filt_uV,ch2_env_uV
1782117429.386720,0.000000,1873920,1000,12,0,1,466.145,3.113,9.704,566.143,-0.489,0.991
1782117429.387720,0.001000,1873921,1000,12,0,1,462.662,2.615,9.584,564.990,-1.685,1.020
1782117429.388720,0.002000,1873922,1000,12,0,1,459.636,0.783,9.437,565.615,-1.108,1.030
1782117429.389720,0.003000,1873923,1000,12,0,1,458.026,1.069,9.194,566.143,-0.365,1.006
1782117429.390720,0.004000,1873924,1000,12,0,1,460.909,4.247,8.752,565.158,-1.100,1.013
1782117429.391720,0.005000,1873925,1000,12,0,1,463.935,7.424,8.223,563.477,-2.535,1.062
1782117429.392720,0.006000,1873926,1000,12,0,1,469.268,10.562,8.338,563.885,-2.093,1.075
1782117429.393720,0.007000,1873927,1000,12,0,1,466.674,7.406,8.333,564.534,-0.907,1.063
1782117429.394720,0.008000,1873928,1000,12,0,1,465.905,2.514,8.318,563.717,-1.325,1.073
1782117429.395720,0.009000,1873929,1000,12,0,1,464.199,-0.197,8.318,564.270,-0.871,1.059
1782117429.396720,0.010000,1873930,1000,12,0,1,458.074,-7.904,8.369,564.702,0.094,1.057
1782117429.397720,0.011000,1873931,1000,12,0,1,451.901,-14.648,8.619,566.023,1.011,1.065
1782117429.398720,0.012000,1873932,1000,12,0,1,447.001,-18.526,8.972,566.480,1.823,1.088
1782117429.399720,0.013000,1873933,1000,12,0,1,443.518,-20.435,9.387,566.287,1.240,1.087
1782117429.400720,0.014000,1873934,1000,12,0,1,448.394,-14.443,9.572,566.600,1.437,1.106
1782117429.401720,0.015000,1873935,1000,12,0,1,462.110,-0.413,9.564,566.191,1.039,1.113
1782117429.402720,0.016000,1873936,1000,12,0,1,476.282,13.565,9.754,565.903,0.509,1.114
1782117429.403720,0.017000,1873937,1000,12,0,1,477.075,14.649,9.967,566.720,1.156,1.126
1782117429.404720,0.018000,1873938,1000,12,0,1,462.662,1.376,9.892,564.966,-0.096,1.126
1782117429.405720,0.019000,1873939,1000,12,0,1,455.168,-6.474,9.662,565.399,-0.435,1.122
1782117429.406720,0.020000,1873940,1000,12,0,1,453.702,-4.047,9.207,566.191,0.886,1.126
1782117429.407720,0.021000,1873941,1000,12,0,1,453.967,-1.661,8.923,564.582,-0.639,1.129
1782117429.408720,0.022000,1873942,1000,12,0,1,455.768,2.748,8.595,564.390,-1.096,1.140
1782117429.409720,0.023000,1873943,1000,12,0,1,451.493,1.426,8.194,567.272,1.483,1.141
1782117429.410720,0.024000,1873944,1000,12,0,1,445.007,-3.489,8.076,565.519,0.590,1.124
1782117429.411720,0.025000,1873945,1000,12,0,1,446.520,-1.336,8.057,563.021,-2.447,1.171
1782117429.412720,0.026000,1873946,1000,12,0,1,456.225,7.800,7.889,563.429,-1.796,1.163
1782117429.413720,0.027000,1873947,1000,12,0,1,465.737,15.739,7.837,562.228,-2.137,1.179
1782117429.414720,0.028000,1873948,1000,12,0,1,473.904,19.506,8.084,564.198,-0.894,1.183
1782117429.415720,0.029000,1873949,1000,12,0,1,474.312,16.577,8.411,565.206,1.157,1.194
1782117429.416720,0.030000,1873950,1000,12,0,1,461.581,1.276,8.402,565.927,1.022,1.202
1782117429.417720,0.031000,1873951,1000,12,0,1,447.433,-14.785,8.656,563.837,-0.064,1.178
1782117429.418720,0.032000,1873952,1000,12,0,1,436.888,-23.897,9.283,565.951,0.486,1.179
1782117429.419720,0.033000,1873953,1000,12,0,1,428.265,-29.302,10.117,565.038,1.198,1.177
1782117429.420720,0.034000,1873954,1000,12,0,1,421.875,-30.905,11.013,564.990,-0.249,1.176
1782117429.421720,0.035000,1873955,1000,12,0,1,434.054,-17.413,11.277,565.399,0.966,1.171
1782117429.422720,0.036000,1873956,1000,12,0,1,448.490,1.765,11.234,565.158,0.349,1.152
1782117429.423720,0.037000,1873957,1000,12,0,1,453.414,7.711,11.234,565.014,0.283,1.127
1782117429.424720,0.038000,1873958,1000,12,0,1,463.695,16.186,11.455,562.876,-1.215,1.138
1782117429.425720,0.039000,1873959,1000,12,0,1,472.102,24.458,11.964,562.468,-2.049,1.158
1782117429.426720,0.040000,1873960,1000,12,0,1,482.575,30.065,12.674,565.663,1.294,1.172
1782117429.427720,0.041000,1873961,1000,12,0,1,492.664,36.856,13.681,565.206,1.374,1.188
1782117429.428720,0.042000,1873962,1000,12,0,1,489.637,30.282,14.336,563.165,-0.870,1.194
1782117429.429720,0.043000,1873963,1000,12,0,1,485.121,20.496,14.587,563.741,-0.539,1.189
1782117429.430720,0.044000,1873964,1000,12,0,1,494.538,23.762,14.907,563.597,-0.096,1.177
1782117429.431720,0.045000,1873965,1000,12,0,1,498.861,25.265,15.329,562.997,-0.892,1.174
1782117429.432720,0.046000,1873966,1000,12,0,1,494.442,15.414,15.429,564.438,0.435,1.172
1782117429.433720,0.047000,1873967,1000,12,0,1,492.496,8.538,15.437,563.717,0.231,1.172
1782117429.434720,0.048000,1873968,1000,12,0,1,493.625,5.510,15.455,565.086,0.657,1.163
1782117429.435720,0.049000,1873969,1000,12,0,1,489.373,-1.217,15.450,564.870,1.206,1.171
1782117429.436720,0.050000,1873970,1000,12,0,1,487.331,-7.142,15.477,564.726,0.211,1.170
1782117429.437720,0.051000,1873971,1000,12,0,1,489.854,-6.918,15.503,563.645,-0.222,1.146
1782117429.438720,0.052000,1873972,1000,12,0,1,488.677,-9.225,15.558,564.630,-0.042,1.135
1782117429.439720,0.053000,1873973,1000,12,0,1,477.555,-19.723,15.805,567.464,2.745,1.198
1782117429.440720,0.054000,1873974,1000,12,0,1,462.614,-32.720,16.458,565.134,1.042,1.197
1782117429.441720,0.055000,1873975,1000,12,0,1,458.867,-34.469,17.132,563.669,-1.376,1.159
1782117429.442720,0.056000,1873976,1000,12,0,1,462.062,-26.506,17.474,564.534,-0.021,1.120
1782117429.443720,0.057000,1873977,1000,12,0,1,462.230,-21.979,17.717,563.093,-1.085,1.124
1782117429.444720,0.058000,1873978,1000,12,0,1,459.780,-20.150,17.941,561.940,-2.102,1.147
1782117429.445720,0.059000,1873979,1000,12,0,1,460.188,-16.347,18.090,564.149,-0.074,1.140
1782117429.446720,0.060000,1873980,1000,12,0,1,451.733,-18.084,18.235,564.198,0.795,1.146
1782117429.447720,0.061000,1873981,1000,12,0,1,453.414,-15.405,18.248,563.501,-0.329,1.138
1782117429.448720,0.062000,1873982,1000,12,0,1,449.643,-10.990,18.125,565.903,1.671,1.133
1782117429.449720,0.063000,1873983,1000,12,0,1,449.643,-10.433,17.954,565.903,2.072,1.157
1782117429.450720,0.064000,1873984,1000,12,0,1,475.153,13.953,17.947,563.741,-0.465,1.141
1782117429.451720,0.065000,1873985,1000,12,0,1,476.546,20.860,18.187,563.741,-0.724,1.136
1782117429.452720,0.066000,1873986,1000,12,0,1,476.810,13.442,18.186,561.964,-1.737,1.160
1782117429.453720,0.067000,1873987,1000,12,0,1,472.871,12.511,18.154,563.549,-1.057,1.158
1782117429.454720,0.068000,1873988,1000,12,0,1,463.215,-0.489,18.153,562.060,-0.937,1.166
1782117429.455720,0.069000,1873989,1000,12,0,1,453.606,-7.893,18.164,564.822,0.005,1.164
1782117429.456720,0.070000,1873990,1000,12,0,1,455.456,-7.633,18.187,565.062,1.918,1.189
1782117429.457720,0.071000,1873991,1000,12,0,1,458.170,-2.183,18.188,565.975,1.112,1.196
1782117429.458720,0.072000,1873992,1000,12,0,1,454.976,-4.478,18.195,562.924,-0.320,1.187
1782117429.459720,0.073000,1873993,1000,12,0,1,451.661,-6.942,18.220,563.189,-1.640,1.191
1782117429.460720,0.074000,1873994,1000,12,0,1,456.849,-1.575,18.215,564.750,0.934,1.195
1782117429.461720,0.075000,1873995,1000,12,0,1,462.782,5.115,18.228,562.876,-0.684,1.148
1782117429.462720,0.076000,1873996,1000,12,0,1,466.361,8.474,18.234,564.294,-0.131,1.120
1782117429.463720,0.077000,1873997,1000,12,0,1,474.889,14.255,18.210,563.693,0.645,1.082
1782117429.464720,0.078000,1873998,1000,12,0,1,471.478,12.671,18.089,562.876,-1.102,1.086
1782117429.465720,0.079000,1873999,1000,12,0,1,464.776,3.149,17.942,565.302,1.562,1.096
1782117429.466720,0.080000,1874000,1000,12,0,1,459.876,0.015,17.941,567.632,3.363,1.186
1782117429.467720,0.081000,1874001,1000,12,0,1,454.375,-4.719,17.831,564.918,1.289,1.200
1782117429.468720,0.082000,1874002,1000,12,0,1,453.823,-3.993,17.517,564.822,-0.273,1.199
1782117429.469720,0.083000,1874003,1000,12,0,1,451.372,-3.630,17.027,563.549,-0.345,1.187
1782117429.470720,0.084000,1874004,1000,12,0,1,443.398,-9.058,16.507,564.077,-0.950,1.195
1782117429.471720,0.085000,1874005,1000,12,0,1,438.041,-12.057,16.411,566.239,1.559,1.207
1782117429.472720,0.086000,1874006,1000,12,0,1,441.716,-6.906,16.438,563.429,-0.678,1.210
1782117429.473720,0.087000,1874007,1000,12,0,1,440.371,-4.265,16.413,564.246,-1.186,1.221
1782117429.474720,0.088000,1874008,1000,12,0,1,438.521,-5.913,16.274,564.198,0.096,1.209
1782117429.475720,0.089000,1874009,1000,12,0,1,445.920,1.627,15.904,563.789,-1.214,1.186
1782117429.476720,0.090000,1874010,1000,12,0,1,455.744,10.807,15.401,563.861,-0.459,1.173
1782117429.477720,0.091000,1874011,1000,12,0,1,465.737,17.846,14.710,563.885,-0.729,1.162
1782117429.478720,0.092000,1874012,1000,12,0,1,471.958,21.069,14.385,563.405,-0.763,1.160
1782117429.479720,0.093000,1874013,1000,12,0,1,480.197,23.343,14.471,562.900,-1.235,1.171
1782117429.480720,0.094000,1874014,1000,12,0,1,494.057,30.985,14.742,564.101,-0.135,1.171
1782117429.481720,0.095000,1874015,1000,12,0,1,505.947,36.066,15.185,564.774,0.889,1.171
1782117429.482720,0.096000,1874016,1000,12,0,1,501.864,27.342,15.517,564.678,0.548,1.172
1782117429.483720,0.097000,1874017,1000,12,0,1,490.622,10.534,15.542,563.909,0.048,1.172
1782117429.484720,0.098000,1874018,1000,12,0,1,479.789,-2.009,15.525,562.540,-1.250,1.181
1782117429.485720,0.099000,1874019,1000,12,0,1,466.505,-14.215,15.653,561.219,-2.116,1.206
1782117429.486720,0.100000,1874020,1000,12,0,1,451.565,-25.725,16.039,563.381,-0.362,1.207
1782117429.487720,0.101000,1874021,1000,12,0,1,443.710,-29.473,16.543,563.501,0.777,1.212
1782117429.488720,0.102000,1874022,1000,12,0,1,442.797,-24.965,16.865,562.108,-0.924,1.219
1782117429.489720,0.103000,1874023,1000,12,0,1,443.085,-19.395,16.857,562.660,-0.316,1.156
1782117429.490720,0.104000,1874024,1000,12,0,1,448.682,-11.176,16.287,563.837,0.904,1.154
1782117429.491720,0.105000,1874025,1000,12,0,1,459.251,1.037,15.541,563.837,0.938,1.145
1782117429.492720,0.106000,1874026,1000,12,0,1,455.384,0.234,15.082,564.870,1.456,1.163
1782117429.493720,0.107000,1874027,1000,12,0,1,451.565,-5.524,14.779,565.783,2.227,1.195
1782117429.494720,0.108000,1874028,1000,12,0,1,454.976,-1.833,14.504,563.573,0.229,1.158
1782117429.495720,0.109000,1874029,1000,12,0,1,459.299,1.432,14.320,565.327,0.653,1.162
1782117429.496720,0.110000,1874030,1000,12,0,1,464.896,4.993,14.107,563.213,0.115,1.157
1782117429.497720,0.111000,1874031,1000,12,0,1,468.043,6.467,13.968,562.900,-1.698,1.180
1782117429.498720,0.112000,1874032,1000,12,0,1,469.100,4.815,13.898,561.988,-1.066,1.166
1782117429.499720,0.113000,1874033,1000,12,0,1,471.502,4.972,13.837,563.573,-0.636,1.132
1782117429.500720,0.114000,1874034,1000,12,0,1,467.106,0.451,13.696,562.900,0.150,1.131
1782117429.501720,0.115000,1874035,1000,12,0,1,453.246,-11.977,13.481,560.522,-2.467,1.179
1782117429.502720,0.116000,1874036,1000,12,0,1,439.891,-22.687,13.727,563.525,0.044,1.153
1782117429.503720,0.117000,1874037,1000,12,0,1,453.270,-9.955,13.685,561.675,0.046,1.143
1782117429.504720,0.118000,1874038,1000,12,0,1,461.990,5.283,13.705,562.780,-0.691,1.140
1782117429.505720,0.119000,1874039,1000,12,0,1,460.428,3.507,13.668,561.555,0.245,1.140
1782117429.506720,0.120000,1874040,1000,12,0,1,461.629,5.950,13.652,562.756,-0.415,1.109
1782117429.507720,0.121000,1874041,1000,12,0,1,464.872,9.423,13.713,563.837,2.004,1.134
1782117429.508720,0.122000,1874042,1000,12,0,1,461.966,7.841,13.743,563.333,0.669,1.137
1782117429.509720,0.123000,1874043,1000,12,0,1,465.713,9.250,13.771,562.204,-0.077,1.113
1782117429.510720,0.124000,1874044,1000,12,0,1,471.670,14.781,13.926,561.627,-0.847,1.112
1782117429.511720,0.125000,1874045,1000,12,0,1,471.574,12.979,14.028,563.573,0.695,1.112
1782117429.512720,0.126000,1874046,1000,12,0,1,459.876,1.176,13.978,563.429,1.221,1.125
1782117429.513720,0.127000,1874047,1000,12,0,1,450.892,-9.474,13.897,562.780,-0.171,1.122
1782117429.514720,0.128000,1874048,1000,12,0,1,454.447,-6.894,13.815,565.278,2.026,1.147
1782117429.515720,0.129000,1874049,1000,12,0,1,455.192,-4.532,13.823,562.876,0.424,1.127
1782117429.516720,0.130000,1874050,1000,12,0,1,455.360,-6.131,13.850,562.180,-1.332,1.039
1782117429.517720,0.131000,1874051,1000,12,0,1,457.546,-3.742,13.844,563.597,0.569,1.026
1782117429.518720,0.132000,1874052,1000,12,0,1,460.813,-1.918,13.835,565.735,2.097,1.067
1782117429.519720,0.133000,1874053,1000,12,0,1,459.395,-2.562,13.830,562.108,-0.316,1.067
1782117429.520720,0.134000,1874054,1000,12,0,1,453.943,-7.963,13.817,562.156,-1.755,1.087
1782117429.521720,0.135000,1874055,1000,12,0,1,442.653,-15.970,13.896,563.165,0.437,1.067
1782117429.522720,0.136000,1874056,1000,12,0,1,430.402,-24.599,14.291,561.940,-0.884,1.070
1782117429.523720,0.137000,1874057,1000,12,0,1,434.630,-18.013,14.504,560.522,-1.930,1.091
1782117429.524720,0.138000,1874058,1000,12,0,1,438.497,-7.512,14.519,562.180,-0.500,1.093
1782117429.525720,0.139000,1874059,1000,12,0,1,432.756,-9.262,14.576,560.498,-0.994,1.089
1782117429.526720,0.140000,1874060,1000,12,0,1,433.405,-6.039,14.521,563.741,0.704,1.092
1782117429.527720,0.141000,1874061,1000,12,0,1,449.571,10.439,14.376,563.381,1.975,1.122
1782117429.528720,0.142000,1874062,1000,12,0,1,481.663,38.538,15.083,564.702,1.353,1.133
1782117429.529720,0.143000,1874063,1000,12,0,1,501.215,54.709,16.627,563.357,1.291,1.134
1782117429.530720,0.144000,1874064,1000,12,0,1,497.804,44.091,17.209,562.396,-0.886,1.141
1782117429.531720,0.145000,1874065,1000,12,0,1,489.926,28.388,16.919,562.684,-0.185,1.134
1782117429.532720,0.146000,1874066,1000,12,0,1,486.154,18.534,16.678,564.294,0.923,1.139
1782117429.533720,0.147000,1874067,1000,12,0,1,471.838,2.836,16.616,563.213,0.302,1.140
1782117429.534720,0.148000,1874068,1000,12,0,1,463.095,-10.098,16.675,563.789,0.109,1.126
1782117429.535720,0.149000,1874069,1000,12,0,1,468.908,-5.596,16.572,563.453,0.253,1.086
1782117429.536720,0.150000,1874070,1000,12,0,1,471.454,-2.784,16.173,562.156,-1.085,1.096
1782117429.537720,0.151000,1874071,1000,12,0,1,460.140,-12.931,15.733,562.612,-0.832,1.097
1782117429.538720,0.152000,1874072,1000,12,0,1,451.036,-21.941,15.643,560.618,-1.649,1.114
1782117429.539720,0.153000,1874073,1000,12,0,1,454.447,-17.408,15.596,561.459,-1.721,1.139
1782117429.540720,0.154000,1874074,1000,12,0,1,458.915,-10.191,15.582,563.165,1.014,1.141
1782117429.541720,0.155000,1874075,1000,12,0,1,461.221,-7.101,15.614,562.420,0.121,1.133
1782117429.542720,0.156000,1874076,1000,12,0,1,467.346,-0.952,15.615,560.811,-1.072,1.125
1782117429.543720,0.157000,1874077,1000,12,0,1,469.628,2.251,15.598,562.780,0.211,1.080
1782117429.544720,0.158000,1874078,1000,12,0,1,467.274,-0.216,15.596,565.302,2.987,1.159
1782117429.545720,0.159000,1874079,1000,12,0,1,465.473,-1.921,15.597,562.444,0.554,1.158
1782117429.546720,0.160000,1874080,1000,12,0,1,466.145,-1.070,15.582,563.021,-0.249,1.159
1782117429.547720,0.161000,1874081,1000,12,0,1,468.235,1.166,15.556,564.366,1.782,1.161
1782117429.548720,0.162000,1874082,1000,12,0,1,463.455,-1.870,15.543,563.645,0.526,1.154
1782117429.549720,0.163000,1874083,1000,12,0,1,457.209,-7.825,15.567,564.174,0.724,1.155
1782117429.550720,0.164000,1874084,1000,12,0,1,460.981,-4.104,15.577,563.981,0.574,1.158
1782117429.551720,0.165000,1874085,1000,12,0,1,464.031,0.688,15.485,563.261,-0.406,1.105
1782117429.552720,0.166000,1874086,1000,12,0,1,462.350,-0.942,15.150,562.060,-1.318,1.121
1782117429.553720,0.167000,1874087,1000,12,0,1,468.547,3.316,15.092,561.435,-1.972,1.155
1782117429.554720,0.168000,1874088,1000,12,0,1,474.841,9.352,15.131,563.765,0.147,1.151
1782117429.555720,0.169000,1874089,1000,12,0,1,472.871,6.126,15.148,562.036,-0.442,1.152
1782117429.556720,0.170000,1874090,1000,12,0,1,469.172,0.826,15.125,563.837,-0.099,1.151
1782117429.557720,0.171000,1874091,1000,12,0,1,463.191,-4.796,15.081,563.141,0.809,1.121
1782117429.558720,0.172000,1874092,1000,12,0,1,458.867,-9.246,15.097,562.660,-0.832,1.123
1782117429.559720,0.173000,1874093,1000,12,0,1,458.338,-8.586,15.089,563.861,0.876,1.130
1782117429.560720,0.174000,1874094,1000,12,0,1,458.290,-7.251,14.979,563.237,0.319,1.125
1782117429.561720,0.175000,1874095,1000,12,0,1,452.477,-10.206,14.936,561.555,-1.263,1.135
1782117429.562720,0.176000,1874096,1000,12,0,1,453.198,-9.377,14.994,561.171,-1.502,1.141
1782117429.563720,0.177000,1874097,1000,12,0,1,471.358,7.610,14.973,561.771,-0.796,1.147
1782117429.564720,0.178000,1874098,1000,12,0,1,496.219,29.692,15.520,561.723,-0.381,1.112
1782117429.565720,0.179000,1874099,1000,12,0,1,495.354,28.436,16.019,559.898,-1.883,1.141
1782117429.566720,0.180000,1874100,1000,12,0,1,475.705,5.431,16.014,561.627,-0.615,1.129
1782117429.567720,0.181000,1874101,1000,12,0,1,461.461,-9.880,16.066,562.924,1.279,1.141
1782117429.568720,0.182000,1874102,1000,12,0,1,455.696,-14.066,16.187,560.835,-0.616,1.105
1782117429.569720,0.183000,1874103,1000,12,0,1,457.762,-10.713,16.254,559.538,-2.039,1.141
1782117429.570720,0.184000,1874104,1000,12,0,1,464.440,-2.509,16.218,560.498,-0.873,1.121
1782117429.571720,0.185000,1874105,1000,12,0,1,466.385,0.694,16.061,561.171,0.068,1.119
1782117429.572720,0.186000,1874106,1000,12,0,1,458.867,-5.082,15.696,561.916,0.717,1.116
1782117429.573720,0.187000,1874107,1000,12,0,1,450.844,-12.285,15.585,561.940,0.868,1.090
1782117429.574720,0.188000,1874108,1000,12,0,1,446.208,-14.322,15.680,562.036,0.743,1.092
1782117429.575720,0.189000,1874109,1000,12,0,1,438.954,-17.763,15.826,564.366,2.496,1.139
1782117429.576720,0.190000,1874110,1000,12,0,1,439.554,-15.660,15.957,561.916,1.025,1.144
1782117429.577720,0.191000,1874111,1000,12,0,1,452.453,-1.554,15.890,562.228,-0.174,1.110
1782117429.578720,0.192000,1874112,1000,12,0,1,470.229,15.152,15.079,561.003,0.108,1.093
1782117429.579720,0.193000,1874113,1000,12,0,1,471.045,16.705,13.157,562.804,0.355,1.079
1782117429.580720,0.194000,1874114,1000,12,0,1,459.972,3.464,11.596,562.876,1.776,1.101
1782117429.581720,0.195000,1874115,1000,12,0,1,453.510,-3.753,10.892,562.924,0.690,1.105
1782117429.582720,0.196000,1874116,1000,12,0,1,465.665,5.467,10.600,561.075,-0.197,1.097
1782117429.583720,0.197000,1874117,1000,12,0,1,478.276,18.208,10.901,561.315,-0.814,1.103
1782117429.584720,0.198000,1874118,1000,12,0,1,479.188,16.894,11.068,562.708,0.960,1.111
1782117429.585720,0.199000,1874119,1000,12,0,1,489.085,20.691,11.421,564.318,2.106,1.150
1782117429.586720,0.200000,1874120,1000,12,0,1,495.811,25.738,11.980,563.381,1.289,1.154
1782117429.587720,0.201000,1874121,1000,12,0,1,481.086,9.585,11.917,563.117,0.374,1.149
1782117429.588720,0.202000,1874122,1000,12,0,1,464.151,-8.960,11.576,563.357,0.504,1.127
1782117429.589720,0.203000,1874123,1000,12,0,1,455.264,-16.192,11.540,563.333,0.344,1.102
1782117429.590720,0.204000,1874124,1000,12,0,1,459.588,-11.246,11.560,561.699,-1.175,1.105
1782117429.591720,0.205000,1874125,1000,12,0,1,476.426,5.434,11.542,561.699,-1.448,1.124
1782117429.592720,0.206000,1874126,1000,12,0,1,483.872,13.698,11.703,563.693,0.395,1.115
1782117429.593720,0.207000,1874127,1000,12,0,1,471.646,1.524,11.700,562.948,0.225,1.115
1782117429.594720,0.208000,1874128,1000,12,0,1,463.263,-9.055,11.770,561.699,-1.465,1.052
1782117429.595720,0.209000,1874129,1000,12,0,1,448.898,-18.657,12.059,562.156,-0.792,1.055
1782117429.596720,0.210000,1874130,1000,12,0,1,437.513,-28.927,12.733,564.005,0.748,1.060
1782117429.597720,0.211000,1874131,1000,12,0,1,447.289,-17.545,12.972,562.420,-0.002,1.030
1782117429.598720,0.212000,1874132,1000,12,0,1,460.428,-1.650,12.971,562.636,-0.741,1.032
1782117429.599720,0.213000,1874133,1000,12,0,1,451.276,-7.005,12.962,562.324,-0.098,1.027
1782117429.600720,0.214000,1874134,1000,12,0,1,452.285,-9.315,13.016,562.972,-0.167,1.024
1782117429.601720,0.215000,1874135,1000,12,0,1,473.832,11.073,13.109,564.101,1.294,1.039
1782117429.602720,0.216000,1874136,1000,12,0,1,483.272,20.532,13.426,562.660,0.024,1.022
1782117429.603720,0.217000,1874137,1000,12,0,1,478.468,12.441,13.533,562.012,-1.000,0.993
1782117429.604720,0.218000,1874138,1000,12,0,1,487.644,15.718,13.650,565.254,1.788,1.025
1782117429.605720,0.219000,1874139,1000,12,0,1,492.688,20.044,13.915,563.045,0.638,1.027
1782117429.606720,0.220000,1874140,1000,12,0,1,480.077,6.062,13.940,561.387,-2.040,1.067
1782117429.607720,0.221000,1874141,1000,12,0,1,464.536,-9.837,13.993,562.900,-0.246,1.061
1782117429.608720,0.222000,1874142,1000,12,0,1,465.136,-9.700,13.999,562.804,-0.053,1.054
1782117429.609720,0.223000,1874143,1000,12,0,1,474.985,1.593,13.948,561.603,-1.290,1.063
1782117429.610720,0.224000,1874144,1000,12,0,1,483.128,9.750,13.979,564.029,0.558,1.065
1782117429.611720,0.225000,1874145,1000,12,0,1,483.152,9.634,13.971,562.804,0.334,1.051
1782117429.612720,0.226000,1874146,1000,12,0,1,470.109,-2.082,13.911,561.363,-1.795,1.060
1782117429.613720,0.227000,1874147,1000,12,0,1,457.137,-14.836,14.027,561.699,-1.051,1.064
1782117429.614720,0.228000,1874148,1000,12,0,1,450.652,-18.317,13.632,562.492,-0.255,1.064
1782117429.615720,0.229000,1874149,1000,12,0,1,452.237,-15.065,13.198,562.612,0.063,1.030
1782117429.616720,0.230000,1874150,1000,12,0,1,458.290,-6.874,13.212,562.924,0.285,1.027
1782117429.617720,0.231000,1874151,1000,12,0,1,456.729,-6.123,13.166,562.300,-0.109,1.011
1782117429.618720,0.232000,1874152,1000,12,0,1,447.601,-13.533,13.155,562.516,-0.093,1.007
1782117429.619720,0.233000,1874153,1000,12,0,1,445.535,-15.110,13.241,562.012,-0.198,0.966
1782117429.620720,0.234000,1874154,1000,12,0,1,451.853,-7.496,13.279,563.597,0.792,0.964
1782117429.621720,0.235000,1874155,1000,12,0,1,471.334,9.184,13.342,562.660,0.694,0.969
1782117429.622720,0.236000,1874156,1000,12,0,1,494.802,29.427,13.957,563.717,0.627,0.968
1782117429.623720,0.237000,1874157,1000,12,0,1,491.727,25.240,14.301,563.093,0.937,0.969
1782117429.624720,0.238000,1874158,1000,12,0,1,474.240,3.487,14.166,564.222,0.841,0.971
1782117429.625720,0.239000,1874159,1000,12,0,1,467.490,-5.117,13.960,564.029,1.381,0.925
1782117429.626720,0.240000,1874160,1000,12,0,1,468.595,-3.458,13.792,563.861,0.382,0.915
1782117429.627720,0.241000,1874161,1000,12,0,1,477.843,4.742,13.806,561.267,-1.352,0.935
1782117429.628720,0.242000,1874162,1000,12,0,1,478.852,8.068,13.687,562.348,-1.309,0.953
1782117429.629720,0.243000,1874163,1000,12,0,1,469.460,-0.999,13.482,563.165,0.425,0.953
1782117429.630720,0.244000,1874164,1000,12,0,1,463.479,-5.994,13.500,562.564,-0.456,0.922
1782117429.631720,0.245000,1874165,1000,12,0,1,465.809,-2.577,13.494,562.276,-0.690,0.922
1782117429.632720,0.246000,1874166,1000,12,0,1,473.399,5.513,13.495,563.837,0.609,0.926
1782117429.633720,0.247000,1874167,1000,12,0,1,480.125,11.938,13.354,563.357,0.483,0.921
1782117429.634720,0.248000,1874168,1000,12,0,1,475.657,7.738,13.184,564.318,0.711,0.916
1782117429.635720,0.249000,1874169,1000,12,0,1,473.880,2.881,12.862,564.125,0.909,0.876
1782117429.636720,0.250000,1874170,1000,12,0,1,467.707,-1.805,12.338,562.372,-0.938,0.867
1782117429.637720,0.251000,1874171,1000,12,0,1,455.744,-13.731,12.417,562.036,-1.407,0.888
1782117429.638720,0.252000,1874172,1000,12,0,1,453.366,-16.179,12.562,561.147,-1.575,0.913
1782117429.639720,0.253000,1874173,1000,12,0,1,459.828,-8.827,12.414,561.315,-1.649,0.941
1782117429.640720,0.254000,1874174,1000,12,0,1,471.790,1.648,12.314,564.198,1.258,0.943
1782117429.641720,0.255000,1874175,1000,12,0,1,489.541,16.027,12.497,562.156,0.172,0.921
1782117429.642720,0.256000,1874176,1000,12,0,1,487.331,13.800,12.500,559.778,-2.640,0.992
1782117429.643720,0.257000,1874177,1000,12,0,1,472.583,-4.008,12.511,560.330,-1.672,1.020
1782117429.644720,0.258000,1874178,1000,12,0,1,472.967,-6.366,12.477,562.588,0.548,1.001
1782117429.645720,0.259000,1874179,1000,12,0,1,477.555,-0.437,12.195,562.084,0.699,1.000
1782117429.646720,0.260000,1874180,1000,12,0,1,479.477,0.789,11.489,564.270,1.687,1.022
1782117429.647720,0.261000,1874181,1000,12,0,1,488.484,8.137,11.277,565.375,3.280,1.123
1782117429.648720,0.262000,1874182,1000,12,0,1,492.976,12.849,11.420,564.462,1.626,1.141
1782117429.649720,0.263000,1874183,1000,12,0,1,482.527,3.177,11.386,563.141,0.238,1.142
1782117429.650720,0.264000,1874184,1000,12,0,1,478.636,-2.676,11.316,564.125,0.562,1.144
1782117429.651720,0.265000,1874185,1000,12,0,1,479.717,0.451,11.207,564.462,1.115,1.140
1782117429.652720,0.266000,1874186,1000,12,0,1,476.090,-2.026,10.828,563.117,-0.315,1.141
1782117429.653720,0.267000,1874187,1000,12,0,1,468.139,-7.868,10.742,562.540,-1.093,1.143
1782117429.654720,0.268000,1874188,1000,12,0,1,461.701,-12.618,10.660,562.444,-0.865,1.121
1782117429.655720,0.269000,1874189,1000,12,0,1,461.053,-11.512,10.404,562.900,-0.555,1.120
1782117429.656720,0.270000,1874190,1000,12,0,1,463.335,-7.451,10.422,562.420,-0.503,1.085
1782117429.657720,0.271000,1874191,1000,12,0,1,466.890,-3.594,10.342,562.012,-1.077,1.095
1782117429.658720,0.272000,1874192,1000,12,0,1,473.255,1.890,10.254,563.573,0.445,1.097
1782117429.659720,0.273000,1874193,1000,12,0,1,477.651,5.071,10.276,562.948,0.335,1.083
1782117429.660720,0.274000,1874194,1000,12,0,1,483.128,7.294,10.236,563.381,0.102,1.080
1782117429.661720,0.275000,1874195,1000,12,0,1,483.680,6.355,10.184,562.780,0.166,1.079
1782117429.662720,0.276000,1874196,1000,12,0,1,478.204,-1.099,10.181,564.101,0.535,1.052
1782117429.663720,0.277000,1874197,1000,12,0,1,468.307,-10.603,10.075,564.270,1.343,1.058
1782117429.664720,0.278000,1874198,1000,12,0,1,450.892,-24.498,10.334,562.084,-1.040,1.068
1782117429.665720,0.279000,1874199,1000,12,0,1,439.338,-32.715,11.120,563.189,-0.496,1.070
1782117429.666720,0.280000,1874200,1000,12,0,1,453.246,-16.755,11.328,566.119,2.390,1.121
1782117429.667720,0.281000,1874201,1000,12,0,1,467.346,2.902,11.303,564.798,1.296,1.136
1782117429.668720,0.282000,1874202,1000,12,0,1,477.723,12.524,11.279,565.278,0.637,1.140
1782117429.669720,0.283000,1874203,1000,12,0,1,480.029,16.487,11.318,564.822,0.729,1.144
1782117429.670720,0.284000,1874204,1000,12,0,1,471.045,7.745,11.321,562.228,-1.976,1.172
1782117429.671720,0.285000,1874205,1000,12,0,1,460.789,-1.614,11.249,560.835,-3.168,1.251
1782117429.672720,0.286000,1874206,1000,12,0,1,455.576,-4.957,10.474,561.819,-1.956,1.278
1782117429.673720,0.287000,1874207,1000,12,0,1,449.235,-7.830,9.909,564.582,0.740,1.276
1782117429.674720,0.288000,1874208,1000,12,0,1,452.501,-4.144,9.914,564.029,0.923,1.277
1782117429.675720,0.289000,1874209,1000,12,0,1,466.025,9.608,9.981,563.909,-0.029,1.262
1782117429.676720,0.290000,1874210,1000,12,0,1,467.058,12.207,10.117,563.741,0.376,1.262
1782117429.677720,0.291000,1874211,1000,12,0,1,462.542,4.884,10.118,564.077,0.154,1.247
1782117429.678720,0.292000,1874212,1000,12,0,1,472.991,11.343,10.181,562.948,-0.312,1.234
1782117429.679720,0.293000,1874213,1000,12,0,1,485.986,21.427,10.622,564.342,0.152,1.233
1782117429.680720,0.294000,1874214,1000,12,0,1,484.065,16.706,10.848,561.699,-0.960,1.239
1782117429.681720,0.295000,1874215,1000,12,0,1,482.479,9.236,10.920,561.339,-2.482,1.284
1782117429.682720,0.296000,1874216,1000,12,0,1,482.143,6.755,10.934,563.333,0.289,1.282
1782117429.683720,0.297000,1874217,1000,12,0,1,483.152,4.146,10.819,562.708,-0.102,1.280
1782117429.684720,0.298000,1874218,1000,12,0,1,486.154,5.228,10.789,562.108,-0.911,1.282
1782117429.685720,0.299000,1874219,1000,12,0,1,483.152,1.703,10.784,564.342,1.081,1.285
1782117429.686720,0.300000,1874220,1000,12,0,1,478.732,-3.726,10.794,562.612,0.136,1.278
1782117429.687720,0.301000,1874221,1000,12,0,1,478.948,-3.324,10.628,562.660,-0.746,1.267
1782117429.688720,0.302000,1874222,1000,12,0,1,479.669,-1.646,10.381,561.747,-0.655,1.251
1782117429.689720,0.303000,1874223,1000,12,0,1,476.354,-3.215,10.316,560.138,-2.371,1.274
1782117429.690720,0.304000,1874224,1000,12,0,1,471.310,-6.743,10.358,561.675,-0.863,1.267
1782117429.691720,0.305000,1874225,1000,12,0,1,472.198,-4.926,10.130,564.077,1.774,1.292
1782117429.692720,0.306000,1874226,1000,12,0,1,475.633,0.029,9.941,564.222,1.863,1.264
1782117429.693720,0.307000,1874227,1000,12,0,1,478.804,3.246,9.935,562.276,0.095,1.242
1782117429.694720,0.308000,1874228,1000,12,0,1,479.885,4.193,9.912,563.477,0.412,1.241
1782117429.695720,0.309000,1874229,1000,12,0,1,476.594,0.570,9.912,563.069,0.963,1.245
1782117429.696720,0.310000,1874230,1000,12,0,1,470.133,-6.027,9.948,563.693,0.523,1.224
1782117429.697720,0.311000,1874231,1000,12,0,1,460.668,-14.257,10.085,564.366,1.721,1.158
1782117429.698720,0.312000,1874232,1000,12,0,1,454.807,-19.303,10.289,562.060,-0.539,1.138
1782117429.699720,0.313000,1874233,1000,12,0,1,452.237,-19.268,10.634,559.802,-2.645,1.197
1782117429.700720,0.314000,1874234,1000,12,0,1,449.979,-19.091,10.965,562.708,-0.245,1.195
1782117429.701720,0.315000,1874235,1000,12,0,1,450.243,-16.611,11.213,563.933,1.818,1.212
1782117429.702720,0.316000,1874236,1000,12,0,1,445.632,-17.070,11.467,564.390,1.483,1.229
1782117429.703720,0.317000,1874237,1000,12,0,1,445.920,-15.564,11.623,563.405,0.855,1.226
1782117429.704720,0.318000,1874238,1000,12,0,1,457.089,-2.703,11.491,562.372,-0.603,1.222
1782117429.705720,0.319000,1874239,1000,12,0,1,459.491,3.095,11.384,562.060,-0.770,1.225
1782117429.706720,0.320000,1874240,1000,12,0,1,453.414,-1.807,11.338,562.252,-0.550,1.225
1782117429.707720,0.321000,1874241,1000,12,0,1,455.504,0.683,11.327,565.447,1.873,1.244
1782117429.708720,0.322000,1874242,1000,12,0,1,459.107,6.664,11.363,565.182,2.360,1.287
1782117429.709720,0.323000,1874243,1000,12,0,1,471.982,17.087,11.595,563.573,-0.209,1.286
1782117429.710720,0.324000,1874244,1000,12,0,1,479.188,25.492,12.099,561.579,-1.543,1.304
1782117429.711720,0.325000,1874245,1000,12,0,1,476.306,20.075,12.395,562.708,-1.216,1.315
1782117429.712720,0.326000,1874246,1000,12,0,1,473.856,15.656,12.590,564.077,0.846,1.319
1782117429.713720,0.327000,1874247,1000,12,0,1,470.469,11.369,12.603,562.180,-0.853,1.311
1782117429.714720,0.328000,1874248,1000,12,0,1,453.318,-3.433,12.127,561.267,-1.927,1.330
1782117429.715720,0.329000,1874249,1000,12,0,1,438.041,-18.082,11.498,564.149,0.734,1.333
1782117429.716720,0.330000,1874250,1000,12,0,1,438.593,-15.588,11.465,565.903,2.668,1.343
1782117429.717720,0.331000,1874251,1000,12,0,1,445.295,-6.152,11.491,564.942,1.523,1.348
1782117429.718720,0.332000,1874252,1000,12,0,1,460.644,7.183,11.399,562.108,-1.205,1.356
1782117429.719720,0.333000,1874253,1000,12,0,1,476.642,21.596,11.568,563.237,-0.796,1.356
1782117429.720720,0.334000,1874254,1000,12,0,1,484.305,24.546,12.028,562.180,-0.648,1.330
1782117429.721720,0.335000,1874255,1000,12,0,1,488.436,22.966,12.457,562.948,-0.881,1.259
1782117429.722720,0.336000,1874256,1000,12,0,1,486.803,16.792,12.662,562.876,0.074,1.228
1782117429.723720,0.337000,1874257,1000,12,0,1,484.833,9.647,12.687,562.420,-0.875,1.230
1782117429.724720,0.338000,1874258,1000,12,0,1,488.436,9.075,12.738,561.844,-0.950,1.230
1782117429.725720,0.339000,1874259,1000,12,0,1,493.577,10.830,12.758,562.036,-0.894,1.237
1782117429.726720,0.340000,1874260,1000,12,0,1,491.823,7.245,12.682,562.660,-0.119,1.236
1782117429.727720,0.341000,1874261,1000,12,0,1,484.089,-1.815,12.666,563.837,0.916,1.242
1782117429.728720,0.342000,1874262,1000,12,0,1,476.810,-8.991,12.628,564.222,1.220,1.254
1782117429.729720,0.343000,1874263,1000,12,0,1,470.205,-13.479,12.406,564.582,1.271,1.266
1782117429.730720,0.344000,1874264,1000,12,0,1,466.698,-14.739,12.356,562.228,-0.658,1.262
1782117429.731720,0.345000,1874265,1000,12,0,1,468.475,-10.466,12.376,564.678,0.466,1.214
1782117429.732720,0.346000,1874266,1000,12,0,1,470.829,-5.595,12.364,564.654,1.661,1.236
1782117429.733720,0.347000,1874267,1000,12,0,1,467.106,-6.562,12.385,564.053,-0.024,1.236
1782117429.734720,0.348000,1874268,1000,12,0,1,466.554,-6.867,12.401,563.093,-0.324,1.230
1782117429.735720,0.349000,1874269,1000,12,0,1,472.367,-0.544,12.399,565.807,1.194,1.232
1782117429.736720,0.350000,1874270,1000,12,0,1,466.505,-3.816,12.400,563.717,0.610,1.235
1782117429.737720,0.351000,1874271,1000,12,0,1,465.473,-7.539,12.436,565.399,0.284,1.231
1782117429.738720,0.352000,1874272,1000,12,0,1,471.670,-0.912,12.435,564.894,1.336,1.242
1782117429.739720,0.353000,1874273,1000,12,0,1,479.549,4.394,12.442,563.837,-0.826,1.202
1782117429.740720,0.354000,1874274,1000,12,0,1,480.822,4.858,12.425,564.918,0.401,1.197
1782117429.741720,0.355000,1874275,1000,12,0,1,477.579,-0.930,12.406,564.918,0.559,1.173
1782117429.742720,0.356000,1874276,1000,12,0,1,469.988,-8.413,12.463,563.909,-0.697,1.147
1782117429.743720,0.357000,1874277,1000,12,0,1,462.206,-15.811,12.653,563.597,-0.815,1.153
1782117429.744720,0.358000,1874278,1000,12,0,1,462.758,-14.549,12.806,563.669,-0.919,1.159
1782117429.745720,0.359000,1874279,1000,12,0,1,472.607,-3.772,12.817,563.165,-0.940,1.159
1782117429.746720,0.360000,1874280,1000,12,0,1,477.291,2.873,12.795,562.108,-2.013,1.191
1782117429.747720,0.361000,1874281,1000,12,0,1,477.267,3.002,12.642,562.660,-1.321,1.180
1782117429.748720,0.362000,1874282,1000,12,0,1,476.162,2.729,12.350,563.381,-0.423,1.180
1782117429.749720,0.363000,1874283,1000,12,0,1,468.980,-1.923,12.049,563.957,0.151,1.119
1782117429.750720,0.364000,1874284,1000,12,0,1,463.095,-6.527,11.778,563.693,-0.006,1.118
1782117429.751720,0.365000,1874285,1000,12,0,1,464.248,-3.092,11.550,564.174,0.177,1.089
1782117429.752720,0.366000,1874286,1000,12,0,1,464.536,-0.149,11.295,563.693,0.032,1.068
1782117429.753720,0.367000,1874287,1000,12,0,1,465.737,1.883,11.082,566.407,1.670,1.087
1782117429.754720,0.368000,1874288,1000,12,0,1,466.289,3.702,11.087,565.351,1.692,1.110
1782117429.755720,0.369000,1874289,1000,12,0,1,464.776,2.386,11.084,564.342,-0.487,1.107
1782117429.756720,0.370000,1874290,1000,12,0,1,465.713,2.576,11.087,564.678,0.297,1.105
1782117429.757720,0.371000,1874291,1000,12,0,1,469.748,5.447,11.113,564.534,0.001,1.073
1782117429.758720,0.372000,1874292,1000,12,0,1,475.345,8.785,11.143,563.717,-0.596,1.023
1782117429.759720,0.373000,1874293,1000,12,0,1,472.222,5.106,10.901,562.780,-1.313,1.039
1782117429.760720,0.374000,1874294,1000,12,0,1,454.447,-11.909,10.425,564.125,-0.285,1.017
1782117429.761720,0.375000,1874295,1000,12,0,1,451.300,-17.602,10.335,564.582,0.807,1.009
1782117429.762720,0.376000,1874296,1000,12,0,1,460.452,-6.425,10.136,565.038,0.650,1.006
1782117429.763720,0.377000,1874297,1000,12,0,1,456.945,-7.052,10.057,563.213,-0.352,1.000
1782117429.764720,0.378000,1874298,1000,12,0,1,455.984,-8.892,10.124,562.036,-2.060,1.005
1782117429.765720,0.379000,1874299,1000,12,0,1,469.724,4.456,9.816,562.540,-1.058,1.011
1782117429.766720,0.380000,1874300,1000,12,0,1,482.912,17.322,9.874,563.069,-0.484,0.940
1782117429.767720,0.381000,1874301,1000,12,0,1,494.345,25.125,10.458,563.837,0.274,0.916
1782117429.768720,0.382000,1874302,1000,12,0,1,494.009,23.652,10.932,563.405,0.084,0.900
1782117429.769720,0.383000,1874303,1000,12,0,1,485.218,11.978,10.633,562.852,-0.682,0.898
1782117429.770720,0.384000,1874304,1000,12,0,1,479.236,4.755,10.073,563.261,-0.207,0.894
1782117429.771720,0.385000,1874305,1000,12,0,1,472.727,-0.745,9.535,565.278,1.347,0.906
1782117429.772720,0.386000,1874306,1000,12,0,1,462.638,-8.857,9.320,566.119,2.306,0.963
1782117429.773720,0.387000,1874307,1000,12,0,1,453.895,-14.905,9.457,565.062,0.911,0.963
1782117429.774720,0.388000,1874308,1000,12,0,1,451.781,-14.493,9.591,564.366,-0.008,0.954
1782117429.775720,0.389000,1874309,1000,12,0,1,457.522,-6.819,9.517,565.663,0.883,0.954
1782117429.776720,0.390000,1874310,1000,12,0,1,459.419,-2.418,9.468,565.327,0.919,0.962
1782117429.777720,0.391000,1874311,1000,12,0,1,455.240,-5.696,9.499,564.966,0.076,0.954
1782117429.778720,0.392000,1874312,1000,12,0,1,445.800,-13.003,9.591,563.885,-0.528,0.941
1782117429.779720,0.393000,1874313,1000,12,0,1,439.146,-18.446,9.755,563.045,-1.461,0.946
1782117429.780720,0.394000,1874314,1000,12,0,1,447.217,-10.444,9.644,562.780,-1.310,0.960
1782117429.781720,0.395000,1874315,1000,12,0,1,462.566,4.989,9.555,562.060,-1.602,0.984
1782117429.782720,0.396000,1874316,1000,12,0,1,458.483,3.093,9.533,560.907,-2.297,1.009
1782117429.783720,0.397000,1874317,1000,12,0,1,458.987,-0.985,9.488,561.435,-1.596,1.034
1782117429.784720,0.398000,1874318,1000,12,0,1,469.220,8.872,9.522,561.651,-0.785,1.039
1782117429.785720,0.399000,1874319,1000,12,0,1,482.479,18.376,9.870,563.549,0.688,1.030
1782117429.786720,0.400000,1874320,1000,12,0,1,485.530,20.380,10.268,563.261,1.067,1.037
1782117429.787720,0.401000,1874321,1000,12,0,1,475.321,8.532,10.283,563.957,0.818,1.043
1782117429.788720,0.402000,1874322,1000,12,0,1,461.413,-5.202,10.309,565.038,2.029,1.065
1782117429.789720,0.403000,1874323,1000,12,0,1,454.207,-10.813,10.403,564.101,0.874,1.066
1782117429.790720,0.404000,1874324,1000,12,0,1,452.213,-9.562,10.468,563.957,0.201,1.065
1782117429.791720,0.405000,1874325,1000,12,0,1,452.597,-5.781,10.499,563.957,0.341,1.063
1782117429.792720,0.406000,1874326,1000,12,0,1,455.792,-0.446,10.431,563.813,-0.105,1.058
1782117429.793720,0.407000,1874327,1000,12,0,1,456.249,2.877,10.197,563.477,-0.226,1.052
1782117429.794720,0.408000,1874328,1000,12,0,1,462.350,7.649,10.046,561.651,-1.731,1.073
1782117429.795720,0.409000,1874329,1000,12,0,1,477.387,20.797,10.454,563.141,-0.705,1.069
1782117429.796720,0.410000,1874330,1000,12,0,1,486.923,27.378,11.140,563.549,0.611,1.034
1782117429.797720,0.411000,1874331,1000,12,0,1,490.454,25.324,11.694,562.732,-0.425,1.019
1782117429.798720,0.412000,1874332,1000,12,0,1,478.252,11.136,11.793,565.158,1.592,1.042
1782117429.799720,0.413000,1874333,1000,12,0,1,459.924,-10.479,11.883,565.182,2.241,1.089
1782117429.800720,0.414000,1874334,1000,12,0,1,463.527,-10.817,11.946,565.230,1.352,1.105
1782117429.801720,0.415000,1874335,1000,12,0,1,473.640,-0.353,11.938,565.615,1.922,1.138
1782117429.802720,0.416000,1874336,1000,12,0,1,477.675,1.364,11.939,566.263,1.847,1.168
1782117429.803720,0.417000,1874337,1000,12,0,1,480.678,2.054,11.940,564.077,0.220,1.144
1782117429.804720,0.418000,1874338,1000,12,0,1,476.402,-2.588,11.934,563.213,-1.447,1.137
1782117429.805720,0.419000,1874339,1000,12,0,1,466.554,-12.416,12.058,563.813,-0.477,1.137
1782117429.806720,0.420000,1874340,1000,12,0,1,467.779,-11.858,12.168,562.900,-1.181,1.149
1782117429.807720,0.421000,1874341,1000,12,0,1,468.859,-7.356,12.188,564.029,-0.599,1.152
1782117429.808720,0.422000,1874342,1000,12,0,1,468.355,-6.965,12.165,565.543,1.161,1.160
1782117429.809720,0.423000,1874343,1000,12,0,1,468.595,-4.291,12.159,564.558,0.064,1.145
1782117429.810720,0.424000,1874344,1000,12,0,1,465.617,-4.747,12.060,563.069,-1.454,1.163
1782117429.811720,0.425000,1874345,1000,12,0,1,466.457,-2.942,11.808,564.390,-0.621,1.161
1782117429.812720,0.426000,1874346,1000,12,0,1,466.746,0.133,11.773,564.318,-0.022,1.157
1782117429.813720,0.427000,1874347,1000,12,0,1,467.490,1.083,11.731,565.062,-0.036,1.156
1782117429.814720,0.428000,1874348,1000,12,0,1,479.885,11.562,11.778,564.510,0.107,1.119
1782117429.815720,0.429000,1874349,1000,12,0,1,504.290,31.114,12.557,563.021,-1.594,1.131
1782117429.816720,0.430000,1874350,1000,12,0,1,519.015,41.177,13.623,562.156,-2.017,1.165
1782117429.817720,0.431000,1874351,1000,12,0,1,509.478,26.363,13.670,564.582,0.030,1.164
1782117429.818720,0.432000,1874352,1000,12,0,1,494.129,4.655,13.271,564.438,0.855,1.170
1782117429.819720,0.433000,1874353,1000,12,0,1,486.082,-6.635,13.196,562.300,-1.394,1.183
1782117429.820720,0.434000,1874354,1000,12,0,1,480.966,-12.761,13.301,564.053,-0.045,1.183
1782117429.821720,0.435000,1874355,1000,12,0,1,477.411,-16.461,13.503,565.134,1.688,1.191
1782117429.822720,0.436000,1874356,1000,12,0,1,477.291,-16.226,13.639,563.501,-0.060,1.146
1782117429.823720,0.437000,1874357,1000,12,0,1,478.636,-13.814,13.616,562.636,-0.906,1.146
1782117429.824720,0.438000,1874358,1000,12,0,1,480.269,-11.264,13.555,563.309,-0.304,1.146
1782117429.825720,0.439000,1874359,1000,12,0,1,479.741,-10.151,13.597,565.182,1.408,1.157
1782117429.826720,0.440000,1874360,1000,12,0,1,476.114,-11.830,13.695,564.005,0.665,1.153
1782117429.827720,0.441000,1874361,1000,12,0,1,472.246,-13.377,13.802,563.501,-0.545,1.156
1782117429.828720,0.442000,1874362,1000,12,0,1,468.115,-14.128,13.824,564.390,0.464,1.155
1782117429.829720,0.443000,1874363,1000,12,0,1,461.821,-16.258,13.769,564.101,0.168,1.137
1782117429.830720,0.444000,1874364,1000,12,0,1,454.471,-18.906,13.948,564.702,0.323,1.123
1782117429.831720,0.445000,1874365,1000,12,0,1,449.835,-18.837,14.182,565.639,1.230,1.113
1782117429.832720,0.446000,1874366,1000,12,0,1,446.400,-16.840,14.374,562.588,-1.256,1.080
1782117429.833720,0.447000,1874367,1000,12,0,1,445.535,-13.524,14.500,564.414,-0.738,1.061
1782117429.834720,0.448000,1874368,1000,12,0,1,454.903,-2.367,14.450,563.645,0.150,1.055
1782117429.835720,0.449000,1874369,1000,12,0,1,466.457,10.749,14.295,565.423,0.245,1.051
1782117429.836720,0.450000,1874370,1000,12,0,1,465.449,10.725,14.084,566.672,2.535,1.101
1782117429.837720,0.451000,1874371,1000,12,0,1,458.747,2.989,14.038,566.936,1.775,1.123
1782117429.838720,0.452000,1874372,1000,12,0,1,454.783,-1.104,14.020,563.813,-0.452,1.087
1782117429.839720,0.453000,1874373,1000,12,0,1,459.539,2.239,13.940,565.327,-0.396,1.082
1782117429.840720,0.454000,1874374,1000,12,0,1,475.513,15.481,14.046,565.807,1.265,1.096
1782117429.841720,0.455000,1874375,1000,12,0,1,493.649,29.700,14.637,566.383,0.840,1.102
1782117429.842720,0.456000,1874376,1000,12,0,1,508.277,37.834,15.585,564.942,0.119,1.102
1782117429.843720,0.457000,1874377,1000,12,0,1,498.237,25.756,15.999,565.927,0.073,1.101
1782117429.844720,0.458000,1874378,1000,12,0,1,483.344,4.658,15.976,565.519,0.394,1.075
1782117429.845720,0.459000,1874379,1000,12,0,1,478.828,-0.897,15.704,564.053,-1.360,1.088
1782117429.846720,0.460000,1874380,1000,12,0,1,470.949,-6.989,15.251,565.759,-0.194,1.084
1782117429.847720,0.461000,1874381,1000,12,0,1,458.651,-16.634,15.010,566.071,0.779,1.088
1782117429.848720,0.462000,1874382,1000,12,0,1,445.127,-24.813,15.334,565.206,-0.736,1.070
1782117429.849720,0.463000,1874383,1000,12,0,1,443.301,-23.236,15.612,565.591,-0.244,1.023
1782117429.850720,0.464000,1874384,1000,12,0,1,445.031,-14.630,15.674,564.222,-1.403,1.024
1782117429.851720,0.465000,1874385,1000,12,0,1,450.844,-6.638,15.702,563.957,-1.848,1.021
1782117429.852720,0.466000,1874386,1000,12,0,1,456.417,2.463,15.705,565.759,-0.098,0.987
1782117429.853720,0.467000,1874387,1000,12,0,1,457.017,3.920,15.712,565.975,0.466,0.989
1782117429.854720,0.468000,1874388,1000,12,0,1,453.222,1.153,15.709,565.302,-0.437,0.970
1782117429.855720,0.469000,1874389,1000,12,0,1,458.987,4.433,15.623,564.582,-0.911,0.976
1782117429.856720,0.470000,1874390,1000,12,0,1,475.225,17.899,15.737,565.230,-0.491,0.964
1782117429.857720,0.471000,1874391,1000,12,0,1,484.833,24.510,16.081,566.480,0.906,0.969
1782117429.858720,0.472000,1874392,1000,12,0,1,483.608,18.475,16.262,566.095,0.649,0.959
1782117429.859720,0.473000,1874393,1000,12,0,1,476.954,8.180,16.292,565.086,-0.412,0.961
1782117429.860720,0.474000,1874394,1000,12,0,1,464.151,-5.895,16.299,566.047,0.284,0.939
1782117429.861720,0.475000,1874395,1000,12,0,1,450.388,-19.036,16.515,566.263,0.829,0.943
1782117429.862720,0.476000,1874396,1000,12,0,1,448.562,-20.100,16.758,564.510,-0.790,0.949
1782117429.863720,0.477000,1874397,1000,12,0,1,448.826,-15.239,16.895,565.519,-0.316,0.950
1782117429.864720,0.478000,1874398,1000,12,0,1,449.042,-12.622,16.910,566.528,1.138,0.964
1782117429.865720,0.479000,1874399,1000,12,0,1,446.688,-10.336,16.393,565.831,0.238,0.937
1782117429.866720,0.480000,1874400,1000,12,0,1,441.884,-11.517,15.410,566.143,0.259,0.894
1782117429.867720,0.481000,1874401,1000,12,0,1,441.884,-8.216,14.997,566.143,0.350,0.895
1782117429.868720,0.482000,1874402,1000,12,0,1,460.572,9.798,15.047,565.447,-0.475,0.889
1782117429.869720,0.483000,1874403,1000,12,0,1,451.493,9.068,15.072,564.798,-1.053,0.880
1782117429.870720,0.484000,1874404,1000,12,0,1,441.452,-4.851,14.980,564.342,-1.418,0.903
1782117429.871720,0.485000,1874405,1000,12,0,1,433.405,-6.431,14.826,565.543,-0.400,0.872
1782117429.872720,0.486000,1874406,1000,12,0,1,434.486,-6.495,14.676,565.254,-0.164,0.872
1782117429.873720,0.487000,1874407,1000,12,0,1,439.194,1.845,14.547,565.831,-0.155,0.863
1782117429.874720,0.488000,1874408,1000,12,0,1,442.725,4.984,14.477,567.080,1.241,0.880
1782117429.875720,0.489000,1874409,1000,12,0,1,443.013,5.407,14.426,565.351,-0.181,0.857
1782117429.876720,0.490000,1874410,1000,12,0,1,458.266,15.570,14.497,565.278,-0.843,0.861
1782117429.877720,0.491000,1874411,1000,12,0,1,474.432,28.859,14.941,566.095,0.409,0.859
1782117429.878720,0.492000,1874412,1000,12,0,1,476.690,26.598,15.277,566.383,0.490,0.859
1782117429.879720,0.493000,1874413,1000,12,0,1,477.387,20.098,15.368,564.101,-1.067,0.872
1782117429.880720,0.494000,1874414,1000,12,0,1,482.143,19.980,15.395,564.101,-1.645,0.902
1782117429.881720,0.495000,1874415,1000,12,0,1,484.809,17.480,15.363,565.783,0.547,0.888
1782117429.882720,0.496000,1874416,1000,12,0,1,486.923,15.356,15.332,565.663,0.577,0.874
1782117429.883720,0.497000,1874417,1000,12,0,1,480.558,7.135,15.246,567.080,1.368,0.889
1782117429.884720,0.498000,1874418,1000,12,0,1,468.811,-5.473,15.262,566.071,1.054,0.901
1782117429.885720,0.499000,1874419,1000,12,0,1,464.848,-9.899,15.250,563.861,-1.576,0.928
1782117429.886720,0.500000,1874420,1000,12,0,1,467.178,-5.765,15.197,564.414,-1.003,0.867
1782117429.887720,0.501000,1874421,1000,12,0,1,475.561,2.208,15.194,564.558,-0.458,0.833
1782117429.888720,0.502000,1874422,1000,12,0,1,472.871,2.785,15.198,564.750,-0.429,0.832
1782117429.889720,0.503000,1874423,1000,12,0,1,458.987,-10.099,15.262,566.311,0.966,0.842
1782117429.890720,0.504000,1874424,1000,12,0,1,450.892,-16.535,15.284,565.903,0.816,0.830
1782117429.891720,0.505000,1874425,1000,12,0,1,449.331,-15.208,14.852,565.351,-0.176,0.822
1782117429.892720,0.506000,1874426,1000,12,0,1,449.979,-12.306,13.964,565.543,0.066,0.822
1782117429.893720,0.507000,1874427,1000,12,0,1,452.742,-8.182,13.530,565.158,-0.263,0.823
1782117429.894720,0.508000,1874428,1000,12,0,1,450.748,-8.381,13.566,566.600,0.680,0.827
1782117429.895720,0.509000,1874429,1000,12,0,1,454.375,-6.404,13.595,567.368,1.695,0.839
1782117429.896720,0.510000,1874430,1000,12,0,1,455.408,-3.948,13.571,566.840,0.810,0.846
1782117429.897720,0.511000,1874431,1000,12,0,1,451.493,-8.618,13.421,566.768,0.570,0.843
1782117429.898720,0.512000,1874432,1000,12,0,1,455.480,-6.239,12.984,566.504,0.300,0.838
1782117429.899720,0.513000,1874433,1000,12,0,1,457.378,-3.148,12.569,565.399,-0.664,0.842
1782117429.900720,0.514000,1874434,1000,12,0,1,456.369,-5.129,12.419,565.038,-1.047,0.832
1782117429.901720,0.515000,1874435,1000,12,0,1,459.107,-2.417,12.388,566.263,0.142,0.790
1782117429.902720,0.516000,1874436,1000,12,0,1,452.862,-5.886,12.411,566.263,0.502,0.793
1782117429.903720,0.517000,1874437,1000,12,0,1,446.905,-11.133,12.498,567.200,0.842,0.799
1782117429.904720,0.518000,1874438,1000,12,0,1,449.259,-6.267,12.529,566.696,0.817,0.805
1782117429.905720,0.519000,1874439,1000,12,0,1,449.283,-2.507,12.518,566.239,-0.223,0.795
1782117429.906720,0.520000,1874440,1000,12,0,1,448.994,-0.797,12.260,566.215,-0.045,0.792
1782117429.907720,0.521000,1874441,1000,12,0,1,458.266,8.958,11.828,564.726,-1.331,0.804
1782117429.908720,0.522000,1874442,1000,12,0,1,477.195,26.177,12.115,566.287,-0.455,0.801
1782117429.909720,0.523000,1874443,1000,12,0,1,490.046,36.968,13.144,567.224,1.073,0.814
1782117429.910720,0.524000,1874444,1000,12,0,1,480.101,25.433,13.602,565.351,-0.924,0.823
1782117429.911720,0.525000,1874445,1000,12,0,1,467.178,8.007,13.381,564.222,-2.038,0.864
1782117429.912720,0.526000,1874446,1000,12,0,1,459.708,-0.069,13.075,566.023,-0.501,0.860
1782117429.913720,0.527000,1874447,1000,12,0,1,455.096,-5.391,12.919,567.945,1.567,0.887
1782117429.914720,0.528000,1874448,1000,12,0,1,452.093,-7.971,12.845,568.521,1.828,0.910
1782117429.915720,0.529000,1874449,1000,12,0,1,453.871,-6.960,12.799,566.263,-0.159,0.909
1782117429.916720,0.530000,1874450,1000,12,0,1,453.702,-6.321,12.727,567.753,0.181,0.909
1782117429.917720,0.531000,1874451,1000,12,0,1,456.465,-5.352,12.696,566.359,0.116,0.908
1782117429.918720,0.532000,1874452,1000,12,0,1,460.981,-1.353,12.622,565.783,-1.487,0.929
1782117429.919720,0.533000,1874453,1000,12,0,1,457.834,-4.307,12.571,565.543,-0.763,0.924
1782117429.920720,0.534000,1874454,1000,12,0,1,459.179,-5.403,12.576,565.711,-0.898,0.910
1782117429.921720,0.535000,1874455,1000,12,0,1,462.302,-1.465,12.544,567.512,0.925,0.918
1782117429.922720,0.536000,1874456,1000,12,0,1,466.650,1.140,12.512,567.128,0.991,0.928
1782117429.923720,0.537000,1874457,1000,12,0,1,480.630,12.470,12.633,563.813,-2.117,0.975
1782117429.924720,0.538000,1874458,1000,12,0,1,495.498,24.576,13.083,565.351,-1.192,0.974
1782117429.925720,0.539000,1874459,1000,12,0,1,495.546,22.594,13.446,566.888,1.086,0.986
1782117429.926720,0.540000,1874460,1000,12,0,1,487.355,11.181,13.358,567.560,1.247,0.994
1782117429.927720,0.541000,1874461,1000,12,0,1,467.899,-6.193,12.750,567.464,1.183,1.007
1782117429.928720,0.542000,1874462,1000,12,0,1,453.847,-19.978,12.506,566.431,-0.013,1.004
1782117429.929720,0.543000,1874463,1000,12,0,1,448.202,-20.611,12.522,566.576,-0.255,0.993
1782117429.930720,0.544000,1874464,1000,12,0,1,447.145,-17.887,12.459,566.215,-0.271,0.967
1782117429.931720,0.545000,1874465,1000,12,0,1,449.475,-11.766,12.324,566.768,-0.273,0.964
1782117429.932720,0.546000,1874466,1000,12,0,1,449.018,-8.603,12.192,565.567,-0.710,0.966
1782117429.933720,0.547000,1874467,1000,12,0,1,445.872,-9.676,12.227,565.807,-1.198,0.962
1782117429.934720,0.548000,1874468,1000,12,0,1,446.881,-7.506,12.248,566.864,0.366,0.951
1782117429.935720,0.549000,1874469,1000,12,0,1,448.058,-5.038,12.189,567.657,0.797,0.932
1782117429.936720,0.550000,1874470,1000,12,0,1,442.605,-8.724,12.224,566.480,0.063,0.921
1782117429.937720,0.551000,1874471,1000,12,0,1,437.753,-13.347,12.365,566.936,-0.125,0.919
1782117429.938720,0.552000,1874472,1000,12,0,1,430.523,-17.252,12.597,564.101,-1.639,0.946
1782117429.939720,0.553000,1874473,1000,12,0,1,425.959,-20.327,12.842,565.471,-1.508,0.960
1782117429.940720,0.554000,1874474,1000,12,0,1,432.660,-11.941,12.740,566.672,1.015,0.963
1782117429.941720,0.555000,1874475,1000,12,0,1,438.641,-3.115,12.565,567.440,1.005,0.974
1782117429.942720,0.556000,1874476,1000,12,0,1,453.726,9.362,12.514,567.104,1.138,0.987
1782117429.943720,0.557000,1874477,1000,12,0,1,472.583,27.094,13.036,566.455,0.146,0.986
1782117429.944720,0.558000,1874478,1000,12,0,1,482.335,33.188,13.804,565.086,-0.906,0.990
1782117429.945720,0.559000,1874479,1000,12,0,1,486.779,32.801,14.535,568.785,1.658,0.989
1782117429.946720,0.560000,1874480,1000,12,0,1,486.779,28.882,15.087,567.008,1.379,1.001
1782117429.947720,0.561000,1874481,1000,12,0,1,484.425,22.626,15.375,565.831,-1.262,1.014
1782117429.948720,0.562000,1874482,1000,12,0,1,484.425,19.428,15.593,565.831,-0.484,1.015
1782117429.949720,0.563000,1874483,1000,12,0,1,484.425,17.163,15.775,565.831,-0.785,1.017
1782117429.950720,0.564000,1874484,1000,12,0,1,458.747,-4.007,15.768,567.152,0.369,1.007
1782117429.951720,0.565000,1874485,1000,12,0,1,446.905,-19.517,16.004,565.639,-0.396,1.009
1782117429.952720,0.566000,1874486,1000,12,0,1,446.592,-13.538,16.097,567.128,-0.218,1.007
1782117429.953720,0.567000,1874487,1000,12,0,1,442.052,-15.713,16.173,566.504,0.561,1.003
1782117429.954720,0.568000,1874488,1000,12,0,1,433.117,-20.068,16.396,565.302,-1.583,1.021
1782117429.955720,0.569000,1874489,1000,12,0,1,426.391,-23.894,16.737,566.191,-0.214,1.021
1782117429.956720,0.570000,1874490,1000,12,0,1,421.899,-24.306,17.086,567.945,1.138,1.034
1782117429.957720,0.571000,1874491,1000,12,0,1,413.228,-27.700,17.484,567.392,1.055,1.027
1782117429.958720,0.572000,1874492,1000,12,0,1,404.748,-32.266,17.686,566.143,-0.510,1.028
1782117429.959720,0.573000,1874493,1000,12,0,1,405.973,-26.987,17.321,566.455,-0.246,1.017
1782117429.960720,0.574000,1874494,1000,12,0,1,412.123,-17.193,17.117,567.512,0.845,1.016
1782117429.961720,0.575000,1874495,1000,12,0,1,431.820,1.625,17.081,566.359,0.016,0.974
1782117429.962720,0.576000,1874496,1000,12,0,1,459.275,26.850,17.498,566.480,-0.292,0.972
1782117429.963720,0.577000,1874497,1000,12,0,1,492.760,51.869,18.958,564.894,-1.041,0.958
1782117429.964720,0.578000,1874498,1000,12,0,1,518.871,68.855,21.283,566.287,-0.522,0.925
1782117429.965720,0.579000,1874499,1000,12,0,1,524.059,63.688,23.089,566.023,0.334,0.926
1782117429.966720,0.580000,1874500,1000,12,0,1,519.711,47.992,24.050,567.921,0.947,0.936
1782117429.967720,0.581000,1874501,1000,12,0,1,510.776,32.059,24.462,566.263,0.614,0.939
1782117429.968720,0.582000,1874502,1000,12,0,1,500.230,16.042,24.566,568.425,0.802,0.923
1782117429.969720,0.583000,1874503,1000,12,0,1,486.491,1.690,24.559,570.227,3.407,1.035
1782117429.970720,0.584000,1874504,1000,12,0,1,476.474,-8.863,24.580,567.993,0.654,1.032
1782117429.971720,0.585000,1874505,1000,12,0,1,468.379,-13.544,24.653,566.407,-1.315,1.040
1782117429.972720,0.586000,1874506,1000,12,0,1,466.698,-13.811,24.730,565.519,-1.790,1.061
1782117429.973720,0.587000,1874507,1000,12,0,1,462.182,-13.602,24.742,567.392,-0.607,1.022
1782117429.974720,0.588000,1874508,1000,12,0,1,456.825,-17.256,24.618,565.519,-0.923,1.016
1782117429.975720,0.589000,1874509,1000,12,0,1,456.513,-15.592,24.509,565.903,-1.885,1.039
1782117429.976720,0.590000,1874510,1000,12,0,1,458.242,-12.662,24.523,564.798,-1.180,1.038
1782117429.977720,0.591000,1874511,1000,12,0,1,456.177,-13.865,24.586,567.104,-0.417,1.026
1782117429.978720,0.592000,1874512,1000,12,0,1,454.663,-15.942,24.527,566.960,1.159,1.039
1782117429.979720,0.593000,1874513,1000,12,0,1,455.192,-15.884,24.457,565.471,-1.165,1.051
1782117429.980720,0.594000,1874514,1000,12,0,1,455.792,-15.639,24.426,565.543,-0.636,1.054
1782117429.981720,0.595000,1874515,1000,12,0,1,455.624,-16.255,24.477,565.014,-0.820,1.060
1782117429.982720,0.596000,1874516,1000,12,0,1,460.813,-12.336,24.509,565.759,-0.361,1.056
1782117429.983720,0.597000,1874517,1000,12,0,1,470.061,-4.010,24.477,565.591,0.220,1.043
1782117429.984720,0.598000,1874518,1000,12,0,1,482.191,5.899,24.469,565.759,-0.186,1.042
1782117429.985720,0.599000,1874519,1000,12,0,1,485.121,8.761,24.490,566.624,1.025,1.046
1782117429.986720,0.600000,1874520,1000,12,0,1,485.842,6.928,24.478,567.344,1.281,1.062
1782117429.987720,0.601000,1874521,1000,12,0,1,491.247,11.330,24.458,567.128,1.201,1.075
1782117429.988720,0.602000,1874522,1000,12,0,1,490.430,11.519,24.390,569.362,2.297,1.099
1782117429.989720,0.603000,1874523,1000,12,0,1,489.253,9.420,24.257,567.921,1.697,1.104
1782117429.990720,0.604000,1874524,1000,12,0,1,487.812,9.713,24.237,567.584,-0.047,1.095
1782117429.991720,0.605000,1874525,1000,12,0,1,479.164,3.224,24.237,565.375,-1.053,1.096
1782117429.992720,0.606000,1874526,1000,12,0,1,469.436,-4.253,24.208,566.191,-1.455,1.103
1782117429.993720,0.607000,1874527,1000,12,0,1,462.542,-8.053,23.930,567.344,0.643,1.107
1782117429.994720,0.608000,1874528,1000,12,0,1,459.179,-8.680,23.498,565.927,-0.784,1.105
1782117429.995720,0.609000,1874529,1000,12,0,1,462.590,-4.117,23.043,567.945,0.472,1.082
1782117429.996720,0.610000,1874530,1000,12,0,1,467.875,1.726,22.679,566.576,0.444,1.066
1782117429.997720,0.611000,1874531,1000,12,0,1,478.131,8.644,22.485,566.287,-1.103,1.063
1782117429.998720,0.612000,1874532,1000,12,0,1,479.429,8.815,22.352,567.176,0.662,1.065
1782117429.999720,0.613000,1874533,1000,12,0,1,471.141,-3.167,22.224,565.951,-0.677,1.063
1782117430.000720,0.614000,1874534,1000,12,0,1,468.715,-9.237,22.255,565.230,-1.230,1.076
1782117430.001720,0.615000,1874535,1000,12,0,1,470.205,-9.383,22.123,565.879,-0.564,1.077
1782117430.002720,0.616000,1874536,1000,12,0,1,480.942,-3.034,22.044,565.639,-0.400,1.078
1782117430.003720,0.617000,1874537,1000,12,0,1,497.180,10.049,21.978,565.062,-0.937,1.084
1782117430.004720,0.618000,1874538,1000,12,0,1,494.490,6.708,21.815,567.705,1.103,1.072
1782117430.005720,0.619000,1874539,1000,12,0,1,489.685,-2.414,21.554,567.224,1.475,1.091
1782117430.006720,0.620000,1874540,1000,12,0,1,494.946,1.827,21.280,566.528,-0.201,1.080
1782117430.007720,0.621000,1874541,1000,12,0,1,495.811,3.775,20.923,567.632,1.000,1.079
1782117430.008720,0.622000,1874542,1000,12,0,1,488.749,-1.729,20.421,565.879,-0.429,1.078
1782117430.009720,0.623000,1874543,1000,12,0,1,481.711,-6.305,20.081,567.897,0.393,1.079
1782117430.010720,0.624000,1874544,1000,12,0,1,478.396,-6.245,19.953,567.921,1.473,1.092
1782117430.011720,0.625000,1874545,1000,12,0,1,477.507,-3.256,19.957,564.990,-1.845,1.123
1782117430.012720,0.626000,1874546,1000,12,0,1,476.162,-1.075,19.593,566.143,-1.021,1.132
1782117430.013720,0.627000,1874547,1000,12,0,1,478.083,2.590,18.171,567.512,0.843,1.128
1782117430.014720,0.628000,1874548,1000,12,0,1,482.239,7.730,15.381,568.281,1.189,1.138
1782117430.015720,0.629000,1874549,1000,12,0,1,478.468,5.169,12.489,565.206,-0.911,1.145
1782117430.016720,0.630000,1874550,1000,12,0,1,475.705,0.267,10.484,565.543,-1.694,1.162
1782117430.017720,0.631000,1874551,1000,12,0,1,483.800,5.427,9.485,564.702,-0.929,1.166
1782117430.018720,0.632000,1874552,1000,12,0,1,497.324,14.554,9.436,567.632,0.478,1.162
1782117430.019720,0.633000,1874553,1000,12,0,1,498.285,12.292,9.592,566.552,1.267,1.073
1782117430.020720,0.634000,1874554,1000,12,0,1,487.163,-3.226,9.521,565.519,-1.101,1.080
1782117430.021720,0.635000,1874555,1000,12,0,1,478.348,-15.314,9.574,566.888,0.734,1.069
1782117430.022720,0.636000,1874556,1000,12,0,1,466.265,-25.874,10.062,567.705,1.352,1.056
1782117430.023720,0.637000,1874557,1000,12,0,1,455.552,-35.104,11.054,566.023,-0.120,1.053
1782117430.024720,0.638000,1874558,1000,12,0,1,454.327,-32.533,11.722,568.017,0.881,1.052
1782117430.025720,0.639000,1874559,1000,12,0,1,450.340,-29.689,12.254,564.942,-0.709,1.023
1782117430.026720,0.640000,1874560,1000,12,0,1,444.190,-29.714,12.830,566.696,-0.906,1.017
1782117430.027720,0.641000,1874561,1000,12,0,1,450.460,-18.508,12.947,566.047,0.332,1.016
1782117430.028720,0.642000,1874562,1000,12,0,1,472.559,6.664,12.784,566.431,-0.756,1.009
1782117430.029720,0.643000,1874563,1000,12,0,1,499.534,34.052,13.475,566.768,0.487,0.998
1782117430.030720,0.644000,1874564,1000,12,0,1,503.858,39.706,14.430,566.263,-0.373,0.995
1782117430.031720,0.645000,1874565,1000,12,0,1,518.702,44.608,15.580,567.657,0.650,0.992
1782117430.032720,0.646000,1874566,1000,12,0,1,551.851,69.892,18.368,568.737,1.965,1.029
1782117430.033720,0.647000,1874567,1000,12,0,1,565.182,74.722,21.183,569.074,1.603,1.054
1782117430.034720,0.648000,1874568,1000,12,0,1,545.053,46.262,22.155,568.305,1.122,1.065
1782117430.035720,0.649000,1874569,1000,12,0,1,522.378,14.165,22.211,567.008,-0.628,1.059
1782117430.036720,0.650000,1874570,1000,12,0,1,511.112,-1.720,22.190,565.375,-1.663,1.069
1782117430.037720,0.651000,1874571,1000,12,0,1,504.770,-10.281,22.180,565.038,-2.169,1.100
1782117430.038720,0.652000,1874572,1000,12,0,1,498.141,-17.895,22.265,567.632,0.474,1.053
1782117430.039720,0.653000,1874573,1000,12,0,1,492.664,-23.553,22.473,568.161,1.423,1.044
1782117430.040720,0.654000,1874574,1000,12,0,1,484.545,-30.049,22.830,566.023,-0.678,1.049
1782117430.041720,0.655000,1874575,1000,12,0,1,479.501,-33.834,23.321,565.807,-1.180,1.052
1782117430.042720,0.656000,1874576,1000,12,0,1,481.759,-29.773,23.691,564.990,-1.290,1.047
1782117430.043720,0.657000,1874577,1000,12,0,1,483.128,-25.209,23.931,566.431,-0.487,1.046
1782117430.044720,0.658000,1874578,1000,12,0,1,483.128,-23.304,24.125,566.431,0.377,1.041
1782117430.045720,0.659000,1874579,1000,12,0,1,483.128,-20.331,24.289,566.431,-0.287,1.040
1782117430.046720,0.660000,1874580,1000,12,0,1,505.083,-1.683,24.289,569.722,2.487,1.096
1782117430.047720,0.661000,1874581,1000,12,0,1,526.389,21.225,24.443,566.431,0.412,1.086
1782117430.048720,0.662000,1874582,1000,12,0,1,527.230,19.770,24.571,565.663,-2.045,1.120
1782117430.049720,0.663000,1874583,1000,12,0,1,523.723,13.024,24.636,566.864,0.200,1.116
1782117430.050720,0.664000,1874584,1000,12,0,1,521.753,9.754,24.640,564.798,-1.745,1.130
1782117430.051720,0.665000,1874585,1000,12,0,1,526.365,11.601,24.659,566.167,-0.895,1.134
1782117430.052720,0.666000,1874586,1000,12,0,1,528.046,13.668,24.731,566.840,0.637,1.136
1782117430.053720,0.667000,1874587,1000,12,0,1,520.264,5.337,24.701,566.311,-0.261,1.129
1782117430.054720,0.668000,1874588,1000,12,0,1,533.667,12.940,24.751,566.936,0.485,1.121
1782117430.055720,0.669000,1874589,1000,12,0,1,538.255,19.818,24.907,567.320,0.841,1.107
1782117430.056720,0.670000,1874590,1000,12,0,1,526.965,4.871,24.915,567.320,0.819,1.113
1782117430.057720,0.671000,1874591,1000,12,0,1,516.925,-6.166,24.924,565.639,-0.507,1.106
1782117430.058720,0.672000,1874592,1000,12,0,1,510.631,-12.840,24.989,564.822,-1.470,1.124
1782117430.059720,0.673000,1874593,1000,12,0,1,508.854,-14.695,25.060,565.903,-0.202,1.123
1782117430.060720,0.674000,1874594,1000,12,0,1,510.800,-12.509,25.106,566.504,0.602,1.107
1782117430.061720,0.675000,1874595,1000,12,0,1,509.623,-13.211,25.172,567.657,1.381,1.093
1782117430.062720,0.676000,1874596,1000,12,0,1,508.902,-14.322,25.252,568.113,1.866,1.115
1782117430.063720,0.677000,1874597,1000,12,0,1,511.953,-11.845,25.305,567.897,1.214,1.122
1782117430.064720,0.678000,1874598,1000,12,0,1,510.800,-11.729,25.336,568.834,1.639,1.133
1782117430.065720,0.679000,1874599,1000,12,0,1,507.773,-14.844,25.412,569.482,2.021,1.162
1782117430.066720,0.680000,1874600,1000,12,0,1,503.545,-16.659,25.521,568.281,0.629,1.140
1782117430.067720,0.681000,1874601,1000,12,0,1,495.354,-21.608,25.692,566.335,-1.413,1.150
1782117430.068720,0.682000,1874602,1000,12,0,1,488.701,-24.199,25.837,565.423,-2.307,1.194
1782117430.069720,0.683000,1874603,1000,12,0,1,490.358,-18.580,25.912,565.038,-2.286,1.224
1782117430.070720,0.684000,1874604,1000,12,0,1,491.607,-11.538,25.960,565.951,-1.360,1.229
1782117430.071720,0.685000,1874605,1000,12,0,1,496.387,-4.194,25.876,564.606,-1.730,1.249
1782117430.072720,0.686000,1874606,1000,12,0,1,504.915,7.158,25.636,565.903,-1.142,1.244
1782117430.073720,0.687000,1874607,1000,12,0,1,511.352,14.681,25.236,566.191,0.257,1.245
1782117430.074720,0.688000,1874608,1000,12,0,1,511.736,15.677,24.912,564.750,-1.318,1.253
1782117430.075720,0.689000,1874609,1000,12,0,1,496.964,3.707,24.561,566.215,-0.035,1.249
1782117430.076720,0.690000,1874610,1000,12,0,1,478.083,-13.443,24.274,568.065,2.034,1.275
1782117430.077720,0.691000,1874611,1000,12,0,1,475.585,-14.092,24.214,566.480,0.672,1.277
1782117430.078720,0.692000,1874612,1000,12,0,1,469.940,-13.132,24.267,565.110,-0.940,1.280
1782117430.079720,0.693000,1874613,1000,12,0,1,455.552,-22.976,24.005,566.239,0.045,1.278
1782117430.080720,0.694000,1874614,1000,12,0,1,448.010,-26.066,23.629,564.774,-0.550,1.279
1782117430.081720,0.695000,1874615,1000,12,0,1,453.775,-16.629,22.892,566.287,-0.128,1.276
1782117430.082720,0.696000,1874616,1000,12,0,1,476.402,5.832,20.665,564.318,-0.402,1.247
1782117430.083720,0.697000,1874617,1000,12,0,1,514.475,39.065,18.598,562.780,-2.846,1.290
1782117430.084720,0.698000,1874618,1000,12,0,1,542.291,60.549,19.401,564.558,-0.472,1.282
1782117430.085720,0.699000,1874619,1000,12,0,1,548.416,56.862,20.906,567.152,1.851,1.306
1782117430.086720,0.700000,1874620,1000,12,0,1,530.376,32.247,21.396,564.966,0.515,1.287
1782117430.087720,0.701000,1874621,1000,12,0,1,519.423,11.984,21.414,564.870,-0.637,1.253
1782117430.088720,0.702000,1874622,1000,12,0,1,509.214,2.077,21.266,566.095,1.077,1.260
1782117430.089720,0.703000,1874623,1000,12,0,1,485.338,-19.470,21.183,563.981,-0.616,1.247
1782117430.090720,0.704000,1874624,1000,12,0,1,484.953,-21.109,20.966,564.342,-0.957,1.251
1782117430.091720,0.705000,1874625,1000,12,0,1,498.477,-2.240,20.415,566.864,1.898,1.268
1782117430.092720,0.706000,1874626,1000,12,0,1,517.117,14.711,20.084,567.056,1.974,1.286
1782117430.093720,0.707000,1874627,1000,12,0,1,534.964,31.701,20.268,565.927,0.781,1.289
1782117430.094720,0.708000,1874628,1000,12,0,1,534.964,29.433,20.426,565.927,0.375,1.289
1782117430.095720,0.709000,1874629,1000,12,0,1,534.964,23.024,20.483,565.927,0.606,1.291
1782117430.096720,0.710000,1874630,1000,12,0,1,519.951,9.249,20.524,564.582,-0.619,1.245
1782117430.097720,0.711000,1874631,1000,12,0,1,494.177,-17.858,20.460,565.591,-0.024,1.244
1782117430.098720,0.712000,1874632,1000,12,0,1,481.446,-29.092,20.681,564.390,-0.280,1.210
1782117430.099720,0.713000,1874633,1000,12,0,1,479.164,-27.899,20.973,565.038,-0.509,1.212
1782117430.100720,0.714000,1874634,1000,12,0,1,484.665,-20.506,21.128,564.510,0.030,1.187
1782117430.101720,0.715000,1874635,1000,12,0,1,483.152,-17.689,21.212,564.414,-0.720,1.184
1782117430.102720,0.716000,1874636,1000,12,0,1,486.106,-16.074,21.246,564.222,-0.263,1.181
1782117430.103720,0.717000,1874637,1000,12,0,1,498.333,-3.652,21.239,564.438,-0.350,1.182
1782117430.104720,0.718000,1874638,1000,12,0,1,493.505,-5.986,21.177,566.744,1.636,1.202
1782117430.105720,0.719000,1874639,1000,12,0,1,480.005,-19.614,21.173,568.737,3.428,1.291
1782117430.106720,0.720000,1874640,1000,12,0,1,486.226,-14.414,21.260,566.648,1.335,1.300
1782117430.107720,0.721000,1874641,1000,12,0,1,513.826,11.286,21.302,565.278,-0.697,1.301
1782117430.108720,0.722000,1874642,1000,12,0,1,531.962,28.903,21.614,564.582,-1.106,1.294
1782117430.109720,0.723000,1874643,1000,12,0,1,526.197,20.901,21.716,564.558,-1.203,1.305
1782117430.110720,0.724000,1874644,1000,12,0,1,513.586,5.837,21.660,563.165,-1.917,1.330
1782117430.111720,0.725000,1874645,1000,12,0,1,498.381,-7.302,21.604,564.894,-0.793,1.320
1782117430.112720,0.726000,1874646,1000,12,0,1,480.750,-20.791,21.708,563.477,-0.761,1.298
1782117430.113720,0.727000,1874647,1000,12,0,1,465.833,-29.072,22.031,564.918,-0.571,1.289
1782117430.114720,0.728000,1874648,1000,12,0,1,453.270,-32.929,22.456,566.071,1.636,1.289
1782117430.115720,0.729000,1874649,1000,12,0,1,442.509,-34.226,22.876,565.038,0.246,1.258
1782117430.116720,0.730000,1874650,1000,12,0,1,462.086,-12.506,22.823,563.261,-1.162,1.265
1782117430.117720,0.731000,1874651,1000,12,0,1,520.240,42.630,23.407,562.876,-1.530,1.268
1782117430.118720,0.732000,1874652,1000,12,0,1,560.931,79.684,25.752,562.276,-1.547,1.245
1782117430.119720,0.733000,1874653,1000,12,0,1,568.545,74.472,27.698,562.108,-1.457,1.219
1782117430.120720,0.734000,1874654,1000,12,0,1,554.133,49.241,28.514,564.918,0.956,1.212
1782117430.121720,0.735000,1874655,1000,12,0,1,532.322,17.309,28.612,567.032,3.380,1.279
1782117430.122720,0.736000,1874656,1000,12,0,1,532.514,7.195,28.612,564.438,0.841,1.275
1782117430.123720,0.737000,1874657,1000,12,0,1,533.115,5.601,28.548,563.165,-0.990,1.282
1782117430.124720,0.738000,1874658,1000,12,0,1,520.552,-10.353,28.499,564.942,0.635,1.272
1782117430.125720,0.739000,1874659,1000,12,0,1,505.155,-25.694,28.725,566.071,1.829,1.298
1782117430.126720,0.740000,1874660,1000,12,0,1,490.814,-37.184,29.141,563.525,-0.396,1.266
1782117430.127720,0.741000,1874661,1000,12,0,1,481.975,-41.205,29.651,562.516,-1.866,1.290
1782117430.128720,0.742000,1874662,1000,12,0,1,481.711,-35.608,30.018,564.678,0.314,1.284
1782117430.129720,0.743000,1874663,1000,12,0,1,493.361,-19.839,29.973,565.327,1.296,1.297
1782117430.130720,0.744000,1874664,1000,12,0,1,504.242,-3.903,29.751,565.375,0.914,1.301
1782117430.131720,0.745000,1874665,1000,12,0,1,507.653,1.758,29.659,563.789,-0.185,1.301
1782117430.132720,0.746000,1874666,1000,12,0,1,501.576,-1.005,29.648,563.261,-1.146,1.310
1782117430.133720,0.747000,1874667,1000,12,0,1,491.103,-8.965,29.156,564.318,0.195,1.247
1782117430.134720,0.748000,1874668,1000,12,0,1,487.283,-10.337,27.908,564.630,0.595,1.248
1782117430.135720,0.749000,1874669,1000,12,0,1,489.133,-5.461,26.736,565.591,1.220,1.233
1782117430.136720,0.750000,1874670,1000,12,0,1,487.259,-4.190,26.351,563.573,-0.067,1.230
1782117430.137720,0.751000,1874671,1000,12,0,1,483.536,-6.164,26.311,563.645,-0.896,1.234
1782117430.138720,0.752000,1874672,1000,12,0,1,494.057,2.598,26.312,563.261,-0.271,1.225
1782117430.139720,0.753000,1874673,1000,12,0,1,517.237,22.985,26.368,560.835,-2.587,1.275
1782117430.140720,0.754000,1874674,1000,12,0,1,530.473,32.658,26.603,562.108,-1.521,1.286
1782117430.141720,0.755000,1874675,1000,12,0,1,553.749,43.436,27.301,564.918,1.587,1.278
1782117430.142720,0.756000,1874676,1000,12,0,1,567.873,51.049,28.163,564.966,1.687,1.269
1782117430.143720,0.757000,1874677,1000,12,0,1,546.206,23.206,27.996,565.591,1.623,1.285
1782117430.144720,0.758000,1874678,1000,12,0,1,514.475,-13.516,27.751,563.261,-0.058,1.284
1782117430.145720,0.759000,1874679,1000,12,0,1,495.378,-32.212,27.933,563.741,-0.726,1.286
1782117430.146720,0.760000,1874680,1000,12,0,1,483.368,-39.102,28.445,565.230,1.310,1.296
1782117430.147720,0.761000,1874681,1000,12,0,1,471.286,-43.256,28.986,563.981,0.029,1.296
1782117430.148720,0.762000,1874682,1000,12,0,1,462.614,-43.684,29.350,563.621,-0.662,1.299
1782117430.149720,0.763000,1874683,1000,12,0,1,473.592,-27.121,29.336,561.940,-1.532,1.315
1782117430.150720,0.764000,1874684,1000,12,0,1,485.698,-6.972,29.208,563.021,-1.199,1.325
1782117430.151720,0.765000,1874685,1000,12,0,1,488.773,-0.117,29.101,564.222,0.888,1.328
1782117430.152720,0.766000,1874686,1000,12,0,1,487.331,1.595,29.013,566.071,1.850,1.353
1782117430.153720,0.767000,1874687,1000,12,0,1,489.637,4.684,29.016,564.077,0.911,1.358
1782117430.154720,0.768000,1874688,1000,12,0,1,493.168,9.319,29.034,562.156,-1.785,1.362
1782117430.155720,0.769000,1874689,1000,12,0,1,493.721,9.826,28.934,563.309,-0.365,1.273
1782117430.156720,0.770000,1874690,1000,12,0,1,497.660,11.458,28.908,564.077,0.633,1.262
1782117430.157720,0.771000,1874691,1000,12,0,1,515.964,24.498,29.071,564.606,0.901,1.265
1782117430.158720,0.772000,1874692,1000,12,0,1,531.674,35.859,29.225,562.948,-0.171,1.256
1782117430.159720,0.773000,1874693,1000,12,0,1,521.897,22.815,29.254,565.399,0.886,1.250
1782117430.160720,0.774000,1874694,1000,12,0,1,503.593,-0.590,29.243,562.997,0.350,1.221
1782117430.161720,0.775000,1874695,1000,12,0,1,490.598,-14.082,29.292,560.498,-3.358,1.306
1782117430.162720,0.776000,1874696,1000,12,0,1,482.719,-20.826,29.293,562.492,-0.840,1.307
1782117430.163720,0.777000,1874697,1000,12,0,1,484.137,-17.677,29.110,562.252,-0.483,1.306
1782117430.164720,0.778000,1874698,1000,12,0,1,488.100,-10.567,28.774,562.660,-0.552,1.288
1782117430.165720,0.779000,1874699,1000,12,0,1,485.698,-9.583,28.396,562.180,-0.255,1.288
1782117430.166720,0.780000,1874700,1000,12,0,1,485.434,-8.165,28.365,563.693,0.315,1.278
1782117430.167720,0.781000,1874701,1000,12,0,1,495.330,2.611,27.719,563.021,0.732,1.264
1782117430.168720,0.782000,1874702,1000,12,0,1,499.486,9.488,25.361,562.997,-0.302,1.245
1782117430.169720,0.783000,1874703,1000,12,0,1,486.995,-0.348,23.070,564.390,1.431,1.245
1782117430.170720,0.784000,1874704,1000,12,0,1,478.372,-8.453,22.027,563.549,0.640,1.241
1782117430.171720,0.785000,1874705,1000,12,0,1,473.399,-9.016,21.927,563.549,0.197,1.145
1782117430.172720,0.786000,1874706,1000,12,0,1,474.024,-6.828,21.925,561.387,-1.032,1.148
1782117430.173720,0.787000,1874707,1000,12,0,1,480.437,1.743,21.912,560.546,-2.361,1.188
1782117430.174720,0.788000,1874708,1000,12,0,1,489.349,10.291,21.911,560.114,-1.675,1.208
1782117430.175720,0.789000,1874709,1000,12,0,1,491.343,12.419,21.679,560.691,-1.284,1.194
1782117430.176720,0.790000,1874710,1000,12,0,1,487.716,7.067,21.056,562.396,0.851,1.198
1782117430.177720,0.791000,1874711,1000,12,0,1,473.279,-5.737,20.249,562.997,1.500,1.188
1782117430.178720,0.792000,1874712,1000,12,0,1,462.662,-16.839,19.757,561.747,0.423,1.189
1782117430.179720,0.793000,1874713,1000,12,0,1,456.729,-19.063,19.742,562.780,0.833,1.180
1782117430.180720,0.794000,1874714,1000,12,0,1,464.896,-11.143,19.797,562.348,0.995,1.182
1782117430.181720,0.795000,1874715,1000,12,0,1,468.355,-2.986,19.800,561.988,0.060,1.181
1782117430.182720,0.796000,1874716,1000,12,0,1,465.449,-5.450,19.815,565.278,2.686,1.230
1782117430.183720,0.797000,1874717,1000,12,0,1,468.019,-2.059,19.776,563.909,2.126,1.266
1782117430.184720,0.798000,1874718,1000,12,0,1,492.087,18.122,19.888,563.861,0.462,1.265
1782117430.185720,0.799000,1874719,1000,12,0,1,510.223,35.953,20.513,564.198,1.433,1.270
1782117430.186720,0.800000,1874720,1000,12,0,1,515.339,35.377,21.106,564.606,0.877,1.276
1782117430.187720,0.801000,1874721,1000,12,0,1,525.116,37.648,21.750,562.612,-0.352,1.270
1782117430.188720,0.802000,1874722,1000,12,0,1,522.570,32.594,22.230,561.868,-1.818,1.296
1782117430.189720,0.803000,1874723,1000,12,0,1,514.162,17.761,22.134,562.588,-0.617,1.246
1782117430.190720,0.804000,1874724,1000,12,0,1,508.229,10.109,21.694,562.228,-0.733,1.232
1782117430.191720,0.805000,1874725,1000,12,0,1,499.534,0.258,20.806,562.084,-0.899,1.218
1782117430.192720,0.806000,1874726,1000,12,0,1,496.579,-3.679,19.520,563.501,0.526,1.196
1782117430.193720,0.807000,1874727,1000,12,0,1,496.723,-2.886,19.247,562.564,0.072,1.174
1782117430.194720,0.808000,1874728,1000,12,0,1,496.796,-3.006,19.156,563.165,0.072,1.174
1782117430.195720,0.809000,1874729,1000,12,0,1,502.657,1.203,18.607,562.156,-0.135,1.170
1782117430.196720,0.810000,1874730,1000,12,0,1,489.613,-7.909,17.802,562.252,-0.673,1.159
1782117430.197720,0.811000,1874731,1000,12,0,1,473.423,-25.250,17.095,562.324,-0.021,1.159
1782117430.198720,0.812000,1874732,1000,12,0,1,466.169,-28.735,16.449,562.060,-0.466,1.157
1782117430.199720,0.813000,1874733,1000,12,0,1,458.531,-31.863,16.619,562.540,-0.006,1.137
1782117430.200720,0.814000,1874734,1000,12,0,1,449.571,-35.593,17.336,560.210,-1.536,1.145
1782117430.201720,0.815000,1874735,1000,12,0,1,446.016,-34.153,17.996,561.579,-1.229,1.151
1782117430.202720,0.816000,1874736,1000,12,0,1,457.810,-19.962,18.215,564.894,2.571,1.178
1782117430.203720,0.817000,1874737,1000,12,0,1,504.146,21.406,18.453,564.101,1.691,1.195
1782117430.204720,0.818000,1874738,1000,12,0,1,558.072,68.821,20.821,562.180,-0.502,1.171
1782117430.205720,0.819000,1874739,1000,12,0,1,557.087,63.919,22.656,561.435,-1.280,1.183
1782117430.206720,0.820000,1874740,1000,12,0,1,526.221,22.135,22.814,562.564,-0.303,1.181
1782117430.207720,0.821000,1874741,1000,12,0,1,502.272,-5.075,22.560,562.156,-0.135,1.174
1782117430.208720,0.822000,1874742,1000,12,0,1,489.998,-17.679,22.125,562.660,-0.168,1.174
1782117430.209720,0.823000,1874743,1000,12,0,1,483.272,-20.436,22.078,563.621,1.093,1.178
1782117430.210720,0.824000,1874744,1000,12,0,1,480.630,-19.200,22.244,562.828,0.334,1.177
1782117430.211720,0.825000,1874745,1000,12,0,1,471.526,-21.161,22.356,562.036,-0.509,1.080
1782117430.212720,0.826000,1874746,1000,12,0,1,469.460,-19.990,22.341,562.636,0.049,1.073
1782117430.213720,0.827000,1874747,1000,12,0,1,468.835,-13.699,22.285,561.699,-0.369,1.072
1782117430.214720,0.828000,1874748,1000,12,0,1,469.124,-10.204,22.282,564.246,1.183,1.083
1782117430.215720,0.829000,1874749,1000,12,0,1,469.748,-5.684,22.255,563.045,1.273,1.097
1782117430.216720,0.830000,1874750,1000,12,0,1,466.337,-6.084,22.242,563.861,0.471,1.098
1782117430.217720,0.831000,1874751,1000,12,0,1,462.782,-8.085,22.268,562.876,0.750,1.098
1782117430.218720,0.832000,1874752,1000,12,0,1,463.095,-6.294,22.245,564.198,0.512,1.100
1782117430.219720,0.833000,1874753,1000,12,0,1,479.909,7.028,22.267,564.294,1.515,1.102
1782117430.220720,0.834000,1874754,1000,12,0,1,499.798,25.070,22.516,563.765,0.121,1.098
1782117430.221720,0.835000,1874755,1000,12,0,1,513.322,31.705,22.923,564.318,0.570,1.101
1782117430.222720,0.836000,1874756,1000,12,0,1,518.678,30.895,23.316,564.630,0.755,1.097
1782117430.223720,0.837000,1874757,1000,12,0,1,503.497,12.392,23.380,562.324,-1.340,1.061
1782117430.224720,0.838000,1874758,1000,12,0,1,496.964,-1.238,23.335,560.018,-3.440,1.143
1782117430.225720,0.839000,1874759,1000,12,0,1,500.351,1.787,23.271,565.639,0.793,1.134
1782117430.226720,0.840000,1874760,1000,12,0,1,493.769,-4.066,23.256,564.558,1.989,1.163
1782117430.227720,0.841000,1874761,1000,12,0,1,483.968,-12.701,23.311,562.468,-1.956,1.176
1782117430.228720,0.842000,1874762,1000,12,0,1,477.483,-15.833,23.297,561.747,-1.384,1.191
1782117430.229720,0.843000,1874763,1000,12,0,1,475.922,-13.753,23.222,563.141,-0.849,1.191
1782117430.230720,0.844000,1874764,1000,12,0,1,487.043,-0.849,23.169,562.780,-0.060,1.183
1782117430.231720,0.845000,1874765,1000,12,0,1,499.005,13.561,23.245,562.852,-0.621,1.186
1782117430.232720,0.846000,1874766,1000,12,0,1,485.770,4.946,23.242,562.948,-0.003,1.123
1782117430.233720,0.847000,1874767,1000,12,0,1,454.879,-22.117,23.450,563.045,-0.030,1.082
1782117430.234720,0.848000,1874768,1000,12,0,1,439.915,-33.475,23.785,563.837,0.621,1.084
1782117430.235720,0.849000,1874769,1000,12,0,1,443.494,-23.842,23.479,563.069,0.308,1.066
1782117430.236720,0.850000,1874770,1000,12,0,1,453.102,-10.016,22.983,563.957,0.343,1.060
1782117430.237720,0.851000,1874771,1000,12,0,1,467.827,5.141,22.370,563.597,0.778,1.064
1782117430.238720,0.852000,1874772,1000,12,0,1,482.599,18.310,22.043,564.149,0.312,1.034
1782117430.239720,0.853000,1874773,1000,12,0,1,487.211,19.981,22.081,564.149,0.914,1.038
1782117430.240720,0.854000,1874774,1000,12,0,1,485.314,13.462,22.116,561.699,-1.581,1.057
1782117430.241720,0.855000,1874775,1000,12,0,1,480.365,5.295,22.129,561.267,-2.132,1.091
1782117430.242720,0.856000,1874776,1000,12,0,1,471.862,-4.821,22.133,562.900,-0.324,1.090
1782117430.243720,0.857000,1874777,1000,12,0,1,464.392,-12.670,22.202,561.195,-1.218,1.103
1782117430.244720,0.858000,1874778,1000,12,0,1,454.831,-19.173,22.363,560.426,-2.307,1.151
1782117430.245720,0.859000,1874779,1000,12,0,1,442.269,-27.164,22.690,561.651,-0.672,1.154
1782117430.246720,0.860000,1874780,1000,12,0,1,442.245,-23.546,22.906,561.339,-0.498,1.153
1782117430.247720,0.861000,1874781,1000,12,0,1,453.054,-7.598,22.651,562.732,0.376,1.154
1782117430.248720,0.862000,1874782,1000,12,0,1,450.580,-2.973,22.288,564.077,2.074,1.189
1782117430.249720,0.863000,1874783,1000,12,0,1,441.476,-8.155,21.858,561.627,-0.122,1.189
1782117430.250720,0.864000,1874784,1000,12,0,1,450.003,2.210,21.273,562.252,-0.302,1.170
1782117430.251720,0.865000,1874785,1000,12,0,1,468.884,23.064,20.972,564.774,2.407,1.206
1782117430.252720,0.866000,1874786,1000,12,0,1,496.003,45.560,21.757,563.141,1.109,1.160
1782117430.253720,0.867000,1874787,1000,12,0,1,515.988,60.808,23.198,562.420,-0.333,1.136
1782117430.254720,0.868000,1874788,1000,12,0,1,521.945,57.548,22.576,561.675,-0.429,1.136
1782117430.255720,0.869000,1874789,1000,12,0,1,517.285,44.343,21.617,562.636,-0.098,1.121
1782117430.256720,0.870000,1874790,1000,12,0,1,498.525,19.883,21.573,564.294,1.829,1.150
1782117430.257720,0.871000,1874791,1000,12,0,1,490.262,3.411,21.566,565.519,2.500,1.203
1782117430.258720,0.872000,1874792,1000,12,0,1,488.388,-0.117,21.421,562.876,0.407,1.204
1782117430.259720,0.873000,1874793,1000,12,0,1,490.286,-2.964,21.229,562.540,-0.966,1.202
1782117430.260720,0.874000,1874794,1000,12,0,1,495.787,0.017,21.055,563.645,0.593,1.204
1782117430.261720,0.875000,1874795,1000,12,0,1,497.252,-1.264,20.842,564.558,1.080,1.211
1782117430.262720,0.876000,1874796,1000,12,0,1,483.392,-14.379,20.749,565.351,1.656,1.234
1782117430.263720,0.877000,1874797,1000,12,0,1,480.798,-20.544,20.862,563.477,0.050,1.233
1782117430.264720,0.878000,1874798,1000,12,0,1,484.473,-14.102,20.907,561.916,-1.948,1.252
1782117430.265720,0.879000,1874799,1000,12,0,1,506.956,3.036,20.896,563.237,-0.606,1.242
1782117430.266720,0.880000,1874800,1000,12,0,1,518.991,17.368,21.022,562.780,-0.557,1.242
1782117430.267720,0.881000,1874801,1000,12,0,1,506.980,3.380,20.997,561.219,-2.032,1.271
1782117430.268720,0.882000,1874802,1000,12,0,1,484.209,-17.777,21.128,565.278,1.036,1.277
1782117430.269720,0.883000,1874803,1000,12,0,1,461.821,-35.637,21.698,563.981,1.376,1.274
1782117430.270720,0.884000,1874804,1000,12,0,1,448.778,-42.473,22.233,562.636,-1.429,1.290
1782117430.271720,0.885000,1874805,1000,12,0,1,450.388,-33.601,22.289,563.909,0.394,1.289
1782117430.272720,0.886000,1874806,1000,12,0,1,464.944,-14.522,21.953,565.158,1.197,1.295
1782117430.273720,0.887000,1874807,1000,12,0,1,478.876,3.743,21.889,564.486,0.774,1.286
1782117430.274720,0.888000,1874808,1000,12,0,1,484.185,9.486,21.929,564.005,-0.138,1.191
1782117430.275720,0.889000,1874809,1000,12,0,1,479.741,5.893,21.944,563.981,-0.123,1.185
1782117430.276720,0.890000,1874810,1000,12,0,1,471.382,-3.094,21.940,564.198,0.037,1.152
1782117430.277720,0.891000,1874811,1000,12,0,1,462.710,-10.390,21.916,564.942,0.526,1.120
1782117430.278720,0.892000,1874812,1000,12,0,1,470.469,-5.200,21.814,562.708,-0.946,1.111
1782117430.279720,0.893000,1874813,1000,12,0,1,476.882,3.573,21.733,562.756,-1.751,1.132
1782117430.280720,0.894000,1874814,1000,12,0,1,475.465,0.453,21.733,563.069,-0.469,1.134
1782117430.281720,0.895000,1874815,1000,12,0,1,477.843,1.251,21.649,562.660,-1.140,1.142
1782117430.282720,0.896000,1874816,1000,12,0,1,490.862,10.941,21.692,563.909,0.142,1.142
1782117430.283720,0.897000,1874817,1000,12,0,1,495.811,15.446,21.577,563.261,-0.035,1.142
1782117430.284720,0.898000,1874818,1000,12,0,1,493.937,10.311,21.101,563.741,-0.175,1.139
1782117430.285720,0.899000,1874819,1000,12,0,1,494.538,8.713,20.867,563.285,0.053,1.138
1782117430.286720,0.900000,1874820,1000,12,0,1,499.246,11.432,20.881,564.222,0.158,1.137
1782117430.287720,0.901000,1874821,1000,12,0,1,498.093,10.165,20.918,564.870,1.276,1.146
1782117430.288720,0.902000,1874822,1000,12,0,1,485.554,-0.974,20.758,563.597,-0.192,1.146
1782117430.289720,0.903000,1874823,1000,12,0,1,486.202,-2.639,20.568,562.636,-1.145,1.150
1782117430.290720,0.904000,1874824,1000,12,0,1,503.954,14.816,20.586,562.540,-1.107,1.139
1782117430.291720,0.905000,1874825,1000,12,0,1,507.821,19.677,20.760,564.174,0.273,1.099
1782117430.292720,0.906000,1874826,1000,12,0,1,497.540,7.811,20.778,566.023,2.141,1.139
1782117430.293720,0.907000,1874827,1000,12,0,1,486.419,-3.662,20.707,564.798,1.018,1.135
1782117430.294720,0.908000,1874828,1000,12,0,1,485.194,-5.942,20.546,563.669,-0.512,1.090
1782117430.295720,0.909000,1874829,1000,12,0,1,482.912,-6.089,20.202,562.612,-1.193,1.098
1782117430.296720,0.910000,1874830,1000,12,0,1,470.541,-16.352,20.060,562.540,-1.350,1.113
1782117430.297720,0.911000,1874831,1000,12,0,1,459.948,-25.324,20.349,565.062,0.959,1.120
1782117430.298720,0.912000,1874832,1000,12,0,1,454.039,-27.433,20.711,565.423,1.764,1.109
1782117430.299720,0.913000,1874833,1000,12,0,1,450.219,-27.594,21.044,565.351,0.983,1.118
1782117430.300720,0.914000,1874834,1000,12,0,1,453.823,-21.398,21.258,564.990,0.817,1.123
1782117430.301720,0.915000,1874835,1000,12,0,1,460.356,-12.067,21.075,565.327,0.565,1.073
1782117430.302720,0.916000,1874836,1000,12,0,1,470.565,-1.869,20.068,564.125,-0.141,1.062
1782117430.303720,0.917000,1874837,1000,12,0,1,477.915,6.146,18.153,562.276,-2.116,1.102
1782117430.304720,0.918000,1874838,1000,12,0,1,488.845,13.666,16.341,562.997,-1.440,1.119
1782117430.305720,0.919000,1874839,1000,12,0,1,504.506,26.028,15.532,563.957,-0.092,1.119
1782117430.306720,0.920000,1874840,1000,12,0,1,504.458,24.701,15.670,564.702,0.414,1.090
1782117430.307720,0.921000,1874841,1000,12,0,1,493.409,10.638,15.735,566.143,1.638,1.057
1782117430.308720,0.922000,1874842,1000,12,0,1,498.717,11.682,15.821,565.182,0.843,1.062
1782117430.309720,0.923000,1874843,1000,12,0,1,494.057,10.487,15.885,565.038,0.027,1.053
1782117430.310720,0.924000,1874844,1000,12,0,1,480.510,-3.720,15.894,565.615,0.684,1.054
1782117430.311720,0.925000,1874845,1000,12,0,1,477.723,-5.237,15.910,564.101,-0.640,1.047
1782117430.312720,0.926000,1874846,1000,12,0,1,482.287,1.135,15.780,564.726,-0.628,1.025
1782117430.313720,0.927000,1874847,1000,12,0,1,484.713,5.065,15.527,564.414,-0.199,1.025
1782117430.314720,0.928000,1874848,1000,12,0,1,479.308,1.466,15.400,565.879,0.330,0.988
1782117430.315720,0.929000,1874849,1000,12,0,1,474.096,-3.963,15.404,563.837,-0.388,0.986
1782117430.316720,0.930000,1874850,1000,12,0,1,476.906,-1.245,15.208,564.822,-0.878,0.991
1782117430.317720,0.931000,1874851,1000,12,0,1,479.789,1.664,15.202,564.894,0.521,0.951
1782117430.318720,0.932000,1874852,1000,12,0,1,477.819,-0.840,14.993,562.732,-1.930,0.979
1782117430.319720,0.933000,1874853,1000,12,0,1,477.867,-2.866,14.127,565.831,0.458,0.961
1782117430.320720,0.934000,1874854,1000,12,0,1,480.990,-1.165,12.787,565.230,1.225,0.956
1782117430.321720,0.935000,1874855,1000,12,0,1,479.284,-3.541,11.882,567.152,1.171,0.968
1782117430.322720,0.936000,1874856,1000,12,0,1,499.942,9.312,11.777,567.512,2.749,1.029
1782117430.323720,0.937000,1874857,1000,12,0,1,524.732,31.284,12.570,564.606,-0.958,1.033
1782117430.324720,0.938000,1874858,1000,12,0,1,513.874,18.499,12.769,562.708,-2.489,1.091
1782117430.325720,0.939000,1874859,1000,12,0,1,493.361,-7.059,12.781,564.270,-1.315,1.106
1782117430.326720,0.940000,1874860,1000,12,0,1,479.429,-19.414,13.065,567.560,1.973,1.141
1782117430.327720,0.941000,1874861,1000,12,0,1,486.419,-13.950,13.131,564.870,0.213,1.139
1782117430.328720,0.942000,1874862,1000,12,0,1,489.013,-4.898,13.129,565.759,-0.627,1.135
1782117430.329720,0.943000,1874863,1000,12,0,1,467.514,-20.942,13.449,565.351,0.482,1.109
1782117430.330720,0.944000,1874864,1000,12,0,1,459.996,-26.548,13.963,563.477,-2.154,1.148
1782117430.331720,0.945000,1874865,1000,12,0,1,468.715,-11.537,14.057,563.189,-1.834,1.166
1782117430.332720,0.946000,1874866,1000,12,0,1,477.795,0.806,13.972,565.062,-0.290,1.167
1782117430.333720,0.947000,1874867,1000,12,0,1,489.998,13.491,13.932,564.726,0.165,1.167
1782117430.334720,0.948000,1874868,1000,12,0,1,500.591,22.927,14.229,565.110,-0.080,1.167
1782117430.335720,0.949000,1874869,1000,12,0,1,500.927,21.326,14.493,564.318,-0.193,1.167
1782117430.336720,0.950000,1874870,1000,12,0,1,496.075,12.885,14.518,564.294,-0.648,1.170
1782117430.337720,0.951000,1874871,1000,12,0,1,492.616,6.370,14.474,564.846,0.184,1.157
1782117430.338720,0.952000,1874872,1000,12,0,1,485.482,-1.913,14.476,566.431,1.387,1.173
1782117430.339720,0.953000,1874873,1000,12,0,1,482.767,-7.396,14.509,565.471,0.856,1.168
1782117430.340720,0.954000,1874874,1000,12,0,1,483.848,-6.730,14.389,564.918,-0.240,1.158
1782117430.341720,0.955000,1874875,1000,12,0,1,480.173,-10.302,14.192,563.861,-0.805,1.163
1782117430.342720,0.956000,1874876,1000,12,0,1,474.889,-15.330,14.314,567.152,1.351,1.139
1782117430.343720,0.957000,1874877,1000,12,0,1,462.278,-23.952,14.700,566.191,1.690,1.155
1782117430.344720,0.958000,1874878,1000,12,0,1,454.543,-29.549,15.259,567.969,1.460,1.171
1782117430.345720,0.959000,1874879,1000,12,0,1,456.273,-22.810,15.573,566.864,1.708,1.184
1782117430.346720,0.960000,1874880,1000,12,0,1,474.624,-3.901,15.410,566.720,-0.026,1.168
1782117430.347720,0.961000,1874881,1000,12,0,1,483.128,9.912,15.054,566.119,0.203,1.161
1782117430.348720,0.962000,1874882,1000,12,0,1,474.384,2.409,14.549,567.056,0.184,1.134
1782117430.349720,0.963000,1874883,1000,12,0,1,470.637,-0.745,14.016,566.624,0.340,1.126
1782117430.350720,0.964000,1874884,1000,12,0,1,482.143,10.673,13.769,565.158,-1.294,1.135
1782117430.351720,0.965000,1874885,1000,12,0,1,494.922,23.542,14.062,563.621,-2.542,1.188
1782117430.352720,0.966000,1874886,1000,12,0,1,498.645,25.896,14.529,564.582,-1.575,1.209
1782117430.353720,0.967000,1874887,1000,12,0,1,507.052,28.557,15.055,562.804,-2.275,1.214
1782117430.354720,0.968000,1874888,1000,12,0,1,518.222,35.432,15.749,563.069,-2.390,1.244
1782117430.355720,0.969000,1874889,1000,12,0,1,513.754,27.164,15.787,564.726,-0.166,1.244
1782117430.356720,0.970000,1874890,1000,12,0,1,504.098,12.048,15.490,564.750,0.139,1.243
1782117430.357720,0.971000,1874891,1000,12,0,1,494.658,0.366,15.417,562.972,-1.383,1.237
1782117430.358720,0.972000,1874892,1000,12,0,1,482.287,-12.495,15.429,563.357,-1.142,1.241
1782117430.359720,0.973000,1874893,1000,12,0,1,474.841,-20.092,15.618,563.285,-0.623,1.245
1782117430.360720,0.974000,1874894,1000,12,0,1,478.708,-15.985,15.772,564.101,-0.070,1.241
1782117430.361720,0.975000,1874895,1000,12,0,1,482.383,-10.558,15.826,564.029,0.318,1.238
1782117430.362720,0.976000,1874896,1000,12,0,1,488.028,-6.093,15.848,566.023,1.525,1.254
1782117430.363720,0.977000,1874897,1000,12,0,1,499.822,3.983,15.842,566.912,2.720,1.311
1782117430.364720,0.978000,1874898,1000,12,0,1,505.083,8.402,15.885,565.254,0.813,1.315
1782117430.365720,0.979000,1874899,1000,12,0,1,495.811,-1.246,15.876,566.672,1.294,1.327
1782117430.366720,0.980000,1874900,1000,12,0,1,483.080,-13.940,15.997,566.311,1.643,1.341
1782117430.367720,0.981000,1874901,1000,12,0,1,468.595,-24.453,16.365,564.222,-0.934,1.346
1782117430.368720,0.982000,1874902,1000,12,0,1,451.613,-35.362,17.112,563.165,-1.610,1.337
1782117430.369720,0.983000,1874903,1000,12,0,1,449.955,-32.526,17.715,563.117,-1.547,1.354
1782117430.370720,0.984000,1874904,1000,12,0,1,462.494,-14.092,17.826,562.300,-1.627,1.362
1782117430.371720,0.985000,1874905,1000,12,0,1,480.197,5.907,17.838,564.101,-0.264,1.352
1782117430.372720,0.986000,1874906,1000,12,0,1,488.004,16.162,17.936,565.302,1.594,1.315
1782117430.373720,0.987000,1874907,1000,12,0,1,484.521,12.183,17.467,564.678,0.757,1.312
1782117430.374720,0.988000,1874908,1000,12,0,1,484.449,10.186,17.329,565.519,1.187,1.275
1782117430.375720,0.989000,1874909,1000,12,0,1,488.701,13.204,17.401,564.582,0.720,1.266
1782117430.376720,0.990000,1874910,1000,12,0,1,487.163,10.877,17.252,564.678,0.027,1.235
1782117430.377720,0.991000,1874911,1000,12,0,1,489.325,9.566,17.192,564.894,0.675,1.238
1782117430.378720,0.992000,1874912,1000,12,0,1,495.619,13.544,17.285,563.981,-0.460,1.236
1782117430.379720,0.993000,1874913,1000,12,0,1,496.940,12.477,17.120,563.861,-0.601,1.237
1782117430.380720,0.994000,1874914,1000,12,0,1,493.961,6.730,16.730,563.789,-0.535,1.202
1782117430.381720,0.995000,1874915,1000,12,0,1,508.806,14.692,16.780,565.254,0.508,1.176
1782117430.382720,0.996000,1874916,1000,12,0,1,522.714,26.209,17.184,565.038,0.778,1.180
1782117430.383720,0.997000,1874917,1000,12,0,1,530.953,26.828,17.494,564.198,-0.490,1.182
1782117430.384720,0.998000,1874918,1000,12,0,1,530.232,21.931,17.469,564.942,0.205,1.182
1782117430.385720,0.999000,1874919,1000,12,0,1,498.765,-8.104,17.244,568.017,2.611,1.238
1782117430.386720,1.000000,1874920,1000,12,0,1,470.853,-37.530,17.950,567.152,2.318,1.278
1782117430.387720,1.001000,1874921,1000,12,0,1,462.710,-39.500,18.778,566.431,0.483,1.279
1782117430.388720,1.002000,1874922,1000,12,0,1,461.389,-34.401,19.396,566.407,0.725,1.268
1782117430.389720,1.003000,1874923,1000,12,0,1,466.265,-23.748,19.657,565.158,-0.572,1.265
1782117430.390720,1.004000,1874924,1000,12,0,1,481.711,-5.729,19.650,562.732,-2.547,1.315
1782117430.391720,1.005000,1874925,1000,12,0,1,503.305,16.021,19.727,561.627,-3.391,1.395
1782117430.392720,1.006000,1874926,1000,12,0,1,516.709,27.878,20.000,562.804,-1.894,1.407
1782117430.393720,1.007000,1874927,1000,12,0,1,512.313,21.071,19.935,564.846,0.444,1.388
1782117430.394720,1.008000,1874928,1000,12,0,1,498.117,4.322,19.502,566.095,1.629,1.392
1782117430.395720,1.009000,1874929,1000,12,0,1,478.660,-14.309,19.339,568.113,3.031,1.436
1782117430.396720,1.010000,1874930,1000,12,0,1,454.495,-34.284,19.930,565.567,1.069,1.444
1782117430.397720,1.011000,1874931,1000,12,0,1,447.289,-38.849,20.626,564.342,-1.258,1.455
1782117430.398720,1.012000,1874932,1000,12,0,1,449.979,-28.889,21.024,565.543,0.184,1.455
1782117430.399720,1.013000,1874933,1000,12,0,1,455.912,-19.318,21.200,565.567,0.183,1.454
1782117430.400720,1.014000,1874934,1000,12,0,1,465.376,-6.649,21.167,565.759,0.041,1.443
1782117430.401720,1.015000,1874935,1000,12,0,1,467.779,-1.296,20.905,565.783,0.162,1.398
1782117430.402720,1.016000,1874936,1000,12,0,1,465.857,-2.295,20.584,566.576,0.428,1.381
1782117430.403720,1.017000,1874937,1000,12,0,1,469.916,1.988,20.186,565.663,0.015,1.343
1782117430.404720,1.018000,1874938,1000,12,0,1,468.835,3.386,19.560,564.990,-1.157,1.310
1782117430.405720,1.019000,1874939,1000,12,0,1,471.598,4.852,19.191,567.320,0.944,1.317
1782117430.406720,1.020000,1874940,1000,12,0,1,488.917,19.989,19.323,567.416,1.425,1.332
1782117430.407720,1.021000,1874941,1000,12,0,1,508.974,36.920,20.016,567.128,0.504,1.319
1782117430.408720,1.022000,1874942,1000,12,0,1,505.083,31.948,20.444,567.392,0.830,1.315
1782117430.409720,1.023000,1874943,1000,12,0,1,484.689,8.827,20.284,564.942,-1.198,1.323
1782117430.410720,1.024000,1874944,1000,12,0,1,472.847,-4.442,20.167,565.519,-1.311,1.336
1782117430.411720,1.025000,1874945,1000,12,0,1,474.817,-1.956,20.114,565.783,-0.118,1.335
1782117430.412720,1.026000,1874946,1000,12,0,1,472.991,-0.851,20.095,566.504,-0.026,1.317
1782117430.413720,1.027000,1874947,1000,12,0,1,468.187,-4.684,20.099,565.807,0.010,1.260
1782117430.414720,1.028000,1874948,1000,12,0,1,484.161,7.972,20.095,565.110,-1.108,1.264
1782117430.415720,1.029000,1874949,1000,12,0,1,512.457,33.294,20.639,565.711,-0.354,1.252
1782117430.416720,1.030000,1874950,1000,12,0,1,523.458,40.024,21.310,567.296,0.950,1.238
1782117430.417720,1.031000,1874951,1000,12,0,1,515.051,25.603,21.337,566.960,0.802,1.236
1782117430.418720,1.032000,1874952,1000,12,0,1,499.486,5.416,20.756,566.383,-0.196,1.215
1782117430.419720,1.033000,1874953,1000,12,0,1,480.245,-14.601,20.345,567.392,0.460,1.197
1782117430.420720,1.034000,1874954,1000,12,0,1,462.134,-31.082,20.719,565.879,-0.493,1.177
1782117430.421720,1.035000,1874955,1000,12,0,1,448.658,-39.863,21.456,564.029,-2.672,1.235
1782117430.422720,1.036000,1874956,1000,12,0,1,432.612,-47.620,22.372,566.480,-0.476,1.216
1782117430.423720,1.037000,1874957,1000,12,0,1,431.435,-43.845,23.151,566.407,0.287,1.212
1782117430.424720,1.038000,1874958,1000,12,0,1,443.277,-24.649,23.368,563.957,-2.189,1.240
1782117430.425720,1.039000,1874959,1000,12,0,1,458.362,-6.080,23.309,566.504,-0.281,1.236
1782117430.426720,1.040000,1874960,1000,12,0,1,472.126,9.423,23.296,566.335,0.803,1.242
1782117430.427720,1.041000,1874961,1000,12,0,1,494.610,27.632,23.583,566.359,-0.159,1.238
1782117430.428720,1.042000,1874962,1000,12,0,1,503.305,35.628,24.039,566.480,0.678,1.240
1782117430.429720,1.043000,1874963,1000,12,0,1,494.610,22.467,24.184,566.023,-0.099,1.237
1782117430.430720,1.044000,1874964,1000,12,0,1,480.029,6.219,24.181,564.990,-0.672,1.239
1782117430.431720,1.045000,1874965,1000,12,0,1,466.193,-7.459,24.115,563.261,-2.068,1.271
1782117430.432720,1.046000,1874966,1000,12,0,1,454.279,-16.628,23.944,565.951,-0.008,1.266
1782117430.433720,1.047000,1874967,1000,12,0,1,453.318,-15.377,23.741,564.534,0.234,1.264
1782117430.434720,1.048000,1874968,1000,12,0,1,456.489,-8.214,23.566,566.383,0.239,1.265
1782117430.435720,1.049000,1874969,1000,12,0,1,468.115,3.350,23.543,565.567,1.240,1.222
1782117430.436720,1.050000,1874970,1000,12,0,1,481.158,16.711,23.059,565.759,-0.228,1.178
1782117430.437720,1.051000,1874971,1000,12,0,1,492.928,24.965,22.649,566.095,1.041,1.185
1782117430.438720,1.052000,1874972,1000,12,0,1,498.693,27.292,22.454,565.711,0.029,1.180
1782117430.439720,1.053000,1874973,1000,12,0,1,510.824,31.341,22.640,567.032,1.051,1.187
1782117430.440720,1.054000,1874974,1000,12,0,1,517.189,33.135,23.105,567.080,1.301,1.146
1782117430.441720,1.055000,1874975,1000,12,0,1,499.534,12.545,23.062,566.744,0.310,1.042
1782117430.442720,1.056000,1874976,1000,12,0,1,478.660,-12.096,22.787,568.257,1.579,1.031
1782117430.443720,1.057000,1874977,1000,12,0,1,488.004,-7.137,22.614,566.600,0.240,1.030
1782117430.444720,1.058000,1874978,1000,12,0,1,513.778,16.319,22.723,568.113,0.576,1.007
1782117430.445720,1.059000,1874979,1000,12,0,1,523.410,23.754,22.881,565.495,-0.526,0.914
1782117430.446720,1.060000,1874980,1000,12,0,1,512.097,9.024,22.398,564.462,-2.700,0.979
1782117430.447720,1.061000,1874981,1000,12,0,1,490.478,-13.176,21.793,564.342,-1.563,0.988
1782117430.448720,1.062000,1874982,1000,12,0,1,473.976,-28.930,21.794,565.951,-0.500,0.990
1782117430.449720,1.063000,1874983,1000,12,0,1,460.044,-36.753,22.238,566.672,0.952,0.999
1782117430.450720,1.064000,1874984,1000,12,0,1,458.579,-34.786,22.757,566.672,0.644,1.003
1782117430.451720,1.065000,1874985,1000,12,0,1,475.681,-14.244,22.845,566.143,0.251,1.003
1782117430.452720,1.066000,1874986,1000,12,0,1,488.220,2.021,22.844,566.263,0.219,1.002
1782117430.453720,1.067000,1874987,1000,12,0,1,488.869,3.133,22.847,566.431,0.347,1.003
1782117430.454720,1.068000,1874988,1000,12,0,1,486.130,0.309,22.842,565.110,-0.598,0.993
1782117430.455720,1.069000,1874989,1000,12,0,1,485.578,-0.897,22.832,567.272,0.492,0.987
1782117430.456720,1.070000,1874990,1000,12,0,1,481.807,-3.470,22.662,565.423,0.148,0.966
1782117430.457720,1.071000,1874991,1000,12,0,1,478.396,-7.158,22.075,566.960,-0.301,0.965
1782117430.458720,1.072000,1874992,1000,12,0,1,476.066,-8.049,21.638,566.359,0.787,0.964
1782117430.459720,1.073000,1874993,1000,12,0,1,466.097,-14.896,21.704,565.711,-1.203,0.964
1782117430.460720,1.074000,1874994,1000,12,0,1,463.191,-17.319,21.833,564.918,-1.010,0.957
1782117430.461720,1.075000,1874995,1000,12,0,1,463.743,-12.578,21.904,566.696,-0.189,0.957
1782117430.462720,1.076000,1874996,1000,12,0,1,469.916,-6.141,21.920,565.519,-0.160,0.957
1782117430.463720,1.077000,1874997,1000,12,0,1,474.240,1.083,21.911,565.999,-0.702,0.962
1782117430.464720,1.078000,1874998,1000,12,0,1,470.733,-1.244,21.883,567.224,1.032,0.961
1782117430.465720,1.079000,1874999,1000,12,0,1,461.101,-8.198,21.402,566.191,0.139,0.960
1782117430.466720,1.080000,1875000,1000,12,0,1,452.237,-14.268,20.738,565.591,-0.754,0.956
1782117430.467720,1.081000,1875001,1000,12,0,1,447.361,-15.143,20.531,566.431,0.329,0.950
1782117430.468720,1.082000,1875002,1000,12,0,1,447.049,-11.389,20.580,567.849,1.372,0.970
1782117430.469720,1.083000,1875003,1000,12,0,1,448.538,-6.078,20.494,565.951,0.321,0.969
1782117430.470720,1.084000,1875004,1000,12,0,1,445.776,-4.454,20.027,564.318,-1.905,1.003
1782117430.471720,1.085000,1875005,1000,12,0,1,440.851,-6.313,19.238,564.414,-1.177,0.944
1782117430.472720,1.086000,1875006,1000,12,0,1,444.454,-0.984,18.021,565.447,-0.291,0.942
1782117430.473720,1.087000,1875007,1000,12,0,1,463.431,16.757,17.086,566.744,1.174,0.956
1782117430.474720,1.088000,1875008,1000,12,0,1,491.079,40.636,17.687,566.407,0.880,0.913
1782117430.475720,1.089000,1875009,1000,12,0,1,503.713,48.989,18.976,564.798,-0.704,0.917
1782117430.476720,1.090000,1875010,1000,12,0,1,507.509,43.562,19.906,564.005,-1.498,0.935
1782117430.477720,1.091000,1875011,1000,12,0,1,508.782,37.490,20.226,566.215,0.318,0.936
1782117430.478720,1.092000,1875012,1000,12,0,1,491.679,17.153,19.738,565.278,0.298,0.932
1782117430.479720,1.093000,1875013,1000,12,0,1,461.389,-14.465,19.588,564.798,-1.020,0.943
1782117430.480720,1.094000,1875014,1000,12,0,1,445.151,-30.370,20.034,565.110,-0.159,0.938
1782117430.481720,1.095000,1875015,1000,12,0,1,450.364,-22.521,20.258,567.344,1.263,0.909
1782117430.482720,1.096000,1875016,1000,12,0,1,452.309,-14.625,20.227,567.032,1.629,0.938
1782117430.483720,1.097000,1875017,1000,12,0,1,443.854,-19.006,20.289,564.894,-0.903,0.946
1782117430.484720,1.098000,1875018,1000,12,0,1,441.884,-18.180,20.418,565.014,-0.901,0.954
1782117430.485720,1.099000,1875019,1000,12,0,1,451.372,-6.247,20.431,566.191,0.464,0.940
1782117430.486720,1.100000,1875020,1000,12,0,1,455.888,1.675,20.296,563.261,-1.591,0.966
1782117430.487720,1.101000,1875021,1000,12,0,1,459.419,4.548,19.996,563.381,-2.101,1.000
1782117430.488720,1.102000,1875022,1000,12,0,1,464.872,9.890,19.670,563.981,-0.422,1.001
1782117430.489720,1.103000,1875023,1000,12,0,1,472.030,14.692,19.277,565.278,0.456,0.992
1782117430.490720,1.104000,1875024,1000,12,0,1,468.571,11.399,18.768,566.023,1.625,1.002
1782117430.491720,1.105000,1875025,1000,12,0,1,463.263,3.197,18.689,565.278,0.796,1.007
1782117430.492720,1.106000,1875026,1000,12,0,1,460.092,-0.012,18.611,564.846,0.190,0.983
1782117430.493720,1.107000,1875027,1000,12,0,1,467.442,4.333,18.593,563.501,-0.672,0.987
1782117430.494720,1.108000,1875028,1000,12,0,1,477.075,13.126,18.543,565.278,0.233,0.984
1782117430.495720,1.109000,1875029,1000,12,0,1,480.582,14.124,18.345,562.756,-0.616,0.985
1782117430.496720,1.110000,1875030,1000,12,0,1,479.044,10.127,18.357,564.486,-0.808,0.915
1782117430.497720,1.111000,1875031,1000,12,0,1,469.676,0.557,18.262,565.591,1.838,0.925
1782117430.498720,1.112000,1875032,1000,12,0,1,465.521,-5.765,17.816,563.357,-0.967,0.933
1782117430.499720,1.113000,1875033,1000,12,0,1,465.016,-4.494,17.053,563.453,-0.960,0.933
1782117430.500720,1.114000,1875034,1000,12,0,1,464.296,-5.007,16.344,562.516,-1.162,0.943
1782117430.501720,1.115000,1875035,1000,12,0,1,463.671,-4.120,16.229,562.636,-1.470,0.965
1782117430.502720,1.116000,1875036,1000,12,0,1,461.149,-5.336,16.244,565.351,1.399,0.984
1782117430.503720,1.117000,1875037,1000,12,0,1,457.209,-7.519,16.273,564.222,0.810,0.990
1782117430.504720,1.118000,1875038,1000,12,0,1,463.479,-2.006,16.276,565.062,0.694,0.991
1782117430.505720,1.119000,1875039,1000,12,0,1,481.470,14.340,16.401,565.471,1.690,1.017
1782117430.506720,1.120000,1875040,1000,12,0,1,500.086,29.338,16.910,565.591,1.179,1.030
1782117430.507720,1.121000,1875041,1000,12,0,1,508.205,32.522,17.495,564.101,0.227,1.030
1782117430.508720,1.122000,1875042,1000,12,0,1,501.480,21.185,17.714,561.916,-1.941,1.060
1782117430.509720,1.123000,1875043,1000,12,0,1,481.302,-1.336,17.589,564.822,0.329,1.047
1782117430.510720,1.124000,1875044,1000,12,0,1,457.378,-24.755,17.766,565.014,1.742,1.066
1782117430.511720,1.125000,1875045,1000,12,0,1,444.262,-35.603,18.380,563.573,-0.422,1.068
1782117430.512720,1.126000,1875046,1000,12,0,1,449.259,-27.525,18.767,564.822,0.828,1.074
1782117430.513720,1.127000,1875047,1000,12,0,1,459.347,-13.422,18.862,565.663,1.624,1.094
1782117430.514720,1.128000,1875048,1000,12,0,1,464.055,-6.306,18.883,567.080,2.394,1.136
1782117430.515720,1.129000,1875049,1000,12,0,1,463.071,-5.599,18.864,565.327,1.098,1.146
1782117430.516720,1.130000,1875050,1000,12,0,1,457.258,-9.312,18.802,563.573,-1.379,1.158
1782117430.517720,1.131000,1875051,1000,12,0,1,451.300,-13.229,18.773,563.741,-0.990,1.165
1782117430.518720,1.132000,1875052,1000,12,0,1,463.239,-2.510,18.707,564.462,-0.375,1.150
1782117430.519720,1.133000,1875053,1000,12,0,1,493.697,25.141,19.022,564.582,-0.102,1.149
1782117430.520720,1.134000,1875054,1000,12,0,1,514.883,42.971,19.960,565.182,0.190,1.118
1782117430.521720,1.135000,1875055,1000,12,0,1,516.661,38.332,20.663,563.501,-0.914,1.113
1782117430.522720,1.136000,1875056,1000,12,0,1,511.640,26.336,20.996,564.534,-0.738,1.117
1782117430.523720,1.137000,1875057,1000,12,0,1,508.542,17.426,21.007,562.276,-1.472,1.124
1782117430.524720,1.138000,1875058,1000,12,0,1,498.621,5.603,20.221,564.438,-0.911,1.124
1782117430.525720,1.139000,1875059,1000,12,0,1,485.218,-9.386,19.043,566.552,2.405,1.170
1782117430.526720,1.140000,1875060,1000,12,0,1,466.073,-24.882,18.360,564.606,0.189,1.151
1782117430.527720,1.141000,1875061,1000,12,0,1,455.384,-33.499,18.205,563.213,-1.286,1.165
1782117430.528720,1.142000,1875062,1000,12,0,1,453.606,-29.286,18.512,563.885,-0.506,1.166
1782117430.529720,1.143000,1875063,1000,12,0,1,451.204,-26.105,18.765,563.981,-0.158,1.157
1782117430.530720,1.144000,1875064,1000,12,0,1,442.485,-28.158,18.696,564.582,0.385,1.159
1782117430.531720,1.145000,1875065,1000,12,0,1,442.989,-24.448,18.744,565.158,0.927,1.152
1782117430.532720,1.146000,1875066,1000,12,0,1,461.918,-3.913,18.638,564.438,0.417,1.130
1782117430.533720,1.147000,1875067,1000,12,0,1,475.057,11.875,18.520,564.294,-0.118,1.123
1782117430.534720,1.148000,1875068,1000,12,0,1,486.611,18.856,18.533,563.501,-0.404,1.118
1782117430.535720,1.149000,1875069,1000,12,0,1,493.168,23.533,18.809,564.101,-0.362,1.117
1782117430.536720,1.150000,1875070,1000,12,0,1,497.492,21.550,19.053,564.822,0.755,1.099
1782117430.537720,1.151000,1875071,1000,12,0,1,500.279,20.447,19.260,565.110,0.647,1.062
1782117430.538720,1.152000,1875072,1000,12,0,1,491.775,9.397,19.255,564.822,0.453,1.062
1782117430.539720,1.153000,1875073,1000,12,0,1,485.890,-0.365,19.143,563.405,-0.915,1.068
1782117430.540720,1.154000,1875074,1000,12,0,1,489.181,1.558,19.076,564.414,-0.407,1.045
1782117430.541720,1.155000,1875075,1000,12,0,1,492.616,4.092,19.079,567.200,2.263,1.087
1782117430.542720,1.156000,1875076,1000,12,0,1,489.565,1.358,19.080,564.654,0.384,1.088
1782117430.543720,1.157000,1875077,1000,12,0,1,491.175,0.911,19.071,564.198,-1.211,1.097
1782117430.544720,1.158000,1875078,1000,12,0,1,489.157,0.994,18.981,564.438,-0.154,1.097
1782117430.545720,1.159000,1875079,1000,12,0,1,479.164,-7.899,18.909,564.438,-0.528,1.096
1782117430.546720,1.160000,1875080,1000,12,0,1,470.229,-14.571,18.967,564.342,-0.253,1.091
1782117430.547720,1.161000,1875081,1000,12,0,1,464.896,-16.577,19.111,563.669,-0.812,1.065
1782117430.548720,1.162000,1875082,1000,12,0,1,462.782,-15.360,19.217,565.062,0.229,1.057
1782117430.549720,1.163000,1875083,1000,12,0,1,460.813,-13.461,19.300,566.744,2.087,1.089
1782117430.550720,1.164000,1875084,1000,12,0,1,454.087,-16.139,19.422,565.110,0.593,1.080
1782117430.551720,1.165000,1875085,1000,12,0,1,444.743,-21.356,19.647,563.861,-0.959,1.068
1782117430.552720,1.166000,1875086,1000,12,0,1,468.019,-2.092,19.634,563.765,-0.863,1.057
1782117430.553720,1.167000,1875087,1000,12,0,1,492.712,25.180,19.926,563.933,-0.583,1.054
1782117430.554720,1.168000,1875088,1000,12,0,1,506.092,31.393,20.413,565.711,0.851,1.056
1782117430.555720,1.169000,1875089,1000,12,0,1,507.365,28.689,20.713,566.600,1.891,1.063
1782117430.556720,1.170000,1875090,1000,12,0,1,493.553,10.445,20.347,564.798,0.040,1.050
1782117430.557720,1.171000,1875091,1000,12,0,1,490.718,1.405,19.821,561.819,-2.686,1.116
1782117430.558720,1.172000,1875092,1000,12,0,1,496.531,5.938,19.612,562.084,-2.663,1.145
1782117430.559720,1.173000,1875093,1000,12,0,1,496.051,3.695,19.618,563.189,-0.871,1.151
1782117430.560720,1.174000,1875094,1000,12,0,1,493.120,-0.223,19.303,566.215,1.466,1.143
1782117430.561720,1.175000,1875095,1000,12,0,1,488.412,-4.681,18.646,565.999,2.005,1.176
1782117430.562720,1.176000,1875096,1000,12,0,1,483.848,-8.034,18.271,564.822,0.008,1.171
1782117430.563720,1.177000,1875097,1000,12,0,1,487.932,-3.858,18.180,564.029,-0.462,1.150
1782117430.564720,1.178000,1875098,1000,12,0,1,483.776,-3.457,18.165,562.780,-1.585,1.121
1782117430.565720,1.179000,1875099,1000,12,0,1,486.755,-2.429,18.151,562.252,-1.911,1.143
1782117430.566720,1.180000,1875100,1000,12,0,1,496.171,8.794,18.146,562.132,-1.520,1.147
1782117430.567720,1.181000,1875101,1000,12,0,1,494.802,7.953,18.084,563.117,-0.565,1.141
1782117430.568720,1.182000,1875102,1000,12,0,1,497.852,7.725,18.113,563.837,0.625,1.143
1782117430.569720,1.183000,1875103,1000,12,0,1,507.749,15.558,17.897,563.477,0.251,1.143
1782117430.570720,1.184000,1875104,1000,12,0,1,506.980,12.990,16.933,563.501,0.310,1.144
1782117430.571720,1.185000,1875105,1000,12,0,1,484.353,-8.550,16.088,563.525,0.402,1.138
1782117430.572720,1.186000,1875106,1000,12,0,1,464.055,-29.797,16.208,563.477,0.368,1.134
1782117430.573720,1.187000,1875107,1000,12,0,1,458.867,-31.729,16.636,561.916,-0.768,1.120
1782117430.574720,1.188000,1875108,1000,12,0,1,453.895,-31.339,17.198,563.381,0.006,1.113
1782117430.575720,1.189000,1875109,1000,12,0,1,454.543,-27.865,17.594,562.540,0.289,1.061
1782117430.576720,1.190000,1875110,1000,12,0,1,454.976,-21.871,17.514,562.228,-0.819,1.067
1782117430.577720,1.191000,1875111,1000,12,0,1,454.399,-19.502,17.085,563.693,0.948,1.059
1782117430.578720,1.192000,1875112,1000,12,0,1,460.020,-11.258,16.651,562.972,0.442,1.059
1782117430.579720,1.193000,1875113,1000,12,0,1,473.159,2.594,16.241,564.077,0.779,1.064
1782117430.580720,1.194000,1875114,1000,12,0,1,501.984,27.179,16.208,561.555,-0.471,1.065
1782117430.581720,1.195000,1875115,1000,12,0,1,520.864,44.258,17.027,562.516,-1.030,1.067
1782117430.582720,1.196000,1875116,1000,12,0,1,519.687,37.177,17.812,562.180,0.271,1.066
1782117430.583720,1.197000,1875117,1000,12,0,1,500.807,16.441,17.884,563.429,0.145,1.066
1782117430.584720,1.198000,1875118,1000,12,0,1,477.123,-8.229,17.722,562.708,0.753,1.070
1782117430.585720,1.199000,1875119,1000,12,0,1,463.022,-19.896,17.633,562.804,-0.187,1.069
1782117430.586720,1.200000,1875120,1000,12,0,1,458.338,-19.917,17.594,564.582,1.828,1.095
1782117430.587720,1.201000,1875121,1000,12,0,1,464.296,-10.802,17.422,562.588,0.360,1.092
1782117430.588720,1.202000,1875122,1000,12,0,1,468.091,-2.036,17.374,560.907,-1.816,1.120
1782117430.589720,1.203000,1875123,1000,12,0,1,480.750,8.566,17.416,562.684,0.139,1.113
1782117430.590720,1.204000,1875124,1000,12,0,1,500.471,26.991,17.828,561.964,0.003,1.111
1782117430.591720,1.205000,1875125,1000,12,0,1,502.825,27.364,18.234,562.852,0.283,1.065
1782117430.592720,1.206000,1875126,1000,12,0,1,504.410,21.500,18.485,562.900,0.917,1.071
1782117430.593720,1.207000,1875127,1000,12,0,1,503.978,17.982,18.659,563.837,1.109,1.069
1782117430.594720,1.208000,1875128,1000,12,0,1,491.943,2.731,18.662,563.861,1.472,1.089
1782117430.595720,1.209000,1875129,1000,12,0,1,478.396,-12.581,18.713,562.372,-0.210,1.087
1782117430.596720,1.210000,1875130,1000,12,0,1,486.563,-8.611,18.639,563.477,0.306,1.087
1782117430.597720,1.211000,1875131,1000,12,0,1,492.304,-0.590,18.492,561.579,-0.526,1.083
1782117430.598720,1.212000,1875132,1000,12,0,1,490.502,-4.690,18.375,562.468,-0.945,1.091
1782117430.599720,1.213000,1875133,1000,12,0,1,482.239,-11.117,18.344,561.459,-0.402,1.052
1782117430.600720,1.214000,1875134,1000,12,0,1,476.162,-17.024,18.360,563.189,-0.222,1.049
1782117430.601720,1.215000,1875135,1000,12,0,1,470.853,-18.411,18.296,563.837,1.627,1.066
1782117430.602720,1.216000,1875136,1000,12,0,1,464.944,-20.448,18.521,563.021,0.027,1.059
1782117430.603720,1.217000,1875137,1000,12,0,1,458.627,-21.588,18.430,564.750,1.414,1.074
1782117430.604720,1.218000,1875138,1000,12,0,1,456.129,-19.121,18.091,561.555,-0.619,1.071
1782117430.605720,1.219000,1875139,1000,12,0,1,463.791,-8.384,17.669,561.916,-1.799,1.068
1782117430.606720,1.220000,1875140,1000,12,0,1,470.301,2.653,17.612,562.804,0.517,1.070
1782117430.607720,1.221000,1875141,1000,12,0,1,484.353,14.426,17.728,563.357,0.157,1.001
1782117430.608720,1.222000,1875142,1000,12,0,1,500.182,29.576,18.196,561.411,-0.598,0.931
1782117430.609720,1.223000,1875143,1000,12,0,1,499.990,26.946,18.583,562.708,-0.559,0.926
1782117430.610720,1.224000,1875144,1000,12,0,1,491.007,14.438,18.695,563.237,1.098,0.916
1782117430.611720,1.225000,1875145,1000,12,0,1,472.270,-3.720,18.691,562.372,-0.271,0.872
1782117430.612720,1.226000,1875146,1000,12,0,1,446.929,-26.822,19.038,562.228,-0.268,0.873
1782117430.613720,1.227000,1875147,1000,12,0,1,422.932,-44.539,20.045,562.300,-0.115,0.870
1782117430.614720,1.228000,1875148,1000,12,0,1,410.705,-49.812,21.241,561.147,-1.024,0.853
1782117430.615720,1.229000,1875149,1000,12,0,1,411.979,-40.204,21.987,563.309,0.520,0.813
1782117430.616720,1.230000,1875150,1000,12,0,1,442.389,-8.736,21.986,566.239,3.362,0.917
1782117430.617720,1.231000,1875151,1000,12,0,1,482.383,32.294,22.427,563.837,1.370,0.934
1782117430.618720,1.232000,1875152,1000,12,0,1,509.863,53.948,23.664,563.333,-0.454,0.932
1782117430.619720,1.233000,1875153,1000,12,0,1,526.773,61.211,25.102,563.237,0.207,0.932
1782117430.620720,1.234000,1875154,1000,12,0,1,542.483,64.305,26.635,563.165,-0.526,0.933
1782117430.621720,1.235000,1875155,1000,12,0,1,547.984,59.203,27.894,562.516,-0.587,0.935
1782117430.622720,1.236000,1875156,1000,12,0,1,532.995,36.205,28.045,562.180,-1.216,0.950
1782117430.623720,1.237000,1875157,1000,12,0,1,520.336,14.528,27.760,562.420,-0.659,0.948
1782117430.624720,1.238000,1875158,1000,12,0,1,514.187,5.722,27.416,563.645,0.353,0.949
1782117430.625720,1.239000,1875159,1000,12,0,1,502.705,-6.254,27.145,563.285,0.391,0.950
1782117430.626720,1.240000,1875160,1000,12,0,1,491.775,-16.381,27.068,560.883,-1.748,0.975
1782117430.627720,1.241000,1875161,1000,12,0,1,485.602,-19.947,27.074,562.828,-0.552,0.969
1782117430.628720,1.242000,1875162,1000,12,0,1,482.695,-19.557,27.169,563.981,1.522,0.990
1782117430.629720,1.243000,1875163,1000,12,0,1,478.300,-19.758,27.309,562.708,-0.107,0.984
1782117430.630720,1.244000,1875164,1000,12,0,1,472.270,-22.104,27.218,562.420,-0.366,0.983
1782117430.631720,1.245000,1875165,1000,12,0,1,470.037,-21.320,26.659,562.396,-0.304,0.974
1782117430.632720,1.246000,1875166,1000,12,0,1,472.270,-16.551,26.240,562.708,-0.047,0.973
1782117430.633720,1.247000,1875167,1000,12,0,1,477.027,-10.551,26.180,562.324,-0.174,0.973
1782117430.634720,1.248000,1875168,1000,12,0,1,488.244,-0.904,26.154,563.117,0.185,0.967
1782117430.635720,1.249000,1875169,1000,12,0,1,492.352,3.252,26.006,563.981,1.211,0.982
1782117430.636720,1.250000,1875170,1000,12,0,1,497.684,3.622,25.858,563.045,0.232,0.948
1782117430.637720,1.251000,1875171,1000,12,0,1,503.593,7.212,25.833,563.861,0.465,0.949
1782117430.638720,1.252000,1875172,1000,12,0,1,505.707,5.498,25.844,563.525,0.577,0.917
1782117430.639720,1.253000,1875173,1000,12,0,1,506.452,3.254,25.819,562.468,-0.814,0.924
1782117430.640720,1.254000,1875174,1000,12,0,1,507.341,1.751,25.537,562.612,-0.600,0.928
1782117430.641720,1.255000,1875175,1000,12,0,1,495.138,-8.523,25.271,563.741,0.388,0.929
1782117430.642720,1.256000,1875176,1000,12,0,1,470.109,-29.584,25.433,563.237,0.231,0.920
1782117430.643720,1.257000,1875177,1000,12,0,1,458.411,-37.502,25.856,562.276,-0.869,0.915
1782117430.644720,1.258000,1875178,1000,12,0,1,469.220,-21.056,26.024,561.964,-0.991,0.902
1782117430.645720,1.259000,1875179,1000,12,0,1,488.004,2.075,25.965,562.516,-0.400,0.903
1782117430.646720,1.260000,1875180,1000,12,0,1,492.688,11.432,25.986,562.852,0.133,0.903
1782117430.647720,1.261000,1875181,1000,12,0,1,494.826,12.392,26.045,563.837,0.872,0.908
1782117430.648720,1.262000,1875182,1000,12,0,1,502.272,19.487,26.182,562.828,0.309,0.899
1782117430.649720,1.263000,1875183,1000,12,0,1,503.930,20.284,26.292,562.420,-0.550,0.901
1782117430.650720,1.264000,1875184,1000,12,0,1,499.534,13.903,26.255,562.300,-0.290,0.901
1782117430.651720,1.265000,1875185,1000,12,0,1,488.124,2.398,26.128,563.429,0.419,0.873
1782117430.652720,1.266000,1875186,1000,12,0,1,481.134,-6.543,25.984,563.645,0.955,0.884
1782117430.653720,1.267000,1875187,1000,12,0,1,484.569,-3.772,25.809,563.357,0.324,0.862
1782117430.654720,1.268000,1875188,1000,12,0,1,483.176,-4.304,25.675,560.450,-1.853,0.897
1782117430.655720,1.269000,1875189,1000,12,0,1,475.201,-12.310,25.706,562.060,-1.285,0.879
1782117430.656720,1.270000,1875190,1000,12,0,1,458.891,-25.262,25.951,562.060,0.096,0.876
1782117430.657720,1.271000,1875191,1000,12,0,1,447.889,-34.260,26.320,562.708,-0.241,0.876
1782117430.658720,1.272000,1875192,1000,12,0,1,444.935,-31.726,26.370,563.477,1.081,0.885
1782117430.659720,1.273000,1875193,1000,12,0,1,447.937,-24.502,26.322,564.318,1.321,0.901
1782117430.660720,1.274000,1875194,1000,12,0,1,456.465,-12.135,26.299,565.134,1.973,0.931
1782117430.661720,1.275000,1875195,1000,12,0,1,471.021,3.798,26.299,563.141,0.273,0.931
1782117430.662720,1.276000,1875196,1000,12,0,1,476.498,11.989,26.080,561.291,-1.972,0.971
1782117430.663720,1.277000,1875197,1000,12,0,1,483.272,16.317,25.412,563.501,0.071,0.971
1782117430.664720,1.278000,1875198,1000,12,0,1,498.045,28.925,24.757,564.678,1.556,0.985
1782117430.665720,1.279000,1875199,1000,12,0,1,526.893,50.126,25.116,564.558,1.137,0.995
1782117430.666720,1.280000,1875200,1000,12,0,1,521.465,46.011,25.916,564.342,0.748,0.881
1782117430.667720,1.281000,1875201,1000,12,0,1,494.970,13.184,25.578,563.621,0.054,0.859
1782117430.668720,1.282000,1875202,1000,12,0,1,475.946,-5.644,24.427,562.444,-1.076,0.870
1782117430.669720,1.283000,1875203,1000,12,0,1,458.290,-19.359,23.005,561.459,-1.795,0.906
1782117430.670720,1.284000,1875204,1000,12,0,1,454.543,-21.347,21.346,562.612,-0.830,0.910
1782117430.671720,1.285000,1875205,1000,12,0,1,466.986,-5.580,19.651,563.669,0.621,0.911
1782117430.672720,1.286000,1875206,1000,12,0,1,483.752,10.857,19.035,564.726,1.216,0.911
1782117430.673720,1.287000,1875207,1000,12,0,1,503.689,27.177,19.310,564.077,0.858,0.914
1782117430.674720,1.288000,1875208,1000,12,0,1,511.808,31.220,19.792,562.228,-1.172,0.928
1782117430.675720,1.289000,1875209,1000,12,0,1,504.770,18.825,19.950,563.861,-0.106,0.926
1782117430.676720,1.290000,1875210,1000,12,0,1,499.174,6.872,19.839,563.381,0.257,0.893
1782117430.677720,1.291000,1875211,1000,12,0,1,492.904,-1.601,19.639,562.900,-0.940,0.900
1782117430.678720,1.292000,1875212,1000,12,0,1,492.087,-6.581,19.465,563.093,-0.305,0.875
1782117430.679720,1.293000,1875213,1000,12,0,1,497.252,-2.952,19.268,563.237,-0.380,0.876
1782117430.680720,1.294000,1875214,1000,12,0,1,488.989,-9.794,19.064,564.822,0.963,0.885
1782117430.681720,1.295000,1875215,1000,12,0,1,475.801,-22.719,19.096,563.837,0.483,0.887
1782117430.682720,1.296000,1875216,1000,12,0,1,473.808,-22.786,19.224,564.822,0.416,0.889
1782117430.683720,1.297000,1875217,1000,12,0,1,493.457,-3.923,19.174,562.588,-0.472,0.891
1782117430.684720,1.298000,1875218,1000,12,0,1,513.850,17.839,19.339,560.691,-3.099,0.993
1782117430.685720,1.299000,1875219,1000,12,0,1,514.066,17.658,19.494,562.132,-1.120,0.990
1782117430.686720,1.300000,1875220,1000,12,0,1,509.575,10.135,19.540,563.093,0.131,0.990
1782117430.687720,1.301000,1875221,1000,12,0,1,509.719,8.973,19.554,563.597,0.577,0.991
1782117430.688720,1.302000,1875222,1000,12,0,1,513.178,10.506,19.595,563.525,0.677,0.992
1782117430.689720,1.303000,1875223,1000,12,0,1,521.993,16.375,19.726,563.909,0.677,0.990
1782117430.690720,1.304000,1875224,1000,12,0,1,518.895,13.117,19.812,562.804,0.081,0.987
1782117430.691720,1.305000,1875225,1000,12,0,1,507.989,-0.356,19.775,563.717,0.148,0.986
1782117430.692720,1.306000,1875226,1000,12,0,1,498.333,-10.053,19.380,564.702,1.573,1.010
1782117430.693720,1.307000,1875227,1000,12,0,1,481.518,-23.652,18.938,562.660,-0.437,1.004
1782117430.694720,1.308000,1875228,1000,12,0,1,461.173,-39.903,19.535,562.588,-0.985,1.004
1782117430.695720,1.309000,1875229,1000,12,0,1,457.738,-40.041,20.337,563.213,0.024,1.002
1782117430.696720,1.310000,1875230,1000,12,0,1,465.833,-26.680,20.621,561.940,-1.060,1.013
1782117430.697720,1.311000,1875231,1000,12,0,1,481.831,-9.607,20.591,563.597,-0.003,1.006
1782117430.698720,1.312000,1875232,1000,12,0,1,479.597,-6.508,20.426,564.029,1.076,1.016
1782117430.699720,1.313000,1875233,1000,12,0,1,472.751,-14.657,20.330,565.110,1.226,1.028
1782117430.700720,1.314000,1875234,1000,12,0,1,481.398,-5.958,20.252,563.885,0.726,1.032
1782117430.701720,1.315000,1875235,1000,12,0,1,497.973,9.812,20.297,563.669,-0.415,1.032
1782117430.702720,1.316000,1875236,1000,12,0,1,504.866,16.218,20.405,564.198,0.518,1.026
1782117430.703720,1.317000,1875237,1000,12,0,1,515.916,21.721,20.628,565.351,1.133,1.038
1782117430.704720,1.318000,1875238,1000,12,0,1,532.370,33.652,21.161,565.062,1.097,1.016
1782117430.705720,1.319000,1875239,1000,12,0,1,522.786,24.087,21.363,564.678,0.286,1.000
1782117430.706720,1.320000,1875240,1000,12,0,1,489.830,-9.137,21.102,563.429,-0.655,1.004
1782117430.707720,1.321000,1875241,1000,12,0,1,470.541,-27.109,20.893,563.837,-0.627,1.008
1782117430.708720,1.322000,1875242,1000,12,0,1,471.310,-21.569,20.632,561.988,-1.523,1.019
1782117430.709720,1.323000,1875243,1000,12,0,1,497.516,4.616,20.349,561.844,-2.150,1.047
1782117430.710720,1.324000,1875244,1000,12,0,1,533.907,39.594,21.036,562.780,-0.577,1.012
1782117430.711720,1.325000,1875245,1000,12,0,1,539.504,44.118,21.935,562.540,-0.614,1.015
1782117430.712720,1.326000,1875246,1000,12,0,1,492.808,-0.504,21.869,562.636,-0.581,0.980
1782117430.713720,1.327000,1875247,1000,12,0,1,460.452,-37.032,22.369,564.822,1.337,0.998
1782117430.714720,1.328000,1875248,1000,12,0,1,447.625,-41.079,22.746,564.654,1.456,0.995
1782117430.715720,1.329000,1875249,1000,12,0,1,446.736,-37.921,22.269,563.741,0.091,0.982
1782117430.716720,1.330000,1875250,1000,12,0,1,469.580,-12.934,21.375,562.876,-0.661,0.981
1782117430.717720,1.331000,1875251,1000,12,0,1,492.880,12.303,21.365,562.660,-0.958,0.990
1782117430.718720,1.332000,1875252,1000,12,0,1,502.056,18.600,21.511,562.396,-0.978,0.988
1782117430.719720,1.333000,1875253,1000,12,0,1,498.021,12.368,21.408,562.228,-1.020,0.965
1782117430.720720,1.334000,1875254,1000,12,0,1,489.830,0.592,21.194,562.036,-0.993,0.969
1782117430.721720,1.335000,1875255,1000,12,0,1,483.728,-6.095,21.197,561.147,-1.435,0.986
1782117430.722720,1.336000,1875256,1000,12,0,1,489.685,-2.805,21.145,562.732,-0.245,0.971
1782117430.723720,1.337000,1875257,1000,12,0,1,502.008,9.186,20.833,564.149,1.676,0.992
