Unix_Time_s,EMG_t_s,sample_idx,fs,gain,flags,emg_valid,ch1_raw_uV,ch1_filt_uV,ch1_env_uV,ch2_raw_uV,ch2_filt_uV,ch2_env_uV
1782117429.386720,0.000000,1874280,1000,12,0,1,945.069,-15.940,8.714,487.283,5.270,3.636
1782117429.387720,0.001000,1874281,1000,12,0,1,941.899,-18.794,8.947,483.488,1.688,3.630
1782117429.388720,0.002000,1874282,1000,12,0,1,943.868,-13.924,9.043,483.800,0.043,3.612
1782117429.389720,0.003000,1874283,1000,12,0,1,940.770,-13.676,9.154,485.938,2.379,3.601
1782117429.390720,0.004000,1874284,1000,12,0,1,939.184,-13.090,9.271,484.617,0.536,3.574
1782117429.391720,0.005000,1874285,1000,12,0,1,943.244,-6.612,9.280,486.010,0.506,3.537
1782117429.392720,0.006000,1874286,1000,12,0,1,940.313,-5.329,9.294,484.353,-0.464,3.519
1782117429.393720,0.007000,1874287,1000,12,0,1,940.169,-4.889,9.319,484.041,-2.399,3.492
1782117429.394720,0.008000,1874288,1000,12,0,1,944.877,2.106,9.321,484.641,-1.271,3.459
1782117429.395720,0.009000,1874289,1000,12,0,1,943.748,2.931,9.316,485.578,-1.256,3.422
1782117429.396720,0.010000,1874290,1000,12,0,1,942.355,1.635,9.257,486.971,0.050,3.327
1782117429.397720,0.011000,1874291,1000,12,0,1,952.756,10.173,9.284,484.497,-2.054,3.260
1782117429.398720,0.012000,1874292,1000,12,0,1,962.124,18.850,9.551,482.984,-4.053,3.243
1782117429.399720,0.013000,1874293,1000,12,0,1,956.455,12.165,9.657,487.692,0.159,3.190
1782117429.400720,0.014000,1874294,1000,12,0,1,945.021,-1.152,9.656,493.168,5.308,3.250
1782117429.401720,0.015000,1874295,1000,12,0,1,940.553,-6.597,9.701,492.136,4.287,3.293
1782117429.402720,0.016000,1874296,1000,12,0,1,940.553,-6.180,9.739,487.596,-0.870,3.292
1782117429.403720,0.017000,1874297,1000,12,0,1,946.246,-1.481,9.736,480.606,-6.656,3.423
1782117429.404720,0.018000,1874298,1000,12,0,1,951.050,3.425,9.747,475.441,-10.930,3.742
1782117429.405720,0.019000,1874299,1000,12,0,1,947.664,0.084,9.745,475.825,-9.012,3.946
1782117429.406720,0.020000,1874300,1000,12,0,1,944.012,-4.364,9.765,475.874,-6.679,4.058
1782117429.407720,0.021000,1874301,1000,12,0,1,943.412,-4.319,9.777,477.747,-4.230,4.101
1782117429.408720,0.022000,1874302,1000,12,0,1,941.442,-4.989,9.788,483.440,1.815,4.109
1782117429.409720,0.023000,1874303,1000,12,0,1,937.167,-7.364,9.839,493.601,10.243,4.357
1782117429.410720,0.024000,1874304,1000,12,0,1,934.500,-8.238,9.873,496.579,12.916,4.717
1782117429.411720,0.025000,1874305,1000,12,0,1,935.269,-5.335,9.653,497.852,10.469,4.938
1782117429.412720,0.026000,1874306,1000,12,0,1,937.479,-1.197,9.406,499.750,10.434,5.153
1782117429.413720,0.027000,1874307,1000,12,0,1,934.428,-1.472,9.383,502.897,10.211,5.342
1782117429.414720,0.028000,1874308,1000,12,0,1,932.963,-2.273,9.338,505.371,10.327,5.471
1782117429.415720,0.029000,1874309,1000,12,0,1,942.067,6.489,9.275,500.303,4.120,5.456
1782117429.416720,0.030000,1874310,1000,12,0,1,964.190,25.107,9.931,488.412,-8.020,5.524
1782117429.417720,0.031000,1874311,1000,12,0,1,969.859,30.434,10.563,478.204,-17.095,5.994
1782117429.418720,0.032000,1874312,1000,12,0,1,961.788,17.089,10.482,472.583,-20.072,6.628
1782117429.419720,0.033000,1874313,1000,12,0,1,952.179,5.255,10.505,470.997,-18.276,7.114
1782117429.420720,0.034000,1874314,1000,12,0,1,941.995,-5.930,10.449,467.875,-17.066,7.511
1782117429.421720,0.035000,1874315,1000,12,0,1,934.140,-13.412,10.563,467.202,-14.847,7.783
1782117429.422720,0.036000,1874316,1000,12,0,1,926.934,-18.042,10.831,467.442,-10.803,7.899
1782117429.423720,0.037000,1874317,1000,12,0,1,920.448,-21.797,11.235,471.838,-4.988,7.919
1782117429.424720,0.038000,1874318,1000,12,0,1,923.787,-16.495,11.474,473.471,-0.513,7.919
1782117429.425720,0.039000,1874319,1000,12,0,1,929.432,-7.747,11.476,472.463,-0.904,7.915
1782117429.426720,0.040000,1874320,1000,12,0,1,929.024,-5.716,11.384,473.015,0.332,7.874
1782117429.427720,0.041000,1874321,1000,12,0,1,931.378,-3.170,11.079,472.342,0.627,7.829
1782117429.428720,0.042000,1874322,1000,12,0,1,935.917,2.677,10.689,472.991,0.962,7.813
1782117429.429720,0.043000,1874323,1000,12,0,1,942.667,8.348,10.729,474.624,3.015,7.822
1782117429.430720,0.044000,1874324,1000,12,0,1,943.556,10.073,10.822,472.967,1.655,7.821
1782117429.431720,0.045000,1874325,1000,12,0,1,940.914,6.061,10.847,468.403,-2.161,7.771
1782117429.432720,0.046000,1874326,1000,12,0,1,933.780,0.349,10.818,464.800,-5.021,7.757
1782117429.433720,0.047000,1874327,1000,12,0,1,923.186,-8.775,10.888,464.416,-4.162,7.729
1782117429.434720,0.048000,1874328,1000,12,0,1,914.299,-14.741,11.041,469.388,1.144,7.701
1782117429.435720,0.049000,1874329,1000,12,0,1,922.730,-6.230,11.004,474.120,6.785,7.744
1782117429.436720,0.050000,1874330,1000,12,0,1,936.158,9.424,10.852,474.168,7.011,7.772
1782117429.437720,0.051000,1874331,1000,12,0,1,935.269,9.768,10.612,470.181,3.500,7.784
1782117429.438720,0.052000,1874332,1000,12,0,1,930.969,3.911,10.443,469.916,2.691,7.793
1782117429.439720,0.053000,1874333,1000,12,0,1,937.671,8.601,10.334,468.139,2.583,7.794
1782117429.440720,0.054000,1874334,1000,12,0,1,972.861,35.135,11.316,465.232,0.000,7.794
1782117429.441720,0.055000,1874335,1000,12,0,1,1016.939,70.510,15.054,470.901,4.873,7.824
1782117429.442720,0.056000,1874336,1000,12,0,1,1047.902,86.238,19.359,473.664,8.962,7.926
1782117429.443720,0.057000,1874337,1000,12,0,1,1035.627,64.237,21.374,475.609,8.756,8.015
1782117429.444720,0.058000,1874338,1000,12,0,1,1000.917,16.874,21.504,478.444,10.830,8.158
1782117429.445720,0.059000,1874339,1000,12,0,1,989.435,-3.872,21.507,479.092,9.661,8.269
1782117429.446720,0.060000,1874340,1000,12,0,1,978.818,-13.347,21.589,477.123,6.471,8.320
1782117429.447720,0.061000,1874341,1000,12,0,1,963.325,-29.485,21.941,476.762,4.146,8.336
1782117429.448720,0.062000,1874342,1000,12,0,1,944.709,-42.002,22.574,475.153,2.090,8.321
1782117429.449720,0.063000,1874343,1000,12,0,1,928.903,-52.322,23.693,474.504,0.049,8.321
1782117429.450720,0.064000,1874344,1000,12,0,1,916.653,-54.616,24.920,473.664,-0.876,8.288
1782117429.451720,0.065000,1874345,1000,12,0,1,912.689,-50.523,25.907,474.624,-0.902,8.267
1782117429.452720,0.066000,1874346,1000,12,0,1,909.639,-42.945,26.595,472.391,-2.291,8.272
1782117429.453720,0.067000,1874347,1000,12,0,1,917.397,-30.156,26.934,469.628,-5.278,8.252
1782117429.454720,0.068000,1874348,1000,12,0,1,926.453,-14.139,27.004,468.331,-5.665,8.146
1782117429.455720,0.069000,1874349,1000,12,0,1,940.001,-0.396,27.004,470.157,-3.537,8.061
1782117429.456720,0.070000,1874350,1000,12,0,1,943.052,5.906,27.010,473.856,0.562,8.006
1782117429.457720,0.071000,1874351,1000,12,0,1,940.842,1.710,27.004,471.742,-0.114,7.983
1782117429.458720,0.072000,1874352,1000,12,0,1,946.727,5.628,27.006,470.085,-2.372,7.986
1782117429.459720,0.073000,1874353,1000,12,0,1,960.659,16.407,27.086,474.624,2.134,7.860
1782117429.460720,0.074000,1874354,1000,12,0,1,972.045,24.033,27.273,477.483,5.231,7.680
1782117429.461720,0.075000,1874355,1000,12,0,1,983.118,28.956,27.569,481.542,7.516,7.611
1782117429.462720,0.076000,1874356,1000,12,0,1,1002.983,39.716,28.135,483.752,9.082,7.576
1782117429.463720,0.077000,1874357,1000,12,0,1,1013.576,44.550,28.831,485.722,8.561,7.535
1782117429.464720,0.078000,1874358,1000,12,0,1,1003.343,27.927,29.098,494.586,13.906,7.649
1782117429.465720,0.079000,1874359,1000,12,0,1,982.085,3.647,29.088,502.945,19.297,8.100
1782117429.466720,0.080000,1874360,1000,12,0,1,960.370,-17.802,28.980,508.013,19.564,8.484
1782117429.467720,0.081000,1874361,1000,12,0,1,935.437,-36.234,29.113,513.058,19.518,8.588
1782117429.468720,0.082000,1874362,1000,12,0,1,920.712,-44.940,29.701,513.874,16.069,8.418
1782117429.469720,0.083000,1874363,1000,12,0,1,914.923,-40.412,30.237,511.424,9.282,8.118
1782117429.470720,0.084000,1874364,1000,12,0,1,912.978,-33.760,30.600,510.583,4.723,7.780
1782117429.471720,0.085000,1874365,1000,12,0,1,919.055,-21.011,30.685,506.572,-0.787,7.492
1782117429.472720,0.086000,1874366,1000,12,0,1,927.270,-7.287,30.596,495.667,-11.742,7.520
1782117429.473720,0.087000,1874367,1000,12,0,1,925.156,-4.909,30.448,490.190,-17.721,7.896
1782117429.474720,0.088000,1874368,1000,12,0,1,921.577,-7.172,30.376,488.292,-17.127,8.258
1782117429.475720,0.089000,1874369,1000,12,0,1,924.988,-3.177,30.359,485.578,-17.756,8.631
1782117429.476720,0.090000,1874370,1000,12,0,1,931.233,3.032,30.352,481.230,-18.973,9.038
1782117429.477720,0.091000,1874371,1000,12,0,1,934.596,5.337,30.358,479.284,-18.619,9.414
1782117429.478720,0.092000,1874372,1000,12,0,1,936.782,5.442,30.365,479.933,-15.117,9.652
1782117429.479720,0.093000,1874373,1000,12,0,1,933.828,1.753,30.343,481.062,-11.690,9.784
1782117429.480720,0.094000,1874374,1000,12,0,1,926.021,-6.237,30.323,483.224,-8.083,9.847
1782117429.481720,0.095000,1874375,1000,12,0,1,922.442,-9.648,30.341,486.467,-3.896,9.858
1782117429.482720,0.096000,1874376,1000,12,0,1,919.872,-9.233,30.369,485.818,-3.381,9.844
1782117429.483720,0.097000,1874377,1000,12,0,1,923.619,-4.508,30.350,482.431,-6.156,9.865
1782117429.484720,0.098000,1874378,1000,12,0,1,926.525,2.378,30.281,484.473,-4.500,9.884
1782117429.485720,0.099000,1874379,1000,12,0,1,930.273,7.009,30.284,486.995,-0.874,9.838
1782117429.486720,0.100000,1874380,1000,12,0,1,924.940,6.551,30.269,486.539,-1.254,9.790
1782117429.487720,0.101000,1874381,1000,12,0,1,918.406,1.489,30.238,489.421,0.944,9.778
1782117429.488720,0.102000,1874382,1000,12,0,1,911.969,0.025,30.233,488.436,1.202,9.772
1782117429.489720,0.103000,1874383,1000,12,0,1,908.318,-0.657,30.209,485.170,-2.250,9.770
1782117429.490720,0.104000,1874384,1000,12,0,1,906.708,1.725,29.798,476.930,-7.679,9.831
1782117429.491720,0.105000,1874385,1000,12,0,1,925.420,17.795,28.193,463.191,-18.065,10.134
1782117429.492720,0.106000,1874386,1000,12,0,1,948.408,39.752,26.033,447.986,-27.571,10.784
1782117429.493720,0.107000,1874387,1000,12,0,1,964.238,48.340,25.336,442.965,-27.658,11.404
1782117429.494720,0.108000,1874388,1000,12,0,1,984.800,57.078,26.483,447.889,-16.784,11.548
1782117429.495720,0.109000,1874389,1000,12,0,1,1007.355,66.579,28.102,453.510,-6.213,11.500
1782117429.496720,0.110000,1874390,1000,12,0,1,1019.966,64.314,29.477,455.480,-0.737,11.464
1782117429.497720,0.111000,1874391,1000,12,0,1,1014.681,46.260,29.905,458.026,3.467,11.460
1782117429.498720,0.112000,1874392,1000,12,0,1,982.926,6.861,29.325,462.062,8.347,11.516
1782117429.499720,0.113000,1874393,1000,12,0,1,940.674,-38.300,28.889,465.929,12.108,11.643
1782117429.500720,0.114000,1874394,1000,12,0,1,912.233,-64.279,29.284,469.364,14.302,11.817
1782117429.501720,0.115000,1874395,1000,12,0,1,912.930,-58.757,29.589,471.286,14.798,12.000
1782117429.502720,0.116000,1874396,1000,12,0,1,928.255,-36.110,29.406,470.949,12.653,12.128
1782117429.503720,0.117000,1874397,1000,12,0,1,932.771,-23.970,29.292,471.958,11.440,12.213
1782117429.504720,0.118000,1874398,1000,12,0,1,932.771,-20.210,29.363,471.958,10.187,12.271
1782117429.505720,0.119000,1874399,1000,12,0,1,972.693,14.131,29.431,473.159,9.247,12.331
1782117429.506720,0.120000,1874400,1000,12,0,1,989.171,37.107,29.884,475.489,10.237,12.415
1782117429.507720,0.121000,1874401,1000,12,0,1,1010.982,43.258,30.502,480.269,12.622,12.543
1782117429.508720,0.122000,1874402,1000,12,0,1,1021.287,52.679,31.389,486.875,16.860,12.763
1782117429.509720,0.123000,1874403,1000,12,0,1,1015.858,35.184,31.696,492.952,19.907,13.066
1782117429.510720,0.124000,1874404,1000,12,0,1,989.556,8.131,31.534,489.685,15.263,13.223
1782117429.511720,0.125000,1874405,1000,12,0,1,961.091,-24.117,31.453,490.238,11.367,13.278
1782117429.512720,0.126000,1874406,1000,12,0,1,932.891,-46.619,31.641,496.651,15.544,13.397
1782117429.513720,0.127000,1874407,1000,12,0,1,917.518,-57.129,32.043,495.691,13.039,13.469
1782117429.514720,0.128000,1874408,1000,12,0,1,915.524,-51.436,32.620,495.210,8.792,13.383
1782117429.515720,0.129000,1874409,1000,12,0,1,924.051,-36.427,33.020,491.415,4.678,13.118
1782117429.516720,0.130000,1874410,1000,12,0,1,931.498,-23.799,33.096,489.205,-0.452,12.823
1782117429.517720,0.131000,1874411,1000,12,0,1,938.752,-13.607,32.753,486.851,-2.501,12.528
1782117429.518720,0.132000,1874412,1000,12,0,1,943.772,-7.271,32.147,485.434,-5.490,12.344
1782117429.519720,0.133000,1874413,1000,12,0,1,944.877,-4.658,31.642,485.482,-5.555,12.299
1782117429.520720,0.134000,1874414,1000,12,0,1,943.628,-5.822,31.291,484.353,-7.034,12.321
1782117429.521720,0.135000,1874415,1000,12,0,1,939.400,-7.780,31.169,485.218,-7.132,12.362
1782117429.522720,0.136000,1874416,1000,12,0,1,937.263,-9.238,31.179,484.953,-7.054,12.291
1782117429.523720,0.137000,1874417,1000,12,0,1,940.818,-3.615,31.176,482.095,-10.102,12.117
1782117429.524720,0.138000,1874418,1000,12,0,1,947.952,4.321,31.165,480.510,-11.374,11.981
1782117429.525720,0.139000,1874419,1000,12,0,1,951.315,9.487,31.191,479.405,-11.605,11.829
1782117429.526720,0.140000,1874420,1000,12,0,1,944.397,4.603,31.194,479.789,-10.443,11.615
1782117429.527720,0.141000,1874421,1000,12,0,1,937.743,-0.921,31.186,478.996,-9.558,11.393
1782117429.528720,0.142000,1874422,1000,12,0,1,933.804,-1.681,31.177,479.429,-8.314,11.252
1782117429.529720,0.143000,1874423,1000,12,0,1,933.924,0.402,31.176,479.861,-6.075,11.163
1782117429.530720,0.144000,1874424,1000,12,0,1,935.125,4.375,31.170,480.582,-4.349,11.122
1782117429.531720,0.145000,1874425,1000,12,0,1,934.188,5.101,31.148,483.752,-0.426,11.108
1782117429.532720,0.146000,1874426,1000,12,0,1,934.909,6.316,31.134,482.455,0.197,11.098
1782117429.533720,0.147000,1874427,1000,12,0,1,939.929,10.760,31.164,480.630,-1.485,11.066
1782117429.534720,0.148000,1874428,1000,12,0,1,938.944,10.199,31.196,483.008,1.505,11.049
1782117429.535720,0.149000,1874429,1000,12,0,1,933.756,3.668,31.184,487.043,5.546,11.077
1782117429.536720,0.150000,1874430,1000,12,0,1,931.474,0.361,31.171,485.121,4.535,11.094
1782117429.537720,0.151000,1874431,1000,12,0,1,931.041,-0.582,31.170,484.569,2.511,11.099
1782117429.538720,0.152000,1874432,1000,12,0,1,930.152,-1.948,31.171,483.872,2.416,11.102
1782117429.539720,0.153000,1874433,1000,12,0,1,925.420,-5.935,31.182,486.803,3.430,11.109
1782117429.540720,0.154000,1874434,1000,12,0,1,919.824,-10.978,31.220,487.091,4.152,11.071
1782117429.541720,0.155000,1874435,1000,12,0,1,920.112,-9.808,31.149,484.713,0.412,10.772
1782117429.542720,0.156000,1874436,1000,12,0,1,927.534,-1.850,30.639,478.324,-5.142,10.068
1782117429.543720,0.157000,1874437,1000,12,0,1,922.202,-2.941,29.870,475.609,-8.524,9.355
1782117429.544720,0.158000,1874438,1000,12,0,1,914.563,-10.125,28.794,477.243,-5.978,9.089
1782117429.545720,0.159000,1874439,1000,12,0,1,908.029,-11.756,27.261,474.937,-6.541,9.093
1782117429.546720,0.160000,1874440,1000,12,0,1,905.411,-11.406,25.750,471.742,-9.056,9.182
1782117429.547720,0.161000,1874441,1000,12,0,1,913.650,-0.521,24.905,469.652,-9.007,9.257
1782117429.548720,0.162000,1874442,1000,12,0,1,918.214,8.047,24.912,474.240,-4.406,9.203
1782117429.549720,0.163000,1874443,1000,12,0,1,916.557,7.526,24.340,478.828,2.217,9.047
1782117429.550720,0.164000,1874444,1000,12,0,1,909.759,3.574,22.584,482.239,4.967,8.846
1782117429.551720,0.165000,1874445,1000,12,0,1,905.075,-0.371,21.000,485.674,8.326,8.676
1782117429.552720,0.166000,1874446,1000,12,0,1,920.808,13.160,20.454,486.226,8.343,8.571
1782117429.553720,0.167000,1874447,1000,12,0,1,937.479,29.498,20.598,482.912,4.902,8.445
1782117429.554720,0.168000,1874448,1000,12,0,1,943.052,30.627,20.854,479.645,1.379,8.324
1782117429.555720,0.169000,1874449,1000,12,0,1,937.743,21.831,20.986,476.786,-0.823,8.221
1782117429.556720,0.170000,1874450,1000,12,0,1,924.219,5.406,20.334,478.684,0.703,8.093
1782117429.557720,0.171000,1874451,1000,12,0,1,908.246,-11.079,19.455,480.798,3.547,7.910
1782117429.558720,0.172000,1874452,1000,12,0,1,907.813,-13.306,18.070,481.999,4.111,7.564
1782117429.559720,0.173000,1874453,1000,12,0,1,930.825,6.991,17.400,478.684,1.422,7.024
1782117429.560720,0.174000,1874454,1000,12,0,1,948.312,23.741,17.684,476.546,-1.652,6.688
1782117429.561720,0.175000,1874455,1000,12,0,1,951.507,22.027,17.629,475.729,-1.908,6.497
1782117429.562720,0.176000,1874456,1000,12,0,1,960.082,23.627,16.688,475.801,-2.039,6.121
1782117429.563720,0.177000,1874457,1000,12,0,1,962.460,22.825,14.954,477.843,-0.280,5.837
1782117429.564720,0.178000,1874458,1000,12,0,1,962.508,16.592,13.275,477.123,-0.459,5.703
1782117429.565720,0.179000,1874459,1000,12,0,1,961.283,12.702,12.365,478.636,-0.323,5.665
1782117429.566720,0.180000,1874460,1000,12,0,1,948.504,-0.639,11.899,484.065,4.483,5.700
1782117429.567720,0.181000,1874461,1000,12,0,1,939.088,-11.510,11.854,488.004,7.241,5.780
1782117429.568720,0.182000,1874462,1000,12,0,1,935.005,-13.117,11.955,489.325,7.192,5.818
1782117429.569720,0.183000,1874463,1000,12,0,1,927.702,-17.318,12.185,488.076,4.787,5.804
1782117429.570720,0.184000,1874464,1000,12,0,1,929.048,-14.830,12.337,486.226,1.966,5.725
1782117429.571720,0.185000,1874465,1000,12,0,1,933.251,-7.502,12.333,485.674,0.858,5.637
1782117429.572720,0.186000,1874466,1000,12,0,1,939.593,-1.574,12.266,485.410,0.548,5.548
1782117429.573720,0.187000,1874467,1000,12,0,1,948.000,6.160,12.286,481.614,-2.309,5.371
1782117429.574720,0.188000,1874468,1000,12,0,1,945.334,3.492,12.281,475.633,-7.219,5.225
1782117429.575720,0.189000,1874469,1000,12,0,1,933.587,-9.132,12.276,471.238,-9.910,5.155
1782117429.576720,0.190000,1874470,1000,12,0,1,922.058,-19.907,12.578,471.670,-8.037,5.068
1782117429.577720,0.191000,1874471,1000,12,0,1,916.605,-24.078,13.030,473.279,-4.416,4.924
1782117429.578720,0.192000,1874472,1000,12,0,1,907.477,-28.230,13.625,473.207,-3.196,4.803
1782117429.579720,0.193000,1874473,1000,12,0,1,901.952,-31.149,14.320,472.198,-3.193,4.747
1782117429.580720,0.194000,1874474,1000,12,0,1,902.817,-25.389,14.750,471.958,-2.840,4.724
1782117429.581720,0.195000,1874475,1000,12,0,1,921.865,-6.859,14.764,473.760,-0.907,4.725
1782117429.582720,0.196000,1874476,1000,12,0,1,949.994,21.113,15.037,477.603,2.530,4.739
1782117429.583720,0.197000,1874477,1000,12,0,1,976.993,42.304,16.112,483.872,7.257,4.844
1782117429.584720,0.198000,1874478,1000,12,0,1,982.349,43.966,17.209,485.482,8.198,4.976
1782117429.585720,0.199000,1874479,1000,12,0,1,966.424,22.822,17.502,481.735,2.995,4.932
1782117429.586720,0.200000,1874480,1000,12,0,1,949.489,2.606,17.505,476.138,-2.914,4.908
1782117429.587720,0.201000,1874481,1000,12,0,1,938.824,-7.595,17.538,471.886,-6.994,4.994
1782117429.588720,0.202000,1874482,1000,12,0,1,921.985,-19.615,17.754,471.934,-6.355,5.063
1782117429.589720,0.203000,1874483,1000,12,0,1,910.383,-27.463,18.155,478.180,-0.079,5.039
1782117429.590720,0.204000,1874484,1000,12,0,1,911.681,-20.998,18.330,477.195,1.229,5.008
1782117429.591720,0.205000,1874485,1000,12,0,1,917.157,-10.432,18.337,478.444,0.888,5.009
1782117429.592720,0.206000,1874486,1000,12,0,1,914.659,-8.069,18.371,480.990,4.704,5.001
1782117429.593720,0.207000,1874487,1000,12,0,1,917.061,-4.928,18.379,482.239,5.251,4.910
1782117429.594720,0.208000,1874488,1000,12,0,1,938.560,14.165,18.433,486.923,8.792,4.994
1782117429.595720,0.209000,1874489,1000,12,0,1,964.886,36.795,19.081,489.733,11.106,5.152
1782117429.596720,0.210000,1874490,1000,12,0,1,983.190,46.953,20.139,493.601,12.104,5.276
1782117429.597720,0.211000,1874491,1000,12,0,1,973.390,32.542,20.658,494.610,12.159,5.401
1782117429.598720,0.212000,1874492,1000,12,0,1,954.894,5.511,20.641,493.433,8.152,5.488
1782117429.599720,0.213000,1874493,1000,12,0,1,954.581,-0.501,20.614,490.142,3.956,5.507
1782117429.600720,0.214000,1874494,1000,12,0,1,962.292,4.165,20.616,484.641,-2.611,5.475
1782117429.601720,0.215000,1874495,1000,12,0,1,957.536,-1.294,20.617,483.848,-4.537,5.385
1782117429.602720,0.216000,1874496,1000,12,0,1,943.124,-15.956,20.656,485.121,-3.173,5.273
1782117429.603720,0.217000,1874497,1000,12,0,1,935.701,-22.850,20.487,485.290,-3.440,5.250
1782117429.604720,0.218000,1874498,1000,12,0,1,933.708,-20.917,20.241,482.671,-5.615,5.306
1782117429.605720,0.219000,1874499,1000,12,0,1,937.118,-15.122,20.118,482.960,-6.199,5.377
1782117429.606720,0.220000,1874500,1000,12,0,1,941.442,-6.930,20.128,482.623,-5.385,5.429
1782117429.607720,0.221000,1874501,1000,12,0,1,941.971,-3.849,20.074,480.197,-7.502,5.509
1782117429.608720,0.222000,1874502,1000,12,0,1,929.048,-11.264,20.049,479.909,-7.220,5.573
1782117429.609720,0.223000,1874503,1000,12,0,1,917.710,-20.074,20.225,481.518,-4.819,5.611
1782117429.610720,0.224000,1874504,1000,12,0,1,913.410,-18.743,20.119,481.326,-3.891,5.633
1782117429.611720,0.225000,1874505,1000,12,0,1,908.510,-18.180,20.042,480.389,-4.069,5.656
1782117429.612720,0.226000,1874506,1000,12,0,1,903.009,-18.715,19.938,477.771,-5.152,5.695
1782117429.613720,0.227000,1874507,1000,12,0,1,900.799,-16.631,19.815,477.339,-4.872,5.737
1782117429.614720,0.228000,1874508,1000,12,0,1,905.747,-9.317,19.720,477.819,-2.780,5.750
1782117429.615720,0.229000,1874509,1000,12,0,1,913.866,0.653,19.638,477.723,-1.845,5.755
1782117429.616720,0.230000,1874510,1000,12,0,1,927.342,11.840,19.709,479.044,0.029,5.720
1782117429.617720,0.231000,1874511,1000,12,0,1,940.433,22.532,19.899,480.005,1.773,5.634
1782117429.618720,0.232000,1874512,1000,12,0,1,952.227,28.238,20.211,481.614,3.031,5.558
1782117429.619720,0.233000,1874513,1000,12,0,1,955.614,27.297,20.430,483.032,4.466,5.552
1782117429.620720,0.234000,1874514,1000,12,0,1,948.480,15.504,20.440,484.329,4.830,5.587
1782117429.621720,0.235000,1874515,1000,12,0,1,949.441,10.715,20.468,482.143,2.808,5.600
1782117429.622720,0.236000,1874516,1000,12,0,1,954.005,13.376,20.554,480.461,0.011,5.599
1782117429.623720,0.237000,1874517,1000,12,0,1,952.203,9.677,20.581,475.081,-3.911,5.617
1782117429.624720,0.238000,1874518,1000,12,0,1,947.760,4.339,20.585,475.393,-4.945,5.568
1782117429.625720,0.239000,1874519,1000,12,0,1,940.722,-1.657,20.545,477.363,-1.342,5.392
1782117429.626720,0.240000,1874520,1000,12,0,1,932.146,-8.011,20.383,478.228,-0.817,5.272
1782117429.627720,0.241000,1874521,1000,12,0,1,926.958,-10.324,20.150,482.071,2.517,5.247
1782117429.628720,0.242000,1874522,1000,12,0,1,921.073,-11.485,19.817,482.791,3.712,5.254
1782117429.629720,0.243000,1874523,1000,12,0,1,913.963,-14.277,19.426,483.080,2.672,5.248
1782117429.630720,0.244000,1874524,1000,12,0,1,910.576,-13.670,19.189,482.575,2.586,5.245
1782117429.631720,0.245000,1874525,1000,12,0,1,911.993,-8.931,19.206,481.350,0.742,5.245
1782117429.632720,0.246000,1874526,1000,12,0,1,914.779,-3.765,18.980,477.579,-1.823,5.239
1782117429.633720,0.247000,1874527,1000,12,0,1,915.428,-1.747,18.014,475.321,-4.086,5.170
1782117429.634720,0.248000,1874528,1000,12,0,1,915.908,-1.494,16.909,473.520,-4.094,5.071
1782117429.635720,0.249000,1874529,1000,12,0,1,918.214,-0.053,16.598,473.640,-3.453,5.077
1782117429.636720,0.250000,1874530,1000,12,0,1,924.868,4.088,16.604,474.985,-0.882,5.062
1782117429.637720,0.251000,1874531,1000,12,0,1,932.963,9.438,16.623,474.504,-0.430,4.965
1782117429.638720,0.252000,1874532,1000,12,0,1,931.137,5.998,16.411,475.321,0.331,4.883
1782117429.639720,0.253000,1874533,1000,12,0,1,939.064,7.428,15.980,473.279,-0.313,4.883
1782117429.640720,0.254000,1874534,1000,12,0,1,960.491,24.022,16.065,471.358,-2.524,4.893
1782117429.641720,0.255000,1874535,1000,12,0,1,982.421,38.717,16.908,469.700,-2.897,4.908
1782117429.642720,0.256000,1874536,1000,12,0,1,981.869,34.201,17.549,471.045,-1.933,4.871
1782117429.643720,0.257000,1874537,1000,12,0,1,959.842,8.285,17.574,475.825,2.879,4.831
1782117429.644720,0.258000,1874538,1000,12,0,1,934.332,-17.067,17.626,476.714,3.970,4.702
1782117429.645720,0.259000,1874539,1000,12,0,1,916.725,-30.675,17.390,474.528,1.176,4.435
1782117429.646720,0.260000,1874540,1000,12,0,1,911.488,-30.127,16.627,472.535,-0.850,4.093
1782117429.647720,0.261000,1874541,1000,12,0,1,912.425,-21.675,16.269,470.661,-2.450,3.731
1782117429.648720,0.262000,1874542,1000,12,0,1,910.287,-16.810,16.424,468.499,-3.752,3.587
1782117429.649720,0.263000,1874543,1000,12,0,1,898.902,-20.255,16.671,468.763,-3.104,3.571
1782117429.650720,0.264000,1874544,1000,12,0,1,890.374,-23.636,16.993,470.133,-0.687,3.553
1782117429.651720,0.265000,1874545,1000,12,0,1,898.830,-11.595,17.071,470.757,0.537,3.495
1782117429.652720,0.266000,1874546,1000,12,0,1,918.022,8.973,16.969,472.463,2.392,3.483
1782117429.653720,0.267000,1874547,1000,12,0,1,951.002,35.841,17.412,474.937,4.907,3.518
1782117429.654720,0.268000,1874548,1000,12,0,1,985.880,61.938,19.265,477.411,6.872,3.562
1782117429.655720,0.269000,1874549,1000,12,0,1,1000.893,65.220,21.252,478.588,7.527,3.613
1782117429.656720,0.270000,1874550,1000,12,0,1,1002.935,52.276,22.480,480.365,7.906,3.704
1782117429.657720,0.271000,1874551,1000,12,0,1,996.762,34.239,22.989,481.494,8.137,3.731
1782117429.658720,0.272000,1874552,1000,12,0,1,975.023,5.329,22.946,482.143,7.202,3.730
1782117429.659720,0.273000,1874553,1000,12,0,1,951.819,-22.564,22.993,484.809,7.989,3.838
1782117429.660720,0.274000,1874554,1000,12,0,1,927.462,-43.422,23.650,487.067,8.649,3.990
1782117429.661720,0.275000,1874555,1000,12,0,1,908.126,-57.408,24.873,489.854,8.842,4.142
1782117429.662720,0.276000,1874556,1000,12,0,1,907.405,-50.834,25.755,491.079,8.270,4.242
1782117429.663720,0.277000,1874557,1000,12,0,1,913.722,-34.765,26.114,488.749,4.105,4.225
1782117429.664720,0.278000,1874558,1000,12,0,1,906.852,-30.852,26.444,482.455,-2.771,4.225
1782117429.665720,0.279000,1874559,1000,12,0,1,901.616,-29.060,26.761,481.590,-5.338,4.284
1782117429.666720,0.280000,1874560,1000,12,0,1,901.832,-19.901,26.856,481.422,-4.490,4.331
1782117429.667720,0.281000,1874561,1000,12,0,1,903.970,-11.183,26.713,477.747,-7.731,4.460
1782117429.668720,0.282000,1874562,1000,12,0,1,910.888,0.077,26.413,474.721,-9.924,4.656
1782117429.669720,0.283000,1874563,1000,12,0,1,919.992,11.583,26.181,474.552,-9.015,4.786
1782117429.670720,0.284000,1874564,1000,12,0,1,940.842,28.459,26.398,474.192,-7.776,4.863
1782117429.671720,0.285000,1874565,1000,12,0,1,959.169,43.508,27.063,472.439,-7.953,4.975
1782117429.672720,0.286000,1874566,1000,12,0,1,959.121,37.245,27.506,472.871,-6.663,5.064
1782117429.673720,0.287000,1874567,1000,12,0,1,946.703,18.829,27.600,474.817,-3.410,5.056
1782117429.674720,0.288000,1874568,1000,12,0,1,945.165,9.277,27.625,477.267,-0.619,5.009
1782117429.675720,0.289000,1874569,1000,12,0,1,943.724,5.625,27.635,476.426,-0.326,5.005
1782117429.676720,0.290000,1874570,1000,12,0,1,930.465,-9.338,27.643,476.354,-0.897,5.005
1782117429.677720,0.291000,1874571,1000,12,0,1,920.376,-20.634,27.759,478.324,1.333,4.996
1782117429.678720,0.292000,1874572,1000,12,0,1,913.674,-24.281,27.923,479.525,2.365,4.980
1782117429.679720,0.293000,1874573,1000,12,0,1,912.257,-23.483,28.047,480.846,3.070,4.985
1782117429.680720,0.294000,1874574,1000,12,0,1,914.419,-16.736,28.080,481.638,3.462,4.995
1782117429.681720,0.295000,1874575,1000,12,0,1,914.131,-12.761,28.110,480.053,1.589,4.999
1782117429.682720,0.296000,1874576,1000,12,0,1,914.491,-8.513,28.131,479.837,0.613,4.993
1782117429.683720,0.297000,1874577,1000,12,0,1,907.597,-9.159,28.159,476.162,-1.972,4.967
1782117429.684720,0.298000,1874578,1000,12,0,1,900.175,-12.357,28.213,475.489,-3.480,4.958
1782117429.685720,0.299000,1874579,1000,12,0,1,901.208,-6.607,28.228,474.961,-2.418,4.946
1782117429.686720,0.300000,1874580,1000,12,0,1,905.796,2.155,28.224,475.513,-2.116,4.953
1782117429.687720,0.301000,1874581,1000,12,0,1,913.842,11.650,28.241,477.483,0.492,4.953
1782117429.688720,0.302000,1874582,1000,12,0,1,924.412,21.920,28.398,478.276,1.484,4.958
1782117429.689720,0.303000,1874583,1000,12,0,1,925.589,22.614,28.558,478.996,1.921,4.965
1782117429.690720,0.304000,1874584,1000,12,0,1,928.543,20.622,28.505,480.774,3.395,4.975
1782117429.691720,0.305000,1874585,1000,12,0,1,940.361,27.297,28.239,478.924,1.856,4.965
1782117429.692720,0.306000,1874586,1000,12,0,1,946.174,28.402,28.110,472.871,-3.558,4.983
1782117429.693720,0.307000,1874587,1000,12,0,1,954.293,27.432,28.352,469.868,-6.425,5.049
1782117429.694720,0.308000,1874588,1000,12,0,1,960.803,27.701,28.520,468.139,-6.254,5.095
1782117429.695720,0.309000,1874589,1000,12,0,1,962.725,21.462,28.351,467.082,-6.351,5.171
1782117429.696720,0.310000,1874590,1000,12,0,1,955.014,9.519,28.061,469.652,-2.934,5.186
1782117429.697720,0.311000,1874591,1000,12,0,1,944.565,-5.394,27.904,470.877,-0.476,5.175
1782117429.698720,0.312000,1874592,1000,12,0,1,937.359,-13.460,27.867,470.517,-0.560,5.148
1782117429.699720,0.313000,1874593,1000,12,0,1,932.627,-17.322,27.828,474.817,2.958,5.147
1782117429.700720,0.314000,1874594,1000,12,0,1,935.725,-13.612,27.693,471.742,1.779,5.152
1782117429.701720,0.315000,1874595,1000,12,0,1,935.917,-9.509,27.677,471.021,-0.886,5.153
1782117429.702720,0.316000,1874596,1000,12,0,1,931.762,-11.599,27.697,469.340,-0.532,5.142
1782117429.703720,0.317000,1874597,1000,12,0,1,928.351,-11.512,27.278,466.337,-3.739,5.123
1782117429.704720,0.318000,1874598,1000,12,0,1,927.342,-9.703,25.869,465.617,-3.366,5.052
1782117429.705720,0.319000,1874599,1000,12,0,1,912.281,-17.429,24.295,468.139,-0.547,4.939
1782117429.706720,0.320000,1874600,1000,12,0,1,891.671,-32.956,23.607,470.901,2.751,4.827
1782117429.707720,0.321000,1874601,1000,12,0,1,879.012,-37.962,23.721,472.775,4.570,4.732
1782117429.708720,0.322000,1874602,1000,12,0,1,872.287,-36.384,24.261,472.583,4.247,4.660
1782117429.709720,0.323000,1874603,1000,12,0,1,872.815,-29.206,24.402,471.382,2.930,4.540
1782117429.710720,0.324000,1874604,1000,12,0,1,888.813,-10.169,23.660,471.382,2.443,4.385
1782117429.711720,0.325000,1874605,1000,12,0,1,916.100,16.653,22.348,474.913,5.269,4.269
1782117429.712720,0.326000,1874606,1000,12,0,1,944.229,39.940,21.901,479.453,8.800,4.290
1782117429.713720,0.327000,1874607,1000,12,0,1,953.356,43.617,22.216,481.590,9.798,4.471
1782117429.714720,0.328000,1874608,1000,12,0,1,952.972,33.560,22.294,480.197,7.083,4.565
1782117429.715720,0.329000,1874609,1000,12,0,1,957.080,29.044,22.294,474.240,0.898,4.504
1782117429.716720,0.330000,1874610,1000,12,0,1,952.083,19.576,22.288,474.624,-0.745,4.460
1782117429.717720,0.331000,1874611,1000,12,0,1,943.100,5.258,22.244,474.432,0.347,4.324
1782117429.718720,0.332000,1874612,1000,12,0,1,948.288,6.086,22.261,476.066,0.244,4.090
1782117429.719720,0.333000,1874613,1000,12,0,1,954.726,11.630,22.261,474.937,0.313,3.887
1782117429.720720,0.334000,1874614,1000,12,0,1,947.231,4.545,21.904,477.267,0.516,3.729
1782117429.721720,0.335000,1874615,1000,12,0,1,936.158,-6.284,21.041,476.474,1.027,3.558
1782117429.722720,0.336000,1874616,1000,12,0,1,946.318,1.985,20.373,476.066,-1.012,3.434
1782117429.723720,0.337000,1874617,1000,12,0,1,953.573,12.916,20.280,476.954,0.106,3.400
1782117429.724720,0.338000,1874618,1000,12,0,1,948.768,7.645,20.267,474.769,-1.839,3.409
1782117429.725720,0.339000,1874619,1000,12,0,1,944.349,3.245,20.256,476.642,-1.301,3.413
1782117429.726720,0.340000,1874620,1000,12,0,1,943.940,2.513,20.216,474.985,-1.175,3.415
1782117429.727720,0.341000,1874621,1000,12,0,1,942.571,1.278,20.006,476.738,-1.542,3.417
1782117429.728720,0.342000,1874622,1000,12,0,1,935.725,-5.101,19.722,476.834,0.402,3.401
1782117429.729720,0.343000,1874623,1000,12,0,1,934.524,-8.426,19.477,477.315,-0.747,3.375
1782117429.730720,0.344000,1874624,1000,12,0,1,933.756,-8.428,19.369,478.660,1.220,3.343
1782117429.731720,0.345000,1874625,1000,12,0,1,936.134,-8.910,19.326,478.948,0.877,3.338
1782117429.732720,0.346000,1874626,1000,12,0,1,935.317,-9.387,19.334,479.477,1.069,3.340
1782117429.733720,0.347000,1874627,1000,12,0,1,931.378,-15.126,19.409,477.843,-0.267,3.329
1782117429.734720,0.348000,1874628,1000,12,0,1,930.417,-16.594,19.472,478.756,-0.479,3.293
1782117429.735720,0.349000,1874629,1000,12,0,1,927.030,-18.728,19.629,479.164,0.681,3.277
1782117429.736720,0.350000,1874630,1000,12,0,1,928.303,-17.800,19.787,479.501,0.040,3.263
1782117429.737720,0.351000,1874631,1000,12,0,1,928.903,-14.059,19.819,478.324,-0.465,3.263
1782117429.738720,0.352000,1874632,1000,12,0,1,928.783,-12.898,19.660,474.913,-3.825,3.301
1782117429.739720,0.353000,1874633,1000,12,0,1,928.207,-9.896,19.448,474.480,-4.201,3.343
1782117429.740720,0.354000,1874634,1000,12,0,1,930.873,-5.327,19.243,476.186,-2.006,3.320
1782117429.741720,0.355000,1874635,1000,12,0,1,935.341,2.252,18.854,475.825,-1.754,3.319
1782117429.742720,0.356000,1874636,1000,12,0,1,933.635,3.892,18.430,476.378,-1.444,3.287
1782117429.743720,0.357000,1874637,1000,12,0,1,929.648,2.146,18.019,478.180,0.418,3.160
1782117429.744720,0.358000,1874638,1000,12,0,1,927.174,2.574,17.592,479.188,1.295,3.039
1782117429.745720,0.359000,1874639,1000,12,0,1,928.519,5.458,17.346,478.684,0.636,2.904
1782117429.746720,0.360000,1874640,1000,12,0,1,929.720,8.681,17.337,476.498,-1.380,2.881
1782117429.747720,0.361000,1874641,1000,12,0,1,928.735,8.066,17.358,475.922,-2.233,2.898
1782117429.748720,0.362000,1874642,1000,12,0,1,929.144,7.907,17.289,477.363,-0.576,2.898
1782117429.749720,0.363000,1874643,1000,12,0,1,931.113,8.563,17.157,478.516,0.624,2.869
1782117429.750720,0.364000,1874644,1000,12,0,1,937.599,11.715,17.129,475.850,-1.265,2.863
1782117429.751720,0.365000,1874645,1000,12,0,1,934.933,8.257,17.116,474.360,-3.055,2.893
1782117429.752720,0.366000,1874646,1000,12,0,1,927.774,-2.451,17.041,477.363,0.008,2.892
1782117429.753720,0.367000,1874647,1000,12,0,1,927.390,-5.140,16.979,480.245,3.053,2.876
1782117429.754720,0.368000,1874648,1000,12,0,1,926.790,-6.323,16.947,481.230,3.603,2.882
1782117429.755720,0.369000,1874649,1000,12,0,1,926.958,-7.677,16.802,479.837,2.114,2.896
1782117429.756720,0.370000,1874650,1000,12,0,1,930.513,-4.703,16.156,479.092,0.658,2.871
1782117429.757720,0.371000,1874651,1000,12,0,1,931.786,-3.224,15.245,481.110,2.166,2.814
1782117429.758720,0.372000,1874652,1000,12,0,1,924.868,-8.178,14.397,484.689,4.867,2.834
1782117429.759720,0.373000,1874653,1000,12,0,1,919.968,-12.048,13.896,485.962,5.540,2.911
1782117429.760720,0.374000,1874654,1000,12,0,1,921.865,-7.321,13.861,482.767,1.867,2.903
1782117429.761720,0.375000,1874655,1000,12,0,1,923.186,-2.550,13.664,480.630,-1.235,2.811
1782117429.762720,0.376000,1874656,1000,12,0,1,921.697,-0.918,12.442,480.461,-1.382,2.528
1782117429.763720,0.377000,1874657,1000,12,0,1,923.114,2.550,10.812,476.522,-4.337,2.202
1782117429.764720,0.378000,1874658,1000,12,0,1,924.868,6.813,9.762,472.198,-8.159,2.275
1782117429.765720,0.379000,1874659,1000,12,0,1,924.339,7.775,8.924,468.643,-9.882,2.667
1782117429.766720,0.380000,1874660,1000,12,0,1,922.490,6.905,8.540,467.010,-10.069,3.021
1782117429.767720,0.381000,1874661,1000,12,0,1,921.193,5.904,8.548,470.109,-5.840,3.132
1782117429.768720,0.382000,1874662,1000,12,0,1,920.784,5.308,8.538,470.349,-3.389,3.168
1782117429.769720,0.383000,1874663,1000,12,0,1,919.848,3.915,8.396,472.006,-1.993,3.180
1782117429.770720,0.384000,1874664,1000,12,0,1,921.817,3.892,8.389,474.072,1.200,3.184
1782117429.771720,0.385000,1874665,1000,12,0,1,922.058,3.244,8.355,477.051,3.357,3.216
1782117429.772720,0.386000,1874666,1000,12,0,1,918.262,-2.161,8.356,482.167,7.673,3.391
1782117429.773720,0.387000,1874667,1000,12,0,1,917.397,-4.945,8.183,482.936,7.995,3.575
1782117429.774720,0.388000,1874668,1000,12,0,1,917.686,-5.228,8.145,486.515,8.668,3.770
1782117429.775720,0.389000,1874669,1000,12,0,1,917.133,-6.445,8.183,489.037,10.504,4.048
1782117429.776720,0.390000,1874670,1000,12,0,1,917.037,-6.592,8.229,490.214,8.966,4.239
1782117429.777720,0.391000,1874671,1000,12,0,1,919.583,-4.217,8.248,487.644,5.872,4.314
1782117429.778720,0.392000,1874672,1000,12,0,1,917.085,-4.554,8.242,483.728,0.474,4.314
1782117429.779720,0.393000,1874673,1000,12,0,1,912.810,-7.679,8.227,486.106,1.461,4.317
1782117429.780720,0.394000,1874674,1000,12,0,1,905.483,-10.792,8.282,490.886,5.622,4.387
1782117429.781720,0.395000,1874675,1000,12,0,1,901.664,-11.784,8.354,495.811,8.569,4.549
1782117429.782720,0.396000,1874676,1000,12,0,1,899.550,-8.585,8.337,495.354,7.504,4.669
1782117429.783720,0.397000,1874677,1000,12,0,1,891.287,-11.013,8.207,498.213,6.761,4.766
1782117429.784720,0.398000,1874678,1000,12,0,1,883.072,-14.229,8.117,494.994,4.280,4.804
1782117429.785720,0.399000,1874679,1000,12,0,1,879.541,-12.104,7.862,485.578,-6.270,4.884
1782117429.786720,0.400000,1874680,1000,12,0,1,883.624,-4.491,7.475,474.672,-15.273,5.340
1782117429.787720,0.401000,1874681,1000,12,0,1,890.110,5.346,7.245,469.076,-19.488,6.009
1782117429.788720,0.402000,1874682,1000,12,0,1,894.266,10.270,7.160,471.334,-14.957,6.347
1782117429.789720,0.403000,1874683,1000,12,0,1,896.956,12.429,7.239,476.282,-7.926,6.418
1782117429.790720,0.404000,1874684,1000,12,0,1,898.805,12.528,7.414,480.413,-2.933,6.425
1782117429.791720,0.405000,1874685,1000,12,0,1,901.712,12.658,7.621,484.161,0.960,6.422
1782117429.792720,0.406000,1874686,1000,12,0,1,908.534,15.521,7.912,485.530,2.053,6.425
1782117429.793720,0.407000,1874687,1000,12,0,1,927.078,26.932,8.775,483.848,0.222,6.425
1782117429.794720,0.408000,1874688,1000,12,0,1,949.369,41.820,10.576,477.747,-5.246,6.465
1782117429.795720,0.409000,1874689,1000,12,0,1,959.169,43.479,12.209,474.264,-8.569,6.577
1782117429.796720,0.410000,1874690,1000,12,0,1,956.071,31.977,12.962,470.133,-10.198,6.731
1782117429.797720,0.411000,1874691,1000,12,0,1,945.382,15.351,13.093,469.892,-9.677,6.861
1782117429.798720,0.412000,1874692,1000,12,0,1,926.189,-5.369,13.067,471.670,-5.490,6.904
1782117429.799720,0.413000,1874693,1000,12,0,1,910.936,-20.704,13.336,470.709,-4.609,6.934
1782117429.800720,0.414000,1874694,1000,12,0,1,898.469,-27.805,13.805,469.436,-4.424,6.960
1782117429.801720,0.415000,1874695,1000,12,0,1,894.001,-27.949,14.312,464.776,-6.194,7.002
1782117429.802720,0.416000,1874696,1000,12,0,1,894.818,-20.306,14.593,458.819,-9.963,7.142
1782117429.803720,0.417000,1874697,1000,12,0,1,908.894,-4.473,14.589,457.354,-8.855,7.238
1782117429.804720,0.418000,1874698,1000,12,0,1,913.530,6.091,14.587,460.236,-3.801,7.240
1782117429.805720,0.419000,1874699,1000,12,0,1,896.307,-7.669,14.587,465.064,2.569,7.243
1782117429.806720,0.420000,1874700,1000,12,0,1,896.067,-9.860,14.638,469.172,7.262,7.315
1782117429.807720,0.421000,1874701,1000,12,0,1,928.591,19.648,14.892,466.986,6.091,7.359
1782117429.808720,0.422000,1874702,1000,12,0,1,946.511,36.736,15.730,468.403,5.772,7.372
1782117429.809720,0.423000,1874703,1000,12,0,1,937.191,21.899,15.941,471.238,8.872,7.437
1782117429.810720,0.424000,1874704,1000,12,0,1,943.028,16.813,16.084,474.024,9.865,7.562
1782117429.811720,0.425000,1874705,1000,12,0,1,960.010,27.478,16.543,479.068,13.000,7.781
1782117429.812720,0.426000,1874706,1000,12,0,1,955.638,18.008,16.738,483.680,15.316,8.074
1782117429.813720,0.427000,1874707,1000,12,0,1,933.539,-8.322,16.775,485.410,14.457,8.306
1782117429.814720,0.428000,1874708,1000,12,0,1,922.778,-23.036,17.061,483.896,10.765,8.366
1782117429.815720,0.429000,1874709,1000,12,0,1,925.853,-19.494,17.248,486.178,9.621,8.359
1782117429.816720,0.430000,1874710,1000,12,0,1,925.973,-17.028,17.387,493.192,13.957,8.470
1782117429.817720,0.431000,1874711,1000,12,0,1,926.742,-15.351,17.503,498.045,15.958,8.727
1782117429.818720,0.432000,1874712,1000,12,0,1,926.742,-12.068,17.569,499.414,14.168,8.941
1782117429.819720,0.433000,1874713,1000,12,0,1,933.539,-5.111,17.576,506.212,16.023,9.220
1782117429.820720,0.434000,1874714,1000,12,0,1,940.073,4.217,17.577,506.644,14.890,9.455
1782117429.821720,0.435000,1874715,1000,12,0,1,938.416,3.782,17.579,500.255,5.211,9.472
1782117429.822720,0.436000,1874716,1000,12,0,1,935.701,1.718,17.578,494.057,-2.288,9.415
1782117429.823720,0.437000,1874717,1000,12,0,1,931.978,-0.206,17.564,487.067,-9.110,9.436
1782117429.824720,0.438000,1874718,1000,12,0,1,933.419,0.791,17.549,476.186,-17.875,9.691
1782117429.825720,0.439000,1874719,1000,12,0,1,935.317,3.973,17.535,469.916,-22.425,10.088
1782117429.826720,0.440000,1874720,1000,12,0,1,930.273,-0.751,17.510,470.997,-18.640,10.349
1782117429.827720,0.441000,1874721,1000,12,0,1,925.613,-5.940,17.520,468.956,-16.695,10.583
1782117429.828720,0.442000,1874722,1000,12,0,1,920.688,-9.984,17.565,471.286,-13.727,10.759
1782117429.829720,0.443000,1874723,1000,12,0,1,914.731,-15.310,17.665,474.504,-7.720,10.812
1782117429.830720,0.444000,1874724,1000,12,0,1,913.074,-16.513,17.753,477.675,-4.731,10.804
1782117429.831720,0.445000,1874725,1000,12,0,1,910.239,-17.245,17.842,479.044,-2.340,10.741
1782117429.832720,0.446000,1874726,1000,12,0,1,908.294,-18.384,17.989,476.762,-4.486,10.707
1782117429.833720,0.447000,1874727,1000,12,0,1,912.281,-13.475,18.023,475.537,-5.715,10.695
1782117429.834720,0.448000,1874728,1000,12,0,1,918.022,-6.698,17.935,471.214,-8.145,10.740
1782117429.835720,0.449000,1874729,1000,12,0,1,920.905,-3.023,17.859,473.231,-6.953,10.748
1782117429.836720,0.450000,1874730,1000,12,0,1,921.721,-1.633,17.849,474.072,-3.217,10.539
1782117429.837720,0.451000,1874731,1000,12,0,1,926.453,2.750,17.837,472.342,-4.627,10.193
1782117429.838720,0.452000,1874732,1000,12,0,1,936.446,12.179,17.861,470.229,-4.582,9.992
1782117429.839720,0.453000,1874733,1000,12,0,1,944.349,19.423,17.985,473.015,-1.546,9.931
1782117429.840720,0.454000,1874734,1000,12,0,1,948.793,21.946,18.165,475.633,3.060,9.932
1782117429.841720,0.455000,1874735,1000,12,0,1,944.301,17.302,18.241,478.924,6.088,9.969
1782117429.842720,0.456000,1874736,1000,12,0,1,939.665,10.685,18.172,479.333,7.506,10.021
1782117429.843720,0.457000,1874737,1000,12,0,1,947.207,15.875,17.909,479.164,6.717,10.066
1782117429.844720,0.458000,1874738,1000,12,0,1,958.185,24.923,17.268,475.225,3.871,10.053
1782117429.845720,0.459000,1874739,1000,12,0,1,959.025,23.404,16.472,469.916,-1.115,9.981
1782117429.846720,0.460000,1874740,1000,12,0,1,944.108,7.432,15.874,466.698,-3.367,9.888
1782117429.847720,0.461000,1874741,1000,12,0,1,923.763,-13.535,15.841,465.304,-3.475,9.805
1782117429.848720,0.462000,1874742,1000,12,0,1,907.645,-27.416,16.291,462.830,-4.502,9.795
1782117429.849720,0.463000,1874743,1000,12,0,1,889.317,-39.774,16.984,465.905,-1.633,9.776
1782117429.850720,0.464000,1874744,1000,12,0,1,882.784,-42.716,17.592,461.797,-2.845,9.764
1782117429.851720,0.465000,1874745,1000,12,0,1,881.342,-36.394,17.899,456.177,-8.607,9.801
1782117429.852720,0.466000,1874746,1000,12,0,1,878.268,-34.077,18.312,455.624,-7.655,9.759
1782117429.853720,0.467000,1874747,1000,12,0,1,874.833,-31.388,18.832,462.014,-1.387,9.680
1782117429.854720,0.468000,1874748,1000,12,0,1,876.779,-25.270,19.149,464.248,2.489,9.672
1782117429.855720,0.469000,1874749,1000,12,0,1,883.552,-14.365,19.226,468.115,4.520,9.686
1782117429.856720,0.470000,1874750,1000,12,0,1,886.963,-6.977,19.200,473.520,9.449,9.724
1782117429.857720,0.471000,1874751,1000,12,0,1,906.876,10.096,19.052,469.988,6.243,9.726
1782117429.858720,0.472000,1874752,1000,12,0,1,945.862,45.040,19.405,466.385,1.093,9.693
1782117429.859720,0.473000,1874753,1000,12,0,1,982.397,73.167,21.772,465.665,1.261,9.613
1782117429.860720,0.474000,1874754,1000,12,0,1,995.273,76.905,24.221,467.947,2.995,9.520
1782117429.861720,0.475000,1874755,1000,12,0,1,976.176,49.961,24.930,472.006,7.441,9.400
1782117429.862720,0.476000,1874756,1000,12,0,1,941.466,10.413,24.843,478.516,12.328,9.312
1782117429.863720,0.477000,1874757,1000,12,0,1,918.142,-14.285,24.897,481.038,14.541,9.315
1782117429.864720,0.478000,1874758,1000,12,0,1,906.997,-21.249,24.865,484.833,15.013,9.431
1782117429.865720,0.479000,1874759,1000,12,0,1,899.382,-23.140,24.928,485.770,14.923,9.568
1782117429.866720,0.480000,1874760,1000,12,0,1,900.895,-17.502,24.934,483.272,9.869,9.466
1782117429.867720,0.481000,1874761,1000,12,0,1,904.931,-8.340,24.868,481.134,5.993,9.232
1782117429.868720,0.482000,1874762,1000,12,0,1,908.342,-2.979,24.813,479.837,3.236,9.024
1782117429.869720,0.483000,1874763,1000,12,0,1,910.600,0.726,24.802,477.507,-0.018,8.735
1782117429.870720,0.484000,1874764,1000,12,0,1,914.251,3.156,24.799,477.483,-1.397,8.479
1782117429.871720,0.485000,1874765,1000,12,0,1,919.824,6.787,24.812,473.664,-4.702,8.473
1782117429.872720,0.486000,1874766,1000,12,0,1,927.702,10.663,24.856,475.850,-4.796,8.494
1782117429.873720,0.487000,1874767,1000,12,0,1,929.432,9.396,24.892,479.549,-0.754,8.397
1782117429.874720,0.488000,1874768,1000,12,0,1,916.605,-5.060,24.902,480.630,-0.992,8.008
1782117429.875720,0.489000,1874769,1000,12,0,1,910.528,-15.068,24.987,482.047,-0.777,7.354
1782117429.876720,0.490000,1874770,1000,12,0,1,917.301,-9.021,25.019,478.324,-4.049,6.890
1782117429.877720,0.491000,1874771,1000,12,0,1,921.601,-4.567,25.013,475.297,-8.101,6.573
1782117429.878720,0.492000,1874772,1000,12,0,1,913.482,-10.726,25.019,472.871,-8.876,6.404
1782117429.879720,0.493000,1874773,1000,12,0,1,910.768,-13.854,25.002,470.469,-10.466,6.481
1782117429.880720,0.494000,1874774,1000,12,0,1,915.692,-6.122,24.908,468.235,-10.402,6.613
1782117429.881720,0.495000,1874775,1000,12,0,1,923.451,2.864,24.792,464.392,-11.800,6.812
1782117429.882720,0.496000,1874776,1000,12,0,1,924.195,6.657,24.673,461.942,-11.800,6.984
1782117429.883720,0.497000,1874777,1000,12,0,1,918.575,2.786,24.602,459.804,-10.678,7.100
1782117429.884720,0.498000,1874778,1000,12,0,1,917.686,3.060,24.588,458.987,-9.043,7.122
1782117429.885720,0.499000,1874779,1000,12,0,1,918.935,6.744,24.603,458.218,-6.775,7.118
1782117429.886720,0.500000,1874780,1000,12,0,1,917.157,6.398,24.618,459.539,-3.931,7.125
1782117429.887720,0.501000,1874781,1000,12,0,1,915.596,5.602,24.628,458.627,-2.199,7.102
1782117429.888720,0.502000,1874782,1000,12,0,1,920.208,8.986,24.601,457.089,-2.825,7.084
1782117429.889720,0.503000,1874783,1000,12,0,1,928.231,15.379,24.543,463.191,2.935,7.093
1782117429.890720,0.504000,1874784,1000,12,0,1,941.442,23.167,24.566,468.355,8.738,7.186
1782117429.891720,0.505000,1874785,1000,12,0,1,951.579,28.250,24.768,473.159,11.169,7.307
1782117429.892720,0.506000,1874786,1000,12,0,1,963.013,30.049,25.084,476.354,13.026,7.461
1782117429.893720,0.507000,1874787,1000,12,0,1,963.853,25.031,25.233,476.618,10.765,7.555
1782117429.894720,0.508000,1874788,1000,12,0,1,966.616,16.921,25.100,480.942,11.761,7.717
1782117429.895720,0.509000,1874789,1000,12,0,1,971.684,15.633,24.979,480.389,10.313,7.852
1782117429.896720,0.510000,1874790,1000,12,0,1,969.570,7.450,24.979,476.858,4.255,7.860
1782117429.897720,0.511000,1874791,1000,12,0,1,966.304,-1.113,24.906,474.672,1.398,7.847
1782117429.898720,0.512000,1874792,1000,12,0,1,958.761,-9.739,24.641,475.513,1.123,7.823
1782117429.899720,0.513000,1874793,1000,12,0,1,949.897,-19.382,24.147,475.513,1.561,7.823
1782117429.900720,0.514000,1874794,1000,12,0,1,938.680,-26.580,23.679,476.354,1.684,7.816
1782117429.901720,0.515000,1874795,1000,12,0,1,932.627,-29.720,23.492,475.345,1.456,7.724
1782117429.902720,0.516000,1874796,1000,12,0,1,931.426,-24.728,23.257,470.925,-2.311,7.654
1782117429.903720,0.517000,1874797,1000,12,0,1,924.099,-25.109,23.104,476.474,1.524,7.655
1782117429.904720,0.518000,1874798,1000,12,0,1,922.970,-22.037,23.037,481.446,7.813,7.726
1782117429.905720,0.519000,1874799,1000,12,0,1,924.892,-13.790,23.030,480.870,5.784,7.743
1782117429.906720,0.520000,1874800,1000,12,0,1,930.993,-5.626,23.023,481.566,5.190,7.662
1782117429.907720,0.521000,1874801,1000,12,0,1,919.487,-9.720,23.020,478.540,1.965,7.616
1782117429.908720,0.522000,1874802,1000,12,0,1,919.487,-12.582,22.192,478.540,-0.207,7.615
1782117429.909720,0.523000,1874803,1000,12,0,1,920.977,-5.395,19.647,477.867,-0.514,7.613
1782117429.910720,0.524000,1874804,1000,12,0,1,924.243,-4.583,16.375,479.789,-0.879,7.602
1782117429.911720,0.525000,1874805,1000,12,0,1,924.412,-2.402,14.776,482.671,1.557,7.532
1782117429.912720,0.526000,1874806,1000,12,0,1,922.922,-5.716,14.725,483.200,0.573,7.328
1782117429.913720,0.527000,1874807,1000,12,0,1,926.886,-3.299,14.593,479.669,-3.258,7.049
1782117429.914720,0.528000,1874808,1000,12,0,1,928.111,-1.855,14.283,482.984,-2.459,6.730
1782117429.915720,0.529000,1874809,1000,12,0,1,926.093,-5.369,13.924,488.941,3.136,6.406
1782117429.916720,0.530000,1874810,1000,12,0,1,923.090,-7.213,13.740,489.421,2.722,6.264
1782117429.917720,0.531000,1874811,1000,12,0,1,922.202,-8.121,13.737,490.574,1.879,6.212
1782117429.918720,0.532000,1874812,1000,12,0,1,918.142,-8.356,13.781,490.334,1.587,6.199
1782117429.919720,0.533000,1874813,1000,12,0,1,915.908,-9.026,13.840,490.502,0.281,6.199
1782117429.920720,0.534000,1874814,1000,12,0,1,912.329,-7.187,13.870,488.701,-0.736,6.197
1782117429.921720,0.535000,1874815,1000,12,0,1,911.056,-5.550,13.859,488.316,-2.035,6.168
1782117429.922720,0.536000,1874816,1000,12,0,1,908.366,-2.441,13.781,487.812,-1.456,6.134
1782117429.923720,0.537000,1874817,1000,12,0,1,910.528,1.999,13.720,486.491,-2.693,6.145
1782117429.924720,0.538000,1874818,1000,12,0,1,916.245,11.024,13.790,484.977,-3.375,6.162
1782117429.925720,0.539000,1874819,1000,12,0,1,912.137,10.322,13.702,484.761,-3.318,6.179
1782117429.926720,0.540000,1874820,1000,12,0,1,900.319,0.631,13.643,489.878,1.007,6.154
1782117429.927720,0.541000,1874821,1000,12,0,1,888.020,-8.277,13.678,491.607,3.381,6.065
1782117429.928720,0.542000,1874822,1000,12,0,1,884.777,-9.831,13.664,485.770,-2.699,5.946
1782117429.929720,0.543000,1874823,1000,12,0,1,890.182,-2.135,13.526,479.885,-8.603,5.886
1782117429.930720,0.544000,1874824,1000,12,0,1,891.912,1.246,13.500,472.463,-14.117,6.039
1782117429.931720,0.545000,1874825,1000,12,0,1,890.206,-0.510,13.494,466.241,-18.629,6.374
1782117429.932720,0.546000,1874826,1000,12,0,1,887.516,-3.098,13.468,468.139,-15.212,6.517
1782117429.933720,0.547000,1874827,1000,12,0,1,884.369,-6.078,13.490,468.908,-11.163,6.533
1782117429.934720,0.548000,1874828,1000,12,0,1,889.341,-2.524,13.488,466.481,-11.775,6.619
1782117429.935720,0.549000,1874829,1000,12,0,1,905.003,10.994,13.543,465.545,-10.650,6.721
1782117429.936720,0.550000,1874830,1000,12,0,1,934.260,33.762,14.332,459.660,-12.755,6.936
1782117429.937720,0.551000,1874831,1000,12,0,1,959.530,52.907,16.148,457.017,-13.686,7.195
1782117429.938720,0.552000,1874832,1000,12,0,1,960.467,47.238,17.429,455.480,-10.810,7.344
1782117429.939720,0.553000,1874833,1000,12,0,1,949.369,28.611,17.760,458.074,-6.558,7.391
1782117429.940720,0.554000,1874834,1000,12,0,1,933.515,10.274,17.515,455.456,-4.284,7.312
1782117429.941720,0.555000,1874835,1000,12,0,1,907.045,-13.780,17.165,452.381,-5.793,7.186
1782117429.942720,0.556000,1874836,1000,12,0,1,882.015,-34.017,17.312,455.648,-0.162,6.946
1782117429.943720,0.557000,1874837,1000,12,0,1,864.936,-41.986,17.956,460.020,6.098,6.832
1782117429.944720,0.558000,1874838,1000,12,0,1,856.553,-40.538,18.697,463.383,9.973,6.775
1782117429.945720,0.559000,1874839,1000,12,0,1,863.759,-25.610,18.916,463.239,10.678,6.786
1782117429.946720,0.560000,1874840,1000,12,0,1,882.616,-1.288,18.887,468.739,13.687,7.031
1782117429.947720,0.561000,1874841,1000,12,0,1,900.727,18.591,19.069,473.015,17.992,7.475
1782117429.948720,0.562000,1874842,1000,12,0,1,927.798,39.437,19.820,472.967,15.355,7.782
1782117429.949720,0.563000,1874843,1000,12,0,1,965.127,66.292,21.753,472.415,13.016,7.994
1782117429.950720,0.564000,1874844,1000,12,0,1,1017.492,98.280,25.539,471.742,10.285,8.122
1782117429.951720,0.565000,1874845,1000,12,0,1,1034.282,100.893,28.951,473.760,9.913,8.239
1782117429.952720,0.566000,1874846,1000,12,0,1,1003.367,51.971,29.664,475.970,10.439,8.364
1782117429.953720,0.567000,1874847,1000,12,0,1,975.407,7.996,29.473,474.480,7.322,8.425
1782117429.954720,0.568000,1874848,1000,12,0,1,961.620,-12.787,29.363,471.910,3.262,8.365
1782117429.955720,0.569000,1874849,1000,12,0,1,957.008,-22.276,29.467,472.294,2.145,8.330
1782117429.956720,0.570000,1874850,1000,12,0,1,957.608,-22.447,29.627,470.109,0.312,8.298
1782117429.957720,0.571000,1874851,1000,12,0,1,952.396,-26.253,29.827,470.229,-0.986,8.295
1782117429.958720,0.572000,1874852,1000,12,0,1,946.871,-29.848,30.072,470.901,0.328,8.295
1782117429.959720,0.573000,1874853,1000,12,0,1,938.464,-32.756,30.417,471.790,0.475,8.295
1782117429.960720,0.574000,1874854,1000,12,0,1,928.375,-36.912,30.855,472.823,1.588,8.297
1782117429.961720,0.575000,1874855,1000,12,0,1,924.508,-34.284,31.231,471.430,0.309,8.294
1782117429.962720,0.576000,1874856,1000,12,0,1,921.937,-28.869,31.487,470.181,-1.212,8.295
1782117429.963720,0.577000,1874857,1000,12,0,1,922.826,-22.494,31.644,468.427,-2.239,8.289
1782117429.964720,0.578000,1874858,1000,12,0,1,926.814,-13.199,31.697,467.514,-3.168,8.293
1782117429.965720,0.579000,1874859,1000,12,0,1,925.901,-9.849,31.719,466.554,-3.165,8.294
1782117429.966720,0.580000,1874860,1000,12,0,1,925.324,-8.812,31.727,467.274,-2.616,8.293
1782117429.967720,0.581000,1874861,1000,12,0,1,928.831,-4.487,31.713,466.481,-2.317,8.295
1782117429.968720,0.582000,1874862,1000,12,0,1,931.618,-1.767,31.692,464.079,-4.497,8.317
1782117429.969720,0.583000,1874863,1000,12,0,1,934.957,-0.377,31.666,465.665,-3.105,8.328
1782117429.970720,0.584000,1874864,1000,12,0,1,930.152,-5.090,31.658,466.505,-1.387,8.330
1782117429.971720,0.585000,1874865,1000,12,0,1,918.599,-17.213,31.742,469.196,0.187,8.325
1782117429.972720,0.586000,1874866,1000,12,0,1,910.480,-24.470,31.928,470.781,2.150,8.328
1782117429.973720,0.587000,1874867,1000,12,0,1,902.577,-28.604,32.182,469.364,0.115,8.319
1782117429.974720,0.588000,1874868,1000,12,0,1,906.828,-23.220,32.311,470.181,0.152,8.305
1782117429.975720,0.589000,1874869,1000,12,0,1,925.492,-2.709,32.281,469.244,-0.257,8.292
1782117429.976720,0.590000,1874870,1000,12,0,1,949.994,20.463,32.410,470.229,-0.318,8.291
1782117429.977720,0.591000,1874871,1000,12,0,1,967.865,36.124,32.789,474.672,3.821,8.295
1782117429.978720,0.592000,1874872,1000,12,0,1,974.975,38.811,33.216,477.843,6.317,8.334
1782117429.979720,0.593000,1874873,1000,12,0,1,961.860,24.876,33.401,482.431,8.989,8.342
1782117429.980720,0.594000,1874874,1000,12,0,1,946.270,6.613,33.413,484.761,10.326,8.230
1782117429.981720,0.595000,1874875,1000,12,0,1,929.840,-5.834,33.423,483.680,7.497,7.869
1782117429.982720,0.596000,1874876,1000,12,0,1,922.178,-11.687,33.461,484.185,6.152,7.619
1782117429.983720,0.597000,1874877,1000,12,0,1,929.336,-1.450,33.451,482.575,4.044,7.476
1782117429.984720,0.598000,1874878,1000,12,0,1,930.345,4.204,33.454,480.558,0.749,7.289
1782117429.985720,0.599000,1874879,1000,12,0,1,929.120,2.814,33.421,478.252,-1.487,7.135
1782117429.986720,0.600000,1874880,1000,12,0,1,924.748,0.986,33.078,477.603,-2.800,6.914
1782117429.987720,0.601000,1874881,1000,12,0,1,918.334,-5.725,32.231,479.020,-1.488,6.641
1782117429.988720,0.602000,1874882,1000,12,0,1,911.921,-10.571,31.566,481.014,-0.045,6.463
1782117429.989720,0.603000,1874883,1000,12,0,1,907.285,-14.900,31.377,478.420,-2.219,6.403
1782117429.990720,0.604000,1874884,1000,12,0,1,903.249,-17.305,31.439,477.123,-4.612,6.408
1782117429.991720,0.605000,1874885,1000,12,0,1,901.424,-18.417,31.486,478.083,-3.519,6.375
1782117429.992720,0.606000,1874886,1000,12,0,1,907.213,-12.791,31.169,480.846,-1.572,6.379
1782117429.993720,0.607000,1874887,1000,12,0,1,915.524,-4.200,30.604,479.212,-2.535,6.330
1782117429.994720,0.608000,1874888,1000,12,0,1,927.678,5.311,30.071,477.435,-5.173,6.214
1782117429.995720,0.609000,1874889,1000,12,0,1,940.553,15.973,29.938,475.825,-5.968,6.087
1782117429.996720,0.610000,1874890,1000,12,0,1,953.164,23.891,30.127,477.531,-4.716,5.809
1782117429.997720,0.611000,1874891,1000,12,0,1,945.213,16.658,30.105,480.750,-1.037,5.225
1782117429.998720,0.612000,1874892,1000,12,0,1,932.627,0.857,29.584,481.350,-0.179,4.752
1782117429.999720,0.613000,1874893,1000,12,0,1,936.542,4.317,28.066,478.564,-2.552,4.396
1782117430.000720,0.614000,1874894,1000,12,0,1,939.400,9.928,24.423,476.282,-4.407,4.195
1782117430.001720,0.615000,1874895,1000,12,0,1,931.305,4.153,19.830,476.546,-3.581,3.986
1782117430.002720,0.616000,1874896,1000,12,0,1,926.189,0.584,18.418,475.393,-3.163,3.729
1782117430.003720,0.617000,1874897,1000,12,0,1,929.072,5.238,18.398,474.312,-3.711,3.621
1782117430.004720,0.618000,1874898,1000,12,0,1,932.218,10.303,18.367,475.105,-1.902,3.601
1782117430.005720,0.619000,1874899,1000,12,0,1,933.996,11.777,18.171,476.426,-0.056,3.589
1782117430.006720,0.620000,1874900,1000,12,0,1,935.773,12.539,17.980,478.107,1.845,3.598
1782117430.007720,0.621000,1874901,1000,12,0,1,934.476,9.573,17.644,478.588,2.437,3.612
1782117430.008720,0.622000,1874902,1000,12,0,1,928.183,1.731,17.133,481.158,3.907,3.653
1782117430.009720,0.623000,1874903,1000,12,0,1,928.447,-1.889,16.497,477.555,1.457,3.659
1782117430.010720,0.624000,1874904,1000,12,0,1,935.173,2.038,15.652,476.162,-1.784,3.660
1782117430.011720,0.625000,1874905,1000,12,0,1,936.374,0.639,14.883,477.795,0.385,3.661
1782117430.012720,0.626000,1874906,1000,12,0,1,931.738,-6.904,14.345,478.612,0.615,3.658
1782117430.013720,0.627000,1874907,1000,12,0,1,926.093,-14.216,14.132,480.534,1.813,3.653
1782117430.014720,0.628000,1874908,1000,12,0,1,920.880,-19.536,14.278,480.918,2.027,3.637
1782117430.015720,0.629000,1874909,1000,12,0,1,913.770,-24.365,14.622,478.636,-0.651,3.610
1782117430.016720,0.630000,1874910,1000,12,0,1,908.678,-26.642,15.048,475.513,-3.460,3.624
1782117430.017720,0.631000,1874911,1000,12,0,1,904.931,-25.151,15.449,473.880,-4.857,3.674
1782117430.018720,0.632000,1874912,1000,12,0,1,903.105,-21.808,15.752,473.664,-4.066,3.664
1782117430.019720,0.633000,1874913,1000,12,0,1,902.841,-15.920,15.912,474.913,-2.329,3.653
1782117430.020720,0.634000,1874914,1000,12,0,1,902.841,-10.102,15.960,475.874,-0.411,3.648
1782117430.021720,0.635000,1874915,1000,12,0,1,912.978,2.787,15.778,475.585,-0.184,3.648
1782117430.022720,0.636000,1874916,1000,12,0,1,931.378,22.907,15.731,473.039,-1.637,3.642
1782117430.023720,0.637000,1874917,1000,12,0,1,943.556,34.846,15.981,469.196,-4.412,3.695
1782117430.024720,0.638000,1874918,1000,12,0,1,944.685,33.744,16.352,467.538,-5.015,3.763
1782117430.025720,0.639000,1874919,1000,12,0,1,950.042,33.119,17.005,470.661,-1.294,3.767
1782117430.026720,0.640000,1874920,1000,12,0,1,940.842,23.733,17.090,471.382,0.953,3.769
1782117430.027720,0.641000,1874921,1000,12,0,1,911.584,-6.328,16.333,478.708,6.046,3.827
1782117430.028720,0.642000,1874922,1000,12,0,1,891.912,-26.332,15.827,480.245,9.035,3.935
1782117430.029720,0.643000,1874923,1000,12,0,1,883.696,-30.209,16.012,477.627,4.123,3.769
1782117430.030720,0.644000,1874924,1000,12,0,1,882.375,-28.405,16.481,476.090,2.285,3.490
1782117430.031720,0.645000,1874925,1000,12,0,1,895.611,-14.137,16.582,476.618,1.643,3.333
1782117430.032720,0.646000,1874926,1000,12,0,1,923.259,11.127,16.574,479.405,3.502,3.255
1782117430.033720,0.647000,1874927,1000,12,0,1,944.997,29.763,17.099,477.195,1.743,3.214
1782117430.034720,0.648000,1874928,1000,12,0,1,949.489,28.607,17.561,476.210,-0.923,3.215
1782117430.035720,0.649000,1874929,1000,12,0,1,947.519,19.986,17.783,474.624,-1.354,3.214
1782117430.036720,0.650000,1874930,1000,12,0,1,939.064,8.508,17.823,476.954,-0.613,3.190
1782117430.037720,0.651000,1874931,1000,12,0,1,934.620,0.207,17.804,477.075,1.103,3.187
1782117430.038720,0.652000,1874932,1000,12,0,1,942.499,6.002,17.762,473.279,-2.845,3.212
1782117430.039720,0.653000,1874933,1000,12,0,1,941.610,6.840,17.663,472.583,-3.217,3.229
1782117430.040720,0.654000,1874934,1000,12,0,1,931.762,-2.748,17.497,471.502,-2.888,3.189
1782117430.041720,0.655000,1874935,1000,12,0,1,925.805,-6.913,17.329,473.880,-0.929,3.153
1782117430.042720,0.656000,1874936,1000,12,0,1,920.016,-8.766,17.279,474.504,1.345,3.151
1782117430.043720,0.657000,1874937,1000,12,0,1,924.508,-3.399,17.276,474.192,0.448,3.131
1782117430.044720,0.658000,1874938,1000,12,0,1,932.627,7.528,17.292,472.054,-0.455,3.045
1782117430.045720,0.659000,1874939,1000,12,0,1,931.930,7.898,17.180,469.604,-2.909,2.954
1782117430.046720,0.660000,1874940,1000,12,0,1,925.492,1.716,16.847,473.231,0.310,2.878
1782117430.047720,0.661000,1874941,1000,12,0,1,927.030,1.253,16.682,472.367,1.050,2.878
1782117430.048720,0.662000,1874942,1000,12,0,1,931.474,5.050,16.697,470.349,-1.918,2.891
1782117430.049720,0.663000,1874943,1000,12,0,1,938.488,8.192,16.726,470.277,-1.343,2.875
1782117430.050720,0.664000,1874944,1000,12,0,1,952.684,16.735,16.834,468.980,-2.366,2.826
1782117430.051720,0.665000,1874945,1000,12,0,1,965.367,23.340,17.145,468.187,-2.895,2.810
1782117430.052720,0.666000,1874946,1000,12,0,1,969.426,20.196,17.381,470.829,-0.503,2.776
1782117430.053720,0.667000,1874947,1000,12,0,1,961.812,7.338,17.396,472.078,1.298,2.732
1782117430.054720,0.668000,1874948,1000,12,0,1,941.971,-14.858,17.462,475.681,3.524,2.764
1782117430.055720,0.669000,1874949,1000,12,0,1,926.381,-31.307,17.937,480.678,7.821,2.977
1782117430.056720,0.670000,1874950,1000,12,0,1,911.272,-40.774,18.757,481.158,7.518,3.150
1782117430.057720,0.671000,1874951,1000,12,0,1,897.989,-47.842,19.894,480.197,5.024,3.211
1782117430.058720,0.672000,1874952,1000,12,0,1,896.283,-42.005,20.761,473.784,-0.468,3.164
1782117430.059720,0.673000,1874953,1000,12,0,1,893.785,-34.003,21.309,470.829,-4.586,3.223
1782117430.060720,0.674000,1874954,1000,12,0,1,891.047,-28.853,21.694,469.028,-4.244,3.269
1782117430.061720,0.675000,1874955,1000,12,0,1,891.143,-20.074,21.879,469.892,-3.542,3.306
1782117430.062720,0.676000,1874956,1000,12,0,1,894.506,-10.364,21.906,470.709,-0.990,3.308
1782117430.063720,0.677000,1874957,1000,12,0,1,907.693,6.117,21.831,471.454,-0.229,3.298
1782117430.064720,0.678000,1874958,1000,12,0,1,933.227,30.663,22.085,472.775,1.509,3.293
1782117430.065720,0.679000,1874959,1000,12,0,1,949.153,45.213,22.733,476.234,4.242,3.346
1782117430.066720,0.680000,1874960,1000,12,0,1,945.261,36.925,23.018,476.114,4.344,3.366
1782117430.067720,0.681000,1874961,1000,12,0,1,933.179,20.030,22.918,478.396,4.573,3.358
1782117430.068720,0.682000,1874962,1000,12,0,1,930.056,11.538,22.768,477.531,3.986,3.356
1782117430.069720,0.683000,1874963,1000,12,0,1,941.250,17.284,22.787,476.138,0.887,3.343
1782117430.070720,0.684000,1874964,1000,12,0,1,953.453,24.668,23.009,471.310,-3.067,3.370
1782117430.071720,0.685000,1874965,1000,12,0,1,945.670,14.023,23.091,471.262,-4.588,3.432
1782117430.072720,0.686000,1874966,1000,12,0,1,928.879,-6.667,22.882,473.808,-1.285,3.429
1782117430.073720,0.687000,1874967,1000,12,0,1,922.058,-15.313,22.449,473.231,-1.639,3.380
1782117430.074720,0.688000,1874968,1000,12,0,1,923.979,-12.897,22.012,473.904,-1.595,3.312
1782117430.075720,0.689000,1874969,1000,12,0,1,931.257,-5.711,21.523,477.075,1.502,3.314
1782117430.076720,0.690000,1874970,1000,12,0,1,928.711,-5.107,21.272,478.588,2.671,3.332
1782117430.077720,0.691000,1874971,1000,12,0,1,917.806,-14.283,21.349,476.906,1.132,3.225
1782117430.078720,0.692000,1874972,1000,12,0,1,910.720,-18.039,21.176,475.705,-0.665,2.962
1782117430.079720,0.693000,1874973,1000,12,0,1,908.318,-16.052,20.864,473.183,-2.091,2.919
1782117430.080720,0.694000,1874974,1000,12,0,1,907.885,-11.909,20.543,471.862,-3.458,2.942
1782117430.081720,0.695000,1874975,1000,12,0,1,907.525,-7.908,20.476,469.460,-4.052,2.989
1782117430.082720,0.696000,1874976,1000,12,0,1,907.525,-4.531,20.426,469.004,-4.287,3.009
1782117430.083720,0.697000,1874977,1000,12,0,1,912.281,1.925,19.989,467.634,-3.650,3.043
1782117430.084720,0.698000,1874978,1000,12,0,1,922.009,11.752,19.646,467.154,-3.753,3.086
1782117430.085720,0.699000,1874979,1000,12,0,1,926.910,16.458,19.580,463.359,-5.178,3.166
1782117430.086720,0.700000,1874980,1000,12,0,1,927.174,14.151,19.646,460.741,-7.249,3.327
1782117430.087720,0.701000,1874981,1000,12,0,1,925.204,10.066,19.697,460.716,-5.567,3.415
1782117430.088720,0.702000,1874982,1000,12,0,1,918.743,2.133,19.681,462.422,-3.035,3.418
1782117430.089720,0.703000,1874983,1000,12,0,1,912.954,-5.189,19.671,461.125,-2.752,3.410
1782117430.090720,0.704000,1874984,1000,12,0,1,916.893,-3.270,19.673,465.088,0.179,3.386
1782117430.091720,0.705000,1874985,1000,12,0,1,927.967,5.909,19.666,467.875,4.052,3.432
1782117430.092720,0.706000,1874986,1000,12,0,1,933.539,10.022,19.678,466.602,2.266,3.441
1782117430.093720,0.707000,1874987,1000,12,0,1,924.940,0.975,19.673,466.049,1.258,3.445
1782117430.094720,0.708000,1874988,1000,12,0,1,916.845,-8.685,19.682,466.145,1.449,3.451
1782117430.095720,0.709000,1874989,1000,12,0,1,917.422,-7.489,19.679,464.272,-0.116,3.426
1782117430.096720,0.710000,1874990,1000,12,0,1,914.299,-7.540,19.706,465.449,0.710,3.427
1782117430.097720,0.711000,1874991,1000,12,0,1,923.162,-0.446,19.706,470.853,5.626,3.515
1782117430.098720,0.712000,1874992,1000,12,0,1,947.952,22.882,19.957,469.052,5.153,3.580
1782117430.099720,0.713000,1874993,1000,12,0,1,955.686,30.715,20.391,460.668,-2.922,3.599
1782117430.100720,0.714000,1874994,1000,12,0,1,937.094,11.284,20.316,455.864,-6.741,3.708
1782117430.101720,0.715000,1874995,1000,12,0,1,920.016,-7.350,20.073,454.015,-6.504,3.798
1782117430.102720,0.716000,1874996,1000,12,0,1,923.667,-4.413,19.879,447.937,-9.189,4.014
1782117430.103720,0.717000,1874997,1000,12,0,1,923.811,-0.391,19.852,445.271,-10.252,4.263
1782117430.104720,0.718000,1874998,1000,12,0,1,909.567,-12.267,19.816,449.331,-4.006,4.272
1782117430.105720,0.719000,1874999,1000,12,0,1,892.992,-25.341,19.645,459.155,5.903,4.210
1782117430.106720,0.720000,1875000,1000,12,0,1,898.085,-19.986,18.991,464.752,12.080,4.417
1782117430.107720,0.721000,1875001,1000,12,0,1,918.334,1.862,17.747,467.298,12.396,4.699
1782117430.108720,0.722000,1875002,1000,12,0,1,931.690,14.557,16.849,470.997,13.766,5.086
1782117430.109720,0.723000,1875003,1000,12,0,1,940.385,18.569,16.361,469.004,10.532,5.260
1782117430.110720,0.724000,1875004,1000,12,0,1,954.966,26.287,16.274,468.331,6.570,5.307
1782117430.111720,0.725000,1875005,1000,12,0,1,968.586,32.837,16.684,474.672,10.356,5.483
1782117430.112720,0.726000,1875006,1000,12,0,1,984.151,38.036,17.468,482.816,15.384,5.897
1782117430.113720,0.727000,1875007,1000,12,0,1,986.193,33.623,18.083,487.476,16.891,6.362
1782117430.114720,0.728000,1875008,1000,12,0,1,964.550,7.318,17.586,489.469,14.960,6.702
1782117430.115720,0.729000,1875009,1000,12,0,1,936.398,-22.583,16.691,489.757,12.022,6.888
1782117430.116720,0.730000,1875010,1000,12,0,1,927.991,-31.014,16.448,487.283,7.104,6.933
1782117430.117720,0.731000,1875011,1000,12,0,1,923.787,-28.480,16.696,483.968,1.921,6.909
1782117430.118720,0.732000,1875012,1000,12,0,1,913.290,-32.739,17.249,483.128,-0.239,6.886
1782117430.119720,0.733000,1875013,1000,12,0,1,903.754,-35.059,17.780,481.927,-1.549,6.888
1782117430.120720,0.734000,1875014,1000,12,0,1,900.079,-31.280,17.987,481.470,-2.580,6.884
1782117430.121720,0.735000,1875015,1000,12,0,1,899.166,-24.683,18.215,481.374,-2.504,6.862
1782117430.122720,0.736000,1875016,1000,12,0,1,908.101,-11.714,18.266,479.116,-4.364,6.888
1782117430.123720,0.737000,1875017,1000,12,0,1,924.940,7.335,18.167,477.699,-5.867,6.934
1782117430.124720,0.738000,1875018,1000,12,0,1,921.817,8.452,18.114,477.171,-5.845,6.979
1782117430.125720,0.739000,1875019,1000,12,0,1,920.088,2.673,18.100,475.705,-6.896,7.044
1782117430.126720,0.740000,1875020,1000,12,0,1,926.021,8.646,18.127,474.817,-7.561,7.114
1782117430.127720,0.741000,1875021,1000,12,0,1,921.313,3.480,18.021,474.721,-7.362,7.188
1782117430.128720,0.742000,1875022,1000,12,0,1,919.127,-1.784,17.841,476.426,-5.905,7.236
1782117430.129720,0.743000,1875023,1000,12,0,1,921.889,0.184,17.696,476.690,-5.264,7.268
1782117430.130720,0.744000,1875024,1000,12,0,1,918.382,-3.507,17.623,477.435,-5.237,7.290
1782117430.131720,0.745000,1875025,1000,12,0,1,918.046,-5.466,17.604,474.480,-7.075,7.336
1782117430.132720,0.746000,1875026,1000,12,0,1,919.367,-3.400,17.599,471.910,-9.864,7.442
1782117430.133720,0.747000,1875027,1000,12,0,1,927.150,2.566,17.601,471.670,-8.877,7.530
1782117430.134720,0.748000,1875028,1000,12,0,1,932.098,8.611,17.565,470.325,-8.704,7.611
1782117430.135720,0.749000,1875029,1000,12,0,1,920.568,-0.719,17.410,470.373,-7.603,7.652
1782117430.136720,0.750000,1875030,1000,12,0,1,904.210,-14.795,17.421,465.953,-8.783,7.684
1782117430.137720,0.751000,1875031,1000,12,0,1,890.638,-22.476,17.651,463.311,-10.274,7.780
1782117430.138720,0.752000,1875032,1000,12,0,1,880.862,-25.487,18.013,461.533,-8.361,7.858
1782117430.139720,0.753000,1875033,1000,12,0,1,872.383,-25.134,18.345,461.653,-6.464,7.901
1782117430.140720,0.754000,1875034,1000,12,0,1,875.265,-16.793,18.493,459.708,-4.763,7.930
1782117430.141720,0.755000,1875035,1000,12,0,1,880.454,-4.117,18.483,462.302,-1.608,7.913
1782117430.142720,0.756000,1875036,1000,12,0,1,878.076,-1.701,18.430,464.968,3.522,7.922
1782117430.143720,0.757000,1875037,1000,12,0,1,897.917,15.063,18.552,466.626,5.199,7.954
1782117430.144720,0.758000,1875038,1000,12,0,1,951.243,60.531,20.395,473.135,10.563,8.090
1782117430.145720,0.759000,1875039,1000,12,0,1,996.185,95.157,24.412,479.549,15.889,8.397
1782117430.146720,0.760000,1875040,1000,12,0,1,989.676,78.106,26.773,482.527,16.159,8.701
1782117430.147720,0.761000,1875041,1000,12,0,1,977.113,46.204,27.559,480.173,12.043,8.831
1782117430.148720,0.762000,1875042,1000,12,0,1,979.227,36.754,27.858,471.189,1.771,8.804
1782117430.149720,0.763000,1875043,1000,12,0,1,973.942,22.689,27.703,467.202,-3.944,8.812
1782117430.150720,0.764000,1875044,1000,12,0,1,950.258,-4.908,27.666,467.034,-3.660,8.776
1782117430.151720,0.765000,1875045,1000,12,0,1,932.939,-26.292,27.895,465.737,-4.524,8.751
1782117430.152720,0.766000,1875046,1000,12,0,1,924.123,-32.267,28.259,462.062,-6.989,8.710
1782117430.153720,0.767000,1875047,1000,12,0,1,909.014,-41.147,28.852,460.068,-8.134,8.665
1782117430.154720,0.768000,1875048,1000,12,0,1,895.491,-48.291,29.599,457.498,-8.360,8.727
1782117430.155720,0.769000,1875049,1000,12,0,1,881.991,-50.643,30.241,454.903,-9.073,8.781
1782117430.156720,0.770000,1875050,1000,12,0,1,882.640,-43.227,30.723,453.006,-8.415,8.695
1782117430.157720,0.771000,1875051,1000,12,0,1,890.590,-24.965,30.924,457.738,-2.847,8.526
1782117430.158720,0.772000,1875052,1000,12,0,1,897.148,-12.798,30.909,457.450,0.265,8.301
1782117430.159720,0.773000,1875053,1000,12,0,1,898.878,-5.383,30.806,460.476,2.224,8.173
1782117430.160720,0.774000,1875054,1000,12,0,1,912.377,6.933,30.597,466.337,9.063,8.220
1782117430.161720,0.775000,1875055,1000,12,0,1,935.533,28.578,30.511,476.042,16.079,8.402
1782117430.162720,0.776000,1875056,1000,12,0,1,952.324,40.457,30.573,482.239,20.902,8.637
1782117430.163720,0.777000,1875057,1000,12,0,1,967.240,45.696,30.885,478.684,15.130,8.572
1782117430.164720,0.778000,1875058,1000,12,0,1,976.608,46.185,31.551,477.123,9.763,8.420
1782117430.165720,0.779000,1875059,1000,12,0,1,990.805,46.246,32.063,477.363,8.643,8.337
1782117430.166720,0.780000,1875060,1000,12,0,1,989.147,37.833,32.209,479.164,7.391,8.342
1782117430.167720,0.781000,1875061,1000,12,0,1,961.067,3.275,31.960,482.575,8.911,8.432
1782117430.168720,0.782000,1875062,1000,12,0,1,934.476,-26.658,31.847,481.783,6.308,8.479
1782117430.169720,0.783000,1875063,1000,12,0,1,917.662,-40.583,31.978,481.278,3.385,8.490
1782117430.170720,0.784000,1875064,1000,12,0,1,902.288,-49.118,32.423,481.927,2.589,8.490
1782117430.171720,0.785000,1875065,1000,12,0,1,887.564,-54.489,33.143,484.617,3.195,8.495
1782117430.172720,0.786000,1875066,1000,12,0,1,893.521,-42.441,33.641,483.440,1.701,8.476
1782117430.173720,0.787000,1875067,1000,12,0,1,904.306,-21.407,33.761,478.131,-4.319,8.457
1782117430.174720,0.788000,1875068,1000,12,0,1,913.458,-8.124,33.760,477.651,-5.671,8.455
1782117430.175720,0.789000,1875069,1000,12,0,1,921.985,4.381,33.763,479.813,-3.066,8.409
1782117430.176720,0.790000,1875070,1000,12,0,1,928.447,11.660,33.781,477.747,-4.375,8.364
1782117430.177720,0.791000,1875071,1000,12,0,1,928.999,12.972,33.827,476.162,-6.025,8.343
1782117430.178720,0.792000,1875072,1000,12,0,1,914.851,1.090,33.827,476.378,-5.100,8.332
1782117430.179720,0.793000,1875073,1000,12,0,1,902.192,-11.780,33.868,477.723,-3.537,8.314
1782117430.180720,0.794000,1875074,1000,12,0,1,903.345,-9.185,33.889,475.273,-4.656,8.307
1782117430.181720,0.795000,1875075,1000,12,0,1,916.413,3.172,33.883,473.640,-6.428,8.296
1782117430.182720,0.796000,1875076,1000,12,0,1,925.372,12.434,33.925,471.526,-6.951,8.237
1782117430.183720,0.797000,1875077,1000,12,0,1,918.358,4.904,33.931,468.932,-8.732,8.234
1782117430.184720,0.798000,1875078,1000,12,0,1,916.917,-0.318,33.909,464.536,-10.978,8.288
1782117430.185720,0.799000,1875079,1000,12,0,1,915.092,-0.811,33.909,462.926,-11.521,8.378
1782117430.186720,0.800000,1875080,1000,12,0,1,925.637,4.789,33.851,462.302,-9.756,8.400
1782117430.187720,0.801000,1875081,1000,12,0,1,940.914,19.318,33.812,459.828,-10.110,8.396
1782117430.188720,0.802000,1875082,1000,12,0,1,941.154,17.556,33.711,458.338,-9.852,8.428
1782117430.189720,0.803000,1875083,1000,12,0,1,937.359,10.335,33.555,457.810,-8.093,8.456
1782117430.190720,0.804000,1875084,1000,12,0,1,941.827,12.034,33.514,461.533,-3.691,8.445
1782117430.191720,0.805000,1875085,1000,12,0,1,943.964,13.437,33.563,462.182,-0.528,8.442
1782117430.192720,0.806000,1875086,1000,12,0,1,945.838,12.922,33.611,468.139,3.778,8.445
1782117430.193720,0.807000,1875087,1000,12,0,1,932.386,2.410,33.546,475.465,11.715,8.574
1782117430.194720,0.808000,1875088,1000,12,0,1,921.529,-9.744,32.464,476.594,11.714,8.604
1782117430.195720,0.809000,1875089,1000,12,0,1,926.934,-3.100,29.547,474.456,8.535,8.393
1782117430.196720,0.810000,1875090,1000,12,0,1,952.684,19.161,27.538,471.141,4.708,8.103
1782117430.197720,0.811000,1875091,1000,12,0,1,990.564,50.407,27.685,466.217,0.066,7.922
1782117430.198720,0.812000,1875092,1000,12,0,1,1012.928,64.574,28.685,459.419,-5.226,7.952
1782117430.199720,0.813000,1875093,1000,12,0,1,1011.895,51.908,29.435,455.336,-8.109,8.015
1782117430.200720,0.814000,1875094,1000,12,0,1,981.389,15.943,29.514,458.098,-3.989,8.018
1782117430.201720,0.815000,1875095,1000,12,0,1,931.474,-35.960,29.717,462.062,1.416,7.995
1782117430.202720,0.816000,1875096,1000,12,0,1,887.396,-74.982,31.220,468.859,7.420,8.003
1782117430.203720,0.817000,1875097,1000,12,0,1,867.939,-85.940,32.993,475.153,13.008,8.131
1782117430.204720,0.818000,1875098,1000,12,0,1,876.106,-67.749,33.671,473.952,10.852,8.190
1782117430.205720,0.819000,1875099,1000,12,0,1,882.495,-48.633,33.611,474.048,8.022,8.168
1782117430.206720,0.820000,1875100,1000,12,0,1,878.580,-43.669,33.623,474.360,7.418,8.148
1782117430.207720,0.821000,1875101,1000,12,0,1,881.270,-34.347,33.788,474.985,5.693,8.178
1782117430.208720,0.822000,1875102,1000,12,0,1,902.601,-10.013,33.769,477.627,6.631,8.232
1782117430.209720,0.823000,1875103,1000,12,0,1,920.688,12.112,33.804,481.735,8.356,8.310
1782117430.210720,0.824000,1875104,1000,12,0,1,936.422,24.660,33.969,480.077,5.888,8.253
1782117430.211720,0.825000,1875105,1000,12,0,1,944.060,31.163,34.015,476.114,0.093,7.933
1782117430.212720,0.826000,1875106,1000,12,0,1,944.397,27.115,33.749,471.189,-4.601,7.391
1782117430.213720,0.827000,1875107,1000,12,0,1,942.163,22.136,33.272,468.956,-7.053,7.144
1782117430.214720,0.828000,1875108,1000,12,0,1,938.944,16.586,32.709,464.776,-9.039,7.125
1782117430.215720,0.829000,1875109,1000,12,0,1,928.375,6.606,32.062,459.828,-12.441,7.237
1782117430.216720,0.830000,1875110,1000,12,0,1,899.550,-16.838,31.702,460.116,-10.533,7.314
1782117430.217720,0.831000,1875111,1000,12,0,1,877.139,-35.724,32.098,458.843,-8.556,7.305
1782117430.218720,0.832000,1875112,1000,12,0,1,868.563,-35.026,32.259,455.216,-10.191,7.393
1782117430.219720,0.833000,1875113,1000,12,0,1,862.582,-31.989,32.065,453.871,-9.212,7.491
1782117430.220720,0.834000,1875114,1000,12,0,1,866.017,-21.822,31.455,458.074,-4.020,7.504
1782117430.221720,0.835000,1875115,1000,12,0,1,885.186,0.724,30.497,464.752,3.581,7.507
1782117430.222720,0.836000,1875116,1000,12,0,1,906.804,23.608,30.086,468.619,7.278,7.574
1782117430.223720,0.837000,1875117,1000,12,0,1,909.831,26.798,30.172,473.544,10.203,7.686
1782117430.224720,0.838000,1875118,1000,12,0,1,915.019,25.140,30.359,474.841,10.621,7.790
1782117430.225720,0.839000,1875119,1000,12,0,1,925.276,31.305,30.674,470.349,4.681,7.806
1782117430.226720,0.840000,1875120,1000,12,0,1,920.977,23.420,30.808,473.039,4.415,7.806
1782117430.227720,0.841000,1875121,1000,12,0,1,898.325,-0.466,30.754,483.440,12.512,7.959
1782117430.228720,0.842000,1875122,1000,12,0,1,870.197,-27.076,30.991,488.869,15.859,8.237
1782117430.229720,0.843000,1875123,1000,12,0,1,853.406,-39.769,31.453,483.248,8.506,8.310
1782117430.230720,0.844000,1875124,1000,12,0,1,843.198,-41.034,31.958,477.963,0.609,8.284
1782117430.231720,0.845000,1875125,1000,12,0,1,865.465,-18.012,32.056,472.174,-4.473,8.258
1782117430.232720,0.846000,1875126,1000,12,0,1,900.007,21.509,32.152,466.746,-9.570,8.311
1782117430.233720,0.847000,1875127,1000,12,0,1,933.635,49.472,32.897,462.110,-11.888,8.389
1782117430.234720,0.848000,1875128,1000,12,0,1,966.784,74.210,34.530,467.226,-6.841,8.300
1782117430.235720,0.849000,1875129,1000,12,0,1,975.191,74.306,36.094,474.360,2.241,8.145
1782117430.236720,0.850000,1875130,1000,12,0,1,952.636,43.632,36.611,476.642,4.487,8.052
1782117430.237720,0.851000,1875131,1000,12,0,1,950.162,28.270,36.727,469.940,-0.848,7.925
1782117430.238720,0.852000,1875132,1000,12,0,1,965.799,37.771,37.031,460.813,-9.398,7.914
1782117430.239720,0.853000,1875133,1000,12,0,1,971.588,36.917,37.368,458.026,-11.107,7.987
1782117430.240720,0.854000,1875134,1000,12,0,1,965.367,23.863,37.482,456.705,-9.751,8.088
1782117430.241720,0.855000,1875135,1000,12,0,1,958.257,10.625,37.464,460.428,-5.958,8.132
1782117430.242720,0.856000,1875136,1000,12,0,1,962.604,7.980,37.436,463.935,-0.590,8.115
1782117430.243720,0.857000,1875137,1000,12,0,1,962.700,5.908,37.444,467.058,1.496,7.946
1782117430.244720,0.858000,1875138,1000,12,0,1,945.334,-13.229,37.465,470.229,4.425,7.797
1782117430.245720,0.859000,1875139,1000,12,0,1,921.625,-36.163,37.810,470.037,3.438,7.718
1782117430.246720,0.860000,1875140,1000,12,0,1,902.985,-51.390,38.407,472.030,3.606,7.706
1782117430.247720,0.861000,1875141,1000,12,0,1,891.864,-56.242,38.568,472.727,4.066,7.728
1782117430.248720,0.862000,1875142,1000,12,0,1,893.809,-48.994,38.107,472.198,2.186,7.699
1782117430.249720,0.863000,1875143,1000,12,0,1,896.283,-38.738,37.792,468.619,-0.762,7.614
1782117430.250720,0.864000,1875144,1000,12,0,1,893.353,-35.967,38.066,467.514,-2.672,7.602
1782117430.251720,0.865000,1875145,1000,12,0,1,893.641,-30.977,37.979,468.067,-0.969,7.601
1782117430.252720,0.866000,1875146,1000,12,0,1,896.019,-23.469,36.619,465.737,-2.225,7.534
1782117430.253720,0.867000,1875147,1000,12,0,1,904.330,-12.901,34.591,460.837,-5.454,7.347
1782117430.254720,0.868000,1875148,1000,12,0,1,926.093,8.357,33.259,457.714,-6.982,7.252
1782117430.255720,0.869000,1875149,1000,12,0,1,953.140,32.484,32.863,456.465,-6.025,7.214
1782117430.256720,0.870000,1875150,1000,12,0,1,958.809,36.442,32.686,454.255,-5.723,7.183
1782117430.257720,0.871000,1875151,1000,12,0,1,939.977,14.938,32.392,458.290,-1.444,7.140
1782117430.258720,0.872000,1875152,1000,12,0,1,920.424,-6.072,32.373,459.924,2.674,7.089
1782117430.259720,0.873000,1875153,1000,12,0,1,908.270,-15.619,32.403,460.332,2.330,6.997
1782117430.260720,0.874000,1875154,1000,12,0,1,910.432,-11.804,32.258,460.596,3.223,6.962
1782117430.261720,0.875000,1875155,1000,12,0,1,932.891,10.443,31.989,459.131,1.407,6.965
1782117430.262720,0.876000,1875156,1000,12,0,1,939.761,20.898,31.896,460.524,1.868,6.940
1782117430.263720,0.877000,1875157,1000,12,0,1,929.264,8.740,31.766,460.789,2.293,6.875
1782117430.264720,0.878000,1875158,1000,12,0,1,929.216,6.144,31.691,461.221,1.403,6.758
1782117430.265720,0.879000,1875159,1000,12,0,1,932.146,9.276,31.704,466.289,5.076,6.565
1782117430.266720,0.880000,1875160,1000,12,0,1,927.774,4.220,31.620,463.983,3.390,6.411
1782117430.267720,0.881000,1875161,1000,12,0,1,924.604,-0.383,31.214,461.509,-0.948,6.298
1782117430.268720,0.882000,1875162,1000,12,0,1,919.247,-5.072,30.827,457.546,-3.369,6.149
1782117430.269720,0.883000,1875163,1000,12,0,1,921.505,-5.074,30.502,453.799,-6.896,6.088
1782117430.270720,0.884000,1875164,1000,12,0,1,935.581,6.846,30.361,447.913,-9.720,6.215
1782117430.271720,0.885000,1875165,1000,12,0,1,933.131,5.729,30.371,447.433,-9.281,6.332
1782117430.272720,0.886000,1875166,1000,12,0,1,914.899,-13.270,30.246,449.619,-4.035,6.274
1782117430.273720,0.887000,1875167,1000,12,0,1,904.114,-23.439,30.190,451.805,-0.427,6.106
1782117430.274720,0.888000,1875168,1000,12,0,1,901.352,-22.876,30.154,454.111,3.104,5.935
1782117430.275720,0.889000,1875169,1000,12,0,1,905.771,-16.059,29.913,458.146,7.203,5.985
1782117430.276720,0.890000,1875170,1000,12,0,1,924.556,2.469,29.731,458.891,8.371,6.069
1782117430.277720,0.891000,1875171,1000,12,0,1,947.519,24.285,29.929,460.620,8.668,5.933
1782117430.278720,0.892000,1875172,1000,12,0,1,957.200,31.501,30.015,463.095,10.186,5.679
1782117430.279720,0.893000,1875173,1000,12,0,1,940.361,14.432,29.554,468.619,13.000,5.846
1782117430.280720,0.894000,1875174,1000,12,0,1,916.293,-10.743,29.019,473.952,15.899,6.263
1782117430.281720,0.895000,1875175,1000,12,0,1,902.505,-21.710,29.069,470.301,10.667,6.411
1782117430.282720,0.896000,1875176,1000,12,0,1,896.668,-22.643,29.087,464.704,2.148,6.274
1782117430.283720,0.897000,1875177,1000,12,0,1,902.841,-13.421,28.296,458.675,-3.912,6.070
1782117430.284720,0.898000,1875178,1000,12,0,1,908.606,-2.758,26.281,454.183,-8.969,6.125
1782117430.285720,0.899000,1875179,1000,12,0,1,907.933,-1.480,24.090,453.534,-8.798,6.242
1782117430.286720,0.900000,1875180,1000,12,0,1,913.530,3.755,23.292,450.243,-10.123,6.373
1782117430.287720,0.901000,1875181,1000,12,0,1,918.695,9.551,22.986,448.682,-10.833,6.553
1782117430.288720,0.902000,1875182,1000,12,0,1,929.264,15.945,22.470,448.802,-8.470,6.528
1782117430.289720,0.903000,1875183,1000,12,0,1,935.461,20.597,22.049,448.322,-7.271,6.419
1782117430.290720,0.904000,1875184,1000,12,0,1,940.553,19.458,21.962,449.619,-4.588,6.303
1782117430.291720,0.905000,1875185,1000,12,0,1,950.210,23.609,22.163,451.565,-1.266,6.249
1782117430.292720,0.906000,1875186,1000,12,0,1,962.388,28.596,22.501,453.606,1.433,6.251
1782117430.293720,0.907000,1875187,1000,12,0,1,964.262,25.368,22.770,453.126,2.030,6.254
1782117430.294720,0.908000,1875188,1000,12,0,1,957.560,12.875,22.766,450.988,0.318,6.223
1782117430.295720,0.909000,1875189,1000,12,0,1,950.042,1.677,22.185,455.816,4.131,6.232
1782117430.296720,0.910000,1875190,1000,12,0,1,941.346,-7.769,20.990,458.146,7.470,6.300
1782117430.297720,0.911000,1875191,1000,12,0,1,912.737,-30.396,19.894,456.177,4.511,6.306
1782117430.298720,0.912000,1875192,1000,12,0,1,868.539,-65.253,20.807,458.819,5.643,6.349
1782117430.299720,0.913000,1875193,1000,12,0,1,839.979,-82.375,23.209,461.389,7.683,6.440
1782117430.300720,0.914000,1875194,1000,12,0,1,832.028,-74.169,24.956,462.614,7.095,6.507
1782117430.301720,0.915000,1875195,1000,12,0,1,837.337,-54.668,25.756,459.996,4.089,6.531
1782117430.302720,0.916000,1875196,1000,12,0,1,860.685,-22.034,25.730,460.260,2.053,6.530
1782117430.303720,0.917000,1875197,1000,12,0,1,881.006,6.422,25.682,464.872,5.565,6.532
1782117430.304720,0.918000,1875198,1000,12,0,1,898.397,23.463,25.868,475.585,12.775,6.705
1782117430.305720,0.919000,1875199,1000,12,0,1,937.647,54.425,26.595,484.233,18.978,7.172
1782117430.306720,0.920000,1875200,1000,12,0,1,952.684,66.934,27.755,487.187,17.779,7.556
1782117430.307720,0.921000,1875201,1000,12,0,1,931.426,37.155,28.169,488.364,14.803,7.838
1782117430.308720,0.922000,1875202,1000,12,0,1,926.237,20.950,28.311,485.001,8.908,7.930
1782117430.309720,0.923000,1875203,1000,12,0,1,928.015,19.702,28.362,475.537,-2.022,7.928
1782117430.310720,0.924000,1875204,1000,12,0,1,933.539,17.705,28.424,463.431,-13.523,8.143
1782117430.311720,0.925000,1875205,1000,12,0,1,920.472,6.372,28.400,456.008,-19.730,8.605
1782117430.312720,0.926000,1875206,1000,12,0,1,895.202,-20.209,28.390,454.495,-18.382,8.985
1782117430.313720,0.927000,1875207,1000,12,0,1,878.820,-32.639,28.736,458.290,-12.638,9.156
1782117430.314720,0.928000,1875208,1000,12,0,1,882.832,-25.419,28.947,459.636,-8.250,9.228
1782117430.315720,0.929000,1875209,1000,12,0,1,906.132,0.294,28.917,457.906,-8.585,9.279
1782117430.316720,0.930000,1875210,1000,12,0,1,918.695,17.015,29.011,457.786,-7.463,9.327
1782117430.317720,0.931000,1875211,1000,12,0,1,920.856,17.200,29.113,459.419,-4.884,9.352
1782117430.318720,0.932000,1875212,1000,12,0,1,923.787,19.149,29.229,463.143,-1.178,9.341
1782117430.319720,0.933000,1875213,1000,12,0,1,941.346,30.254,29.532,462.710,-0.656,9.290
1782117430.320720,0.934000,1875214,1000,12,0,1,971.468,53.210,30.460,461.341,-2.865,9.197
1782117430.321720,0.935000,1875215,1000,12,0,1,970.531,48.668,31.218,458.747,-4.520,9.125
1782117430.322720,0.936000,1875216,1000,12,0,1,970.531,34.217,31.535,458.747,-5.118,9.136
1782117430.323720,0.937000,1875217,1000,12,0,1,958.833,20.988,31.500,462.734,-0.967,9.137
1782117430.324720,0.938000,1875218,1000,12,0,1,945.790,-1.192,31.334,465.040,1.508,9.129
1782117430.325720,0.939000,1875219,1000,12,0,1,948.168,-2.319,31.254,466.505,2.258,9.078
1782117430.326720,0.940000,1875220,1000,12,0,1,941.730,-8.928,31.277,466.746,2.537,9.007
1782117430.327720,0.941000,1875221,1000,12,0,1,944.685,-11.870,31.133,463.455,-0.429,8.924
1782117430.328720,0.942000,1875222,1000,12,0,1,955.326,-1.821,30.814,461.005,-2.610,8.814
1782117430.329720,0.943000,1875223,1000,12,0,1,956.527,-3.277,30.750,460.741,-1.960,8.625
1782117430.330720,0.944000,1875224,1000,12,0,1,956.599,-5.959,30.724,464.296,1.750,8.330
1782117430.331720,0.945000,1875225,1000,12,0,1,958.016,-6.655,30.584,468.908,6.661,8.246
1782117430.332720,0.946000,1875226,1000,12,0,1,945.165,-17.098,30.512,468.980,6.951,8.299
1782117430.333720,0.947000,1875227,1000,12,0,1,936.206,-27.087,30.693,465.953,3.586,8.296
1782117430.334720,0.948000,1875228,1000,12,0,1,928.975,-28.678,30.958,462.734,0.496,8.199
1782117430.335720,0.949000,1875229,1000,12,0,1,920.016,-33.377,31.315,462.662,0.063,8.104
1782117430.336720,0.950000,1875230,1000,12,0,1,918.719,-29.760,31.592,462.014,0.176,7.977
1782117430.337720,0.951000,1875231,1000,12,0,1,923.571,-19.868,31.688,458.723,-2.791,7.838
1782117430.338720,0.952000,1875232,1000,12,0,1,924.796,-13.757,31.667,460.668,-1.723,7.750
1782117430.339720,0.953000,1875233,1000,12,0,1,927.102,-8.957,31.558,460.308,-0.800,7.682
1782117430.340720,0.954000,1875234,1000,12,0,1,926.237,-6.289,31.451,456.825,-4.590,7.682
1782117430.341720,0.955000,1875235,1000,12,0,1,936.110,1.994,31.274,454.159,-6.575,7.736
1782117430.342720,0.956000,1875236,1000,12,0,1,949.921,15.885,31.093,453.967,-6.435,7.787
1782117430.343720,0.957000,1875237,1000,12,0,1,954.533,18.321,30.994,451.613,-7.039,7.845
1782117430.344720,0.958000,1875238,1000,12,0,1,958.449,17.441,31.038,451.348,-7.023,7.908
1782117430.345720,0.959000,1875239,1000,12,0,1,953.404,11.242,31.078,452.501,-4.327,7.910
1782117430.346720,0.960000,1875240,1000,12,0,1,925.613,-14.896,31.130,454.615,-1.709,7.843
1782117430.347720,0.961000,1875241,1000,12,0,1,906.492,-34.053,31.206,458.891,2.752,7.826
1782117430.348720,0.962000,1875242,1000,12,0,1,899.526,-34.612,30.209,458.218,3.374,7.800
1782117430.349720,0.963000,1875243,1000,12,0,1,907.621,-23.809,28.075,457.113,1.650,7.728
1782117430.350720,0.964000,1875244,1000,12,0,1,915.956,-9.357,26.076,455.048,1.086,7.664
1782117430.351720,0.965000,1875245,1000,12,0,1,915.740,-6.587,24.921,453.606,-0.236,7.642
1782117430.352720,0.966000,1875246,1000,12,0,1,911.128,-7.888,24.750,455.504,2.361,7.644
1782117430.353720,0.967000,1875247,1000,12,0,1,912.449,-4.882,24.743,455.552,3.405,7.618
1782117430.354720,0.968000,1875248,1000,12,0,1,919.151,3.721,24.526,454.807,2.709,7.411
1782117430.355720,0.969000,1875249,1000,12,0,1,923.979,10.040,23.330,453.775,2.294,6.915
1782117430.356720,0.970000,1875250,1000,12,0,1,931.233,15.685,21.438,452.670,1.256,6.445
1782117430.357720,0.971000,1875251,1000,12,0,1,955.638,34.576,21.352,449.187,-1.140,6.097
1782117430.358720,0.972000,1875252,1000,12,0,1,973.149,48.576,22.233,448.298,-2.384,5.975
1782117430.359720,0.973000,1875253,1000,12,0,1,967.889,37.726,22.694,445.728,-3.182,5.985
1782117430.360720,0.974000,1875254,1000,12,0,1,958.953,21.779,22.765,446.616,-3.064,5.688
1782117430.361720,0.975000,1875255,1000,12,0,1,951.747,11.338,22.803,450.772,1.601,4.962
1782117430.362720,0.976000,1875256,1000,12,0,1,941.034,-1.024,22.624,455.096,4.996,4.285
1782117430.363720,0.977000,1875257,1000,12,0,1,922.298,-17.491,22.286,458.699,7.423,4.033
1782117430.364720,0.978000,1875258,1000,12,0,1,904.643,-32.416,22.467,461.653,8.629,4.049
1782117430.365720,0.979000,1875259,1000,12,0,1,890.951,-39.394,23.147,462.134,7.604,4.010
1782117430.366720,0.980000,1875260,1000,12,0,1,882.928,-40.744,23.732,460.332,4.560,3.922
1782117430.367720,0.981000,1875261,1000,12,0,1,890.999,-27.801,23.932,457.498,0.953,3.863
1782117430.368720,0.982000,1875262,1000,12,0,1,904.162,-9.220,23.814,458.266,0.838,3.861
1782117430.369720,0.983000,1875263,1000,12,0,1,905.051,-4.214,23.434,458.987,1.897,3.869
1782117430.370720,0.984000,1875264,1000,12,0,1,914.131,2.933,22.197,458.411,1.227,3.852
1782117430.371720,0.985000,1875265,1000,12,0,1,924.412,14.398,21.201,455.288,-1.032,3.801
1782117430.372720,0.986000,1875266,1000,12,0,1,929.720,16.855,20.778,450.219,-4.998,3.798
1782117430.373720,0.987000,1875267,1000,12,0,1,927.414,13.657,20.656,450.652,-4.304,3.844
1782117430.374720,0.988000,1875268,1000,12,0,1,917.446,2.747,20.659,453.847,0.243,3.838
1782117430.375720,0.989000,1875269,1000,12,0,1,906.588,-7.588,20.684,458.771,4.543,3.879
1782117430.376720,0.990000,1875270,1000,12,0,1,897.340,-14.066,20.741,462.062,7.704,4.013
1782117430.377720,0.991000,1875271,1000,12,0,1,881.487,-23.922,20.948,465.088,8.599,4.193
1782117430.378720,0.992000,1875272,1000,12,0,1,870.389,-29.916,21.369,468.571,10.141,4.416
1782117430.379720,0.993000,1875273,1000,12,0,1,876.971,-18.572,21.525,470.037,9.282,4.598
1782117430.380720,0.994000,1875274,1000,12,0,1,895.803,3.863,21.516,469.076,6.038,4.670
1782117430.381720,0.995000,1875275,1000,12,0,1,921.529,28.346,21.866,467.418,2.341,4.586
1782117430.382720,0.996000,1875276,1000,12,0,1,948.168,50.386,22.870,463.335,-2.604,4.495
1782117430.383720,0.997000,1875277,1000,12,0,1,968.682,62.357,24.210,459.419,-7.204,4.581
1782117430.384720,0.998000,1875278,1000,12,0,1,969.090,55.335,25.118,454.279,-11.214,4.847
1782117430.385720,0.999000,1875279,1000,12,0,1,964.742,39.641,25.300,453.438,-11.842,5.128
1782117430.386720,1.000000,1875280,1000,12,0,1,955.326,24.885,25.194,457.137,-6.905,5.220
1782117430.387720,1.001000,1875281,1000,12,0,1,940.361,4.849,25.046,460.741,-2.484,5.217
1782117430.388720,1.002000,1875282,1000,12,0,1,925.180,-11.450,25.023,464.488,1.173,5.214
1782117430.389720,1.003000,1875283,1000,12,0,1,926.742,-12.714,25.056,464.728,2.096,5.221
1782117430.390720,1.004000,1875284,1000,12,0,1,930.441,-6.783,25.058,464.224,0.929,5.183
1782117430.391720,1.005000,1875285,1000,12,0,1,926.189,-10.551,25.101,461.557,-0.672,5.099
1782117430.392720,1.006000,1875286,1000,12,0,1,918.647,-16.612,25.110,464.103,0.501,5.018
1782117430.393720,1.007000,1875287,1000,12,0,1,915.620,-18.288,25.110,459.876,-0.853,4.920
1782117430.394720,1.008000,1875288,1000,12,0,1,913.890,-17.232,25.107,452.429,-8.399,4.963
1782117430.395720,1.009000,1875289,1000,12,0,1,919.511,-11.093,25.106,444.527,-13.106,5.262
1782117430.396720,1.010000,1875290,1000,12,0,1,933.275,2.339,25.019,437.368,-17.623,5.817
1782117430.397720,1.011000,1875291,1000,12,0,1,942.523,11.146,24.602,430.066,-20.443,6.485
1782117430.398720,1.012000,1875292,1000,12,0,1,929.960,-0.187,24.110,429.225,-18.362,6.969
1782117430.399720,1.013000,1875293,1000,12,0,1,918.070,-14.061,23.956,431.724,-11.934,7.167
1782117430.400720,1.014000,1875294,1000,12,0,1,922.250,-9.774,23.960,430.763,-9.424,7.288
1782117430.401720,1.015000,1875295,1000,12,0,1,941.394,7.343,23.964,431.796,-6.997,7.355
1782117430.402720,1.016000,1875296,1000,12,0,1,981.485,39.351,24.577,434.726,-1.904,7.352
1782117430.403720,1.017000,1875297,1000,12,0,1,1023.136,71.356,26.559,437.849,1.661,7.340
1782117430.404720,1.018000,1875298,1000,12,0,1,1051.433,83.773,29.077,443.133,6.881,7.394
1782117430.405720,1.019000,1875299,1000,12,0,1,1057.366,74.886,30.913,446.712,10.087,7.524
1782117430.406720,1.020000,1875300,1000,12,0,1,1041.200,44.756,31.476,449.331,11.355,7.691
1782117430.407720,1.021000,1875301,1000,12,0,1,999.836,-1.777,31.095,453.799,13.951,7.938
1782117430.408720,1.022000,1875302,1000,12,0,1,958.401,-45.800,31.010,458.723,16.906,8.284
1782117430.409720,1.023000,1875303,1000,12,0,1,948.961,-53.813,31.482,459.804,16.292,8.586
1782117430.410720,1.024000,1875304,1000,12,0,1,958.929,-37.963,31.787,462.710,16.033,8.870
1782117430.411720,1.025000,1875305,1000,12,0,1,940.746,-44.417,32.362,463.287,15.449,9.133
1782117430.412720,1.026000,1875306,1000,12,0,1,903.514,-72.365,33.942,463.022,12.536,9.276
1782117430.413720,1.027000,1875307,1000,12,0,1,885.546,-79.923,35.689,460.813,9.565,9.315
1782117430.414720,1.028000,1875308,1000,12,0,1,886.075,-65.941,36.601,457.258,4.797,9.260
1782117430.415720,1.029000,1875309,1000,12,0,1,887.948,-51.719,36.906,459.227,5.106,9.226
1782117430.416720,1.030000,1875310,1000,12,0,1,893.233,-37.637,36.840,461.149,6.795,9.253
1782117430.417720,1.031000,1875311,1000,12,0,1,893.089,-28.623,36.853,462.326,5.998,9.291
1782117430.418720,1.032000,1875312,1000,12,0,1,885.570,-29.220,37.061,462.854,5.397,9.321
1782117430.419720,1.033000,1875313,1000,12,0,1,888.020,-22.888,37.197,461.341,2.268,9.323
1782117430.420720,1.034000,1875314,1000,12,0,1,900.439,-6.488,37.206,457.306,-2.501,9.328
1782117430.421720,1.035000,1875315,1000,12,0,1,914.587,8.706,37.171,453.342,-7.271,9.383
1782117430.422720,1.036000,1875316,1000,12,0,1,916.220,12.539,37.137,448.898,-11.128,9.488
1782117430.423720,1.037000,1875317,1000,12,0,1,912.954,8.080,37.104,450.436,-10.382,9.582
1782117430.424720,1.038000,1875318,1000,12,0,1,920.280,14.084,37.155,453.222,-6.553,9.627
1782117430.425720,1.039000,1875319,1000,12,0,1,928.951,22.847,37.280,451.901,-7.438,9.662
1782117430.426720,1.040000,1875320,1000,12,0,1,948.192,36.636,37.586,449.523,-9.332,9.691
1782117430.427720,1.041000,1875321,1000,12,0,1,953.501,42.613,37.915,448.682,-9.277,9.704
1782117430.428720,1.042000,1875322,1000,12,0,1,950.834,33.859,37.982,453.102,-4.866,9.622
1782117430.429720,1.043000,1875323,1000,12,0,1,961.764,39.664,38.304,458.867,1.630,9.535
1782117430.430720,1.044000,1875324,1000,12,0,1,978.458,50.809,38.968,463.695,5.685,9.530
1782117430.431720,1.045000,1875325,1000,12,0,1,985.856,52.291,39.460,465.112,6.979,9.575
1782117430.432720,1.046000,1875326,1000,12,0,1,978.170,39.238,39.206,461.821,3.390,9.580
1782117430.433720,1.047000,1875327,1000,12,0,1,970.507,24.410,38.357,459.035,0.296,9.526
1782117430.434720,1.048000,1875328,1000,12,0,1,963.469,14.465,37.606,458.098,-0.179,9.393
1782117430.435720,1.049000,1875329,1000,12,0,1,961.403,7.243,37.200,455.024,-2.038,9.247
1782117430.436720,1.050000,1875330,1000,12,0,1,959.290,3.463,37.037,449.955,-5.765,9.232
1782117430.437720,1.051000,1875331,1000,12,0,1,958.281,-1.722,37.031,449.619,-5.528,9.258
1782117430.438720,1.052000,1875332,1000,12,0,1,957.008,-5.022,37.002,448.178,-4.585,9.279
1782117430.439720,1.053000,1875333,1000,12,0,1,946.487,-16.193,37.030,448.970,-3.893,9.291
1782117430.440720,1.054000,1875334,1000,12,0,1,936.830,-27.266,37.217,451.036,-0.696,9.290
1782117430.441720,1.055000,1875335,1000,12,0,1,936.998,-26.928,37.382,453.895,1.424,9.292
1782117430.442720,1.056000,1875336,1000,12,0,1,944.709,-19.415,37.409,456.225,3.363,9.304
1782117430.443720,1.057000,1875337,1000,12,0,1,938.512,-21.550,37.444,457.882,3.655,9.318
1782117430.444720,1.058000,1875338,1000,12,0,1,927.054,-32.086,37.639,457.786,2.580,9.249
1782117430.445720,1.059000,1875339,1000,12,0,1,924.363,-31.077,37.862,456.249,0.073,9.061
1782117430.446720,1.060000,1875340,1000,12,0,1,924.676,-25.888,38.037,453.486,-3.036,8.722
1782117430.447720,1.061000,1875341,1000,12,0,1,919.247,-24.970,38.168,451.781,-4.810,8.257
1782117430.448720,1.062000,1875342,1000,12,0,1,915.356,-23.743,38.316,448.658,-6.705,7.895
1782117430.449720,1.063000,1875343,1000,12,0,1,914.803,-17.909,38.348,443.734,-9.924,7.839
1782117430.450720,1.064000,1875344,1000,12,0,1,921.961,-6.758,38.335,443.061,-9.287,7.836
1782117430.451720,1.065000,1875345,1000,12,0,1,927.822,4.093,38.325,442.317,-6.902,7.834
1782117430.452720,1.066000,1875346,1000,12,0,1,927.822,6.852,37.931,440.923,-6.369,7.882
1782117430.453720,1.067000,1875347,1000,12,0,1,937.287,15.204,36.628,443.638,-2.004,7.883
1782117430.454720,1.068000,1875348,1000,12,0,1,960.298,35.220,35.015,449.667,4.939,7.854
1782117430.455720,1.069000,1875349,1000,12,0,1,961.860,36.684,33.775,456.105,11.287,7.887
1782117430.456720,1.070000,1875350,1000,12,0,1,958.545,25.450,33.372,456.561,11.808,7.900
1782117430.457720,1.071000,1875351,1000,12,0,1,948.817,14.927,33.437,451.997,6.440,7.703
1782117430.458720,1.072000,1875352,1000,12,0,1,943.988,4.231,32.810,449.691,3.188,7.337
1782117430.459720,1.073000,1875353,1000,12,0,1,948.480,6.600,31.928,448.130,1.733,6.970
1782117430.460720,1.074000,1875354,1000,12,0,1,967.168,18.428,31.582,446.376,-0.275,6.591
1782117430.461720,1.075000,1875355,1000,12,0,1,979.635,27.348,31.191,449.331,1.607,6.223
1782117430.462720,1.076000,1875356,1000,12,0,1,970.699,14.149,29.532,448.922,1.880,5.971
1782117430.463720,1.077000,1875357,1000,12,0,1,957.296,-4.087,27.290,451.372,1.966,5.822
1782117430.464720,1.078000,1875358,1000,12,0,1,954.029,-9.386,25.682,449.042,0.924,5.784
1782117430.465720,1.079000,1875359,1000,12,0,1,952.996,-10.303,24.661,447.457,-2.675,5.751
1782117430.466720,1.080000,1875360,1000,12,0,1,942.067,-17.808,24.211,448.922,-0.820,5.671
1782117430.467720,1.081000,1875361,1000,12,0,1,929.936,-27.542,24.186,453.486,2.428,5.618
1782117430.468720,1.082000,1875362,1000,12,0,1,920.328,-30.731,24.223,459.924,7.791,5.674
1782117430.469720,1.083000,1875363,1000,12,0,1,924.195,-23.716,24.239,465.545,11.629,5.899
1782117430.470720,1.084000,1875364,1000,12,0,1,931.257,-10.129,24.264,468.067,12.080,6.131
1782117430.471720,1.085000,1875365,1000,12,0,1,925.324,-10.753,24.281,469.388,11.124,6.246
1782117430.472720,1.086000,1875366,1000,12,0,1,923.571,-10.633,24.262,468.139,8.248,6.156
1782117430.473720,1.087000,1875367,1000,12,0,1,917.253,-10.485,24.281,468.259,6.332,6.045
1782117430.474720,1.088000,1875368,1000,12,0,1,902.721,-20.662,24.375,470.133,6.748,6.049
1782117430.475720,1.089000,1875369,1000,12,0,1,910.456,-12.470,24.224,469.076,5.008,5.999
1782117430.476720,1.090000,1875370,1000,12,0,1,951.843,25.542,23.938,463.527,-0.939,5.853
1782117430.477720,1.091000,1875371,1000,12,0,1,983.671,54.746,24.426,459.059,-5.646,5.760
1782117430.478720,1.092000,1875372,1000,12,0,1,978.218,43.330,24.724,454.591,-8.892,5.855
1782117430.479720,1.093000,1875373,1000,12,0,1,960.178,17.234,24.202,453.102,-9.915,6.016
1782117430.480720,1.094000,1875374,1000,12,0,1,937.983,-6.513,23.129,452.045,-9.248,6.104
1782117430.481720,1.095000,1875375,1000,12,0,1,926.862,-20.150,22.099,454.903,-6.639,6.097
1782117430.482720,1.096000,1875376,1000,12,0,1,932.026,-13.829,21.480,454.831,-5.019,6.119
1782117430.483720,1.097000,1875377,1000,12,0,1,950.570,3.109,21.206,453.414,-6.860,6.195
1782117430.484720,1.098000,1875378,1000,12,0,1,970.771,21.634,21.328,454.039,-5.930,6.252
1782117430.485720,1.099000,1875379,1000,12,0,1,983.647,30.161,21.726,452.670,-6.497,6.312
1782117430.486720,1.100000,1875380,1000,12,0,1,986.217,28.207,22.083,451.204,-7.841,6.357
1782117430.487720,1.101000,1875381,1000,12,0,1,981.821,19.443,22.253,454.663,-4.407,6.339
1782117430.488720,1.102000,1875382,1000,12,0,1,983.334,15.612,22.351,454.255,-3.296,6.323
1782117430.489720,1.103000,1875383,1000,12,0,1,983.262,13.997,22.321,451.252,-5.915,6.355
1782117430.490720,1.104000,1875384,1000,12,0,1,977.689,5.880,22.001,450.171,-5.912,6.409
1782117430.491720,1.105000,1875385,1000,12,0,1,971.372,-1.266,21.670,450.292,-4.364,6.435
1782117430.492720,1.106000,1875386,1000,12,0,1,961.235,-10.417,21.546,447.865,-4.676,6.451
1782117430.493720,1.107000,1875387,1000,12,0,1,954.606,-16.599,21.458,447.145,-4.181,6.458
1782117430.494720,1.108000,1875388,1000,12,0,1,949.561,-18.691,21.138,446.232,-2.697,6.459
1782117430.495720,1.109000,1875389,1000,12,0,1,944.685,-21.439,20.898,444.118,-2.979,6.473
1782117430.496720,1.110000,1875390,1000,12,0,1,934.116,-27.259,20.932,445.391,-0.621,6.459
1782117430.497720,1.111000,1875391,1000,12,0,1,928.375,-30.906,21.090,443.854,0.368,6.423
1782117430.498720,1.112000,1875392,1000,12,0,1,933.059,-23.096,21.076,445.896,1.842,6.358
1782117430.499720,1.113000,1875393,1000,12,0,1,949.946,-6.595,20.944,446.640,4.470,6.233
1782117430.500720,1.114000,1875394,1000,12,0,1,970.916,12.777,21.000,446.520,3.487,6.113
1782117430.501720,1.115000,1875395,1000,12,0,1,997.579,32.035,21.475,445.055,2.745,6.047
1782117430.502720,1.116000,1875396,1000,12,0,1,1012.856,41.393,22.238,442.773,0.081,5.980
1782117430.503720,1.117000,1875397,1000,12,0,1,1001.686,24.500,22.403,442.917,-0.039,5.973
1782117430.504720,1.118000,1875398,1000,12,0,1,983.118,0.210,21.842,443.013,0.333,5.933
1782117430.505720,1.119000,1875399,1000,12,0,1,968.393,-14.868,21.321,446.040,2.074,5.721
1782117430.506720,1.120000,1875400,1000,12,0,1,959.602,-22.351,21.252,447.505,3.884,5.500
1782117430.507720,1.121000,1875401,1000,12,0,1,955.542,-22.125,21.377,450.892,5.072,5.471
1782117430.508720,1.122000,1875402,1000,12,0,1,948.360,-23.440,21.624,452.814,6.931,5.540
1782117430.509720,1.123000,1875403,1000,12,0,1,940.650,-25.224,21.896,454.303,6.379,5.607
1782117430.510720,1.124000,1875404,1000,12,0,1,931.281,-26.753,22.067,458.002,8.752,5.742
1782117430.511720,1.125000,1875405,1000,12,0,1,921.217,-29.146,22.113,460.116,9.655,5.898
1782117430.512720,1.126000,1875406,1000,12,0,1,916.821,-26.311,22.335,465.016,11.809,6.124
1782117430.513720,1.127000,1875407,1000,12,0,1,928.951,-10.436,22.376,470.181,15.308,6.489
1782117430.514720,1.128000,1875408,1000,12,0,1,940.289,5.839,22.352,467.586,11.327,6.683
1782117430.515720,1.129000,1875409,1000,12,0,1,926.381,-3.123,22.309,464.224,5.762,6.722
1782117430.516720,1.130000,1875410,1000,12,0,1,916.052,-14.281,22.258,465.304,5.325,6.763
1782117430.517720,1.131000,1875411,1000,12,0,1,917.662,-9.540,21.956,464.512,4.207,6.780
1782117430.518720,1.132000,1875412,1000,12,0,1,919.968,-5.798,21.537,462.086,0.738,6.691
1782117430.519720,1.133000,1875413,1000,12,0,1,912.065,-10.066,21.322,463.022,0.550,6.486
1782117430.520720,1.134000,1875414,1000,12,0,1,907.789,-14.246,21.369,463.767,0.861,6.258
1782117430.521720,1.135000,1875415,1000,12,0,1,914.179,-6.173,21.333,457.185,-5.134,6.101
1782117430.522720,1.136000,1875416,1000,12,0,1,926.237,6.059,21.297,453.294,-10.112,6.157
1782117430.523720,1.137000,1875417,1000,12,0,1,951.243,26.667,21.577,453.414,-9.106,6.226
1782117430.524720,1.138000,1875418,1000,12,0,1,971.252,44.066,22.268,453.126,-8.955,6.281
1782117430.525720,1.139000,1875419,1000,12,0,1,981.341,46.571,23.155,449.859,-10.969,6.431
1782117430.526720,1.140000,1875420,1000,12,0,1,980.115,40.702,23.585,449.018,-11.643,6.637
1782117430.527720,1.141000,1875421,1000,12,0,1,978.578,31.946,22.731,449.619,-9.644,6.729
1782117430.528720,1.142000,1875422,1000,12,0,1,977.233,27.522,22.233,451.469,-7.320,6.691
1782117430.529720,1.143000,1875423,1000,12,0,1,974.302,21.131,22.300,454.375,-3.805,6.564
1782117430.530720,1.144000,1875424,1000,12,0,1,965.583,12.027,22.346,453.414,-3.498,6.452
1782117430.531720,1.145000,1875425,1000,12,0,1,963.373,7.212,22.187,451.565,-5.009,6.422
1782117430.532720,1.146000,1875426,1000,12,0,1,969.042,11.968,22.165,451.108,-4.149,6.410
1782117430.533720,1.147000,1875427,1000,12,0,1,972.429,14.032,22.250,449.283,-4.369,6.366
1782117430.534720,1.148000,1875428,1000,12,0,1,968.946,8.658,22.072,449.835,-2.873,6.323
1782117430.535720,1.149000,1875429,1000,12,0,1,965.487,2.437,21.659,450.652,-0.277,6.256
1782117430.536720,1.150000,1875430,1000,12,0,1,963.661,-1.722,21.290,451.012,0.975,6.159
1782117430.537720,1.151000,1875431,1000,12,0,1,963.733,-4.226,21.120,452.165,2.894,6.141
1782117430.538720,1.152000,1875432,1000,12,0,1,959.578,-9.702,21.049,452.165,3.638,6.145
1782117430.539720,1.153000,1875433,1000,12,0,1,954.630,-16.610,21.087,448.130,0.682,6.088
1782117430.540720,1.154000,1875434,1000,12,0,1,952.227,-19.842,21.256,446.472,-1.076,6.033
1782117430.541720,1.155000,1875435,1000,12,0,1,953.284,-19.393,21.432,447.193,0.456,6.001
1782117430.542720,1.156000,1875436,1000,12,0,1,952.059,-19.629,21.561,446.664,0.377,5.965
1782117430.543720,1.157000,1875437,1000,12,0,1,950.978,-20.250,21.623,447.169,0.574,5.936
1782117430.544720,1.158000,1875438,1000,12,0,1,949.513,-19.476,21.637,447.937,1.387,5.927
1782117430.545720,1.159000,1875439,1000,12,0,1,946.775,-19.461,21.599,449.331,1.931,5.919
1782117430.546720,1.160000,1875440,1000,12,0,1,946.102,-17.078,21.389,449.523,1.945,5.924
1782117430.547720,1.161000,1875441,1000,12,0,1,948.672,-10.974,20.996,449.163,0.713,5.925
1782117430.548720,1.162000,1875442,1000,12,0,1,948.768,-6.654,20.761,449.571,0.680,5.920
1782117430.549720,1.163000,1875443,1000,12,0,1,939.184,-10.532,20.794,451.300,1.691,5.891
1782117430.550720,1.164000,1875444,1000,12,0,1,925.420,-18.748,20.884,454.015,3.748,5.894
1782117430.551720,1.165000,1875445,1000,12,0,1,920.808,-17.947,20.544,454.639,4.113,5.910
1782117430.552720,1.166000,1875446,1000,12,0,1,924.003,-8.875,19.732,453.943,2.820,5.923
1782117430.553720,1.167000,1875447,1000,12,0,1,920.232,-6.044,19.445,456.825,4.683,5.960
1782117430.554720,1.168000,1875448,1000,12,0,1,916.629,-6.673,19.467,455.696,4.415,5.993
1782117430.555720,1.169000,1875449,1000,12,0,1,922.490,1.297,19.354,453.126,1.171,5.988
1782117430.556720,1.170000,1875450,1000,12,0,1,932.314,11.639,19.165,447.169,-2.887,5.977
1782117430.557720,1.171000,1875451,1000,12,0,1,940.698,18.315,19.085,443.181,-6.493,6.004
1782117430.558720,1.172000,1875452,1000,12,0,1,943.244,18.323,18.973,445.079,-3.300,5.942
1782117430.559720,1.173000,1875453,1000,12,0,1,949.201,18.493,18.817,445.199,-1.326,5.876
1782117430.560720,1.174000,1875454,1000,12,0,1,948.720,15.750,18.567,445.824,-0.709,5.745
1782117430.561720,1.175000,1875455,1000,12,0,1,946.270,7.993,18.139,447.025,1.261,5.583
1782117430.562720,1.176000,1875456,1000,12,0,1,948.192,6.916,17.780,446.857,0.880,5.329
1782117430.563720,1.177000,1875457,1000,12,0,1,940.866,-0.390,17.718,447.769,1.287,4.873
1782117430.564720,1.178000,1875458,1000,12,0,1,932.482,-9.884,17.754,447.865,1.076,4.605
1782117430.565720,1.179000,1875459,1000,12,0,1,931.882,-9.031,17.795,449.811,1.625,4.538
1782117430.566720,1.180000,1875460,1000,12,0,1,931.834,-6.342,17.702,453.414,4.126,4.513
1782117430.567720,1.181000,1875461,1000,12,0,1,936.662,-0.266,17.651,454.135,3.849,4.506
1782117430.568720,1.182000,1875462,1000,12,0,1,950.234,13.557,17.736,456.681,4.101,4.542
1782117430.569720,1.183000,1875463,1000,12,0,1,954.966,20.141,17.907,460.212,6.324,4.629
1782117430.570720,1.184000,1875464,1000,12,0,1,943.940,10.059,17.850,459.612,4.611,4.673
1782117430.571720,1.185000,1875465,1000,12,0,1,936.854,2.344,17.831,456.729,0.761,4.618
1782117430.572720,1.186000,1875466,1000,12,0,1,937.407,4.250,17.821,450.892,-4.371,4.434
1782117430.573720,1.187000,1875467,1000,12,0,1,947.039,12.249,17.503,449.018,-6.401,4.338
1782117430.574720,1.188000,1875468,1000,12,0,1,952.804,18.028,16.554,445.223,-7.204,4.272
1782117430.575720,1.189000,1875469,1000,12,0,1,955.014,16.187,15.359,442.245,-9.099,4.184
1782117430.576720,1.190000,1875470,1000,12,0,1,949.561,9.294,14.300,443.614,-5.574,3.926
1782117430.577720,1.191000,1875471,1000,12,0,1,949.801,3.962,13.579,444.454,-2.708,3.701
1782117430.578720,1.192000,1875472,1000,12,0,1,955.398,6.770,13.044,442.124,-3.215,3.583
1782117430.579720,1.193000,1875473,1000,12,0,1,958.593,5.988,12.726,442.293,-2.402,3.558
1782117430.580720,1.194000,1875474,1000,12,0,1,958.953,2.537,12.617,443.758,0.130,3.524
1782117430.581720,1.195000,1875475,1000,12,0,1,957.440,-1.971,12.578,444.863,1.439,3.458
1782117430.582720,1.196000,1875476,1000,12,0,1,957.800,-4.782,12.482,447.409,3.311,3.440
1782117430.583720,1.197000,1875477,1000,12,0,1,956.047,-6.922,12.362,446.881,2.917,3.409
1782117430.584720,1.198000,1875478,1000,12,0,1,954.918,-9.442,12.374,448.634,2.547,3.404
1782117430.585720,1.199000,1875479,1000,12,0,1,946.030,-14.867,12.547,452.381,5.417,3.488
1782117430.586720,1.200000,1875480,1000,12,0,1,934.788,-23.950,12.993,452.694,4.410,3.541
1782117430.587720,1.201000,1875481,1000,12,0,1,934.380,-20.735,13.307,451.517,1.838,3.527
1782117430.588720,1.202000,1875482,1000,12,0,1,938.223,-12.028,13.345,449.259,-0.942,3.492
1782117430.589720,1.203000,1875483,1000,12,0,1,944.445,-3.078,13.144,445.800,-4.380,3.545
1782117430.590720,1.204000,1875484,1000,12,0,1,945.670,2.057,12.844,444.430,-5.445,3.624
1782117430.591720,1.205000,1875485,1000,12,0,1,946.655,3.494,12.557,444.695,-4.155,3.671
1782117430.592720,1.206000,1875486,1000,12,0,1,946.679,5.530,12.272,443.950,-3.489,3.704
1782117430.593720,1.207000,1875487,1000,12,0,1,938.344,-0.913,11.933,441.332,-4.434,3.756
1782117430.594720,1.208000,1875488,1000,12,0,1,924.412,-12.405,11.743,439.506,-4.700,3.809
1782117430.595720,1.209000,1875489,1000,12,0,1,911.729,-21.782,11.824,440.395,-2.317,3.813
1782117430.596720,1.210000,1875490,1000,12,0,1,917.085,-15.969,11.793,440.371,-0.406,3.804
1782117430.597720,1.211000,1875491,1000,12,0,1,930.273,-0.357,11.691,441.620,1.336,3.807
1782117430.598720,1.212000,1875492,1000,12,0,1,945.069,11.740,11.770,443.734,4.224,3.852
1782117430.599720,1.213000,1875493,1000,12,0,1,961.596,24.095,12.163,447.073,6.863,3.966
1782117430.600720,1.214000,1875494,1000,12,0,1,960.683,20.637,12.224,448.106,7.708,4.078
1782117430.601720,1.215000,1875495,1000,12,0,1,964.646,15.665,12.161,440.923,0.919,4.039
1782117430.602720,1.216000,1875496,1000,12,0,1,972.933,20.441,12.437,439.122,-2.827,4.039
1782117430.603720,1.217000,1875497,1000,12,0,1,972.069,15.007,12.588,436.648,-3.382,4.013
1782117430.604720,1.218000,1875498,1000,12,0,1,956.071,-1.261,12.553,440.563,-1.857,3.973
1782117430.605720,1.219000,1875499,1000,12,0,1,950.978,-9.904,12.630,444.887,3.526,4.000
1782117430.606720,1.220000,1875500,1000,12,0,1,944.829,-10.955,12.618,446.472,3.325,4.007
1782117430.607720,1.221000,1875501,1000,12,0,1,926.453,-24.579,12.829,452.934,7.493,4.042
1782117430.608720,1.222000,1875502,1000,12,0,1,920.064,-27.254,13.142,454.952,8.980,4.211
1782117430.609720,1.223000,1875503,1000,12,0,1,936.830,-6.863,12.916,454.159,5.547,4.279
1782117430.610720,1.224000,1875504,1000,12,0,1,954.125,13.831,12.872,459.155,8.295,4.436
1782117430.611720,1.225000,1875505,1000,12,0,1,960.298,20.384,13.142,464.704,11.941,4.743
1782117430.612720,1.226000,1875506,1000,12,0,1,959.602,17.941,13.349,466.025,11.468,5.011
1782117430.613720,1.227000,1875507,1000,12,0,1,942.739,3.105,13.356,462.470,6.514,5.092
1782117430.614720,1.228000,1875508,1000,12,0,1,934.020,-8.939,13.343,458.411,1.377,5.093
1782117430.615720,1.229000,1875509,1000,12,0,1,932.939,-7.282,13.322,451.156,-4.721,5.132
1782117430.616720,1.230000,1875510,1000,12,0,1,933.203,-7.728,13.336,446.064,-9.365,5.268
1782117430.617720,1.231000,1875511,1000,12,0,1,930.465,-8.795,13.394,444.695,-8.776,5.385
1782117430.618720,1.232000,1875512,1000,12,0,1,914.779,-21.445,13.599,443.614,-8.002,5.472
1782117430.619720,1.233000,1875513,1000,12,0,1,897.028,-36.274,14.252,442.341,-7.636,5.505
1782117430.620720,1.234000,1875514,1000,12,0,1,894.794,-34.945,15.017,444.334,-5.006,5.512
1782117430.621720,1.235000,1875515,1000,12,0,1,905.411,-20.439,15.289,441.716,-5.472,5.565
1782117430.622720,1.236000,1875516,1000,12,0,1,934.692,7.342,15.313,438.569,-8.543,5.661
1782117430.623720,1.237000,1875517,1000,12,0,1,968.345,38.355,16.153,434.894,-10.277,5.774
1782117430.624720,1.238000,1875518,1000,12,0,1,985.568,50.025,17.449,432.276,-12.011,5.932
1782117430.625720,1.239000,1875519,1000,12,0,1,992.991,48.289,18.597,428.072,-13.617,6.102
1782117430.626720,1.240000,1875520,1000,12,0,1,982.998,34.172,19.170,426.535,-13.912,6.363
1782117430.627720,1.241000,1875521,1000,12,0,1,950.330,0.328,19.162,431.700,-7.571,6.441
1782117430.628720,1.242000,1875522,1000,12,0,1,909.351,-36.128,19.808,435.399,-1.964,6.431
1782117430.629720,1.243000,1875523,1000,12,0,1,892.944,-47.747,20.910,436.480,-0.594,6.423
1782117430.630720,1.244000,1875524,1000,12,0,1,910.840,-23.334,21.166,437.296,1.012,6.424
1782117430.631720,1.245000,1875525,1000,12,0,1,949.873,17.620,21.310,443.326,5.942,6.476
1782117430.632720,1.246000,1875526,1000,12,0,1,1002.887,63.940,23.139,446.809,10.371,6.623
1782117430.633720,1.247000,1875527,1000,12,0,1,1065.077,110.052,27.869,444.094,7.321,6.691
1782117430.634720,1.248000,1875528,1000,12,0,1,1072.979,107.357,31.709,449.259,10.332,6.839
1782117430.635720,1.249000,1875529,1000,12,0,1,1065.317,73.558,33.305,454.399,15.737,7.151
1782117430.636720,1.250000,1875530,1000,12,0,1,1050.808,47.317,33.801,454.015,13.801,7.386
1782117430.637720,1.251000,1875531,1000,12,0,1,1024.602,8.208,33.694,460.716,17.089,7.767
1782117430.638720,1.252000,1875532,1000,12,0,1,985.760,-32.551,33.964,468.908,23.032,8.422
1782117430.639720,1.253000,1875533,1000,12,0,1,946.126,-70.516,35.395,475.705,25.074,9.117
1782117430.640720,1.254000,1875534,1000,12,0,1,930.225,-81.658,37.231,473.423,20.174,9.522
1782117430.641720,1.255000,1875535,1000,12,0,1,932.531,-69.370,38.498,466.794,9.175,9.592
1782117430.642720,1.256000,1875536,1000,12,0,1,927.270,-63.590,39.527,464.368,3.740,9.594
1782117430.643720,1.257000,1875537,1000,12,0,1,922.610,-59.315,40.407,461.389,-0.637,9.573
1782117430.644720,1.258000,1875538,1000,12,0,1,930.753,-43.971,40.845,457.810,-5.828,9.586
1782117430.645720,1.259000,1875539,1000,12,0,1,933.756,-30.876,40.962,453.198,-10.337,9.691
1782117430.646720,1.260000,1875540,1000,12,0,1,925.853,-31.794,41.146,447.169,-15.922,9.949
1782117430.647720,1.261000,1875541,1000,12,0,1,914.539,-34.526,41.435,444.935,-17.404,10.247
1782117430.648720,1.262000,1875542,1000,12,0,1,906.516,-34.762,41.692,444.575,-15.958,10.476
1782117430.649720,1.263000,1875543,1000,12,0,1,890.542,-38.414,41.907,447.217,-12.504,10.580
1782117430.650720,1.264000,1875544,1000,12,0,1,875.049,-44.283,42.271,449.235,-8.750,10.596
1782117430.651720,1.265000,1875545,1000,12,0,1,884.633,-27.370,42.390,443.998,-11.659,10.723
1782117430.652720,1.266000,1875546,1000,12,0,1,910.840,5.180,42.298,442.413,-12.738,10.865
1782117430.653720,1.267000,1875547,1000,12,0,1,936.230,31.828,42.484,443.446,-8.891,10.928
1782117430.654720,1.268000,1875548,1000,12,0,1,952.468,45.980,42.978,445.223,-5.887,10.956
1782117430.655720,1.269000,1875549,1000,12,0,1,954.437,43.990,43.404,446.977,-2.266,10.949
1782117430.656720,1.270000,1875550,1000,12,0,1,944.541,30.317,43.587,446.736,-1.173,10.941
1782117430.657720,1.271000,1875551,1000,12,0,1,943.964,23.580,43.576,444.959,-1.597,10.891
1782117430.658720,1.272000,1875552,1000,12,0,1,965.415,38.144,43.739,441.116,-3.558,10.829
1782117430.659720,1.273000,1875553,1000,12,0,1,997.843,61.605,44.588,434.390,-7.862,10.858
1782117430.660720,1.274000,1875554,1000,12,0,1,1008.340,64.819,45.479,436.984,-4.966,10.817
1782117430.661720,1.275000,1875555,1000,12,0,1,1000.269,45.818,45.847,440.996,1.676,10.687
1782117430.662720,1.276000,1875556,1000,12,0,1,987.562,25.828,45.923,444.479,4.717,10.584
1782117430.663720,1.277000,1875557,1000,12,0,1,964.646,0.856,45.921,445.607,6.407,10.583
1782117430.664720,1.278000,1875558,1000,12,0,1,929.984,-30.952,46.111,447.673,6.844,10.625
1782117430.665720,1.279000,1875559,1000,12,0,1,906.516,-49.959,46.638,445.583,5.098,10.629
1782117430.666720,1.280000,1875560,1000,12,0,1,899.622,-48.185,47.121,441.812,0.263,10.546
1782117430.667720,1.281000,1875561,1000,12,0,1,905.435,-34.844,47.361,440.731,-1.094,10.474
1782117430.668720,1.282000,1875562,1000,12,0,1,921.193,-13.900,47.305,441.212,-0.532,10.413
1782117430.669720,1.283000,1875563,1000,12,0,1,946.847,12.047,47.057,442.437,0.407,10.357
1782117430.670720,1.284000,1875564,1000,12,0,1,974.759,36.378,47.079,445.511,3.083,10.342
1782117430.671720,1.285000,1875565,1000,12,0,1,987.322,43.785,47.396,443.518,1.780,10.316
1782117430.672720,1.286000,1875566,1000,12,0,1,983.382,32.169,47.603,439.698,-2.142,10.249
1782117430.673720,1.287000,1875567,1000,12,0,1,969.090,12.532,47.326,437.368,-3.580,10.158
1782117430.674720,1.288000,1875568,1000,12,0,1,962.773,-0.274,46.794,436.023,-3.675,10.029
1782117430.675720,1.289000,1875569,1000,12,0,1,953.597,-8.901,46.310,434.750,-3.460,9.854
1782117430.676720,1.290000,1875570,1000,12,0,1,940.313,-22.665,46.169,434.534,-2.315,9.661
1782117430.677720,1.291000,1875571,1000,12,0,1,923.907,-34.361,46.424,434.870,-0.663,9.602
1782117430.678720,1.292000,1875572,1000,12,0,1,907.957,-44.641,46.571,436.191,1.497,9.601
1782117430.679720,1.293000,1875573,1000,12,0,1,904.619,-41.752,46.456,440.371,5.509,9.632
1782117430.680720,1.294000,1875574,1000,12,0,1,915.356,-24.699,46.470,447.073,11.298,9.762
1782117430.681720,1.295000,1875575,1000,12,0,1,922.394,-10.936,46.429,449.859,13.124,9.902
1782117430.682720,1.296000,1875576,1000,12,0,1,926.285,-3.784,45.543,449.163,10.401,9.902
1782117430.683720,1.297000,1875577,1000,12,0,1,913.098,-9.542,42.823,448.946,8.115,9.915
1782117430.684720,1.298000,1875578,1000,12,0,1,908.126,-13.843,40.089,451.997,8.663,9.883
1782117430.685720,1.299000,1875579,1000,12,0,1,934.092,11.993,38.753,455.984,10.382,9.740
1782117430.686720,1.300000,1875580,1000,12,0,1,954.365,34.172,38.475,458.531,10.292,9.653
1782117430.687720,1.301000,1875581,1000,12,0,1,978.938,48.714,39.070,458.290,7.717,9.409
1782117430.688720,1.302000,1875582,1000,12,0,1,1002.287,65.131,39.876,454.375,2.213,8.833
1782117430.689720,1.303000,1875583,1000,12,0,1,1011.895,62.490,39.608,445.607,-6.586,8.143
1782117430.690720,1.304000,1875584,1000,12,0,1,1013.552,52.510,38.607,439.915,-12.384,7.826
1782117430.691720,1.305000,1875585,1000,12,0,1,1002.695,32.716,37.626,440.923,-10.319,7.854
1782117430.692720,1.306000,1875586,1000,12,0,1,976.897,1.829,36.536,449.090,-2.198,7.842
1782117430.693720,1.307000,1875587,1000,12,0,1,955.494,-22.679,35.705,457.906,6.625,7.898
1782117430.694720,1.308000,1875588,1000,12,0,1,950.882,-27.321,35.371,460.284,8.326,7.942
1782117430.695720,1.309000,1875589,1000,12,0,1,959.818,-17.370,35.186,461.101,7.011,7.869
1782117430.696720,1.310000,1875590,1000,12,0,1,972.141,-4.654,34.904,454.039,0.799,7.541
1782117430.697720,1.311000,1875591,1000,12,0,1,976.464,0.187,34.560,450.508,-4.872,7.161
1782117430.698720,1.312000,1875592,1000,12,0,1,977.882,-0.502,34.209,450.051,-3.865,6.818
1782117430.699720,1.313000,1875593,1000,12,0,1,963.902,-11.108,33.811,449.139,-4.822,6.620
1782117430.700720,1.314000,1875594,1000,12,0,1,934.332,-36.839,33.632,449.931,-3.639,6.524
1782117430.701720,1.315000,1875595,1000,12,0,1,919.607,-47.550,34.079,448.442,-4.159,6.339
1782117430.702720,1.316000,1875596,1000,12,0,1,905.051,-50.126,34.801,449.691,-3.713,6.101
1782117430.703720,1.317000,1875597,1000,12,0,1,889.702,-56.454,35.420,451.180,-1.378,5.973
1782117430.704720,1.318000,1875598,1000,12,0,1,886.579,-49.296,35.509,448.130,-4.195,5.944
1782117430.705720,1.319000,1875599,1000,12,0,1,877.331,-45.356,35.543,445.439,-6.680,6.010
1782117430.706720,1.320000,1875600,1000,12,0,1,871.686,-42.740,35.798,444.527,-6.914,6.087
1782117430.707720,1.321000,1875601,1000,12,0,1,873.248,-30.926,35.909,448.058,-3.561,6.104
1782117430.708720,1.322000,1875602,1000,12,0,1,890.518,-10.147,35.531,447.481,-2.437,6.093
1782117430.709720,1.323000,1875603,1000,12,0,1,935.077,32.292,34.748,443.470,-6.181,6.054
1782117430.710720,1.324000,1875604,1000,12,0,1,979.635,71.712,35.017,444.815,-4.669,6.049
1782117430.711720,1.325000,1875605,1000,12,0,1,995.128,78.192,36.146,447.841,-0.616,6.045
1782117430.712720,1.326000,1875606,1000,12,0,1,987.514,59.411,36.929,446.953,-0.632,6.009
1782117430.713720,1.327000,1875607,1000,12,0,1,970.315,33.691,37.235,441.284,-4.780,5.978
1782117430.714720,1.328000,1875608,1000,12,0,1,963.926,19.301,37.078,438.593,-6.870,5.979
1782117430.715720,1.329000,1875609,1000,12,0,1,955.086,9.995,36.426,439.074,-4.407,5.968
1782117430.716720,1.330000,1875610,1000,12,0,1,936.878,-7.911,35.800,437.873,-3.750,5.991
1782117430.717720,1.331000,1875611,1000,12,0,1,931.209,-13.346,35.509,436.912,-3.378,6.008
1782117430.718720,1.332000,1875612,1000,12,0,1,947.351,3.201,35.458,436.528,-2.189,6.016
