Unix_Time_s,RelativeTime_s,P_1,P_2,P_3,P_4,P_5,P_6,P_7,P_8,P_9,P_10,P_11,P_12,P_13,P_14,P_15,P_16,P_17,P_18,P_19,P_20,P_21,P_22,P_23,P_24,P_25,P_26,P_27,P_28,P_29,P_30,P_31,P_32,P_33,P_34,P_35,P_36,P_37,P_38,P_39,P_40,P_41,P_42,P_43,P_44,P_45,P_46,P_47,P_48,P_49,P_50,P_51,P_52,P_53,P_54,P_55,P_56,P_57,P_58,P_59,P_60,P_61,P_62,P_63,P_64,P_65,P_66,P_67,P_68,P_69,P_70,P_71,P_72,P_73,P_74,P_75,P_76,P_77,P_78,P_79,P_80,P_81,P_82,P_83,P_84,P_85,P_86,P_87,P_88,P_89,P_90,P_91,P_92,P_93,P_94,P_95,P_96,P_97,P_98,P_99,P_100,P_101,P_102,P_103,P_104,P_105,P_106,P_107,P_108,P_109,P_110,P_111,P_112,P_113,P_114,P_115,P_116,P_117,P_118,P_119,P_120,P_121,P_122,P_123,P_124,P_125,P_126,P_127,P_128,P_129,P_130,P_131,P_132,P_133,P_134,P_135,P_136,P_137,P_138,P_139,P_140,P_141,P_142,P_143,P_144,P_145,P_146,P_147,P_148,P_149,P_150,P_151,P_152,P_153,P_154,P_155,P_156,P_157,P_158,P_159,P_160,P_161,P_162,P_163,P_164,P_165,P_166,P_167,P_168,P_169,P_170,P_171,P_172,P_173,P_174,P_175,P_176,P_177,P_178,P_179,P_180,P_181,P_182,P_183,P_184,P_185,P_186,P_187,P_188,P_189,P_190,P_191,P_192,P_193,P_194,P_195,P_196,P_197,P_198,P_199,P_200,P_201,P_202,P_203,P_204,P_205,P_206,P_207,P_208,P_209,P_210,P_211,P_212,P_213,P_214,P_215,P_216,P_217,P_218,P_219,P_220,P_221,P_222,P_223,P_224,P_225,P_226,P_227,P_228,P_229,P_230,P_231,P_232,P_233,Flex1,Flex2,Bat,IMU1_RefTime,IMU1_Ax,IMU1_Ay,IMU1_Az,IMU1_Wx,IMU1_Wy,IMU1_Wz,IMU1_Roll,IMU1_Pitch,IMU1_Yaw,IMU1_Hx,IMU1_Hy,IMU1_Hz,IMU1_Q0,IMU1_Q1,IMU1_Q2,IMU1_Q3,IMU2_RefTime,IMU2_Ax,IMU2_Ay,IMU2_Az,IMU2_Wx,IMU2_Wy,IMU2_Wz,IMU2_Roll,IMU2_Pitch,IMU2_Yaw,IMU2_Hx,IMU2_Hy,IMU2_Hz,IMU2_Q0,IMU2_Q1,IMU2_Q2,IMU2_Q3,IMU1_FusedRoll,IMU1_FusedPitch,IMU1_FusedYaw,IMU1_FusedQ0,IMU1_FusedQ1,IMU1_FusedQ2,IMU1_FusedQ3,IMU1_MagValid,IMU2_FusedRoll,IMU2_FusedPitch,IMU2_FusedYaw,IMU2_FusedQ0,IMU2_FusedQ1,IMU2_FusedQ2,IMU2_FusedQ3,IMU2_MagValid
1782117429.395467,0.009,1022.0,1023.0,1024.0,1023.0,1023.0,1022.0,1023.0,1024.0,1023.0,1023.0,1023.0,1023.0,1023.0,1024.0,1023.0,1023.0,1023.0,1023.0,1023.0,1023.0,1024.0,1023.0,1024.0,1023.0,1023.0,1023.0,1024.0,1024.0,1024.0,1023.0,1023.0,1023.0,1022.0,1022.0,1023.0,1023.0,1024.0,1024.0,1023.0,1023.0,1023.0,1023.0,1023.0,1023.0,1022.0,1023.0,1024.0,1023.0,1023.0,1023.0,1022.0,1023.0,1023.0,1023.0,1023.0,1024.0,1024.0,1023.0,1023.0,1022.0,1023.0,1023.0,1023.0,1023.0,1022.0,1023.0,1024.0,1023.0,1023.0,1021.0,1023.0,1024.0,1022.0,1023.0,1023.0,1023.0,1024.0,1023.0,1023.0,1022.0,1022.0,1022.0,1023.0,1023.0,1023.0,1023.0,1024.0,1023.0,1023.0,1023.0,1023.0,1023.0,1023.0,1023.0,1024.0,1024.0,1025.0,1024.0,1024.0,1024.0,1023.0,1024.0,1024.0,1024.0,1024.0,1024.0,1025.0,1024.0,1023.0,1024.0,1023.0,1023.0,1022.0,1023.0,1023.0,1023.0,1024.0,1023.0,1023.0,1020.0,1022.0,1023.0,1024.0,1023.0,1024.0,1025.0,1023.0,1023.0,1023.0,1023.0,1023.0,1023.0,1024.0,1024.0,1024.0,1023.0,1023.0,1023.0,1024.0,1024.0,1025.0,1025.0,1024.0,1024.0,1024.0,1023.0,1024.0,1025.0,1024.0,1024.0,1023.0,1024.0,1024.0,1025.0,1027.0,1025.0,1024.0,1024.0,1025.0,1026.0,1028.0,1027.0,1024.0,1026.0,1026.0,1030.0,1032.0,1030.0,1024.0,1026.0,1028.0,1030.0,1035.0,1031.0,1025.0,1028.0,1032.0,1031.0,1041.0,1033.0,1025.0,1029.0,1032.0,1030.0,1042.0,1034.0,1027.0,1031.0,1033.0,1031.0,1042.0,1036.0,1029.0,1033.0,1035.0,1031.0,1042.0,1036.0,1028.0,1031.0,1032.0,1028.0,1038.0,1033.0,1029.0,1031.0,1032.0,1029.0,1037.0,1031.0,1022.0,1023.0,1022.0,1023.0,1025.0,1022.0,1032.0,1039.0,1037.0,1032.0,1043.0,1037.0,1029.0,1035.0,1033.0,1032.0,1040.0,1035.0,1026.0,1031.0,1029.0,1030.0,1034.0,1976,2028,1908,	00:32:02.176,0.05517578125,0.044921875,1.01806640625,-0.30517578125,0.244140625,0.06103515625,2.5323486328125,-3.09814453125,53.448486328125,462.0,-1594.0,-2569.0,0.892364501953125,0.0318603515625,-0.014190673828125,0.449951171875,2.530756196522397,-3.096781391250883,48.8394123872668,0.9097403895161306,0.031268672623001044,-0.015471690408786274,0.413709222270098,1,	00:32:02.178,0.00927734375,0.07275390625,1.00537109375,-1.03759765625,-1.15966796875,-0.48828125,4.1033935546875,-0.5108642578125,103.3428955078125,-371.0,-1302.0,-1938.0,-0.619659423828125,-0.025726318359375,-0.02532958984375,-0.784027099609375,4.1042967615473565,-0.5129709806424214,104.69576825344141,-0.6103407624193796,-0.025416246982620506,-0.025618214019599368,-0.7913165455297235,1
1782117429.405465,0.019,1023.0,1023.0,1024.0,1023.0,1022.0,1023.0,1023.0,1024.0,1023.0,1023.0,1023.0,1023.0,1023.0,1024.0,1023.0,1023.0,1023.0,1023.0,1023.0,1023.0,1024.0,1023.0,1023.0,1023.0,1023.0,1023.0,1023.0,1023.0,1024.0,1023.0,1023.0,1023.0,1022.0,1022.0,1024.0,1023.0,1024.0,1024.0,1023.0,1023.0,1023.0,1022.0,1023.0,1023.0,1023.0,1023.0,1024.0,1023.0,1023.0,1022.0,1022.0,1023.0,1023.0,1023.0,1023.0,1023.0,1024.0,1023.0,1023.0,1023.0,1022.0,1023.0,1022.0,1023.0,1022.0,1023.0,1024.0,1023.0,1023.0,1022.0,1022.0,1023.0,1023.0,1023.0,1023.0,1023.0,1024.0,1023.0,1022.0,1023.0,1022.0,1023.0,1023.0,1023.0,1023.0,1023.0,1024.0,1023.0,1023.0,1023.0,1023.0,1024.0,1023.0,1023.0,1024.0,1024.0,1025.0,1023.0,1024.0,1024.0,1023.0,1023.0,1023.0,1024.0,1024.0,1024.0,1025.0,1024.0,1024.0,1023.0,1023.0,1023.0,1022.0,1023.0,1022.0,1023.0,1024.0,1022.0,1022.0,1021.0,1022.0,1022.0,1023.0,1024.0,1024.0,1024.0,1024.0,1024.0,1023.0,1022.0,1023.0,1023.0,1023.0,1024.0,1023.0,1023.0,1023.0,1023.0,1024.0,1024.0,1026.0,1024.0,1024.0,1023.0,1024.0,1024.0,1024.0,1026.0,1024.0,1024.0,1023.0,1024.0,1024.0,1024.0,1027.0,1025.0,1024.0,1024.0,1024.0,1026.0,1029.0,1026.0,1024.0,1026.0,1026.0,1029.0,1032.0,1030.0,1024.0,1027.0,1028.0,1030.0,1035.0,1031.0,1025.0,1028.0,1032.0,1031.0,1040.0,1033.0,1026.0,1028.0,1032.0,1030.0,1042.0,1034.0,1026.0,1031.0,1034.0,1031.0,1042.0,1036.0,1028.0,1032.0,1035.0,1030.0,1042.0,1036.0,1028.0,1030.0,1032.0,1029.0,1038.0,1033.0,1029.0,1031.0,1032.0,1029.0,1037.0,1031.0,1022.0,1023.0,1023.0,1023.0,1025.0,1022.0,1032.0,1039.0,1037.0,1032.0,1042.0,1037.0,1029.0,1034.0,1033.0,1032.0,1041.0,1035.0,1027.0,1030.0,1028.0,1030.0,1034.0,1976,2028,1908,	00:32:02.187,0.0546875,0.0439453125,1.0185546875,-0.244140625,0.244140625,0.06103515625,2.4444580078125,-3.0596923828125,53.4539794921875,461.0,-1591.0,-2569.0,0.89239501953125,0.031036376953125,-0.01422119140625,0.449981689453125,2.444309187136105,-3.057729669192085,48.84463772131391,0.9097561882012747,0.030442439771975846,-0.015472194750504955,0.4137360838503441,1,	00:32:02.188,0.009765625,0.0732421875,1.00537109375,-0.9765625,-1.15966796875,-0.48828125,4.1693115234375,-0.5767822265625,103.3319091796875,-370.0,-1302.0,-1936.0,-0.619659423828125,-0.0264892578125,-0.025421142578125,-0.78399658203125,4.170429845221837,-0.5753382041452529,104.68935298204835,-0.6103530357924197,-0.026200482802392285,-0.025741109364001303,-0.7912775124370774,1
1782117429.416467,0.030,1023.0,1023.0,1023.0,1023.0,1022.0,1022.0,1023.0,1024.0,1023.0,1023.0,1023.0,1023.0,1023.0,1024.0,1023.0,1023.0,1023.0,1023.0,1023.0,1024.0,1024.0,1023.0,1023.0,1023.0,1023.0,1024.0,1023.0,1024.0,1024.0,1023.0,1023.0,1023.0,1023.0,1022.0,1023.0,1023.0,1023.0,1024.0,1023.0,1023.0,1023.0,1023.0,1022.0,1023.0,1023.0,1023.0,1024.0,1023.0,1023.0,1023.0,1023.0,1023.0,1023.0,1023.0,1023.0,1023.0,1024.0,1023.0,1023.0,1023.0,1022.0,1023.0,1023.0,1023.0,1022.0,1023.0,1024.0,1023.0,1022.0,1022.0,1022.0,1023.0,1022.0,1023.0,1023.0,1023.0,1024.0,1023.0,1023.0,1022.0,1022.0,1023.0,1023.0,1024.0,1023.0,1023.0,1024.0,1023.0,1024.0,1023.0,1022.0,1023.0,1023.0,1023.0,1024.0,1024.0,1025.0,1024.0,1024.0,1024.0,1023.0,1023.0,1023.0,1024.0,1024.0,1024.0,1025.0,1024.0,1024.0,1024.0,1023.0,1024.0,1023.0,1022.0,1022.0,1023.0,1024.0,1023.0,1023.0,1021.0,1022.0,1023.0,1023.0,1023.0,1024.0,1024.0,1024.0,1023.0,1022.0,1023.0,1023.0,1024.0,1023.0,1025.0,1024.0,1023.0,1023.0,1024.0,1023.0,1024.0,1025.0,1024.0,1024.0,1023.0,1023.0,1024.0,1024.0,1025.0,1024.0,1024.0,1023.0,1024.0,1024.0,1025.0,1027.0,1026.0,1023.0,1024.0,1024.0,1025.0,1028.0,1027.0,1024.0,1025.0,1026.0,1030.0,1033.0,1029.0,1024.0,1026.0,1028.0,1031.0,1036.0,1031.0,1025.0,1028.0,1031.0,1031.0,1041.0,1032.0,1026.0,1028.0,1031.0,1030.0,1042.0,1034.0,1027.0,1031.0,1033.0,1030.0,1043.0,1036.0,1028.0,1032.0,1035.0,1030.0,1043.0,1035.0,1028.0,1030.0,1032.0,1028.0,1038.0,1033.0,1029.0,1031.0,1032.0,1029.0,1038.0,1032.0,1022.0,1023.0,1023.0,1023.0,1025.0,1023.0,1033.0,1039.0,1036.0,1031.0,1043.0,1036.0,1028.0,1034.0,1033.0,1032.0,1041.0,1036.0,1026.0,1030.0,1028.0,1029.0,1034.0,1975,2028,1909,	00:32:02.197,0.05419921875,0.0439453125,1.01806640625,-0.244140625,0.244140625,0.1220703125,2.52685546875,-3.0157470703125,53.4539794921875,462.0,-1593.0,-2570.0,0.89239501953125,0.031494140625,-0.013580322265625,0.449981689453125,2.5244940222650873,-3.015565537990327,48.84158153888373,0.9097579229108371,0.030926786299681607,-0.014848588143815495,0.413719198273743,1,	00:32:02.198,0.009765625,0.0732421875,1.00439453125,-0.9765625,-1.15966796875,-0.48828125,4.163818359375,-0.494384765625,103.326416015625,-371.0,-1303.0,-1936.0,-0.619720458984375,-0.025909423828125,-0.02581787109375,-0.783966064453125,4.162088018062075,-0.49488958734817,104.68361984127017,-0.6104167130654277,-0.025601992727200644,-0.02611092038604696,-0.7912358650967417,1
1782117429.426471,0.040,1023.0,1023.0,1023.0,1022.0,1022.0,1023.0,1023.0,1024.0,1023.0,1023.0,1023.0,1024.0,1023.0,1024.0,1023.0,1023.0,1023.0,1023.0,1023.0,1023.0,1024.0,1023.0,1024.0,1022.0,1023.0,1023.0,1023.0,1023.0,1024.0,1023.0,1023.0,1024.0,1022.0,1023.0,1023.0,1023.0,1023.0,1024.0,1023.0,1023.0,1023.0,1023.0,1022.0,1023.0,1023.0,1024.0,1024.0,1023.0,1023.0,1022.0,1022.0,1023.0,1023.0,1023.0,1023.0,1023.0,1024.0,1024.0,1023.0,1023.0,1023.0,1024.0,1023.0,1023.0,1023.0,1023.0,1024.0,1023.0,1022.0,1022.0,1022.0,1023.0,1022.0,1023.0,1023.0,1023.0,1024.0,1023.0,1024.0,1022.0,1023.0,1023.0,1022.0,1023.0,1024.0,1024.0,1024.0,1023.0,1023.0,1022.0,1022.0,1023.0,1023.0,1023.0,1024.0,1023.0,1025.0,1024.0,1024.0,1024.0,1022.0,1023.0,1023.0,1024.0,1024.0,1024.0,1025.0,1024.0,1024.0,1024.0,1023.0,1023.0,1022.0,1023.0,1023.0,1023.0,1024.0,1024.0,1022.0,1021.0,1022.0,1023.0,1023.0,1023.0,1024.0,1025.0,1024.0,1023.0,1022.0,1023.0,1024.0,1024.0,1024.0,1025.0,1023.0,1023.0,1023.0,1024.0,1024.0,1024.0,1026.0,1024.0,1024.0,1023.0,1024.0,1024.0,1024.0,1025.0,1024.0,1024.0,1023.0,1023.0,1024.0,1025.0,1027.0,1025.0,1023.0,1024.0,1024.0,1026.0,1029.0,1027.0,1024.0,1026.0,1027.0,1029.0,1032.0,1030.0,1024.0,1027.0,1028.0,1030.0,1035.0,1031.0,1025.0,1028.0,1031.0,1031.0,1041.0,1033.0,1025.0,1029.0,1031.0,1030.0,1042.0,1033.0,1026.0,1032.0,1033.0,1030.0,1043.0,1036.0,1028.0,1033.0,1035.0,1030.0,1042.0,1035.0,1027.0,1031.0,1032.0,1028.0,1039.0,1033.0,1028.0,1032.0,1032.0,1029.0,1037.0,1032.0,1022.0,1023.0,1022.0,1023.0,1025.0,1023.0,1032.0,1039.0,1037.0,1032.0,1042.0,1037.0,1028.0,1034.0,1034.0,1031.0,1041.0,1036.0,1026.0,1030.0,1029.0,1029.0,1034.0,1975,2028,1909,	00:32:02.207,0.0546875,0.0439453125,1.01708984375,-0.244140625,0.244140625,0.06103515625,2.4609375,-3.0816650390625,53.4539794921875,460.0,-1596.0,-2572.0,0.892364501953125,0.031280517578125,-0.014373779296875,0.45001220703125,2.4625867209865464,-3.0830174571709543,48.84546256237337,0.9097410010196951,0.03067873094450573,-0.015606848135061593,0.4137469671461129,1,	00:32:02.208,0.00927734375,0.07373046875,1.0048828125,-0.9765625,-1.15966796875,-0.48828125,4.21875,-0.5712890625,103.3209228515625,-371.0,-1304.0,-1936.0,-0.6197509765625,-0.0267333984375,-0.025787353515625,-0.783935546875,4.218673354436558,-0.5691816454254635,104.67729894279171,-0.6104269114464845,-0.02641768807089921,-0.026104266316217806,-0.791201402184669,1
1782117429.435952,0.049,1023.0,1023.0,1024.0,1022.0,1023.0,1023.0,1023.0,1023.0,1023.0,1023.0,1023.0,1023.0,1023.0,1024.0,1024.0,1023.0,1023.0,1023.0,1023.0,1023.0,1024.0,1023.0,1023.0,1022.0,1023.0,1023.0,1023.0,1024.0,1024.0,1023.0,1023.0,1023.0,1023.0,1023.0,1023.0,1023.0,1023.0,1024.0,1024.0,1023.0,1022.0,1023.0,1023.0,1023.0,1023.0,1023.0,1024.0,1023.0,1023.0,1022.0,1022.0,1023.0,1023.0,1023.0,1023.0,1023.0,1024.0,1024.0,1023.0,1022.0,1022.0,1023.0,1022.0,1023.0,1022.0,1023.0,1024.0,1023.0,1022.0,1022.0,1023.0,1023.0,1022.0,1023.0,1023.0,1023.0,1024.0,1023.0,1022.0,1023.0,1022.0,1023.0,1023.0,1023.0,1024.0,1023.0,1024.0,1023.0,1024.0,1023.0,1022.0,1023.0,1023.0,1023.0,1024.0,1024.0,1025.0,1023.0,1024.0,1024.0,1023.0,1023.0,1023.0,1024.0,1024.0,1024.0,1025.0,1024.0,1024.0,1024.0,1023.0,1023.0,1023.0,1023.0,1023.0,1024.0,1024.0,1023.0,1023.0,1021.0,1022.0,1022.0,1024.0,1024.0,1024.0,1025.0,1024.0,1023.0,1023.0,1022.0,1023.0,1023.0,1024.0,1024.0,1023.0,1023.0,1023.0,1024.0,1024.0,1024.0,1026.0,1024.0,1024.0,1022.0,1023.0,1024.0,1024.0,1026.0,1024.0,1024.0,1023.0,1024.0,1024.0,1025.0,1026.0,1025.0,1023.0,1024.0,1024.0,1026.0,1029.0,1027.0,1024.0,1026.0,1027.0,1029.0,1032.0,1029.0,1024.0,1027.0,1028.0,1031.0,1035.0,1030.0,1025.0,1028.0,1032.0,1031.0,1041.0,1032.0,1025.0,1029.0,1032.0,1030.0,1041.0,1034.0,1026.0,1031.0,1034.0,1030.0,1042.0,1036.0,1029.0,1034.0,1035.0,1031.0,1042.0,1035.0,1027.0,1030.0,1032.0,1028.0,1038.0,1032.0,1030.0,1032.0,1033.0,1029.0,1038.0,1032.0,1022.0,1023.0,1023.0,1023.0,1025.0,1023.0,1033.0,1039.0,1036.0,1032.0,1043.0,1037.0,1029.0,1034.0,1033.0,1032.0,1041.0,1035.0,1026.0,1031.0,1029.0,1029.0,1034.0,1976,2028,1909,	00:32:02.218,0.0546875,0.04443359375,1.017578125,-0.244140625,0.244140625,0.0,2.548828125,-3.0596923828125,53.448486328125,461.0,-1598.0,-2568.0,0.892364501953125,0.0318603515625,-0.013824462890625,0.449981689453125,2.5490239224388533,-3.0577936369722774,48.84080616496405,0.9097418050143977,0.031273495472154855,-0.015095666607369815,0.41371963639616827,1,	00:32:02.219,0.0087890625,0.0732421875,1.00537109375,-0.9765625,-1.220703125,-0.48828125,4.15283203125,-0.50537109375,103.3154296875,-370.0,-1303.0,-1937.0,-0.61981201171875,-0.025970458984375,-0.02569580078125,-0.783905029296875,4.154189846313889,-0.5076353430333984,104.6720403443423,-0.6104949394837679,-0.0256505320906165,-0.025985869718037857,-0.791178054323536,1
1782117429.448713,0.062,1022.0,1023.0,1024.0,1022.0,1022.0,1023.0,1023.0,1024.0,1023.0,1022.0,1023.0,1023.0,1023.0,1024.0,1023.0,1023.0,1022.0,1023.0,1023.0,1023.0,1024.0,1024.0,1023.0,1023.0,1023.0,1024.0,1023.0,1023.0,1024.0,1023.0,1023.0,1023.0,1023.0,1023.0,1024.0,1023.0,1023.0,1024.0,1023.0,1023.0,1023.0,1022.0,1023.0,1023.0,1023.0,1024.0,1024.0,1023.0,1023.0,1023.0,1022.0,1024.0,1023.0,1023.0,1023.0,1024.0,1024.0,1024.0,1023.0,1022.0,1022.0,1023.0,1022.0,1023.0,1023.0,1023.0,1024.0,1023.0,1023.0,1022.0,1022.0,1023.0,1022.0,1023.0,1023.0,1023.0,1024.0,1023.0,1023.0,1022.0,1023.0,1023.0,1023.0,1024.0,1023.0,1023.0,1024.0,1023.0,1023.0,1022.0,1022.0,1023.0,1023.0,1023.0,1024.0,1024.0,1025.0,1024.0,1024.0,1025.0,1023.0,1023.0,1023.0,1024.0,1024.0,1024.0,1025.0,1024.0,1024.0,1023.0,1023.0,1023.0,1022.0,1023.0,1023.0,1023.0,1024.0,1023.0,1023.0,1021.0,1022.0,1023.0,1023.0,1023.0,1024.0,1024.0,1024.0,1023.0,1022.0,1023.0,1023.0,1023.0,1023.0,1025.0,1024.0,1023.0,1024.0,1024.0,1024.0,1024.0,1025.0,1025.0,1024.0,1022.0,1024.0,1024.0,1024.0,1026.0,1024.0,1024.0,1023.0,1024.0,1024.0,1025.0,1027.0,1026.0,1023.0,1024.0,1025.0,1026.0,1029.0,1027.0,1024.0,1025.0,1026.0,1029.0,1032.0,1030.0,1024.0,1027.0,1029.0,1030.0,1036.0,1030.0,1025.0,1028.0,1031.0,1030.0,1041.0,1033.0,1025.0,1029.0,1032.0,1030.0,1042.0,1034.0,1026.0,1031.0,1034.0,1030.0,1043.0,1036.0,1028.0,1033.0,1036.0,1030.0,1043.0,1035.0,1028.0,1031.0,1032.0,1028.0,1039.0,1033.0,1029.0,1031.0,1032.0,1028.0,1038.0,1032.0,1022.0,1022.0,1022.0,1023.0,1025.0,1023.0,1033.0,1039.0,1036.0,1031.0,1043.0,1037.0,1029.0,1035.0,1033.0,1031.0,1041.0,1035.0,1026.0,1031.0,1029.0,1029.0,1034.0,1975,2028,1908,	00:32:02.228,0.05419921875,0.0439453125,1.017578125,-0.244140625,0.244140625,0.1220703125,2.4554443359375,-3.043212890625,53.45947265625,460.0,-1593.0,-2572.0,0.892364501953125,0.03106689453125,-0.014068603515625,0.45001220703125,2.455906627505133,-3.041412231896765,48.84695605255542,0.9097494424797149,0.030476055800276,-0.0153000920746448,0.4137548418003272,1,	00:32:02.229,0.00927734375,0.07421875,1.00439453125,-0.9765625,-1.220703125,-0.54931640625,4.2352294921875,-0.5438232421875,103.3099365234375,-372.0,-1304.0,-1935.0,-0.619842529296875,-0.026641845703125,-0.026031494140625,-0.783843994140625,4.2325330387971585,-0.5440528008158866,104.66487242384902,-0.6105165675874398,-0.026320919902974162,-0.02633102985905245,-0.7911279332341097,1
1782117429.456483,0.070,1023.0,1023.0,1023.0,1023.0,1023.0,1022.0,1023.0,1024.0,1023.0,1022.0,1023.0,1023.0,1024.0,1024.0,1023.0,1023.0,1023.0,1023.0,1023.0,1023.0,1024.0,1023.0,1023.0,1023.0,1023.0,1023.0,1023.0,1023.0,1024.0,1023.0,1023.0,1022.0,1022.0,1023.0,1023.0,1023.0,1023.0,1024.0,1023.0,1023.0,1023.0,1023.0,1023.0,1023.0,1023.0,1023.0,1024.0,1023.0,1023.0,1022.0,1022.0,1023.0,1023.0,1023.0,1022.0,1023.0,1024.0,1023.0,1022.0,1022.0,1022.0,1023.0,1023.0,1023.0,1023.0,1022.0,1024.0,1023.0,1023.0,1022.0,1022.0,1024.0,1022.0,1023.0,1023.0,1023.0,1024.0,1023.0,1023.0,1022.0,1023.0,1023.0,1023.0,1024.0,1023.0,1023.0,1024.0,1024.0,1023.0,1023.0,1023.0,1023.0,1023.0,1024.0,1024.0,1024.0,1025.0,1024.0,1024.0,1024.0,1022.0,1024.0,1023.0,1024.0,1024.0,1024.0,1026.0,1024.0,1024.0,1023.0,1023.0,1023.0,1023.0,1023.0,1022.0,1023.0,1024.0,1023.0,1023.0,1021.0,1023.0,1023.0,1023.0,1024.0,1023.0,1025.0,1023.0,1023.0,1023.0,1022.0,1023.0,1023.0,1024.0,1025.0,1024.0,1023.0,1023.0,1024.0,1024.0,1025.0,1027.0,1024.0,1024.0,1023.0,1023.0,1024.0,1024.0,1026.0,1024.0,1024.0,1023.0,1024.0,1024.0,1024.0,1028.0,1025.0,1023.0,1024.0,1024.0,1026.0,1030.0,1027.0,1024.0,1026.0,1026.0,1029.0,1034.0,1030.0,1024.0,1027.0,1028.0,1030.0,1036.0,1031.0,1025.0,1028.0,1031.0,1030.0,1042.0,1033.0,1025.0,1029.0,1031.0,1030.0,1043.0,1034.0,1026.0,1031.0,1033.0,1030.0,1043.0,1036.0,1028.0,1034.0,1035.0,1029.0,1043.0,1035.0,1028.0,1031.0,1031.0,1028.0,1039.0,1032.0,1029.0,1033.0,1032.0,1028.0,1038.0,1032.0,1022.0,1023.0,1023.0,1023.0,1025.0,1022.0,1033.0,1040.0,1036.0,1031.0,1042.0,1037.0,1029.0,1035.0,1033.0,1031.0,1041.0,1035.0,1027.0,1030.0,1028.0,1029.0,1034.0,1975,2028,1908,	00:32:02.238,0.05419921875,0.0439453125,1.017578125,-0.244140625,0.244140625,0.06103515625,2.5433349609375,-3.065185546875,53.4539794921875,461.0,-1595.0,-2571.0,0.892364501953125,0.031829833984375,-0.013885498046875,0.449981689453125,2.541855809862221,-3.0630865450503246,48.842963388123195,0.9097344247226733,0.031235932836339516,-0.015163001245569378,0.4137362400945523,1,	00:32:02.239,0.00927734375,0.07275390625,1.0048828125,-0.9765625,-1.28173828125,-0.54931640625,4.130859375,-0.538330078125,103.304443359375,-373.0,-1304.0,-1933.0,-0.619903564453125,-0.02606201171875,-0.025360107421875,-0.783843994140625,4.132844017241364,-0.5402341522124794,104.65929869849016,-0.6105787626385121,-0.025764681500312463,-0.025661879044304576,-0.7911202334449084,1
1782117429.467540,0.081,1023.0,1023.0,1023.0,1023.0,1023.0,1023.0,1023.0,1024.0,1023.0,1023.0,1023.0,1023.0,1023.0,1024.0,1023.0,1023.0,1023.0,1023.0,1023.0,1023.0,1025.0,1023.0,1023.0,1022.0,1023.0,1023.0,1023.0,1023.0,1024.0,1023.0,1022.0,1023.0,1023.0,1022.0,1023.0,1023.0,1023.0,1024.0,1024.0,1023.0,1022.0,1023.0,1022.0,1023.0,1023.0,1023.0,1024.0,1023.0,1023.0,1022.0,1023.0,1023.0,1023.0,1023.0,1023.0,1023.0,1024.0,1023.0,1023.0,1022.0,1022.0,1023.0,1023.0,1023.0,1022.0,1023.0,1024.0,1023.0,1022.0,1022.0,1022.0,1023.0,1023.0,1023.0,1023.0,1023.0,1024.0,1023.0,1023.0,1022.0,1022.0,1023.0,1023.0,1022.0,1023.0,1023.0,1024.0,1024.0,1023.0,1023.0,1023.0,1023.0,1023.0,1024.0,1024.0,1023.0,1025.0,1024.0,1024.0,1024.0,1022.0,1024.0,1023.0,1024.0,1024.0,1024.0,1026.0,1024.0,1024.0,1024.0,1022.0,1023.0,1022.0,1024.0,1022.0,1023.0,1024.0,1023.0,1023.0,1021.0,1022.0,1023.0,1023.0,1023.0,1023.0,1025.0,1023.0,1023.0,1023.0,1023.0,1023.0,1023.0,1023.0,1025.0,1023.0,1023.0,1023.0,1023.0,1024.0,1024.0,1026.0,1024.0,1024.0,1023.0,1023.0,1024.0,1024.0,1027.0,1024.0,1024.0,1023.0,1024.0,1024.0,1024.0,1028.0,1025.0,1023.0,1024.0,1024.0,1026.0,1030.0,1027.0,1023.0,1026.0,1026.0,1029.0,1034.0,1029.0,1025.0,1027.0,1028.0,1029.0,1037.0,1031.0,1024.0,1028.0,1031.0,1030.0,1042.0,1032.0,1025.0,1029.0,1032.0,1029.0,1043.0,1034.0,1026.0,1031.0,1033.0,1030.0,1043.0,1036.0,1029.0,1034.0,1035.0,1030.0,1044.0,1035.0,1028.0,1031.0,1031.0,1028.0,1039.0,1033.0,1029.0,1032.0,1032.0,1028.0,1038.0,1032.0,1022.0,1023.0,1023.0,1023.0,1025.0,1022.0,1032.0,1039.0,1036.0,1031.0,1043.0,1037.0,1028.0,1034.0,1033.0,1032.0,1041.0,1035.0,1026.0,1030.0,1028.0,1029.0,1034.0,1975,2028,1909,	00:32:02.248,0.0556640625,0.0439453125,1.01806640625,-0.244140625,0.18310546875,0.06103515625,2.471923828125,-3.1256103515625,53.45947265625,460.0,-1595.0,-2568.0,0.892333984375,0.031494140625,-0.0146484375,0.45001220703125,2.471394518911394,-3.122893046047125,48.84732475425861,0.9097202382426705,0.030892520769797056,-0.015891281407973665,0.41376588485204896,1,	00:32:02.250,0.00927734375,0.0732421875,1.0048828125,-0.91552734375,-1.3427734375,-0.54931640625,4.207763671875,-0.5218505859375,103.2989501953125,-370.0,-1303.0,-1934.0,-0.61993408203125,-0.0263671875,-0.025970458984375,-0.783782958984375,4.209997418132347,-0.522732962771542,104.65205071911905,-0.6106161863356232,-0.026056644649900696,-0.026286169395076053,-0.791061288114304,1
1782117429.477600,0.091,1022.0,1023.0,1023.0,1022.0,1023.0,1023.0,1023.0,1024.0,1022.0,1023.0,1023.0,1023.0,1023.0,1024.0,1024.0,1022.0,1022.0,1023.0,1023.0,1024.0,1024.0,1023.0,1023.0,1023.0,1023.0,1023.0,1023.0,1023.0,1024.0,1023.0,1022.0,1023.0,1022.0,1022.0,1023.0,1024.0,1023.0,1025.0,1024.0,1023.0,1023.0,1023.0,1023.0,1023.0,1023.0,1023.0,1024.0,1023.0,1023.0,1023.0,1022.0,1023.0,1022.0,1023.0,1023.0,1023.0,1024.0,1023.0,1023.0,1023.0,1022.0,1023.0,1023.0,1023.0,1022.0,1023.0,1024.0,1023.0,1023.0,1022.0,1022.0,1023.0,1023.0,1023.0,1023.0,1023.0,1024.0,1023.0,1022.0,1022.0,1022.0,1024.0,1023.0,1024.0,1023.0,1023.0,1024.0,1023.0,1023.0,1023.0,1023.0,1023.0,1023.0,1023.0,1024.0,1024.0,1026.0,1024.0,1023.0,1024.0,1023.0,1023.0,1022.0,1024.0,1023.0,1024.0,1025.0,1024.0,1024.0,1023.0,1023.0,1023.0,1022.0,1023.0,1022.0,1024.0,1025.0,1024.0,1023.0,1021.0,1022.0,1023.0,1023.0,1024.0,1024.0,1024.0,1023.0,1023.0,1023.0,1023.0,1023.0,1023.0,1024.0,1025.0,1024.0,1023.0,1023.0,1024.0,1024.0,1024.0,1026.0,1024.0,1024.0,1023.0,1023.0,1023.0,1024.0,1026.0,1024.0,1024.0,1024.0,1024.0,1024.0,1025.0,1028.0,1025.0,1024.0,1024.0,1024.0,1026.0,1030.0,1027.0,1024.0,1026.0,1026.0,1029.0,1033.0,1029.0,1024.0,1026.0,1028.0,1030.0,1037.0,1030.0,1024.0,1028.0,1031.0,1031.0,1041.0,1033.0,1025.0,1029.0,1031.0,1029.0,1042.0,1034.0,1027.0,1031.0,1033.0,1030.0,1042.0,1036.0,1028.0,1033.0,1036.0,1030.0,1043.0,1037.0,1027.0,1031.0,1031.0,1028.0,1038.0,1033.0,1029.0,1032.0,1033.0,1028.0,1037.0,1032.0,1022.0,1023.0,1022.0,1023.0,1024.0,1022.0,1032.0,1039.0,1036.0,1031.0,1042.0,1037.0,1028.0,1035.0,1033.0,1031.0,1040.0,1035.0,1026.0,1031.0,1029.0,1029.0,1034.0,1975,2028,1909,	00:32:02.259,0.05419921875,0.0439453125,1.01806640625,-0.244140625,0.18310546875,0.06103515625,2.471923828125,-3.0322265625,53.45947265625,463.0,-1596.0,-2571.0,0.892364501953125,0.0311279296875,-0.013916015625,0.45001220703125,2.4692319570319463,-3.029548020822629,48.847995545745555,0.9097455574332107,0.030539253150893567,-0.01515746190561102,0.41376397389828723,1,	00:32:02.260,0.0087890625,0.0732421875,1.00439453125,-0.91552734375,-1.3427734375,-0.54931640625,4.119873046875,-0.4888916015625,103.29345703125,-371.0,-1303.0,-1938.0,-0.6199951171875,-0.025665283203125,-0.025543212890625,-0.78375244140625,4.121707718348038,-0.4899517619596572,104.64628324078022,-0.6106848101123339,-0.025361226513150658,-0.025850151752621363,-0.7910452834965757,1
1782117429.487514,0.101,1023.0,1023.0,1023.0,1023.0,1023.0,1023.0,1023.0,1024.0,1023.0,1023.0,1023.0,1023.0,1023.0,1024.0,1023.0,1023.0,1023.0,1023.0,1023.0,1023.0,1024.0,1023.0,1023.0,1022.0,1023.0,1023.0,1023.0,1024.0,1024.0,1023.0,1023.0,1023.0,1023.0,1022.0,1023.0,1023.0,1023.0,1024.0,1023.0,1023.0,1023.0,1023.0,1023.0,1023.0,1024.0,1023.0,1025.0,1023.0,1022.0,1022.0,1022.0,1023.0,1023.0,1024.0,1023.0,1023.0,1024.0,1023.0,1023.0,1022.0,1022.0,1023.0,1022.0,1023.0,1023.0,1023.0,1024.0,1023.0,1023.0,1022.0,1023.0,1023.0,1023.0,1023.0,1022.0,1023.0,1024.0,1023.0,1023.0,1022.0,1022.0,1023.0,1023.0,1024.0,1024.0,1023.0,1024.0,1024.0,1023.0,1023.0,1023.0,1024.0,1023.0,1024.0,1024.0,1024.0,1025.0,1024.0,1024.0,1025.0,1023.0,1023.0,1023.0,1024.0,1023.0,1024.0,1025.0,1024.0,1024.0,1024.0,1023.0,1023.0,1022.0,1023.0,1023.0,1023.0,1025.0,1023.0,1022.0,1021.0,1022.0,1023.0,1023.0,1023.0,1024.0,1025.0,1023.0,1023.0,1023.0,1022.0,1023.0,1023.0,1023.0,1025.0,1024.0,1023.0,1024.0,1024.0,1024.0,1024.0,1026.0,1024.0,1024.0,1023.0,1024.0,1024.0,1024.0,1026.0,1024.0,1024.0,1024.0,1023.0,1024.0,1024.0,1027.0,1025.0,1023.0,1024.0,1024.0,1026.0,1029.0,1026.0,1024.0,1026.0,1026.0,1029.0,1033.0,1029.0,1024.0,1027.0,1028.0,1029.0,1036.0,1030.0,1025.0,1028.0,1031.0,1031.0,1041.0,1033.0,1025.0,1029.0,1031.0,1030.0,1042.0,1034.0,1026.0,1031.0,1034.0,1031.0,1043.0,1037.0,1028.0,1033.0,1035.0,1030.0,1044.0,1037.0,1027.0,1031.0,1032.0,1028.0,1039.0,1034.0,1029.0,1032.0,1033.0,1029.0,1037.0,1033.0,1022.0,1023.0,1022.0,1023.0,1024.0,1023.0,1032.0,1039.0,1036.0,1031.0,1044.0,1037.0,1028.0,1035.0,1033.0,1032.0,1041.0,1035.0,1026.0,1031.0,1029.0,1029.0,1034.0,1976,2028,1909,	00:32:02.269,0.05517578125,0.0439453125,1.0185546875,-0.244140625,0.18310546875,0.06103515625,2.4664306640625,-3.1201171875,53.45947265625,461.0,-1597.0,-2572.0,0.892333984375,0.031463623046875,-0.014617919921875,0.450042724609375,2.4684279089357903,-3.119267778133929,48.848597324044775,0.9097175086060385,0.030856089425657606,-0.015872854849985168,0.4137753119265204,1,	00:32:02.270,0.00830078125,0.0732421875,1.00537109375,-0.91552734375,-1.28173828125,-0.54931640625,4.19677734375,-0.4669189453125,103.282470703125,-371.0,-1304.0,-1937.0,-0.620025634765625,-0.02593994140625,-0.02618408203125,-0.783721923828125,4.197444683690444,-0.4680958306230536,104.63917210945235,-0.6107230168111959,-0.0256156485364245,-0.026487900694882504,-0.7909864893940151,1
1782117429.497653,0.111,1023.0,1023.0,1024.0,1023.0,1022.0,1023.0,1023.0,1024.0,1023.0,1023.0,1023.0,1023.0,1023.0,1024.0,1023.0,1023.0,1023.0,1023.0,1023.0,1023.0,1024.0,1024.0,1023.0,1022.0,1023.0,1023.0,1023.0,1023.0,1024.0,1023.0,1023.0,1023.0,1022.0,1023.0,1023.0,1023.0,1023.0,1024.0,1024.0,1023.0,1023.0,1022.0,1023.0,1023.0,1023.0,1023.0,1024.0,1023.0,1024.0,1023.0,1022.0,1023.0,1023.0,1023.0,1023.0,1024.0,1024.0,1023.0,1023.0,1023.0,1022.0,1023.0,1023.0,1023.0,1023.0,1023.0,1024.0,1023.0,1023.0,1021.0,1022.0,1023.0,1023.0,1023.0,1023.0,1023.0,1024.0,1023.0,1023.0,1022.0,1022.0,1023.0,1022.0,1023.0,1023.0,1023.0,1024.0,1024.0,1023.0,1023.0,1023.0,1023.0,1023.0,1024.0,1024.0,1024.0,1025.0,1024.0,1024.0,1024.0,1023.0,1024.0,1023.0,1024.0,1024.0,1024.0,1025.0,1024.0,1024.0,1023.0,1022.0,1024.0,1022.0,1022.0,1023.0,1023.0,1024.0,1023.0,1022.0,1021.0,1022.0,1023.0,1023.0,1024.0,1024.0,1025.0,1024.0,1023.0,1023.0,1022.0,1024.0,1023.0,1024.0,1024.0,1023.0,1023.0,1023.0,1024.0,1024.0,1024.0,1026.0,1024.0,1025.0,1023.0,1023.0,1024.0,1024.0,1026.0,1024.0,1024.0,1023.0,1023.0,1024.0,1025.0,1027.0,1026.0,1023.0,1024.0,1024.0,1027.0,1029.0,1027.0,1024.0,1026.0,1027.0,1029.0,1033.0,1029.0,1024.0,1027.0,1028.0,1030.0,1035.0,1030.0,1024.0,1028.0,1031.0,1031.0,1041.0,1032.0,1024.0,1028.0,1031.0,1030.0,1042.0,1034.0,1026.0,1031.0,1033.0,1031.0,1042.0,1037.0,1028.0,1033.0,1036.0,1031.0,1043.0,1037.0,1027.0,1031.0,1032.0,1029.0,1039.0,1034.0,1029.0,1032.0,1033.0,1028.0,1037.0,1033.0,1022.0,1023.0,1023.0,1023.0,1024.0,1022.0,1032.0,1038.0,1037.0,1032.0,1042.0,1037.0,1028.0,1034.0,1033.0,1032.0,1040.0,1036.0,1026.0,1030.0,1029.0,1030.0,1034.0,1975,2028,1909,	00:32:02.279,0.0546875,0.0439453125,1.0185546875,-0.244140625,0.244140625,0.06103515625,2.471923828125,-3.0267333984375,53.45947265625,460.0,-1595.0,-2571.0,0.892364501953125,0.031097412109375,-0.013885498046875,0.45001220703125,2.469797998436684,-3.025384637060871,48.8491049428174,0.9097425980843198,0.030528898012800985,-0.015122052159225997,0.41377254035932537,1,	00:32:02.280,0.009765625,0.0732421875,1.00537109375,-0.91552734375,-1.3427734375,-0.54931640625,4.1583251953125,-0.5657958984375,103.2769775390625,-369.0,-1302.0,-1939.0,-0.62005615234375,-0.026397705078125,-0.025360107421875,-0.78369140625,4.157782045546644,-0.5675035950394732,104.63299462463077,-0.6107471881696988,-0.026091666052782875,-0.02568269395958314,-0.790978821673738,1
1782117429.507935,0.121,1022.0,1024.0,1024.0,1023.0,1023.0,1023.0,1023.0,1024.0,1023.0,1023.0,1024.0,1023.0,1023.0,1024.0,1023.0,1023.0,1022.0,1023.0,1023.0,1023.0,1024.0,1023.0,1023.0,1022.0,1023.0,1023.0,1024.0,1023.0,1025.0,1023.0,1022.0,1022.0,1023.0,1023.0,1023.0,1023.0,1023.0,1024.0,1023.0,1023.0,1023.0,1022.0,1023.0,1023.0,1023.0,1023.0,1024.0,1023.0,1023.0,1022.0,1023.0,1023.0,1023.0,1023.0,1023.0,1023.0,1024.0,1023.0,1023.0,1022.0,1023.0,1023.0,1022.0,1023.0,1022.0,1024.0,1024.0,1023.0,1023.0,1022.0,1022.0,1023.0,1023.0,1024.0,1023.0,1023.0,1024.0,1024.0,1023.0,1023.0,1023.0,1023.0,1023.0,1023.0,1024.0,1023.0,1025.0,1024.0,1023.0,1023.0,1023.0,1023.0,1023.0,1024.0,1024.0,1024.0,1024.0,1024.0,1024.0,1024.0,1023.0,1023.0,1022.0,1024.0,1024.0,1024.0,1025.0,1024.0,1024.0,1024.0,1023.0,1024.0,1022.0,1023.0,1022.0,1023.0,1024.0,1023.0,1022.0,1021.0,1022.0,1023.0,1023.0,1023.0,1024.0,1024.0,1024.0,1023.0,1022.0,1023.0,1023.0,1023.0,1024.0,1024.0,1024.0,1024.0,1024.0,1024.0,1024.0,1024.0,1026.0,1025.0,1024.0,1023.0,1023.0,1024.0,1024.0,1025.0,1024.0,1024.0,1023.0,1024.0,1024.0,1024.0,1027.0,1025.0,1024.0,1024.0,1024.0,1026.0,1029.0,1027.0,1024.0,1026.0,1026.0,1029.0,1033.0,1029.0,1024.0,1026.0,1028.0,1031.0,1036.0,1031.0,1025.0,1028.0,1031.0,1031.0,1041.0,1033.0,1026.0,1029.0,1031.0,1030.0,1042.0,1034.0,1026.0,1031.0,1034.0,1031.0,1042.0,1036.0,1028.0,1033.0,1036.0,1030.0,1042.0,1036.0,1027.0,1031.0,1032.0,1028.0,1038.0,1034.0,1029.0,1032.0,1033.0,1029.0,1038.0,1033.0,1022.0,1022.0,1022.0,1023.0,1025.0,1022.0,1033.0,1039.0,1036.0,1031.0,1042.0,1037.0,1029.0,1035.0,1033.0,1031.0,1040.0,1035.0,1026.0,1031.0,1029.0,1029.0,1034.0,1975,2028,1909,	00:32:02.289,0.05517578125,0.0439453125,1.017578125,-0.18310546875,0.18310546875,0.06103515625,2.471923828125,-3.1146240234375,53.45947265625,462.0,-1594.0,-2572.0,0.892333984375,0.031463623046875,-0.01458740234375,0.450042724609375,2.471630255493974,-3.1150408525249205,48.849597871798444,0.9097142751883662,0.030866426855774332,-0.01582744754664832,0.41378338912506024,1,	00:32:02.290,0.01025390625,0.07275390625,1.005859375,-0.91552734375,-1.3427734375,-0.54931640625,4.075927734375,-0.6317138671875,103.271484375,-371.0,-1306.0,-1934.0,-0.620086669921875,-0.026397705078125,-0.024444580078125,-0.78369140625,4.074528164720138,-0.6341801347564586,104.62732476262401,-0.6107868870731633,-0.026109281573596526,-0.02475117956127021,-0.7909772835584542,1
1782117429.517993,0.131,1023.0,1023.0,1023.0,1023.0,1023.0,1023.0,1023.0,1024.0,1023.0,1023.0,1023.0,1023.0,1023.0,1024.0,1023.0,1023.0,1023.0,1023.0,1023.0,1024.0,1024.0,1023.0,1023.0,1022.0,1023.0,1023.0,1023.0,1023.0,1024.0,1024.0,1023.0,1022.0,1022.0,1023.0,1023.0,1023.0,1023.0,1024.0,1023.0,1023.0,1022.0,1023.0,1023.0,1023.0,1022.0,1023.0,1024.0,1023.0,1023.0,1022.0,1022.0,1023.0,1023.0,1023.0,1023.0,1023.0,1024.0,1023.0,1023.0,1022.0,1022.0,1024.0,1022.0,1023.0,1023.0,1024.0,1024.0,1023.0,1022.0,1022.0,1023.0,1023.0,1022.0,1023.0,1023.0,1023.0,1024.0,1023.0,1023.0,1022.0,1022.0,1023.0,1023.0,1023.0,1023.0,1023.0,1024.0,1023.0,1023.0,1023.0,1023.0,1023.0,1023.0,1023.0,1024.0,1024.0,1025.0,1024.0,1023.0,1024.0,1023.0,1023.0,1023.0,1024.0,1024.0,1024.0,1026.0,1024.0,1023.0,1023.0,1022.0,1023.0,1022.0,1023.0,1022.0,1023.0,1024.0,1023.0,1022.0,1021.0,1022.0,1023.0,1023.0,1023.0,1024.0,1025.0,1024.0,1023.0,1023.0,1023.0,1023.0,1023.0,1023.0,1025.0,1024.0,1023.0,1023.0,1024.0,1024.0,1024.0,1026.0,1024.0,1024.0,1024.0,1023.0,1024.0,1025.0,1026.0,1024.0,1024.0,1023.0,1024.0,1024.0,1024.0,1027.0,1025.0,1023.0,1025.0,1024.0,1026.0,1029.0,1027.0,1024.0,1026.0,1026.0,1029.0,1033.0,1029.0,1024.0,1026.0,1029.0,1030.0,1035.0,1031.0,1024.0,1028.0,1031.0,1031.0,1040.0,1033.0,1025.0,1029.0,1032.0,1030.0,1041.0,1034.0,1026.0,1031.0,1033.0,1031.0,1042.0,1036.0,1027.0,1033.0,1035.0,1031.0,1042.0,1037.0,1027.0,1030.0,1032.0,1028.0,1038.0,1033.0,1030.0,1032.0,1032.0,1029.0,1038.0,1033.0,1022.0,1022.0,1023.0,1023.0,1024.0,1022.0,1033.0,1040.0,1036.0,1032.0,1042.0,1037.0,1029.0,1035.0,1032.0,1032.0,1040.0,1036.0,1026.0,1031.0,1028.0,1029.0,1034.0,1975,2028,1909,	00:32:02.300,0.05419921875,0.04345703125,1.017578125,-0.244140625,0.18310546875,0.06103515625,2.43896484375,-3.0267333984375,53.45947265625,461.0,-1594.0,-2568.0,0.892364501953125,0.030853271484375,-0.0140380859375,0.450042724609375,2.436627476452733,-3.0277182368469986,48.852028412612164,0.9097401721679067,0.03027435057661701,-0.015259588915069882,0.41379152696401916,1,	00:32:02.301,0.0087890625,0.0732421875,1.00537109375,-0.9765625,-1.3427734375,-0.48828125,4.1143798828125,-0.5712890625,103.2659912109375,-371.0,-1303.0,-1935.0,-0.620147705078125,-0.026214599609375,-0.025054931640625,-0.78363037109375,4.116582726158933,-0.5716148032035018,104.62095009928719,-0.6108385368927741,-0.02590311891360987,-0.025373665439751624,-0.7909244511199498,1
1782117429.529067,0.142,1022.0,1023.0,1024.0,1023.0,1023.0,1023.0,1023.0,1024.0,1022.0,1023.0,1023.0,1023.0,1023.0,1024.0,1023.0,1024.0,1023.0,1023.0,1023.0,1023.0,1024.0,1023.0,1023.0,1023.0,1023.0,1023.0,1023.0,1024.0,1024.0,1023.0,1024.0,1023.0,1023.0,1023.0,1023.0,1023.0,1024.0,1024.0,1023.0,1023.0,1023.0,1023.0,1022.0,1023.0,1023.0,1024.0,1024.0,1024.0,1023.0,1022.0,1023.0,1023.0,1023.0,1023.0,1023.0,1024.0,1024.0,1023.0,1023.0,1023.0,1022.0,1023.0,1023.0,1023.0,1023.0,1024.0,1024.0,1023.0,1023.0,1022.0,1022.0,1023.0,1023.0,1023.0,1022.0,1023.0,1024.0,1023.0,1023.0,1022.0,1022.0,1023.0,1022.0,1023.0,1023.0,1023.0,1024.0,1024.0,1023.0,1023.0,1022.0,1023.0,1023.0,1024.0,1024.0,1024.0,1025.0,1024.0,1023.0,1024.0,1022.0,1023.0,1023.0,1024.0,1024.0,1024.0,1025.0,1024.0,1024.0,1024.0,1023.0,1024.0,1022.0,1023.0,1022.0,1023.0,1024.0,1023.0,1023.0,1021.0,1022.0,1023.0,1023.0,1023.0,1023.0,1024.0,1024.0,1023.0,1023.0,1022.0,1023.0,1022.0,1023.0,1025.0,1023.0,1023.0,1023.0,1024.0,1024.0,1024.0,1026.0,1024.0,1024.0,1023.0,1024.0,1024.0,1024.0,1025.0,1024.0,1024.0,1023.0,1024.0,1024.0,1025.0,1027.0,1026.0,1023.0,1024.0,1025.0,1026.0,1029.0,1028.0,1024.0,1025.0,1026.0,1029.0,1032.0,1030.0,1024.0,1026.0,1028.0,1030.0,1035.0,1031.0,1025.0,1028.0,1031.0,1031.0,1041.0,1032.0,1026.0,1030.0,1031.0,1030.0,1041.0,1034.0,1027.0,1031.0,1033.0,1030.0,1041.0,1037.0,1028.0,1033.0,1035.0,1030.0,1042.0,1037.0,1027.0,1031.0,1032.0,1028.0,1038.0,1033.0,1029.0,1032.0,1032.0,1029.0,1038.0,1034.0,1022.0,1022.0,1023.0,1023.0,1025.0,1022.0,1033.0,1039.0,1036.0,1031.0,1042.0,1038.0,1029.0,1035.0,1034.0,1031.0,1041.0,1036.0,1026.0,1030.0,1029.0,1029.0,1033.0,1975,2028,1908,	00:32:02.310,0.0537109375,0.04345703125,1.01806640625,-0.18310546875,0.18310546875,0.06103515625,2.4884033203125,-2.9498291015625,53.45947265625,460.0,-1596.0,-2569.0,0.892364501953125,0.030975341796875,-0.01324462890625,0.450042724609375,2.4886920756509987,-2.951747205615507,48.84990285807425,0.9097556934047821,0.030413767919108804,-0.01446870438139097,0.41377558849220514,1,	00:32:02.311,0.00927734375,0.0732421875,1.0048828125,-0.91552734375,-1.28173828125,-0.54931640625,4.1748046875,-0.52734375,103.260498046875,-370.0,-1304.0,-1936.0,-0.620208740234375,-0.026214599609375,-0.025726318359375,-0.783599853515625,4.177418011727935,-0.5248900755246084,104.61387811739195,-0.610886460298289,-0.025906603710108722,-0.02604113443918524,-0.7908656269086138,1
1782117429.538584,0.152,1023.0,1023.0,1023.0,1022.0,1023.0,1022.0,1022.0,1024.0,1023.0,1023.0,1023.0,1024.0,1023.0,1024.0,1023.0,1023.0,1022.0,1023.0,1023.0,1023.0,1024.0,1023.0,1023.0,1022.0,1023.0,1023.0,1023.0,1023.0,1024.0,1024.0,1024.0,1023.0,1023.0,1023.0,1023.0,1023.0,1023.0,1024.0,1023.0,1023.0,1023.0,1022.0,1023.0,1023.0,1023.0,1024.0,1024.0,1024.0,1023.0,1022.0,1022.0,1023.0,1023.0,1023.0,1023.0,1023.0,1024.0,1023.0,1023.0,1023.0,1022.0,1023.0,1022.0,1023.0,1022.0,1023.0,1024.0,1023.0,1023.0,1022.0,1022.0,1024.0,1023.0,1023.0,1023.0,1023.0,1024.0,1023.0,1023.0,1022.0,1022.0,1023.0,1023.0,1023.0,1024.0,1022.0,1024.0,1023.0,1023.0,1023.0,1022.0,1023.0,1022.0,1024.0,1024.0,1024.0,1025.0,1024.0,1024.0,1024.0,1023.0,1023.0,1023.0,1024.0,1024.0,1024.0,1025.0,1024.0,1024.0,1024.0,1022.0,1024.0,1022.0,1023.0,1022.0,1023.0,1024.0,1023.0,1023.0,1021.0,1022.0,1023.0,1023.0,1023.0,1023.0,1024.0,1024.0,1023.0,1023.0,1023.0,1023.0,1023.0,1023.0,1024.0,1024.0,1023.0,1023.0,1024.0,1024.0,1024.0,1025.0,1025.0,1024.0,1023.0,1024.0,1023.0,1024.0,1026.0,1024.0,1024.0,1023.0,1024.0,1024.0,1025.0,1027.0,1025.0,1023.0,1024.0,1024.0,1026.0,1028.0,1027.0,1024.0,1025.0,1027.0,1030.0,1032.0,1030.0,1024.0,1027.0,1028.0,1029.0,1035.0,1031.0,1024.0,1028.0,1031.0,1031.0,1040.0,1033.0,1025.0,1029.0,1031.0,1030.0,1041.0,1034.0,1027.0,1031.0,1033.0,1031.0,1041.0,1036.0,1028.0,1033.0,1035.0,1031.0,1042.0,1036.0,1028.0,1031.0,1031.0,1028.0,1038.0,1034.0,1030.0,1032.0,1033.0,1029.0,1037.0,1032.0,1022.0,1022.0,1022.0,1023.0,1024.0,1022.0,1033.0,1039.0,1037.0,1032.0,1042.0,1038.0,1029.0,1035.0,1032.0,1031.0,1040.0,1036.0,1026.0,1031.0,1028.0,1029.0,1033.0,1975,2028,1909,	00:32:02.320,0.0537109375,0.04345703125,1.01708984375,-0.18310546875,0.244140625,0.06103515625,2.43896484375,-3.0267333984375,53.4649658203125,460.0,-1594.0,-2571.0,0.892364501953125,0.0308837890625,-0.014007568359375,0.450042724609375,2.4387520293694944,-3.027407139107148,48.85312798356725,0.9097357292767663,0.030290243082370803,-0.015249155414648755,0.4138005163244978,1,	00:32:02.321,0.00927734375,0.07373046875,1.00439453125,-0.91552734375,-1.28173828125,-0.48828125,4.2572021484375,-0.54931640625,103.24951171875,-370.0,-1304.0,-1933.0,-0.620208740234375,-0.026824951171875,-0.026153564453125,-0.783538818359375,4.258884187941209,-0.5498190310595932,104.6072272827995,-0.6109067681622392,-0.026514428605793693,-0.02646888510618373,-0.7908155940612904,1
1782117429.552160,0.165,1023.0,1023.0,1024.0,1022.0,1022.0,1023.0,1023.0,1024.0,1022.0,1022.0,1023.0,1023.0,1024.0,1024.0,1022.0,1022.0,1022.0,1023.0,1023.0,1023.0,1024.0,1023.0,1023.0,1022.0,1023.0,1023.0,1023.0,1023.0,1024.0,1024.0,1023.0,1022.0,1023.0,1022.0,1023.0,1023.0,1023.0,1024.0,1023.0,1023.0,1023.0,1022.0,1023.0,1023.0,1022.0,1024.0,1024.0,1024.0,1023.0,1022.0,1022.0,1023.0,1023.0,1023.0,1023.0,1023.0,1024.0,1023.0,1023.0,1022.0,1022.0,1024.0,1022.0,1023.0,1023.0,1023.0,1024.0,1023.0,1023.0,1021.0,1022.0,1023.0,1023.0,1023.0,1022.0,1023.0,1024.0,1023.0,1023.0,1023.0,1022.0,1023.0,1023.0,1023.0,1023.0,1023.0,1024.0,1023.0,1024.0,1023.0,1023.0,1023.0,1023.0,1024.0,1024.0,1024.0,1024.0,1024.0,1024.0,1024.0,1023.0,1023.0,1023.0,1024.0,1024.0,1024.0,1025.0,1024.0,1024.0,1023.0,1023.0,1024.0,1022.0,1023.0,1023.0,1023.0,1024.0,1023.0,1023.0,1021.0,1022.0,1023.0,1023.0,1023.0,1024.0,1024.0,1024.0,1023.0,1023.0,1023.0,1023.0,1022.0,1023.0,1025.0,1023.0,1023.0,1023.0,1024.0,1024.0,1024.0,1026.0,1024.0,1024.0,1023.0,1023.0,1023.0,1024.0,1026.0,1025.0,1024.0,1023.0,1023.0,1024.0,1024.0,1027.0,1026.0,1024.0,1024.0,1025.0,1026.0,1029.0,1027.0,1024.0,1026.0,1026.0,1029.0,1033.0,1030.0,1024.0,1027.0,1027.0,1030.0,1035.0,1031.0,1025.0,1028.0,1031.0,1031.0,1040.0,1033.0,1025.0,1029.0,1032.0,1030.0,1041.0,1034.0,1027.0,1031.0,1033.0,1030.0,1042.0,1037.0,1028.0,1033.0,1035.0,1030.0,1042.0,1036.0,1027.0,1031.0,1032.0,1028.0,1039.0,1034.0,1030.0,1032.0,1033.0,1029.0,1038.0,1033.0,1023.0,1022.0,1023.0,1022.0,1025.0,1023.0,1033.0,1039.0,1036.0,1032.0,1042.0,1038.0,1029.0,1035.0,1033.0,1032.0,1040.0,1036.0,1027.0,1031.0,1028.0,1029.0,1034.0,1975,2028,1909,	00:32:02.330,0.05419921875,0.04345703125,1.017578125,-0.244140625,0.244140625,0.1220703125,2.4664306640625,-3.109130859375,53.4649658203125,462.0,-1596.0,-2570.0,0.892333984375,0.03143310546875,-0.014556884765625,0.4500732421875,2.4669419454322856,-3.111211688969124,48.85281121926594,0.9097050573336845,0.03081585964885801,-0.01581309761115494,0.41380797164815497,1,	00:32:02.331,0.0087890625,0.07373046875,1.00537109375,-0.9765625,-1.3427734375,-0.48828125,4.1748046875,-0.50537109375,103.2440185546875,-371.0,-1305.0,-1937.0,-0.620269775390625,-0.026092529296875,-0.02581787109375,-0.78350830078125,4.177012224068797,-0.5066071922353337,104.60202179212293,-0.610973415818661,-0.02578099548590754,-0.026133174238750344,-0.7907995211422679,1
1782117429.559724,0.173,1022.0,1023.0,1023.0,1022.0,1022.0,1022.0,1023.0,1024.0,1023.0,1023.0,1023.0,1023.0,1023.0,1024.0,1023.0,1023.0,1022.0,1023.0,1023.0,1023.0,1024.0,1024.0,1023.0,1023.0,1023.0,1023.0,1024.0,1023.0,1024.0,1024.0,1024.0,1023.0,1022.0,1023.0,1022.0,1023.0,1023.0,1024.0,1023.0,1023.0,1023.0,1022.0,1023.0,1023.0,1023.0,1023.0,1025.0,1023.0,1023.0,1022.0,1022.0,1023.0,1023.0,1023.0,1023.0,1023.0,1024.0,1023.0,1023.0,1022.0,1022.0,1023.0,1022.0,1024.0,1023.0,1023.0,1024.0,1023.0,1023.0,1022.0,1022.0,1023.0,1023.0,1023.0,1023.0,1023.0,1024.0,1023.0,1023.0,1023.0,1023.0,1023.0,1022.0,1023.0,1024.0,1023.0,1024.0,1023.0,1024.0,1023.0,1023.0,1024.0,1023.0,1023.0,1024.0,1024.0,1024.0,1023.0,1024.0,1024.0,1022.0,1023.0,1023.0,1023.0,1024.0,1024.0,1025.0,1024.0,1024.0,1024.0,1023.0,1024.0,1022.0,1023.0,1022.0,1023.0,1024.0,1023.0,1023.0,1021.0,1022.0,1023.0,1023.0,1023.0,1024.0,1025.0,1024.0,1023.0,1023.0,1023.0,1023.0,1023.0,1024.0,1024.0,1023.0,1023.0,1023.0,1024.0,1024.0,1024.0,1026.0,1024.0,1024.0,1023.0,1024.0,1024.0,1024.0,1025.0,1024.0,1024.0,1023.0,1024.0,1024.0,1025.0,1026.0,1026.0,1023.0,1024.0,1024.0,1026.0,1029.0,1027.0,1024.0,1026.0,1026.0,1029.0,1032.0,1030.0,1024.0,1027.0,1028.0,1030.0,1035.0,1031.0,1025.0,1028.0,1031.0,1031.0,1041.0,1033.0,1025.0,1029.0,1031.0,1029.0,1041.0,1034.0,1026.0,1032.0,1034.0,1031.0,1042.0,1036.0,1029.0,1033.0,1035.0,1031.0,1043.0,1036.0,1027.0,1031.0,1032.0,1028.0,1038.0,1033.0,1029.0,1032.0,1033.0,1029.0,1038.0,1033.0,1022.0,1023.0,1023.0,1023.0,1025.0,1022.0,1032.0,1040.0,1036.0,1032.0,1043.0,1038.0,1029.0,1035.0,1033.0,1032.0,1041.0,1035.0,1026.0,1031.0,1028.0,1030.0,1034.0,1975,2028,1909,	00:32:02.340,0.0546875,0.04345703125,1.017578125,-0.244140625,0.18310546875,0.06103515625,2.4169921875,-3.0322265625,53.4649658203125,461.0,-1596.0,-2570.0,0.892364501953125,0.030731201171875,-0.014129638671875,0.4500732421875,2.4191108687985645,-3.0299426776146294,48.85592845094575,0.9097300693824253,0.030143821017819237,-0.015339484340444152,0.41382031261897073,1,	00:32:02.342,0.00927734375,0.0732421875,1.005859375,-0.9765625,-1.3427734375,-0.54931640625,4.119873046875,-0.5987548828125,103.238525390625,-369.0,-1303.0,-1934.0,-0.62030029296875,-0.026397705078125,-0.024932861328125,-0.78350830078125,4.119946965577411,-0.5980492617265084,104.59602901551223,-0.6110024896484171,-0.026108946505459914,-0.02525023155206171,-0.7907949837741626,1
1782117429.569715,0.183,1023.0,1023.0,1024.0,1022.0,1023.0,1023.0,1023.0,1024.0,1023.0,1023.0,1023.0,1023.0,1023.0,1024.0,1023.0,1023.0,1023.0,1023.0,1023.0,1023.0,1024.0,1023.0,1023.0,1022.0,1023.0,1023.0,1023.0,1023.0,1024.0,1023.0,1024.0,1023.0,1022.0,1023.0,1023.0,1023.0,1023.0,1024.0,1024.0,1023.0,1023.0,1022.0,1023.0,1023.0,1023.0,1023.0,1024.0,1023.0,1023.0,1022.0,1022.0,1023.0,1023.0,1023.0,1023.0,1023.0,1024.0,1023.0,1023.0,1023.0,1022.0,1024.0,1023.0,1023.0,1023.0,1023.0,1023.0,1023.0,1023.0,1022.0,1022.0,1023.0,1023.0,1023.0,1023.0,1023.0,1024.0,1023.0,1023.0,1022.0,1022.0,1024.0,1023.0,1023.0,1024.0,1023.0,1024.0,1023.0,1023.0,1023.0,1022.0,1024.0,1023.0,1023.0,1024.0,1024.0,1025.0,1024.0,1024.0,1024.0,1023.0,1023.0,1023.0,1023.0,1024.0,1024.0,1025.0,1024.0,1024.0,1024.0,1023.0,1023.0,1022.0,1024.0,1023.0,1023.0,1024.0,1023.0,1023.0,1021.0,1022.0,1023.0,1023.0,1023.0,1024.0,1025.0,1024.0,1023.0,1023.0,1023.0,1023.0,1023.0,1024.0,1025.0,1023.0,1023.0,1023.0,1024.0,1024.0,1024.0,1026.0,1025.0,1024.0,1023.0,1023.0,1024.0,1024.0,1026.0,1024.0,1024.0,1023.0,1024.0,1024.0,1025.0,1027.0,1025.0,1023.0,1024.0,1024.0,1026.0,1029.0,1027.0,1024.0,1026.0,1026.0,1029.0,1032.0,1031.0,1025.0,1027.0,1028.0,1030.0,1035.0,1031.0,1025.0,1028.0,1031.0,1031.0,1041.0,1032.0,1025.0,1029.0,1031.0,1030.0,1042.0,1034.0,1027.0,1032.0,1033.0,1030.0,1042.0,1036.0,1028.0,1033.0,1035.0,1030.0,1042.0,1036.0,1028.0,1031.0,1032.0,1028.0,1039.0,1033.0,1030.0,1033.0,1033.0,1029.0,1039.0,1032.0,1022.0,1023.0,1022.0,1023.0,1025.0,1022.0,1033.0,1039.0,1036.0,1032.0,1042.0,1037.0,1029.0,1035.0,1032.0,1032.0,1040.0,1036.0,1027.0,1031.0,1029.0,1029.0,1033.0,1975,2028,1908,	00:32:02.351,0.05419921875,0.04345703125,1.017578125,-0.244140625,0.244140625,0.06103515625,2.493896484375,-3.076171875,53.4649658203125,461.0,-1596.0,-2570.0,0.892333984375,0.031494140625,-0.01416015625,0.4500732421875,2.494671598165973,-3.075449200088549,48.85248729253766,0.9097092195017337,0.030907141030791244,-0.015428990716974431,0.4138065137625368,1,	00:32:02.352,0.00927734375,0.07421875,1.00390625,-0.9765625,-1.28173828125,-0.48828125,4.185791015625,-0.560302734375,103.2330322265625,-371.0,-1306.0,-1936.0,-0.620361328125,-0.026519775390625,-0.025604248046875,-0.783447265625,4.187095947037065,-0.5607591409134611,104.5894575685049,-0.611042843738538,-0.02621120716826729,-0.025911041246836027,-0.7907390427165004,1
1782117429.580580,0.194,1023.0,1023.0,1024.0,1023.0,1023.0,1023.0,1023.0,1024.0,1023.0,1022.0,1023.0,1024.0,1024.0,1024.0,1023.0,1023.0,1023.0,1023.0,1023.0,1023.0,1024.0,1023.0,1023.0,1022.0,1022.0,1023.0,1024.0,1023.0,1024.0,1023.0,1023.0,1022.0,1022.0,1023.0,1023.0,1023.0,1024.0,1024.0,1023.0,1023.0,1023.0,1023.0,1022.0,1023.0,1023.0,1023.0,1024.0,1023.0,1023.0,1022.0,1022.0,1023.0,1022.0,1023.0,1023.0,1023.0,1024.0,1023.0,1023.0,1022.0,1022.0,1023.0,1023.0,1023.0,1023.0,1023.0,1024.0,1023.0,1023.0,1022.0,1023.0,1023.0,1023.0,1023.0,1023.0,1023.0,1024.0,1022.0,1023.0,1022.0,1022.0,1023.0,1023.0,1023.0,1023.0,1024.0,1024.0,1023.0,1023.0,1023.0,1023.0,1023.0,1023.0,1024.0,1024.0,1024.0,1024.0,1024.0,1024.0,1024.0,1023.0,1023.0,1023.0,1023.0,1023.0,1024.0,1025.0,1024.0,1024.0,1024.0,1023.0,1023.0,1022.0,1023.0,1022.0,1024.0,1024.0,1023.0,1023.0,1021.0,1022.0,1023.0,1023.0,1023.0,1024.0,1025.0,1024.0,1023.0,1022.0,1023.0,1023.0,1023.0,1023.0,1025.0,1023.0,1024.0,1023.0,1024.0,1024.0,1024.0,1026.0,1024.0,1024.0,1023.0,1024.0,1024.0,1024.0,1025.0,1024.0,1024.0,1023.0,1024.0,1024.0,1024.0,1027.0,1026.0,1023.0,1024.0,1025.0,1027.0,1028.0,1027.0,1024.0,1025.0,1027.0,1029.0,1032.0,1029.0,1024.0,1027.0,1028.0,1030.0,1034.0,1030.0,1025.0,1029.0,1031.0,1031.0,1040.0,1033.0,1026.0,1029.0,1032.0,1030.0,1041.0,1034.0,1026.0,1032.0,1033.0,1031.0,1041.0,1036.0,1028.0,1034.0,1036.0,1031.0,1042.0,1036.0,1028.0,1032.0,1032.0,1028.0,1038.0,1033.0,1030.0,1032.0,1033.0,1029.0,1038.0,1032.0,1022.0,1023.0,1023.0,1023.0,1025.0,1022.0,1033.0,1040.0,1036.0,1032.0,1043.0,1038.0,1029.0,1035.0,1033.0,1032.0,1040.0,1035.0,1026.0,1031.0,1029.0,1029.0,1033.0,1975,2028,1909,	00:32:02.361,0.05419921875,0.04443359375,1.017578125,-0.244140625,0.244140625,0.1220703125,2.5103759765625,-2.9827880859375,53.4649658203125,462.0,-1596.0,-2570.0,0.892364501953125,0.03125,-0.013397216796875,0.4500732421875,2.509305591335543,-2.983092208617192,48.852906903776805,0.9097304369899928,0.030690705869205706,-0.01464244394902935,0.4138045570344122,1,	00:32:02.362,0.00927734375,0.0732421875,1.0048828125,-0.91552734375,-1.220703125,-0.48828125,4.1363525390625,-0.494384765625,103.2275390625,-371.0,-1304.0,-1939.0,-0.62042236328125,-0.0257568359375,-0.025604248046875,-0.783416748046875,4.133617779542012,-0.4924591602874455,104.58409849234963,-0.6111106698900122,-0.025456064218358214,-0.025905190743251785,-0.7907114891246031,1
1782117429.590460,0.204,1023.0,1023.0,1023.0,1023.0,1023.0,1023.0,1023.0,1023.0,1023.0,1023.0,1023.0,1023.0,1023.0,1024.0,1023.0,1023.0,1022.0,1023.0,1023.0,1023.0,1024.0,1023.0,1023.0,1023.0,1023.0,1023.0,1023.0,1024.0,1024.0,1023.0,1023.0,1023.0,1023.0,1023.0,1023.0,1023.0,1023.0,1024.0,1024.0,1023.0,1023.0,1023.0,1023.0,1024.0,1023.0,1024.0,1024.0,1023.0,1023.0,1023.0,1022.0,1023.0,1023.0,1023.0,1023.0,1023.0,1024.0,1023.0,1023.0,1023.0,1022.0,1023.0,1022.0,1023.0,1023.0,1023.0,1024.0,1024.0,1023.0,1022.0,1022.0,1023.0,1022.0,1024.0,1023.0,1023.0,1024.0,1023.0,1023.0,1022.0,1022.0,1023.0,1023.0,1023.0,1023.0,1023.0,1024.0,1024.0,1023.0,1023.0,1022.0,1023.0,1023.0,1024.0,1024.0,1024.0,1025.0,1024.0,1023.0,1024.0,1023.0,1023.0,1023.0,1024.0,1024.0,1024.0,1025.0,1024.0,1023.0,1024.0,1023.0,1023.0,1022.0,1023.0,1022.0,1023.0,1024.0,1023.0,1023.0,1021.0,1022.0,1023.0,1024.0,1023.0,1024.0,1024.0,1023.0,1024.0,1023.0,1023.0,1023.0,1023.0,1023.0,1024.0,1023.0,1023.0,1024.0,1024.0,1024.0,1024.0,1026.0,1024.0,1025.0,1023.0,1023.0,1024.0,1024.0,1026.0,1024.0,1024.0,1024.0,1024.0,1024.0,1025.0,1026.0,1026.0,1024.0,1024.0,1025.0,1026.0,1028.0,1027.0,1024.0,1026.0,1026.0,1029.0,1031.0,1030.0,1024.0,1027.0,1029.0,1030.0,1035.0,1031.0,1024.0,1029.0,1031.0,1030.0,1040.0,1033.0,1026.0,1029.0,1031.0,1030.0,1041.0,1034.0,1027.0,1032.0,1033.0,1030.0,1041.0,1036.0,1028.0,1034.0,1035.0,1030.0,1041.0,1035.0,1027.0,1031.0,1032.0,1029.0,1039.0,1033.0,1030.0,1032.0,1033.0,1029.0,1038.0,1032.0,1022.0,1023.0,1023.0,1023.0,1024.0,1023.0,1033.0,1040.0,1036.0,1032.0,1042.0,1037.0,1029.0,1035.0,1033.0,1031.0,1040.0,1035.0,1027.0,1032.0,1029.0,1029.0,1034.0,1976,2028,1909,	00:32:02.371,0.05419921875,0.04296875,1.01806640625,-0.244140625,0.244140625,0.06103515625,2.427978515625,-3.0322265625,53.4649658203125,462.0,-1595.0,-2571.0,0.892333984375,0.03082275390625,-0.014068603515625,0.450103759765625,2.4304552748316284,-3.031542642090358,48.857632301587,0.9097204690275273,0.03023987420345221,-0.01531077537195901,0.41383547261925796,1,	00:32:02.372,0.00732421875,0.0732421875,1.0048828125,-0.9765625,-1.28173828125,-0.54931640625,4.163818359375,-0.4229736328125,103.2220458984375,-372.0,-1305.0,-1936.0,-0.6204833984375,-0.025421142578125,-0.02618408203125,-0.78338623046875,4.162334831004422,-0.42164341683698875,104.57738304979358,-0.6111698688630838,-0.025122231903653054,-0.02647967305583897,-0.7906573795095545,1
1782117429.600942,0.214,1023.0,1023.0,1023.0,1022.0,1023.0,1023.0,1023.0,1024.0,1023.0,1023.0,1023.0,1023.0,1023.0,1024.0,1023.0,1023.0,1023.0,1023.0,1023.0,1023.0,1024.0,1023.0,1023.0,1023.0,1023.0,1023.0,1023.0,1023.0,1024.0,1023.0,1023.0,1023.0,1022.0,1023.0,1023.0,1023.0,1023.0,1024.0,1023.0,1023.0,1023.0,1022.0,1023.0,1023.0,1023.0,1023.0,1024.0,1023.0,1023.0,1023.0,1022.0,1023.0,1023.0,1023.0,1023.0,1023.0,1024.0,1023.0,1023.0,1023.0,1022.0,1023.0,1023.0,1023.0,1023.0,1023.0,1024.0,1023.0,1023.0,1022.0,1023.0,1023.0,1023.0,1023.0,1023.0,1023.0,1024.0,1023.0,1023.0,1022.0,1022.0,1024.0,1022.0,1023.0,1023.0,1023.0,1024.0,1023.0,1023.0,1023.0,1022.0,1023.0,1022.0,1023.0,1024.0,1023.0,1025.0,1023.0,1024.0,1024.0,1023.0,1023.0,1023.0,1023.0,1024.0,1024.0,1025.0,1024.0,1024.0,1023.0,1023.0,1024.0,1022.0,1023.0,1023.0,1023.0,1024.0,1023.0,1023.0,1021.0,1022.0,1023.0,1023.0,1023.0,1024.0,1024.0,1024.0,1024.0,1023.0,1023.0,1023.0,1023.0,1024.0,1024.0,1024.0,1023.0,1024.0,1024.0,1024.0,1024.0,1026.0,1024.0,1025.0,1023.0,1024.0,1024.0,1024.0,1026.0,1024.0,1024.0,1023.0,1024.0,1024.0,1025.0,1026.0,1026.0,1023.0,1024.0,1025.0,1026.0,1028.0,1027.0,1024.0,1026.0,1026.0,1029.0,1032.0,1030.0,1024.0,1027.0,1027.0,1030.0,1035.0,1030.0,1025.0,1028.0,1032.0,1031.0,1040.0,1032.0,1026.0,1029.0,1031.0,1030.0,1041.0,1034.0,1027.0,1031.0,1033.0,1031.0,1041.0,1036.0,1029.0,1032.0,1035.0,1031.0,1042.0,1036.0,1028.0,1030.0,1032.0,1029.0,1038.0,1033.0,1030.0,1032.0,1033.0,1029.0,1038.0,1033.0,1022.0,1023.0,1023.0,1023.0,1024.0,1022.0,1033.0,1039.0,1036.0,1032.0,1042.0,1037.0,1029.0,1035.0,1033.0,1032.0,1039.0,1036.0,1027.0,1031.0,1029.0,1030.0,1033.0,1976,2028,1908,	00:32:02.382,0.0537109375,0.0439453125,1.0185546875,-0.30517578125,0.244140625,0.06103515625,2.5103759765625,-2.9937744140625,53.4649658203125,462.0,-1595.0,-2573.0,0.892333984375,0.031341552734375,-0.01348876953125,0.4500732421875,2.5127269726231445,-2.9954553790900946,48.85385810901761,0.9097225457828796,0.03076252280917982,-0.014728034211530808,0.41381353517374847,1,	00:32:02.383,0.009765625,0.07275390625,1.00341796875,-0.91552734375,-1.220703125,-0.48828125,4.141845703125,-0.5218505859375,103.216552734375,-370.0,-1307.0,-1935.0,-0.6204833984375,-0.026031494140625,-0.025482177734375,-0.783355712890625,4.142866255129724,-0.5245507520508489,104.57172062872782,-0.6111852527154864,-0.02572955772427323,-0.02579501643587214,-0.790648590620064,1
1782117429.610731,0.224,1022.0,1024.0,1023.0,1023.0,1023.0,1023.0,1023.0,1024.0,1023.0,1023.0,1023.0,1023.0,1023.0,1024.0,1023.0,1023.0,1022.0,1023.0,1023.0,1023.0,1024.0,1024.0,1023.0,1022.0,1023.0,1023.0,1023.0,1024.0,1024.0,1024.0,1023.0,1023.0,1023.0,1023.0,1023.0,1023.0,1023.0,1024.0,1024.0,1023.0,1023.0,1022.0,1022.0,1023.0,1023.0,1024.0,1024.0,1024.0,1023.0,1022.0,1023.0,1023.0,1023.0,1023.0,1023.0,1024.0,1024.0,1023.0,1023.0,1022.0,1022.0,1023.0,1022.0,1023.0,1022.0,1024.0,1024.0,1024.0,1023.0,1022.0,1022.0,1023.0,1023.0,1023.0,1023.0,1024.0,1024.0,1023.0,1023.0,1022.0,1022.0,1023.0,1022.0,1023.0,1023.0,1024.0,1024.0,1023.0,1023.0,1023.0,1023.0,1023.0,1023.0,1024.0,1024.0,1024.0,1025.0,1024.0,1023.0,1024.0,1023.0,1023.0,1023.0,1023.0,1024.0,1024.0,1025.0,1024.0,1024.0,1024.0,1023.0,1023.0,1022.0,1023.0,1022.0,1023.0,1024.0,1023.0,1023.0,1021.0,1022.0,1023.0,1023.0,1023.0,1024.0,1024.0,1024.0,1023.0,1023.0,1023.0,1023.0,1023.0,1024.0,1024.0,1024.0,1023.0,1024.0,1024.0,1024.0,1024.0,1025.0,1025.0,1024.0,1023.0,1024.0,1024.0,1024.0,1025.0,1024.0,1024.0,1023.0,1024.0,1024.0,1024.0,1026.0,1025.0,1024.0,1024.0,1024.0,1026.0,1028.0,1026.0,1024.0,1026.0,1027.0,1029.0,1032.0,1029.0,1024.0,1027.0,1029.0,1030.0,1035.0,1031.0,1024.0,1027.0,1031.0,1031.0,1041.0,1032.0,1025.0,1028.0,1031.0,1030.0,1040.0,1034.0,1026.0,1031.0,1033.0,1032.0,1041.0,1035.0,1028.0,1033.0,1036.0,1031.0,1041.0,1035.0,1028.0,1031.0,1032.0,1029.0,1038.0,1033.0,1030.0,1032.0,1033.0,1030.0,1037.0,1032.0,1022.0,1022.0,1023.0,1023.0,1024.0,1023.0,1032.0,1039.0,1036.0,1032.0,1042.0,1037.0,1029.0,1035.0,1033.0,1033.0,1039.0,1036.0,1027.0,1031.0,1029.0,1030.0,1034.0,1976,2028,1908,	00:32:02.392,0.0546875,0.04345703125,1.017578125,-0.18310546875,0.18310546875,0.06103515625,2.449951171875,-3.065185546875,53.470458984375,463.0,-1597.0,-2572.0,0.892333984375,0.0311279296875,-0.014251708984375,0.450103759765625,2.4509418078150333,-3.063098362840111,48.8577166303126,0.9097056437788319,0.030516199896167846,-0.015487409305391749,0.41384120550501646,1,	00:32:02.393,0.00927734375,0.07373046875,1.0048828125,-0.91552734375,-1.28173828125,-0.48828125,4.2242431640625,-0.5438232421875,103.2110595703125,-371.0,-1305.0,-1935.0,-0.620513916015625,-0.026611328125,-0.02593994140625,-0.7833251953125,4.225054630029553,-0.5420688773630222,104.56507636777184,-0.6112075902606121,-0.026290269114120066,-0.026267088525383175,-0.790597333298135,1
1782117429.621062,0.234,1023.0,1023.0,1023.0,1022.0,1023.0,1022.0,1023.0,1024.0,1023.0,1023.0,1023.0,1023.0,1023.0,1024.0,1023.0,1023.0,1022.0,1023.0,1023.0,1023.0,1024.0,1023.0,1024.0,1022.0,1023.0,1024.0,1024.0,1023.0,1025.0,1023.0,1024.0,1024.0,1023.0,1022.0,1023.0,1023.0,1023.0,1024.0,1024.0,1023.0,1022.0,1023.0,1022.0,1023.0,1024.0,1023.0,1024.0,1023.0,1023.0,1022.0,1022.0,1023.0,1022.0,1023.0,1023.0,1023.0,1024.0,1023.0,1023.0,1022.0,1022.0,1024.0,1023.0,1023.0,1022.0,1023.0,1023.0,1023.0,1023.0,1022.0,1022.0,1023.0,1023.0,1023.0,1024.0,1023.0,1024.0,1023.0,1023.0,1022.0,1022.0,1023.0,1023.0,1023.0,1023.0,1024.0,1024.0,1023.0,1023.0,1023.0,1022.0,1024.0,1023.0,1023.0,1024.0,1024.0,1025.0,1024.0,1024.0,1023.0,1022.0,1024.0,1023.0,1024.0,1024.0,1024.0,1025.0,1024.0,1024.0,1024.0,1023.0,1023.0,1022.0,1024.0,1023.0,1024.0,1024.0,1023.0,1022.0,1021.0,1022.0,1023.0,1023.0,1023.0,1023.0,1024.0,1024.0,1023.0,1023.0,1023.0,1023.0,1022.0,1023.0,1024.0,1024.0,1023.0,1024.0,1024.0,1024.0,1024.0,1026.0,1024.0,1024.0,1023.0,1023.0,1024.0,1024.0,1025.0,1024.0,1024.0,1023.0,1024.0,1024.0,1025.0,1026.0,1025.0,1023.0,1024.0,1025.0,1026.0,1028.0,1027.0,1024.0,1025.0,1026.0,1029.0,1032.0,1029.0,1024.0,1027.0,1028.0,1030.0,1035.0,1031.0,1025.0,1027.0,1032.0,1030.0,1040.0,1033.0,1026.0,1028.0,1032.0,1030.0,1040.0,1034.0,1027.0,1031.0,1033.0,1031.0,1041.0,1036.0,1028.0,1033.0,1036.0,1031.0,1042.0,1036.0,1028.0,1031.0,1032.0,1029.0,1038.0,1033.0,1030.0,1032.0,1033.0,1029.0,1038.0,1032.0,1022.0,1023.0,1023.0,1024.0,1025.0,1022.0,1033.0,1040.0,1036.0,1032.0,1042.0,1038.0,1029.0,1035.0,1032.0,1032.0,1040.0,1036.0,1027.0,1031.0,1029.0,1030.0,1033.0,1976,2028,1908,	00:32:02.402,0.05419921875,0.04443359375,1.017578125,-0.244140625,0.18310546875,0.06103515625,2.537841796875,-3.0322265625,53.4649658203125,462.0,-1594.0,-2572.0,0.892333984375,0.031646728515625,-0.013671875,0.4500732421875,2.5351503236331867,-3.0311965182073077,48.8537969441319,0.9097064123807878,0.031069268901187632,-0.014930964479119608,0.4138188131331696,1,	00:32:02.403,0.00927734375,0.07373046875,1.00537109375,-0.8544921875,-1.28173828125,-0.48828125,4.1363525390625,-0.516357421875,103.20556640625,-371.0,-1304.0,-1938.0,-0.620574951171875,-0.025909423828125,-0.025482177734375,-0.783294677734375,4.134174229476826,-0.5147968275198761,104.56001976921128,-0.6112705967156354,-0.025618548530077508,-0.025784473959572986,-0.790586559754687,1
1782117429.630742,0.244,1023.0,1023.0,1024.0,1023.0,1024.0,1023.0,1022.0,1024.0,1023.0,1023.0,1023.0,1023.0,1023.0,1024.0,1023.0,1023.0,1022.0,1023.0,1023.0,1023.0,1024.0,1023.0,1023.0,1023.0,1023.0,1023.0,1024.0,1024.0,1024.0,1023.0,1023.0,1024.0,1022.0,1023.0,1023.0,1023.0,1023.0,1024.0,1024.0,1023.0,1023.0,1022.0,1023.0,1023.0,1023.0,1023.0,1024.0,1023.0,1023.0,1022.0,1022.0,1023.0,1023.0,1023.0,1023.0,1023.0,1024.0,1023.0,1023.0,1022.0,1023.0,1023.0,1022.0,1023.0,1023.0,1023.0,1024.0,1023.0,1023.0,1022.0,1022.0,1023.0,1022.0,1023.0,1023.0,1024.0,1024.0,1023.0,1023.0,1023.0,1022.0,1023.0,1022.0,1023.0,1023.0,1023.0,1024.0,1023.0,1023.0,1024.0,1022.0,1023.0,1023.0,1023.0,1024.0,1024.0,1025.0,1024.0,1024.0,1024.0,1023.0,1023.0,1023.0,1023.0,1024.0,1024.0,1025.0,1024.0,1024.0,1024.0,1023.0,1024.0,1022.0,1023.0,1023.0,1023.0,1024.0,1023.0,1023.0,1021.0,1022.0,1022.0,1024.0,1024.0,1023.0,1024.0,1024.0,1023.0,1023.0,1023.0,1023.0,1023.0,1024.0,1024.0,1024.0,1023.0,1023.0,1024.0,1024.0,1025.0,1026.0,1024.0,1024.0,1023.0,1024.0,1024.0,1025.0,1025.0,1024.0,1024.0,1023.0,1023.0,1024.0,1024.0,1026.0,1026.0,1023.0,1024.0,1025.0,1026.0,1028.0,1027.0,1024.0,1026.0,1026.0,1029.0,1032.0,1030.0,1024.0,1027.0,1028.0,1030.0,1034.0,1030.0,1024.0,1029.0,1031.0,1031.0,1040.0,1033.0,1025.0,1029.0,1031.0,1030.0,1041.0,1033.0,1026.0,1031.0,1033.0,1031.0,1042.0,1036.0,1028.0,1033.0,1035.0,1031.0,1043.0,1036.0,1027.0,1031.0,1032.0,1029.0,1038.0,1033.0,1029.0,1032.0,1033.0,1029.0,1037.0,1033.0,1023.0,1023.0,1022.0,1023.0,1025.0,1023.0,1033.0,1039.0,1035.0,1032.0,1043.0,1038.0,1029.0,1034.0,1032.0,1032.0,1040.0,1036.0,1027.0,1031.0,1029.0,1030.0,1033.0,1976,2028,1908,	00:32:02.412,0.05419921875,0.04345703125,1.01708984375,-0.244140625,0.244140625,0.06103515625,2.4444580078125,-3.043212890625,53.470458984375,461.0,-1594.0,-2572.0,0.892333984375,0.030975341796875,-0.014129638671875,0.450103759765625,2.442447506516029,-3.0454394758248347,48.85929820121165,0.909707287723193,0.03038536406655199,-0.01537740521936698,0.4138513207935601,1,	00:32:02.413,0.00830078125,0.0732421875,1.0048828125,-0.8544921875,-1.3427734375,-0.48828125,4.185791015625,-0.4559326171875,103.2000732421875,-370.0,-1304.0,-1939.0,-0.620635986328125,-0.025787353515625,-0.026123046875,-0.783233642578125,4.18322310590337,-0.45656005217153156,104.55368950040058,-0.6113192354465586,-0.025479968790467915,-0.026432238292304105,-0.7905320362530104,1
1782117429.641095,0.254,1023.0,1023.0,1024.0,1023.0,1022.0,1023.0,1024.0,1024.0,1023.0,1022.0,1023.0,1023.0,1023.0,1024.0,1023.0,1023.0,1023.0,1023.0,1023.0,1023.0,1024.0,1023.0,1022.0,1022.0,1023.0,1023.0,1023.0,1024.0,1024.0,1023.0,1023.0,1024.0,1023.0,1023.0,1023.0,1023.0,1023.0,1024.0,1023.0,1023.0,1023.0,1023.0,1023.0,1023.0,1023.0,1023.0,1024.0,1023.0,1023.0,1022.0,1023.0,1024.0,1023.0,1023.0,1023.0,1024.0,1024.0,1023.0,1023.0,1022.0,1022.0,1024.0,1022.0,1023.0,1023.0,1023.0,1024.0,1023.0,1023.0,1022.0,1022.0,1023.0,1023.0,1023.0,1023.0,1023.0,1024.0,1023.0,1023.0,1022.0,1022.0,1023.0,1023.0,1023.0,1023.0,1023.0,1024.0,1023.0,1023.0,1023.0,1023.0,1023.0,1022.0,1023.0,1024.0,1024.0,1024.0,1024.0,1024.0,1024.0,1023.0,1023.0,1023.0,1024.0,1024.0,1024.0,1025.0,1024.0,1024.0,1024.0,1023.0,1023.0,1022.0,1023.0,1023.0,1023.0,1024.0,1023.0,1023.0,1021.0,1022.0,1022.0,1023.0,1024.0,1023.0,1024.0,1024.0,1024.0,1023.0,1023.0,1023.0,1023.0,1023.0,1024.0,1024.0,1023.0,1024.0,1024.0,1024.0,1024.0,1025.0,1025.0,1024.0,1023.0,1023.0,1023.0,1024.0,1026.0,1024.0,1024.0,1023.0,1024.0,1024.0,1025.0,1026.0,1026.0,1023.0,1024.0,1024.0,1026.0,1028.0,1027.0,1023.0,1026.0,1026.0,1029.0,1032.0,1029.0,1024.0,1026.0,1028.0,1030.0,1035.0,1031.0,1024.0,1028.0,1031.0,1031.0,1041.0,1032.0,1025.0,1028.0,1032.0,1030.0,1040.0,1033.0,1027.0,1031.0,1033.0,1031.0,1041.0,1035.0,1028.0,1033.0,1035.0,1030.0,1042.0,1035.0,1028.0,1031.0,1032.0,1029.0,1038.0,1033.0,1030.0,1033.0,1033.0,1029.0,1038.0,1032.0,1022.0,1023.0,1023.0,1023.0,1024.0,1023.0,1033.0,1039.0,1036.0,1032.0,1042.0,1037.0,1028.0,1035.0,1033.0,1032.0,1040.0,1035.0,1027.0,1031.0,1029.0,1030.0,1034.0,1976,2028,1908,	00:32:02.423,0.0537109375,0.04345703125,1.01806640625,-0.18310546875,0.244140625,0.1220703125,2.4444580078125,-2.9498291015625,53.470458984375,461.0,-1596.0,-2569.0,0.892333984375,0.0306396484375,-0.013397216796875,0.450103759765625,2.4463434173512204,-2.9516741660037145,48.860318939368895,0.9097292771949881,0.030078620729922,-0.014618304848195611,0.4138529013461611,1,	00:32:02.424,0.00927734375,0.07373046875,1.0048828125,-0.8544921875,-1.3427734375,-0.54931640625,4.1912841796875,-0.560302734375,103.1890869140625,-370.0,-1301.0,-1937.0,-0.620635986328125,-0.02655029296875,-0.025634765625,-0.783233642578125,4.191462602524621,-0.5596626453540116,104.54709062632121,-0.6113344607982559,-0.026236518815395387,-0.025937324508528554,-0.7905119083975235,1
1782117429.654838,0.268,1023.0,1023.0,1023.0,1023.0,1023.0,1023.0,1023.0,1024.0,1022.0,1023.0,1023.0,1023.0,1023.0,1024.0,1023.0,1023.0,1022.0,1023.0,1023.0,1023.0,1024.0,1023.0,1023.0,1023.0,1023.0,1023.0,1024.0,1024.0,1024.0,1023.0,1023.0,1024.0,1023.0,1023.0,1023.0,1023.0,1024.0,1024.0,1023.0,1023.0,1023.0,1022.0,1022.0,1023.0,1023.0,1023.0,1024.0,1023.0,1023.0,1022.0,1022.0,1023.0,1023.0,1023.0,1023.0,1024.0,1024.0,1023.0,1023.0,1022.0,1023.0,1023.0,1023.0,1023.0,1023.0,1023.0,1024.0,1023.0,1023.0,1022.0,1022.0,1022.0,1023.0,1023.0,1023.0,1023.0,1024.0,1023.0,1023.0,1021.0,1022.0,1023.0,1023.0,1023.0,1023.0,1023.0,1024.0,1023.0,1023.0,1022.0,1022.0,1023.0,1023.0,1024.0,1024.0,1024.0,1024.0,1024.0,1023.0,1024.0,1023.0,1023.0,1022.0,1023.0,1024.0,1024.0,1025.0,1024.0,1023.0,1023.0,1023.0,1023.0,1023.0,1023.0,1023.0,1023.0,1023.0,1023.0,1023.0,1021.0,1022.0,1023.0,1023.0,1024.0,1024.0,1024.0,1024.0,1024.0,1023.0,1023.0,1023.0,1023.0,1023.0,1024.0,1024.0,1023.0,1023.0,1024.0,1023.0,1024.0,1026.0,1024.0,1024.0,1023.0,1023.0,1024.0,1024.0,1025.0,1025.0,1024.0,1022.0,1024.0,1024.0,1025.0,1027.0,1025.0,1023.0,1024.0,1024.0,1026.0,1028.0,1026.0,1024.0,1026.0,1026.0,1029.0,1032.0,1029.0,1025.0,1027.0,1028.0,1030.0,1035.0,1030.0,1024.0,1028.0,1031.0,1032.0,1041.0,1033.0,1025.0,1029.0,1031.0,1031.0,1041.0,1034.0,1026.0,1031.0,1033.0,1031.0,1042.0,1036.0,1028.0,1034.0,1035.0,1031.0,1042.0,1035.0,1028.0,1031.0,1032.0,1029.0,1038.0,1032.0,1029.0,1032.0,1032.0,1030.0,1038.0,1032.0,1022.0,1023.0,1023.0,1023.0,1024.0,1022.0,1032.0,1040.0,1036.0,1032.0,1041.0,1038.0,1029.0,1035.0,1033.0,1032.0,1040.0,1035.0,1026.0,1031.0,1029.0,1031.0,1034.0,1975,2028,1908,	00:32:02.433,0.05419921875,0.04443359375,1.01708984375,-0.244140625,0.18310546875,0.06103515625,2.4884033203125,-3.0267333984375,53.470458984375,461.0,-1591.0,-2572.0,0.892333984375,0.031280517578125,-0.013824462890625,0.450103759765625,2.489533081451627,-3.0291617807411697,48.858627071972,0.909701851991415,0.030700431804766733,-0.015078242740168703,0.41385102460457807,1,	00:32:02.434,0.00830078125,0.07421875,1.0048828125,-0.91552734375,-1.40380859375,-0.48828125,4.2132568359375,-0.4888916015625,103.18359375,-369.0,-1302.0,-1935.0,-0.620697021484375,-0.02618408203125,-0.02618408203125,-0.783172607421875,4.2143303220087285,-0.48740044173727937,104.54089682076297,-0.6113920398753496,-0.02586158111020517,-0.026479361763774995,-0.7904617609980398,1
1782117429.662369,0.276,1022.0,1023.0,1024.0,1022.0,1023.0,1023.0,1023.0,1024.0,1023.0,1023.0,1023.0,1023.0,1024.0,1024.0,1023.0,1023.0,1023.0,1023.0,1022.0,1023.0,1024.0,1023.0,1023.0,1022.0,1023.0,1023.0,1023.0,1023.0,1024.0,1023.0,1023.0,1023.0,1023.0,1023.0,1023.0,1023.0,1023.0,1024.0,1023.0,1023.0,1023.0,1023.0,1023.0,1023.0,1023.0,1024.0,1024.0,1023.0,1023.0,1022.0,1022.0,1023.0,1023.0,1023.0,1023.0,1023.0,1024.0,1023.0,1023.0,1023.0,1022.0,1023.0,1022.0,1023.0,1023.0,1023.0,1024.0,1023.0,1023.0,1022.0,1022.0,1023.0,1023.0,1023.0,1022.0,1024.0,1024.0,1024.0,1023.0,1022.0,1022.0,1023.0,1023.0,1023.0,1023.0,1024.0,1024.0,1023.0,1023.0,1023.0,1022.0,1023.0,1022.0,1024.0,1024.0,1024.0,1024.0,1024.0,1024.0,1024.0,1022.0,1024.0,1022.0,1023.0,1024.0,1024.0,1025.0,1024.0,1024.0,1024.0,1022.0,1024.0,1022.0,1023.0,1022.0,1023.0,1024.0,1024.0,1023.0,1021.0,1022.0,1023.0,1024.0,1023.0,1023.0,1024.0,1024.0,1023.0,1023.0,1023.0,1024.0,1024.0,1024.0,1024.0,1024.0,1023.0,1024.0,1024.0,1024.0,1024.0,1026.0,1024.0,1024.0,1023.0,1024.0,1024.0,1024.0,1025.0,1024.0,1024.0,1023.0,1024.0,1024.0,1024.0,1026.0,1026.0,1023.0,1024.0,1024.0,1026.0,1028.0,1026.0,1024.0,1026.0,1027.0,1029.0,1032.0,1030.0,1024.0,1027.0,1028.0,1030.0,1035.0,1030.0,1025.0,1029.0,1031.0,1031.0,1040.0,1032.0,1025.0,1030.0,1031.0,1030.0,1041.0,1033.0,1026.0,1032.0,1034.0,1031.0,1041.0,1035.0,1028.0,1034.0,1035.0,1030.0,1041.0,1036.0,1027.0,1031.0,1032.0,1029.0,1037.0,1034.0,1029.0,1032.0,1033.0,1029.0,1037.0,1033.0,1022.0,1023.0,1023.0,1023.0,1024.0,1022.0,1033.0,1039.0,1036.0,1032.0,1042.0,1038.0,1029.0,1035.0,1032.0,1032.0,1039.0,1036.0,1026.0,1032.0,1028.0,1030.0,1034.0,1975,2027,1909,	00:32:02.443,0.0556640625,0.044921875,1.01806640625,-0.244140625,0.18310546875,0.06103515625,2.5213623046875,-3.1146240234375,53.4649658203125,462.0,-1594.0,-2569.0,0.892303466796875,0.031829833984375,-0.014373779296875,0.450103759765625,2.5195339639587906,-3.112893715083328,48.857579112221984,0.9096731036091414,0.031240076072653312,-0.015635238257814377,0.4138531642282181,1,	00:32:02.444,0.0087890625,0.07373046875,1.0048828125,-0.8544921875,-1.3427734375,-0.54931640625,4.130859375,-0.5548095703125,103.1781005859375,-369.0,-1302.0,-1936.0,-0.6207275390625,-0.026153564453125,-0.025238037109375,-0.783172607421875,4.130498912933041,-0.5523781676700261,104.53511964931023,-0.6114329128480286,-0.025863710193485948,-0.02555294049546838,-0.7904605675258175,1
1782117429.672110,0.285,1022.0,1023.0,1024.0,1023.0,1022.0,1022.0,1024.0,1024.0,1023.0,1023.0,1023.0,1023.0,1023.0,1024.0,1023.0,1024.0,1023.0,1022.0,1023.0,1023.0,1024.0,1023.0,1023.0,1022.0,1023.0,1023.0,1023.0,1023.0,1024.0,1023.0,1023.0,1024.0,1023.0,1023.0,1023.0,1023.0,1024.0,1024.0,1023.0,1023.0,1023.0,1023.0,1023.0,1023.0,1023.0,1024.0,1024.0,1024.0,1023.0,1022.0,1022.0,1023.0,1023.0,1023.0,1023.0,1023.0,1024.0,1023.0,1023.0,1023.0,1023.0,1023.0,1023.0,1024.0,1023.0,1023.0,1024.0,1023.0,1022.0,1022.0,1022.0,1023.0,1023.0,1023.0,1022.0,1023.0,1024.0,1023.0,1023.0,1022.0,1022.0,1023.0,1023.0,1023.0,1023.0,1024.0,1024.0,1023.0,1023.0,1023.0,1022.0,1023.0,1023.0,1024.0,1024.0,1024.0,1024.0,1024.0,1023.0,1024.0,1022.0,1023.0,1023.0,1024.0,1024.0,1024.0,1025.0,1024.0,1024.0,1024.0,1023.0,1023.0,1022.0,1022.0,1022.0,1023.0,1024.0,1024.0,1023.0,1021.0,1022.0,1022.0,1023.0,1023.0,1023.0,1024.0,1024.0,1023.0,1023.0,1023.0,1024.0,1023.0,1024.0,1024.0,1023.0,1023.0,1023.0,1024.0,1024.0,1024.0,1026.0,1024.0,1024.0,1023.0,1023.0,1024.0,1024.0,1025.0,1024.0,1024.0,1023.0,1024.0,1023.0,1025.0,1026.0,1026.0,1023.0,1024.0,1024.0,1027.0,1028.0,1027.0,1024.0,1025.0,1027.0,1029.0,1032.0,1029.0,1024.0,1027.0,1028.0,1030.0,1035.0,1030.0,1024.0,1029.0,1032.0,1031.0,1040.0,1032.0,1025.0,1029.0,1031.0,1030.0,1040.0,1034.0,1027.0,1032.0,1034.0,1031.0,1041.0,1036.0,1028.0,1034.0,1034.0,1030.0,1041.0,1035.0,1027.0,1031.0,1032.0,1029.0,1037.0,1033.0,1029.0,1033.0,1033.0,1029.0,1037.0,1032.0,1022.0,1023.0,1023.0,1024.0,1024.0,1022.0,1032.0,1040.0,1036.0,1032.0,1042.0,1038.0,1029.0,1035.0,1033.0,1033.0,1039.0,1036.0,1027.0,1031.0,1029.0,1030.0,1033.0,1975,2027,1908,	00:32:02.453,0.0546875,0.04296875,1.017578125,-0.18310546875,0.18310546875,0.06103515625,2.4334716796875,-3.076171875,53.470458984375,462.0,-1593.0,-2569.0,0.892303466796875,0.031036376953125,-0.014434814453125,0.45013427734375,2.4322273043293734,-3.077990453136246,48.86288345074073,0.9096876451224983,0.030421984861922803,-0.015671908851316124,0.41388075869929075,1,	00:32:02.455,0.00830078125,0.0732421875,1.00439453125,-0.8544921875,-1.40380859375,-0.54931640625,4.163818359375,-0.4833984375,103.172607421875,-370.0,-1305.0,-1936.0,-0.62078857421875,-0.02587890625,-0.025848388671875,-0.783111572265625,4.163132752498929,-0.48407821874332446,104.52825249805277,-0.6114916604454614,-0.025568391721517758,-0.02614110587433548,-0.7904054966497222,1
1782117429.683115,0.296,1023.0,1023.0,1024.0,1023.0,1023.0,1022.0,1024.0,1024.0,1022.0,1023.0,1023.0,1023.0,1023.0,1024.0,1023.0,1023.0,1022.0,1023.0,1023.0,1023.0,1024.0,1023.0,1023.0,1023.0,1023.0,1024.0,1024.0,1023.0,1024.0,1023.0,1023.0,1023.0,1022.0,1022.0,1023.0,1024.0,1024.0,1024.0,1023.0,1023.0,1023.0,1022.0,1023.0,1023.0,1023.0,1023.0,1024.0,1023.0,1023.0,1022.0,1023.0,1023.0,1023.0,1023.0,1023.0,1023.0,1024.0,1023.0,1022.0,1022.0,1023.0,1023.0,1022.0,1023.0,1023.0,1023.0,1024.0,1023.0,1022.0,1022.0,1022.0,1023.0,1023.0,1024.0,1023.0,1023.0,1023.0,1023.0,1023.0,1022.0,1022.0,1022.0,1023.0,1023.0,1023.0,1024.0,1024.0,1023.0,1023.0,1023.0,1023.0,1023.0,1022.0,1024.0,1023.0,1024.0,1025.0,1024.0,1023.0,1024.0,1023.0,1023.0,1023.0,1024.0,1024.0,1024.0,1025.0,1024.0,1024.0,1024.0,1022.0,1023.0,1022.0,1023.0,1023.0,1023.0,1024.0,1023.0,1023.0,1021.0,1022.0,1023.0,1023.0,1023.0,1024.0,1024.0,1024.0,1023.0,1023.0,1023.0,1023.0,1023.0,1024.0,1024.0,1024.0,1023.0,1023.0,1023.0,1024.0,1025.0,1025.0,1025.0,1024.0,1023.0,1024.0,1023.0,1024.0,1025.0,1024.0,1024.0,1023.0,1024.0,1024.0,1025.0,1026.0,1026.0,1024.0,1024.0,1024.0,1026.0,1028.0,1027.0,1024.0,1026.0,1026.0,1030.0,1032.0,1030.0,1024.0,1027.0,1028.0,1030.0,1034.0,1031.0,1025.0,1028.0,1031.0,1031.0,1040.0,1033.0,1025.0,1029.0,1031.0,1031.0,1040.0,1034.0,1026.0,1031.0,1034.0,1031.0,1041.0,1037.0,1028.0,1033.0,1036.0,1031.0,1040.0,1036.0,1028.0,1031.0,1032.0,1029.0,1037.0,1034.0,1029.0,1032.0,1033.0,1029.0,1037.0,1033.0,1022.0,1023.0,1023.0,1023.0,1024.0,1023.0,1032.0,1040.0,1036.0,1032.0,1041.0,1038.0,1028.0,1035.0,1033.0,1032.0,1039.0,1035.0,1026.0,1031.0,1029.0,1030.0,1033.0,1975,2027,1908,	00:32:02.464,0.05419921875,0.0439453125,1.01806640625,-0.244140625,0.18310546875,0.06103515625,2.4993896484375,-3.0157470703125,53.470458984375,461.0,-1596.0,-2570.0,0.892303466796875,0.03131103515625,-0.013702392578125,0.450103759765625,2.4997457424133374,-3.0168720700326275,48.85984941638468,0.9096982399252005,0.030737393383637773,-0.014943416856998633,0.41386111102350476,1,	00:32:02.465,0.0087890625,0.07470703125,1.00537109375,-0.91552734375,-1.3427734375,-0.48828125,4.2462158203125,-0.5108642578125,103.1671142578125,-369.0,-1304.0,-1939.0,-0.620819091796875,-0.026519775390625,-0.0262451171875,-0.7830810546875,4.244041435766195,-0.5131389949054942,104.52162687903372,-0.6115110530568589,-0.026202065893546244,-0.026542524053652122,-0.790356361490855,1
1782117429.692740,0.306,1023.0,1024.0,1024.0,1022.0,1023.0,1023.0,1023.0,1024.0,1024.0,1023.0,1023.0,1023.0,1023.0,1024.0,1023.0,1023.0,1023.0,1023.0,1023.0,1024.0,1024.0,1023.0,1023.0,1022.0,1023.0,1023.0,1024.0,1024.0,1024.0,1023.0,1024.0,1022.0,1022.0,1023.0,1023.0,1024.0,1023.0,1024.0,1023.0,1023.0,1023.0,1023.0,1023.0,1023.0,1024.0,1023.0,1024.0,1023.0,1023.0,1022.0,1022.0,1023.0,1022.0,1023.0,1023.0,1024.0,1024.0,1024.0,1023.0,1022.0,1022.0,1023.0,1023.0,1023.0,1023.0,1023.0,1024.0,1023.0,1023.0,1022.0,1022.0,1023.0,1022.0,1023.0,1023.0,1023.0,1024.0,1023.0,1023.0,1022.0,1022.0,1023.0,1023.0,1023.0,1024.0,1023.0,1024.0,1023.0,1023.0,1023.0,1023.0,1023.0,1022.0,1023.0,1024.0,1024.0,1024.0,1024.0,1023.0,1024.0,1023.0,1023.0,1023.0,1024.0,1024.0,1024.0,1025.0,1024.0,1024.0,1024.0,1022.0,1023.0,1022.0,1023.0,1023.0,1024.0,1024.0,1023.0,1023.0,1021.0,1022.0,1023.0,1023.0,1023.0,1024.0,1024.0,1024.0,1023.0,1023.0,1023.0,1023.0,1023.0,1024.0,1024.0,1024.0,1023.0,1024.0,1024.0,1024.0,1024.0,1026.0,1024.0,1024.0,1023.0,1024.0,1023.0,1024.0,1025.0,1024.0,1024.0,1023.0,1024.0,1024.0,1025.0,1026.0,1026.0,1023.0,1024.0,1025.0,1026.0,1028.0,1027.0,1024.0,1026.0,1026.0,1029.0,1032.0,1030.0,1024.0,1027.0,1028.0,1030.0,1035.0,1031.0,1025.0,1029.0,1031.0,1032.0,1040.0,1033.0,1025.0,1029.0,1031.0,1031.0,1040.0,1034.0,1026.0,1031.0,1033.0,1031.0,1041.0,1036.0,1028.0,1033.0,1035.0,1031.0,1042.0,1036.0,1027.0,1030.0,1032.0,1029.0,1037.0,1034.0,1030.0,1032.0,1033.0,1029.0,1037.0,1032.0,1022.0,1023.0,1022.0,1023.0,1024.0,1022.0,1032.0,1039.0,1036.0,1033.0,1041.0,1038.0,1028.0,1034.0,1033.0,1032.0,1039.0,1035.0,1027.0,1031.0,1029.0,1030.0,1033.0,1975,2027,1908,	00:32:02.474,0.05419921875,0.0439453125,1.0185546875,-0.18310546875,0.18310546875,0.06103515625,2.427978515625,-3.076171875,53.4759521484375,461.0,-1595.0,-2572.0,0.892303466796875,0.031005859375,-0.014434814453125,0.45013427734375,2.4295768313211217,-3.0763225800027594,48.864171068355354,0.9096841811815675,0.030395111153813305,-0.015667892950056057,0.4138904986303431,1,	00:32:02.475,0.00927734375,0.0732421875,1.005859375,-0.91552734375,-1.3427734375,-0.48828125,4.1473388671875,-0.5438232421875,103.16162109375,-370.0,-1305.0,-1935.0,-0.620880126953125,-0.02618408203125,-0.025390625,-0.7830810546875,4.144862112186113,-0.5419574974059049,104.51659481905672,-0.6115603093889933,-0.02587264118330512,-0.025703463274117325,-0.7903568348499016,1
1782117429.703061,0.316,1022.0,1024.0,1024.0,1022.0,1023.0,1022.0,1023.0,1024.0,1023.0,1022.0,1023.0,1023.0,1024.0,1024.0,1023.0,1023.0,1023.0,1023.0,1023.0,1023.0,1024.0,1023.0,1023.0,1023.0,1023.0,1023.0,1024.0,1023.0,1024.0,1023.0,1023.0,1023.0,1022.0,1022.0,1024.0,1023.0,1023.0,1024.0,1023.0,1023.0,1022.0,1023.0,1023.0,1023.0,1023.0,1023.0,1023.0,1024.0,1023.0,1023.0,1022.0,1023.0,1023.0,1023.0,1024.0,1023.0,1024.0,1023.0,1023.0,1022.0,1022.0,1023.0,1022.0,1023.0,1023.0,1023.0,1024.0,1023.0,1023.0,1022.0,1022.0,1023.0,1023.0,1022.0,1023.0,1023.0,1024.0,1023.0,1023.0,1022.0,1022.0,1023.0,1022.0,1023.0,1024.0,1023.0,1024.0,1024.0,1023.0,1023.0,1022.0,1023.0,1022.0,1023.0,1024.0,1024.0,1024.0,1024.0,1024.0,1024.0,1023.0,1024.0,1023.0,1024.0,1024.0,1024.0,1025.0,1024.0,1024.0,1024.0,1023.0,1023.0,1022.0,1023.0,1022.0,1023.0,1024.0,1023.0,1022.0,1021.0,1022.0,1023.0,1024.0,1023.0,1024.0,1024.0,1023.0,1023.0,1023.0,1023.0,1023.0,1023.0,1024.0,1024.0,1024.0,1023.0,1023.0,1024.0,1024.0,1024.0,1026.0,1024.0,1024.0,1023.0,1023.0,1024.0,1024.0,1025.0,1024.0,1024.0,1023.0,1024.0,1024.0,1025.0,1026.0,1026.0,1023.0,1024.0,1024.0,1026.0,1028.0,1027.0,1023.0,1025.0,1027.0,1029.0,1032.0,1030.0,1024.0,1027.0,1028.0,1030.0,1035.0,1030.0,1025.0,1028.0,1032.0,1031.0,1040.0,1033.0,1025.0,1029.0,1032.0,1030.0,1041.0,1034.0,1026.0,1031.0,1033.0,1031.0,1041.0,1036.0,1028.0,1033.0,1035.0,1030.0,1041.0,1036.0,1028.0,1031.0,1032.0,1029.0,1037.0,1033.0,1029.0,1033.0,1033.0,1029.0,1036.0,1032.0,1022.0,1023.0,1023.0,1023.0,1024.0,1022.0,1032.0,1040.0,1037.0,1032.0,1042.0,1037.0,1028.0,1035.0,1033.0,1032.0,1040.0,1035.0,1027.0,1031.0,1029.0,1030.0,1034.0,1975,2027,1909,	00:32:02.484,0.05419921875,0.04345703125,1.017578125,-0.18310546875,0.18310546875,0.06103515625,2.471923828125,-2.9937744140625,53.470458984375,459.0,-1595.0,-2570.0,0.892333984375,0.031005859375,-0.013641357421875,0.45013427734375,2.470229088388253,-2.993309873939029,48.862607005238814,0.9097029078009665,0.030418543596232365,-0.0148621376383753,0.41387733521995174,1,	00:32:02.485,0.00830078125,0.07373046875,1.00390625,-0.91552734375,-1.3427734375,-0.48828125,4.1912841796875,-0.4833984375,103.1561279296875,-370.0,-1303.0,-1934.0,-0.62091064453125,-0.026031494140625,-0.026031494140625,-0.78302001953125,4.192992045677899,-0.48346684874174756,104.51023739890272,-0.6116093975242437,-0.02572765446414594,-0.026346281471235605,-0.7903024143379821,1
1782117429.713771,0.327,1023.0,1023.0,1024.0,1022.0,1023.0,1023.0,1023.0,1024.0,1022.0,1023.0,1023.0,1024.0,1023.0,1024.0,1023.0,1023.0,1023.0,1023.0,1023.0,1023.0,1024.0,1023.0,1023.0,1022.0,1023.0,1024.0,1023.0,1023.0,1024.0,1024.0,1023.0,1023.0,1023.0,1022.0,1023.0,1023.0,1023.0,1024.0,1023.0,1023.0,1022.0,1022.0,1022.0,1023.0,1023.0,1023.0,1024.0,1023.0,1023.0,1022.0,1022.0,1023.0,1023.0,1023.0,1023.0,1024.0,1024.0,1023.0,1023.0,1022.0,1022.0,1024.0,1023.0,1023.0,1023.0,1023.0,1024.0,1023.0,1023.0,1022.0,1022.0,1023.0,1023.0,1023.0,1023.0,1023.0,1023.0,1023.0,1022.0,1022.0,1022.0,1023.0,1023.0,1024.0,1023.0,1023.0,1024.0,1023.0,1023.0,1023.0,1022.0,1023.0,1022.0,1023.0,1024.0,1024.0,1024.0,1024.0,1023.0,1024.0,1022.0,1023.0,1023.0,1024.0,1024.0,1024.0,1025.0,1024.0,1024.0,1024.0,1023.0,1023.0,1022.0,1023.0,1022.0,1023.0,1024.0,1023.0,1023.0,1021.0,1022.0,1023.0,1023.0,1023.0,1024.0,1024.0,1024.0,1023.0,1023.0,1022.0,1023.0,1024.0,1023.0,1024.0,1024.0,1023.0,1023.0,1023.0,1024.0,1025.0,1026.0,1025.0,1024.0,1022.0,1024.0,1024.0,1024.0,1025.0,1024.0,1024.0,1023.0,1024.0,1024.0,1024.0,1026.0,1026.0,1023.0,1024.0,1025.0,1026.0,1028.0,1027.0,1023.0,1026.0,1026.0,1030.0,1032.0,1030.0,1024.0,1027.0,1029.0,1030.0,1035.0,1030.0,1024.0,1029.0,1032.0,1031.0,1040.0,1032.0,1024.0,1029.0,1031.0,1031.0,1040.0,1034.0,1026.0,1031.0,1033.0,1031.0,1041.0,1037.0,1028.0,1033.0,1035.0,1030.0,1042.0,1035.0,1027.0,1031.0,1031.0,1028.0,1037.0,1034.0,1029.0,1032.0,1032.0,1029.0,1037.0,1033.0,1022.0,1023.0,1023.0,1024.0,1024.0,1023.0,1032.0,1040.0,1036.0,1032.0,1041.0,1037.0,1028.0,1035.0,1033.0,1032.0,1040.0,1036.0,1026.0,1032.0,1029.0,1031.0,1034.0,1975,2027,1908,	00:32:02.494,0.0537109375,0.04443359375,1.01806640625,-0.18310546875,0.18310546875,0.06103515625,2.537841796875,-3.0487060546875,53.470458984375,463.0,-1593.0,-2572.0,0.892303466796875,0.03173828125,-0.0137939453125,0.450103759765625,2.5389651858216573,-3.0497751762795655,48.85957594252073,0.9096791066804367,0.031167232430352826,-0.015063184607777405,0.41386667776131336,1,	00:32:02.496,0.0087890625,0.07373046875,1.00537109375,-0.91552734375,-1.3427734375,-0.48828125,4.1912841796875,-0.5877685546875,103.150634765625,-369.0,-1304.0,-1933.0,-0.620941162109375,-0.0267333984375,-0.02545166015625,-0.782989501953125,4.1917099678565375,-0.5878298768127217,104.50432088183763,-0.6116215484864822,-0.026441719532109973,-0.02577882417461235,-0.790288155750393,1
1782117429.723693,0.337,1022.0,1023.0,1023.0,1022.0,1023.0,1022.0,1023.0,1024.0,1023.0,1023.0,1023.0,1023.0,1024.0,1024.0,1023.0,1023.0,1022.0,1023.0,1023.0,1024.0,1024.0,1023.0,1023.0,1022.0,1023.0,1023.0,1023.0,1023.0,1024.0,1024.0,1023.0,1023.0,1023.0,1023.0,1024.0,1024.0,1024.0,1024.0,1023.0,1024.0,1024.0,1022.0,1023.0,1023.0,1023.0,1023.0,1024.0,1023.0,1023.0,1023.0,1022.0,1023.0,1023.0,1023.0,1023.0,1023.0,1024.0,1024.0,1023.0,1022.0,1022.0,1023.0,1023.0,1022.0,1022.0,1023.0,1024.0,1023.0,1022.0,1022.0,1022.0,1023.0,1023.0,1023.0,1023.0,1023.0,1024.0,1023.0,1023.0,1022.0,1023.0,1023.0,1023.0,1023.0,1024.0,1023.0,1024.0,1024.0,1023.0,1023.0,1023.0,1023.0,1023.0,1024.0,1024.0,1024.0,1024.0,1024.0,1024.0,1024.0,1023.0,1023.0,1023.0,1023.0,1024.0,1024.0,1024.0,1024.0,1024.0,1024.0,1022.0,1023.0,1022.0,1023.0,1023.0,1023.0,1024.0,1024.0,1023.0,1021.0,1022.0,1023.0,1024.0,1024.0,1023.0,1024.0,1023.0,1024.0,1023.0,1023.0,1024.0,1023.0,1024.0,1024.0,1024.0,1023.0,1023.0,1024.0,1024.0,1024.0,1025.0,1024.0,1024.0,1024.0,1023.0,1024.0,1024.0,1026.0,1024.0,1024.0,1023.0,1024.0,1024.0,1025.0,1026.0,1025.0,1023.0,1024.0,1024.0,1027.0,1028.0,1027.0,1024.0,1026.0,1026.0,1029.0,1032.0,1029.0,1024.0,1027.0,1028.0,1030.0,1035.0,1031.0,1024.0,1029.0,1031.0,1032.0,1040.0,1032.0,1025.0,1029.0,1031.0,1031.0,1041.0,1033.0,1027.0,1032.0,1033.0,1031.0,1042.0,1036.0,1028.0,1034.0,1035.0,1031.0,1041.0,1036.0,1027.0,1031.0,1032.0,1028.0,1038.0,1034.0,1029.0,1033.0,1033.0,1029.0,1037.0,1033.0,1021.0,1023.0,1023.0,1023.0,1025.0,1022.0,1033.0,1040.0,1036.0,1032.0,1042.0,1037.0,1028.0,1035.0,1033.0,1032.0,1039.0,1035.0,1026.0,1031.0,1029.0,1030.0,1033.0,1976,2027,1908,	00:32:02.505,0.0546875,0.0439453125,1.01708984375,-0.244140625,0.244140625,0.06103515625,2.449951171875,-3.0816650390625,53.4759521484375,461.0,-1592.0,-2572.0,0.892303466796875,0.03118896484375,-0.014373779296875,0.450164794921875,2.4508964182073143,-3.080463104224037,48.86487206663459,0.9096747755649313,0.030579368947965063,-0.015623588373555333,0.4138992732319906,1,	00:32:02.506,0.0087890625,0.07373046875,1.00537109375,-0.9765625,-1.28173828125,-0.48828125,4.185791015625,-0.5108642578125,103.1451416015625,-371.0,-1303.0,-1935.0,-0.621002197265625,-0.026153564453125,-0.025848388671875,-0.782958984375,4.184757504590799,-0.5086271192413657,104.49848085932584,-0.6116854029808587,-0.025859868409606433,-0.02615249495950674,-0.7902457098860931,1
1782117429.733768,0.347,1023.0,1023.0,1024.0,1022.0,1023.0,1023.0,1024.0,1024.0,1023.0,1023.0,1023.0,1023.0,1023.0,1024.0,1023.0,1023.0,1023.0,1023.0,1023.0,1023.0,1024.0,1024.0,1023.0,1022.0,1023.0,1023.0,1023.0,1024.0,1024.0,1022.0,1023.0,1023.0,1022.0,1022.0,1024.0,1023.0,1024.0,1024.0,1023.0,1024.0,1023.0,1023.0,1023.0,1023.0,1023.0,1023.0,1024.0,1023.0,1023.0,1022.0,1023.0,1023.0,1022.0,1023.0,1023.0,1023.0,1024.0,1023.0,1023.0,1022.0,1022.0,1023.0,1023.0,1023.0,1023.0,1023.0,1024.0,1023.0,1022.0,1022.0,1022.0,1023.0,1023.0,1023.0,1022.0,1023.0,1024.0,1023.0,1023.0,1023.0,1023.0,1023.0,1023.0,1023.0,1023.0,1023.0,1024.0,1023.0,1023.0,1023.0,1022.0,1023.0,1023.0,1023.0,1024.0,1024.0,1024.0,1024.0,1024.0,1024.0,1023.0,1023.0,1023.0,1024.0,1024.0,1024.0,1025.0,1024.0,1024.0,1024.0,1023.0,1023.0,1022.0,1023.0,1022.0,1023.0,1024.0,1024.0,1022.0,1021.0,1022.0,1023.0,1023.0,1023.0,1024.0,1024.0,1024.0,1023.0,1023.0,1022.0,1023.0,1023.0,1024.0,1024.0,1024.0,1023.0,1024.0,1024.0,1024.0,1024.0,1026.0,1024.0,1024.0,1022.0,1024.0,1024.0,1024.0,1025.0,1024.0,1024.0,1023.0,1024.0,1024.0,1025.0,1027.0,1025.0,1023.0,1024.0,1024.0,1027.0,1028.0,1026.0,1024.0,1026.0,1027.0,1029.0,1032.0,1029.0,1024.0,1027.0,1029.0,1031.0,1035.0,1030.0,1025.0,1028.0,1032.0,1032.0,1040.0,1032.0,1025.0,1029.0,1032.0,1030.0,1041.0,1033.0,1027.0,1032.0,1033.0,1031.0,1041.0,1036.0,1028.0,1034.0,1034.0,1031.0,1041.0,1035.0,1028.0,1031.0,1032.0,1029.0,1037.0,1033.0,1029.0,1033.0,1033.0,1029.0,1036.0,1033.0,1022.0,1023.0,1023.0,1024.0,1024.0,1022.0,1033.0,1040.0,1036.0,1032.0,1042.0,1038.0,1029.0,1035.0,1032.0,1032.0,1039.0,1036.0,1026.0,1032.0,1028.0,1031.0,1033.0,1976,2027,1908,	00:32:02.515,0.05517578125,0.044921875,1.01806640625,-0.18310546875,0.18310546875,0.06103515625,2.537841796875,-3.09814453125,53.470458984375,462.0,-1593.0,-2570.0,0.89227294921875,0.031951904296875,-0.014190673828125,0.45013427734375,2.5379991605265104,-3.100696947452404,48.86076462964363,0.9096601536339601,0.031343156684946485,-0.015470803500601135,0.41388001360141613,1,	00:32:02.516,0.00927734375,0.07421875,1.0048828125,-0.91552734375,-1.28173828125,-0.48828125,4.2572021484375,-0.560302734375,103.1341552734375,-369.0,-1304.0,-1935.0,-0.621002197265625,-0.02691650390625,-0.02606201171875,-0.78289794921875,4.25809171383969,-0.5606429470215374,104.49191074477017,-0.6116994065874753,-0.02661144004204731,-0.026378918782782597,-0.7902023917220641,1
1782117429.743800,0.357,1022.0,1023.0,1024.0,1022.0,1023.0,1022.0,1023.0,1024.0,1023.0,1023.0,1023.0,1023.0,1024.0,1024.0,1023.0,1023.0,1023.0,1023.0,1023.0,1023.0,1024.0,1023.0,1023.0,1023.0,1023.0,1023.0,1023.0,1024.0,1024.0,1023.0,1023.0,1023.0,1022.0,1023.0,1023.0,1023.0,1024.0,1024.0,1023.0,1023.0,1023.0,1023.0,1022.0,1023.0,1023.0,1024.0,1024.0,1024.0,1023.0,1022.0,1022.0,1023.0,1023.0,1023.0,1023.0,1023.0,1024.0,1023.0,1023.0,1022.0,1022.0,1023.0,1023.0,1023.0,1023.0,1024.0,1024.0,1023.0,1023.0,1022.0,1022.0,1023.0,1023.0,1023.0,1023.0,1023.0,1024.0,1023.0,1022.0,1022.0,1022.0,1023.0,1022.0,1023.0,1023.0,1024.0,1024.0,1024.0,1023.0,1023.0,1023.0,1023.0,1023.0,1024.0,1024.0,1024.0,1024.0,1024.0,1023.0,1024.0,1023.0,1024.0,1023.0,1024.0,1024.0,1024.0,1024.0,1024.0,1023.0,1024.0,1023.0,1023.0,1022.0,1023.0,1023.0,1024.0,1024.0,1023.0,1023.0,1021.0,1022.0,1023.0,1023.0,1023.0,1024.0,1024.0,1023.0,1023.0,1022.0,1023.0,1023.0,1024.0,1024.0,1024.0,1023.0,1023.0,1023.0,1024.0,1024.0,1024.0,1026.0,1024.0,1024.0,1023.0,1024.0,1024.0,1024.0,1025.0,1024.0,1024.0,1023.0,1023.0,1024.0,1024.0,1026.0,1026.0,1024.0,1024.0,1024.0,1027.0,1028.0,1026.0,1024.0,1026.0,1027.0,1029.0,1031.0,1029.0,1024.0,1027.0,1029.0,1030.0,1035.0,1030.0,1025.0,1029.0,1031.0,1031.0,1040.0,1032.0,1025.0,1030.0,1031.0,1030.0,1040.0,1033.0,1026.0,1033.0,1034.0,1031.0,1041.0,1036.0,1028.0,1035.0,1035.0,1031.0,1040.0,1036.0,1027.0,1032.0,1032.0,1029.0,1037.0,1033.0,1029.0,1033.0,1033.0,1029.0,1036.0,1034.0,1022.0,1023.0,1023.0,1023.0,1024.0,1023.0,1033.0,1040.0,1036.0,1032.0,1041.0,1037.0,1029.0,1035.0,1033.0,1032.0,1039.0,1036.0,1026.0,1032.0,1029.0,1030.0,1033.0,1976,2027,1908,	00:32:02.525,0.05517578125,0.04443359375,1.017578125,-0.244140625,0.18310546875,0.06103515625,2.4444580078125,-3.09814453125,53.4759521484375,462.0,-1593.0,-2569.0,0.89227294921875,0.03118896484375,-0.014556884765625,0.450164794921875,2.443799219674755,-3.0989979464206288,48.866416387196516,0.9096656942601339,0.030590018897763964,-0.015796024806071937,0.41391190008308415,1,	00:32:02.526,0.0087890625,0.07275390625,1.00439453125,-0.91552734375,-1.28173828125,-0.48828125,4.1693115234375,-0.5328369140625,103.1341552734375,-371.0,-1304.0,-1936.0,-0.621063232421875,-0.026214599609375,-0.025604248046875,-0.78289794921875,4.168067823624009,-0.5304573328109613,104.48685725488258,-0.6117633130681267,-0.02592391640667015,-0.02591819126317763,-0.7901910191236637,1
1782117429.756059,0.369,1023.0,1023.0,1024.0,1023.0,1023.0,1023.0,1023.0,1024.0,1023.0,1023.0,1024.0,1024.0,1023.0,1024.0,1023.0,1023.0,1023.0,1023.0,1023.0,1024.0,1023.0,1023.0,1023.0,1022.0,1023.0,1024.0,1023.0,1023.0,1024.0,1024.0,1023.0,1023.0,1023.0,1023.0,1023.0,1024.0,1023.0,1024.0,1023.0,1023.0,1023.0,1023.0,1023.0,1023.0,1023.0,1023.0,1024.0,1023.0,1023.0,1022.0,1022.0,1023.0,1023.0,1023.0,1023.0,1024.0,1024.0,1023.0,1023.0,1022.0,1022.0,1023.0,1023.0,1023.0,1022.0,1023.0,1024.0,1023.0,1023.0,1022.0,1023.0,1023.0,1022.0,1023.0,1023.0,1023.0,1024.0,1023.0,1023.0,1023.0,1022.0,1023.0,1023.0,1024.0,1024.0,1024.0,1024.0,1024.0,1023.0,1023.0,1022.0,1023.0,1023.0,1024.0,1024.0,1024.0,1024.0,1024.0,1024.0,1024.0,1023.0,1023.0,1023.0,1024.0,1024.0,1024.0,1024.0,1024.0,1024.0,1024.0,1023.0,1023.0,1022.0,1023.0,1023.0,1023.0,1024.0,1023.0,1022.0,1021.0,1022.0,1023.0,1023.0,1023.0,1024.0,1024.0,1023.0,1024.0,1023.0,1022.0,1023.0,1023.0,1024.0,1024.0,1023.0,1023.0,1023.0,1024.0,1024.0,1024.0,1026.0,1024.0,1024.0,1023.0,1024.0,1024.0,1024.0,1025.0,1025.0,1024.0,1023.0,1024.0,1024.0,1025.0,1026.0,1025.0,1023.0,1024.0,1024.0,1026.0,1028.0,1027.0,1024.0,1026.0,1027.0,1029.0,1031.0,1029.0,1024.0,1027.0,1028.0,1030.0,1034.0,1030.0,1024.0,1029.0,1032.0,1031.0,1040.0,1032.0,1025.0,1030.0,1032.0,1030.0,1040.0,1033.0,1025.0,1033.0,1033.0,1031.0,1040.0,1036.0,1028.0,1035.0,1035.0,1031.0,1041.0,1036.0,1027.0,1032.0,1032.0,1029.0,1037.0,1033.0,1030.0,1033.0,1033.0,1029.0,1037.0,1033.0,1022.0,1023.0,1023.0,1023.0,1024.0,1023.0,1033.0,1041.0,1036.0,1032.0,1042.0,1037.0,1029.0,1036.0,1033.0,1032.0,1039.0,1035.0,1026.0,1031.0,1029.0,1029.0,1033.0,1976,2027,1908,	00:32:02.536,0.0546875,0.0439453125,1.01806640625,-0.244140625,0.18310546875,0.06103515625,2.5048828125,-3.0322265625,53.4759521484375,461.0,-1595.0,-2574.0,0.892303466796875,0.03143310546875,-0.0137939453125,0.45013427734375,2.5071454484308218,-3.0332951785714677,48.86358295468226,0.9096780287232265,0.030855790519522513,-0.015046131154959301,0.4138930033075069,1,	00:32:02.537,0.00927734375,0.0732421875,1.0048828125,-0.91552734375,-1.28173828125,-0.48828125,4.1802978515625,-0.4559326171875,103.1231689453125,-371.0,-1305.0,-1933.0,-0.621124267578125,-0.0257568359375,-0.026092529296875,-0.782867431640625,4.178642369281124,-0.4533517665509006,104.48088049323009,-0.6118232927503999,-0.025450183706716006,-0.02640159391253148,-0.7901439757640571,1
1782117429.764943,0.378,1022.0,1023.0,1024.0,1022.0,1023.0,1023.0,1024.0,1024.0,1023.0,1023.0,1023.0,1023.0,1024.0,1024.0,1023.0,1023.0,1022.0,1023.0,1023.0,1023.0,1024.0,1023.0,1023.0,1022.0,1024.0,1023.0,1023.0,1023.0,1024.0,1023.0,1023.0,1023.0,1022.0,1023.0,1023.0,1023.0,1023.0,1024.0,1023.0,1023.0,1023.0,1023.0,1023.0,1023.0,1023.0,1023.0,1024.0,1023.0,1023.0,1022.0,1023.0,1023.0,1023.0,1024.0,1023.0,1023.0,1024.0,1023.0,1023.0,1022.0,1022.0,1023.0,1023.0,1023.0,1023.0,1023.0,1024.0,1023.0,1022.0,1022.0,1022.0,1023.0,1022.0,1023.0,1023.0,1023.0,1024.0,1024.0,1023.0,1022.0,1022.0,1023.0,1023.0,1023.0,1023.0,1023.0,1024.0,1024.0,1023.0,1023.0,1022.0,1023.0,1023.0,1024.0,1024.0,1024.0,1024.0,1024.0,1024.0,1023.0,1023.0,1023.0,1022.0,1024.0,1024.0,1024.0,1025.0,1024.0,1024.0,1024.0,1023.0,1023.0,1022.0,1023.0,1023.0,1024.0,1024.0,1023.0,1023.0,1021.0,1021.0,1023.0,1023.0,1023.0,1024.0,1024.0,1024.0,1023.0,1023.0,1022.0,1023.0,1023.0,1024.0,1024.0,1023.0,1023.0,1023.0,1024.0,1024.0,1024.0,1026.0,1024.0,1024.0,1023.0,1024.0,1024.0,1024.0,1025.0,1024.0,1024.0,1023.0,1024.0,1024.0,1024.0,1026.0,1025.0,1023.0,1024.0,1024.0,1027.0,1028.0,1027.0,1024.0,1026.0,1027.0,1030.0,1032.0,1030.0,1024.0,1027.0,1029.0,1031.0,1034.0,1031.0,1024.0,1029.0,1032.0,1031.0,1039.0,1033.0,1025.0,1029.0,1031.0,1030.0,1040.0,1034.0,1026.0,1032.0,1033.0,1031.0,1041.0,1036.0,1028.0,1034.0,1036.0,1031.0,1040.0,1036.0,1027.0,1032.0,1032.0,1029.0,1037.0,1033.0,1029.0,1034.0,1033.0,1029.0,1036.0,1032.0,1022.0,1023.0,1023.0,1023.0,1024.0,1022.0,1032.0,1041.0,1036.0,1032.0,1041.0,1038.0,1028.0,1036.0,1033.0,1033.0,1038.0,1035.0,1026.0,1032.0,1029.0,1030.0,1033.0,1976,2027,1908,	00:32:02.546,0.0537109375,0.04248046875,1.01708984375,-0.244140625,0.18310546875,0.06103515625,2.4114990234375,-3.021240234375,53.4814453125,461.0,-1593.0,-2573.0,0.892303466796875,0.030670166015625,-0.014068603515625,0.450164794921875,2.4135540873481602,-3.021212184387405,48.86908533629819,0.9096865054744346,0.030070010752602513,-0.015286753232174365,0.413923388305938,1,	00:32:02.547,0.0087890625,0.07421875,1.0048828125,-0.91552734375,-1.3427734375,-0.54931640625,4.2352294921875,-0.5328369140625,103.11767578125,-370.0,-1305.0,-1935.0,-0.62115478515625,-0.026580810546875,-0.02606201171875,-0.782806396484375,4.233582510066324,-0.5317280847937562,104.47387927358814,-0.6118375233881214,-0.026285417439214524,-0.026360194082066,-0.790106994002896,1
1782117429.774695,0.388,1023.0,1023.0,1024.0,1022.0,1023.0,1022.0,1023.0,1024.0,1022.0,1023.0,1023.0,1024.0,1024.0,1024.0,1023.0,1023.0,1023.0,1023.0,1023.0,1024.0,1024.0,1023.0,1022.0,1023.0,1023.0,1023.0,1023.0,1024.0,1024.0,1024.0,1023.0,1023.0,1022.0,1023.0,1024.0,1023.0,1023.0,1024.0,1023.0,1023.0,1023.0,1023.0,1023.0,1023.0,1023.0,1024.0,1024.0,1024.0,1023.0,1022.0,1022.0,1024.0,1023.0,1023.0,1023.0,1023.0,1024.0,1023.0,1023.0,1022.0,1023.0,1023.0,1022.0,1023.0,1022.0,1024.0,1024.0,1023.0,1023.0,1021.0,1022.0,1023.0,1023.0,1023.0,1023.0,1023.0,1024.0,1024.0,1023.0,1022.0,1022.0,1023.0,1023.0,1023.0,1023.0,1023.0,1023.0,1024.0,1024.0,1023.0,1023.0,1023.0,1023.0,1024.0,1024.0,1024.0,1024.0,1024.0,1024.0,1024.0,1023.0,1023.0,1023.0,1024.0,1024.0,1024.0,1024.0,1024.0,1024.0,1024.0,1023.0,1023.0,1022.0,1023.0,1023.0,1023.0,1024.0,1023.0,1023.0,1021.0,1023.0,1023.0,1023.0,1023.0,1024.0,1024.0,1023.0,1023.0,1023.0,1023.0,1024.0,1023.0,1024.0,1024.0,1023.0,1023.0,1023.0,1024.0,1024.0,1024.0,1025.0,1025.0,1025.0,1023.0,1024.0,1024.0,1024.0,1025.0,1024.0,1024.0,1023.0,1024.0,1024.0,1025.0,1026.0,1025.0,1023.0,1024.0,1024.0,1027.0,1027.0,1026.0,1024.0,1027.0,1027.0,1030.0,1032.0,1030.0,1024.0,1027.0,1029.0,1030.0,1034.0,1030.0,1025.0,1029.0,1031.0,1031.0,1040.0,1032.0,1025.0,1030.0,1031.0,1030.0,1040.0,1033.0,1027.0,1033.0,1034.0,1030.0,1040.0,1036.0,1028.0,1035.0,1035.0,1030.0,1040.0,1036.0,1027.0,1033.0,1032.0,1028.0,1036.0,1034.0,1029.0,1033.0,1032.0,1029.0,1036.0,1033.0,1022.0,1024.0,1023.0,1023.0,1024.0,1022.0,1033.0,1041.0,1036.0,1032.0,1041.0,1038.0,1029.0,1036.0,1033.0,1033.0,1038.0,1035.0,1026.0,1032.0,1029.0,1030.0,1033.0,1976,2027,1908,	00:32:02.556,0.05419921875,0.0439453125,1.017578125,-0.244140625,0.18310546875,0.06103515625,2.493896484375,-3.05419921875,53.4759521484375,462.0,-1593.0,-2571.0,0.89227294921875,0.03143310546875,-0.014007568359375,0.450164794921875,2.49559202376518,-3.0547784805745093,48.86529473655147,0.9096687315527349,0.030841700049936378,-0.015258033723315946,0.4139067295661745,1,	00:32:02.557,0.00927734375,0.07421875,1.0048828125,-0.91552734375,-1.40380859375,-0.54931640625,4.141845703125,-0.5108642578125,103.1121826171875,-370.0,-1306.0,-1936.0,-0.6212158203125,-0.02593994140625,-0.025543212890625,-0.782806396484375,4.140887302844401,-0.5082558195062302,104.46812096097742,-0.611904708616479,-0.02562997740864894,-0.025845148930517127,-0.7900935135208829,1
1782117429.785550,0.399,1023.0,1023.0,1023.0,1022.0,1023.0,1022.0,1023.0,1024.0,1022.0,1023.0,1024.0,1024.0,1023.0,1024.0,1023.0,1023.0,1022.0,1023.0,1023.0,1023.0,1024.0,1023.0,1023.0,1022.0,1023.0,1023.0,1023.0,1024.0,1024.0,1023.0,1023.0,1023.0,1022.0,1023.0,1023.0,1023.0,1024.0,1024.0,1023.0,1022.0,1023.0,1023.0,1022.0,1023.0,1023.0,1024.0,1024.0,1023.0,1023.0,1022.0,1023.0,1023.0,1023.0,1023.0,1023.0,1024.0,1024.0,1023.0,1023.0,1022.0,1022.0,1023.0,1023.0,1023.0,1023.0,1024.0,1023.0,1024.0,1023.0,1022.0,1022.0,1023.0,1023.0,1023.0,1023.0,1023.0,1024.0,1023.0,1022.0,1023.0,1022.0,1023.0,1023.0,1023.0,1023.0,1023.0,1024.0,1024.0,1023.0,1023.0,1023.0,1024.0,1023.0,1023.0,1024.0,1023.0,1024.0,1024.0,1023.0,1024.0,1023.0,1023.0,1023.0,1024.0,1024.0,1024.0,1024.0,1024.0,1024.0,1023.0,1023.0,1024.0,1022.0,1023.0,1022.0,1024.0,1024.0,1023.0,1023.0,1021.0,1022.0,1022.0,1023.0,1023.0,1024.0,1024.0,1023.0,1023.0,1022.0,1023.0,1023.0,1023.0,1023.0,1024.0,1024.0,1023.0,1023.0,1024.0,1024.0,1025.0,1025.0,1024.0,1024.0,1023.0,1024.0,1024.0,1024.0,1025.0,1024.0,1024.0,1024.0,1024.0,1024.0,1024.0,1026.0,1025.0,1023.0,1024.0,1024.0,1026.0,1028.0,1027.0,1024.0,1026.0,1027.0,1030.0,1031.0,1030.0,1024.0,1027.0,1029.0,1031.0,1034.0,1030.0,1024.0,1029.0,1031.0,1031.0,1040.0,1033.0,1025.0,1031.0,1031.0,1030.0,1040.0,1034.0,1027.0,1033.0,1033.0,1031.0,1041.0,1036.0,1028.0,1035.0,1035.0,1029.0,1040.0,1035.0,1028.0,1033.0,1032.0,1028.0,1037.0,1033.0,1029.0,1034.0,1032.0,1029.0,1036.0,1032.0,1022.0,1023.0,1023.0,1023.0,1024.0,1022.0,1033.0,1041.0,1036.0,1032.0,1041.0,1038.0,1028.0,1036.0,1033.0,1032.0,1039.0,1036.0,1026.0,1032.0,1029.0,1030.0,1032.0,1976,2027,1908,	00:32:02.566,0.0546875,0.04345703125,1.01806640625,-0.18310546875,0.1220703125,0.1220703125,2.406005859375,-3.0816650390625,53.4814453125,462.0,-1595.0,-2573.0,0.89227294921875,0.030853271484375,-0.014556884765625,0.4501953125,2.4066933665044004,-3.082802537887554,48.871227251895036,0.9096628710520221,0.03023776985837686,-0.01580015073923789,0.41394382896716964,1,	00:32:02.567,0.00927734375,0.07373046875,1.00439453125,-0.91552734375,-1.3427734375,-0.48828125,4.21875,-0.54931640625,103.106689453125,-370.0,-1306.0,-1936.0,-0.6212158203125,-0.026641845703125,-0.025848388671875,-0.782745361328125,4.218372695824495,-0.5506869288872502,104.46148460815158,-0.6119211731512714,-0.026337722917072065,-0.026151201415514864,-0.7900474143146351,1
1782117429.796114,0.409,1022.0,1024.0,1024.0,1022.0,1023.0,1023.0,1023.0,1024.0,1023.0,1023.0,1023.0,1023.0,1023.0,1024.0,1023.0,1023.0,1023.0,1023.0,1023.0,1023.0,1024.0,1023.0,1023.0,1022.0,1023.0,1024.0,1024.0,1024.0,1024.0,1024.0,1023.0,1023.0,1023.0,1022.0,1023.0,1023.0,1024.0,1023.0,1023.0,1024.0,1022.0,1023.0,1023.0,1023.0,1023.0,1024.0,1024.0,1023.0,1023.0,1022.0,1022.0,1023.0,1023.0,1023.0,1023.0,1024.0,1024.0,1023.0,1023.0,1022.0,1022.0,1023.0,1023.0,1023.0,1022.0,1023.0,1024.0,1023.0,1024.0,1022.0,1022.0,1023.0,1022.0,1023.0,1023.0,1023.0,1024.0,1023.0,1023.0,1022.0,1022.0,1023.0,1023.0,1023.0,1023.0,1023.0,1024.0,1023.0,1024.0,1023.0,1023.0,1024.0,1023.0,1024.0,1024.0,1024.0,1024.0,1024.0,1024.0,1024.0,1023.0,1023.0,1023.0,1024.0,1024.0,1024.0,1025.0,1024.0,1024.0,1024.0,1023.0,1023.0,1022.0,1023.0,1022.0,1023.0,1024.0,1023.0,1023.0,1021.0,1022.0,1022.0,1023.0,1024.0,1024.0,1024.0,1024.0,1023.0,1023.0,1023.0,1023.0,1023.0,1024.0,1024.0,1024.0,1024.0,1023.0,1024.0,1024.0,1025.0,1025.0,1025.0,1024.0,1023.0,1024.0,1023.0,1024.0,1026.0,1024.0,1024.0,1023.0,1023.0,1024.0,1025.0,1026.0,1025.0,1023.0,1024.0,1025.0,1026.0,1028.0,1027.0,1024.0,1026.0,1026.0,1030.0,1032.0,1030.0,1024.0,1027.0,1029.0,1031.0,1034.0,1031.0,1024.0,1029.0,1032.0,1031.0,1039.0,1032.0,1025.0,1030.0,1031.0,1030.0,1040.0,1034.0,1026.0,1033.0,1033.0,1030.0,1040.0,1037.0,1028.0,1035.0,1035.0,1030.0,1040.0,1036.0,1027.0,1032.0,1032.0,1028.0,1037.0,1034.0,1029.0,1034.0,1032.0,1029.0,1036.0,1033.0,1022.0,1023.0,1023.0,1023.0,1024.0,1022.0,1033.0,1041.0,1036.0,1032.0,1042.0,1038.0,1028.0,1036.0,1033.0,1032.0,1039.0,1037.0,1027.0,1032.0,1029.0,1030.0,1032.0,1975,2027,1909,	00:32:02.576,0.05419921875,0.0439453125,1.0185546875,-0.244140625,0.244140625,0.1220703125,2.48291015625,-3.0322265625,53.4759521484375,462.0,-1594.0,-2571.0,0.89227294921875,0.03125,-0.013885498046875,0.450164794921875,2.482097408128197,-3.031940790003231,48.868394439839946,0.909667762889941,0.03065270299977201,-0.015124557305451246,0.41392779651037204,1,	00:32:02.578,0.00927734375,0.07373046875,1.0048828125,-0.91552734375,-1.40380859375,-0.54931640625,4.1473388671875,-0.4998779296875,103.1011962890625,-370.0,-1304.0,-1933.0,-0.621307373046875,-0.025909423828125,-0.025634765625,-0.78271484375,4.146264534137016,-0.49790396510622587,104.45554554618525,-0.6119930331374056,-0.02559018049308762,-0.025934716373854964,-0.7900234556899036,1
1782117429.804644,0.418,1023.0,1023.0,1024.0,1022.0,1023.0,1023.0,1023.0,1024.0,1023.0,1023.0,1023.0,1023.0,1023.0,1024.0,1023.0,1023.0,1023.0,1023.0,1023.0,1024.0,1024.0,1023.0,1023.0,1022.0,1023.0,1024.0,1024.0,1024.0,1024.0,1023.0,1023.0,1024.0,1023.0,1022.0,1023.0,1023.0,1024.0,1024.0,1024.0,1023.0,1022.0,1023.0,1022.0,1023.0,1023.0,1024.0,1024.0,1023.0,1023.0,1022.0,1023.0,1023.0,1023.0,1023.0,1023.0,1024.0,1024.0,1023.0,1023.0,1022.0,1022.0,1023.0,1023.0,1023.0,1023.0,1024.0,1024.0,1023.0,1023.0,1022.0,1022.0,1023.0,1023.0,1023.0,1023.0,1023.0,1023.0,1023.0,1023.0,1022.0,1022.0,1024.0,1023.0,1023.0,1023.0,1023.0,1024.0,1024.0,1023.0,1023.0,1023.0,1024.0,1022.0,1024.0,1024.0,1024.0,1025.0,1024.0,1023.0,1024.0,1023.0,1023.0,1023.0,1024.0,1024.0,1025.0,1025.0,1024.0,1023.0,1024.0,1023.0,1023.0,1022.0,1023.0,1023.0,1023.0,1024.0,1023.0,1023.0,1021.0,1022.0,1023.0,1023.0,1024.0,1024.0,1024.0,1023.0,1023.0,1023.0,1023.0,1023.0,1023.0,1024.0,1024.0,1024.0,1023.0,1023.0,1024.0,1024.0,1025.0,1025.0,1025.0,1024.0,1023.0,1024.0,1023.0,1024.0,1025.0,1025.0,1024.0,1023.0,1024.0,1024.0,1025.0,1026.0,1025.0,1023.0,1024.0,1025.0,1026.0,1027.0,1027.0,1024.0,1026.0,1027.0,1030.0,1032.0,1030.0,1024.0,1028.0,1029.0,1030.0,1034.0,1030.0,1024.0,1029.0,1032.0,1031.0,1040.0,1032.0,1025.0,1030.0,1031.0,1030.0,1040.0,1033.0,1026.0,1033.0,1033.0,1030.0,1040.0,1036.0,1028.0,1035.0,1035.0,1030.0,1040.0,1036.0,1027.0,1033.0,1033.0,1028.0,1037.0,1034.0,1029.0,1034.0,1032.0,1029.0,1036.0,1033.0,1022.0,1023.0,1023.0,1023.0,1024.0,1023.0,1033.0,1041.0,1036.0,1032.0,1041.0,1038.0,1028.0,1036.0,1033.0,1032.0,1038.0,1036.0,1026.0,1032.0,1029.0,1030.0,1032.0,1975,2027,1908,	00:32:02.587,0.0546875,0.0439453125,1.01806640625,-0.244140625,0.244140625,0.06103515625,2.4554443359375,-3.1201171875,53.4814453125,461.0,-1594.0,-2569.0,0.89227294921875,0.0313720703125,-0.0146484375,0.4501953125,2.4565022269486043,-3.1181681947520246,48.87035282639036,0.9096424652552735,0.030760473079319218,-0.01590134317729146,0.41394628393718325,1,	00:32:02.588,0.00927734375,0.07470703125,1.00439453125,-0.91552734375,-1.40380859375,-0.48828125,4.2242431640625,-0.538330078125,103.095703125,-371.0,-1307.0,-1939.0,-0.621307373046875,-0.026580810546875,-0.025970458984375,-0.782684326171875,4.225268552517282,-0.5359960486028856,104.44886872334754,-0.6120106706040302,-0.02627618175166769,-0.02627433698219812,-0.7899760506214759,1
1782117429.816011,0.429,1022.0,1023.0,1024.0,1023.0,1023.0,1023.0,1024.0,1024.0,1023.0,1023.0,1023.0,1024.0,1023.0,1024.0,1023.0,1023.0,1022.0,1023.0,1023.0,1024.0,1023.0,1023.0,1023.0,1022.0,1023.0,1023.0,1024.0,1024.0,1024.0,1024.0,1023.0,1023.0,1022.0,1023.0,1023.0,1023.0,1023.0,1024.0,1024.0,1023.0,1022.0,1022.0,1023.0,1023.0,1023.0,1023.0,1024.0,1023.0,1023.0,1022.0,1022.0,1023.0,1023.0,1023.0,1023.0,1023.0,1024.0,1023.0,1023.0,1022.0,1022.0,1023.0,1023.0,1024.0,1023.0,1024.0,1024.0,1023.0,1022.0,1022.0,1022.0,1024.0,1022.0,1023.0,1023.0,1024.0,1024.0,1023.0,1023.0,1022.0,1022.0,1023.0,1023.0,1024.0,1023.0,1023.0,1024.0,1024.0,1023.0,1023.0,1023.0,1023.0,1023.0,1024.0,1024.0,1024.0,1025.0,1024.0,1024.0,1024.0,1022.0,1023.0,1023.0,1024.0,1024.0,1024.0,1024.0,1024.0,1024.0,1024.0,1023.0,1023.0,1022.0,1023.0,1023.0,1022.0,1024.0,1023.0,1023.0,1021.0,1022.0,1023.0,1023.0,1024.0,1024.0,1024.0,1024.0,1023.0,1022.0,1023.0,1024.0,1023.0,1024.0,1024.0,1023.0,1023.0,1023.0,1024.0,1024.0,1024.0,1026.0,1025.0,1024.0,1023.0,1024.0,1024.0,1024.0,1025.0,1024.0,1024.0,1023.0,1024.0,1024.0,1025.0,1026.0,1025.0,1023.0,1024.0,1024.0,1027.0,1028.0,1027.0,1024.0,1026.0,1027.0,1029.0,1032.0,1030.0,1024.0,1027.0,1028.0,1030.0,1034.0,1030.0,1024.0,1029.0,1031.0,1031.0,1039.0,1033.0,1025.0,1030.0,1032.0,1030.0,1040.0,1034.0,1026.0,1033.0,1033.0,1031.0,1040.0,1037.0,1028.0,1035.0,1035.0,1030.0,1040.0,1036.0,1027.0,1032.0,1032.0,1029.0,1037.0,1034.0,1029.0,1033.0,1033.0,1029.0,1036.0,1033.0,1022.0,1023.0,1023.0,1024.0,1024.0,1023.0,1033.0,1041.0,1036.0,1032.0,1041.0,1039.0,1028.0,1037.0,1033.0,1032.0,1038.0,1037.0,1026.0,1032.0,1029.0,1030.0,1032.0,1975,2027,1909,	00:32:02.597,0.05419921875,0.04345703125,1.01806640625,-0.244140625,0.18310546875,0.06103515625,2.43896484375,-3.0267333984375,53.4814453125,461.0,-1593.0,-2573.0,0.89227294921875,0.0308837890625,-0.014007568359375,0.4501953125,2.438965921245322,-3.0260990576545463,48.871847130552986,0.9096684389311205,0.030289718044588066,-0.015233045156034734,0.41394905305927676,1,	00:32:02.598,0.00927734375,0.07421875,1.0048828125,-0.91552734375,-1.3427734375,-0.54931640625,4.2022705078125,-0.4559326171875,103.084716796875,-370.0,-1303.0,-1933.0,-0.621368408203125,-0.02593994140625,-0.0262451171875,-0.78265380859375,4.20353422771932,-0.4582015551641731,104.4425042611878,-0.6120809997852379,-0.02562540700177287,-0.026538746617974642,-0.7899341005082919,1
1782117429.826369,0.440,1023.0,1024.0,1024.0,1022.0,1023.0,1023.0,1023.0,1024.0,1023.0,1022.0,1023.0,1024.0,1023.0,1024.0,1023.0,1023.0,1023.0,1023.0,1023.0,1023.0,1024.0,1023.0,1022.0,1023.0,1023.0,1023.0,1023.0,1023.0,1024.0,1023.0,1023.0,1023.0,1022.0,1022.0,1023.0,1023.0,1024.0,1024.0,1023.0,1023.0,1022.0,1022.0,1023.0,1024.0,1023.0,1023.0,1024.0,1023.0,1023.0,1023.0,1022.0,1023.0,1023.0,1023.0,1023.0,1024.0,1024.0,1023.0,1023.0,1022.0,1023.0,1023.0,1022.0,1023.0,1023.0,1023.0,1023.0,1023.0,1023.0,1022.0,1022.0,1023.0,1023.0,1023.0,1024.0,1023.0,1024.0,1023.0,1023.0,1022.0,1022.0,1023.0,1023.0,1023.0,1024.0,1024.0,1023.0,1023.0,1023.0,1023.0,1023.0,1023.0,1023.0,1024.0,1024.0,1024.0,1024.0,1024.0,1024.0,1024.0,1023.0,1023.0,1023.0,1024.0,1024.0,1024.0,1025.0,1024.0,1024.0,1023.0,1023.0,1023.0,1022.0,1023.0,1023.0,1023.0,1024.0,1023.0,1022.0,1021.0,1022.0,1022.0,1023.0,1023.0,1024.0,1024.0,1024.0,1024.0,1022.0,1023.0,1024.0,1023.0,1024.0,1024.0,1024.0,1022.0,1023.0,1024.0,1024.0,1025.0,1025.0,1024.0,1024.0,1023.0,1024.0,1024.0,1024.0,1025.0,1024.0,1024.0,1023.0,1024.0,1024.0,1025.0,1026.0,1025.0,1023.0,1024.0,1024.0,1026.0,1028.0,1027.0,1024.0,1026.0,1026.0,1030.0,1031.0,1030.0,1024.0,1028.0,1028.0,1030.0,1034.0,1031.0,1024.0,1030.0,1031.0,1031.0,1039.0,1033.0,1025.0,1030.0,1031.0,1030.0,1040.0,1034.0,1026.0,1032.0,1033.0,1030.0,1040.0,1037.0,1028.0,1035.0,1035.0,1031.0,1041.0,1037.0,1027.0,1032.0,1032.0,1028.0,1036.0,1034.0,1029.0,1033.0,1032.0,1029.0,1036.0,1034.0,1022.0,1023.0,1023.0,1023.0,1024.0,1022.0,1032.0,1041.0,1036.0,1032.0,1041.0,1039.0,1029.0,1036.0,1033.0,1032.0,1038.0,1036.0,1026.0,1032.0,1028.0,1030.0,1032.0,1975,2027,1908,	00:32:02.607,0.05517578125,0.0439453125,1.01806640625,-0.244140625,0.18310546875,0.06103515625,2.471923828125,-3.109130859375,53.4814453125,462.0,-1594.0,-2574.0,0.892242431640625,0.031463623046875,-0.014495849609375,0.4501953125,2.473794573208918,-3.107838690460972,48.870541534989464,0.9096401646159573,0.030860549676108167,-0.01575678557501812,0.41394941852777795,1,	00:32:02.608,0.00830078125,0.07373046875,1.00537109375,-0.91552734375,-1.3427734375,-0.54931640625,4.141845703125,-0.54931640625,103.0792236328125,-369.0,-1304.0,-1933.0,-0.62139892578125,-0.026214599609375,-0.02532958984375,-0.782623291015625,4.143171987894145,-0.5471335868708151,104.43649800033982,-0.612111560787693,-0.025917244409698666,-0.025646060549192138,-0.7899303850153946,1
1782117429.836671,0.450,1022.0,1023.0,1024.0,1022.0,1022.0,1022.0,1023.0,1024.0,1023.0,1023.0,1024.0,1023.0,1023.0,1024.0,1024.0,1023.0,1023.0,1023.0,1023.0,1023.0,1024.0,1023.0,1023.0,1022.0,1023.0,1024.0,1023.0,1023.0,1024.0,1023.0,1023.0,1022.0,1022.0,1022.0,1023.0,1023.0,1024.0,1024.0,1023.0,1023.0,1023.0,1022.0,1023.0,1023.0,1023.0,1024.0,1024.0,1023.0,1023.0,1022.0,1022.0,1023.0,1023.0,1023.0,1023.0,1024.0,1024.0,1023.0,1023.0,1022.0,1022.0,1024.0,1022.0,1022.0,1023.0,1023.0,1024.0,1023.0,1023.0,1021.0,1022.0,1023.0,1023.0,1023.0,1023.0,1023.0,1024.0,1024.0,1022.0,1022.0,1022.0,1023.0,1022.0,1023.0,1023.0,1023.0,1024.0,1023.0,1023.0,1023.0,1022.0,1023.0,1023.0,1024.0,1024.0,1024.0,1024.0,1024.0,1024.0,1024.0,1023.0,1023.0,1023.0,1024.0,1025.0,1025.0,1025.0,1024.0,1024.0,1024.0,1023.0,1023.0,1022.0,1023.0,1022.0,1023.0,1024.0,1023.0,1022.0,1021.0,1021.0,1022.0,1024.0,1023.0,1024.0,1024.0,1023.0,1023.0,1023.0,1023.0,1023.0,1023.0,1023.0,1024.0,1023.0,1023.0,1024.0,1024.0,1024.0,1025.0,1025.0,1025.0,1024.0,1022.0,1024.0,1024.0,1024.0,1024.0,1024.0,1024.0,1023.0,1024.0,1024.0,1025.0,1026.0,1025.0,1023.0,1024.0,1024.0,1026.0,1028.0,1027.0,1024.0,1026.0,1026.0,1029.0,1032.0,1029.0,1024.0,1028.0,1028.0,1031.0,1034.0,1031.0,1024.0,1030.0,1031.0,1031.0,1040.0,1032.0,1025.0,1030.0,1031.0,1030.0,1040.0,1034.0,1026.0,1033.0,1034.0,1031.0,1041.0,1037.0,1028.0,1035.0,1035.0,1030.0,1040.0,1036.0,1027.0,1033.0,1032.0,1029.0,1037.0,1034.0,1029.0,1033.0,1032.0,1029.0,1036.0,1033.0,1022.0,1023.0,1023.0,1023.0,1024.0,1022.0,1033.0,1041.0,1036.0,1032.0,1041.0,1038.0,1028.0,1036.0,1033.0,1032.0,1039.0,1036.0,1026.0,1032.0,1028.0,1030.0,1033.0,1975,2027,1909,	00:32:02.617,0.0546875,0.0439453125,1.01708984375,-0.18310546875,0.244140625,0.06103515625,2.471923828125,-3.0157470703125,53.4814453125,460.0,-1592.0,-2572.0,0.89227294921875,0.031097412109375,-0.013763427734375,0.4501953125,2.472593141067,-3.0138836863067326,48.87122055057809,0.9096652825378406,0.030512562718440845,-0.015014717483817844,0.41394759996959163,1,	00:32:02.619,0.009765625,0.07421875,1.0048828125,-0.91552734375,-1.28173828125,-0.48828125,4.2242431640625,-0.5712890625,103.07373046875,-371.0,-1303.0,-1934.0,-0.621429443359375,-0.026824951171875,-0.025787353515625,-0.7825927734375,4.2250438596143205,-0.5687188133883055,104.42981785958818,-0.6121328855015877,-0.026504844306826824,-0.02609353723061221,-0.7898797066835972,1
1782117429.846887,0.460,1023.0,1023.0,1023.0,1022.0,1023.0,1023.0,1023.0,1023.0,1022.0,1023.0,1023.0,1023.0,1023.0,1024.0,1023.0,1024.0,1023.0,1023.0,1023.0,1023.0,1024.0,1023.0,1023.0,1023.0,1022.0,1023.0,1023.0,1023.0,1024.0,1023.0,1023.0,1023.0,1023.0,1022.0,1023.0,1023.0,1024.0,1024.0,1024.0,1023.0,1023.0,1023.0,1023.0,1024.0,1023.0,1023.0,1024.0,1023.0,1023.0,1023.0,1022.0,1023.0,1023.0,1023.0,1023.0,1023.0,1024.0,1023.0,1023.0,1023.0,1023.0,1023.0,1023.0,1024.0,1023.0,1023.0,1024.0,1024.0,1023.0,1022.0,1022.0,1023.0,1022.0,1023.0,1023.0,1023.0,1023.0,1023.0,1023.0,1022.0,1022.0,1023.0,1022.0,1024.0,1024.0,1023.0,1024.0,1023.0,1023.0,1023.0,1023.0,1023.0,1023.0,1023.0,1024.0,1024.0,1025.0,1024.0,1023.0,1024.0,1023.0,1023.0,1023.0,1024.0,1024.0,1024.0,1024.0,1024.0,1024.0,1024.0,1023.0,1024.0,1022.0,1023.0,1023.0,1023.0,1024.0,1023.0,1023.0,1021.0,1021.0,1023.0,1023.0,1023.0,1024.0,1024.0,1024.0,1023.0,1023.0,1022.0,1023.0,1023.0,1024.0,1024.0,1024.0,1023.0,1023.0,1024.0,1024.0,1025.0,1026.0,1025.0,1024.0,1022.0,1024.0,1024.0,1024.0,1025.0,1024.0,1024.0,1023.0,1024.0,1024.0,1024.0,1026.0,1026.0,1023.0,1024.0,1024.0,1026.0,1028.0,1027.0,1024.0,1027.0,1026.0,1029.0,1032.0,1030.0,1024.0,1028.0,1028.0,1030.0,1034.0,1031.0,1024.0,1029.0,1031.0,1031.0,1040.0,1032.0,1025.0,1030.0,1031.0,1030.0,1040.0,1033.0,1026.0,1032.0,1033.0,1031.0,1041.0,1036.0,1028.0,1035.0,1035.0,1030.0,1041.0,1036.0,1028.0,1033.0,1032.0,1029.0,1038.0,1034.0,1029.0,1034.0,1032.0,1029.0,1037.0,1033.0,1022.0,1023.0,1023.0,1023.0,1025.0,1023.0,1033.0,1042.0,1035.0,1032.0,1042.0,1039.0,1029.0,1036.0,1033.0,1032.0,1039.0,1036.0,1026.0,1032.0,1028.0,1030.0,1033.0,1975,2027,1908,	00:32:02.628,0.0546875,0.04345703125,1.017578125,-0.244140625,0.244140625,0.06103515625,2.4334716796875,-3.0926513671875,53.4814453125,461.0,-1593.0,-2571.0,0.892242431640625,0.031097412109375,-0.014556884765625,0.450225830078125,2.4320742726425912,-3.0948563910228617,48.873965283084566,0.9096427566441686,0.030483061621547652,-0.015803473565493664,0.41396991250843307,1,	00:32:02.629,0.0087890625,0.0732421875,1.0048828125,-0.91552734375,-1.220703125,-0.48828125,4.1583251953125,-0.5108642578125,103.0682373046875,-370.0,-1305.0,-1933.0,-0.621490478515625,-0.026031494140625,-0.025634765625,-0.782562255859375,4.158008749812217,-0.5096566537566345,104.42458896225668,-0.612200590315207,-0.025740918048708476,-0.025945938585945034,-0.7898573609371606,1
1782117429.858502,0.472,1022.0,1022.0,1024.0,1023.0,1023.0,1022.0,1023.0,1024.0,1022.0,1023.0,1023.0,1024.0,1024.0,1024.0,1023.0,1022.0,1023.0,1023.0,1023.0,1023.0,1024.0,1023.0,1023.0,1022.0,1023.0,1024.0,1023.0,1024.0,1024.0,1023.0,1023.0,1023.0,1022.0,1023.0,1024.0,1023.0,1023.0,1024.0,1023.0,1023.0,1024.0,1023.0,1023.0,1023.0,1023.0,1023.0,1024.0,1024.0,1023.0,1022.0,1023.0,1023.0,1022.0,1023.0,1023.0,1023.0,1024.0,1023.0,1023.0,1022.0,1023.0,1024.0,1022.0,1023.0,1022.0,1023.0,1024.0,1023.0,1023.0,1022.0,1023.0,1023.0,1023.0,1023.0,1023.0,1023.0,1024.0,1023.0,1023.0,1022.0,1022.0,1023.0,1023.0,1023.0,1023.0,1023.0,1024.0,1023.0,1023.0,1023.0,1022.0,1024.0,1023.0,1024.0,1024.0,1024.0,1025.0,1024.0,1024.0,1024.0,1023.0,1024.0,1023.0,1024.0,1024.0,1024.0,1025.0,1024.0,1023.0,1024.0,1022.0,1023.0,1022.0,1023.0,1022.0,1023.0,1023.0,1023.0,1023.0,1021.0,1022.0,1023.0,1024.0,1024.0,1023.0,1024.0,1024.0,1024.0,1023.0,1023.0,1023.0,1023.0,1024.0,1024.0,1023.0,1023.0,1023.0,1024.0,1024.0,1025.0,1025.0,1025.0,1024.0,1023.0,1024.0,1023.0,1025.0,1025.0,1024.0,1024.0,1022.0,1024.0,1024.0,1025.0,1026.0,1025.0,1024.0,1024.0,1025.0,1026.0,1027.0,1027.0,1024.0,1026.0,1026.0,1029.0,1032.0,1029.0,1024.0,1028.0,1028.0,1030.0,1034.0,1031.0,1024.0,1029.0,1031.0,1031.0,1040.0,1032.0,1025.0,1030.0,1031.0,1030.0,1040.0,1034.0,1026.0,1033.0,1033.0,1030.0,1041.0,1037.0,1028.0,1035.0,1034.0,1031.0,1041.0,1036.0,1028.0,1033.0,1032.0,1028.0,1037.0,1034.0,1029.0,1033.0,1032.0,1029.0,1036.0,1032.0,1022.0,1023.0,1023.0,1023.0,1024.0,1022.0,1033.0,1042.0,1036.0,1032.0,1042.0,1038.0,1029.0,1036.0,1033.0,1032.0,1039.0,1037.0,1027.0,1032.0,1029.0,1029.0,1033.0,1975,2027,1908,	00:32:02.638,0.0546875,0.04345703125,1.01708984375,-0.244140625,0.244140625,0.06103515625,2.48291015625,-3.0157470703125,53.4814453125,461.0,-1593.0,-2569.0,0.89227294921875,0.03118896484375,-0.013763427734375,0.4501953125,2.4835977685359225,-3.0183267876986184,48.871798493103654,0.9096589840721654,0.030616006555151697,-0.015010099119667412,0.41395397058589545,1,	00:32:02.639,0.00927734375,0.07470703125,1.00439453125,-0.91552734375,-1.220703125,-0.48828125,4.24072265625,-0.538330078125,103.062744140625,-370.0,-1305.0,-1932.0,-0.62152099609375,-0.02667236328125,-0.026031494140625,-0.782501220703125,4.238747645646927,-0.5384396934251496,104.41801457645249,-0.6122195717275437,-0.026372107226068187,-0.026347102921564693,-0.7898085452322228,1
1782117429.867341,0.481,1023.0,1024.0,1024.0,1023.0,1023.0,1023.0,1023.0,1024.0,1023.0,1022.0,1023.0,1022.0,1024.0,1024.0,1023.0,1023.0,1022.0,1023.0,1023.0,1024.0,1024.0,1023.0,1022.0,1022.0,1023.0,1023.0,1023.0,1023.0,1024.0,1023.0,1023.0,1022.0,1022.0,1023.0,1023.0,1023.0,1024.0,1024.0,1023.0,1023.0,1023.0,1022.0,1023.0,1023.0,1023.0,1023.0,1024.0,1023.0,1023.0,1022.0,1022.0,1023.0,1022.0,1023.0,1023.0,1023.0,1024.0,1023.0,1023.0,1022.0,1023.0,1023.0,1022.0,1023.0,1023.0,1023.0,1023.0,1023.0,1023.0,1022.0,1022.0,1023.0,1023.0,1024.0,1023.0,1023.0,1024.0,1023.0,1023.0,1022.0,1022.0,1023.0,1023.0,1023.0,1023.0,1024.0,1024.0,1024.0,1023.0,1023.0,1023.0,1022.0,1023.0,1024.0,1024.0,1024.0,1024.0,1024.0,1024.0,1024.0,1023.0,1023.0,1022.0,1024.0,1024.0,1024.0,1025.0,1024.0,1024.0,1024.0,1022.0,1023.0,1023.0,1023.0,1022.0,1024.0,1024.0,1023.0,1022.0,1022.0,1022.0,1022.0,1024.0,1023.0,1024.0,1024.0,1024.0,1023.0,1023.0,1022.0,1023.0,1023.0,1024.0,1024.0,1023.0,1023.0,1023.0,1024.0,1024.0,1024.0,1025.0,1025.0,1024.0,1023.0,1024.0,1024.0,1024.0,1025.0,1024.0,1024.0,1023.0,1024.0,1024.0,1024.0,1026.0,1025.0,1024.0,1024.0,1024.0,1026.0,1028.0,1026.0,1024.0,1026.0,1026.0,1029.0,1032.0,1030.0,1024.0,1028.0,1028.0,1031.0,1034.0,1030.0,1024.0,1029.0,1031.0,1031.0,1040.0,1032.0,1025.0,1031.0,1031.0,1030.0,1040.0,1034.0,1026.0,1033.0,1033.0,1030.0,1042.0,1036.0,1028.0,1035.0,1035.0,1031.0,1041.0,1036.0,1027.0,1033.0,1031.0,1029.0,1037.0,1034.0,1028.0,1034.0,1033.0,1029.0,1036.0,1033.0,1021.0,1024.0,1022.0,1023.0,1025.0,1022.0,1033.0,1042.0,1036.0,1032.0,1042.0,1038.0,1028.0,1036.0,1033.0,1033.0,1040.0,1036.0,1026.0,1032.0,1029.0,1030.0,1033.0,1975,2027,1908,	00:32:02.648,0.0546875,0.04296875,1.01708984375,-0.30517578125,0.244140625,0.1220703125,2.4114990234375,-3.076171875,53.4869384765625,461.0,-1593.0,-2571.0,0.892242431640625,0.030853271484375,-0.014495849609375,0.450225830078125,2.411572613906467,-3.0765179063499963,48.87679034867441,0.9096433045236314,0.030254620738962068,-0.015731141493593177,0.4139882216278358,1,	00:32:02.649,0.00927734375,0.07421875,1.0048828125,-0.91552734375,-1.220703125,-0.48828125,4.1583251953125,-0.494384765625,103.0572509765625,-370.0,-1304.0,-1936.0,-0.62158203125,-0.02593994140625,-0.02569580078125,-0.782501220703125,4.156279768789098,-0.49559667544466196,104.41290093455869,-0.6122853842640866,-0.025637445077305837,-0.026006552211022875,-0.7897930038108613,1
1782117429.877032,0.490,1022.0,1023.0,1024.0,1023.0,1023.0,1023.0,1023.0,1024.0,1022.0,1023.0,1023.0,1023.0,1023.0,1024.0,1023.0,1023.0,1022.0,1023.0,1023.0,1023.0,1024.0,1023.0,1023.0,1022.0,1022.0,1023.0,1023.0,1024.0,1024.0,1023.0,1023.0,1023.0,1022.0,1023.0,1023.0,1023.0,1023.0,1024.0,1023.0,1023.0,1022.0,1023.0,1023.0,1024.0,1023.0,1024.0,1024.0,1023.0,1023.0,1022.0,1022.0,1024.0,1022.0,1023.0,1023.0,1023.0,1024.0,1024.0,1023.0,1022.0,1022.0,1023.0,1022.0,1023.0,1023.0,1023.0,1024.0,1023.0,1023.0,1022.0,1022.0,1023.0,1022.0,1023.0,1023.0,1023.0,1024.0,1023.0,1022.0,1022.0,1022.0,1023.0,1023.0,1023.0,1023.0,1023.0,1024.0,1023.0,1023.0,1023.0,1022.0,1023.0,1022.0,1023.0,1024.0,1024.0,1024.0,1024.0,1024.0,1024.0,1023.0,1024.0,1022.0,1024.0,1024.0,1023.0,1025.0,1024.0,1023.0,1023.0,1022.0,1024.0,1022.0,1023.0,1023.0,1024.0,1024.0,1023.0,1022.0,1021.0,1022.0,1022.0,1024.0,1023.0,1024.0,1024.0,1023.0,1023.0,1023.0,1023.0,1023.0,1023.0,1024.0,1024.0,1024.0,1023.0,1024.0,1024.0,1024.0,1024.0,1025.0,1025.0,1024.0,1023.0,1024.0,1024.0,1024.0,1025.0,1024.0,1024.0,1023.0,1024.0,1024.0,1025.0,1026.0,1025.0,1023.0,1024.0,1025.0,1026.0,1028.0,1027.0,1024.0,1026.0,1026.0,1030.0,1031.0,1029.0,1024.0,1027.0,1028.0,1030.0,1035.0,1031.0,1024.0,1029.0,1031.0,1031.0,1040.0,1033.0,1025.0,1030.0,1031.0,1030.0,1041.0,1033.0,1026.0,1033.0,1033.0,1031.0,1042.0,1036.0,1027.0,1035.0,1035.0,1030.0,1041.0,1036.0,1027.0,1032.0,1032.0,1029.0,1038.0,1034.0,1029.0,1033.0,1033.0,1029.0,1037.0,1032.0,1022.0,1023.0,1023.0,1023.0,1025.0,1022.0,1033.0,1041.0,1037.0,1032.0,1042.0,1038.0,1028.0,1036.0,1033.0,1032.0,1038.0,1036.0,1026.0,1031.0,1029.0,1030.0,1032.0,1975,2027,1908,	00:32:02.659,0.0546875,0.04345703125,1.01708984375,-0.18310546875,0.18310546875,0.1220703125,2.4993896484375,-3.0706787109375,53.4814453125,461.0,-1593.0,-2570.0,0.892242431640625,0.031524658203125,-0.01409912109375,0.450225830078125,2.501310069964464,-3.070634711519014,48.87317526718474,0.9096341098886275,0.030945274586621798,-0.015361190592609581,0.41397126703608356,1,	00:32:02.660,0.00830078125,0.07373046875,1.005859375,-0.91552734375,-1.220703125,-0.48828125,4.2242431640625,-0.4559326171875,103.0517578125,-370.0,-1304.0,-1936.0,-0.621612548828125,-0.026031494140625,-0.0263671875,-0.782440185546875,4.223326557442752,-0.456635654254839,104.4065103774904,-0.6123250872092666,-0.025728713872794358,-0.02667547118138436,-0.7897369436045567,1
