Unix_Time_s,EMG_t_s,sample_idx,fs,gain,flags,emg_valid,ch1_raw_uV,ch1_filt_uV,ch1_env_uV,ch2_raw_uV,ch2_filt_uV,ch2_env_uV
1782117473.092791,0.000000,1917960,1000,12,0,1,323.871,9.331,10.320,565.807,-0.946,1.087
1782117473.093791,0.001000,1917961,1000,12,0,1,329.900,11.445,10.409,567.584,0.788,1.081
1782117473.094791,0.002000,1917962,1000,12,0,1,318.538,3.756,10.384,568.185,1.406,1.056
1782117473.095791,0.003000,1917963,1000,12,0,1,317.649,-2.735,10.383,566.311,-0.252,1.052
1782117473.096791,0.004000,1917964,1000,12,0,1,318.754,2.717,10.386,566.528,-0.708,1.056
1782117473.097791,0.005000,1917965,1000,12,0,1,307.609,-7.317,10.384,564.222,-1.726,1.084
1782117473.098791,0.006000,1917966,1000,12,0,1,299.970,-13.054,10.390,565.423,-1.711,1.110
1782117473.099791,0.007000,1917967,1000,12,0,1,301.243,-9.050,10.225,565.519,-0.080,1.108
1782117473.100791,0.008000,1917968,1000,12,0,1,307.897,-0.864,9.985,567.320,0.450,1.109
1782117473.101791,0.009000,1917969,1000,12,0,1,316.328,8.640,9.897,567.657,1.766,1.079
1782117473.102791,0.010000,1917970,1000,12,0,1,327.306,17.186,10.134,566.816,0.237,0.977
1782117473.103791,0.011000,1917971,1000,12,0,1,352.335,35.753,11.325,566.624,0.151,0.976
1782117473.104791,0.012000,1917972,1000,12,0,1,375.059,51.752,13.406,566.071,-0.264,0.944
1782117473.105791,0.013000,1917973,1000,12,0,1,378.422,46.962,14.761,566.888,0.137,0.942
1782117473.106791,0.014000,1917974,1000,12,0,1,372.993,31.566,15.187,568.065,1.546,0.954
1782117473.107791,0.015000,1917975,1000,12,0,1,358.893,12.468,15.047,566.504,0.073,0.922
1782117473.108791,0.016000,1917976,1000,12,0,1,343.327,-7.798,14.969,565.278,-1.229,0.893
1782117473.109791,0.017000,1917977,1000,12,0,1,330.621,-20.359,15.236,565.110,-1.213,0.884
1782117473.110791,0.018000,1917978,1000,12,0,1,323.871,-26.431,15.680,566.840,0.361,0.881
1782117473.111791,0.019000,1917979,1000,12,0,1,320.508,-26.359,16.094,567.681,1.442,0.903
1782117473.112791,0.020000,1917980,1000,12,0,1,326.777,-19.103,16.303,566.095,-0.032,0.903
1782117473.113791,0.021000,1917981,1000,12,0,1,332.254,-10.116,16.332,565.351,-1.042,0.914
1782117473.114791,0.022000,1917982,1000,12,0,1,338.764,-4.159,16.119,565.447,-0.640,0.906
1782117473.115791,0.023000,1917983,1000,12,0,1,344.480,2.213,16.031,566.888,0.455,0.906
1782117473.116791,0.024000,1917984,1000,12,0,1,343.207,0.945,16.023,567.272,1.178,0.921
1782117473.117791,0.025000,1917985,1000,12,0,1,342.775,-1.008,16.022,567.801,1.077,0.933
1782117473.118791,0.026000,1917986,1000,12,0,1,340.925,-2.050,16.024,567.128,0.706,0.939
1782117473.119791,0.027000,1917987,1000,12,0,1,339.028,-4.842,16.038,565.639,-0.996,0.948
1782117473.120791,0.028000,1917988,1000,12,0,1,338.836,-4.460,16.050,567.873,0.598,0.935
1782117473.121791,0.029000,1917989,1000,12,0,1,339.004,-4.453,16.061,568.521,1.823,0.941
1782117473.122791,0.030000,1917990,1000,12,0,1,337.466,-5.220,16.071,567.608,0.314,0.940
1782117473.123791,0.031000,1917991,1000,12,0,1,336.554,-6.257,16.092,564.558,-1.952,0.979
1782117473.124791,0.032000,1917992,1000,12,0,1,335.713,-6.246,16.115,563.405,-3.460,1.086
1782117473.125791,0.033000,1917993,1000,12,0,1,334.080,-7.244,16.108,564.846,-1.407,1.099
1782117473.126791,0.034000,1917994,1000,12,0,1,336.914,-4.701,16.025,566.840,0.616,1.088
1782117473.127791,0.035000,1917995,1000,12,0,1,339.148,-1.451,15.993,565.254,-0.175,1.084
1782117473.128791,0.036000,1917996,1000,12,0,1,332.951,-6.232,15.946,565.086,-0.971,1.079
1782117473.129791,0.037000,1917997,1000,12,0,1,327.594,-11.089,15.776,566.792,0.992,1.084
1782117473.130791,0.038000,1917998,1000,12,0,1,329.035,-8.374,15.518,564.270,-0.715,1.083
1782117473.131791,0.039000,1917999,1000,12,0,1,335.857,-0.951,15.340,565.759,-0.511,1.075
1782117473.132791,0.040000,1918000,1000,12,0,1,340.757,4.751,15.275,567.440,2.161,1.115
1782117473.133791,0.041000,1918001,1000,12,0,1,346.931,9.155,15.276,566.383,0.592,1.097
1782117473.134791,0.042000,1918002,1000,12,0,1,347.555,9.956,15.292,565.831,0.025,1.096
1782117473.135791,0.043000,1918003,1000,12,0,1,350.221,9.356,15.289,566.263,0.242,1.097
1782117473.136791,0.044000,1918004,1000,12,0,1,353.200,11.496,15.371,566.383,0.438,1.096
1782117473.137791,0.045000,1918005,1000,12,0,1,352.792,9.056,15.385,567.464,1.087,1.104
1782117473.138791,0.046000,1918006,1000,12,0,1,351.759,6.326,15.365,566.359,0.418,1.103
1782117473.139791,0.047000,1918007,1000,12,0,1,351.374,4.572,15.358,567.440,0.528,1.089
1782117473.140791,0.048000,1918008,1000,12,0,1,345.489,-1.063,15.330,565.543,-0.221,1.087
1782117473.141791,0.049000,1918009,1000,12,0,1,338.884,-7.817,15.304,564.750,-1.879,1.113
1782117473.142791,0.050000,1918010,1000,12,0,1,334.560,-10.881,15.324,566.792,0.476,1.107
1782117473.143791,0.051000,1918011,1000,12,0,1,331.990,-11.752,15.329,564.246,-1.063,1.111
1782117473.144791,0.052000,1918012,1000,12,0,1,331.701,-10.514,15.392,563.549,-2.509,1.150
1782117473.145791,0.053000,1918013,1000,12,0,1,331.701,-8.509,15.434,566.431,0.830,1.155
1782117473.146791,0.054000,1918014,1000,12,0,1,332.254,-6.931,15.460,565.639,0.566,1.153
1782117473.147791,0.055000,1918015,1000,12,0,1,329.612,-7.303,15.460,565.327,-0.251,1.128
1782117473.148791,0.056000,1918016,1000,12,0,1,328.098,-8.258,15.394,564.990,-0.090,1.102
1782117473.149791,0.057000,1918017,1000,12,0,1,334.992,-1.344,15.342,565.423,-0.035,1.102
1782117473.150791,0.058000,1918018,1000,12,0,1,339.052,3.950,15.351,563.789,-0.837,1.106
1782117473.151791,0.059000,1918019,1000,12,0,1,334.752,-0.010,15.303,564.870,-0.622,1.081
1782117473.152791,0.060000,1918020,1000,12,0,1,333.791,-1.821,15.110,566.672,1.699,1.107
1782117473.153791,0.061000,1918021,1000,12,0,1,333.503,-0.844,14.240,567.825,2.237,1.151
1782117473.154791,0.062000,1918022,1000,12,0,1,329.395,-3.906,12.228,565.591,0.493,1.153
1782117473.155791,0.063000,1918023,1000,12,0,1,322.093,-8.986,10.345,564.342,-1.421,1.170
1782117473.156791,0.064000,1918024,1000,12,0,1,313.326,-14.675,9.560,566.480,0.565,1.152
1782117473.157791,0.065000,1918025,1000,12,0,1,306.456,-17.728,9.725,564.702,-0.218,1.152
1782117473.158791,0.066000,1918026,1000,12,0,1,304.174,-15.885,9.920,564.462,-1.449,1.158
1782117473.159791,0.067000,1918027,1000,12,0,1,307.873,-8.849,9.575,564.798,-0.136,1.145
1782117473.160791,0.068000,1918028,1000,12,0,1,310.539,-2.399,8.822,565.302,-0.155,1.144
1782117473.161791,0.069000,1918029,1000,12,0,1,317.962,5.056,8.028,568.569,2.795,1.193
1782117473.162791,0.070000,1918030,1000,12,0,1,332.374,18.652,8.006,569.434,3.707,1.303
1782117473.163791,0.071000,1918031,1000,12,0,1,343.520,27.565,8.789,567.777,1.523,1.313
1782117473.164791,0.072000,1918032,1000,12,0,1,353.800,32.314,9.889,566.528,0.032,1.309
1782117473.165791,0.073000,1918033,1000,12,0,1,356.323,30.946,10.809,564.654,-1.573,1.327
1782117473.166791,0.074000,1918034,1000,12,0,1,345.633,16.508,11.058,565.206,-1.358,1.330
1782117473.167791,0.075000,1918035,1000,12,0,1,335.425,2.805,11.064,565.038,-0.743,1.325
1782117473.168791,0.076000,1918036,1000,12,0,1,338.091,2.530,11.066,567.512,0.779,1.326
1782117473.169791,0.077000,1918037,1000,12,0,1,344.913,8.236,11.106,568.785,2.618,1.370
1782117473.170791,0.078000,1918038,1000,12,0,1,343.472,6.103,11.122,566.431,0.029,1.367
1782117473.171791,0.079000,1918039,1000,12,0,1,342.655,2.698,11.110,565.447,-1.344,1.356
1782117473.172791,0.080000,1918040,1000,12,0,1,348.636,6.748,11.127,564.558,-1.669,1.376
1782117473.173791,0.081000,1918041,1000,12,0,1,366.027,19.193,11.419,565.903,-0.909,1.354
1782117473.174791,0.082000,1918042,1000,12,0,1,364.466,18.451,11.680,563.909,-1.472,1.279
1782117473.175791,0.083000,1918043,1000,12,0,1,352.936,2.058,11.639,566.239,-0.782,1.269
1782117473.176791,0.084000,1918044,1000,12,0,1,337.034,-11.878,11.740,565.615,0.510,1.268
1782117473.177791,0.085000,1918045,1000,12,0,1,324.471,-23.956,12.218,565.591,-0.980,1.275
1782117473.178791,0.086000,1918046,1000,12,0,1,320.868,-24.116,12.654,566.600,0.814,1.273
1782117473.179791,0.087000,1918047,1000,12,0,1,325.120,-17.192,12.790,568.113,1.550,1.284
1782117473.180791,0.088000,1918048,1000,12,0,1,327.738,-11.267,12.834,566.287,0.436,1.281
1782117473.181791,0.089000,1918049,1000,12,0,1,326.297,-10.450,12.918,565.254,-1.253,1.292
1782117473.182791,0.090000,1918050,1000,12,0,1,326.441,-9.418,12.969,565.663,-0.543,1.257
1782117473.183791,0.091000,1918051,1000,12,0,1,325.072,-8.312,12.958,565.110,-0.702,1.258
1782117473.184791,0.092000,1918052,1000,12,0,1,323.078,-9.595,12.952,564.630,-1.245,1.271
1782117473.185791,0.093000,1918053,1000,12,0,1,323.198,-7.854,12.933,566.071,0.299,1.271
1782117473.186791,0.094000,1918054,1000,12,0,1,328.194,-3.063,12.837,566.023,0.542,1.272
1782117473.187791,0.095000,1918055,1000,12,0,1,331.749,1.674,12.775,564.318,-0.901,1.269
1782117473.188791,0.096000,1918056,1000,12,0,1,338.643,6.307,12.775,566.143,0.190,1.268
1782117473.189791,0.097000,1918057,1000,12,0,1,350.269,15.930,12.956,570.299,4.203,1.398
1782117473.190791,0.098000,1918058,1000,12,0,1,352.263,16.714,13.169,567.200,1.796,1.421
1782117473.191791,0.099000,1918059,1000,12,0,1,338.235,2.456,13.127,565.951,-0.940,1.402
1782117473.192791,0.100000,1918060,1000,12,0,1,325.072,-11.145,13.132,567.320,0.842,1.405
1782117473.193791,0.101000,1918061,1000,12,0,1,321.781,-12.605,13.148,567.080,0.433,1.399
1782117473.194791,0.102000,1918062,1000,12,0,1,326.537,-5.963,13.090,567.224,0.248,1.353
1782117473.195791,0.103000,1918063,1000,12,0,1,330.741,0.575,13.035,565.639,-0.841,1.354
1782117473.196791,0.104000,1918064,1000,12,0,1,329.107,0.758,12.999,566.648,-0.727,1.355
1782117473.197791,0.105000,1918065,1000,12,0,1,330.981,2.219,12.961,565.615,-0.547,1.357
1782117473.198791,0.106000,1918066,1000,12,0,1,333.551,5.945,12.936,565.759,-1.361,1.370
1782117473.199791,0.107000,1918067,1000,12,0,1,335.329,6.791,12.970,565.783,-0.386,1.371
1782117473.200791,0.108000,1918068,1000,12,0,1,337.899,8.545,13.014,566.359,-0.385,1.367
1782117473.201791,0.109000,1918069,1000,12,0,1,336.193,6.287,13.045,565.831,-0.222,1.365
1782117473.202791,0.110000,1918070,1000,12,0,1,333.743,2.304,13.046,565.278,-1.015,1.351
1782117473.203791,0.111000,1918071,1000,12,0,1,331.749,-0.106,13.046,565.302,-0.710,1.317
1782117473.204791,0.112000,1918072,1000,12,0,1,330.789,-1.947,13.037,565.831,-0.128,1.316
1782117473.205791,0.113000,1918073,1000,12,0,1,329.395,-3.194,12.983,566.720,0.671,1.304
1782117473.206791,0.114000,1918074,1000,12,0,1,330.188,-3.227,12.824,566.984,1.058,1.310
1782117473.207791,0.115000,1918075,1000,12,0,1,330.524,-2.404,12.581,565.399,-0.434,1.311
1782117473.208791,0.116000,1918076,1000,12,0,1,330.645,-2.678,12.385,567.560,0.877,1.301
1782117473.209791,0.117000,1918077,1000,12,0,1,329.684,-2.988,12.329,566.672,1.012,1.309
1782117473.210791,0.118000,1918078,1000,12,0,1,327.426,-4.619,12.341,565.663,-0.875,1.314
1782117473.211791,0.119000,1918079,1000,12,0,1,326.033,-5.112,12.342,564.846,-0.997,1.261
1782117473.212791,0.120000,1918080,1000,12,0,1,323.222,-5.885,12.085,564.678,-1.382,1.164
1782117473.213791,0.121000,1918081,1000,12,0,1,323.342,-4.963,11.461,567.272,0.964,1.152
1782117473.214791,0.122000,1918082,1000,12,0,1,324.375,-1.716,10.513,567.008,1.368,1.168
1782117473.215791,0.123000,1918083,1000,12,0,1,327.017,1.333,9.561,565.639,-0.595,1.150
1782117473.216791,0.124000,1918084,1000,12,0,1,323.751,0.715,9.272,565.038,-0.812,1.139
1782117473.217791,0.125000,1918085,1000,12,0,1,320.916,-2.212,9.268,565.783,-0.402,1.136
1782117473.218791,0.126000,1918086,1000,12,0,1,319.091,-1.906,9.265,567.080,1.079,1.141
1782117473.219791,0.127000,1918087,1000,12,0,1,317.986,-2.263,9.198,566.960,0.911,1.087
1782117473.220791,0.128000,1918088,1000,12,0,1,319.403,-0.055,9.157,565.230,-0.643,1.090
1782117473.221791,0.129000,1918089,1000,12,0,1,315.127,-2.142,9.154,566.624,0.060,1.074
1782117473.222791,0.130000,1918090,1000,12,0,1,314.935,-3.366,9.117,566.263,0.562,1.050
1782117473.223791,0.131000,1918091,1000,12,0,1,318.058,1.097,8.705,565.951,-0.411,1.044
1782117473.224791,0.132000,1918092,1000,12,0,1,320.580,2.867,8.314,565.951,0.022,1.023
1782117473.225791,0.133000,1918093,1000,12,0,1,324.135,5.685,8.348,567.632,1.061,1.028
1782117473.226791,0.134000,1918094,1000,12,0,1,327.354,7.554,8.247,566.792,0.892,1.033
1782117473.227791,0.135000,1918095,1000,12,0,1,327.402,6.571,7.576,568.785,1.493,1.046
1782117473.228791,0.136000,1918096,1000,12,0,1,323.438,2.016,6.771,564.654,-0.738,1.044
1782117473.229791,0.137000,1918097,1000,12,0,1,322.429,-0.232,6.319,565.591,-2.010,1.060
1782117473.230791,0.138000,1918098,1000,12,0,1,318.370,-2.536,6.125,564.822,-0.505,1.061
1782117473.231791,0.139000,1918099,1000,12,0,1,315.103,-5.828,6.001,564.462,-2.062,1.086
1782117473.232791,0.140000,1918100,1000,12,0,1,312.029,-6.252,5.918,565.230,-0.390,1.084
1782117473.233791,0.141000,1918101,1000,12,0,1,310.563,-6.415,5.871,564.798,-0.717,1.085
1782117473.234791,0.142000,1918102,1000,12,0,1,314.310,-1.223,5.714,562.156,-2.730,1.138
1782117473.235791,0.143000,1918103,1000,12,0,1,317.866,3.862,5.632,563.717,-1.568,1.158
1782117473.236791,0.144000,1918104,1000,12,0,1,319.427,5.702,5.673,565.495,0.849,1.162
1782117473.237791,0.145000,1918105,1000,12,0,1,317.625,4.735,5.707,565.086,0.588,1.158
1782117473.238791,0.146000,1918106,1000,12,0,1,318.730,4.653,5.675,564.342,-0.329,1.159
1782117473.239791,0.147000,1918107,1000,12,0,1,324.255,9.466,5.378,566.816,1.695,1.023
1782117473.240791,0.148000,1918108,1000,12,0,1,325.432,9.985,5.033,565.399,1.065,1.002
1782117473.241791,0.149000,1918109,1000,12,0,1,321.252,4.712,5.065,563.669,-1.236,1.009
1782117473.242791,0.150000,1918110,1000,12,0,1,317.049,-0.471,4.814,563.693,-0.900,1.010
1782117473.243791,0.151000,1918111,1000,12,0,1,324.063,3.707,4.503,567.152,1.912,1.043
1782117473.244791,0.152000,1918112,1000,12,0,1,337.466,14.968,4.903,566.504,2.174,1.087
1782117473.245791,0.153000,1918113,1000,12,0,1,348.084,21.561,5.774,566.792,1.152,1.093
1782117473.246791,0.154000,1918114,1000,12,0,1,349.237,19.151,6.376,566.071,1.142,1.100
1782117473.247791,0.155000,1918115,1000,12,0,1,340.685,7.425,6.455,564.174,-1.064,1.108
1782117473.248791,0.156000,1918116,1000,12,0,1,332.470,-3.341,6.417,564.726,-0.662,1.095
1782117473.249791,0.157000,1918117,1000,12,0,1,326.033,-9.502,6.486,566.407,1.178,1.106
1782117473.250791,0.158000,1918118,1000,12,0,1,321.060,-13.584,6.655,565.158,0.228,1.105
1782117473.251791,0.159000,1918119,1000,12,0,1,313.230,-17.884,7.064,562.468,-2.197,1.147
1782117473.252791,0.160000,1918120,1000,12,0,1,307.561,-20.919,7.651,565.759,0.058,1.139
1782117473.253791,0.161000,1918121,1000,12,0,1,311.140,-14.521,7.922,567.344,2.767,1.200
1782117473.254791,0.162000,1918122,1000,12,0,1,317.145,-5.477,7.955,565.543,0.309,1.200
1782117473.255791,0.163000,1918123,1000,12,0,1,319.859,-0.980,7.944,566.263,0.620,1.200
1782117473.256791,0.164000,1918124,1000,12,0,1,320.676,0.727,7.931,565.903,0.570,1.193
1782117473.257791,0.165000,1918125,1000,12,0,1,324.423,3.892,7.943,564.510,-1.040,1.201
1782117473.258791,0.166000,1918126,1000,12,0,1,328.194,7.415,8.003,566.624,0.514,1.196
1782117473.259791,0.167000,1918127,1000,12,0,1,351.254,23.235,8.641,564.678,-0.296,1.189
1782117473.260791,0.168000,1918128,1000,12,0,1,351.254,25.777,9.356,564.678,-1.483,1.201
1782117473.261791,0.169000,1918129,1000,12,0,1,347.411,12.179,9.485,566.672,1.052,1.201
1782117473.262791,0.170000,1918130,1000,12,0,1,333.479,1.014,9.450,567.993,1.867,1.215
1782117473.263791,0.171000,1918131,1000,12,0,1,323.198,-13.923,9.627,568.665,2.278,1.249
1782117473.264791,0.172000,1918132,1000,12,0,1,324.015,-11.351,9.757,565.999,-0.073,1.234
1782117473.265791,0.173000,1918133,1000,12,0,1,323.174,-10.603,9.870,565.110,-1.729,1.255
1782117473.266791,0.174000,1918134,1000,12,0,1,323.294,-10.169,9.974,566.119,-0.244,1.250
1782117473.267791,0.175000,1918135,1000,12,0,1,320.748,-9.482,10.059,565.567,-0.655,1.253
1782117473.268791,0.176000,1918136,1000,12,0,1,319.619,-10.542,10.165,566.095,-0.313,1.244
1782117473.269791,0.177000,1918137,1000,12,0,1,320.724,-6.426,10.200,565.302,-0.534,1.240
1782117473.270791,0.178000,1918138,1000,12,0,1,323.342,-3.553,10.213,566.624,0.055,1.236
1782117473.271791,0.179000,1918139,1000,12,0,1,324.255,-0.339,10.208,566.480,0.710,1.240
1782117473.272791,0.180000,1918140,1000,12,0,1,322.958,-1.287,10.199,564.726,-1.308,1.252
1782117473.273791,0.181000,1918141,1000,12,0,1,319.451,-2.914,10.206,565.903,-0.403,1.252
1782117473.274791,0.182000,1918142,1000,12,0,1,317.385,-4.384,10.217,565.230,-0.294,1.252
1782117473.275791,0.183000,1918143,1000,12,0,1,313.302,-5.866,10.219,563.261,-2.377,1.288
1782117473.276791,0.184000,1918144,1000,12,0,1,314.623,-4.598,10.184,565.038,-0.800,1.287
1782117473.277791,0.185000,1918145,1000,12,0,1,312.701,-3.323,10.152,565.519,0.351,1.270
1782117473.278791,0.186000,1918146,1000,12,0,1,311.620,-4.572,10.169,564.414,-0.879,1.272
1782117473.279791,0.187000,1918147,1000,12,0,1,310.035,-3.875,10.183,564.390,-0.864,1.246
1782117473.280791,0.188000,1918148,1000,12,0,1,309.963,-3.724,10.191,564.149,-0.777,1.249
1782117473.281791,0.189000,1918149,1000,12,0,1,306.240,-4.990,10.182,567.296,1.506,1.233
1782117473.282791,0.190000,1918150,1000,12,0,1,304.294,-6.537,10.185,567.632,2.653,1.287
1782117473.283791,0.191000,1918151,1000,12,0,1,306.648,-2.937,10.153,566.167,0.368,1.284
1782117473.284791,0.192000,1918152,1000,12,0,1,308.497,0.203,10.152,565.951,0.198,1.225
1782117473.285791,0.193000,1918153,1000,12,0,1,307.200,-0.205,10.137,565.423,-0.262,1.206
1782117473.286791,0.194000,1918154,1000,12,0,1,304.198,-1.876,10.109,565.639,-0.200,1.200
1782117473.287791,0.195000,1918155,1000,12,0,1,303.693,-1.844,10.090,567.152,1.227,1.210
1782117473.288791,0.196000,1918156,1000,12,0,1,303.645,0.026,10.068,566.239,0.674,1.212
1782117473.289791,0.197000,1918157,1000,12,0,1,303.645,0.785,9.979,566.239,0.107,1.189
1782117473.290791,0.198000,1918158,1000,12,0,1,298.409,-1.553,9.882,565.375,-0.164,1.179
1782117473.291791,0.199000,1918159,1000,12,0,1,298.265,-1.900,9.863,566.095,-0.077,1.166
1782117473.292791,0.200000,1918160,1000,12,0,1,300.114,2.596,9.869,564.678,-0.512,1.161
1782117473.293791,0.201000,1918161,1000,12,0,1,303.861,5.983,9.892,564.029,-1.705,1.155
1782117473.294791,0.202000,1918162,1000,12,0,1,305.639,8.896,9.744,563.477,-1.444,1.132
1782117473.295791,0.203000,1918163,1000,12,0,1,307.921,9.812,9.358,564.270,-0.952,1.128
1782117473.296791,0.204000,1918164,1000,12,0,1,309.218,10.779,9.086,564.029,-0.495,1.119
1782117473.297791,0.205000,1918165,1000,12,0,1,307.176,7.939,9.095,564.894,-0.109,1.109
1782117473.298791,0.206000,1918166,1000,12,0,1,308.017,6.857,9.134,566.407,1.464,1.124
1782117473.299791,0.207000,1918167,1000,12,0,1,310.323,8.430,9.113,566.696,1.605,1.135
1782117473.300791,0.208000,1918168,1000,12,0,1,310.107,6.807,8.960,565.711,0.408,1.136
1782117473.301791,0.209000,1918169,1000,12,0,1,308.089,3.929,8.614,566.840,0.944,1.100
1782117473.302791,0.210000,1918170,1000,12,0,1,307.080,1.642,8.093,567.272,1.475,1.120
1782117473.303791,0.211000,1918171,1000,12,0,1,306.456,0.790,7.829,566.191,0.218,1.050
1782117473.304791,0.212000,1918172,1000,12,0,1,307.561,0.917,7.792,565.951,-0.315,1.050
1782117473.305791,0.213000,1918173,1000,12,0,1,314.407,6.133,7.839,566.864,0.564,1.049
1782117473.306791,0.214000,1918174,1000,12,0,1,317.457,8.893,7.938,567.392,0.996,1.055
1782117473.307791,0.215000,1918175,1000,12,0,1,317.577,6.826,7.978,566.816,0.493,1.048
1782117473.308791,0.216000,1918176,1000,12,0,1,316.496,4.918,7.939,564.942,-1.200,1.059
1782117473.309791,0.217000,1918177,1000,12,0,1,311.356,-0.424,7.228,562.420,-3.183,1.150
1782117473.310791,0.218000,1918178,1000,12,0,1,305.351,-6.155,6.301,562.997,-2.636,1.190
1782117473.311791,0.219000,1918179,1000,12,0,1,307.657,-4.308,6.092,564.798,-0.167,1.181
1782117473.312791,0.220000,1918180,1000,12,0,1,307.561,-2.119,6.098,565.759,0.819,1.157
1782117473.313791,0.221000,1918181,1000,12,0,1,304.702,-4.772,5.810,567.320,2.052,1.149
1782117473.314791,0.222000,1918182,1000,12,0,1,304.702,-4.016,5.613,564.270,-0.130,1.149
1782117473.315791,0.223000,1918183,1000,12,0,1,305.375,-2.478,5.420,564.582,-1.185,1.135
1782117473.316791,0.224000,1918184,1000,12,0,1,303.789,-3.200,5.246,566.912,1.744,1.161
1782117473.317791,0.225000,1918185,1000,12,0,1,305.519,-1.853,5.078,566.287,0.915,1.164
1782117473.318791,0.226000,1918186,1000,12,0,1,305.807,-0.615,4.855,566.648,0.647,1.167
1782117473.319791,0.227000,1918187,1000,12,0,1,305.783,-1.239,4.772,567.608,1.494,1.184
1782117473.320791,0.228000,1918188,1000,12,0,1,306.456,-0.547,4.747,567.536,1.045,1.193
1782117473.321791,0.229000,1918189,1000,12,0,1,307.441,-0.010,4.746,566.552,0.016,1.188
1782117473.322791,0.230000,1918190,1000,12,0,1,310.707,2.203,4.753,566.792,-0.250,1.175
1782117473.323791,0.231000,1918191,1000,12,0,1,311.044,2.644,4.750,567.344,0.454,1.175
1782117473.324791,0.232000,1918192,1000,12,0,1,308.377,-0.760,4.710,566.143,-0.621,1.177
1782117473.325791,0.233000,1918193,1000,12,0,1,310.275,0.141,4.637,565.759,-1.151,1.140
1782117473.326791,0.234000,1918194,1000,12,0,1,312.077,2.187,4.601,564.198,-1.915,1.166
1782117473.327791,0.235000,1918195,1000,12,0,1,314.431,3.403,4.603,564.438,-1.940,1.197
1782117473.328791,0.236000,1918196,1000,12,0,1,313.182,2.737,4.573,565.951,0.134,1.191
1782117473.329791,0.237000,1918197,1000,12,0,1,312.845,1.182,4.544,568.041,1.866,1.214
1782117473.330791,0.238000,1918198,1000,12,0,1,313.782,2.416,4.526,565.807,0.528,1.211
1782117473.331791,0.239000,1918199,1000,12,0,1,312.341,1.133,4.473,567.032,0.281,1.193
1782117473.332791,0.240000,1918200,1000,12,0,1,311.572,0.104,4.377,566.455,0.988,1.141
1782117473.333791,0.241000,1918201,1000,12,0,1,311.332,0.322,4.357,566.600,-0.088,1.140
1782117473.334791,0.242000,1918202,1000,12,0,1,311.932,0.600,4.358,565.399,-0.326,1.140
1782117473.335791,0.243000,1918203,1000,12,0,1,310.900,0.204,4.358,565.663,-0.935,1.147
1782117473.336791,0.244000,1918204,1000,12,0,1,309.891,-1.278,4.354,566.143,0.042,1.147
1782117473.337791,0.245000,1918205,1000,12,0,1,309.482,-1.388,4.350,567.032,0.444,1.135
1782117473.338791,0.246000,1918206,1000,12,0,1,312.461,0.509,4.351,566.648,0.244,1.132
1782117473.339791,0.247000,1918207,1000,12,0,1,313.494,1.833,4.357,566.480,-0.263,1.132
1782117473.340791,0.248000,1918208,1000,12,0,1,310.203,-1.889,4.360,567.584,0.510,1.135
1782117473.341791,0.249000,1918209,1000,12,0,1,307.248,-5.094,4.411,567.032,0.344,1.136
1782117473.342791,0.250000,1918210,1000,12,0,1,304.342,-7.187,4.511,566.263,-0.901,1.140
1782117473.343791,0.251000,1918211,1000,12,0,1,303.117,-8.003,4.574,565.230,-1.323,1.130
1782117473.344791,0.252000,1918212,1000,12,0,1,301.868,-7.612,4.527,566.191,-0.876,1.118
1782117473.345791,0.253000,1918213,1000,12,0,1,303.165,-5.961,4.391,566.936,0.558,1.113
1782117473.346791,0.254000,1918214,1000,12,0,1,300.162,-6.191,4.210,566.552,-0.008,1.111
1782117473.347791,0.255000,1918215,1000,12,0,1,302.348,-4.749,4.112,565.230,-0.852,1.117
1782117473.348791,0.256000,1918216,1000,12,0,1,305.663,0.792,3.998,566.864,0.171,1.098
1782117473.349791,0.257000,1918217,1000,12,0,1,304.126,-0.057,3.816,567.104,1.210,1.088
1782117473.350791,0.258000,1918218,1000,12,0,1,303.573,-0.251,3.693,564.942,-0.990,1.095
1782117473.351791,0.259000,1918219,1000,12,0,1,306.576,3.025,3.676,565.687,-0.611,1.091
1782117473.352791,0.260000,1918220,1000,12,0,1,307.801,4.792,3.731,568.041,1.850,1.102
1782117473.353791,0.261000,1918221,1000,12,0,1,307.128,4.092,3.774,566.912,0.971,1.110
1782117473.354791,0.262000,1918222,1000,12,0,1,306.288,3.101,3.797,567.056,0.307,1.110
1782117473.355791,0.263000,1918223,1000,12,0,1,304.078,1.397,3.702,564.053,-1.575,1.130
1782117473.356791,0.264000,1918224,1000,12,0,1,304.678,1.250,3.486,564.198,-2.524,1.176
1782117473.357791,0.265000,1918225,1000,12,0,1,306.936,3.711,3.390,566.768,0.672,1.178
1782117473.358791,0.266000,1918226,1000,12,0,1,301.844,-0.362,3.319,566.263,0.330,1.167
1782117473.359791,0.267000,1918227,1000,12,0,1,305.639,0.733,3.320,566.095,-0.321,1.077
1782117473.360791,0.268000,1918228,1000,12,0,1,308.401,5.113,3.284,566.792,0.509,1.013
1782117473.361791,0.269000,1918229,1000,12,0,1,310.900,4.904,3.301,564.870,-1.079,1.024
1782117473.362791,0.270000,1918230,1000,12,0,1,313.085,6.751,3.423,564.510,-1.707,1.046
1782117473.363791,0.271000,1918231,1000,12,0,1,313.974,5.639,3.449,565.254,-0.551,1.008
1782117473.364791,0.272000,1918232,1000,12,0,1,314.743,5.060,3.477,565.399,-0.203,1.008
1782117473.365791,0.273000,1918233,1000,12,0,1,313.422,2.938,3.484,566.864,0.963,1.004
1782117473.366791,0.274000,1918234,1000,12,0,1,315.223,2.658,3.475,567.392,1.816,1.006
1782117473.367791,0.275000,1918235,1000,12,0,1,313.206,1.541,3.472,566.960,1.036,1.008
1782117473.368791,0.276000,1918236,1000,12,0,1,312.533,-1.050,3.474,566.215,0.440,1.006
1782117473.369791,0.277000,1918237,1000,12,0,1,313.902,0.924,3.472,566.840,0.633,0.988
1782117473.370791,0.278000,1918238,1000,12,0,1,312.941,-0.244,3.471,565.543,0.025,0.977
1782117473.371791,0.279000,1918239,1000,12,0,1,310.179,-2.461,3.489,565.783,-0.444,0.979
1782117473.372791,0.280000,1918240,1000,12,0,1,311.140,-1.965,3.486,567.128,1.211,0.993
1782117473.373791,0.281000,1918241,1000,12,0,1,309.699,-1.881,3.476,564.702,-0.712,0.996
1782117473.374791,0.282000,1918242,1000,12,0,1,307.465,-4.115,3.523,565.038,-1.232,1.007
1782117473.375791,0.283000,1918243,1000,12,0,1,306.408,-4.242,3.573,565.903,0.393,0.996
1782117473.376791,0.284000,1918244,1000,12,0,1,310.659,-0.628,3.561,568.257,1.674,0.987
1782117473.377791,0.285000,1918245,1000,12,0,1,313.998,3.208,3.557,565.447,0.227,0.949
1782117473.378791,0.286000,1918246,1000,12,0,1,315.776,3.724,3.575,566.552,-0.696,0.953
1782117473.379791,0.287000,1918247,1000,12,0,1,312.389,0.563,3.572,566.311,0.646,0.921
1782117473.380791,0.288000,1918248,1000,12,0,1,307.825,-4.725,3.618,565.278,-1.388,0.938
1782117473.381791,0.289000,1918249,1000,12,0,1,306.936,-5.660,3.702,567.801,0.977,0.948
1782117473.382791,0.290000,1918250,1000,12,0,1,309.482,-3.051,3.727,569.914,2.992,1.028
1782117473.383791,0.291000,1918251,1000,12,0,1,310.755,-1.439,3.732,568.689,1.539,1.051
1782117473.384791,0.292000,1918252,1000,12,0,1,312.029,-0.560,3.732,565.302,-1.603,1.074
1782117473.385791,0.293000,1918253,1000,12,0,1,312.149,-0.308,3.732,566.672,-1.259,1.081
1782117473.386791,0.294000,1918254,1000,12,0,1,315.151,1.629,3.735,566.023,-0.324,1.082
1782117473.387791,0.295000,1918255,1000,12,0,1,316.424,3.234,3.758,566.431,-1.042,1.090
1782117473.388791,0.296000,1918256,1000,12,0,1,318.298,3.728,3.794,565.879,-0.271,1.090
1782117473.389791,0.297000,1918257,1000,12,0,1,318.322,3.907,3.825,563.837,-2.468,1.144
1782117473.390791,0.298000,1918258,1000,12,0,1,315.896,1.052,3.819,564.294,-1.739,1.168
1782117473.391791,0.299000,1918259,1000,12,0,1,313.278,-1.407,3.755,566.191,0.367,1.168
1782117473.392791,0.300000,1918260,1000,12,0,1,313.590,-1.144,3.619,567.464,1.601,1.183
1782117473.393791,0.301000,1918261,1000,12,0,1,316.040,1.373,3.443,567.152,1.347,1.184
1782117473.394791,0.302000,1918262,1000,12,0,1,315.728,1.635,3.278,565.351,-0.546,1.180
1782117473.395791,0.303000,1918263,1000,12,0,1,314.575,-0.038,3.168,566.071,-0.282,1.178
1782117473.396791,0.304000,1918264,1000,12,0,1,312.653,-1.387,3.051,566.984,0.817,1.183
1782117473.397791,0.305000,1918265,1000,12,0,1,313.974,-1.019,2.980,566.960,0.555,1.180
1782117473.398791,0.306000,1918266,1000,12,0,1,313.590,-0.436,2.978,564.942,-1.136,1.190
1782117473.399791,0.307000,1918267,1000,12,0,1,313.854,-1.312,2.984,566.888,-0.198,1.178
1782117473.400791,0.308000,1918268,1000,12,0,1,314.767,-0.226,2.984,566.792,0.750,1.175
1782117473.401791,0.309000,1918269,1000,12,0,1,311.212,-3.375,2.992,566.864,-0.151,1.172
1782117473.402791,0.310000,1918270,1000,12,0,1,312.725,-3.311,2.951,567.152,0.587,1.145
1782117473.403791,0.311000,1918271,1000,12,0,1,313.878,-0.938,2.897,568.617,1.320,1.152
1782117473.404791,0.312000,1918272,1000,12,0,1,310.227,-4.512,2.934,567.849,1.081,1.162
1782117473.405791,0.313000,1918273,1000,12,0,1,305.207,-8.343,3.156,565.903,-1.100,1.151
1782117473.406791,0.314000,1918274,1000,12,0,1,300.859,-11.161,3.524,565.038,-1.768,1.122
1782117473.407791,0.315000,1918275,1000,12,0,1,297.808,-11.873,3.868,564.630,-1.670,1.143
1782117473.408791,0.316000,1918276,1000,12,0,1,296.727,-10.567,4.147,565.351,-0.941,1.149
1782117473.409791,0.317000,1918277,1000,12,0,1,296.415,-8.251,4.306,565.302,-0.266,1.149
1782117473.410791,0.318000,1918278,1000,12,0,1,296.871,-5.605,4.319,564.942,-0.738,1.152
1782117473.411791,0.319000,1918279,1000,12,0,1,304.078,1.834,4.271,566.119,0.515,1.144
1782117473.412791,0.320000,1918280,1000,12,0,1,317.193,14.332,4.630,567.560,1.791,1.146
1782117473.413791,0.321000,1918281,1000,12,0,1,329.059,23.854,5.673,566.263,0.809,1.149
1782117473.414791,0.322000,1918282,1000,12,0,1,327.594,20.958,6.360,567.032,0.578,1.152
1782117473.415791,0.323000,1918283,1000,12,0,1,318.058,8.573,6.461,566.600,0.792,1.149
1782117473.416791,0.324000,1918284,1000,12,0,1,313.854,2.262,6.458,566.287,-0.300,1.121
1782117473.417791,0.325000,1918285,1000,12,0,1,312.509,0.723,6.455,563.981,-1.705,1.137
1782117473.418791,0.326000,1918286,1000,12,0,1,313.662,0.808,6.455,562.588,-3.424,1.235
1782117473.419791,0.327000,1918287,1000,12,0,1,321.301,6.713,6.523,564.870,-1.004,1.239
1782117473.420791,0.328000,1918288,1000,12,0,1,325.504,10.186,6.680,566.648,1.152,1.250
1782117473.421791,0.329000,1918289,1000,12,0,1,321.541,4.903,6.707,564.222,-0.800,1.254
1782117473.422791,0.330000,1918290,1000,12,0,1,317.553,-0.687,6.702,564.582,-1.089,1.251
1782117473.423791,0.331000,1918291,1000,12,0,1,314.359,-3.820,6.718,566.311,1.088,1.257
1782117473.424791,0.332000,1918292,1000,12,0,1,315.848,-3.377,6.710,567.104,1.704,1.268
1782117473.425791,0.333000,1918293,1000,12,0,1,319.235,0.264,6.683,565.423,0.379,1.268
1782117473.426791,0.334000,1918294,1000,12,0,1,321.252,1.564,6.686,564.630,-0.725,1.250
1782117473.427791,0.335000,1918295,1000,12,0,1,319.091,-0.388,6.671,564.270,-0.607,1.252
1782117473.428791,0.336000,1918296,1000,12,0,1,315.608,-4.215,6.677,567.080,1.529,1.267
1782117473.429791,0.337000,1918297,1000,12,0,1,313.157,-6.104,6.732,567.152,2.404,1.309
1782117473.430791,0.338000,1918298,1000,12,0,1,313.446,-5.473,6.743,567.248,1.472,1.310
1782117473.431791,0.339000,1918299,1000,12,0,1,319.403,-0.033,6.696,568.401,2.539,1.352
1782117473.432791,0.340000,1918300,1000,12,0,1,319.139,1.296,6.684,567.104,1.240,1.296
1782117473.433791,0.341000,1918301,1000,12,0,1,309.963,-7.228,6.759,565.206,-0.999,1.285
1782117473.434791,0.342000,1918302,1000,12,0,1,301.796,-13.985,7.042,565.783,-0.595,1.268
1782117473.435791,0.343000,1918303,1000,12,0,1,305.159,-10.193,7.188,566.239,0.005,1.255
1782117473.436791,0.344000,1918304,1000,12,0,1,309.723,-3.007,7.197,565.831,-0.392,1.255
1782117473.437791,0.345000,1918305,1000,12,0,1,317.169,3.185,7.196,567.056,0.313,1.248
1782117473.438791,0.346000,1918306,1000,12,0,1,325.744,11.245,7.351,566.119,0.004,1.247
1782117473.439791,0.347000,1918307,1000,12,0,1,323.126,8.444,7.427,567.008,-0.170,1.197
1782117473.440791,0.348000,1918308,1000,12,0,1,319.187,2.074,7.431,565.351,-0.637,1.175
1782117473.441791,0.349000,1918309,1000,12,0,1,316.833,-0.091,7.428,565.278,-1.762,1.200
1782117473.442791,0.350000,1918310,1000,12,0,1,315.103,-2.423,7.435,565.639,-0.483,1.181
1782117473.443791,0.351000,1918311,1000,12,0,1,314.335,-2.622,7.441,567.200,0.363,1.166
1782117473.444791,0.352000,1918312,1000,12,0,1,318.706,0.692,7.438,566.840,0.720,1.168
1782117473.445791,0.353000,1918313,1000,12,0,1,315.896,0.081,7.438,567.608,0.623,1.171
1782117473.446791,0.354000,1918314,1000,12,0,1,311.020,-5.487,7.476,567.272,0.833,1.171
1782117473.447791,0.355000,1918315,1000,12,0,1,310.179,-5.136,7.510,568.281,1.005,1.177
1782117473.448791,0.356000,1918316,1000,12,0,1,312.605,-2.271,7.517,567.128,0.536,1.169
1782117473.449791,0.357000,1918317,1000,12,0,1,319.427,4.081,7.536,565.158,-1.682,1.192
1782117473.450791,0.358000,1918318,1000,12,0,1,321.661,6.974,7.601,567.993,0.472,1.189
1782117473.451791,0.359000,1918319,1000,12,0,1,321.060,4.739,7.615,567.320,1.067,1.199
1782117473.452791,0.360000,1918320,1000,12,0,1,327.546,8.965,7.706,567.584,-0.109,1.196
1782117473.453791,0.361000,1918321,1000,12,0,1,330.380,11.134,7.864,568.761,1.690,1.205
1782117473.454791,0.362000,1918322,1000,12,0,1,326.513,5.537,7.877,569.074,1.222,1.208
1782117473.455791,0.363000,1918323,1000,12,0,1,319.067,-2.269,7.795,566.071,-1.007,1.206
1782117473.456791,0.364000,1918324,1000,12,0,1,316.376,-5.947,7.679,565.543,-2.460,1.230
1782117473.457791,0.365000,1918325,1000,12,0,1,320.099,-2.257,7.500,567.608,-0.006,1.207
1782117473.458791,0.366000,1918326,1000,12,0,1,323.582,1.316,7.352,566.263,-0.798,1.205
1782117473.459791,0.367000,1918327,1000,12,0,1,320.388,-1.313,7.262,567.440,-0.617,1.208
1782117473.460791,0.368000,1918328,1000,12,0,1,314.815,-6.732,7.281,568.113,0.879,1.210
1782117473.461791,0.369000,1918329,1000,12,0,1,310.731,-9.691,7.404,566.744,-0.894,1.214
1782117473.462791,0.370000,1918330,1000,12,0,1,305.135,-12.773,7.347,567.512,-0.294,1.188
1782117473.463791,0.371000,1918331,1000,12,0,1,302.925,-13.463,6.798,568.329,0.616,1.186
1782117473.464791,0.372000,1918332,1000,12,0,1,305.255,-8.787,6.243,566.600,-0.783,1.188
1782117473.465791,0.373000,1918333,1000,12,0,1,307.897,-4.431,6.156,566.191,-1.515,1.202
1782117473.466791,0.374000,1918334,1000,12,0,1,309.122,-1.858,6.154,565.879,-1.185,1.213
1782117473.467791,0.375000,1918335,1000,12,0,1,305.735,-3.477,6.172,567.512,-0.022,1.189
1782117473.468791,0.376000,1918336,1000,12,0,1,304.558,-4.386,6.202,567.272,0.567,1.089
1782117473.469791,0.377000,1918337,1000,12,0,1,305.399,-1.984,6.136,566.744,-0.433,1.081
1782117473.470791,0.378000,1918338,1000,12,0,1,305.687,-0.936,5.966,567.368,0.354,1.070
1782117473.471791,0.379000,1918339,1000,12,0,1,306.864,0.759,5.926,567.753,0.725,1.069
1782117473.472791,0.380000,1918340,1000,12,0,1,309.578,3.505,5.946,566.576,-0.248,1.058
1782117473.473791,0.381000,1918341,1000,12,0,1,309.218,3.755,5.945,567.440,0.115,1.047
1782117473.474791,0.382000,1918342,1000,12,0,1,305.807,0.579,5.927,569.674,2.208,1.066
1782117473.475791,0.383000,1918343,1000,12,0,1,301.051,-3.189,5.944,568.017,0.968,1.073
1782117473.476791,0.384000,1918344,1000,12,0,1,298.048,-5.161,5.984,567.080,-0.822,1.075
1782117473.477791,0.385000,1918345,1000,12,0,1,297.448,-4.259,6.014,568.089,0.364,1.073
1782117473.478791,0.386000,1918346,1000,12,0,1,293.893,-5.245,6.031,569.074,0.998,1.060
1782117473.479791,0.387000,1918347,1000,12,0,1,298.313,-1.403,5.972,568.065,0.259,1.005
1782117473.480791,0.388000,1918348,1000,12,0,1,298.937,2.563,5.932,566.263,-1.687,1.011
1782117473.481791,0.389000,1918349,1000,12,0,1,302.564,4.158,5.961,565.663,-2.115,0.992
1782117473.482791,0.390000,1918350,1000,12,0,1,309.506,11.498,6.177,567.080,-0.725,0.981
1782117473.483791,0.391000,1918351,1000,12,0,1,306.720,8.837,6.218,568.185,0.638,0.975
1782117473.484791,0.392000,1918352,1000,12,0,1,307.080,6.427,5.965,567.777,0.285,0.973
1782117473.485791,0.393000,1918353,1000,12,0,1,308.329,8.018,5.898,568.353,0.468,0.975
1782117473.486791,0.394000,1918354,1000,12,0,1,308.017,5.913,5.942,568.065,0.534,0.976
1782117473.487791,0.395000,1918355,1000,12,0,1,306.312,4.203,5.955,567.128,-0.600,0.979
1782117473.488791,0.396000,1918356,1000,12,0,1,302.997,0.307,5.739,566.864,-0.707,0.984
1782117473.489791,0.397000,1918357,1000,12,0,1,301.580,-1.185,5.615,567.320,-0.270,0.984
1782117473.490791,0.398000,1918358,1000,12,0,1,305.927,2.269,5.617,567.681,0.236,0.981
1782117473.491791,0.399000,1918359,1000,12,0,1,308.906,5.524,5.671,567.681,0.216,0.949
1782117473.492791,0.400000,1918360,1000,12,0,1,308.425,4.201,5.692,567.849,0.296,0.948
1782117473.493791,0.401000,1918361,1000,12,0,1,308.065,2.999,5.695,568.810,1.018,0.957
1782117473.494791,0.402000,1918362,1000,12,0,1,307.248,1.911,5.701,569.434,1.512,0.975
1782117473.495791,0.403000,1918363,1000,12,0,1,299.970,-4.165,5.731,566.984,-0.567,0.975
1782117473.496791,0.404000,1918364,1000,12,0,1,296.343,-8.128,5.794,565.663,-2.302,1.021
1782117473.497791,0.405000,1918365,1000,12,0,1,293.821,-8.122,5.862,567.032,-0.739,1.016
1782117473.498791,0.406000,1918366,1000,12,0,1,295.310,-6.394,5.922,565.591,-1.361,1.032
1782117473.499791,0.407000,1918367,1000,12,0,1,300.595,-0.023,5.894,568.281,0.121,1.004
1782117473.500791,0.408000,1918368,1000,12,0,1,307.513,6.225,5.877,570.227,2.926,1.084
1782117473.501791,0.409000,1918369,1000,12,0,1,316.064,12.902,6.117,568.665,0.843,1.080
1782117473.502791,0.410000,1918370,1000,12,0,1,322.550,17.059,6.453,567.584,-0.396,1.081
1782117473.503791,0.411000,1918371,1000,12,0,1,314.070,8.225,6.365,569.242,0.759,1.060
1782117473.504791,0.412000,1918372,1000,12,0,1,302.925,-5.013,6.356,569.002,0.973,1.055
1782117473.505791,0.413000,1918373,1000,12,0,1,303.741,-5.200,6.390,569.987,1.034,1.055
1782117473.506791,0.414000,1918374,1000,12,0,1,309.002,0.548,6.335,568.161,0.081,0.996
1782117473.507791,0.415000,1918375,1000,12,0,1,312.869,3.636,6.348,566.455,-2.188,1.043
1782117473.508791,0.416000,1918376,1000,12,0,1,310.011,1.423,6.349,569.578,0.579,1.040
1782117473.509791,0.417000,1918377,1000,12,0,1,307.633,-2.358,6.355,570.323,2.018,1.075
1782117473.510791,0.418000,1918378,1000,12,0,1,302.348,-5.630,6.333,568.401,-0.346,1.069
1782117473.511791,0.419000,1918379,1000,12,0,1,298.145,-9.744,6.335,566.215,-2.071,1.101
1782117473.512791,0.420000,1918380,1000,12,0,1,294.541,-10.603,6.254,567.945,-1.052,1.111
1782117473.513791,0.421000,1918381,1000,12,0,1,290.146,-12.840,6.228,567.657,-0.088,1.107
1782117473.514791,0.422000,1918382,1000,12,0,1,289.713,-11.275,6.308,569.626,0.528,1.104
1782117473.515791,0.423000,1918383,1000,12,0,1,294.397,-4.936,6.315,565.831,-1.169,1.096
1782117473.516791,0.424000,1918384,1000,12,0,1,293.172,-3.412,6.328,566.143,-2.811,1.154
1782117473.517791,0.425000,1918385,1000,12,0,1,296.391,-1.149,6.311,568.353,0.811,1.159
1782117473.518791,0.426000,1918386,1000,12,0,1,300.042,3.951,6.305,568.810,0.701,1.161
1782117473.519791,0.427000,1918387,1000,12,0,1,301.868,4.814,6.336,568.665,0.629,1.162
1782117473.520791,0.428000,1918388,1000,12,0,1,296.799,1.001,6.336,567.224,-0.615,1.165
1782117473.521791,0.429000,1918389,1000,12,0,1,294.037,-2.910,6.348,566.359,-1.730,1.186
1782117473.522791,0.430000,1918390,1000,12,0,1,296.367,-0.074,6.329,565.663,-1.695,1.209
1782117473.523791,0.431000,1918391,1000,12,0,1,304.150,6.469,6.373,569.218,0.754,1.214
1782117473.524791,0.432000,1918392,1000,12,0,1,312.005,13.216,6.641,568.113,1.391,1.189
1782117473.525791,0.433000,1918393,1000,12,0,1,313.734,13.490,6.894,567.032,-1.124,1.192
1782117473.526791,0.434000,1918394,1000,12,0,1,312.125,9.513,6.986,568.113,0.664,1.190
1782117473.527791,0.435000,1918395,1000,12,0,1,309.723,5.980,7.012,566.504,-0.698,1.193
1782117473.528791,0.436000,1918396,1000,12,0,1,307.272,2.373,6.980,564.582,-2.404,1.232
1782117473.529791,0.437000,1918397,1000,12,0,1,306.768,1.418,6.980,567.368,-0.003,1.232
1782117473.530791,0.438000,1918398,1000,12,0,1,301.003,-3.002,6.984,567.176,0.944,1.216
1782117473.531791,0.439000,1918399,1000,12,0,1,304.366,-1.710,6.963,566.768,-0.152,1.179
1782117473.532791,0.440000,1918400,1000,12,0,1,305.975,2.328,6.779,567.705,1.003,1.183
1782117473.533791,0.441000,1918401,1000,12,0,1,303.837,-0.760,6.664,567.681,1.001,1.188
1782117473.534791,0.442000,1918402,1000,12,0,1,299.850,-3.436,6.619,569.074,1.714,1.212
1782117473.535791,0.443000,1918403,1000,12,0,1,301.531,-2.832,6.534,569.122,2.093,1.246
1782117473.536791,0.444000,1918404,1000,12,0,1,313.206,7.351,6.563,568.521,0.762,1.248
1782117473.537791,0.445000,1918405,1000,12,0,1,316.448,11.030,6.719,566.936,-0.385,1.246
1782117473.538791,0.446000,1918406,1000,12,0,1,310.803,3.105,6.733,567.632,-0.505,1.244
1782117473.539791,0.447000,1918407,1000,12,0,1,309.915,0.356,6.732,566.480,-0.608,1.247
1782117473.540791,0.448000,1918408,1000,12,0,1,317.818,5.572,6.770,565.110,-2.382,1.291
1782117473.541791,0.449000,1918409,1000,12,0,1,321.301,8.528,6.832,565.567,-1.479,1.307
1782117473.542791,0.450000,1918410,1000,12,0,1,319.739,4.283,6.833,566.600,-0.328,1.308
1782117473.543791,0.451000,1918411,1000,12,0,1,317.217,0.577,6.820,567.320,0.497,1.302
1782117473.544791,0.452000,1918412,1000,12,0,1,313.446,-3.878,6.837,566.600,0.066,1.284
1782117473.545791,0.453000,1918413,1000,12,0,1,314.142,-4.236,6.838,567.440,0.345,1.282
1782117473.546791,0.454000,1918414,1000,12,0,1,313.037,-4.035,6.765,568.954,2.016,1.273
1782117473.547791,0.455000,1918415,1000,12,0,1,314.118,-3.972,6.690,567.344,0.561,1.271
1782117473.548791,0.456000,1918416,1000,12,0,1,315.247,-1.611,6.633,567.873,0.314,1.257
1782117473.549791,0.457000,1918417,1000,12,0,1,312.461,-3.931,6.656,566.840,0.110,1.257
1782117473.550791,0.458000,1918418,1000,12,0,1,310.131,-5.662,6.646,564.894,-2.062,1.222
1782117473.551791,0.459000,1918419,1000,12,0,1,310.203,-4.805,6.426,566.119,-0.859,1.222
1782117473.552791,0.460000,1918420,1000,12,0,1,311.596,-2.784,5.969,566.311,0.001,1.221
1782117473.553791,0.461000,1918421,1000,12,0,1,305.327,-6.480,5.926,566.744,0.013,1.216
1782117473.554791,0.462000,1918422,1000,12,0,1,302.805,-9.532,6.036,567.897,1.317,1.223
1782117473.555791,0.463000,1918423,1000,12,0,1,305.783,-4.770,6.029,569.506,2.342,1.258
1782117473.556791,0.464000,1918424,1000,12,0,1,310.611,-0.158,6.029,568.785,1.849,1.285
1782117473.557791,0.465000,1918425,1000,12,0,1,320.508,8.124,6.115,569.146,1.177,1.258
1782117473.558791,0.466000,1918426,1000,12,0,1,327.786,13.939,6.422,567.584,0.272,1.256
1782117473.559791,0.467000,1918427,1000,12,0,1,328.771,12.082,6.637,566.047,-1.813,1.250
1782117473.560791,0.468000,1918428,1000,12,0,1,320.268,2.837,6.601,566.912,-0.831,1.255
1782117473.561791,0.469000,1918429,1000,12,0,1,306.936,-10.951,6.639,568.233,0.528,1.222
1782117473.562791,0.470000,1918430,1000,12,0,1,298.985,-17.775,6.939,567.969,0.369,1.214
1782117473.563791,0.471000,1918431,1000,12,0,1,300.931,-14.353,6.998,569.122,0.950,1.222
1782117473.564791,0.472000,1918432,1000,12,0,1,303.453,-8.754,6.925,566.960,-0.377,1.221
1782117473.565791,0.473000,1918433,1000,12,0,1,302.805,-7.474,6.971,566.047,-2.004,1.242
1782117473.566791,0.474000,1918434,1000,12,0,1,303.213,-5.545,6.998,569.242,1.074,1.186
1782117473.567791,0.475000,1918435,1000,12,0,1,303.453,-3.374,7.012,566.335,-0.451,1.183
1782117473.568791,0.476000,1918436,1000,12,0,1,301.291,-3.751,7.010,566.047,-2.179,1.218
1782117473.569791,0.477000,1918437,1000,12,0,1,303.045,-1.462,6.980,566.984,0.022,1.215
1782117473.570791,0.478000,1918438,1000,12,0,1,312.485,7.517,7.059,567.224,-0.293,1.212
1782117473.571791,0.479000,1918439,1000,12,0,1,311.692,8.723,7.154,568.425,1.042,1.197
1782117473.572791,0.480000,1918440,1000,12,0,1,295.911,-5.786,7.201,568.497,1.068,1.182
1782117473.573791,0.481000,1918441,1000,12,0,1,288.416,-13.281,7.386,567.560,0.011,1.177
1782117473.574791,0.482000,1918442,1000,12,0,1,288.416,-9.994,7.284,567.560,-0.153,1.161
1782117473.575791,0.483000,1918443,1000,12,0,1,294.926,-3.056,7.043,566.263,-1.045,1.159
1782117473.576791,0.484000,1918444,1000,12,0,1,300.499,4.383,6.941,566.335,-1.259,1.169
1782117473.577791,0.485000,1918445,1000,12,0,1,309.987,11.216,7.069,566.552,-0.572,1.168
1782117473.578791,0.486000,1918446,1000,12,0,1,317.842,18.054,7.509,567.200,-0.116,1.117
1782117473.579791,0.487000,1918447,1000,12,0,1,324.735,20.448,8.044,567.873,0.667,1.121
1782117473.580791,0.488000,1918448,1000,12,0,1,320.964,15.507,8.327,568.113,0.795,1.119
1782117473.581791,0.489000,1918449,1000,12,0,1,306.696,-0.377,8.323,568.761,1.121,1.130
1782117473.582791,0.490000,1918450,1000,12,0,1,290.458,-15.498,8.601,568.785,1.177,1.133
1782117473.583791,0.491000,1918451,1000,12,0,1,292.572,-14.057,8.827,565.543,-1.612,1.147
1782117473.584791,0.492000,1918452,1000,12,0,1,296.007,-6.090,8.855,566.888,-1.225,1.135
1782117473.585791,0.493000,1918453,1000,12,0,1,292.404,-7.836,8.915,567.272,0.377,1.097
1782117473.586791,0.494000,1918454,1000,12,0,1,291.443,-7.206,8.913,566.672,-0.745,1.097
1782117473.587791,0.495000,1918455,1000,12,0,1,292.476,-3.786,8.792,567.080,-0.050,1.095
1782117473.588791,0.496000,1918456,1000,12,0,1,291.034,-3.344,8.794,566.936,-0.073,1.093
1782117473.589791,0.497000,1918457,1000,12,0,1,295.526,1.270,8.795,566.119,-0.756,1.095
1782117473.590791,0.498000,1918458,1000,12,0,1,305.591,10.854,8.893,566.528,-0.390,1.043
1782117473.591791,0.499000,1918459,1000,12,0,1,306.360,12.322,8.982,566.840,0.116,1.022
1782117473.592791,0.500000,1918460,1000,12,0,1,318.658,18.059,9.318,566.648,-0.002,1.021
1782117473.593791,0.501000,1918461,1000,12,0,1,336.121,32.653,10.399,564.942,-1.322,1.036
1782117473.594791,0.502000,1918462,1000,12,0,1,332.878,25.924,11.013,565.399,-1.165,1.049
1782117473.595791,0.503000,1918463,1000,12,0,1,321.012,9.097,11.072,565.014,-0.740,1.053
1782117473.596791,0.504000,1918464,1000,12,0,1,316.352,1.180,11.058,565.735,-0.461,1.015
1782117473.597791,0.505000,1918465,1000,12,0,1,313.566,-2.444,11.049,568.641,2.309,1.064
1782117473.598791,0.506000,1918466,1000,12,0,1,311.620,-5.226,11.072,566.912,1.275,1.078
1782117473.599791,0.507000,1918467,1000,12,0,1,307.585,-8.328,11.120,566.744,-0.111,1.078
1782117473.600791,0.508000,1918468,1000,12,0,1,307.561,-8.748,11.160,566.792,0.717,1.043
1782117473.601791,0.509000,1918469,1000,12,0,1,307.513,-6.963,11.183,566.936,0.184,1.036
1782117473.602791,0.510000,1918470,1000,12,0,1,306.023,-7.698,11.229,567.536,1.020,1.046
1782117473.603791,0.511000,1918471,1000,12,0,1,309.915,-3.844,11.205,567.945,1.103,1.057
1782117473.604791,0.512000,1918472,1000,12,0,1,322.141,7.101,11.169,567.512,0.737,1.046
1782117473.605791,0.513000,1918473,1000,12,0,1,326.993,11.987,11.276,567.416,0.370,0.994
1782117473.606791,0.514000,1918474,1000,12,0,1,321.733,5.172,11.300,566.648,-0.172,0.959
1782117473.607791,0.515000,1918475,1000,12,0,1,316.304,-1.624,11.244,569.098,1.412,0.965
1782117473.608791,0.516000,1918476,1000,12,0,1,311.764,-5.823,11.100,568.425,1.621,0.991
1782117473.609791,0.517000,1918477,1000,12,0,1,311.932,-6.286,11.004,569.362,1.123,0.971
1782117473.610791,0.518000,1918478,1000,12,0,1,315.968,-1.907,11.000,565.975,-0.695,0.969
1782117473.611791,0.519000,1918479,1000,12,0,1,318.538,0.380,10.890,568.425,-0.500,0.968
1782117473.612791,0.520000,1918480,1000,12,0,1,318.418,-0.073,10.596,568.281,1.364,0.986
1782117473.613791,0.521000,1918481,1000,12,0,1,321.805,1.469,10.402,569.194,0.369,0.978
1782117473.614791,0.522000,1918482,1000,12,0,1,316.256,-2.261,10.333,570.851,2.540,1.041
1782117473.615791,0.523000,1918483,1000,12,0,1,307.320,-11.769,10.413,569.698,1.003,1.011
1782117473.616791,0.524000,1918484,1000,12,0,1,306.216,-11.933,10.520,569.338,-0.069,1.000
1782117473.617791,0.525000,1918485,1000,12,0,1,303.357,-11.770,10.640,567.368,-1.263,1.014
1782117473.618791,0.526000,1918486,1000,12,0,1,303.213,-11.229,10.744,566.504,-2.860,1.047
1782117473.619791,0.527000,1918487,1000,12,0,1,302.132,-8.915,10.816,567.032,-1.506,1.068
1782117473.620791,0.528000,1918488,1000,12,0,1,304.606,-6.323,10.801,566.792,-1.785,1.097
1782117473.621791,0.529000,1918489,1000,12,0,1,310.299,0.950,10.731,567.128,-1.129,1.099
1782117473.622791,0.530000,1918490,1000,12,0,1,317.481,7.222,10.748,568.161,-0.198,1.089
1782117473.623791,0.531000,1918491,1000,12,0,1,321.036,10.612,10.689,568.785,0.595,1.092
1782117473.624791,0.532000,1918492,1000,12,0,1,323.823,11.023,10.709,568.233,0.040,1.092
1782117473.625791,0.533000,1918493,1000,12,0,1,324.183,10.282,10.799,567.392,-0.768,1.087
1782117473.626791,0.534000,1918494,1000,12,0,1,319.427,4.593,10.801,566.720,-1.256,1.087
1782117473.627791,0.535000,1918495,1000,12,0,1,314.214,-1.428,10.685,567.464,-0.604,1.087
1782117473.628791,0.536000,1918496,1000,12,0,1,309.146,-5.536,10.405,568.377,0.536,1.090
1782117473.629791,0.537000,1918497,1000,12,0,1,310.779,-4.591,10.016,568.641,0.691,1.090
1782117473.630791,0.538000,1918498,1000,12,0,1,307.873,-4.364,9.793,568.449,0.491,1.087
1782117473.631791,0.539000,1918499,1000,12,0,1,307.369,-5.878,9.828,568.641,0.452,1.077
1782117473.632791,0.540000,1918500,1000,12,0,1,307.729,-3.132,9.591,568.401,0.313,1.065
1782117473.633791,0.541000,1918501,1000,12,0,1,308.786,-2.376,9.388,569.650,0.992,1.050
1782117473.634791,0.542000,1918502,1000,12,0,1,309.963,-0.189,9.349,566.864,-0.734,1.040
1782117473.635791,0.543000,1918503,1000,12,0,1,309.290,-0.577,9.283,565.086,-3.181,1.132
1782117473.636791,0.544000,1918504,1000,12,0,1,309.242,-0.740,9.228,566.263,-1.416,1.145
1782117473.637791,0.545000,1918505,1000,12,0,1,308.906,-0.465,9.213,567.753,0.149,1.145
1782117473.638791,0.546000,1918506,1000,12,0,1,311.020,0.776,9.201,568.065,0.659,1.149
1782117473.639791,0.547000,1918507,1000,12,0,1,310.347,1.245,9.201,566.984,-0.271,1.145
1782117473.640791,0.548000,1918508,1000,12,0,1,310.443,0.110,9.072,568.065,0.237,1.144
1782117473.641791,0.549000,1918509,1000,12,0,1,307.873,-0.929,8.904,568.233,0.989,1.152
1782117473.642791,0.550000,1918510,1000,12,0,1,314.575,2.877,8.540,567.729,0.008,1.152
1782117473.643791,0.551000,1918511,1000,12,0,1,319.691,9.344,7.304,567.897,0.306,1.138
1782117473.644791,0.552000,1918512,1000,12,0,1,327.978,13.256,6.589,568.065,0.330,1.127
1782117473.645791,0.553000,1918513,1000,12,0,1,332.758,17.263,6.908,565.110,-1.802,1.150
1782117473.646791,0.554000,1918514,1000,12,0,1,323.174,6.563,6.968,565.254,-2.328,1.195
1782117473.647791,0.555000,1918515,1000,12,0,1,312.701,-5.488,7.003,567.873,0.816,1.155
1782117473.648791,0.556000,1918516,1000,12,0,1,299.129,-15.566,7.304,567.993,1.153,1.153
1782117473.649791,0.557000,1918517,1000,12,0,1,291.083,-22.385,7.873,566.143,-0.607,1.156
1782117473.650791,0.558000,1918518,1000,12,0,1,293.629,-15.988,8.097,566.239,-0.725,1.156
1782117473.651791,0.559000,1918519,1000,12,0,1,289.978,-14.621,8.298,567.248,0.474,1.157
1782117473.652791,0.560000,1918520,1000,12,0,1,290.170,-12.929,8.427,568.882,1.800,1.176
1782117473.653791,0.561000,1918521,1000,12,0,1,294.181,-5.597,8.447,569.482,2.332,1.212
1782117473.654791,0.562000,1918522,1000,12,0,1,286.014,-9.493,8.494,568.665,1.269,1.220
1782117473.655791,0.563000,1918523,1000,12,0,1,289.978,-7.117,8.384,567.632,0.025,1.219
1782117473.656791,0.564000,1918524,1000,12,0,1,290.002,-1.614,8.355,569.266,1.068,1.228
1782117473.657791,0.565000,1918525,1000,12,0,1,288.104,-4.578,8.377,567.128,-0.117,1.212
1782117473.658791,0.566000,1918526,1000,12,0,1,288.320,-1.827,8.340,567.608,-0.893,1.197
1782117473.659791,0.567000,1918527,1000,12,0,1,296.799,4.805,8.321,568.041,0.505,1.188
1782117473.660791,0.568000,1918528,1000,12,0,1,313.182,19.461,8.760,567.825,-0.267,1.185
1782117473.661791,0.569000,1918529,1000,12,0,1,326.081,29.201,9.684,568.617,0.557,1.186
1782117473.662791,0.570000,1918530,1000,12,0,1,323.486,23.816,10.253,568.497,0.520,1.172
1782117473.663791,0.571000,1918531,1000,12,0,1,305.014,4.361,10.270,570.587,1.671,1.194
1782117473.664791,0.572000,1918532,1000,12,0,1,292.404,-10.235,10.366,569.074,1.127,1.150
1782117473.665791,0.573000,1918533,1000,12,0,1,284.981,-13.837,10.417,568.281,-0.924,1.149
1782117473.666791,0.574000,1918534,1000,12,0,1,282.819,-14.287,10.476,566.960,-1.155,1.160
1782117473.667791,0.575000,1918535,1000,12,0,1,285.221,-8.055,10.406,567.536,-1.444,1.165
1782117473.668791,0.576000,1918536,1000,12,0,1,297.112,3.572,10.296,568.930,0.562,1.095
1782117473.669791,0.577000,1918537,1000,12,0,1,306.984,15.012,10.437,567.536,-0.643,1.078
1782117473.670791,0.578000,1918538,1000,12,0,1,314.863,19.744,10.767,567.825,-0.845,1.055
1782117473.671791,0.579000,1918539,1000,12,0,1,307.777,13.670,10.938,569.290,0.873,1.050
1782117473.672791,0.580000,1918540,1000,12,0,1,299.970,2.258,10.895,568.425,0.087,1.050
1782117473.673791,0.581000,1918541,1000,12,0,1,304.510,5.169,10.816,569.266,0.355,1.047
1782117473.674791,0.582000,1918542,1000,12,0,1,305.039,6.116,10.738,569.146,0.622,1.051
1782117473.675791,0.583000,1918543,1000,12,0,1,300.523,-0.047,10.639,568.353,-0.487,1.048
1782117473.676791,0.584000,1918544,1000,12,0,1,321.613,14.325,10.811,570.371,1.000,1.042
1782117473.677791,0.585000,1918545,1000,12,0,1,321.613,17.873,11.100,570.371,1.460,1.059
1782117473.678791,0.586000,1918546,1000,12,0,1,312.533,1.783,11.076,567.512,-1.506,1.078
1782117473.679791,0.587000,1918547,1000,12,0,1,304.246,-5.196,11.081,564.942,-3.677,1.193
1782117473.680791,0.588000,1918548,1000,12,0,1,306.095,-6.793,11.105,567.392,-1.684,1.214
1782117473.681791,0.589000,1918549,1000,12,0,1,306.648,-3.825,11.087,566.960,-0.566,1.215
1782117473.682791,0.590000,1918550,1000,12,0,1,309.723,-2.743,11.085,566.191,-1.937,1.245
1782117473.683791,0.591000,1918551,1000,12,0,1,301.507,-7.276,11.128,566.672,-0.769,1.242
1782117473.684791,0.592000,1918552,1000,12,0,1,302.805,-8.646,11.195,567.753,0.141,1.237
1782117473.685791,0.593000,1918553,1000,12,0,1,311.716,1.974,11.198,569.722,1.958,1.186
1782117473.686791,0.594000,1918554,1000,12,0,1,308.257,0.557,11.198,567.296,0.323,1.169
1782117473.687791,0.595000,1918555,1000,12,0,1,299.442,-8.282,11.259,567.128,-0.999,1.178
1782117473.688791,0.596000,1918556,1000,12,0,1,291.083,-13.331,11.415,566.792,-0.192,1.174
1782117473.689791,0.597000,1918557,1000,12,0,1,287.215,-15.707,11.628,567.224,-0.538,1.176
1782117473.690791,0.598000,1918558,1000,12,0,1,288.584,-10.771,11.727,568.545,1.203,1.188
1782117473.691791,0.599000,1918559,1000,12,0,1,286.879,-9.600,11.805,568.858,1.248,1.193
1782117473.692791,0.600000,1918560,1000,12,0,1,284.044,-9.894,11.880,568.233,0.622,1.196
1782117473.693791,0.601000,1918561,1000,12,0,1,285.966,-6.787,11.846,566.095,-1.209,1.207
1782117473.694791,0.602000,1918562,1000,12,0,1,287.551,-2.935,11.704,567.945,-0.223,1.207
1782117473.695791,0.603000,1918563,1000,12,0,1,283.300,-5.443,11.472,570.419,2.743,1.242
1782117473.696791,0.604000,1918564,1000,12,0,1,284.333,-4.628,11.453,569.170,1.340,1.212
1782117473.697791,0.605000,1918565,1000,12,0,1,298.553,8.104,11.484,567.945,-0.193,1.207
1782117473.698791,0.606000,1918566,1000,12,0,1,316.448,23.561,11.753,567.224,-0.754,1.201
1782117473.699791,0.607000,1918567,1000,12,0,1,329.083,31.580,12.168,568.281,-0.017,1.198
1782117473.700791,0.608000,1918568,1000,12,0,1,332.782,30.121,12.693,566.480,-0.828,1.199
1782117473.701791,0.609000,1918569,1000,12,0,1,330.044,22.074,12.906,564.053,-3.352,1.288
1782117473.702791,0.610000,1918570,1000,12,0,1,327.834,15.071,12.953,566.864,-0.752,1.267
1782117473.703791,0.611000,1918571,1000,12,0,1,322.550,7.809,12.976,567.777,1.144,1.234
1782117473.704791,0.612000,1918572,1000,12,0,1,316.328,-0.259,12.906,568.017,0.673,1.224
1782117473.705791,0.613000,1918573,1000,12,0,1,313.758,-3.173,12.874,570.395,2.761,1.285
1782117473.706791,0.614000,1918574,1000,12,0,1,319.259,1.121,12.873,570.131,2.523,1.325
1782117473.707791,0.615000,1918575,1000,12,0,1,318.490,2.262,12.861,568.882,0.653,1.328
1782117473.708791,0.616000,1918576,1000,12,0,1,311.020,-5.222,12.880,567.897,-0.310,1.323
1782117473.709791,0.617000,1918577,1000,12,0,1,301.027,-12.911,12.991,567.056,-1.218,1.332
1782117473.710791,0.618000,1918578,1000,12,0,1,296.295,-16.316,12.904,568.425,-0.133,1.332
1782117473.711791,0.619000,1918579,1000,12,0,1,295.118,-14.402,12.394,568.882,0.681,1.333
1782117473.712791,0.620000,1918580,1000,12,0,1,299.466,-9.196,11.998,566.960,-1.115,1.340
1782117473.713791,0.621000,1918581,1000,12,0,1,306.047,-1.694,11.984,565.038,-2.794,1.377
1782117473.714791,0.622000,1918582,1000,12,0,1,307.681,0.170,11.897,566.119,-1.754,1.390
1782117473.715791,0.623000,1918583,1000,12,0,1,312.653,2.366,11.740,566.552,-0.529,1.386
1782117473.716791,0.624000,1918584,1000,12,0,1,310.852,1.349,11.566,568.834,1.046,1.384
1782117473.717791,0.625000,1918585,1000,12,0,1,304.246,-7.151,11.554,568.305,1.440,1.384
1782117473.718791,0.626000,1918586,1000,12,0,1,302.853,-8.823,11.610,567.560,-0.121,1.382
1782117473.719791,0.627000,1918587,1000,12,0,1,306.408,-5.643,11.442,568.689,1.068,1.387
1782117473.720791,0.628000,1918588,1000,12,0,1,304.750,-5.619,11.125,567.488,0.225,1.382
1782117473.721791,0.629000,1918589,1000,12,0,1,301.724,-8.461,11.021,566.143,-1.389,1.391
1782117473.722791,0.630000,1918590,1000,12,0,1,300.475,-7.952,11.073,567.945,0.252,1.391
1782117473.723791,0.631000,1918591,1000,12,0,1,299.994,-6.592,11.088,569.866,2.130,1.423
1782117473.724791,0.632000,1918592,1000,12,0,1,310.659,3.216,11.064,567.729,0.433,1.421
1782117473.725791,0.633000,1918593,1000,12,0,1,319.451,13.804,11.235,567.512,-0.733,1.423
1782117473.726791,0.634000,1918594,1000,12,0,1,323.775,15.896,11.277,568.209,0.491,1.418
1782117473.727791,0.635000,1918595,1000,12,0,1,320.340,12.930,11.141,568.761,0.561,1.405
1782117473.728791,0.636000,1918596,1000,12,0,1,313.446,4.620,11.158,568.569,0.589,1.391
1782117473.729791,0.637000,1918597,1000,12,0,1,308.738,0.295,11.133,569.362,0.772,1.295
1782117473.730791,0.638000,1918598,1000,12,0,1,307.200,-1.032,11.093,567.705,-0.218,1.273
1782117473.731791,0.639000,1918599,1000,12,0,1,305.951,-1.418,11.081,566.071,-2.198,1.308
1782117473.732791,0.640000,1918600,1000,12,0,1,307.056,-0.557,11.075,566.311,-1.628,1.300
1782117473.733791,0.641000,1918601,1000,12,0,1,307.681,0.279,11.027,566.215,-1.259,1.308
1782117473.734791,0.642000,1918602,1000,12,0,1,307.513,-0.521,10.959,566.119,-1.242,1.319
1782117473.735791,0.643000,1918603,1000,12,0,1,308.570,-0.526,10.956,567.008,-0.170,1.290
1782117473.736791,0.644000,1918604,1000,12,0,1,306.960,-2.190,10.960,567.152,0.184,1.289
1782117473.737791,0.645000,1918605,1000,12,0,1,305.255,-5.085,10.921,567.608,0.493,1.284
1782117473.738791,0.646000,1918606,1000,12,0,1,307.513,-3.520,10.769,568.641,1.371,1.298
1782117473.739791,0.647000,1918607,1000,12,0,1,307.248,-3.481,10.549,568.305,1.132,1.305
1782117473.740791,0.648000,1918608,1000,12,0,1,304.774,-6.042,10.473,566.383,-0.762,1.299
1782117473.741791,0.649000,1918609,1000,12,0,1,302.973,-7.187,10.434,569.314,1.121,1.296
1782117473.742791,0.650000,1918610,1000,12,0,1,301.772,-7.185,10.390,571.548,3.771,1.399
1782117473.743791,0.651000,1918611,1000,12,0,1,303.237,-4.767,10.367,569.410,1.304,1.401
1782117473.744791,0.652000,1918612,1000,12,0,1,304.006,-2.067,10.363,568.930,0.051,1.400
1782117473.745791,0.653000,1918613,1000,12,0,1,301.868,-2.520,10.341,567.560,-0.701,1.349
1782117473.746791,0.654000,1918614,1000,12,0,1,301.411,-1.719,10.323,568.401,-0.732,1.340
1782117473.747791,0.655000,1918615,1000,12,0,1,301.435,0.243,10.259,567.224,-0.706,1.343
1782117473.748791,0.656000,1918616,1000,12,0,1,301.772,1.676,9.706,567.128,-1.625,1.359
1782117473.749791,0.657000,1918617,1000,12,0,1,298.697,0.727,8.618,568.906,0.590,1.361
1782117473.750791,0.658000,1918618,1000,12,0,1,291.563,-4.553,7.519,566.840,-0.850,1.362
1782117473.751791,0.659000,1918619,1000,12,0,1,287.287,-7.285,6.917,568.185,-0.572,1.279
1782117473.752791,0.660000,1918620,1000,12,0,1,287.311,-5.356,6.624,569.026,1.282,1.287
1782117473.753791,0.661000,1918621,1000,12,0,1,288.801,-2.482,6.541,567.080,-0.953,1.284
1782117473.754791,0.662000,1918622,1000,12,0,1,283.996,-4.797,6.576,567.272,-0.862,1.287
1782117473.755791,0.663000,1918623,1000,12,0,1,284.501,-5.190,6.601,567.945,0.033,1.226
1782117473.756791,0.664000,1918624,1000,12,0,1,289.377,0.830,6.601,567.416,-0.366,1.174
1782117473.757791,0.665000,1918625,1000,12,0,1,298.769,7.958,6.688,568.858,0.578,1.173
1782117473.758791,0.666000,1918626,1000,12,0,1,315.968,21.390,7.303,569.890,1.773,1.199
1782117473.759791,0.667000,1918627,1000,12,0,1,322.958,25.960,7.968,569.602,1.121,1.197
1782117473.760791,0.668000,1918628,1000,12,0,1,318.946,17.149,8.002,568.593,0.055,1.197
1782117473.761791,0.669000,1918629,1000,12,0,1,307.008,3.905,7.759,567.392,-1.151,1.204
1782117473.762791,0.670000,1918630,1000,12,0,1,301.604,-4.402,7.674,567.224,-1.341,1.209
1782117473.763791,0.671000,1918631,1000,12,0,1,301.483,-3.168,7.683,566.864,-1.257,1.156
1782117473.764791,0.672000,1918632,1000,12,0,1,302.372,-2.060,7.689,566.744,-1.345,1.145
1782117473.765791,0.673000,1918633,1000,12,0,1,302.709,-0.307,7.682,568.377,0.253,1.143
1782117473.766791,0.674000,1918634,1000,12,0,1,295.839,-4.505,7.706,570.275,2.057,1.170
1782117473.767791,0.675000,1918635,1000,12,0,1,288.008,-10.513,7.783,569.818,1.670,1.176
1782117473.768791,0.676000,1918636,1000,12,0,1,281.835,-12.711,7.889,565.999,-1.775,1.203
1782117473.769791,0.677000,1918637,1000,12,0,1,276.310,-14.553,8.114,567.224,-1.508,1.212
1782117473.770791,0.678000,1918638,1000,12,0,1,276.646,-11.135,8.227,567.440,0.068,1.212
1782117473.771791,0.679000,1918639,1000,12,0,1,280.946,-4.177,8.161,567.152,-0.852,1.202
1782117473.772791,0.680000,1918640,1000,12,0,1,290.506,5.319,8.118,567.392,-0.079,1.201
1782117473.773791,0.681000,1918641,1000,12,0,1,291.419,7.893,8.142,567.729,0.065,1.163
1782117473.774791,0.682000,1918642,1000,12,0,1,285.462,0.649,8.129,569.794,1.744,1.187
1782117473.775791,0.683000,1918643,1000,12,0,1,281.835,-3.364,7.906,569.602,1.908,1.213
1782117473.776791,0.684000,1918644,1000,12,0,1,271.770,-11.086,7.740,567.536,-0.537,1.213
1782117473.777791,0.685000,1918645,1000,12,0,1,260.144,-21.139,8.093,570.395,1.390,1.227
1782117473.778791,0.686000,1918646,1000,12,0,1,260.576,-18.815,8.494,569.987,1.864,1.252
1782117473.779791,0.687000,1918647,1000,12,0,1,279.312,-0.454,8.494,568.906,-0.248,1.248
1782117473.780791,0.688000,1918648,1000,12,0,1,306.216,24.717,9.184,567.008,-1.370,1.262
1782117473.781791,0.689000,1918649,1000,12,0,1,315.656,32.467,10.266,565.230,-3.238,1.306
1782117473.782791,0.690000,1918650,1000,12,0,1,311.380,23.286,10.781,566.455,-1.844,1.312
1782117473.783791,0.691000,1918651,1000,12,0,1,306.240,14.857,10.984,567.272,-0.368,1.301
1782117473.784791,0.692000,1918652,1000,12,0,1,305.135,11.044,11.094,568.017,0.107,1.289
1782117473.785791,0.693000,1918653,1000,12,0,1,302.564,8.219,11.155,566.672,-0.429,1.290
1782117473.786791,0.694000,1918654,1000,12,0,1,298.529,3.732,11.163,568.473,0.264,1.290
1782117473.787791,0.695000,1918655,1000,12,0,1,299.970,4.538,11.158,567.464,0.679,1.292
1782117473.788791,0.696000,1918656,1000,12,0,1,304.126,8.787,11.216,568.785,0.418,1.279
1782117473.789791,0.697000,1918657,1000,12,0,1,302.084,7.164,11.251,569.578,2.176,1.306
1782117473.790791,0.698000,1918658,1000,12,0,1,298.241,2.583,11.224,569.434,1.123,1.311
1782117473.791791,0.699000,1918659,1000,12,0,1,295.911,0.164,11.178,569.722,1.382,1.316
1782117473.792791,0.700000,1918660,1000,12,0,1,292.836,-2.672,11.138,569.482,0.926,1.210
1782117473.793791,0.701000,1918661,1000,12,0,1,280.609,-12.471,11.257,568.858,0.075,1.196
1782117473.794791,0.702000,1918662,1000,12,0,1,276.670,-17.379,11.518,568.113,-0.528,1.198
1782117473.795791,0.703000,1918663,1000,12,0,1,285.221,-7.953,11.568,567.921,-0.932,1.201
1782117473.796791,0.704000,1918664,1000,12,0,1,292.452,-0.602,11.565,567.632,-0.798,1.202
1782117473.797791,0.705000,1918665,1000,12,0,1,293.364,-0.580,11.566,568.737,-0.154,1.198
1782117473.798791,0.706000,1918666,1000,12,0,1,290.722,-4.206,11.579,569.434,0.945,1.184
1782117473.799791,0.707000,1918667,1000,12,0,1,288.200,-7.581,11.628,569.794,0.804,1.186
1782117473.800791,0.708000,1918668,1000,12,0,1,283.612,-11.047,11.714,569.362,0.566,1.183
1782117473.801791,0.709000,1918669,1000,12,0,1,275.157,-17.439,11.927,569.122,-0.066,1.180
1782117473.802791,0.710000,1918670,1000,12,0,1,272.106,-18.493,12.187,569.098,0.006,1.166
1782117473.803791,0.711000,1918671,1000,12,0,1,275.925,-11.676,12.293,568.978,-0.205,1.158
1782117473.804791,0.712000,1918672,1000,12,0,1,282.387,-2.772,12.281,570.755,1.063,1.162
1782117473.805791,0.713000,1918673,1000,12,0,1,293.629,8.739,12.321,569.554,0.546,1.164
1782117473.806791,0.714000,1918674,1000,12,0,1,293.941,11.887,12.434,569.578,-0.460,1.165
1782117473.807791,0.715000,1918675,1000,12,0,1,290.218,7.026,12.423,569.362,0.037,1.162
1782117473.808791,0.716000,1918676,1000,12,0,1,286.543,5.141,12.071,568.930,-0.867,1.141
1782117473.809791,0.717000,1918677,1000,12,0,1,283.948,2.915,11.507,568.473,-0.906,1.138
1782117473.810791,0.718000,1918678,1000,12,0,1,282.435,2.860,11.255,565.399,-3.270,1.228
1782117473.811791,0.719000,1918679,1000,12,0,1,280.898,2.220,11.246,566.143,-3.016,1.290
1782117473.812791,0.720000,1918680,1000,12,0,1,281.642,3.006,11.237,566.960,-0.925,1.282
1782117473.813791,0.721000,1918681,1000,12,0,1,282.723,4.395,11.245,567.993,-0.396,1.271
1782117473.814791,0.722000,1918682,1000,12,0,1,283.828,4.378,11.259,567.993,0.367,1.258
1782117473.815791,0.723000,1918683,1000,12,0,1,279.889,0.884,11.259,567.753,-0.269,1.258
1782117473.816791,0.724000,1918684,1000,12,0,1,277.102,-3.642,11.253,568.713,0.727,1.228
1782117473.817791,0.725000,1918685,1000,12,0,1,282.195,0.158,11.154,568.545,0.718,1.210
1782117473.818791,0.726000,1918686,1000,12,0,1,288.200,4.942,11.031,569.194,0.827,1.189
1782117473.819791,0.727000,1918687,1000,12,0,1,289.041,4.420,10.855,569.386,1.269,1.183
1782117473.820791,0.728000,1918688,1000,12,0,1,285.798,-0.065,10.740,569.722,1.011,1.192
1782117473.821791,0.729000,1918689,1000,12,0,1,281.979,-4.462,10.742,569.770,1.180,1.198
1782117473.822791,0.730000,1918690,1000,12,0,1,282.579,-4.259,10.733,568.161,-0.426,1.199
1782117473.823791,0.731000,1918691,1000,12,0,1,284.092,-1.782,10.678,568.425,-0.534,1.201
1782117473.824791,0.732000,1918692,1000,12,0,1,287.191,1.249,10.679,567.512,-0.703,1.180
1782117473.825791,0.733000,1918693,1000,12,0,1,286.663,2.355,10.673,567.152,-1.388,1.165
1782117473.826791,0.734000,1918694,1000,12,0,1,282.843,-0.613,10.558,567.272,-0.687,1.167
1782117473.827791,0.735000,1918695,1000,12,0,1,278.736,-2.869,10.134,566.383,-1.306,1.165
1782117473.828791,0.736000,1918696,1000,12,0,1,274.076,-5.072,9.805,568.713,0.515,1.137
1782117473.829791,0.737000,1918697,1000,12,0,1,275.589,-2.533,9.811,568.377,1.178,1.149
1782117473.830791,0.738000,1918698,1000,12,0,1,279.096,3.164,9.178,569.554,1.067,1.142
1782117473.831791,0.739000,1918699,1000,12,0,1,279.048,3.924,7.967,567.416,0.310,1.047
1782117473.832791,0.740000,1918700,1000,12,0,1,278.304,3.320,7.269,567.753,-0.859,1.022
1782117473.833791,0.741000,1918701,1000,12,0,1,281.066,5.044,6.995,570.323,2.224,1.068
1782117473.834791,0.742000,1918702,1000,12,0,1,285.798,8.473,6.923,568.545,0.644,1.071
1782117473.835791,0.743000,1918703,1000,12,0,1,282.747,5.043,6.862,567.344,-1.177,1.083
1782117473.836791,0.744000,1918704,1000,12,0,1,279.577,-0.718,6.843,568.545,0.156,1.082
1782117473.837791,0.745000,1918705,1000,12,0,1,278.856,-2.059,6.819,568.689,0.323,1.079
1782117473.838791,0.746000,1918706,1000,12,0,1,281.138,-1.587,6.708,568.978,0.430,1.079
1782117473.839791,0.747000,1918707,1000,12,0,1,281.859,-1.028,6.633,569.506,0.787,1.040
1782117473.840791,0.748000,1918708,1000,12,0,1,283.900,-0.799,6.624,568.329,-0.102,1.028
1782117473.841791,0.749000,1918709,1000,12,0,1,286.230,1.141,6.626,568.065,-0.795,1.016
1782117473.842791,0.750000,1918710,1000,12,0,1,287.311,1.397,6.618,567.921,-0.459,1.009
1782117473.843791,0.751000,1918711,1000,12,0,1,286.615,0.628,6.379,567.272,-1.095,1.021
1782117473.844791,0.752000,1918712,1000,12,0,1,285.798,-0.133,5.887,567.921,-0.417,1.020
1782117473.845791,0.753000,1918713,1000,12,0,1,287.023,1.204,5.781,565.278,-1.969,1.049
1782117473.846791,0.754000,1918714,1000,12,0,1,286.471,1.964,5.787,567.272,-1.142,1.055
1782117473.847791,0.755000,1918715,1000,12,0,1,284.117,0.288,5.786,567.873,1.006,1.065
1782117473.848791,0.756000,1918716,1000,12,0,1,281.042,-1.173,5.758,568.089,0.224,1.057
1782117473.849791,0.757000,1918717,1000,12,0,1,277.991,-2.861,5.672,568.281,0.994,1.060
1782117473.850791,0.758000,1918718,1000,12,0,1,275.469,-3.579,5.476,569.842,1.675,1.083
1782117473.851791,0.759000,1918719,1000,12,0,1,276.934,-1.533,4.894,567.753,0.490,1.085
1782117473.852791,0.760000,1918720,1000,12,0,1,279.937,2.307,4.149,567.152,-1.119,1.097
1782117473.853791,0.761000,1918721,1000,12,0,1,273.764,-2.058,3.818,569.194,1.047,1.106
1782117473.854791,0.762000,1918722,1000,12,0,1,266.894,-9.186,4.014,569.866,1.711,1.122
1782117473.855791,0.763000,1918723,1000,12,0,1,258.727,-14.424,4.329,570.347,1.527,1.140
1782117473.856791,0.764000,1918724,1000,12,0,1,258.294,-14.947,4.515,569.482,0.919,1.146
1782117473.857791,0.765000,1918725,1000,12,0,1,270.449,-2.525,4.419,568.906,-0.341,1.147
1782117473.858791,0.766000,1918726,1000,12,0,1,283.708,9.891,4.578,570.227,0.912,1.148
1782117473.859791,0.767000,1918727,1000,12,0,1,289.833,13.874,4.963,569.602,0.435,1.142
1782117473.860791,0.768000,1918728,1000,12,0,1,285.606,8.070,5.077,568.593,-0.781,1.050
1782117473.861791,0.769000,1918729,1000,12,0,1,282.531,1.891,5.074,568.641,-0.708,0.965
1782117473.862791,0.770000,1918730,1000,12,0,1,283.516,2.239,5.066,569.122,-0.169,0.956
1782117473.863791,0.771000,1918731,1000,12,0,1,279.216,-1.331,5.031,568.521,-0.495,0.957
1782117473.864791,0.772000,1918732,1000,12,0,1,280.345,-1.379,4.997,569.578,0.112,0.956
1782117473.865791,0.773000,1918733,1000,12,0,1,279.553,0.496,4.996,569.146,0.292,0.956
1782117473.866791,0.774000,1918734,1000,12,0,1,279.673,0.269,4.969,568.185,-0.986,0.961
1782117473.867791,0.775000,1918735,1000,12,0,1,279.673,2.491,4.982,568.185,-0.789,0.962
1782117473.868791,0.776000,1918736,1000,12,0,1,285.269,6.955,5.030,568.089,-0.733,0.960
1782117473.869791,0.777000,1918737,1000,12,0,1,285.077,9.056,5.152,567.056,-1.454,0.966
1782117473.870791,0.778000,1918738,1000,12,0,1,283.756,6.066,5.223,568.065,-0.734,0.961
1782117473.871791,0.779000,1918739,1000,12,0,1,276.958,1.356,5.189,568.065,-0.140,0.946
1782117473.872791,0.780000,1918740,1000,12,0,1,272.491,-4.129,5.186,566.960,-1.287,0.962
1782117473.873791,0.781000,1918741,1000,12,0,1,272.683,-2.999,5.198,567.512,-0.819,0.966
1782117473.874791,0.782000,1918742,1000,12,0,1,275.397,-0.619,5.195,567.705,-0.222,0.961
1782117473.875791,0.783000,1918743,1000,12,0,1,276.382,0.150,5.185,568.017,-0.163,0.941
1782117473.876791,0.784000,1918744,1000,12,0,1,273.091,-3.214,5.204,568.858,0.754,0.942
1782117473.877791,0.785000,1918745,1000,12,0,1,273.019,-5.104,5.238,566.552,-0.979,0.934
1782117473.878791,0.786000,1918746,1000,12,0,1,273.932,-3.810,5.217,567.873,-0.601,0.935
1782117473.879791,0.787000,1918747,1000,12,0,1,276.262,-3.165,5.224,566.600,-0.344,0.921
1782117473.880791,0.788000,1918748,1000,12,0,1,275.301,-3.263,5.225,567.128,-0.949,0.919
1782117473.881791,0.789000,1918749,1000,12,0,1,273.643,-5.853,5.261,566.648,-0.057,0.918
1782117473.882791,0.790000,1918750,1000,12,0,1,277.655,-2.077,5.248,569.842,1.624,0.938
1782117473.883791,0.791000,1918751,1000,12,0,1,282.459,2.912,5.216,569.674,2.842,0.971
1782117473.884791,0.792000,1918752,1000,12,0,1,282.699,3.505,5.100,567.488,-0.237,0.967
1782117473.885791,0.793000,1918753,1000,12,0,1,279.721,1.017,5.052,567.152,-0.410,0.955
1782117473.886791,0.794000,1918754,1000,12,0,1,280.177,1.409,5.055,568.233,0.598,0.958
1782117473.887791,0.795000,1918755,1000,12,0,1,282.195,4.561,5.088,567.897,0.481,0.959
1782117473.888791,0.796000,1918756,1000,12,0,1,278.976,2.814,5.098,568.497,0.737,0.963
1782117473.889791,0.797000,1918757,1000,12,0,1,282.075,4.755,5.140,566.504,-0.616,0.961
1782117473.890791,0.798000,1918758,1000,12,0,1,286.422,10.075,5.333,567.344,-0.609,0.964
1782117473.891791,0.799000,1918759,1000,12,0,1,281.330,5.482,5.387,567.152,0.101,0.958
1782117473.892791,0.800000,1918760,1000,12,0,1,279.913,2.184,5.392,569.026,0.909,0.964
1782117473.893791,0.801000,1918761,1000,12,0,1,283.804,5.626,5.450,570.563,2.749,1.028
1782117473.894791,0.802000,1918762,1000,12,0,1,285.053,5.739,5.510,568.713,0.759,1.032
1782117473.895791,0.803000,1918763,1000,12,0,1,276.958,-2.045,5.515,567.681,-0.841,1.001
1782117473.896791,0.804000,1918764,1000,12,0,1,266.966,-12.651,5.791,567.224,-0.872,0.995
1782117473.897791,0.805000,1918765,1000,12,0,1,265.693,-13.907,6.116,567.344,-1.044,0.996
1782117473.898791,0.806000,1918766,1000,12,0,1,269.536,-9.199,6.250,568.161,0.059,0.996
1782117473.899791,0.807000,1918767,1000,12,0,1,278.592,-1.373,6.240,568.641,0.385,0.987
1782117473.900791,0.808000,1918768,1000,12,0,1,282.075,2.767,6.232,566.672,-0.949,0.968
1782117473.901791,0.809000,1918769,1000,12,0,1,280.129,-0.703,6.229,567.008,-1.262,0.982
1782117473.902791,0.810000,1918770,1000,12,0,1,277.078,-3.636,6.242,566.840,-0.446,0.971
1782117473.903791,0.811000,1918771,1000,12,0,1,274.556,-5.904,6.290,566.672,-0.937,0.969
1782117473.904791,0.812000,1918772,1000,12,0,1,275.493,-4.331,6.185,565.783,-1.052,0.950
1782117473.905791,0.813000,1918773,1000,12,0,1,280.225,1.022,5.841,568.137,0.500,0.927
1782117473.906791,0.814000,1918774,1000,12,0,1,283.804,5.378,5.498,567.080,0.753,0.924
1782117473.907791,0.815000,1918775,1000,12,0,1,282.771,5.158,5.535,568.665,0.794,0.930
1782117473.908791,0.816000,1918776,1000,12,0,1,277.991,1.279,5.358,567.777,1.243,0.938
1782117473.909791,0.817000,1918777,1000,12,0,1,272.058,-3.045,5.004,566.840,-0.727,0.941
1782117473.910791,0.818000,1918778,1000,12,0,1,271.842,-2.592,4.886,566.431,-0.523,0.938
1782117473.911791,0.819000,1918779,1000,12,0,1,273.139,0.763,4.880,566.744,-0.478,0.935
1782117473.912791,0.820000,1918780,1000,12,0,1,272.010,0.522,4.870,569.146,1.534,0.959
1782117473.913791,0.821000,1918781,1000,12,0,1,270.449,-0.381,4.867,569.674,2.377,1.014
1782117473.914791,0.822000,1918782,1000,12,0,1,272.250,0.972,4.865,567.152,-0.413,1.016
1782117473.915791,0.823000,1918783,1000,12,0,1,273.547,2.382,4.876,567.584,-0.468,1.017
1782117473.916791,0.824000,1918784,1000,12,0,1,275.613,2.870,4.893,568.834,0.896,1.015
1782117473.917791,0.825000,1918785,1000,12,0,1,271.986,-0.357,4.880,569.602,1.407,1.029
1782117473.918791,0.826000,1918786,1000,12,0,1,271.482,-3.275,4.803,569.458,1.124,1.036
1782117473.919791,0.827000,1918787,1000,12,0,1,272.370,-2.054,4.638,567.200,-0.847,1.022
1782117473.920791,0.828000,1918788,1000,12,0,1,271.890,-3.338,4.582,565.062,-2.956,1.099
1782117473.921791,0.829000,1918789,1000,12,0,1,274.268,-1.773,4.585,566.552,-1.470,1.119
1782117473.922791,0.830000,1918790,1000,12,0,1,279.625,2.825,4.565,568.521,0.878,1.111
1782117473.923791,0.831000,1918791,1000,12,0,1,286.615,8.183,4.691,566.864,-0.230,1.105
1782117473.924791,0.832000,1918792,1000,12,0,1,293.989,13.688,5.073,565.759,-1.641,1.129
1782117473.925791,0.833000,1918793,1000,12,0,1,293.869,12.514,5.373,568.954,1.215,1.142
1782117473.926791,0.834000,1918794,1000,12,0,1,290.602,7.375,5.455,566.263,-0.017,1.137
1782117473.927791,0.835000,1918795,1000,12,0,1,287.191,3.642,5.431,566.143,-1.632,1.151
1782117473.928791,0.836000,1918796,1000,12,0,1,287.600,3.215,5.423,568.834,1.734,1.174
1782117473.929791,0.837000,1918797,1000,12,0,1,285.390,2.346,5.415,568.305,1.146,1.184
1782117473.930791,0.838000,1918798,1000,12,0,1,281.642,-1.264,5.398,567.825,0.214,1.177
1782117473.931791,0.839000,1918799,1000,12,0,1,277.727,-3.789,5.361,567.344,-0.058,1.177
1782117473.932791,0.840000,1918800,1000,12,0,1,274.748,-5.762,5.415,566.191,-1.269,1.168
1782117473.933791,0.841000,1918801,1000,12,0,1,274.148,-5.426,5.454,568.377,0.414,1.099
1782117473.934791,0.842000,1918802,1000,12,0,1,275.877,-3.168,5.449,567.560,0.472,1.100
1782117473.935791,0.843000,1918803,1000,12,0,1,277.655,-1.397,5.451,568.065,-0.077,1.099
1782117473.936791,0.844000,1918804,1000,12,0,1,278.976,-0.664,5.448,567.825,0.474,1.097
1782117473.937791,0.845000,1918805,1000,12,0,1,280.946,-0.077,5.410,568.497,0.322,1.096
1782117473.938791,0.846000,1918806,1000,12,0,1,276.982,-3.740,5.421,566.768,-0.427,1.093
1782117473.939791,0.847000,1918807,1000,12,0,1,276.262,-6.727,5.463,566.768,-1.216,1.103
1782117473.940791,0.848000,1918808,1000,12,0,1,277.271,-5.113,5.323,568.209,0.685,1.104
1782117473.941791,0.849000,1918809,1000,12,0,1,275.901,-6.748,5.352,568.401,0.888,1.111
1782117473.942791,0.850000,1918810,1000,12,0,1,276.070,-6.504,5.422,568.954,1.052,1.113
1782117473.943791,0.851000,1918811,1000,12,0,1,275.301,-6.058,5.431,568.785,1.123,1.055
1782117473.944791,0.852000,1918812,1000,12,0,1,277.583,-3.855,5.398,567.104,-0.666,1.054
1782117473.945791,0.853000,1918813,1000,12,0,1,275.998,-2.735,5.404,567.657,-0.373,1.049
1782117473.946791,0.854000,1918814,1000,12,0,1,274.700,-3.745,5.126,569.194,1.133,1.054
1782117473.947791,0.855000,1918815,1000,12,0,1,276.982,0.352,4.734,567.488,-0.073,1.043
1782117473.948791,0.856000,1918816,1000,12,0,1,278.616,3.270,4.576,566.912,-1.305,1.060
1782117473.949791,0.857000,1918817,1000,12,0,1,274.196,1.156,4.574,567.296,-0.440,1.060
1782117473.950791,0.858000,1918818,1000,12,0,1,273.427,0.395,4.558,567.921,-0.122,1.052
1782117473.951791,0.859000,1918819,1000,12,0,1,272.539,1.886,4.565,568.665,0.682,1.041
1782117473.952791,0.860000,1918820,1000,12,0,1,270.545,0.466,4.536,567.344,-0.425,1.041
1782117473.953791,0.861000,1918821,1000,12,0,1,271.506,1.822,4.466,566.576,-1.462,1.053
1782117473.954791,0.862000,1918822,1000,12,0,1,274.700,4.870,4.477,568.665,0.416,1.044
1782117473.955791,0.863000,1918823,1000,12,0,1,273.211,3.584,4.503,568.233,0.557,1.044
1782117473.956791,0.864000,1918824,1000,12,0,1,272.130,1.035,4.441,570.419,1.465,1.059
1782117473.957791,0.865000,1918825,1000,12,0,1,270.545,-0.698,4.382,569.362,1.500,1.075
1782117473.958791,0.866000,1918826,1000,12,0,1,270.401,-2.091,4.388,568.906,-0.258,1.061
1782117473.959791,0.867000,1918827,1000,12,0,1,268.983,-3.345,4.393,567.200,-0.858,1.063
1782117473.960791,0.868000,1918828,1000,12,0,1,268.503,-4.601,4.425,567.152,-1.665,1.086
1782117473.961791,0.869000,1918829,1000,12,0,1,270.401,-2.896,4.443,567.777,-0.311,1.085
1782117473.962791,0.870000,1918830,1000,12,0,1,271.001,-1.911,4.451,565.543,-1.959,1.098
1782117473.963791,0.871000,1918831,1000,12,0,1,268.167,-4.086,4.488,568.785,0.085,1.046
1782117473.964791,0.872000,1918832,1000,12,0,1,267.086,-4.631,4.533,567.176,0.638,1.048
1782117473.965791,0.873000,1918833,1000,12,0,1,269.104,-1.628,4.526,568.185,-0.502,1.048
1782117473.966791,0.874000,1918834,1000,12,0,1,269.968,0.840,4.510,567.608,0.855,1.048
1782117473.967791,0.875000,1918835,1000,12,0,1,267.278,-0.249,4.510,565.999,-1.801,1.060
1782117473.968791,0.876000,1918836,1000,12,0,1,266.774,0.165,4.486,566.143,-1.002,1.057
1782117473.969791,0.877000,1918837,1000,12,0,1,265.164,0.862,4.478,567.032,-0.257,1.051
1782117473.970791,0.878000,1918838,1000,12,0,1,261.513,-1.149,4.456,567.993,0.717,0.970
1782117473.971791,0.879000,1918839,1000,12,0,1,263.483,1.319,4.453,567.801,0.682,0.952
1782117473.972791,0.880000,1918840,1000,12,0,1,262.834,3.056,4.456,568.233,0.510,0.946
1782117473.973791,0.881000,1918841,1000,12,0,1,260.744,0.887,4.305,569.434,1.718,0.977
1782117473.974791,0.882000,1918842,1000,12,0,1,263.579,3.572,3.878,568.233,0.490,0.951
1782117473.975791,0.883000,1918843,1000,12,0,1,269.704,8.561,3.657,569.434,0.870,0.944
1782117473.976791,0.884000,1918844,1000,12,0,1,269.560,8.075,3.686,569.602,1.437,0.965
1782117473.977791,0.885000,1918845,1000,12,0,1,268.623,4.466,3.705,570.227,1.208,0.953
1782117473.978791,0.886000,1918846,1000,12,0,1,268.911,3.465,3.709,569.266,0.712,0.926
1782117473.979791,0.887000,1918847,1000,12,0,1,272.058,4.083,3.739,569.794,0.353,0.913
1782117473.980791,0.888000,1918848,1000,12,0,1,276.310,6.473,3.845,569.722,0.781,0.919
1782117473.981791,0.889000,1918849,1000,12,0,1,280.321,7.936,3.970,568.185,-0.860,0.927
1782117473.982791,0.890000,1918850,1000,12,0,1,281.762,7.386,4.023,567.392,-1.570,0.936
1782117473.983791,0.891000,1918851,1000,12,0,1,280.417,4.347,3.997,567.440,-1.208,0.950
1782117473.984791,0.892000,1918852,1000,12,0,1,281.762,3.577,4.004,566.167,-1.947,0.987
1782117473.985791,0.893000,1918853,1000,12,0,1,278.376,1.100,4.002,566.624,-1.561,1.011
1782117473.986791,0.894000,1918854,1000,12,0,1,273.860,-4.047,4.042,567.272,-0.414,1.011
1782117473.987791,0.895000,1918855,1000,12,0,1,268.407,-7.085,4.164,567.464,-0.206,1.010
1782117473.988791,0.896000,1918856,1000,12,0,1,271.241,-4.665,4.182,567.512,-0.099,1.008
1782117473.989791,0.897000,1918857,1000,12,0,1,270.305,-1.669,4.080,569.458,1.325,1.011
1782117473.990791,0.898000,1918858,1000,12,0,1,270.521,-2.082,4.026,569.146,1.376,1.025
1782117473.991791,0.899000,1918859,1000,12,0,1,269.848,-0.259,3.911,566.912,-1.102,1.029
1782117473.992791,0.900000,1918860,1000,12,0,1,270.497,-0.147,3.802,568.593,-0.157,1.019
1782117473.993791,0.901000,1918861,1000,12,0,1,273.211,2.814,3.725,569.482,1.299,1.023
1782117473.994791,0.902000,1918862,1000,12,0,1,271.938,1.767,3.694,568.785,0.091,1.019
1782117473.995791,0.903000,1918863,1000,12,0,1,267.494,-3.252,3.702,568.137,-0.409,1.019
1782117473.996791,0.904000,1918864,1000,12,0,1,263.699,-6.831,3.789,567.945,-0.744,1.012
1782117473.997791,0.905000,1918865,1000,12,0,1,260.576,-9.721,4.030,568.954,0.221,1.012
1782117473.998791,0.906000,1918866,1000,12,0,1,263.411,-7.256,4.133,567.681,-0.436,0.997
1782117473.999791,0.907000,1918867,1000,12,0,1,265.116,-4.628,4.182,568.906,-0.033,0.995
1782117474.000791,0.908000,1918868,1000,12,0,1,261.297,-7.720,4.321,568.065,0.319,0.996
1782117474.001791,0.909000,1918869,1000,12,0,1,258.486,-10.203,4.548,566.744,-1.506,1.014
1782117474.002791,0.910000,1918870,1000,12,0,1,260.000,-7.639,4.674,568.785,0.569,1.015
1782117474.003791,0.911000,1918871,1000,12,0,1,263.002,-3.566,4.694,567.705,0.351,0.995
1782117474.004791,0.912000,1918872,1000,12,0,1,262.306,-2.383,4.656,566.696,-1.185,1.008
1782117474.005791,0.913000,1918873,1000,12,0,1,265.452,0.427,4.628,568.353,0.624,1.008
1782117474.006791,0.914000,1918874,1000,12,0,1,261.417,0.057,4.626,568.761,1.150,1.000
1782117474.007791,0.915000,1918875,1000,12,0,1,257.766,-3.654,4.654,566.191,-1.032,0.988
1782117474.008791,0.916000,1918876,1000,12,0,1,249.263,-7.060,4.750,567.921,-0.361,0.989
1782117474.009791,0.917000,1918877,1000,12,0,1,241.192,-12.905,5.067,567.152,0.208,0.982
1782117474.010791,0.918000,1918878,1000,12,0,1,242.873,-7.941,5.149,568.305,-0.101,0.953
1782117474.011791,0.919000,1918879,1000,12,0,1,257.261,7.034,5.228,567.729,0.514,0.955
1782117474.012791,0.920000,1918880,1000,12,0,1,268.863,19.606,5.912,567.801,-0.524,0.917
1782117474.013791,0.921000,1918881,1000,12,0,1,271.073,20.075,6.533,567.729,0.046,0.917
1782117474.014791,0.922000,1918882,1000,12,0,1,273.716,18.757,7.020,566.047,-1.599,0.940
1782117474.015791,0.923000,1918883,1000,12,0,1,279.456,20.843,7.610,565.495,-2.120,0.984
1782117474.016791,0.924000,1918884,1000,12,0,1,276.574,15.375,7.914,566.552,-0.717,0.982
1782117474.017791,0.925000,1918885,1000,12,0,1,278.928,11.849,8.089,567.008,-0.064,0.948
1782117474.018791,0.926000,1918886,1000,12,0,1,283.876,13.896,8.325,569.242,1.813,0.972
1782117474.019791,0.927000,1918887,1000,12,0,1,284.717,10.852,8.464,567.801,1.144,0.985
1782117474.020791,0.928000,1918888,1000,12,0,1,285.342,7.668,8.532,567.993,0.343,0.981
1782117474.021791,0.929000,1918889,1000,12,0,1,285.510,5.237,8.562,567.705,0.847,0.983
1782117474.022791,0.930000,1918890,1000,12,0,1,285.294,2.406,8.558,568.113,0.599,0.984
1782117474.023791,0.931000,1918891,1000,12,0,1,284.837,0.659,8.557,568.521,1.326,0.972
1782117474.024791,0.932000,1918892,1000,12,0,1,282.459,-2.462,8.549,567.344,0.194,0.970
1782117474.025791,0.933000,1918893,1000,12,0,1,281.787,-3.634,8.479,567.032,-0.393,0.964
1782117474.026791,0.934000,1918894,1000,12,0,1,280.417,-4.195,8.422,565.807,-0.942,0.952
1782117474.027791,0.935000,1918895,1000,12,0,1,280.297,-4.189,8.420,566.359,-0.976,0.946
1782117474.028791,0.936000,1918896,1000,12,0,1,279.577,-3.630,8.421,567.993,1.055,0.953
1782117474.029791,0.937000,1918897,1000,12,0,1,278.400,-4.235,8.422,570.779,2.898,1.036
1782117474.030791,0.938000,1918898,1000,12,0,1,277.511,-4.223,8.394,568.137,1.228,1.045
1782117474.031791,0.939000,1918899,1000,12,0,1,277.030,-4.130,8.339,564.918,-2.920,1.117
1782117474.032791,0.940000,1918900,1000,12,0,1,278.352,-2.828,8.283,566.816,-1.106,1.105
1782117474.033791,0.941000,1918901,1000,12,0,1,276.790,-3.541,8.275,567.440,0.151,1.092
1782117474.034791,0.942000,1918902,1000,12,0,1,277.631,-4.039,8.279,566.480,-1.005,1.067
1782117474.035791,0.943000,1918903,1000,12,0,1,277.655,-3.428,8.292,567.272,-0.278,1.044
1782117474.036791,0.944000,1918904,1000,12,0,1,278.231,-4.318,8.295,565.639,-1.185,1.056
1782117474.037791,0.945000,1918905,1000,12,0,1,276.790,-5.331,8.269,565.639,-1.628,1.080
1782117474.038791,0.946000,1918906,1000,12,0,1,280.417,-3.966,8.261,567.416,0.528,1.083
1782117474.039791,0.947000,1918907,1000,12,0,1,280.561,-2.709,8.267,568.161,1.319,1.083
1782117474.040791,0.948000,1918908,1000,12,0,1,281.378,-3.907,8.280,569.578,2.233,1.111
1782117474.041791,0.949000,1918909,1000,12,0,1,281.835,-2.779,8.289,569.722,2.500,1.155
1782117474.042791,0.950000,1918910,1000,12,0,1,278.736,-5.566,8.327,569.602,1.690,1.180
1782117474.043791,0.951000,1918911,1000,12,0,1,275.661,-7.854,8.391,568.665,0.946,1.173
1782117474.044791,0.952000,1918912,1000,12,0,1,278.039,-4.776,8.414,567.945,-0.196,1.173
1782117474.045791,0.953000,1918913,1000,12,0,1,276.742,-3.464,8.416,567.272,-0.568,1.174
1782117474.046791,0.954000,1918914,1000,12,0,1,274.556,-4.566,8.385,568.761,0.344,1.171
1782117474.047791,0.955000,1918915,1000,12,0,1,274.748,-2.619,8.280,567.825,0.210,1.171
1782117474.048791,0.956000,1918916,1000,12,0,1,270.713,-3.685,8.233,567.392,-0.951,1.177
1782117474.049791,0.957000,1918917,1000,12,0,1,270.497,-3.515,8.222,568.689,0.468,1.179
1782117474.050791,0.958000,1918918,1000,12,0,1,272.731,1.033,8.150,569.074,0.774,1.183
1782117474.051791,0.959000,1918919,1000,12,0,1,273.932,2.561,8.030,569.794,0.960,1.171
1782117474.052791,0.960000,1918920,1000,12,0,1,270.617,0.822,7.958,568.545,0.082,1.169
1782117474.053791,0.961000,1918921,1000,12,0,1,267.590,-2.510,7.949,567.440,-1.572,1.189
1782117474.054791,0.962000,1918922,1000,12,0,1,266.341,-2.873,7.953,567.008,-1.564,1.197
1782117474.055791,0.963000,1918923,1000,12,0,1,264.516,-4.131,7.974,565.471,-2.760,1.256
1782117474.056791,0.964000,1918924,1000,12,0,1,261.201,-6.517,8.027,568.065,-0.742,1.250
1782117474.057791,0.965000,1918925,1000,12,0,1,259.495,-7.645,8.083,570.707,2.388,1.287
1782117474.058791,0.966000,1918926,1000,12,0,1,258.006,-7.767,8.096,569.746,1.284,1.298
1782117474.059791,0.967000,1918927,1000,12,0,1,254.979,-9.150,7.993,569.914,0.791,1.303
1782117474.060791,0.968000,1918928,1000,12,0,1,256.853,-6.861,7.973,566.744,-1.332,1.316
1782117474.061791,0.969000,1918929,1000,12,0,1,263.170,0.480,7.911,567.584,-1.762,1.338
1782117474.062791,0.970000,1918930,1000,12,0,1,268.215,5.770,7.454,569.002,0.840,1.341
1782117474.063791,0.971000,1918931,1000,12,0,1,272.659,9.524,7.022,570.323,1.293,1.353
1782117474.064791,0.972000,1918932,1000,12,0,1,270.064,7.733,6.594,568.785,0.615,1.337
1782117474.065791,0.973000,1918933,1000,12,0,1,260.144,-1.254,5.901,566.768,-1.850,1.329
1782117474.066791,0.974000,1918934,1000,12,0,1,259.567,-2.244,5.495,569.410,0.350,1.326
1782117474.067791,0.975000,1918935,1000,12,0,1,267.614,6.972,5.325,568.882,0.902,1.332
1782117474.068791,0.976000,1918936,1000,12,0,1,277.343,15.915,5.437,567.152,-1.530,1.325
1782117474.069791,0.977000,1918937,1000,12,0,1,276.286,15.627,5.665,565.110,-2.565,1.364
1782117474.070791,0.978000,1918938,1000,12,0,1,270.329,7.837,5.669,567.104,-1.478,1.379
1782117474.071791,0.979000,1918939,1000,12,0,1,274.388,9.536,5.780,567.224,0.091,1.374
1782117474.072791,0.980000,1918940,1000,12,0,1,283.468,16.823,6.241,567.200,-0.788,1.376
1782117474.073791,0.981000,1918941,1000,12,0,1,286.759,17.669,6.722,568.954,1.157,1.373
1782117474.074791,0.982000,1918942,1000,12,0,1,282.387,10.835,6.886,567.825,0.350,1.374
1782117474.075791,0.983000,1918943,1000,12,0,1,270.377,-2.211,6.874,567.560,-0.568,1.375
1782117474.076791,0.984000,1918944,1000,12,0,1,259.111,-13.946,7.127,568.473,0.630,1.371
1782117474.077791,0.985000,1918945,1000,12,0,1,251.400,-19.813,7.635,568.209,0.246,1.365
1782117474.078791,0.986000,1918946,1000,12,0,1,250.440,-19.248,8.089,568.041,0.069,1.357
1782117474.079791,0.987000,1918947,1000,12,0,1,259.808,-9.157,8.170,567.248,-0.540,1.296
1782117474.080791,0.988000,1918948,1000,12,0,1,267.662,0.231,8.148,568.353,0.201,1.284
1782117474.081791,0.989000,1918949,1000,12,0,1,262.546,-3.463,8.142,566.480,-0.616,1.219
1782117474.082791,0.990000,1918950,1000,12,0,1,249.599,-14.640,8.392,567.272,-0.804,1.214
1782117474.083791,0.991000,1918951,1000,12,0,1,242.224,-19.980,8.841,569.963,2.363,1.259
1782117474.084791,0.992000,1918952,1000,12,0,1,245.107,-14.205,9.048,570.083,2.337,1.294
1782117474.085791,0.993000,1918953,1000,12,0,1,256.781,-1.005,9.036,569.122,1.091,1.303
1782117474.086791,0.994000,1918954,1000,12,0,1,269.944,12.754,9.194,567.632,-0.272,1.293
1782117474.087791,0.995000,1918955,1000,12,0,1,265.765,10.762,9.289,567.320,-0.871,1.278
1782117474.088791,0.996000,1918956,1000,12,0,1,255.844,-0.215,9.272,568.377,0.317,1.276
1782117474.089791,0.997000,1918957,1000,12,0,1,257.430,1.156,9.265,569.866,1.469,1.280
1782117474.090791,0.998000,1918958,1000,12,0,1,274.652,15.996,9.521,567.464,-0.207,1.240
1782117474.091791,0.999000,1918959,1000,12,0,1,292.211,31.373,10.497,566.095,-2.295,1.233
1782117474.092791,1.000000,1918960,1000,12,0,1,282.699,21.667,10.907,567.200,-0.801,1.214
1782117474.093791,1.001000,1918961,1000,12,0,1,273.139,5.957,10.883,567.248,-0.534,1.209
1782117474.094791,1.002000,1918962,1000,12,0,1,265.981,0.044,10.862,570.227,1.550,1.229
1782117474.095791,1.003000,1918963,1000,12,0,1,257.526,-9.183,10.928,567.584,0.373,1.227
1782117474.096791,1.004000,1918964,1000,12,0,1,250.536,-13.964,11.086,567.392,-1.577,1.246
1782117474.097791,1.005000,1918965,1000,12,0,1,252.049,-12.159,11.213,567.512,-0.088,1.246
1782117474.098791,1.006000,1918966,1000,12,0,1,253.826,-7.598,11.252,567.272,-1.025,1.247
1782117474.099791,1.007000,1918967,1000,12,0,1,261.777,-1.024,11.242,567.705,-0.131,1.246
1782117474.100791,1.008000,1918968,1000,12,0,1,277.030,12.621,11.382,569.266,1.017,1.249
1782117474.101791,1.009000,1918969,1000,12,0,1,281.162,16.060,11.601,567.584,0.087,1.242
1782117474.102791,1.010000,1918970,1000,12,0,1,278.664,9.578,11.679,567.753,-0.536,1.244
1782117474.103791,1.011000,1918971,1000,12,0,1,285.990,12.623,11.809,569.554,1.491,1.242
1782117474.104791,1.012000,1918972,1000,12,0,1,285.510,11.450,11.913,568.209,0.566,1.225
1782117474.105791,1.013000,1918973,1000,12,0,1,269.464,-4.898,11.919,568.761,0.201,1.161
1782117474.106791,1.014000,1918974,1000,12,0,1,253.490,-20.215,12.222,569.674,1.651,1.180
1782117474.107791,1.015000,1918975,1000,12,0,1,239.390,-29.270,12.859,570.131,1.388,1.148
1782117474.108791,1.016000,1918976,1000,12,0,1,227.692,-35.253,13.747,569.746,1.228,1.146
1782117474.109791,1.017000,1918977,1000,12,0,1,218.540,-36.329,14.619,568.954,-0.016,1.141
1782117474.110791,1.018000,1918978,1000,12,0,1,216.690,-31.557,15.254,567.152,-1.376,1.142
1782117474.111791,1.019000,1918979,1000,12,0,1,239.270,-6.955,15.286,567.921,-1.204,1.127
1782117474.112791,1.020000,1918980,1000,12,0,1,279.505,32.289,15.932,569.002,0.368,1.122
1782117474.113791,1.021000,1918981,1000,12,0,1,289.833,43.323,17.016,569.890,0.787,1.113
1782117474.114791,1.022000,1918982,1000,12,0,1,277.367,24.553,17.333,568.930,0.149,1.110
1782117474.115791,1.023000,1918983,1000,12,0,1,273.283,15.093,17.463,569.987,0.308,1.079
1782117474.116791,1.024000,1918984,1000,12,0,1,254.187,-1.409,17.461,568.641,-0.188,1.078
1782117474.117791,1.025000,1918985,1000,12,0,1,246.356,-13.908,17.544,568.737,-1.043,1.081
1782117474.118791,1.026000,1918986,1000,12,0,1,252.890,-4.621,17.411,569.866,0.484,1.061
1782117474.119791,1.027000,1918987,1000,12,0,1,261.897,3.043,17.276,570.491,0.784,1.003
1782117474.120791,1.028000,1918988,1000,12,0,1,268.023,9.149,17.288,570.947,1.027,0.992
1782117474.121791,1.029000,1918989,1000,12,0,1,268.431,8.114,17.274,570.899,0.882,1.000
1782117474.122791,1.030000,1918990,1000,12,0,1,267.566,5.536,17.127,570.083,-0.109,0.994
1782117474.123791,1.031000,1918991,1000,12,0,1,264.564,2.478,16.948,569.098,-0.940,0.989
1782117474.124791,1.032000,1918992,1000,12,0,1,268.263,3.560,16.886,567.344,-2.368,1.043
1782117474.125791,1.033000,1918993,1000,12,0,1,276.454,11.201,16.957,569.098,-0.986,1.049
1782117474.126791,1.034000,1918994,1000,12,0,1,284.092,15.859,16.990,571.284,1.591,1.069
1782117474.127791,1.035000,1918995,1000,12,0,1,281.330,12.681,16.854,569.194,-0.069,1.069
1782117474.128791,1.036000,1918996,1000,12,0,1,276.622,4.669,16.645,568.521,-1.377,1.087
1782117474.129791,1.037000,1918997,1000,12,0,1,265.885,-4.286,16.606,568.641,-0.636,1.088
1782117474.130791,1.038000,1918998,1000,12,0,1,249.935,-18.824,16.818,567.416,-1.710,1.114
1782117474.131791,1.039000,1918999,1000,12,0,1,238.069,-27.088,17.242,565.711,-2.869,1.182
1782117474.132791,1.040000,1919000,1000,12,0,1,236.940,-24.683,17.469,567.224,-1.629,1.199
1782117474.133791,1.041000,1919001,1000,12,0,1,257.958,-4.036,17.249,569.866,1.353,1.167
1782117474.134791,1.042000,1919002,1000,12,0,1,269.440,11.489,17.208,569.266,0.982,1.128
1782117474.135791,1.043000,1919003,1000,12,0,1,267.855,7.046,17.236,567.897,-0.682,1.122
1782117474.136791,1.044000,1919004,1000,12,0,1,280.273,14.585,17.265,569.602,0.587,1.124
1782117474.137791,1.045000,1919005,1000,12,0,1,289.809,22.142,17.481,568.161,0.001,1.117
1782117474.138791,1.046000,1919006,1000,12,0,1,292.836,19.293,17.693,568.425,-0.715,1.121
1782117474.139791,1.047000,1919007,1000,12,0,1,282.699,8.029,17.728,568.209,-0.008,1.102
1782117474.140791,1.048000,1919008,1000,12,0,1,276.142,-3.545,17.590,567.584,-0.984,1.110
1782117474.141791,1.049000,1919009,1000,12,0,1,280.057,-0.592,17.022,569.386,0.723,1.066
1782117474.142791,1.050000,1919010,1000,12,0,1,279.336,-1.173,16.745,567.104,-0.445,1.062
1782117474.143791,1.051000,1919011,1000,12,0,1,271.914,-8.190,16.764,568.377,-0.526,1.062
1782117474.144791,1.052000,1919012,1000,12,0,1,267.206,-12.101,16.851,570.515,2.580,1.101
1782117474.145791,1.053000,1919013,1000,12,0,1,268.959,-9.213,16.851,568.473,0.452,1.102
1782117474.146791,1.054000,1919014,1000,12,0,1,271.794,-4.300,16.746,565.543,-2.161,1.122
1782117474.147791,1.055000,1919015,1000,12,0,1,275.973,-0.006,16.657,566.023,-1.840,1.151
1782117474.148791,1.056000,1919016,1000,12,0,1,273.235,-0.331,16.623,565.471,-1.279,1.156
1782117474.149791,1.057000,1919017,1000,12,0,1,262.930,-9.313,16.674,568.785,0.975,1.164
1782117474.150791,1.058000,1919018,1000,12,0,1,266.413,-6.821,16.606,568.161,1.847,1.185
1782117474.151791,1.059000,1919019,1000,12,0,1,273.908,2.674,16.455,567.320,-0.217,1.185
1782117474.152791,1.060000,1919020,1000,12,0,1,277.871,5.451,16.417,569.218,1.745,1.208
1782117474.153791,1.061000,1919021,1000,12,0,1,278.736,5.609,16.339,568.785,1.453,1.207
1782117474.154791,1.062000,1919022,1000,12,0,1,277.535,2.738,16.263,568.473,0.420,1.206
1782117474.155791,1.063000,1919023,1000,12,0,1,276.646,0.451,16.248,567.440,-0.111,1.206
1782117474.156791,1.064000,1919024,1000,12,0,1,274.748,-2.126,15.998,568.305,-0.163,1.183
1782117474.157791,1.065000,1919025,1000,12,0,1,273.331,-4.506,15.466,568.305,0.605,1.170
1782117474.158791,1.066000,1919026,1000,12,0,1,275.949,-2.764,14.646,568.954,0.353,1.158
1782117474.159791,1.067000,1919027,1000,12,0,1,277.271,-1.401,13.717,569.218,1.080,1.168
1782117474.160791,1.068000,1919028,1000,12,0,1,273.091,-5.038,12.990,568.810,0.247,1.152
1782117474.161791,1.069000,1919029,1000,12,0,1,270.905,-7.430,12.995,569.794,0.991,1.148
1782117474.162791,1.070000,1919030,1000,12,0,1,272.082,-5.090,12.188,568.834,0.453,1.149
1782117474.163791,1.071000,1919031,1000,12,0,1,275.541,-1.268,10.537,569.746,0.468,1.145
1782117474.164791,1.072000,1919032,1000,12,0,1,273.499,-1.135,9.950,567.705,-0.311,1.146
1782117474.165791,1.073000,1919033,1000,12,0,1,271.506,-3.098,9.728,567.945,-1.268,1.159
1782117474.166791,1.074000,1919034,1000,12,0,1,272.346,-0.838,9.727,567.344,-0.470,1.161
1782117474.167791,1.075000,1919035,1000,12,0,1,269.848,-1.557,9.528,567.200,-1.291,1.166
1782117474.168791,1.076000,1919036,1000,12,0,1,265.933,-4.253,9.525,567.104,-0.582,1.167
1782117474.169791,1.077000,1919037,1000,12,0,1,266.245,-2.966,9.525,568.089,-0.036,1.161
1782117474.170791,1.078000,1919038,1000,12,0,1,267.422,-0.447,9.436,566.792,-0.511,1.154
1782117474.171791,1.079000,1919039,1000,12,0,1,267.014,-0.082,9.366,568.401,0.078,1.148
1782117474.172791,1.080000,1919040,1000,12,0,1,268.623,1.172,9.335,568.401,0.952,1.155
1782117474.173791,1.081000,1919041,1000,12,0,1,273.427,5.230,9.358,568.473,0.179,1.148
1782117474.174791,1.082000,1919042,1000,12,0,1,274.004,5.511,9.377,569.506,1.173,1.111
1782117474.175791,1.083000,1919043,1000,12,0,1,273.067,2.840,9.251,568.785,0.511,1.104
1782117474.176791,1.084000,1919044,1000,12,0,1,272.058,1.097,8.976,568.353,-0.459,1.083
1782117474.177791,1.085000,1919045,1000,12,0,1,267.374,-3.519,8.809,569.626,0.737,1.088
1782117474.178791,1.086000,1919046,1000,12,0,1,263.723,-7.404,8.846,569.866,0.861,1.077
1782117474.179791,1.087000,1919047,1000,12,0,1,263.411,-6.879,8.879,568.473,-0.376,1.075
1782117474.180791,1.088000,1919048,1000,12,0,1,268.743,-1.839,8.475,567.512,-1.509,1.069
1782117474.181791,1.089000,1919049,1000,12,0,1,278.904,7.698,7.637,567.152,-1.426,1.009
1782117474.182791,1.090000,1919050,1000,12,0,1,281.258,10.332,6.948,568.834,-0.053,0.982
1782117474.183791,1.091000,1919051,1000,12,0,1,273.355,2.286,6.933,568.041,0.128,0.964
1782117474.184791,1.092000,1919052,1000,12,0,1,271.914,-0.671,6.740,569.434,0.475,0.956
1782117474.185791,1.093000,1919053,1000,12,0,1,275.181,3.480,6.684,569.314,1.365,0.971
1782117474.186791,1.094000,1919054,1000,12,0,1,271.890,1.453,6.361,566.311,-1.712,0.997
1782117474.187791,1.095000,1919055,1000,12,0,1,265.404,-4.169,5.569,569.770,0.675,1.002
1782117474.188791,1.096000,1919056,1000,12,0,1,259.255,-8.249,4.993,569.122,1.685,1.024
1782117474.189791,1.097000,1919057,1000,12,0,1,255.700,-9.838,5.057,569.434,0.193,1.025
1782117474.190791,1.098000,1919058,1000,12,0,1,254.883,-8.225,5.165,567.993,0.210,1.016
1782117474.191791,1.099000,1919059,1000,12,0,1,252.890,-7.656,5.276,568.785,-0.574,1.014
1782117474.192791,1.100000,1919060,1000,12,0,1,245.876,-11.500,5.519,566.840,-0.875,1.019
1782117474.193791,1.101000,1919061,1000,12,0,1,243.329,-12.692,5.687,569.194,-0.427,1.019
1782117474.194791,1.102000,1919062,1000,12,0,1,251.641,-3.487,5.445,568.906,0.963,0.961
1782117474.195791,1.103000,1919063,1000,12,0,1,271.698,14.334,5.662,568.521,-0.734,0.964
1782117474.196791,1.104000,1919064,1000,12,0,1,281.835,23.822,6.561,568.593,-0.092,0.914
1782117474.197791,1.105000,1919065,1000,12,0,1,278.592,16.633,6.970,567.080,-1.459,0.901
1782117474.198791,1.106000,1919066,1000,12,0,1,274.436,9.044,7.086,567.681,-1.300,0.901
1782117474.199791,1.107000,1919067,1000,12,0,1,272.106,4.607,6.993,570.995,2.057,0.937
1782117474.200791,1.108000,1919068,1000,12,0,1,268.575,0.233,6.926,569.194,0.829,0.907
1782117474.201791,1.109000,1919069,1000,12,0,1,270.905,0.877,6.917,569.386,0.001,0.907
1782117474.202791,1.110000,1919070,1000,12,0,1,271.193,2.186,6.881,567.080,-1.017,0.884
1782117474.203791,1.111000,1919071,1000,12,0,1,265.500,-2.858,6.847,566.672,-2.192,0.914
1782117474.204791,1.112000,1919072,1000,12,0,1,257.814,-8.732,6.946,567.801,-0.258,0.913
1782117474.205791,1.113000,1919073,1000,12,0,1,254.787,-9.917,7.086,566.431,-1.083,0.926
1782117474.206791,1.114000,1919074,1000,12,0,1,261.225,-2.345,7.088,568.353,0.081,0.926
1782117474.207791,1.115000,1919075,1000,12,0,1,270.497,8.140,7.152,570.155,2.607,0.993
1782117474.208791,1.116000,1919076,1000,12,0,1,275.109,12.422,7.354,569.650,1.536,1.015
1782117474.209791,1.117000,1919077,1000,12,0,1,281.162,15.799,7.684,569.722,1.401,1.023
1782117474.210791,1.118000,1919078,1000,12,0,1,283.660,16.628,8.004,568.978,0.549,1.025
1782117474.211791,1.119000,1919079,1000,12,0,1,283.900,13.238,8.153,570.059,0.946,1.024
1782117474.212791,1.120000,1919080,1000,12,0,1,273.523,2.865,8.131,569.146,0.535,1.025
1782117474.213791,1.121000,1919081,1000,12,0,1,262.954,-9.906,8.249,566.504,-2.280,1.072
1782117474.214791,1.122000,1919082,1000,12,0,1,257.285,-14.348,8.493,568.065,-1.203,1.085
1782117474.215791,1.123000,1919083,1000,12,0,1,263.411,-9.519,8.588,570.323,1.386,1.088
1782117474.216791,1.124000,1919084,1000,12,0,1,269.896,-1.586,8.590,569.194,0.342,1.087
1782117474.217791,1.125000,1919085,1000,12,0,1,270.353,-1.767,8.591,568.065,-1.066,1.082
1782117474.218791,1.126000,1919086,1000,12,0,1,266.942,-5.146,8.601,567.681,-1.229,1.093
1782117474.219791,1.127000,1919087,1000,12,0,1,262.450,-9.087,8.686,569.746,0.386,1.094
1782117474.220791,1.128000,1919088,1000,12,0,1,263.339,-8.303,8.765,567.104,-0.871,1.099
1782117474.221791,1.129000,1919089,1000,12,0,1,268.503,-2.112,8.770,570.035,0.079,1.099
1782117474.222791,1.130000,1919090,1000,12,0,1,275.301,4.106,8.787,570.707,2.539,1.148
1782117474.223791,1.131000,1919091,1000,12,0,1,273.499,4.015,8.775,568.041,-0.962,1.156
1782117474.224791,1.132000,1919092,1000,12,0,1,268.383,-1.779,8.744,568.209,-0.751,1.149
1782117474.225791,1.133000,1919093,1000,12,0,1,268.023,-1.408,8.737,566.215,-1.733,1.172
1782117474.226791,1.134000,1919094,1000,12,0,1,272.034,2.717,8.744,568.425,-0.706,1.175
1782117474.227791,1.135000,1919095,1000,12,0,1,272.779,4.635,8.754,570.251,2.322,1.215
1782117474.228791,1.136000,1919096,1000,12,0,1,268.647,0.956,8.692,568.185,-0.126,1.209
1782117474.229791,1.137000,1919097,1000,12,0,1,262.114,-4.426,8.660,567.873,-0.592,1.211
1782117474.230791,1.138000,1919098,1000,12,0,1,259.567,-6.341,8.703,567.608,-0.556,1.195
1782117474.231791,1.139000,1919099,1000,12,0,1,258.390,-5.652,8.671,567.825,-0.526,1.180
1782117474.232791,1.140000,1919100,1000,12,0,1,258.462,-4.812,8.574,568.425,0.213,1.180
1782117474.233791,1.141000,1919101,1000,12,0,1,262.258,-0.917,8.569,567.272,-0.692,1.184
1782117474.234791,1.142000,1919102,1000,12,0,1,265.020,2.173,8.574,567.104,-1.113,1.193
1782117474.235791,1.143000,1919103,1000,12,0,1,265.885,2.076,8.565,567.705,-0.268,1.178
1782117474.236791,1.144000,1919104,1000,12,0,1,264.684,0.586,8.563,568.521,0.394,1.154
1782117474.237791,1.145000,1919105,1000,12,0,1,262.017,-2.637,8.551,566.720,-0.765,1.155
1782117474.238791,1.146000,1919106,1000,12,0,1,263.291,-2.183,8.477,567.344,-0.885,1.137
1782117474.239791,1.147000,1919107,1000,12,0,1,262.594,-1.959,8.366,567.104,-0.125,1.137
1782117474.240791,1.148000,1919108,1000,12,0,1,261.057,-3.702,8.301,566.095,-1.340,1.152
1782117474.241791,1.149000,1919109,1000,12,0,1,261.321,-2.732,8.240,566.023,-0.995,1.158
1782117474.242791,1.150000,1919110,1000,12,0,1,264.179,0.256,8.078,567.512,0.411,1.153
1782117474.243791,1.151000,1919111,1000,12,0,1,263.339,0.997,7.877,567.921,1.205,1.164
1782117474.244791,1.152000,1919112,1000,12,0,1,263.963,1.212,7.863,568.713,1.574,1.177
1782117474.245791,1.153000,1919113,1000,12,0,1,264.323,2.980,7.609,566.984,0.458,1.174
1782117474.246791,1.154000,1919114,1000,12,0,1,260.312,0.153,6.823,567.705,0.270,1.175
1782117474.247791,1.155000,1919115,1000,12,0,1,258.655,-1.101,6.406,566.912,0.461,1.158
1782117474.248791,1.156000,1919116,1000,12,0,1,257.069,-0.673,6.278,567.681,0.278,1.144
1782117474.249791,1.157000,1919117,1000,12,0,1,256.156,-1.056,6.246,567.344,0.749,1.112
1782117474.250791,1.158000,1919118,1000,12,0,1,255.003,-0.578,6.246,568.521,0.948,1.114
1782117474.251791,1.159000,1919119,1000,12,0,1,250.656,-3.605,6.266,569.146,1.927,1.146
1782117474.252791,1.160000,1919120,1000,12,0,1,248.326,-5.210,6.302,567.296,-0.019,1.137
1782117474.253791,1.161000,1919121,1000,12,0,1,252.697,-0.813,6.290,567.488,-0.461,1.096
1782117474.254791,1.162000,1919122,1000,12,0,1,253.250,1.197,6.170,566.888,-0.324,1.097
1782117474.255791,1.163000,1919123,1000,12,0,1,251.641,-1.155,6.010,568.161,-0.041,1.086
1782117474.256791,1.164000,1919124,1000,12,0,1,250.223,-2.142,6.009,568.858,1.355,1.103
1782117474.257791,1.165000,1919125,1000,12,0,1,253.370,-0.177,5.898,566.263,-1.284,1.055
1782117474.258791,1.166000,1919126,1000,12,0,1,254.283,1.569,5.634,567.945,-0.376,1.034
1782117474.259791,1.167000,1919127,1000,12,0,1,254.931,1.009,5.174,569.002,1.418,1.034
1782117474.260791,1.168000,1919128,1000,12,0,1,254.739,1.236,4.612,568.089,0.104,1.031
1782117474.261791,1.169000,1919129,1000,12,0,1,249.527,-2.991,4.236,567.536,-0.336,1.024
1782117474.262791,1.170000,1919130,1000,12,0,1,250.680,-2.664,4.234,567.224,-0.624,1.025
1782117474.263791,1.171000,1919131,1000,12,0,1,251.328,0.565,3.996,565.543,-1.733,1.003
1782117474.264791,1.172000,1919132,1000,12,0,1,250.295,-0.313,3.443,565.807,-1.677,1.017
1782117474.265791,1.173000,1919133,1000,12,0,1,249.815,0.897,3.171,566.912,-0.061,0.998
1782117474.266791,1.174000,1919134,1000,12,0,1,251.809,3.079,3.193,567.224,0.318,0.997
1782117474.267791,1.175000,1919135,1000,12,0,1,250.175,3.470,3.221,566.888,0.096,0.986
1782117474.268791,1.176000,1919136,1000,12,0,1,248.830,1.987,3.150,566.431,-0.293,0.971
1782117474.269791,1.177000,1919137,1000,12,0,1,250.367,4.140,2.935,568.353,1.088,0.982
1782117474.270791,1.178000,1919138,1000,12,0,1,250.247,4.562,2.766,567.200,0.784,0.981
1782117474.271791,1.179000,1919139,1000,12,0,1,250.848,4.401,2.820,566.239,-0.989,0.990
1782117474.272791,1.180000,1919140,1000,12,0,1,248.662,2.905,2.790,565.278,-1.167,0.938
1782117474.273791,1.181000,1919141,1000,12,0,1,250.199,2.401,2.752,566.552,-0.577,0.931
1782117474.274791,1.182000,1919142,1000,12,0,1,251.472,4.058,2.800,565.519,-0.459,0.928
1782117474.275791,1.183000,1919143,1000,12,0,1,250.680,1.755,2.804,566.119,-0.769,0.901
1782117474.276791,1.184000,1919144,1000,12,0,1,250.343,0.721,2.780,567.152,0.902,0.905
1782117474.277791,1.185000,1919145,1000,12,0,1,251.472,0.655,2.703,568.305,1.476,0.868
1782117474.278791,1.186000,1919146,1000,12,0,1,254.547,2.521,2.723,569.242,2.305,0.927
1782117474.279791,1.187000,1919147,1000,12,0,1,257.117,4.128,2.714,566.600,0.084,0.924
1782117474.280791,1.188000,1919148,1000,12,0,1,257.502,3.393,2.606,565.471,-1.738,0.953
1782117474.281791,1.189000,1919149,1000,12,0,1,256.180,1.485,2.489,565.110,-1.200,0.965
1782117474.282791,1.190000,1919150,1000,12,0,1,255.124,-0.146,2.394,568.425,1.047,0.976
1782117474.283791,1.191000,1919151,1000,12,0,1,255.916,0.545,2.392,565.519,0.233,0.971
1782117474.284791,1.192000,1919152,1000,12,0,1,255.916,0.969,2.376,565.519,-1.688,0.988
1782117474.285791,1.193000,1919153,1000,12,0,1,255.916,1.059,2.362,565.519,0.100,0.987
1782117474.286791,1.194000,1919154,1000,12,0,1,253.899,0.064,2.361,567.392,0.616,0.989
1782117474.287791,1.195000,1919155,1000,12,0,1,251.088,-2.136,2.351,569.362,3.161,1.080
1782117474.288791,1.196000,1919156,1000,12,0,1,247.653,-4.056,2.400,567.945,1.514,1.094
1782117474.289791,1.197000,1919157,1000,12,0,1,247.413,-3.757,2.442,567.560,0.388,1.095
1782117474.290791,1.198000,1919158,1000,12,0,1,246.212,-3.039,2.424,566.119,-0.360,1.080
1782117474.291791,1.199000,1919159,1000,12,0,1,245.467,-3.469,2.443,566.912,-0.638,1.075
1782117474.292791,1.200000,1919160,1000,12,0,1,246.476,-1.785,2.456,567.921,1.108,1.084
1782117474.293791,1.201000,1919161,1000,12,0,1,245.515,-2.071,2.469,566.383,-0.682,1.075
1782117474.294791,1.202000,1919162,1000,12,0,1,245.443,-2.586,2.490,569.410,1.370,1.070
1782117474.295791,1.203000,1919163,1000,12,0,1,246.068,-1.719,2.466,570.563,3.043,1.151
1782117474.296791,1.204000,1919164,1000,12,0,1,247.605,-0.965,2.470,569.722,1.287,1.165
1782117474.297791,1.205000,1919165,1000,12,0,1,250.079,1.004,2.469,569.963,1.192,1.175
1782117474.298791,1.206000,1919166,1000,12,0,1,250.440,0.880,2.470,567.440,-0.923,1.182
1782117474.299791,1.207000,1919167,1000,12,0,1,252.169,1.318,2.473,566.119,-2.707,1.238
1782117474.300791,1.208000,1919168,1000,12,0,1,249.791,-0.301,2.472,567.921,-0.708,1.234
1782117474.301791,1.209000,1919169,1000,12,0,1,247.869,-3.057,2.457,567.849,-0.264,1.205
1782117474.302791,1.210000,1919170,1000,12,0,1,245.035,-4.129,2.416,566.744,-1.360,1.220
1782117474.303791,1.211000,1919171,1000,12,0,1,247.941,-1.907,2.428,568.930,0.374,1.219
1782117474.304791,1.212000,1919172,1000,12,0,1,249.046,1.620,2.433,566.600,-0.593,1.221
1782117474.305791,1.213000,1919173,1000,12,0,1,245.299,-1.309,2.434,567.224,-1.373,1.237
1782117474.306791,1.214000,1919174,1000,12,0,1,243.738,-1.926,2.431,566.359,-0.582,1.224
1782117474.307791,1.215000,1919175,1000,12,0,1,241.864,-1.684,2.442,567.464,-0.763,1.216
1782117474.308791,1.216000,1919176,1000,12,0,1,240.735,-1.923,2.447,569.074,1.607,1.236
1782117474.309791,1.217000,1919177,1000,12,0,1,240.423,-0.487,2.444,568.377,0.603,1.222
1782117474.310791,1.218000,1919178,1000,12,0,1,240.231,-0.021,2.438,566.311,-1.300,1.236
1782117474.311791,1.219000,1919179,1000,12,0,1,240.879,1.315,2.408,566.383,-1.475,1.252
1782117474.312791,1.220000,1919180,1000,12,0,1,240.807,1.486,2.388,567.753,-0.039,1.249
1782117474.313791,1.221000,1919181,1000,12,0,1,242.152,2.255,2.407,566.215,-0.851,1.231
1782117474.314791,1.222000,1919182,1000,12,0,1,241.216,1.544,2.417,566.888,-1.064,1.217
1782117474.315791,1.223000,1919183,1000,12,0,1,240.687,-0.114,2.414,567.897,0.728,1.221
1782117474.316791,1.224000,1919184,1000,12,0,1,244.002,2.186,2.394,567.152,-0.279,1.221
1782117474.317791,1.225000,1919185,1000,12,0,1,240.351,-0.517,2.344,567.729,0.204,1.222
1782117474.318791,1.226000,1919186,1000,12,0,1,237.757,-4.648,2.419,567.272,0.087,1.221
1782117474.319791,1.227000,1919187,1000,12,0,1,240.111,-1.891,2.362,568.882,0.966,1.219
1782117474.320791,1.228000,1919188,1000,12,0,1,241.792,-0.040,2.272,569.146,1.814,1.241
1782117474.321791,1.229000,1919189,1000,12,0,1,241.672,0.155,2.185,567.753,0.035,1.233
1782117474.322791,1.230000,1919190,1000,12,0,1,241.720,0.381,2.147,568.617,0.591,1.224
1782117474.323791,1.231000,1919191,1000,12,0,1,241.792,1.007,2.125,568.281,0.681,1.226
1782117474.324791,1.232000,1919192,1000,12,0,1,244.747,3.769,2.114,567.416,-0.471,1.226
1782117474.325791,1.233000,1919193,1000,12,0,1,245.587,5.530,2.240,565.711,-1.551,1.240
1782117474.326791,1.234000,1919194,1000,12,0,1,247.293,6.365,2.412,566.359,-1.350,1.248
1782117474.327791,1.235000,1919195,1000,12,0,1,244.386,4.804,2.504,568.305,0.977,1.239
1782117474.328791,1.236000,1919196,1000,12,0,1,240.663,0.594,2.480,569.074,1.560,1.215
1782117474.329791,1.237000,1919197,1000,12,0,1,238.789,-0.369,2.411,564.870,-1.732,1.240
1782117474.330791,1.238000,1919198,1000,12,0,1,237.877,-0.788,2.366,567.440,-0.955,1.222
1782117474.331791,1.239000,1919199,1000,12,0,1,239.078,0.471,2.357,568.737,1.947,1.241
1782117474.332791,1.240000,1919200,1000,12,0,1,241.768,3.011,2.395,567.080,-0.529,1.235
1782117474.333791,1.241000,1919201,1000,12,0,1,240.351,1.696,2.406,566.143,-1.181,1.246
1782117474.334791,1.242000,1919202,1000,12,0,1,240.519,0.401,2.403,567.272,-0.374,1.224
1782117474.335791,1.243000,1919203,1000,12,0,1,238.717,-1.024,2.402,567.056,-0.104,1.224
1782117474.336791,1.244000,1919204,1000,12,0,1,244.194,1.513,2.412,565.975,-1.163,1.232
1782117474.337791,1.245000,1919205,1000,12,0,1,248.950,6.318,2.554,566.936,-0.475,1.150
1782117474.338791,1.246000,1919206,1000,12,0,1,251.472,6.044,2.632,564.414,-1.634,1.153
1782117474.339791,1.247000,1919207,1000,12,0,1,252.289,5.522,2.693,566.984,-0.674,1.156
1782117474.340791,1.248000,1919208,1000,12,0,1,251.641,3.120,2.695,567.993,2.086,1.192
1782117474.341791,1.249000,1919209,1000,12,0,1,249.046,-0.120,2.650,567.392,0.383,1.189
1782117474.342791,1.250000,1919210,1000,12,0,1,246.356,-3.011,2.672,568.041,1.354,1.194
1782117474.343791,1.251000,1919211,1000,12,0,1,245.587,-3.654,2.706,566.624,0.118,1.191
1782117474.344791,1.252000,1919212,1000,12,0,1,243.762,-3.928,2.738,566.720,-0.268,1.175
1782117474.345791,1.253000,1919213,1000,12,0,1,243.522,-3.798,2.780,567.392,0.835,1.100
1782117474.346791,1.254000,1919214,1000,12,0,1,245.828,-0.288,2.777,568.233,1.164,1.097
1782117474.347791,1.255000,1919215,1000,12,0,1,246.284,1.067,2.777,567.224,0.694,1.089
1782117474.348791,1.256000,1919216,1000,12,0,1,246.356,1.435,2.782,566.143,-0.869,1.088
1782117474.349791,1.257000,1919217,1000,12,0,1,248.542,3.355,2.816,564.942,-1.453,1.039
1782117474.350791,1.258000,1919218,1000,12,0,1,251.472,5.784,2.932,566.552,-0.481,1.036
1782117474.351791,1.259000,1919219,1000,12,0,1,249.359,3.662,2.946,569.050,2.259,1.084
1782117474.352791,1.260000,1919220,1000,12,0,1,246.764,-0.246,2.887,567.320,0.786,1.072
1782117474.353791,1.261000,1919221,1000,12,0,1,241.720,-4.510,2.945,566.263,-0.952,1.080
1782117474.354791,1.262000,1919222,1000,12,0,1,236.892,-9.501,3.229,566.840,-0.139,1.076
1782117474.355791,1.263000,1919223,1000,12,0,1,231.607,-12.883,3.703,567.825,0.532,1.061
1782117474.356791,1.264000,1919224,1000,12,0,1,233.529,-11.217,4.019,569.098,1.659,1.084
1782117474.357791,1.265000,1919225,1000,12,0,1,234.946,-7.259,4.141,566.672,-0.287,1.079
1782117474.358791,1.266000,1919226,1000,12,0,1,237.156,-5.424,4.203,566.792,-1.101,1.067
1782117474.359791,1.267000,1919227,1000,12,0,1,237.324,-3.592,4.233,566.840,-0.157,1.063
1782117474.360791,1.268000,1919228,1000,12,0,1,231.872,-7.631,4.368,567.969,0.209,1.048
1782117474.361791,1.269000,1919229,1000,12,0,1,230.454,-8.563,4.529,566.239,-0.378,1.028
1782117474.362791,1.270000,1919230,1000,12,0,1,248.350,7.233,4.639,565.567,-1.774,1.058
1782117474.363791,1.271000,1919231,1000,12,0,1,268.215,26.242,5.932,566.912,0.053,1.051
1782117474.364791,1.272000,1919232,1000,12,0,1,271.818,27.376,7.080,565.831,-0.504,1.043
1782117474.365791,1.273000,1919233,1000,12,0,1,268.527,19.556,7.601,565.519,-1.132,1.050
1782117474.366791,1.274000,1919234,1000,12,0,1,263.387,12.265,7.790,564.750,-1.036,1.060
1782117474.367791,1.275000,1919235,1000,12,0,1,256.589,3.787,7.808,567.080,0.355,1.061
1782117474.368791,1.276000,1919236,1000,12,0,1,256.517,2.084,7.786,566.407,1.044,1.071
1782117474.369791,1.277000,1919237,1000,12,0,1,253.490,0.346,7.782,566.888,0.150,1.062
1782117474.370791,1.278000,1919238,1000,12,0,1,250.031,-3.813,7.801,565.951,0.366,1.032
1782117474.371791,1.279000,1919239,1000,12,0,1,245.635,-6.476,7.854,568.233,1.043,1.042
1782117474.372791,1.280000,1919240,1000,12,0,1,242.248,-9.368,7.965,568.834,2.582,1.101
1782117474.373791,1.281000,1919241,1000,12,0,1,245.395,-5.939,8.008,568.161,0.886,1.104
1782117474.374791,1.282000,1919242,1000,12,0,1,247.365,-2.729,7.999,567.584,0.392,1.104
1782117474.375791,1.283000,1919243,1000,12,0,1,248.974,-2.140,7.967,567.152,-0.250,1.082
1782117474.376791,1.284000,1919244,1000,12,0,1,250.488,-0.749,7.916,567.536,-0.105,1.065
1782117474.377791,1.285000,1919245,1000,12,0,1,255.460,1.839,7.891,567.921,0.458,1.058
1782117474.378791,1.286000,1919246,1000,12,0,1,258.919,4.527,7.917,568.593,0.662,1.039
1782117474.379791,1.287000,1919247,1000,12,0,1,254.595,-0.766,7.918,566.720,-0.438,1.012
1782117474.380791,1.288000,1919248,1000,12,0,1,247.845,-8.111,7.999,567.032,-1.065,1.014
1782117474.381791,1.289000,1919249,1000,12,0,1,246.836,-9.427,8.109,566.311,-0.569,0.979
1782117474.382791,1.290000,1919250,1000,12,0,1,248.662,-6.563,8.151,567.801,-0.156,0.977
1782117474.383791,1.291000,1919251,1000,12,0,1,252.746,-2.392,8.155,567.032,0.394,0.964
1782117474.384791,1.292000,1919252,1000,12,0,1,258.390,3.264,8.168,566.383,-1.074,0.975
1782117474.385791,1.293000,1919253,1000,12,0,1,260.384,5.483,8.203,565.014,-1.434,0.995
1782117474.386791,1.294000,1919254,1000,12,0,1,254.523,0.462,8.201,566.311,-0.854,0.989
1782117474.387791,1.295000,1919255,1000,12,0,1,252.337,-2.362,8.159,565.471,-0.490,0.989
1782117474.388791,1.296000,1919256,1000,12,0,1,251.352,-1.418,8.116,567.368,0.228,0.962
1782117474.389791,1.297000,1919257,1000,12,0,1,248.470,-3.220,8.091,567.416,1.279,0.975
1782117474.390791,1.298000,1919258,1000,12,0,1,245.323,-4.728,8.107,567.753,0.594,0.933
1782117474.391791,1.299000,1919259,1000,12,0,1,247.173,-2.478,8.114,567.152,0.457,0.933
1782117474.392791,1.300000,1919260,1000,12,0,1,248.206,0.157,8.103,566.263,-0.762,0.920
1782117474.393791,1.301000,1919261,1000,12,0,1,248.254,0.083,8.087,566.984,-0.265,0.920
1782117474.394791,1.302000,1919262,1000,12,0,1,247.437,-0.364,8.068,567.921,0.829,0.927
1782117474.395791,1.303000,1919263,1000,12,0,1,247.365,-0.940,8.051,566.383,-0.576,0.923
1782117474.396791,1.304000,1919264,1000,12,0,1,249.070,0.138,8.051,565.423,-1.554,0.934
1782117474.397791,1.305000,1919265,1000,12,0,1,249.791,0.501,8.050,565.230,-1.480,0.953
1782117474.398791,1.306000,1919266,1000,12,0,1,247.677,-2.074,8.053,566.648,-0.070,0.945
1782117474.399791,1.307000,1919267,1000,12,0,1,244.290,-5.409,8.075,565.302,-0.565,0.925
1782117474.400791,1.308000,1919268,1000,12,0,1,239.750,-9.103,8.136,565.951,-0.565,0.926
1782117474.401791,1.309000,1919269,1000,12,0,1,236.604,-11.009,8.267,566.023,0.397,0.871
1782117474.402791,1.310000,1919270,1000,12,0,1,236.988,-9.139,8.368,567.032,0.758,0.871
1782117474.403791,1.311000,1919271,1000,12,0,1,239.654,-4.783,8.371,564.606,-0.454,0.863
1782117474.404791,1.312000,1919272,1000,12,0,1,240.111,-2.371,8.269,567.536,0.726,0.869
1782117474.405791,1.313000,1919273,1000,12,0,1,236.940,-3.533,8.081,566.864,1.899,0.906
1782117474.406791,1.314000,1919274,1000,12,0,1,234.129,-4.578,7.950,565.254,-0.957,0.886
1782117474.407791,1.315000,1919275,1000,12,0,1,234.898,-2.029,7.889,566.119,0.244,0.885
1782117474.408791,1.316000,1919276,1000,12,0,1,237.829,2.464,7.859,566.768,0.835,0.880
1782117474.409791,1.317000,1919277,1000,12,0,1,241.384,6.773,7.901,567.320,1.021,0.891
1782117474.410791,1.318000,1919278,1000,12,0,1,244.627,10.015,7.954,565.591,-0.138,0.891
1782117474.411791,1.319000,1919279,1000,12,0,1,247.221,11.810,8.037,563.909,-2.277,0.946
1782117474.412791,1.320000,1919280,1000,12,0,1,250.127,13.072,8.183,564.654,-1.176,0.927
1782117474.413791,1.321000,1919281,1000,12,0,1,243.474,6.950,7.359,563.981,-1.377,0.947
1782117474.414791,1.322000,1919282,1000,12,0,1,237.252,-1.308,6.261,562.924,-2.139,0.992
1782117474.415791,1.323000,1919283,1000,12,0,1,239.774,0.584,5.618,564.462,-0.726,0.984
1782117474.416791,1.324000,1919284,1000,12,0,1,242.753,3.352,5.365,566.335,1.491,0.996
1782117474.417791,1.325000,1919285,1000,12,0,1,243.738,3.228,5.357,566.455,1.540,1.018
1782117474.418791,1.326000,1919286,1000,12,0,1,244.434,2.863,5.364,564.438,-0.181,1.007
1782117474.419791,1.327000,1919287,1000,12,0,1,243.594,1.192,5.367,566.095,0.566,1.010
1782117474.420791,1.328000,1919288,1000,12,0,1,245.227,1.352,5.343,565.230,0.905,1.017
1782117474.421791,1.329000,1919289,1000,12,0,1,246.836,2.533,5.276,563.501,-1.390,1.025
1782117474.422791,1.330000,1919290,1000,12,0,1,252.001,5.513,5.166,563.405,-0.980,0.968
1782117474.423791,1.331000,1919291,1000,12,0,1,254.019,7.380,5.203,564.029,-0.267,0.961
1782117474.424791,1.332000,1919292,1000,12,0,1,249.431,2.073,5.197,565.615,1.238,0.975
1782117474.425791,1.333000,1919293,1000,12,0,1,245.996,-1.975,5.196,564.750,0.935,0.983
1782117474.426791,1.334000,1919294,1000,12,0,1,241.528,-4.865,5.240,564.822,0.255,0.984
1782117474.427791,1.335000,1919295,1000,12,0,1,240.711,-5.600,5.293,566.960,2.362,1.037
1782117474.428791,1.336000,1919296,1000,12,0,1,240.807,-3.274,5.275,567.056,2.324,1.084
1782117474.429791,1.337000,1919297,1000,12,0,1,243.425,-0.752,5.275,565.158,0.304,1.083
1782117474.430791,1.338000,1919298,1000,12,0,1,245.876,2.860,5.164,567.032,1.117,1.084
1782117474.431791,1.339000,1919299,1000,12,0,1,246.620,3.216,5.010,567.368,2.040,1.119
1782117474.432791,1.340000,1919300,1000,12,0,1,245.323,2.035,4.932,566.936,0.699,1.123
1782117474.433791,1.341000,1919301,1000,12,0,1,244.843,0.757,4.921,567.584,1.198,1.134
1782117474.434791,1.342000,1919302,1000,12,0,1,242.801,-1.020,4.902,567.200,0.678,1.128
1782117474.435791,1.343000,1919303,1000,12,0,1,242.825,-1.994,4.848,565.951,-0.687,1.114
1782117474.436791,1.344000,1919304,1000,12,0,1,242.801,-1.805,4.855,565.471,-1.188,1.120
1782117474.437791,1.345000,1919305,1000,12,0,1,243.161,-2.196,4.853,565.711,-0.898,1.125
1782117474.438791,1.346000,1919306,1000,12,0,1,244.026,-1.648,4.854,567.032,0.328,1.126
1782117474.439791,1.347000,1919307,1000,12,0,1,244.314,-1.676,4.839,567.080,0.588,1.114
1782117474.440791,1.348000,1919308,1000,12,0,1,247.629,0.338,4.793,564.438,-1.664,1.136
1782117474.441791,1.349000,1919309,1000,12,0,1,252.193,4.297,4.818,565.278,-1.487,1.153
1782117474.442791,1.350000,1919310,1000,12,0,1,254.283,5.233,4.875,564.942,-0.636,1.152
1782117474.443791,1.351000,1919311,1000,12,0,1,255.196,4.963,4.925,564.654,-1.442,1.169
1782117474.444791,1.352000,1919312,1000,12,0,1,253.082,2.503,4.937,566.984,0.933,1.170
1782117474.445791,1.353000,1919313,1000,12,0,1,247.605,-2.666,4.950,567.753,1.813,1.195
