Unix_Time_s,RelativeTime_s,P_1,P_2,P_3,P_4,P_5,P_6,P_7,P_8,P_9,P_10,P_11,P_12,P_13,P_14,P_15,P_16,P_17,P_18,P_19,P_20,P_21,P_22,P_23,P_24,P_25,P_26,P_27,P_28,P_29,P_30,P_31,P_32,P_33,P_34,P_35,P_36,P_37,P_38,P_39,P_40,P_41,P_42,P_43,P_44,P_45,P_46,P_47,P_48,P_49,P_50,P_51,P_52,P_53,P_54,P_55,P_56,P_57,P_58,P_59,P_60,P_61,P_62,P_63,P_64,P_65,P_66,P_67,P_68,P_69,P_70,P_71,P_72,P_73,P_74,P_75,P_76,P_77,P_78,P_79,P_80,P_81,P_82,P_83,P_84,P_85,P_86,P_87,P_88,P_89,P_90,P_91,P_92,P_93,P_94,P_95,P_96,P_97,P_98,P_99,P_100,P_101,P_102,P_103,P_104,P_105,P_106,P_107,P_108,P_109,P_110,P_111,P_112,P_113,P_114,P_115,P_116,P_117,P_118,P_119,P_120,P_121,P_122,P_123,P_124,P_125,P_126,P_127,P_128,P_129,P_130,P_131,P_132,P_133,P_134,P_135,P_136,P_137,P_138,P_139,P_140,P_141,P_142,P_143,P_144,P_145,P_146,P_147,P_148,P_149,P_150,P_151,P_152,P_153,P_154,P_155,P_156,P_157,P_158,P_159,P_160,P_161,P_162,P_163,P_164,P_165,P_166,P_167,P_168,P_169,P_170,P_171,P_172,P_173,P_174,P_175,P_176,P_177,P_178,P_179,P_180,P_181,P_182,P_183,P_184,P_185,P_186,P_187,P_188,P_189,P_190,P_191,P_192,P_193,P_194,P_195,P_196,P_197,P_198,P_199,P_200,P_201,P_202,P_203,P_204,P_205,P_206,P_207,P_208,P_209,P_210,P_211,P_212,P_213,P_214,P_215,P_216,P_217,P_218,P_219,P_220,P_221,P_222,P_223,P_224,P_225,P_226,P_227,P_228,P_229,P_230,P_231,P_232,P_233,Flex1,Flex2,Bat,IMU1_RefTime,IMU1_Ax,IMU1_Ay,IMU1_Az,IMU1_Wx,IMU1_Wy,IMU1_Wz,IMU1_Roll,IMU1_Pitch,IMU1_Yaw,IMU1_Hx,IMU1_Hy,IMU1_Hz,IMU1_Q0,IMU1_Q1,IMU1_Q2,IMU1_Q3,IMU2_RefTime,IMU2_Ax,IMU2_Ay,IMU2_Az,IMU2_Wx,IMU2_Wy,IMU2_Wz,IMU2_Roll,IMU2_Pitch,IMU2_Yaw,IMU2_Hx,IMU2_Hy,IMU2_Hz,IMU2_Q0,IMU2_Q1,IMU2_Q2,IMU2_Q3,IMU1_FusedRoll,IMU1_FusedPitch,IMU1_FusedYaw,IMU1_FusedQ0,IMU1_FusedQ1,IMU1_FusedQ2,IMU1_FusedQ3,IMU1_MagValid,IMU2_FusedRoll,IMU2_FusedPitch,IMU2_FusedYaw,IMU2_FusedQ0,IMU2_FusedQ1,IMU2_FusedQ2,IMU2_FusedQ3,IMU2_MagValid
1782117473.104427,0.012,1023.0,1023.0,1024.0,1023.0,1023.0,1023.0,1023.0,1024.0,1023.0,1023.0,1023.0,1023.0,1023.0,1024.0,1023.0,1023.0,1023.0,1023.0,1024.0,1023.0,1024.0,1024.0,1023.0,1023.0,1023.0,1022.0,1023.0,1024.0,1024.0,1024.0,1024.0,1023.0,1022.0,1023.0,1023.0,1024.0,1023.0,1024.0,1024.0,1023.0,1023.0,1022.0,1022.0,1023.0,1023.0,1024.0,1024.0,1024.0,1023.0,1022.0,1022.0,1023.0,1023.0,1023.0,1023.0,1024.0,1024.0,1023.0,1024.0,1023.0,1022.0,1023.0,1023.0,1023.0,1023.0,1023.0,1024.0,1024.0,1023.0,1022.0,1022.0,1023.0,1022.0,1024.0,1023.0,1023.0,1024.0,1024.0,1023.0,1021.0,1022.0,1023.0,1023.0,1023.0,1023.0,1023.0,1024.0,1024.0,1024.0,1022.0,1022.0,1023.0,1022.0,1023.0,1024.0,1024.0,1024.0,1024.0,1024.0,1024.0,1023.0,1023.0,1023.0,1024.0,1024.0,1025.0,1025.0,1025.0,1024.0,1024.0,1023.0,1023.0,1022.0,1023.0,1023.0,1023.0,1024.0,1023.0,1023.0,1021.0,1022.0,1023.0,1023.0,1024.0,1023.0,1024.0,1024.0,1024.0,1023.0,1023.0,1023.0,1023.0,1024.0,1024.0,1024.0,1023.0,1023.0,1024.0,1024.0,1024.0,1025.0,1025.0,1025.0,1023.0,1024.0,1024.0,1024.0,1025.0,1025.0,1025.0,1023.0,1023.0,1023.0,1024.0,1025.0,1025.0,1024.0,1024.0,1024.0,1026.0,1027.0,1026.0,1023.0,1024.0,1026.0,1028.0,1029.0,1028.0,1024.0,1027.0,1028.0,1032.0,1034.0,1031.0,1025.0,1028.0,1031.0,1033.0,1038.0,1032.0,1025.0,1029.0,1030.0,1031.0,1039.0,1033.0,1027.0,1032.0,1034.0,1031.0,1043.0,1037.0,1028.0,1034.0,1035.0,1032.0,1044.0,1036.0,1027.0,1032.0,1031.0,1029.0,1040.0,1034.0,1030.0,1034.0,1033.0,1029.0,1040.0,1033.0,1022.0,1023.0,1022.0,1023.0,1024.0,1022.0,1035.0,1046.0,1036.0,1034.0,1048.0,1040.0,1032.0,1044.0,1037.0,1038.0,1050.0,1039.0,1028.0,1038.0,1032.0,1032.0,1040.0,1930,1992,1909,	00:32:45.885,0.0556640625,0.03955078125,1.01806640625,-0.1220703125,0.1220703125,0.06103515625,2.296142578125,-3.076171875,56.84326171875,455.0,-1585.0,-2577.0,0.87872314453125,0.030364990234375,-0.01409912109375,0.476165771484375,2.2939771564996043,-3.0774376338536524,52.23239412816349,0.8971629377809489,0.029785103388835558,-0.015297759323208279,0.4404287561547981,1,	00:32:45.886,0.00146484375,0.08447265625,1.00390625,-0.91552734375,-1.28173828125,-0.48828125,4.8065185546875,-0.076904296875,76.88232421875,-361.0,-1317.0,-1940.0,-0.78253173828125,-0.03326416015625,-0.0255126953125,-0.621185302734375,4.804371000514924,-0.07837482660322632,78.23736545863858,-0.775140666089155,-0.032949541616449224,-0.02591442644205555,-0.6303964768178089,1
1782117473.113782,0.021,1023.0,1022.0,1023.0,1023.0,1023.0,1023.0,1023.0,1023.0,1023.0,1023.0,1023.0,1023.0,1023.0,1024.0,1023.0,1023.0,1023.0,1023.0,1023.0,1023.0,1024.0,1024.0,1023.0,1023.0,1023.0,1023.0,1023.0,1023.0,1024.0,1024.0,1024.0,1023.0,1022.0,1023.0,1024.0,1024.0,1023.0,1024.0,1024.0,1023.0,1022.0,1022.0,1023.0,1023.0,1023.0,1023.0,1024.0,1024.0,1024.0,1023.0,1022.0,1023.0,1023.0,1023.0,1024.0,1023.0,1024.0,1024.0,1023.0,1023.0,1023.0,1023.0,1022.0,1023.0,1023.0,1023.0,1024.0,1024.0,1024.0,1022.0,1022.0,1023.0,1023.0,1023.0,1022.0,1023.0,1024.0,1024.0,1023.0,1022.0,1022.0,1023.0,1022.0,1023.0,1023.0,1023.0,1024.0,1024.0,1024.0,1022.0,1022.0,1023.0,1023.0,1024.0,1024.0,1024.0,1024.0,1024.0,1024.0,1024.0,1023.0,1024.0,1023.0,1024.0,1024.0,1024.0,1024.0,1024.0,1024.0,1024.0,1023.0,1024.0,1022.0,1023.0,1023.0,1023.0,1024.0,1023.0,1023.0,1020.0,1022.0,1023.0,1023.0,1023.0,1023.0,1024.0,1024.0,1024.0,1023.0,1023.0,1023.0,1024.0,1024.0,1024.0,1024.0,1024.0,1024.0,1024.0,1024.0,1024.0,1026.0,1025.0,1025.0,1023.0,1024.0,1024.0,1024.0,1025.0,1025.0,1025.0,1023.0,1024.0,1024.0,1024.0,1025.0,1025.0,1023.0,1024.0,1024.0,1025.0,1027.0,1026.0,1024.0,1025.0,1025.0,1028.0,1029.0,1028.0,1024.0,1027.0,1028.0,1032.0,1033.0,1031.0,1025.0,1028.0,1030.0,1032.0,1039.0,1032.0,1025.0,1029.0,1030.0,1031.0,1039.0,1033.0,1027.0,1032.0,1033.0,1032.0,1043.0,1036.0,1028.0,1035.0,1035.0,1032.0,1044.0,1036.0,1028.0,1032.0,1032.0,1029.0,1040.0,1034.0,1031.0,1035.0,1033.0,1031.0,1039.0,1033.0,1022.0,1023.0,1022.0,1023.0,1024.0,1022.0,1035.0,1046.0,1036.0,1034.0,1048.0,1039.0,1031.0,1043.0,1037.0,1037.0,1050.0,1038.0,1028.0,1038.0,1032.0,1033.0,1041.0,1930,1992,1909,	00:32:45.896,0.0556640625,0.03955078125,1.01806640625,-0.18310546875,0.1220703125,0.06103515625,2.21923828125,-3.131103515625,56.8487548828125,456.0,-1589.0,-2571.0,0.87872314453125,0.029998779296875,-0.014801025390625,0.4761962890625,2.2176293872034956,-3.1298406122010975,52.23708724054277,0.8971495332678855,0.02938898295745389,-0.016000483520130823,0.4404577019023097,1,	00:32:45.897,0.00244140625,0.0849609375,1.00439453125,-0.91552734375,-1.3427734375,-0.48828125,4.8394775390625,-0.1702880859375,76.8768310546875,-359.0,-1319.0,-1936.0,-0.78253173828125,-0.03399658203125,-0.025054931640625,-0.62115478515625,4.836759128399796,-0.17298892330019724,78.23129180219735,-0.7751420514907854,-0.03369041596912359,-0.02545077812587499,-0.6303745027959738,1
1782117473.123527,0.031,1022.0,1023.0,1023.0,1023.0,1024.0,1023.0,1022.0,1024.0,1023.0,1023.0,1023.0,1022.0,1023.0,1024.0,1024.0,1023.0,1023.0,1023.0,1023.0,1023.0,1024.0,1024.0,1023.0,1023.0,1023.0,1023.0,1023.0,1023.0,1024.0,1024.0,1023.0,1023.0,1022.0,1023.0,1023.0,1023.0,1023.0,1024.0,1024.0,1024.0,1023.0,1022.0,1023.0,1023.0,1023.0,1023.0,1024.0,1024.0,1023.0,1022.0,1022.0,1024.0,1023.0,1024.0,1023.0,1023.0,1024.0,1024.0,1023.0,1023.0,1022.0,1023.0,1022.0,1023.0,1023.0,1023.0,1023.0,1024.0,1024.0,1022.0,1022.0,1023.0,1023.0,1023.0,1023.0,1023.0,1023.0,1024.0,1023.0,1022.0,1022.0,1023.0,1022.0,1024.0,1023.0,1023.0,1024.0,1024.0,1024.0,1023.0,1022.0,1022.0,1023.0,1024.0,1024.0,1024.0,1024.0,1025.0,1024.0,1024.0,1023.0,1023.0,1023.0,1024.0,1024.0,1024.0,1024.0,1025.0,1024.0,1024.0,1023.0,1023.0,1022.0,1023.0,1022.0,1023.0,1024.0,1023.0,1023.0,1020.0,1022.0,1023.0,1023.0,1024.0,1024.0,1024.0,1024.0,1024.0,1023.0,1023.0,1024.0,1024.0,1023.0,1024.0,1024.0,1024.0,1023.0,1024.0,1024.0,1024.0,1026.0,1025.0,1025.0,1023.0,1024.0,1024.0,1024.0,1025.0,1024.0,1025.0,1023.0,1024.0,1023.0,1025.0,1025.0,1025.0,1023.0,1024.0,1024.0,1026.0,1026.0,1027.0,1023.0,1025.0,1026.0,1028.0,1029.0,1027.0,1024.0,1027.0,1028.0,1032.0,1033.0,1031.0,1025.0,1028.0,1031.0,1032.0,1039.0,1032.0,1025.0,1030.0,1030.0,1031.0,1039.0,1033.0,1027.0,1032.0,1034.0,1033.0,1043.0,1037.0,1028.0,1034.0,1035.0,1032.0,1045.0,1036.0,1027.0,1032.0,1032.0,1029.0,1040.0,1034.0,1030.0,1035.0,1033.0,1030.0,1040.0,1033.0,1022.0,1023.0,1022.0,1023.0,1024.0,1022.0,1035.0,1046.0,1036.0,1035.0,1048.0,1039.0,1032.0,1043.0,1037.0,1037.0,1050.0,1039.0,1028.0,1038.0,1032.0,1033.0,1040.0,1930,1992,1909,	00:32:45.906,0.0556640625,0.0400390625,1.017578125,-0.1220703125,0.1220703125,0.06103515625,2.30712890625,-3.1256103515625,56.84326171875,456.0,-1585.0,-2575.0,0.878692626953125,0.030670166015625,-0.014404296875,0.476165771484375,2.3080692228203343,-3.1256707976593248,52.23274209691582,0.8971439743460675,0.030080452403790134,-0.015621331215450293,0.4404359541281604,1,	00:32:45.907,0.00048828125,0.0849609375,1.0048828125,-0.9765625,-1.3427734375,-0.48828125,4.822998046875,-0.0933837890625,76.871337890625,-360.0,-1319.0,-1941.0,-0.7825927734375,-0.033477783203125,-0.0255126953125,-0.62109375,4.824481855260917,-0.09432031012129981,78.22529334570238,-0.775197502410001,-0.03317602158157949,-0.025913700119905306,-0.6303147340776752,1
1782117473.133967,0.041,1023.0,1023.0,1023.0,1023.0,1023.0,1022.0,1023.0,1024.0,1023.0,1022.0,1023.0,1023.0,1023.0,1024.0,1024.0,1023.0,1023.0,1023.0,1023.0,1023.0,1024.0,1024.0,1023.0,1023.0,1023.0,1023.0,1023.0,1023.0,1024.0,1024.0,1024.0,1023.0,1023.0,1023.0,1023.0,1023.0,1024.0,1024.0,1024.0,1024.0,1023.0,1023.0,1022.0,1023.0,1023.0,1023.0,1024.0,1024.0,1024.0,1022.0,1022.0,1023.0,1023.0,1023.0,1024.0,1023.0,1024.0,1024.0,1023.0,1023.0,1023.0,1023.0,1022.0,1023.0,1023.0,1023.0,1024.0,1023.0,1023.0,1022.0,1022.0,1023.0,1023.0,1023.0,1023.0,1023.0,1024.0,1024.0,1023.0,1022.0,1022.0,1023.0,1022.0,1023.0,1024.0,1023.0,1023.0,1024.0,1024.0,1022.0,1022.0,1023.0,1024.0,1024.0,1024.0,1024.0,1024.0,1024.0,1024.0,1024.0,1022.0,1024.0,1023.0,1024.0,1024.0,1024.0,1024.0,1024.0,1024.0,1024.0,1022.0,1024.0,1022.0,1023.0,1022.0,1023.0,1024.0,1023.0,1023.0,1021.0,1022.0,1022.0,1024.0,1023.0,1024.0,1024.0,1024.0,1024.0,1023.0,1023.0,1023.0,1022.0,1024.0,1024.0,1024.0,1024.0,1023.0,1024.0,1025.0,1024.0,1025.0,1024.0,1025.0,1023.0,1024.0,1024.0,1024.0,1025.0,1025.0,1026.0,1023.0,1024.0,1023.0,1025.0,1025.0,1025.0,1023.0,1024.0,1024.0,1025.0,1027.0,1026.0,1024.0,1025.0,1026.0,1028.0,1029.0,1028.0,1024.0,1027.0,1028.0,1033.0,1034.0,1030.0,1025.0,1028.0,1030.0,1033.0,1039.0,1032.0,1025.0,1029.0,1031.0,1032.0,1039.0,1034.0,1026.0,1031.0,1033.0,1032.0,1043.0,1037.0,1029.0,1034.0,1034.0,1032.0,1044.0,1035.0,1028.0,1032.0,1032.0,1029.0,1039.0,1035.0,1031.0,1035.0,1032.0,1030.0,1040.0,1033.0,1023.0,1023.0,1023.0,1023.0,1024.0,1022.0,1035.0,1046.0,1036.0,1035.0,1047.0,1039.0,1032.0,1044.0,1037.0,1038.0,1049.0,1038.0,1028.0,1038.0,1032.0,1033.0,1040.0,1930,1992,1909,	00:32:45.916,0.05615234375,0.04052734375,1.01806640625,-0.18310546875,0.1220703125,0.1220703125,2.2412109375,-3.1915283203125,56.8487548828125,456.0,-1589.0,-2575.0,0.878692626953125,0.03045654296875,-0.015167236328125,0.4761962890625,2.2417564563399544,-3.18981884852767,52.23756208207381,0.897124039755832,0.02980797859284907,-0.016377438734944766,0.44046761652233585,1,	00:32:45.917,0.001953125,0.0859375,1.0048828125,-0.9765625,-1.3427734375,-0.48828125,4.9053955078125,-0.1318359375,76.8658447265625,-361.0,-1317.0,-1939.0,-0.7825927734375,-0.034210205078125,-0.02569580078125,-0.621063232421875,4.903113165921922,-0.13042080254818758,78.21912862115056,-0.7751997221708018,-0.03390789627659297,-0.026100160677807797,-0.6302653623109871,1
1782117473.144406,0.052,1023.0,1023.0,1024.0,1022.0,1022.0,1023.0,1023.0,1024.0,1024.0,1023.0,1023.0,1023.0,1023.0,1024.0,1023.0,1023.0,1023.0,1023.0,1024.0,1023.0,1024.0,1024.0,1024.0,1023.0,1023.0,1024.0,1024.0,1024.0,1024.0,1024.0,1023.0,1023.0,1022.0,1023.0,1023.0,1023.0,1023.0,1024.0,1024.0,1023.0,1023.0,1022.0,1023.0,1023.0,1023.0,1023.0,1024.0,1024.0,1024.0,1022.0,1022.0,1023.0,1023.0,1023.0,1023.0,1024.0,1024.0,1024.0,1023.0,1023.0,1022.0,1023.0,1023.0,1023.0,1023.0,1024.0,1024.0,1024.0,1024.0,1022.0,1022.0,1023.0,1022.0,1023.0,1023.0,1023.0,1024.0,1024.0,1023.0,1021.0,1023.0,1023.0,1023.0,1023.0,1024.0,1023.0,1024.0,1024.0,1024.0,1022.0,1022.0,1023.0,1023.0,1024.0,1024.0,1024.0,1024.0,1024.0,1024.0,1024.0,1022.0,1024.0,1023.0,1024.0,1024.0,1024.0,1024.0,1024.0,1024.0,1024.0,1023.0,1023.0,1022.0,1023.0,1023.0,1023.0,1024.0,1024.0,1023.0,1021.0,1022.0,1023.0,1024.0,1024.0,1024.0,1024.0,1024.0,1024.0,1023.0,1022.0,1023.0,1023.0,1024.0,1024.0,1023.0,1024.0,1024.0,1024.0,1024.0,1024.0,1025.0,1025.0,1025.0,1023.0,1024.0,1024.0,1024.0,1025.0,1024.0,1025.0,1023.0,1024.0,1023.0,1025.0,1026.0,1025.0,1023.0,1024.0,1025.0,1026.0,1026.0,1026.0,1024.0,1025.0,1026.0,1028.0,1029.0,1028.0,1024.0,1027.0,1029.0,1033.0,1034.0,1031.0,1025.0,1028.0,1031.0,1033.0,1039.0,1032.0,1025.0,1029.0,1030.0,1031.0,1039.0,1034.0,1027.0,1032.0,1033.0,1033.0,1043.0,1036.0,1028.0,1034.0,1035.0,1032.0,1044.0,1036.0,1028.0,1032.0,1032.0,1030.0,1040.0,1034.0,1030.0,1034.0,1033.0,1030.0,1040.0,1033.0,1023.0,1023.0,1022.0,1022.0,1024.0,1022.0,1035.0,1045.0,1036.0,1035.0,1047.0,1039.0,1032.0,1044.0,1037.0,1038.0,1050.0,1039.0,1028.0,1038.0,1032.0,1033.0,1040.0,1930,1992,1909,	00:32:45.926,0.05615234375,0.04052734375,1.01806640625,-0.18310546875,0.18310546875,0.06103515625,2.30712890625,-3.1256103515625,56.84326171875,457.0,-1590.0,-2579.0,0.878692626953125,0.030670166015625,-0.014404296875,0.476165771484375,2.3069934682384896,-3.125452629617704,52.2345471838408,0.8971373821587215,0.0300714397067966,-0.015623283243279917,0.44044992799188515,1,	00:32:45.927,0.0029296875,0.0859375,1.0048828125,-0.9765625,-1.28173828125,-0.54931640625,4.85595703125,-0.2252197265625,76.8548583984375,-361.0,-1319.0,-1941.0,-0.782623291015625,-0.034423828125,-0.0247802734375,-0.62103271484375,4.857984896598579,-0.2272494192105828,78.21267852505082,-0.775224880179827,-0.034136524610155594,-0.02519492000020341,-0.630258914132832,1
1782117473.154751,0.062,1023.0,1023.0,1023.0,1023.0,1023.0,1023.0,1023.0,1024.0,1023.0,1023.0,1023.0,1023.0,1023.0,1024.0,1023.0,1023.0,1023.0,1023.0,1023.0,1023.0,1024.0,1024.0,1023.0,1023.0,1023.0,1023.0,1024.0,1024.0,1024.0,1024.0,1023.0,1023.0,1023.0,1022.0,1023.0,1024.0,1023.0,1024.0,1024.0,1023.0,1023.0,1022.0,1022.0,1023.0,1023.0,1023.0,1024.0,1024.0,1023.0,1022.0,1023.0,1023.0,1023.0,1024.0,1023.0,1023.0,1024.0,1024.0,1024.0,1023.0,1022.0,1023.0,1023.0,1024.0,1023.0,1023.0,1023.0,1024.0,1024.0,1022.0,1023.0,1023.0,1023.0,1023.0,1023.0,1023.0,1024.0,1023.0,1024.0,1022.0,1022.0,1023.0,1023.0,1023.0,1023.0,1024.0,1024.0,1024.0,1023.0,1023.0,1022.0,1024.0,1023.0,1024.0,1024.0,1023.0,1024.0,1024.0,1024.0,1024.0,1023.0,1024.0,1023.0,1024.0,1024.0,1024.0,1025.0,1025.0,1024.0,1024.0,1023.0,1023.0,1022.0,1023.0,1022.0,1023.0,1024.0,1023.0,1024.0,1021.0,1022.0,1023.0,1024.0,1024.0,1023.0,1025.0,1024.0,1024.0,1023.0,1022.0,1023.0,1023.0,1024.0,1024.0,1024.0,1024.0,1023.0,1025.0,1024.0,1024.0,1026.0,1024.0,1025.0,1023.0,1024.0,1024.0,1024.0,1025.0,1025.0,1025.0,1023.0,1024.0,1024.0,1024.0,1025.0,1025.0,1023.0,1024.0,1024.0,1026.0,1026.0,1026.0,1024.0,1025.0,1025.0,1028.0,1029.0,1029.0,1025.0,1027.0,1029.0,1032.0,1034.0,1030.0,1024.0,1028.0,1030.0,1032.0,1038.0,1032.0,1025.0,1029.0,1030.0,1032.0,1040.0,1033.0,1027.0,1032.0,1034.0,1032.0,1043.0,1037.0,1028.0,1034.0,1034.0,1032.0,1044.0,1035.0,1028.0,1032.0,1032.0,1030.0,1040.0,1033.0,1030.0,1035.0,1033.0,1030.0,1040.0,1034.0,1022.0,1023.0,1022.0,1023.0,1024.0,1023.0,1035.0,1046.0,1036.0,1035.0,1048.0,1040.0,1032.0,1044.0,1037.0,1038.0,1050.0,1038.0,1028.0,1038.0,1032.0,1034.0,1040.0,1930,1992,1909,	00:32:45.936,0.056640625,0.04150390625,1.01708984375,-0.18310546875,0.1220703125,0.06103515625,2.3455810546875,-3.2080078125,56.84326171875,457.0,-1591.0,-2576.0,0.878662109375,0.03131103515625,-0.014862060546875,0.476165771484375,2.346128735261272,-3.206048589980116,52.23294410262633,0.8971094447613616,0.030686676432840374,-0.016104609733853383,0.44044706101277115,1,	00:32:45.937,0.0029296875,0.08544921875,1.00341796875,-0.9765625,-1.3427734375,-0.54931640625,4.8614501953125,-0.1483154296875,76.849365234375,-361.0,-1318.0,-1938.0,-0.782684326171875,-0.0340576171875,-0.02532958984375,-0.6209716796875,4.862408392565977,-0.14959604941832552,78.20601477037923,-0.7752792058533792,-0.033740931254573864,-0.02574268638457458,-0.6301912540071731,1
1782117473.168290,0.075,1023.0,1023.0,1024.0,1022.0,1023.0,1023.0,1024.0,1024.0,1023.0,1023.0,1023.0,1023.0,1023.0,1024.0,1023.0,1023.0,1023.0,1024.0,1023.0,1023.0,1024.0,1024.0,1024.0,1023.0,1022.0,1024.0,1023.0,1023.0,1023.0,1024.0,1023.0,1023.0,1023.0,1023.0,1023.0,1023.0,1023.0,1024.0,1024.0,1023.0,1023.0,1022.0,1022.0,1023.0,1023.0,1023.0,1024.0,1024.0,1023.0,1022.0,1022.0,1023.0,1023.0,1023.0,1023.0,1023.0,1024.0,1024.0,1024.0,1023.0,1022.0,1023.0,1023.0,1023.0,1023.0,1023.0,1024.0,1024.0,1023.0,1023.0,1022.0,1023.0,1022.0,1023.0,1023.0,1023.0,1024.0,1023.0,1024.0,1022.0,1022.0,1023.0,1023.0,1023.0,1023.0,1023.0,1024.0,1024.0,1023.0,1022.0,1022.0,1023.0,1023.0,1023.0,1024.0,1024.0,1024.0,1024.0,1024.0,1024.0,1023.0,1023.0,1023.0,1024.0,1024.0,1024.0,1024.0,1024.0,1024.0,1024.0,1023.0,1023.0,1022.0,1023.0,1022.0,1023.0,1024.0,1024.0,1023.0,1021.0,1022.0,1023.0,1023.0,1023.0,1024.0,1024.0,1024.0,1023.0,1023.0,1023.0,1023.0,1023.0,1023.0,1024.0,1024.0,1023.0,1023.0,1024.0,1024.0,1024.0,1025.0,1025.0,1025.0,1023.0,1024.0,1024.0,1024.0,1025.0,1024.0,1026.0,1023.0,1024.0,1024.0,1024.0,1025.0,1025.0,1023.0,1024.0,1024.0,1025.0,1026.0,1026.0,1023.0,1025.0,1026.0,1028.0,1029.0,1028.0,1024.0,1027.0,1029.0,1032.0,1034.0,1030.0,1024.0,1028.0,1031.0,1033.0,1039.0,1032.0,1025.0,1029.0,1031.0,1031.0,1040.0,1033.0,1026.0,1031.0,1033.0,1032.0,1043.0,1036.0,1028.0,1034.0,1034.0,1032.0,1045.0,1036.0,1028.0,1032.0,1032.0,1030.0,1040.0,1033.0,1031.0,1034.0,1033.0,1030.0,1040.0,1033.0,1022.0,1023.0,1022.0,1023.0,1024.0,1022.0,1035.0,1046.0,1036.0,1034.0,1049.0,1039.0,1032.0,1044.0,1037.0,1038.0,1050.0,1038.0,1028.0,1039.0,1032.0,1033.0,1040.0,1930,1992,1909,	00:32:45.946,0.0546875,0.04052734375,1.01806640625,-0.1220703125,0.1220703125,0.06103515625,2.3016357421875,-3.1256103515625,56.84326171875,456.0,-1585.0,-2576.0,0.878692626953125,0.0306396484375,-0.014404296875,0.4761962890625,2.304121371501341,-3.1229365417137744,52.235853565130846,0.8971338458519328,0.03003948271851175,-0.015614271042476893,0.4404596311181501,1,	00:32:45.948,0.00146484375,0.0859375,1.00341796875,-0.9765625,-1.40380859375,-0.54931640625,4.8944091796875,-0.0823974609375,76.8438720703125,-359.0,-1319.0,-1940.0,-0.78271484375,-0.03387451171875,-0.025970458984375,-0.62091064453125,4.893231472681977,-0.0809770306228619,78.1992641558879,-0.7753238136589687,-0.033573702662939825,-0.026374497778334678,-0.6301191762910837,1
1782117473.175014,0.082,1023.0,1023.0,1023.0,1023.0,1023.0,1023.0,1023.0,1024.0,1023.0,1022.0,1023.0,1024.0,1023.0,1023.0,1023.0,1023.0,1023.0,1023.0,1023.0,1023.0,1024.0,1024.0,1023.0,1023.0,1023.0,1023.0,1023.0,1023.0,1024.0,1024.0,1023.0,1023.0,1022.0,1022.0,1023.0,1024.0,1023.0,1024.0,1024.0,1023.0,1023.0,1022.0,1023.0,1023.0,1023.0,1023.0,1024.0,1024.0,1023.0,1022.0,1022.0,1023.0,1023.0,1023.0,1023.0,1023.0,1024.0,1024.0,1024.0,1022.0,1022.0,1023.0,1023.0,1023.0,1023.0,1024.0,1024.0,1024.0,1023.0,1022.0,1023.0,1023.0,1023.0,1023.0,1023.0,1023.0,1024.0,1023.0,1023.0,1022.0,1022.0,1023.0,1022.0,1023.0,1024.0,1024.0,1024.0,1024.0,1023.0,1022.0,1022.0,1023.0,1022.0,1024.0,1024.0,1024.0,1024.0,1024.0,1024.0,1024.0,1023.0,1023.0,1023.0,1024.0,1024.0,1024.0,1024.0,1024.0,1024.0,1024.0,1022.0,1024.0,1022.0,1023.0,1023.0,1023.0,1024.0,1024.0,1023.0,1021.0,1022.0,1022.0,1024.0,1024.0,1024.0,1025.0,1024.0,1024.0,1024.0,1022.0,1023.0,1023.0,1024.0,1024.0,1024.0,1024.0,1023.0,1024.0,1024.0,1024.0,1025.0,1024.0,1025.0,1023.0,1024.0,1024.0,1024.0,1025.0,1025.0,1025.0,1023.0,1024.0,1024.0,1024.0,1025.0,1025.0,1023.0,1024.0,1024.0,1025.0,1027.0,1026.0,1024.0,1025.0,1025.0,1028.0,1029.0,1028.0,1024.0,1027.0,1028.0,1032.0,1034.0,1030.0,1024.0,1028.0,1030.0,1032.0,1039.0,1032.0,1026.0,1029.0,1031.0,1030.0,1040.0,1033.0,1026.0,1032.0,1033.0,1032.0,1043.0,1036.0,1028.0,1034.0,1035.0,1031.0,1044.0,1036.0,1028.0,1032.0,1032.0,1030.0,1040.0,1034.0,1031.0,1035.0,1034.0,1030.0,1040.0,1033.0,1022.0,1023.0,1022.0,1023.0,1025.0,1022.0,1036.0,1047.0,1037.0,1035.0,1048.0,1040.0,1032.0,1044.0,1037.0,1037.0,1050.0,1039.0,1028.0,1038.0,1032.0,1032.0,1040.0,1930,1991,1908,	00:32:45.957,0.0556640625,0.041015625,1.017578125,-0.1220703125,0.1220703125,0.06103515625,2.3565673828125,-3.197021484375,56.84326171875,457.0,-1587.0,-2577.0,0.878662109375,0.031341552734375,-0.014739990234375,0.476165771484375,2.3563583006610975,-3.195983642660678,52.23356594614859,0.8971073086152439,0.03072825243373625,-0.015986283974792372,0.44045282387125134,1,	00:32:45.958,0.00146484375,0.08544921875,1.00390625,-0.9765625,-1.46484375,-0.54931640625,4.7900390625,-0.1043701171875,76.83837890625,-361.0,-1320.0,-1940.0,-0.78277587890625,-0.0333251953125,-0.0252685546875,-0.620880126953125,4.7924353216903555,-0.10263376774783294,78.19268876722829,-0.7753841021369922,-0.03301226022527365,-0.025671790791637557,-0.6301036771719235,1
1782117473.185031,0.092,1022.0,1023.0,1023.0,1022.0,1024.0,1023.0,1023.0,1024.0,1023.0,1023.0,1023.0,1023.0,1023.0,1023.0,1023.0,1023.0,1023.0,1023.0,1023.0,1023.0,1024.0,1024.0,1023.0,1023.0,1023.0,1024.0,1023.0,1023.0,1024.0,1024.0,1024.0,1023.0,1022.0,1023.0,1023.0,1023.0,1023.0,1024.0,1024.0,1024.0,1023.0,1022.0,1022.0,1023.0,1023.0,1024.0,1024.0,1024.0,1023.0,1023.0,1022.0,1023.0,1022.0,1023.0,1023.0,1024.0,1024.0,1024.0,1023.0,1022.0,1022.0,1023.0,1023.0,1023.0,1023.0,1023.0,1024.0,1024.0,1023.0,1022.0,1022.0,1023.0,1022.0,1023.0,1023.0,1023.0,1024.0,1024.0,1023.0,1022.0,1022.0,1023.0,1023.0,1023.0,1023.0,1023.0,1024.0,1024.0,1024.0,1022.0,1023.0,1023.0,1024.0,1024.0,1024.0,1024.0,1024.0,1024.0,1024.0,1024.0,1022.0,1023.0,1023.0,1024.0,1024.0,1024.0,1025.0,1024.0,1024.0,1024.0,1022.0,1023.0,1022.0,1023.0,1022.0,1023.0,1024.0,1024.0,1023.0,1020.0,1022.0,1023.0,1024.0,1024.0,1023.0,1024.0,1024.0,1024.0,1023.0,1023.0,1024.0,1024.0,1023.0,1024.0,1023.0,1024.0,1023.0,1024.0,1024.0,1025.0,1025.0,1024.0,1024.0,1023.0,1024.0,1024.0,1024.0,1025.0,1025.0,1026.0,1023.0,1024.0,1024.0,1024.0,1026.0,1025.0,1023.0,1024.0,1025.0,1026.0,1027.0,1026.0,1024.0,1025.0,1026.0,1028.0,1029.0,1028.0,1024.0,1027.0,1028.0,1031.0,1034.0,1031.0,1025.0,1029.0,1031.0,1032.0,1039.0,1032.0,1025.0,1029.0,1031.0,1031.0,1039.0,1033.0,1026.0,1032.0,1034.0,1032.0,1043.0,1036.0,1028.0,1034.0,1035.0,1032.0,1045.0,1036.0,1028.0,1032.0,1032.0,1030.0,1040.0,1034.0,1030.0,1035.0,1033.0,1030.0,1040.0,1033.0,1022.0,1023.0,1022.0,1023.0,1024.0,1023.0,1035.0,1046.0,1037.0,1034.0,1048.0,1039.0,1031.0,1044.0,1037.0,1037.0,1050.0,1038.0,1028.0,1039.0,1032.0,1033.0,1040.0,1930,1991,1908,	00:32:45.967,0.056640625,0.041015625,1.017578125,-0.1220703125,0.1220703125,0.06103515625,2.2686767578125,-3.1695556640625,56.8487548828125,456.0,-1587.0,-2578.0,0.878662109375,0.030548095703125,-0.014923095703125,0.4761962890625,2.26642663791873,-3.1715189944826894,52.23915157069108,0.8971168604104462,0.02993115759843523,-0.01613885180276938,0.44048269209426333,1,	00:32:45.968,0.001953125,0.0859375,1.0029296875,-0.91552734375,-1.46484375,-0.54931640625,4.8724365234375,-0.1263427734375,76.827392578125,-361.0,-1318.0,-1938.0,-0.782806396484375,-0.03399658203125,-0.02557373046875,-0.620819091796875,4.874343935161681,-0.12416444942954122,78.18581293035936,-0.7753929305071963,-0.03368642061743261,-0.025974460752619652,-0.6300447252172328,1
1782117473.194760,0.102,1022.0,1023.0,1023.0,1022.0,1023.0,1023.0,1023.0,1023.0,1023.0,1023.0,1023.0,1023.0,1023.0,1023.0,1024.0,1023.0,1023.0,1023.0,1023.0,1023.0,1024.0,1024.0,1023.0,1023.0,1023.0,1024.0,1023.0,1023.0,1024.0,1024.0,1023.0,1023.0,1022.0,1022.0,1023.0,1023.0,1023.0,1024.0,1024.0,1023.0,1022.0,1023.0,1022.0,1023.0,1023.0,1023.0,1024.0,1024.0,1023.0,1023.0,1023.0,1023.0,1023.0,1023.0,1023.0,1024.0,1024.0,1024.0,1023.0,1023.0,1022.0,1024.0,1022.0,1023.0,1023.0,1023.0,1024.0,1024.0,1023.0,1022.0,1022.0,1023.0,1023.0,1023.0,1023.0,1023.0,1024.0,1023.0,1023.0,1022.0,1023.0,1024.0,1022.0,1023.0,1024.0,1024.0,1024.0,1024.0,1023.0,1022.0,1022.0,1023.0,1023.0,1023.0,1024.0,1024.0,1024.0,1024.0,1024.0,1024.0,1023.0,1023.0,1023.0,1024.0,1024.0,1024.0,1024.0,1024.0,1024.0,1024.0,1023.0,1023.0,1022.0,1023.0,1023.0,1023.0,1024.0,1023.0,1023.0,1021.0,1022.0,1023.0,1024.0,1024.0,1024.0,1024.0,1024.0,1024.0,1023.0,1023.0,1023.0,1023.0,1023.0,1024.0,1024.0,1023.0,1023.0,1024.0,1024.0,1024.0,1025.0,1025.0,1025.0,1023.0,1024.0,1024.0,1024.0,1025.0,1024.0,1025.0,1023.0,1024.0,1024.0,1024.0,1025.0,1025.0,1023.0,1024.0,1024.0,1026.0,1027.0,1026.0,1024.0,1026.0,1025.0,1028.0,1030.0,1028.0,1024.0,1027.0,1028.0,1032.0,1034.0,1031.0,1024.0,1028.0,1031.0,1032.0,1039.0,1032.0,1025.0,1029.0,1031.0,1031.0,1040.0,1034.0,1026.0,1032.0,1034.0,1031.0,1044.0,1036.0,1028.0,1034.0,1035.0,1031.0,1045.0,1036.0,1028.0,1032.0,1032.0,1029.0,1040.0,1034.0,1030.0,1035.0,1033.0,1030.0,1040.0,1033.0,1022.0,1023.0,1022.0,1023.0,1025.0,1023.0,1034.0,1046.0,1037.0,1034.0,1048.0,1040.0,1031.0,1044.0,1037.0,1037.0,1050.0,1039.0,1028.0,1038.0,1032.0,1033.0,1040.0,1930,1991,1909,	00:32:45.977,0.0556640625,0.0400390625,1.01708984375,-0.18310546875,0.1220703125,0.06103515625,2.2412109375,-3.0816650390625,56.8487548828125,456.0,-1588.0,-2574.0,0.878692626953125,0.02996826171875,-0.01434326171875,0.476226806640625,2.2389184516448033,-3.0824886868972485,52.241207992254786,0.8971418250216779,0.02937460059200735,-0.015546681284995157,0.44049061208822154,1,	00:32:45.978,0.0009765625,0.08447265625,1.00390625,-0.91552734375,-1.52587890625,-0.54931640625,4.801025390625,-0.0714111328125,76.8218994140625,-359.0,-1319.0,-1940.0,-0.782867431640625,-0.033233642578125,-0.025543212890625,-0.62078857421875,4.8024839212257575,-0.07226123926378082,78.17914611094417,-0.7754628243763347,-0.0329163242065076,-0.02592868157935476,-0.6300012913340467,1
1782117473.206179,0.113,1023.0,1023.0,1024.0,1022.0,1023.0,1023.0,1023.0,1024.0,1023.0,1023.0,1022.0,1023.0,1023.0,1024.0,1023.0,1023.0,1023.0,1023.0,1023.0,1023.0,1024.0,1024.0,1024.0,1023.0,1022.0,1024.0,1023.0,1023.0,1023.0,1024.0,1023.0,1023.0,1022.0,1023.0,1023.0,1023.0,1023.0,1024.0,1024.0,1023.0,1022.0,1022.0,1023.0,1023.0,1023.0,1024.0,1024.0,1023.0,1023.0,1023.0,1023.0,1023.0,1023.0,1023.0,1023.0,1023.0,1024.0,1024.0,1023.0,1022.0,1023.0,1023.0,1023.0,1023.0,1023.0,1024.0,1024.0,1024.0,1023.0,1022.0,1022.0,1023.0,1023.0,1023.0,1022.0,1023.0,1024.0,1024.0,1023.0,1021.0,1022.0,1023.0,1023.0,1023.0,1024.0,1024.0,1024.0,1023.0,1024.0,1022.0,1022.0,1023.0,1023.0,1024.0,1024.0,1024.0,1024.0,1024.0,1024.0,1024.0,1022.0,1024.0,1023.0,1024.0,1024.0,1024.0,1024.0,1024.0,1024.0,1024.0,1023.0,1023.0,1022.0,1022.0,1022.0,1023.0,1024.0,1024.0,1023.0,1021.0,1022.0,1023.0,1023.0,1024.0,1024.0,1024.0,1024.0,1024.0,1023.0,1023.0,1023.0,1023.0,1024.0,1024.0,1024.0,1023.0,1024.0,1024.0,1024.0,1024.0,1025.0,1025.0,1025.0,1023.0,1023.0,1024.0,1024.0,1025.0,1024.0,1025.0,1023.0,1024.0,1024.0,1024.0,1026.0,1025.0,1023.0,1024.0,1025.0,1025.0,1026.0,1026.0,1024.0,1025.0,1026.0,1028.0,1029.0,1028.0,1024.0,1027.0,1029.0,1032.0,1034.0,1030.0,1025.0,1028.0,1031.0,1033.0,1038.0,1033.0,1025.0,1029.0,1031.0,1031.0,1040.0,1034.0,1026.0,1032.0,1034.0,1031.0,1043.0,1036.0,1028.0,1035.0,1036.0,1031.0,1044.0,1036.0,1028.0,1032.0,1032.0,1029.0,1040.0,1033.0,1030.0,1035.0,1033.0,1030.0,1040.0,1033.0,1022.0,1023.0,1023.0,1022.0,1024.0,1023.0,1035.0,1046.0,1037.0,1034.0,1047.0,1040.0,1032.0,1044.0,1037.0,1038.0,1049.0,1039.0,1028.0,1038.0,1032.0,1033.0,1040.0,1930,1991,1909,	00:32:45.987,0.05517578125,0.041015625,1.01904296875,-0.18310546875,0.1220703125,0.06103515625,2.3291015625,-3.09814453125,56.8487548828125,457.0,-1589.0,-2578.0,0.878692626953125,0.030731201171875,-0.014129638671875,0.4761962890625,2.3266696426812774,-3.1006520310234658,52.237033540909664,0.8971298595760293,0.03013070623370327,-0.015352732267800786,0.4404707132271857,1,	00:32:45.988,0.0029296875,0.0849609375,1.00390625,-0.91552734375,-1.5869140625,-0.6103515625,4.822998046875,-0.17578125,76.81640625,-360.0,-1321.0,-1942.0,-0.782867431640625,-0.033935546875,-0.02496337890625,-0.620758056640625,4.825174526034836,-0.17348480715008324,78.17167542035854,-0.7754731829635012,-0.03362798183696277,-0.025366204183676824,-0.6299738542410636,1
1782117473.216637,0.124,1022.0,1023.0,1024.0,1022.0,1023.0,1023.0,1023.0,1024.0,1023.0,1023.0,1023.0,1023.0,1023.0,1024.0,1024.0,1023.0,1022.0,1023.0,1023.0,1023.0,1024.0,1024.0,1023.0,1023.0,1023.0,1023.0,1024.0,1024.0,1024.0,1024.0,1023.0,1022.0,1022.0,1023.0,1023.0,1024.0,1023.0,1024.0,1023.0,1024.0,1023.0,1023.0,1023.0,1023.0,1024.0,1024.0,1024.0,1024.0,1023.0,1023.0,1022.0,1023.0,1023.0,1023.0,1023.0,1023.0,1024.0,1024.0,1024.0,1023.0,1022.0,1023.0,1022.0,1023.0,1023.0,1023.0,1024.0,1024.0,1024.0,1022.0,1022.0,1023.0,1022.0,1023.0,1023.0,1023.0,1024.0,1024.0,1023.0,1022.0,1022.0,1023.0,1023.0,1023.0,1023.0,1023.0,1024.0,1024.0,1023.0,1022.0,1023.0,1023.0,1023.0,1024.0,1024.0,1024.0,1024.0,1024.0,1024.0,1024.0,1022.0,1023.0,1023.0,1024.0,1024.0,1024.0,1024.0,1024.0,1024.0,1024.0,1023.0,1023.0,1022.0,1023.0,1023.0,1023.0,1024.0,1023.0,1023.0,1021.0,1022.0,1023.0,1024.0,1024.0,1024.0,1024.0,1024.0,1023.0,1023.0,1023.0,1023.0,1024.0,1024.0,1024.0,1024.0,1024.0,1023.0,1024.0,1024.0,1024.0,1025.0,1025.0,1025.0,1023.0,1024.0,1023.0,1024.0,1025.0,1025.0,1025.0,1024.0,1024.0,1024.0,1024.0,1025.0,1025.0,1023.0,1024.0,1025.0,1025.0,1026.0,1026.0,1024.0,1025.0,1026.0,1028.0,1029.0,1028.0,1024.0,1027.0,1029.0,1032.0,1034.0,1030.0,1025.0,1028.0,1031.0,1032.0,1038.0,1032.0,1025.0,1029.0,1031.0,1030.0,1039.0,1034.0,1026.0,1032.0,1033.0,1032.0,1044.0,1037.0,1029.0,1034.0,1035.0,1032.0,1045.0,1036.0,1028.0,1032.0,1032.0,1029.0,1040.0,1034.0,1030.0,1035.0,1032.0,1030.0,1040.0,1033.0,1022.0,1023.0,1023.0,1023.0,1024.0,1023.0,1035.0,1046.0,1036.0,1034.0,1048.0,1039.0,1031.0,1044.0,1037.0,1037.0,1050.0,1039.0,1028.0,1038.0,1032.0,1033.0,1040.0,1930,1991,1909,	00:32:45.998,0.05615234375,0.041015625,1.01708984375,-0.18310546875,0.1220703125,0.0,2.296142578125,-3.18603515625,56.8487548828125,454.0,-1589.0,-2577.0,0.878662109375,0.030853271484375,-0.014923095703125,0.4761962890625,2.2980282218197083,-3.187031722827589,52.2385547625976,0.8971063002694433,0.03023797092985919,-0.016139045444488204,0.44048323730087324,1,	00:32:45.999,0.00244140625,0.0859375,1.00341796875,-0.91552734375,-1.64794921875,-0.6103515625,4.89990234375,-0.1483154296875,76.8109130859375,-361.0,-1319.0,-1940.0,-0.78289794921875,-0.0343017578125,-0.0255126953125,-0.62066650390625,4.89799117550671,-0.14887336682103933,78.16397526745114,-0.7755000068395917,-0.03398720964436318,-0.025930793910018454,-0.6298985655639958,1
1782117473.227068,0.134,1023.0,1023.0,1024.0,1022.0,1024.0,1023.0,1023.0,1024.0,1024.0,1023.0,1023.0,1023.0,1023.0,1023.0,1023.0,1023.0,1022.0,1023.0,1024.0,1023.0,1024.0,1024.0,1023.0,1024.0,1023.0,1023.0,1023.0,1024.0,1024.0,1024.0,1023.0,1023.0,1022.0,1023.0,1024.0,1024.0,1023.0,1024.0,1024.0,1024.0,1023.0,1023.0,1023.0,1023.0,1023.0,1023.0,1024.0,1024.0,1024.0,1023.0,1022.0,1023.0,1023.0,1023.0,1024.0,1024.0,1024.0,1024.0,1024.0,1023.0,1023.0,1023.0,1023.0,1022.0,1023.0,1023.0,1024.0,1024.0,1023.0,1022.0,1022.0,1023.0,1023.0,1023.0,1023.0,1023.0,1023.0,1023.0,1023.0,1022.0,1022.0,1023.0,1023.0,1023.0,1023.0,1023.0,1024.0,1024.0,1023.0,1023.0,1023.0,1023.0,1023.0,1023.0,1024.0,1024.0,1024.0,1024.0,1024.0,1024.0,1023.0,1023.0,1023.0,1024.0,1024.0,1024.0,1024.0,1024.0,1024.0,1024.0,1022.0,1023.0,1022.0,1023.0,1023.0,1023.0,1024.0,1023.0,1023.0,1021.0,1022.0,1023.0,1023.0,1024.0,1024.0,1024.0,1024.0,1024.0,1024.0,1023.0,1023.0,1024.0,1023.0,1024.0,1024.0,1023.0,1023.0,1024.0,1025.0,1024.0,1025.0,1025.0,1025.0,1023.0,1024.0,1024.0,1025.0,1025.0,1024.0,1025.0,1023.0,1024.0,1024.0,1024.0,1026.0,1025.0,1024.0,1024.0,1024.0,1026.0,1026.0,1026.0,1024.0,1025.0,1026.0,1028.0,1029.0,1028.0,1024.0,1027.0,1028.0,1032.0,1034.0,1030.0,1024.0,1028.0,1031.0,1032.0,1039.0,1032.0,1025.0,1029.0,1031.0,1031.0,1040.0,1034.0,1026.0,1031.0,1034.0,1032.0,1044.0,1036.0,1029.0,1034.0,1035.0,1031.0,1045.0,1036.0,1028.0,1032.0,1032.0,1028.0,1041.0,1034.0,1030.0,1035.0,1033.0,1029.0,1040.0,1034.0,1022.0,1023.0,1022.0,1023.0,1024.0,1022.0,1035.0,1046.0,1036.0,1034.0,1048.0,1039.0,1032.0,1045.0,1037.0,1037.0,1050.0,1039.0,1028.0,1039.0,1032.0,1032.0,1040.0,1931,1991,1909,	00:32:46.008,0.0556640625,0.041015625,1.017578125,-0.18310546875,0.18310546875,0.06103515625,2.3126220703125,-3.0926513671875,56.8487548828125,455.0,-1587.0,-2578.0,0.878692626953125,0.03057861328125,-0.01416015625,0.4761962890625,2.311821729593844,-3.095000091153522,52.2383794144519,0.8971302174911228,0.029992966396030083,-0.015365180176755545,0.44047895076749477,1,	00:32:46.009,0.00341796875,0.08544921875,1.001953125,-0.91552734375,-1.64794921875,-0.6103515625,4.844970703125,-0.2471923828125,76.7999267578125,-360.0,-1319.0,-1941.0,-0.782928466796875,-0.03448486328125,-0.02459716796875,-0.62066650390625,4.847160483393418,-0.24634924130895744,78.15663831871524,-0.7755315232523462,-0.03418054921742162,-0.024989441360547825,-0.6298873504981495,1
1782117473.236789,0.144,1023.0,1023.0,1023.0,1022.0,1023.0,1023.0,1023.0,1024.0,1023.0,1022.0,1023.0,1023.0,1024.0,1023.0,1023.0,1023.0,1023.0,1023.0,1023.0,1024.0,1024.0,1024.0,1023.0,1024.0,1022.0,1023.0,1024.0,1024.0,1023.0,1024.0,1023.0,1023.0,1022.0,1022.0,1023.0,1024.0,1024.0,1024.0,1024.0,1024.0,1023.0,1023.0,1023.0,1023.0,1024.0,1024.0,1024.0,1024.0,1024.0,1022.0,1022.0,1023.0,1023.0,1023.0,1024.0,1024.0,1024.0,1024.0,1024.0,1023.0,1023.0,1023.0,1023.0,1024.0,1023.0,1023.0,1024.0,1024.0,1024.0,1022.0,1022.0,1023.0,1022.0,1023.0,1023.0,1023.0,1024.0,1024.0,1023.0,1022.0,1022.0,1023.0,1023.0,1023.0,1023.0,1023.0,1024.0,1024.0,1024.0,1022.0,1022.0,1023.0,1023.0,1023.0,1024.0,1024.0,1024.0,1024.0,1024.0,1024.0,1023.0,1024.0,1022.0,1024.0,1024.0,1024.0,1025.0,1025.0,1024.0,1024.0,1023.0,1023.0,1022.0,1024.0,1022.0,1023.0,1024.0,1023.0,1023.0,1021.0,1022.0,1022.0,1023.0,1024.0,1024.0,1024.0,1024.0,1024.0,1023.0,1023.0,1023.0,1024.0,1024.0,1024.0,1024.0,1024.0,1023.0,1024.0,1024.0,1025.0,1025.0,1025.0,1025.0,1023.0,1024.0,1024.0,1024.0,1025.0,1025.0,1025.0,1023.0,1024.0,1024.0,1024.0,1026.0,1025.0,1023.0,1024.0,1025.0,1025.0,1027.0,1026.0,1024.0,1024.0,1026.0,1028.0,1029.0,1028.0,1024.0,1027.0,1029.0,1031.0,1034.0,1030.0,1025.0,1028.0,1031.0,1032.0,1039.0,1032.0,1025.0,1029.0,1032.0,1031.0,1040.0,1034.0,1026.0,1032.0,1034.0,1032.0,1044.0,1036.0,1028.0,1034.0,1036.0,1031.0,1044.0,1035.0,1027.0,1032.0,1032.0,1029.0,1040.0,1034.0,1030.0,1035.0,1033.0,1030.0,1040.0,1033.0,1022.0,1023.0,1023.0,1022.0,1024.0,1023.0,1035.0,1046.0,1037.0,1034.0,1048.0,1039.0,1032.0,1045.0,1037.0,1038.0,1050.0,1038.0,1028.0,1038.0,1032.0,1033.0,1040.0,1931,1991,1909,	00:32:46.018,0.0556640625,0.041015625,1.01806640625,-0.18310546875,0.1220703125,0.06103515625,2.296142578125,-3.18603515625,56.8487548828125,455.0,-1589.0,-2579.0,0.878662109375,0.030853271484375,-0.014892578125,0.476226806640625,2.296537216403753,-3.1843862356959267,52.23977580726841,0.8971027796361565,0.03021632406203521,-0.016123732663810824,0.44049245370862555,1,	00:32:46.019,0.0029296875,0.0859375,1.00439453125,-0.8544921875,-1.64794921875,-0.6103515625,4.8834228515625,-0.1812744140625,76.79443359375,-361.0,-1318.0,-1938.0,-0.782989501953125,-0.03436279296875,-0.02520751953125,-0.62060546875,4.882274624479592,-0.18169883337086526,78.14899652922857,-0.7755789803359822,-0.03406460962678681,-0.02561777962982248,-0.6298099530801422,1
1782117473.247213,0.154,1023.0,1023.0,1023.0,1022.0,1023.0,1023.0,1023.0,1024.0,1023.0,1023.0,1023.0,1024.0,1023.0,1024.0,1024.0,1023.0,1023.0,1023.0,1024.0,1023.0,1024.0,1024.0,1024.0,1024.0,1023.0,1023.0,1024.0,1023.0,1024.0,1023.0,1024.0,1023.0,1023.0,1022.0,1023.0,1023.0,1023.0,1024.0,1024.0,1024.0,1023.0,1023.0,1023.0,1023.0,1023.0,1023.0,1024.0,1024.0,1023.0,1022.0,1023.0,1023.0,1023.0,1023.0,1023.0,1023.0,1024.0,1024.0,1023.0,1023.0,1023.0,1023.0,1023.0,1023.0,1024.0,1023.0,1024.0,1023.0,1023.0,1022.0,1022.0,1023.0,1023.0,1023.0,1023.0,1023.0,1024.0,1024.0,1023.0,1022.0,1022.0,1023.0,1023.0,1023.0,1023.0,1023.0,1024.0,1024.0,1023.0,1022.0,1022.0,1023.0,1024.0,1023.0,1024.0,1023.0,1024.0,1024.0,1024.0,1024.0,1023.0,1023.0,1023.0,1024.0,1025.0,1024.0,1025.0,1025.0,1024.0,1024.0,1022.0,1023.0,1022.0,1023.0,1023.0,1024.0,1024.0,1024.0,1023.0,1021.0,1023.0,1023.0,1024.0,1024.0,1024.0,1024.0,1024.0,1024.0,1023.0,1022.0,1023.0,1024.0,1023.0,1024.0,1024.0,1024.0,1024.0,1024.0,1024.0,1025.0,1025.0,1024.0,1025.0,1023.0,1023.0,1024.0,1024.0,1025.0,1025.0,1025.0,1023.0,1024.0,1024.0,1024.0,1026.0,1025.0,1024.0,1024.0,1025.0,1026.0,1027.0,1026.0,1024.0,1024.0,1026.0,1028.0,1028.0,1027.0,1024.0,1027.0,1029.0,1032.0,1034.0,1031.0,1025.0,1028.0,1031.0,1032.0,1039.0,1032.0,1025.0,1029.0,1031.0,1031.0,1040.0,1033.0,1026.0,1032.0,1034.0,1032.0,1043.0,1036.0,1029.0,1034.0,1035.0,1031.0,1044.0,1035.0,1028.0,1032.0,1033.0,1029.0,1040.0,1034.0,1030.0,1035.0,1033.0,1030.0,1040.0,1033.0,1022.0,1023.0,1023.0,1023.0,1024.0,1022.0,1035.0,1047.0,1036.0,1035.0,1048.0,1039.0,1032.0,1044.0,1038.0,1038.0,1050.0,1039.0,1028.0,1038.0,1032.0,1033.0,1040.0,1931,1991,1909,	00:32:46.028,0.0556640625,0.04052734375,1.01806640625,-0.244140625,0.18310546875,0.06103515625,2.2686767578125,-3.0926513671875,56.854248046875,455.0,-1586.0,-2577.0,0.878692626953125,0.030242919921875,-0.014312744140625,0.476226806640625,2.2681540297302076,-3.0948258778149125,52.241876916591785,0.8971281876459922,0.029650898353499308,-0.015530763882922525,0.4405004364709085,1,	00:32:46.030,0.00244140625,0.08642578125,1.00341796875,-0.8544921875,-1.64794921875,-0.54931640625,4.9383544921875,-0.1318359375,76.7889404296875,-362.0,-1320.0,-1941.0,-0.78302001953125,-0.034454345703125,-0.025848388671875,-0.620513916015625,4.936683279595854,-0.13119377012418162,78.14194543203186,-0.7756139008003717,-0.03415693677500048,-0.026256568779213212,-0.6297356375109495,1
1782117473.256588,0.164,1022.0,1023.0,1023.0,1023.0,1023.0,1022.0,1023.0,1024.0,1023.0,1022.0,1023.0,1023.0,1023.0,1024.0,1023.0,1023.0,1023.0,1023.0,1023.0,1023.0,1024.0,1024.0,1024.0,1024.0,1023.0,1023.0,1024.0,1023.0,1024.0,1024.0,1023.0,1023.0,1022.0,1023.0,1024.0,1024.0,1023.0,1024.0,1024.0,1023.0,1023.0,1023.0,1023.0,1023.0,1024.0,1024.0,1024.0,1024.0,1023.0,1022.0,1022.0,1023.0,1023.0,1023.0,1023.0,1023.0,1024.0,1024.0,1023.0,1023.0,1023.0,1023.0,1023.0,1022.0,1023.0,1023.0,1024.0,1024.0,1023.0,1022.0,1022.0,1024.0,1022.0,1023.0,1023.0,1023.0,1023.0,1024.0,1023.0,1021.0,1022.0,1023.0,1022.0,1023.0,1024.0,1023.0,1024.0,1024.0,1023.0,1022.0,1022.0,1023.0,1023.0,1023.0,1024.0,1024.0,1024.0,1025.0,1024.0,1024.0,1022.0,1024.0,1023.0,1024.0,1024.0,1024.0,1024.0,1024.0,1024.0,1024.0,1022.0,1023.0,1022.0,1023.0,1023.0,1023.0,1024.0,1024.0,1023.0,1020.0,1022.0,1022.0,1023.0,1024.0,1024.0,1024.0,1024.0,1024.0,1023.0,1023.0,1024.0,1024.0,1024.0,1024.0,1024.0,1024.0,1023.0,1024.0,1024.0,1024.0,1025.0,1024.0,1025.0,1023.0,1024.0,1024.0,1024.0,1025.0,1024.0,1024.0,1023.0,1024.0,1024.0,1024.0,1026.0,1025.0,1023.0,1024.0,1025.0,1025.0,1026.0,1026.0,1024.0,1025.0,1025.0,1027.0,1029.0,1027.0,1024.0,1027.0,1028.0,1032.0,1034.0,1030.0,1025.0,1028.0,1031.0,1032.0,1039.0,1032.0,1025.0,1029.0,1031.0,1031.0,1040.0,1033.0,1027.0,1032.0,1034.0,1032.0,1044.0,1036.0,1029.0,1035.0,1035.0,1031.0,1044.0,1035.0,1028.0,1032.0,1032.0,1029.0,1040.0,1033.0,1030.0,1035.0,1033.0,1030.0,1040.0,1032.0,1022.0,1023.0,1023.0,1023.0,1024.0,1022.0,1035.0,1047.0,1037.0,1035.0,1048.0,1039.0,1032.0,1045.0,1037.0,1037.0,1050.0,1038.0,1028.0,1039.0,1032.0,1032.0,1040.0,1931,1991,1909,	00:32:46.039,0.05419921875,0.04052734375,1.01708984375,-0.18310546875,0.1220703125,0.06103515625,2.2906494140625,-3.0047607421875,56.8487548828125,455.0,-1591.0,-2575.0,0.87872314453125,0.030059814453125,-0.0135498046875,0.476226806640625,2.291909726206203,-3.005675989461946,52.24117121987945,0.8971501696439503,0.029494831065123697,-0.014741308974553936,0.44049327107004455,1,	00:32:46.040,0.00146484375,0.0849609375,1.00439453125,-0.8544921875,-1.64794921875,-0.6103515625,4.844970703125,-0.10986328125,76.7779541015625,-361.0,-1319.0,-1939.0,-0.7830810546875,-0.033721923828125,-0.0255126953125,-0.6204833984375,4.845495244875238,-0.10809626572574065,78.13461681840631,-0.7756866433189019,-0.03341445458783093,-0.02590965439049681,-0.6297002425048107,1
1782117473.270085,0.177,1022.0,1023.0,1023.0,1022.0,1022.0,1023.0,1023.0,1024.0,1023.0,1022.0,1023.0,1024.0,1024.0,1024.0,1023.0,1023.0,1023.0,1023.0,1023.0,1023.0,1024.0,1024.0,1024.0,1023.0,1023.0,1023.0,1024.0,1023.0,1024.0,1024.0,1024.0,1023.0,1022.0,1023.0,1023.0,1024.0,1023.0,1024.0,1024.0,1024.0,1023.0,1022.0,1023.0,1023.0,1023.0,1023.0,1024.0,1024.0,1023.0,1023.0,1022.0,1023.0,1023.0,1023.0,1023.0,1023.0,1024.0,1024.0,1023.0,1023.0,1022.0,1023.0,1022.0,1023.0,1023.0,1024.0,1024.0,1023.0,1023.0,1022.0,1022.0,1023.0,1022.0,1023.0,1023.0,1023.0,1024.0,1024.0,1023.0,1022.0,1023.0,1023.0,1022.0,1023.0,1024.0,1023.0,1024.0,1023.0,1023.0,1023.0,1022.0,1024.0,1023.0,1023.0,1024.0,1024.0,1025.0,1024.0,1024.0,1024.0,1023.0,1024.0,1023.0,1024.0,1024.0,1024.0,1025.0,1025.0,1024.0,1024.0,1023.0,1023.0,1022.0,1023.0,1023.0,1023.0,1023.0,1023.0,1023.0,1021.0,1022.0,1023.0,1024.0,1024.0,1024.0,1024.0,1024.0,1024.0,1023.0,1023.0,1023.0,1023.0,1023.0,1024.0,1024.0,1023.0,1023.0,1024.0,1024.0,1024.0,1026.0,1024.0,1025.0,1022.0,1023.0,1024.0,1024.0,1025.0,1025.0,1025.0,1023.0,1024.0,1024.0,1024.0,1025.0,1025.0,1023.0,1024.0,1025.0,1025.0,1026.0,1026.0,1024.0,1025.0,1026.0,1028.0,1029.0,1028.0,1024.0,1027.0,1028.0,1031.0,1034.0,1030.0,1025.0,1028.0,1031.0,1032.0,1039.0,1032.0,1025.0,1029.0,1031.0,1030.0,1040.0,1033.0,1026.0,1032.0,1034.0,1032.0,1043.0,1036.0,1028.0,1034.0,1035.0,1031.0,1045.0,1036.0,1028.0,1032.0,1032.0,1029.0,1040.0,1033.0,1030.0,1035.0,1033.0,1030.0,1040.0,1034.0,1023.0,1023.0,1022.0,1023.0,1024.0,1023.0,1035.0,1047.0,1036.0,1034.0,1048.0,1040.0,1032.0,1045.0,1037.0,1037.0,1049.0,1039.0,1028.0,1039.0,1032.0,1033.0,1040.0,1931,1991,1909,	00:32:46.049,0.05615234375,0.04052734375,1.01806640625,-0.244140625,0.18310546875,0.06103515625,2.2796630859375,-3.0926513671875,56.854248046875,456.0,-1587.0,-2578.0,0.878692626953125,0.030364990234375,-0.0142822265625,0.476226806640625,2.281906761437779,-3.095122025233854,52.24225763366546,0.8971230738036882,0.029759754538847785,-0.01548011786801823,0.44050529328216004,1,	00:32:46.050,0.0029296875,0.0859375,1.00341796875,-0.8544921875,-1.64794921875,-0.6103515625,4.8944091796875,-0.1922607421875,76.7724609375,-360.0,-1319.0,-1939.0,-0.7830810546875,-0.034515380859375,-0.02520751953125,-0.620452880859375,4.8961431368078525,-0.19382229393374073,78.12699389236607,-0.7756927841291387,-0.034230011841321246,-0.025605367776976508,-0.6296613185517548,1
1782117473.278774,0.186,1022.0,1023.0,1024.0,1022.0,1023.0,1023.0,1022.0,1024.0,1023.0,1023.0,1023.0,1024.0,1023.0,1024.0,1023.0,1023.0,1023.0,1023.0,1024.0,1023.0,1024.0,1024.0,1023.0,1023.0,1023.0,1023.0,1024.0,1023.0,1024.0,1024.0,1023.0,1023.0,1022.0,1023.0,1023.0,1024.0,1023.0,1024.0,1024.0,1024.0,1023.0,1022.0,1023.0,1023.0,1023.0,1023.0,1024.0,1023.0,1023.0,1022.0,1023.0,1023.0,1023.0,1023.0,1024.0,1023.0,1024.0,1024.0,1023.0,1023.0,1023.0,1023.0,1023.0,1023.0,1023.0,1023.0,1024.0,1024.0,1023.0,1022.0,1022.0,1023.0,1023.0,1023.0,1023.0,1023.0,1024.0,1024.0,1023.0,1022.0,1022.0,1023.0,1023.0,1023.0,1024.0,1023.0,1024.0,1024.0,1023.0,1022.0,1023.0,1023.0,1023.0,1023.0,1024.0,1024.0,1024.0,1024.0,1024.0,1023.0,1023.0,1024.0,1023.0,1024.0,1024.0,1024.0,1025.0,1024.0,1024.0,1024.0,1023.0,1023.0,1023.0,1024.0,1023.0,1023.0,1023.0,1023.0,1023.0,1021.0,1022.0,1023.0,1023.0,1024.0,1023.0,1024.0,1024.0,1024.0,1024.0,1023.0,1023.0,1024.0,1024.0,1024.0,1024.0,1024.0,1024.0,1024.0,1024.0,1024.0,1025.0,1024.0,1025.0,1023.0,1024.0,1024.0,1024.0,1026.0,1024.0,1025.0,1023.0,1024.0,1024.0,1024.0,1025.0,1025.0,1023.0,1024.0,1024.0,1025.0,1027.0,1026.0,1023.0,1025.0,1026.0,1028.0,1029.0,1028.0,1024.0,1027.0,1028.0,1031.0,1033.0,1030.0,1025.0,1029.0,1031.0,1032.0,1038.0,1032.0,1025.0,1029.0,1031.0,1030.0,1039.0,1033.0,1027.0,1032.0,1033.0,1032.0,1043.0,1036.0,1028.0,1034.0,1035.0,1032.0,1045.0,1036.0,1028.0,1033.0,1032.0,1029.0,1041.0,1034.0,1031.0,1035.0,1033.0,1029.0,1040.0,1033.0,1022.0,1023.0,1023.0,1023.0,1024.0,1022.0,1035.0,1047.0,1037.0,1034.0,1048.0,1039.0,1032.0,1044.0,1037.0,1037.0,1050.0,1038.0,1028.0,1039.0,1032.0,1033.0,1040.0,1931,1991,1909,	00:32:46.059,0.056640625,0.041015625,1.01806640625,-0.244140625,0.18310546875,0.06103515625,2.30712890625,-3.1805419921875,56.854248046875,455.0,-1590.0,-2579.0,0.878662109375,0.0308837890625,-0.01483154296875,0.476226806640625,2.3049333313138525,-3.1811887379065227,52.24154700110744,0.8970946972727778,0.030270039668763765,-0.01606594398089245,0.44050733735945624,1,	00:32:46.061,0.0029296875,0.0849609375,1.00439453125,-0.8544921875,-1.64794921875,-0.6103515625,4.8065185546875,-0.1702880859375,76.761474609375,-362.0,-1318.0,-1940.0,-0.783172607421875,-0.033782958984375,-0.02484130859375,-0.620391845703125,4.804187581981415,-0.17242671114437078,78.1197706884778,-0.7757648553128449,-0.033491577941677626,-0.02524282046072446,-0.6296268763987168,1
1782117473.287868,0.195,1023.0,1023.0,1024.0,1022.0,1023.0,1022.0,1023.0,1024.0,1023.0,1022.0,1023.0,1023.0,1023.0,1024.0,1023.0,1022.0,1023.0,1023.0,1024.0,1024.0,1024.0,1024.0,1024.0,1023.0,1023.0,1023.0,1024.0,1023.0,1024.0,1024.0,1023.0,1023.0,1022.0,1022.0,1023.0,1023.0,1023.0,1024.0,1024.0,1023.0,1023.0,1022.0,1023.0,1023.0,1023.0,1024.0,1024.0,1024.0,1023.0,1022.0,1022.0,1023.0,1023.0,1023.0,1024.0,1023.0,1024.0,1023.0,1024.0,1023.0,1022.0,1023.0,1023.0,1023.0,1023.0,1023.0,1024.0,1024.0,1024.0,1022.0,1022.0,1023.0,1023.0,1023.0,1023.0,1023.0,1023.0,1024.0,1023.0,1022.0,1022.0,1023.0,1023.0,1023.0,1023.0,1024.0,1024.0,1024.0,1023.0,1022.0,1022.0,1023.0,1023.0,1023.0,1025.0,1024.0,1024.0,1024.0,1024.0,1024.0,1023.0,1023.0,1023.0,1024.0,1024.0,1024.0,1024.0,1024.0,1024.0,1024.0,1023.0,1023.0,1022.0,1024.0,1023.0,1023.0,1024.0,1024.0,1023.0,1021.0,1022.0,1023.0,1023.0,1024.0,1024.0,1024.0,1024.0,1024.0,1023.0,1023.0,1024.0,1024.0,1023.0,1024.0,1024.0,1023.0,1023.0,1024.0,1024.0,1024.0,1025.0,1025.0,1025.0,1022.0,1024.0,1024.0,1024.0,1025.0,1025.0,1025.0,1023.0,1024.0,1024.0,1024.0,1025.0,1026.0,1023.0,1024.0,1025.0,1025.0,1026.0,1026.0,1024.0,1026.0,1026.0,1027.0,1029.0,1027.0,1024.0,1027.0,1029.0,1031.0,1034.0,1031.0,1025.0,1029.0,1032.0,1032.0,1038.0,1032.0,1025.0,1029.0,1031.0,1031.0,1040.0,1033.0,1027.0,1032.0,1034.0,1031.0,1044.0,1036.0,1029.0,1034.0,1035.0,1031.0,1044.0,1035.0,1028.0,1033.0,1032.0,1029.0,1040.0,1034.0,1032.0,1035.0,1033.0,1029.0,1040.0,1033.0,1022.0,1023.0,1023.0,1023.0,1025.0,1022.0,1036.0,1047.0,1036.0,1034.0,1048.0,1039.0,1032.0,1044.0,1037.0,1037.0,1050.0,1039.0,1028.0,1039.0,1032.0,1032.0,1040.0,1931,1991,1909,	00:32:46.070,0.05615234375,0.0400390625,1.01806640625,-0.244140625,0.18310546875,0.06103515625,2.21923828125,-3.1365966796875,56.854248046875,455.0,-1588.0,-2577.0,0.878662109375,0.030059814453125,-0.014862060546875,0.47625732421875,2.220667126410009,-3.138092255523289,52.246738591891635,0.8971092717621943,0.02944576622795555,-0.016050963768326033,0.4405340712495025,1,	00:32:46.071,0.00341796875,0.0859375,1.0029296875,-0.91552734375,-1.64794921875,-0.6103515625,4.8834228515625,-0.208740234375,76.7559814453125,-361.0,-1320.0,-1943.0,-0.783172607421875,-0.0345458984375,-0.0250244140625,-0.620330810546875,4.883953856500663,-0.20940435179327313,78.11201563093526,-0.7757748814643082,-0.03423642967511158,-0.025428423670174262,-0.6295669904321459,1
1782117473.300312,0.208,1023.0,1023.0,1023.0,1022.0,1023.0,1023.0,1023.0,1024.0,1023.0,1022.0,1024.0,1024.0,1023.0,1024.0,1023.0,1023.0,1023.0,1023.0,1024.0,1023.0,1024.0,1024.0,1023.0,1024.0,1023.0,1023.0,1024.0,1023.0,1024.0,1024.0,1024.0,1023.0,1022.0,1023.0,1023.0,1024.0,1023.0,1024.0,1024.0,1024.0,1023.0,1022.0,1023.0,1023.0,1023.0,1023.0,1024.0,1024.0,1023.0,1022.0,1022.0,1023.0,1023.0,1023.0,1023.0,1023.0,1024.0,1024.0,1023.0,1023.0,1023.0,1023.0,1023.0,1023.0,1024.0,1023.0,1024.0,1024.0,1024.0,1022.0,1022.0,1023.0,1022.0,1023.0,1024.0,1023.0,1024.0,1024.0,1023.0,1021.0,1023.0,1024.0,1023.0,1023.0,1024.0,1024.0,1023.0,1024.0,1023.0,1023.0,1022.0,1023.0,1023.0,1024.0,1024.0,1024.0,1024.0,1024.0,1024.0,1024.0,1023.0,1024.0,1023.0,1024.0,1025.0,1024.0,1025.0,1025.0,1024.0,1024.0,1023.0,1023.0,1022.0,1024.0,1023.0,1023.0,1024.0,1023.0,1023.0,1021.0,1022.0,1023.0,1024.0,1024.0,1024.0,1024.0,1024.0,1023.0,1023.0,1023.0,1023.0,1024.0,1023.0,1024.0,1024.0,1023.0,1024.0,1024.0,1025.0,1024.0,1025.0,1025.0,1025.0,1023.0,1024.0,1024.0,1024.0,1025.0,1025.0,1025.0,1023.0,1024.0,1024.0,1024.0,1025.0,1025.0,1023.0,1024.0,1025.0,1025.0,1026.0,1025.0,1024.0,1025.0,1026.0,1027.0,1029.0,1028.0,1024.0,1027.0,1029.0,1030.0,1033.0,1030.0,1024.0,1028.0,1031.0,1031.0,1038.0,1032.0,1025.0,1029.0,1031.0,1030.0,1039.0,1033.0,1027.0,1032.0,1034.0,1031.0,1044.0,1036.0,1029.0,1034.0,1035.0,1031.0,1044.0,1036.0,1028.0,1032.0,1032.0,1029.0,1040.0,1034.0,1031.0,1035.0,1034.0,1029.0,1039.0,1033.0,1022.0,1023.0,1023.0,1023.0,1025.0,1023.0,1036.0,1046.0,1037.0,1034.0,1048.0,1039.0,1033.0,1044.0,1038.0,1038.0,1050.0,1039.0,1028.0,1038.0,1032.0,1032.0,1040.0,1931,1991,1909,	00:32:46.080,0.05517578125,0.041015625,1.0185546875,-0.244140625,0.18310546875,0.06103515625,2.3016357421875,-3.09814453125,56.854248046875,456.0,-1589.0,-2576.0,0.878662109375,0.030517578125,-0.01422119140625,0.476226806640625,2.3013287749631415,-3.0974178615878607,52.24289771384987,0.8971148934140538,0.029920698828661337,-0.01542327297736891,0.4405130445820655,1,	00:32:46.081,0.001953125,0.08544921875,1.00537109375,-0.9765625,-1.5869140625,-0.54931640625,4.8504638671875,-0.1373291015625,76.75048828125,-359.0,-1319.0,-1941.0,-0.783233642578125,-0.033905029296875,-0.02532958984375,-0.62030029296875,4.850897713021751,-0.13611863882493472,78.10525523528857,-0.7758396659684349,-0.03361159258956819,-0.025741030315922384,-0.6295081198140775,1
1782117473.308602,0.216,1023.0,1023.0,1023.0,1022.0,1023.0,1023.0,1023.0,1024.0,1023.0,1023.0,1023.0,1024.0,1023.0,1024.0,1023.0,1023.0,1024.0,1023.0,1024.0,1023.0,1023.0,1024.0,1023.0,1023.0,1023.0,1023.0,1024.0,1024.0,1023.0,1024.0,1024.0,1023.0,1022.0,1023.0,1023.0,1024.0,1023.0,1024.0,1024.0,1024.0,1022.0,1022.0,1022.0,1023.0,1024.0,1023.0,1024.0,1024.0,1023.0,1023.0,1022.0,1023.0,1023.0,1023.0,1024.0,1023.0,1024.0,1024.0,1023.0,1023.0,1022.0,1023.0,1022.0,1023.0,1023.0,1023.0,1023.0,1023.0,1023.0,1021.0,1022.0,1023.0,1023.0,1023.0,1023.0,1023.0,1024.0,1023.0,1023.0,1022.0,1022.0,1023.0,1022.0,1024.0,1024.0,1024.0,1024.0,1024.0,1023.0,1022.0,1023.0,1023.0,1023.0,1024.0,1024.0,1024.0,1024.0,1024.0,1024.0,1024.0,1022.0,1023.0,1023.0,1024.0,1025.0,1024.0,1024.0,1025.0,1024.0,1025.0,1023.0,1024.0,1022.0,1023.0,1023.0,1023.0,1024.0,1024.0,1023.0,1021.0,1022.0,1023.0,1024.0,1024.0,1024.0,1024.0,1024.0,1023.0,1023.0,1023.0,1023.0,1024.0,1023.0,1024.0,1024.0,1023.0,1023.0,1024.0,1024.0,1024.0,1025.0,1025.0,1024.0,1023.0,1024.0,1024.0,1024.0,1025.0,1024.0,1025.0,1023.0,1024.0,1024.0,1025.0,1025.0,1025.0,1023.0,1024.0,1025.0,1026.0,1026.0,1026.0,1024.0,1025.0,1026.0,1027.0,1028.0,1028.0,1024.0,1026.0,1028.0,1031.0,1033.0,1030.0,1025.0,1028.0,1032.0,1031.0,1038.0,1032.0,1026.0,1029.0,1032.0,1030.0,1039.0,1033.0,1027.0,1031.0,1034.0,1031.0,1043.0,1036.0,1029.0,1034.0,1035.0,1031.0,1044.0,1036.0,1029.0,1032.0,1032.0,1029.0,1041.0,1034.0,1031.0,1034.0,1033.0,1030.0,1040.0,1033.0,1022.0,1023.0,1022.0,1022.0,1025.0,1023.0,1036.0,1047.0,1037.0,1034.0,1048.0,1039.0,1032.0,1044.0,1038.0,1037.0,1050.0,1038.0,1029.0,1038.0,1032.0,1033.0,1041.0,1931,1991,1909,	00:32:46.090,0.05517578125,0.0390625,1.01806640625,-0.30517578125,0.244140625,0.06103515625,2.208251953125,-3.09814453125,56.8597412109375,456.0,-1588.0,-2574.0,0.878662109375,0.02978515625,-0.01458740234375,0.47625732421875,2.206524482445439,-3.0972155558225865,52.248562163648515,0.8971176225362084,0.029178488684963148,-0.015784687476235154,0.4405444708248197,1,	00:32:46.091,0.00537109375,0.08544921875,1.00439453125,-1.0986328125,-1.3427734375,-0.6103515625,4.844970703125,-0.24169921875,76.7449951171875,-362.0,-1322.0,-1940.0,-0.783233642578125,-0.034454345703125,-0.02459716796875,-0.620269775390625,4.846341515615769,-0.2404277011004888,78.09802703123681,-0.775855302470062,-0.03415525963681954,-0.025007554832317983,-0.6294891500808721,1
1782117473.318408,0.226,1023.0,1024.0,1023.0,1022.0,1022.0,1023.0,1023.0,1024.0,1023.0,1023.0,1023.0,1023.0,1023.0,1024.0,1024.0,1023.0,1023.0,1023.0,1023.0,1023.0,1024.0,1023.0,1024.0,1023.0,1023.0,1023.0,1023.0,1023.0,1024.0,1024.0,1023.0,1023.0,1022.0,1023.0,1023.0,1023.0,1024.0,1023.0,1024.0,1023.0,1023.0,1023.0,1022.0,1023.0,1024.0,1023.0,1023.0,1023.0,1023.0,1023.0,1022.0,1023.0,1023.0,1023.0,1023.0,1024.0,1024.0,1023.0,1023.0,1023.0,1023.0,1023.0,1022.0,1023.0,1023.0,1023.0,1024.0,1024.0,1023.0,1022.0,1023.0,1023.0,1023.0,1023.0,1023.0,1023.0,1024.0,1024.0,1023.0,1022.0,1022.0,1023.0,1023.0,1023.0,1024.0,1023.0,1024.0,1024.0,1023.0,1022.0,1022.0,1023.0,1023.0,1024.0,1024.0,1023.0,1024.0,1024.0,1024.0,1024.0,1022.0,1023.0,1023.0,1024.0,1024.0,1024.0,1024.0,1024.0,1024.0,1024.0,1022.0,1023.0,1022.0,1023.0,1023.0,1023.0,1024.0,1024.0,1023.0,1021.0,1022.0,1023.0,1024.0,1024.0,1024.0,1024.0,1024.0,1024.0,1023.0,1023.0,1023.0,1024.0,1024.0,1024.0,1023.0,1024.0,1024.0,1024.0,1025.0,1024.0,1025.0,1025.0,1024.0,1023.0,1024.0,1024.0,1024.0,1025.0,1025.0,1025.0,1023.0,1024.0,1024.0,1024.0,1026.0,1025.0,1023.0,1024.0,1024.0,1025.0,1026.0,1026.0,1024.0,1025.0,1026.0,1028.0,1029.0,1028.0,1024.0,1026.0,1028.0,1030.0,1034.0,1030.0,1025.0,1028.0,1031.0,1031.0,1038.0,1032.0,1026.0,1028.0,1031.0,1030.0,1040.0,1033.0,1027.0,1031.0,1034.0,1031.0,1044.0,1037.0,1029.0,1034.0,1035.0,1031.0,1045.0,1035.0,1028.0,1032.0,1033.0,1029.0,1040.0,1033.0,1031.0,1034.0,1033.0,1029.0,1040.0,1033.0,1023.0,1023.0,1023.0,1023.0,1024.0,1023.0,1036.0,1047.0,1037.0,1034.0,1048.0,1038.0,1032.0,1043.0,1038.0,1037.0,1049.0,1039.0,1029.0,1038.0,1032.0,1032.0,1041.0,1931,1991,1909,	00:32:46.100,0.0546875,0.04052734375,1.01708984375,-0.30517578125,0.3662109375,0.06103515625,2.2906494140625,-3.0706787109375,56.854248046875,455.0,-1589.0,-2574.0,0.878662109375,0.03033447265625,-0.014007568359375,0.47625732421875,2.2915524133021368,-3.0679491897950073,52.24457466520168,0.8971194689151936,0.029731349782246213,-0.015229592125728181,0.44052328526098466,1,	00:32:46.101,0.0048828125,0.08544921875,1.005859375,-1.15966796875,-1.28173828125,-0.67138671875,4.85595703125,-0.340576171875,76.7340087890625,-363.0,-1318.0,-1940.0,-0.78326416015625,-0.035064697265625,-0.023956298828125,-0.6202392578125,4.85742841355154,-0.3414324873134047,78.09014957229232,-0.7758700002180355,-0.03478671609885473,-0.02438209740728203,-0.6294609920167772,1
1782117473.328844,0.236,1023.0,1023.0,1023.0,1023.0,1023.0,1023.0,1023.0,1024.0,1023.0,1023.0,1024.0,1023.0,1023.0,1024.0,1023.0,1023.0,1022.0,1023.0,1024.0,1023.0,1023.0,1023.0,1023.0,1023.0,1023.0,1023.0,1024.0,1023.0,1024.0,1024.0,1023.0,1023.0,1022.0,1023.0,1023.0,1023.0,1024.0,1024.0,1024.0,1023.0,1023.0,1022.0,1023.0,1023.0,1023.0,1024.0,1024.0,1023.0,1023.0,1022.0,1023.0,1023.0,1023.0,1023.0,1024.0,1023.0,1024.0,1024.0,1024.0,1023.0,1022.0,1024.0,1023.0,1023.0,1023.0,1023.0,1024.0,1024.0,1023.0,1022.0,1022.0,1023.0,1023.0,1023.0,1023.0,1024.0,1024.0,1024.0,1023.0,1022.0,1022.0,1023.0,1023.0,1023.0,1023.0,1023.0,1023.0,1024.0,1024.0,1022.0,1023.0,1024.0,1023.0,1024.0,1024.0,1024.0,1024.0,1024.0,1023.0,1023.0,1022.0,1023.0,1023.0,1024.0,1024.0,1024.0,1025.0,1024.0,1024.0,1024.0,1023.0,1023.0,1022.0,1023.0,1023.0,1023.0,1024.0,1023.0,1023.0,1020.0,1022.0,1023.0,1023.0,1024.0,1024.0,1024.0,1024.0,1024.0,1023.0,1023.0,1023.0,1023.0,1023.0,1024.0,1024.0,1023.0,1024.0,1024.0,1024.0,1024.0,1025.0,1025.0,1024.0,1023.0,1023.0,1024.0,1024.0,1026.0,1024.0,1025.0,1023.0,1024.0,1024.0,1024.0,1025.0,1025.0,1023.0,1024.0,1024.0,1025.0,1026.0,1026.0,1024.0,1025.0,1026.0,1027.0,1029.0,1028.0,1024.0,1026.0,1028.0,1031.0,1034.0,1030.0,1025.0,1028.0,1030.0,1032.0,1039.0,1031.0,1025.0,1028.0,1031.0,1030.0,1040.0,1033.0,1027.0,1031.0,1034.0,1031.0,1044.0,1036.0,1029.0,1034.0,1036.0,1031.0,1044.0,1036.0,1028.0,1032.0,1032.0,1029.0,1040.0,1033.0,1031.0,1035.0,1033.0,1030.0,1040.0,1033.0,1022.0,1024.0,1023.0,1023.0,1024.0,1023.0,1036.0,1047.0,1037.0,1034.0,1048.0,1039.0,1032.0,1043.0,1037.0,1037.0,1049.0,1039.0,1029.0,1038.0,1032.0,1032.0,1041.0,1931,1991,1909,	00:32:46.110,0.056640625,0.041015625,1.017578125,-0.30517578125,0.30517578125,0.1220703125,2.3016357421875,-3.153076171875,56.854248046875,457.0,-1586.0,-2575.0,0.878631591796875,0.03076171875,-0.0146484375,0.47625732421875,2.301477455891592,-3.1555283135595293,52.24521234101898,0.8970890556869957,0.03014507370711949,-0.015877268226491624,0.44053423595842245,1,	00:32:46.112,0.001953125,0.08544921875,1.00390625,-1.0986328125,-1.28173828125,-0.6103515625,4.8504638671875,-0.263671875,76.728515625,-361.0,-1317.0,-1941.0,-0.7833251953125,-0.034576416015625,-0.02447509765625,-0.62017822265625,4.849532315629524,-0.2620653535321507,78.08295887055411,-0.7759317654971928,-0.034298970370176894,-0.02487405143260826,-0.629392371648468,1
1782117473.339804,0.247,1023.0,1023.0,1023.0,1023.0,1023.0,1023.0,1023.0,1024.0,1023.0,1022.0,1023.0,1023.0,1023.0,1024.0,1023.0,1023.0,1023.0,1022.0,1024.0,1023.0,1024.0,1024.0,1023.0,1023.0,1023.0,1023.0,1023.0,1023.0,1024.0,1024.0,1024.0,1023.0,1021.0,1024.0,1023.0,1024.0,1023.0,1024.0,1024.0,1023.0,1023.0,1023.0,1023.0,1023.0,1023.0,1023.0,1024.0,1023.0,1024.0,1022.0,1022.0,1023.0,1023.0,1024.0,1024.0,1023.0,1024.0,1024.0,1023.0,1023.0,1022.0,1023.0,1023.0,1023.0,1023.0,1023.0,1024.0,1023.0,1023.0,1022.0,1023.0,1023.0,1023.0,1023.0,1024.0,1023.0,1023.0,1024.0,1023.0,1022.0,1022.0,1023.0,1023.0,1023.0,1024.0,1023.0,1024.0,1023.0,1023.0,1023.0,1022.0,1024.0,1023.0,1023.0,1024.0,1024.0,1024.0,1024.0,1024.0,1024.0,1023.0,1023.0,1024.0,1023.0,1024.0,1024.0,1024.0,1024.0,1024.0,1024.0,1023.0,1023.0,1023.0,1023.0,1023.0,1023.0,1023.0,1023.0,1023.0,1021.0,1022.0,1023.0,1023.0,1023.0,1024.0,1024.0,1024.0,1024.0,1023.0,1023.0,1023.0,1023.0,1023.0,1024.0,1024.0,1024.0,1023.0,1024.0,1024.0,1024.0,1026.0,1025.0,1025.0,1023.0,1024.0,1024.0,1024.0,1026.0,1024.0,1025.0,1023.0,1024.0,1024.0,1024.0,1026.0,1024.0,1024.0,1024.0,1024.0,1025.0,1026.0,1026.0,1024.0,1025.0,1026.0,1027.0,1029.0,1027.0,1024.0,1026.0,1028.0,1031.0,1033.0,1030.0,1025.0,1028.0,1030.0,1031.0,1039.0,1031.0,1026.0,1029.0,1031.0,1031.0,1039.0,1033.0,1026.0,1031.0,1034.0,1031.0,1043.0,1036.0,1029.0,1034.0,1036.0,1031.0,1044.0,1036.0,1028.0,1032.0,1032.0,1029.0,1040.0,1034.0,1031.0,1035.0,1033.0,1029.0,1040.0,1033.0,1022.0,1024.0,1023.0,1023.0,1024.0,1023.0,1036.0,1047.0,1036.0,1034.0,1048.0,1039.0,1032.0,1044.0,1038.0,1037.0,1049.0,1038.0,1028.0,1038.0,1031.0,1032.0,1040.0,1931,1991,1909,	00:32:46.121,0.0556640625,0.041015625,1.01708984375,-0.30517578125,0.3662109375,0.06103515625,2.3236083984375,-3.065185546875,56.854248046875,456.0,-1590.0,-2574.0,0.878662109375,0.030548095703125,-0.01385498046875,0.47625732421875,2.325234153865583,-3.0643051859637125,52.244511304280316,0.8971119825419139,0.02998105151062586,-0.015071582362333564,0.4405270420021106,1,	00:32:46.122,0.00244140625,0.08544921875,1.00341796875,-1.03759765625,-1.28173828125,-0.54931640625,4.8504638671875,-0.1812744140625,76.7230224609375,-360.0,-1318.0,-1942.0,-0.78338623046875,-0.0341796875,-0.0250244140625,-0.620086669921875,4.852385808627868,-0.18365814035237144,78.07634335027969,-0.7759865214937471,-0.03388920459336501,-0.025418762116854777,-0.6293252949028111,1
1782117473.348972,0.256,1023.0,1024.0,1024.0,1022.0,1023.0,1023.0,1023.0,1023.0,1024.0,1022.0,1023.0,1023.0,1023.0,1024.0,1023.0,1023.0,1023.0,1023.0,1024.0,1023.0,1024.0,1024.0,1023.0,1024.0,1023.0,1023.0,1024.0,1023.0,1024.0,1024.0,1023.0,1023.0,1023.0,1023.0,1023.0,1023.0,1023.0,1024.0,1024.0,1023.0,1022.0,1023.0,1023.0,1023.0,1023.0,1023.0,1024.0,1024.0,1023.0,1022.0,1022.0,1023.0,1023.0,1023.0,1024.0,1023.0,1024.0,1024.0,1023.0,1023.0,1022.0,1023.0,1022.0,1023.0,1023.0,1023.0,1024.0,1024.0,1022.0,1021.0,1022.0,1023.0,1022.0,1023.0,1024.0,1023.0,1024.0,1024.0,1023.0,1022.0,1022.0,1023.0,1023.0,1023.0,1024.0,1024.0,1024.0,1024.0,1023.0,1023.0,1022.0,1023.0,1024.0,1024.0,1024.0,1024.0,1023.0,1024.0,1024.0,1024.0,1022.0,1023.0,1023.0,1024.0,1025.0,1024.0,1024.0,1024.0,1024.0,1023.0,1023.0,1023.0,1022.0,1023.0,1023.0,1023.0,1024.0,1023.0,1023.0,1021.0,1022.0,1023.0,1024.0,1024.0,1024.0,1024.0,1024.0,1024.0,1023.0,1022.0,1024.0,1023.0,1023.0,1024.0,1024.0,1024.0,1023.0,1024.0,1024.0,1024.0,1025.0,1024.0,1025.0,1023.0,1024.0,1024.0,1024.0,1025.0,1025.0,1025.0,1023.0,1024.0,1024.0,1024.0,1025.0,1025.0,1024.0,1024.0,1025.0,1025.0,1026.0,1026.0,1024.0,1025.0,1025.0,1027.0,1028.0,1028.0,1024.0,1027.0,1028.0,1030.0,1033.0,1030.0,1025.0,1029.0,1031.0,1031.0,1039.0,1032.0,1026.0,1029.0,1031.0,1029.0,1039.0,1034.0,1026.0,1031.0,1034.0,1032.0,1043.0,1036.0,1029.0,1034.0,1035.0,1031.0,1044.0,1035.0,1028.0,1032.0,1032.0,1029.0,1040.0,1033.0,1031.0,1035.0,1034.0,1030.0,1040.0,1033.0,1022.0,1023.0,1023.0,1023.0,1024.0,1022.0,1035.0,1046.0,1037.0,1034.0,1048.0,1039.0,1032.0,1043.0,1037.0,1038.0,1050.0,1038.0,1029.0,1038.0,1031.0,1032.0,1040.0,1931,1991,1909,	00:32:46.131,0.0556640625,0.04052734375,1.01708984375,-0.30517578125,0.30517578125,0.06103515625,2.274169921875,-3.1365966796875,56.8597412109375,456.0,-1587.0,-2575.0,0.878662109375,0.03045654296875,-0.0146484375,0.476287841796875,2.2716580224903784,-3.137819660313034,52.24797909901552,0.8970913902902712,0.029844084498872693,-0.01585247528730169,0.44055086779480757,1,	00:32:46.132,0.001953125,0.08544921875,1.00341796875,-1.0986328125,-1.3427734375,-0.6103515625,4.8614501953125,-0.1043701171875,76.7120361328125,-360.0,-1318.0,-1937.0,-0.783447265625,-0.0338134765625,-0.02557373046875,-0.620025634765625,4.8600676180721285,-0.10677498312918152,78.06907130592757,-0.7760427590974943,-0.033520702438330906,-0.025979507009049704,-0.629252782096318,1
1782117473.359366,0.267,1023.0,1023.0,1023.0,1023.0,1023.0,1023.0,1023.0,1024.0,1023.0,1023.0,1023.0,1023.0,1023.0,1024.0,1024.0,1023.0,1023.0,1024.0,1023.0,1023.0,1024.0,1024.0,1024.0,1023.0,1023.0,1023.0,1023.0,1023.0,1024.0,1024.0,1024.0,1023.0,1023.0,1023.0,1023.0,1023.0,1024.0,1024.0,1024.0,1024.0,1023.0,1022.0,1022.0,1023.0,1023.0,1023.0,1024.0,1023.0,1024.0,1023.0,1023.0,1023.0,1023.0,1023.0,1023.0,1023.0,1024.0,1024.0,1024.0,1023.0,1023.0,1024.0,1023.0,1023.0,1023.0,1023.0,1024.0,1023.0,1023.0,1022.0,1022.0,1023.0,1023.0,1023.0,1022.0,1023.0,1024.0,1024.0,1023.0,1022.0,1022.0,1023.0,1023.0,1023.0,1024.0,1023.0,1024.0,1024.0,1023.0,1023.0,1022.0,1023.0,1023.0,1024.0,1024.0,1024.0,1024.0,1024.0,1024.0,1024.0,1023.0,1024.0,1023.0,1023.0,1024.0,1024.0,1025.0,1024.0,1024.0,1024.0,1022.0,1023.0,1022.0,1023.0,1022.0,1023.0,1024.0,1024.0,1023.0,1021.0,1022.0,1023.0,1023.0,1024.0,1023.0,1024.0,1024.0,1024.0,1023.0,1022.0,1023.0,1023.0,1024.0,1024.0,1024.0,1024.0,1023.0,1024.0,1024.0,1024.0,1026.0,1025.0,1025.0,1023.0,1024.0,1024.0,1024.0,1025.0,1025.0,1025.0,1023.0,1024.0,1024.0,1024.0,1026.0,1025.0,1023.0,1024.0,1024.0,1025.0,1026.0,1025.0,1023.0,1025.0,1026.0,1027.0,1028.0,1027.0,1024.0,1026.0,1028.0,1030.0,1033.0,1030.0,1025.0,1028.0,1030.0,1031.0,1039.0,1032.0,1025.0,1029.0,1030.0,1031.0,1040.0,1034.0,1027.0,1031.0,1033.0,1031.0,1043.0,1037.0,1028.0,1033.0,1035.0,1031.0,1045.0,1036.0,1028.0,1032.0,1032.0,1029.0,1040.0,1033.0,1030.0,1035.0,1033.0,1030.0,1039.0,1033.0,1022.0,1023.0,1023.0,1022.0,1024.0,1022.0,1035.0,1046.0,1036.0,1035.0,1048.0,1039.0,1032.0,1044.0,1038.0,1038.0,1049.0,1038.0,1029.0,1037.0,1032.0,1033.0,1040.0,1931,1991,1909,	00:32:46.141,0.0537109375,0.0400390625,1.01708984375,-0.30517578125,0.30517578125,0.06103515625,2.2576904296875,-3.043212890625,56.8597412109375,454.0,-1590.0,-2575.0,0.878662109375,0.029937744140625,-0.01397705078125,0.476287841796875,2.255209863605076,-3.044257734428663,52.249428747805894,0.8971169318172957,0.029356590393888653,-0.015182484272379067,0.4405552104089635,1,	00:32:46.142,0.001953125,0.0859375,1.00439453125,-1.15966796875,-1.3427734375,-0.54931640625,4.9383544921875,-0.1318359375,76.70654296875,-360.0,-1318.0,-1943.0,-0.783447265625,-0.034515380859375,-0.02581787109375,-0.619964599609375,4.938952277567254,-0.13231504525152132,78.06227451693401,-0.7760505921557749,-0.03419670595794114,-0.026237678789682806,-0.629196032988151,1
1782117473.375427,0.283,1023.0,1023.0,1023.0,1023.0,1023.0,1023.0,1023.0,1024.0,1023.0,1023.0,1023.0,1023.0,1023.0,1024.0,1023.0,1023.0,1023.0,1023.0,1023.0,1023.0,1024.0,1024.0,1024.0,1023.0,1023.0,1024.0,1023.0,1023.0,1024.0,1024.0,1024.0,1023.0,1022.0,1023.0,1023.0,1024.0,1024.0,1024.0,1024.0,1023.0,1023.0,1022.0,1023.0,1023.0,1023.0,1023.0,1024.0,1023.0,1023.0,1023.0,1022.0,1023.0,1023.0,1023.0,1022.0,1024.0,1024.0,1024.0,1023.0,1023.0,1023.0,1023.0,1022.0,1023.0,1023.0,1023.0,1024.0,1024.0,1023.0,1022.0,1022.0,1023.0,1022.0,1023.0,1023.0,1023.0,1024.0,1023.0,1023.0,1022.0,1022.0,1024.0,1023.0,1023.0,1023.0,1023.0,1024.0,1024.0,1023.0,1022.0,1022.0,1023.0,1023.0,1024.0,1024.0,1024.0,1024.0,1024.0,1024.0,1024.0,1023.0,1023.0,1023.0,1024.0,1024.0,1024.0,1025.0,1025.0,1024.0,1024.0,1023.0,1023.0,1022.0,1023.0,1023.0,1023.0,1024.0,1024.0,1024.0,1021.0,1022.0,1023.0,1023.0,1024.0,1024.0,1025.0,1024.0,1024.0,1023.0,1023.0,1023.0,1023.0,1024.0,1024.0,1024.0,1024.0,1023.0,1024.0,1024.0,1024.0,1025.0,1024.0,1025.0,1023.0,1024.0,1023.0,1024.0,1025.0,1025.0,1025.0,1023.0,1024.0,1024.0,1024.0,1025.0,1025.0,1024.0,1024.0,1024.0,1025.0,1026.0,1026.0,1024.0,1025.0,1026.0,1027.0,1029.0,1027.0,1024.0,1026.0,1028.0,1031.0,1033.0,1030.0,1025.0,1028.0,1030.0,1031.0,1039.0,1031.0,1025.0,1028.0,1030.0,1030.0,1040.0,1034.0,1027.0,1031.0,1033.0,1031.0,1044.0,1036.0,1028.0,1034.0,1034.0,1031.0,1045.0,1035.0,1028.0,1031.0,1031.0,1029.0,1040.0,1034.0,1031.0,1034.0,1033.0,1030.0,1040.0,1033.0,1023.0,1023.0,1022.0,1023.0,1024.0,1023.0,1036.0,1046.0,1037.0,1034.0,1048.0,1039.0,1032.0,1043.0,1037.0,1038.0,1050.0,1038.0,1028.0,1038.0,1031.0,1033.0,1041.0,1931,1991,1909,	00:32:46.151,0.05615234375,0.04052734375,1.01806640625,-0.3662109375,0.30517578125,0.1220703125,2.2686767578125,-3.131103515625,56.8597412109375,455.0,-1588.0,-2575.0,0.878631591796875,0.030426025390625,-0.01458740234375,0.476287841796875,2.271268881858311,-3.1305992007319543,52.249707229052724,0.8970869442063589,0.029813578363452723,-0.01579696550809496,0.44056398055265406,1,	00:32:46.153,0.0029296875,0.0859375,1.0048828125,-1.15966796875,-1.220703125,-0.54931640625,4.8504638671875,-0.1922607421875,76.7010498046875,-358.0,-1319.0,-1943.0,-0.783477783203125,-0.03424072265625,-0.024932861328125,-0.619964599609375,4.851401681822799,-0.19492093666911547,78.05597367885177,-0.7760959230015348,-0.03394888732039935,-0.02533104557169248,-0.6291906940509748,1
1782117473.380505,0.288,1023.0,1023.0,1024.0,1022.0,1022.0,1022.0,1023.0,1024.0,1024.0,1023.0,1023.0,1022.0,1023.0,1024.0,1023.0,1023.0,1022.0,1023.0,1024.0,1023.0,1024.0,1024.0,1023.0,1023.0,1023.0,1023.0,1024.0,1024.0,1024.0,1024.0,1024.0,1024.0,1022.0,1023.0,1023.0,1023.0,1023.0,1024.0,1024.0,1024.0,1023.0,1023.0,1022.0,1023.0,1023.0,1023.0,1024.0,1024.0,1023.0,1022.0,1022.0,1023.0,1023.0,1023.0,1023.0,1023.0,1024.0,1024.0,1023.0,1023.0,1022.0,1023.0,1022.0,1023.0,1023.0,1024.0,1024.0,1024.0,1023.0,1021.0,1022.0,1023.0,1022.0,1023.0,1023.0,1023.0,1024.0,1023.0,1023.0,1022.0,1022.0,1023.0,1022.0,1023.0,1023.0,1024.0,1024.0,1024.0,1024.0,1023.0,1023.0,1023.0,1023.0,1024.0,1023.0,1024.0,1024.0,1024.0,1024.0,1024.0,1022.0,1023.0,1023.0,1023.0,1024.0,1024.0,1024.0,1024.0,1024.0,1024.0,1023.0,1023.0,1023.0,1023.0,1022.0,1023.0,1024.0,1023.0,1024.0,1021.0,1022.0,1023.0,1024.0,1023.0,1023.0,1024.0,1024.0,1024.0,1023.0,1023.0,1024.0,1023.0,1024.0,1024.0,1024.0,1024.0,1023.0,1024.0,1024.0,1024.0,1025.0,1024.0,1025.0,1023.0,1024.0,1023.0,1024.0,1025.0,1025.0,1025.0,1023.0,1024.0,1024.0,1024.0,1026.0,1025.0,1023.0,1024.0,1024.0,1025.0,1027.0,1025.0,1024.0,1025.0,1026.0,1027.0,1029.0,1028.0,1024.0,1027.0,1028.0,1031.0,1034.0,1029.0,1025.0,1028.0,1030.0,1031.0,1039.0,1032.0,1026.0,1028.0,1031.0,1031.0,1040.0,1033.0,1027.0,1032.0,1033.0,1032.0,1043.0,1036.0,1029.0,1034.0,1035.0,1031.0,1044.0,1035.0,1028.0,1032.0,1032.0,1029.0,1040.0,1034.0,1030.0,1035.0,1033.0,1029.0,1040.0,1033.0,1022.0,1023.0,1023.0,1023.0,1025.0,1022.0,1035.0,1046.0,1036.0,1034.0,1048.0,1039.0,1032.0,1043.0,1037.0,1037.0,1050.0,1038.0,1028.0,1038.0,1032.0,1032.0,1040.0,1931,1991,1907,	00:32:46.162,0.0556640625,0.0400390625,1.01806640625,-0.3662109375,0.3662109375,0.06103515625,2.17529296875,-3.109130859375,56.865234375,457.0,-1587.0,-2577.0,0.878662109375,0.029632568359375,-0.01483154296875,0.476318359375,2.1772969595285,-3.1108226602469258,52.255376942190196,0.8970949548700743,0.02900282418764508,-0.01600190883340032,0.44059439062417416,1,	00:32:46.163,0.001953125,0.08642578125,1.0048828125,-1.28173828125,-1.15966796875,-0.54931640625,4.8944091796875,-0.1318359375,76.695556640625,-361.0,-1318.0,-1942.0,-0.78350830078125,-0.034210205078125,-0.02557373046875,-0.619903564453125,4.894255861844005,-0.13330201826530458,78.04935338165613,-0.7761345754483544,-0.03390235351920616,-0.025981751658823313,-0.6291189869970552,1
1782117473.390660,0.298,1023.0,1023.0,1023.0,1023.0,1023.0,1023.0,1023.0,1024.0,1024.0,1023.0,1023.0,1023.0,1023.0,1023.0,1023.0,1023.0,1023.0,1023.0,1023.0,1023.0,1024.0,1024.0,1023.0,1023.0,1023.0,1023.0,1023.0,1023.0,1024.0,1024.0,1024.0,1023.0,1022.0,1023.0,1023.0,1023.0,1023.0,1024.0,1024.0,1023.0,1023.0,1022.0,1023.0,1023.0,1023.0,1024.0,1024.0,1024.0,1023.0,1023.0,1022.0,1023.0,1023.0,1023.0,1023.0,1023.0,1024.0,1024.0,1024.0,1023.0,1022.0,1023.0,1022.0,1023.0,1023.0,1023.0,1024.0,1024.0,1023.0,1021.0,1022.0,1023.0,1022.0,1023.0,1022.0,1023.0,1024.0,1024.0,1023.0,1022.0,1022.0,1023.0,1023.0,1023.0,1023.0,1023.0,1024.0,1024.0,1024.0,1023.0,1022.0,1024.0,1022.0,1024.0,1024.0,1023.0,1024.0,1024.0,1024.0,1024.0,1023.0,1023.0,1024.0,1024.0,1024.0,1024.0,1024.0,1024.0,1024.0,1024.0,1023.0,1023.0,1022.0,1023.0,1022.0,1023.0,1024.0,1023.0,1023.0,1020.0,1022.0,1023.0,1024.0,1024.0,1024.0,1024.0,1024.0,1024.0,1023.0,1023.0,1023.0,1023.0,1024.0,1024.0,1024.0,1023.0,1023.0,1024.0,1024.0,1024.0,1025.0,1024.0,1025.0,1023.0,1024.0,1024.0,1024.0,1025.0,1024.0,1025.0,1023.0,1024.0,1024.0,1024.0,1025.0,1025.0,1023.0,1024.0,1024.0,1025.0,1027.0,1026.0,1023.0,1025.0,1025.0,1028.0,1029.0,1027.0,1024.0,1027.0,1028.0,1031.0,1034.0,1030.0,1025.0,1028.0,1030.0,1031.0,1039.0,1032.0,1025.0,1029.0,1031.0,1030.0,1040.0,1034.0,1027.0,1031.0,1033.0,1030.0,1043.0,1036.0,1028.0,1034.0,1034.0,1031.0,1045.0,1035.0,1027.0,1032.0,1032.0,1029.0,1040.0,1033.0,1030.0,1035.0,1033.0,1030.0,1040.0,1033.0,1022.0,1023.0,1022.0,1023.0,1024.0,1023.0,1035.0,1046.0,1036.0,1034.0,1048.0,1039.0,1031.0,1043.0,1037.0,1038.0,1050.0,1039.0,1028.0,1038.0,1032.0,1032.0,1040.0,1931,1991,1908,	00:32:46.172,0.0546875,0.04052734375,1.01806640625,-0.3662109375,0.42724609375,0.1220703125,2.2576904296875,-3.076171875,56.8597412109375,456.0,-1589.0,-2580.0,0.878662109375,0.03009033203125,-0.014190673828125,0.476287841796875,2.2594740546079453,-3.0743245301682527,52.252124892378916,0.8970969085628782,0.02950568259665529,-0.015400903869180794,0.4405784419390544,1,	00:32:46.173,0.00341796875,0.08544921875,1.00439453125,-1.40380859375,-1.15966796875,-0.6103515625,4.8394775390625,-0.2252197265625,76.6845703125,-361.0,-1317.0,-1944.0,-0.7835693359375,-0.034332275390625,-0.024627685546875,-0.619873046875,4.838183591293012,-0.22572889123528053,78.04242555583312,-0.7761666900896863,-0.034031453694034916,-0.02504576540086581,-0.6291103551764,1
1782117473.403067,0.310,1022.0,1023.0,1023.0,1023.0,1023.0,1022.0,1023.0,1024.0,1023.0,1022.0,1023.0,1024.0,1023.0,1024.0,1024.0,1023.0,1023.0,1024.0,1023.0,1023.0,1024.0,1024.0,1023.0,1023.0,1023.0,1023.0,1023.0,1023.0,1024.0,1024.0,1024.0,1023.0,1022.0,1023.0,1023.0,1024.0,1023.0,1024.0,1024.0,1023.0,1023.0,1023.0,1022.0,1023.0,1023.0,1023.0,1024.0,1024.0,1024.0,1023.0,1023.0,1023.0,1023.0,1023.0,1023.0,1023.0,1024.0,1024.0,1023.0,1023.0,1022.0,1023.0,1023.0,1023.0,1022.0,1023.0,1023.0,1024.0,1023.0,1022.0,1022.0,1023.0,1023.0,1024.0,1023.0,1023.0,1024.0,1024.0,1023.0,1022.0,1023.0,1023.0,1022.0,1024.0,1024.0,1023.0,1024.0,1024.0,1023.0,1022.0,1023.0,1023.0,1023.0,1023.0,1024.0,1024.0,1024.0,1024.0,1024.0,1024.0,1022.0,1023.0,1023.0,1023.0,1024.0,1024.0,1024.0,1025.0,1024.0,1024.0,1022.0,1023.0,1022.0,1023.0,1023.0,1023.0,1023.0,1023.0,1023.0,1021.0,1022.0,1023.0,1023.0,1024.0,1023.0,1024.0,1024.0,1024.0,1023.0,1023.0,1023.0,1023.0,1024.0,1024.0,1024.0,1024.0,1023.0,1024.0,1024.0,1025.0,1025.0,1025.0,1025.0,1023.0,1023.0,1024.0,1025.0,1025.0,1025.0,1025.0,1023.0,1024.0,1024.0,1024.0,1026.0,1025.0,1024.0,1024.0,1024.0,1026.0,1026.0,1026.0,1024.0,1025.0,1026.0,1028.0,1029.0,1027.0,1025.0,1026.0,1028.0,1031.0,1034.0,1030.0,1025.0,1028.0,1031.0,1032.0,1039.0,1032.0,1026.0,1029.0,1030.0,1030.0,1040.0,1033.0,1027.0,1031.0,1033.0,1031.0,1044.0,1036.0,1028.0,1034.0,1034.0,1031.0,1044.0,1035.0,1028.0,1032.0,1032.0,1029.0,1040.0,1034.0,1030.0,1035.0,1033.0,1030.0,1039.0,1033.0,1022.0,1024.0,1022.0,1023.0,1024.0,1022.0,1035.0,1047.0,1036.0,1034.0,1048.0,1039.0,1031.0,1044.0,1037.0,1037.0,1050.0,1038.0,1028.0,1038.0,1031.0,1032.0,1040.0,1930,1991,1908,	00:32:46.182,0.0556640625,0.0400390625,1.017578125,-0.3662109375,0.42724609375,0.06103515625,2.2467041015625,-3.1585693359375,56.865234375,456.0,-1589.0,-2574.0,0.878631591796875,0.030364990234375,-0.014923095703125,0.476318359375,2.2454001820120424,-3.161052942779367,52.253471101859525,0.8970703401858672,0.029728419321470967,-0.01613398009095965,0.4405913305205671,1,	00:32:46.183,0.00341796875,0.08642578125,1.0048828125,-1.40380859375,-1.15966796875,-0.6103515625,4.910888671875,-0.2032470703125,76.6790771484375,-361.0,-1320.0,-1941.0,-0.7835693359375,-0.03466796875,-0.025177001953125,-0.61981201171875,4.9088207041495,-0.2022865088742782,78.03504704654826,-0.7761918823154236,-0.03438287368255336,-0.02559014609933581,-0.6290382534056128,1
1782117473.411479,0.319,1023.0,1023.0,1024.0,1022.0,1023.0,1022.0,1024.0,1024.0,1023.0,1023.0,1024.0,1023.0,1023.0,1024.0,1024.0,1023.0,1023.0,1023.0,1023.0,1023.0,1024.0,1024.0,1023.0,1023.0,1023.0,1023.0,1023.0,1024.0,1024.0,1024.0,1023.0,1023.0,1022.0,1023.0,1023.0,1024.0,1023.0,1024.0,1024.0,1024.0,1023.0,1023.0,1023.0,1023.0,1023.0,1023.0,1024.0,1024.0,1023.0,1022.0,1022.0,1023.0,1023.0,1023.0,1023.0,1023.0,1024.0,1024.0,1023.0,1022.0,1022.0,1023.0,1022.0,1023.0,1023.0,1024.0,1024.0,1024.0,1023.0,1022.0,1022.0,1023.0,1022.0,1023.0,1023.0,1022.0,1023.0,1024.0,1023.0,1022.0,1022.0,1023.0,1023.0,1023.0,1023.0,1023.0,1024.0,1024.0,1023.0,1023.0,1022.0,1023.0,1024.0,1024.0,1024.0,1023.0,1024.0,1024.0,1024.0,1024.0,1023.0,1023.0,1023.0,1023.0,1024.0,1024.0,1024.0,1024.0,1024.0,1024.0,1023.0,1024.0,1022.0,1023.0,1022.0,1023.0,1023.0,1023.0,1023.0,1021.0,1022.0,1023.0,1024.0,1023.0,1024.0,1024.0,1024.0,1024.0,1023.0,1023.0,1023.0,1023.0,1023.0,1024.0,1024.0,1024.0,1023.0,1024.0,1024.0,1024.0,1025.0,1024.0,1025.0,1023.0,1024.0,1024.0,1024.0,1025.0,1024.0,1025.0,1023.0,1024.0,1024.0,1024.0,1025.0,1025.0,1023.0,1024.0,1024.0,1025.0,1027.0,1026.0,1024.0,1025.0,1025.0,1028.0,1028.0,1028.0,1024.0,1027.0,1028.0,1031.0,1034.0,1030.0,1024.0,1028.0,1031.0,1032.0,1039.0,1031.0,1025.0,1028.0,1031.0,1031.0,1040.0,1033.0,1027.0,1031.0,1033.0,1031.0,1043.0,1036.0,1028.0,1033.0,1035.0,1032.0,1044.0,1035.0,1028.0,1032.0,1031.0,1029.0,1040.0,1033.0,1030.0,1034.0,1032.0,1030.0,1039.0,1033.0,1022.0,1023.0,1022.0,1023.0,1025.0,1023.0,1034.0,1046.0,1036.0,1034.0,1048.0,1038.0,1031.0,1042.0,1037.0,1037.0,1049.0,1038.0,1027.0,1038.0,1031.0,1032.0,1040.0,1930,1991,1908,	00:32:46.193,0.0556640625,0.04052734375,1.01708984375,-0.30517578125,0.42724609375,0.06103515625,2.3126220703125,-3.09814453125,56.8597412109375,454.0,-1591.0,-2574.0,0.878631591796875,0.030609130859375,-0.01416015625,0.476287841796875,2.312240361072063,-3.097415344481628,52.25043022367284,0.897083082459322,0.03000712471372379,-0.015379334413698709,0.44057348048275413,1,	00:32:46.194,0.00244140625,0.0859375,1.00244140625,-1.40380859375,-1.15966796875,-0.54931640625,4.8834228515625,-0.120849609375,76.673583984375,-360.0,-1316.0,-1940.0,-0.78363037109375,-0.0340576171875,-0.02557373046875,-0.6197509765625,4.881977945856066,-0.12261015382386288,78.02860820274654,-0.7762546668077291,-0.03376520572885988,-0.025980654850466404,-0.6289782259465349,1
1782117473.421800,0.329,1023.0,1023.0,1023.0,1023.0,1023.0,1023.0,1023.0,1024.0,1023.0,1023.0,1023.0,1023.0,1023.0,1024.0,1023.0,1023.0,1023.0,1023.0,1023.0,1023.0,1024.0,1024.0,1023.0,1023.0,1023.0,1023.0,1023.0,1023.0,1024.0,1024.0,1023.0,1023.0,1022.0,1023.0,1023.0,1023.0,1024.0,1024.0,1024.0,1024.0,1023.0,1022.0,1023.0,1023.0,1023.0,1023.0,1024.0,1023.0,1023.0,1022.0,1022.0,1023.0,1023.0,1023.0,1023.0,1023.0,1024.0,1024.0,1023.0,1023.0,1022.0,1023.0,1022.0,1023.0,1023.0,1023.0,1024.0,1024.0,1023.0,1022.0,1022.0,1023.0,1022.0,1023.0,1023.0,1023.0,1024.0,1024.0,1023.0,1022.0,1022.0,1023.0,1023.0,1023.0,1023.0,1023.0,1024.0,1024.0,1024.0,1023.0,1022.0,1023.0,1023.0,1024.0,1024.0,1024.0,1024.0,1024.0,1024.0,1024.0,1022.0,1023.0,1022.0,1023.0,1024.0,1024.0,1025.0,1025.0,1024.0,1024.0,1023.0,1023.0,1022.0,1023.0,1023.0,1023.0,1024.0,1024.0,1023.0,1021.0,1022.0,1023.0,1023.0,1024.0,1023.0,1024.0,1024.0,1024.0,1023.0,1023.0,1024.0,1023.0,1023.0,1024.0,1024.0,1023.0,1024.0,1024.0,1024.0,1025.0,1025.0,1025.0,1025.0,1023.0,1023.0,1024.0,1024.0,1025.0,1025.0,1025.0,1022.0,1024.0,1024.0,1024.0,1026.0,1025.0,1023.0,1024.0,1024.0,1025.0,1026.0,1026.0,1024.0,1025.0,1025.0,1028.0,1029.0,1028.0,1024.0,1026.0,1028.0,1031.0,1034.0,1030.0,1025.0,1027.0,1030.0,1032.0,1039.0,1032.0,1025.0,1028.0,1030.0,1030.0,1039.0,1033.0,1026.0,1031.0,1034.0,1031.0,1043.0,1037.0,1028.0,1033.0,1035.0,1031.0,1044.0,1036.0,1027.0,1032.0,1032.0,1029.0,1040.0,1034.0,1030.0,1034.0,1032.0,1029.0,1039.0,1034.0,1022.0,1023.0,1022.0,1023.0,1024.0,1023.0,1035.0,1046.0,1036.0,1035.0,1048.0,1040.0,1032.0,1043.0,1037.0,1038.0,1049.0,1039.0,1027.0,1037.0,1031.0,1033.0,1039.0,1930,1991,1908,	00:32:46.203,0.0556640625,0.04052734375,1.01806640625,-0.30517578125,0.3662109375,0.06103515625,2.2412109375,-3.153076171875,56.865234375,456.0,-1585.0,-2578.0,0.878631591796875,0.030303955078125,-0.014892578125,0.476318359375,2.241337205263434,-3.1555783499437338,52.25488891992342,0.8970675354085317,0.02967580900830135,-0.016106354432138186,0.44060159852487124,1,	00:32:46.204,0.00341796875,0.08544921875,1.001953125,-1.40380859375,-1.15966796875,-0.54931640625,4.85595703125,-0.2252197265625,76.6680908203125,-360.0,-1319.0,-1940.0,-0.783660888671875,-0.034454345703125,-0.024749755859375,-0.6197509765625,4.8585582009211885,-0.22488702666529364,78.02218900858252,-0.7762719204178087,-0.03416927952209049,-0.025157291239748768,-0.6289685815724557,1
1782117473.431608,0.339,1023.0,1023.0,1024.0,1023.0,1023.0,1023.0,1023.0,1024.0,1023.0,1023.0,1024.0,1023.0,1023.0,1023.0,1023.0,1023.0,1023.0,1023.0,1023.0,1023.0,1024.0,1023.0,1023.0,1023.0,1023.0,1023.0,1024.0,1023.0,1024.0,1024.0,1024.0,1023.0,1023.0,1022.0,1023.0,1024.0,1023.0,1024.0,1024.0,1024.0,1023.0,1023.0,1022.0,1023.0,1023.0,1024.0,1024.0,1023.0,1024.0,1022.0,1023.0,1023.0,1023.0,1023.0,1024.0,1024.0,1024.0,1024.0,1024.0,1022.0,1022.0,1023.0,1023.0,1023.0,1023.0,1023.0,1024.0,1024.0,1023.0,1022.0,1022.0,1023.0,1022.0,1023.0,1023.0,1023.0,1023.0,1023.0,1023.0,1022.0,1022.0,1023.0,1022.0,1023.0,1023.0,1023.0,1024.0,1023.0,1023.0,1023.0,1023.0,1023.0,1023.0,1023.0,1024.0,1023.0,1024.0,1024.0,1024.0,1023.0,1022.0,1023.0,1022.0,1024.0,1024.0,1024.0,1024.0,1024.0,1024.0,1023.0,1023.0,1023.0,1022.0,1023.0,1023.0,1023.0,1024.0,1023.0,1023.0,1021.0,1022.0,1023.0,1024.0,1024.0,1024.0,1024.0,1024.0,1024.0,1023.0,1023.0,1023.0,1023.0,1024.0,1024.0,1024.0,1024.0,1023.0,1024.0,1024.0,1025.0,1025.0,1025.0,1024.0,1023.0,1024.0,1024.0,1024.0,1025.0,1025.0,1025.0,1023.0,1024.0,1024.0,1024.0,1026.0,1026.0,1023.0,1024.0,1024.0,1026.0,1026.0,1026.0,1024.0,1025.0,1025.0,1027.0,1029.0,1027.0,1024.0,1026.0,1028.0,1031.0,1034.0,1030.0,1025.0,1027.0,1031.0,1032.0,1039.0,1031.0,1025.0,1028.0,1030.0,1031.0,1040.0,1032.0,1027.0,1031.0,1033.0,1031.0,1044.0,1036.0,1028.0,1033.0,1035.0,1031.0,1044.0,1035.0,1028.0,1032.0,1032.0,1029.0,1040.0,1033.0,1030.0,1034.0,1033.0,1030.0,1039.0,1033.0,1022.0,1023.0,1022.0,1022.0,1024.0,1023.0,1034.0,1045.0,1038.0,1034.0,1047.0,1039.0,1032.0,1043.0,1038.0,1038.0,1049.0,1038.0,1028.0,1037.0,1031.0,1033.0,1039.0,1930,1991,1908,	00:32:46.213,0.05517578125,0.041015625,1.017578125,-0.30517578125,0.30517578125,0.06103515625,2.30712890625,-3.0926513671875,56.8597412109375,456.0,-1589.0,-2579.0,0.878631591796875,0.03057861328125,-0.01416015625,0.476318359375,2.3094083129514646,-3.094632726616528,52.25173807123621,0.8970795996711148,0.029974454677670567,-0.015368085296975711,0.44058318837081534,1,	00:32:46.214,0.001953125,0.08544921875,1.00390625,-1.40380859375,-1.220703125,-0.54931640625,4.8504638671875,-0.142822265625,76.66259765625,-360.0,-1318.0,-1942.0,-0.783721923828125,-0.033966064453125,-0.025238037109375,-0.61968994140625,4.849803961220098,-0.1450635009059769,78.0156549106241,-0.7763298155016914,-0.03367338457388135,-0.025648134029112517,-0.6289040419295093,1
1782117473.442039,0.349,1023.0,1023.0,1023.0,1023.0,1023.0,1023.0,1023.0,1024.0,1023.0,1023.0,1023.0,1023.0,1023.0,1024.0,1023.0,1022.0,1023.0,1023.0,1023.0,1023.0,1024.0,1024.0,1023.0,1023.0,1023.0,1023.0,1023.0,1024.0,1024.0,1024.0,1023.0,1023.0,1022.0,1022.0,1023.0,1024.0,1023.0,1024.0,1024.0,1023.0,1023.0,1023.0,1022.0,1023.0,1024.0,1023.0,1024.0,1024.0,1024.0,1022.0,1022.0,1024.0,1024.0,1023.0,1023.0,1023.0,1024.0,1024.0,1024.0,1022.0,1022.0,1023.0,1022.0,1023.0,1023.0,1023.0,1024.0,1024.0,1024.0,1022.0,1022.0,1023.0,1022.0,1023.0,1024.0,1023.0,1024.0,1023.0,1023.0,1022.0,1022.0,1024.0,1023.0,1023.0,1024.0,1024.0,1024.0,1024.0,1023.0,1022.0,1022.0,1023.0,1023.0,1024.0,1024.0,1024.0,1024.0,1024.0,1024.0,1023.0,1023.0,1024.0,1023.0,1024.0,1024.0,1024.0,1025.0,1025.0,1025.0,1023.0,1023.0,1023.0,1022.0,1023.0,1023.0,1024.0,1024.0,1023.0,1023.0,1021.0,1022.0,1023.0,1022.0,1023.0,1024.0,1024.0,1024.0,1024.0,1023.0,1023.0,1023.0,1023.0,1024.0,1024.0,1024.0,1024.0,1023.0,1024.0,1024.0,1024.0,1025.0,1025.0,1025.0,1023.0,1023.0,1024.0,1024.0,1025.0,1024.0,1026.0,1024.0,1024.0,1024.0,1025.0,1025.0,1025.0,1023.0,1024.0,1024.0,1025.0,1026.0,1026.0,1024.0,1025.0,1025.0,1027.0,1029.0,1028.0,1024.0,1026.0,1028.0,1032.0,1034.0,1030.0,1025.0,1027.0,1031.0,1032.0,1038.0,1031.0,1025.0,1028.0,1031.0,1030.0,1039.0,1033.0,1026.0,1031.0,1034.0,1031.0,1044.0,1036.0,1028.0,1033.0,1035.0,1031.0,1044.0,1036.0,1027.0,1031.0,1032.0,1029.0,1040.0,1034.0,1030.0,1033.0,1033.0,1029.0,1039.0,1033.0,1021.0,1023.0,1023.0,1023.0,1024.0,1023.0,1035.0,1046.0,1037.0,1034.0,1048.0,1039.0,1032.0,1042.0,1037.0,1038.0,1049.0,1039.0,1028.0,1036.0,1031.0,1032.0,1040.0,1930,1991,1909,	00:32:46.224,0.05517578125,0.0400390625,1.01806640625,-0.3662109375,0.30517578125,0.06103515625,2.2137451171875,-3.09814453125,56.865234375,457.0,-1590.0,-2577.0,0.878631591796875,0.029876708984375,-0.01458740234375,0.476348876953125,2.2143283569471555,-3.099878661364889,52.25740941164569,0.8970808558650387,0.029251018171785024,-0.015773286935001636,0.44061493324174733,1,	00:32:46.225,0.00244140625,0.0859375,1.00439453125,-1.46484375,-1.28173828125,-0.48828125,4.9273681640625,-0.142822265625,76.651611328125,-361.0,-1318.0,-1944.0,-0.783721923828125,-0.03448486328125,-0.025665283203125,-0.61962890625,4.925443005561778,-0.14340788813421038,78.00947886280535,-0.7763417177481781,-0.03417813360320413,-0.0260726273643004,-0.6288446633068713,1
1782117473.451732,0.359,1023.0,1024.0,1023.0,1022.0,1023.0,1023.0,1023.0,1024.0,1023.0,1023.0,1023.0,1023.0,1023.0,1024.0,1023.0,1023.0,1023.0,1023.0,1023.0,1023.0,1024.0,1024.0,1024.0,1023.0,1023.0,1023.0,1023.0,1024.0,1024.0,1024.0,1023.0,1023.0,1023.0,1023.0,1023.0,1023.0,1023.0,1024.0,1024.0,1023.0,1023.0,1023.0,1023.0,1023.0,1023.0,1024.0,1024.0,1024.0,1023.0,1022.0,1023.0,1023.0,1022.0,1024.0,1023.0,1023.0,1024.0,1023.0,1023.0,1022.0,1022.0,1023.0,1023.0,1023.0,1023.0,1023.0,1024.0,1024.0,1023.0,1022.0,1022.0,1023.0,1022.0,1023.0,1023.0,1023.0,1024.0,1023.0,1023.0,1022.0,1022.0,1023.0,1023.0,1024.0,1023.0,1023.0,1024.0,1024.0,1023.0,1022.0,1022.0,1023.0,1023.0,1023.0,1024.0,1024.0,1024.0,1024.0,1024.0,1024.0,1022.0,1023.0,1023.0,1023.0,1024.0,1024.0,1025.0,1024.0,1024.0,1023.0,1023.0,1023.0,1022.0,1023.0,1023.0,1023.0,1024.0,1023.0,1023.0,1021.0,1022.0,1023.0,1023.0,1024.0,1024.0,1024.0,1024.0,1024.0,1023.0,1023.0,1023.0,1023.0,1024.0,1024.0,1024.0,1024.0,1023.0,1024.0,1024.0,1024.0,1025.0,1025.0,1025.0,1023.0,1024.0,1024.0,1024.0,1025.0,1024.0,1026.0,1023.0,1024.0,1024.0,1024.0,1025.0,1025.0,1023.0,1024.0,1025.0,1026.0,1027.0,1025.0,1024.0,1025.0,1025.0,1028.0,1029.0,1027.0,1024.0,1026.0,1028.0,1031.0,1034.0,1030.0,1025.0,1027.0,1031.0,1032.0,1039.0,1031.0,1025.0,1028.0,1030.0,1030.0,1039.0,1033.0,1027.0,1030.0,1033.0,1032.0,1044.0,1036.0,1028.0,1033.0,1035.0,1031.0,1044.0,1035.0,1028.0,1031.0,1032.0,1029.0,1040.0,1033.0,1030.0,1034.0,1033.0,1029.0,1039.0,1033.0,1022.0,1023.0,1022.0,1023.0,1024.0,1022.0,1035.0,1045.0,1037.0,1034.0,1047.0,1039.0,1032.0,1042.0,1038.0,1038.0,1049.0,1039.0,1027.0,1037.0,1032.0,1032.0,1038.0,1930,1992,1908,	00:32:46.234,0.0556640625,0.0400390625,1.01708984375,-0.30517578125,0.30517578125,0.06103515625,2.28515625,-3.153076171875,56.865234375,456.0,-1588.0,-2577.0,0.87860107421875,0.030609130859375,-0.01470947265625,0.476318359375,2.2842486801532247,-3.1521216666216305,52.254158206813486,0.8970601791330348,0.029998371919298234,-0.015914476559177604,0.44060170464019555,1,	00:32:46.235,0.00244140625,0.08544921875,1.00341796875,-1.52587890625,-1.3427734375,-0.54931640625,4.8175048828125,-0.1483154296875,76.6461181640625,-360.0,-1318.0,-1941.0,-0.783782958984375,-0.033782958984375,-0.025054931640625,-0.619598388671875,4.819130332702943,-0.14924556180468826,78.00308597004816,-0.776406776519848,-0.033491317756581325,-0.02544778083262012,-0.6288268914889705,1
1782117473.462182,0.369,1023.0,1023.0,1024.0,1023.0,1023.0,1023.0,1023.0,1024.0,1023.0,1023.0,1024.0,1023.0,1023.0,1024.0,1023.0,1024.0,1023.0,1023.0,1023.0,1023.0,1024.0,1023.0,1023.0,1023.0,1023.0,1023.0,1023.0,1023.0,1024.0,1024.0,1024.0,1023.0,1022.0,1023.0,1023.0,1023.0,1024.0,1024.0,1024.0,1024.0,1023.0,1022.0,1023.0,1023.0,1023.0,1024.0,1024.0,1024.0,1023.0,1023.0,1022.0,1023.0,1023.0,1023.0,1023.0,1023.0,1024.0,1024.0,1024.0,1022.0,1023.0,1023.0,1023.0,1023.0,1022.0,1023.0,1024.0,1024.0,1024.0,1022.0,1022.0,1024.0,1023.0,1023.0,1023.0,1023.0,1023.0,1024.0,1023.0,1022.0,1022.0,1023.0,1023.0,1023.0,1024.0,1024.0,1024.0,1024.0,1023.0,1022.0,1022.0,1023.0,1023.0,1024.0,1023.0,1024.0,1024.0,1024.0,1024.0,1024.0,1022.0,1023.0,1023.0,1024.0,1024.0,1024.0,1024.0,1025.0,1024.0,1024.0,1023.0,1023.0,1022.0,1023.0,1023.0,1023.0,1024.0,1023.0,1023.0,1020.0,1022.0,1023.0,1023.0,1024.0,1024.0,1024.0,1024.0,1024.0,1023.0,1023.0,1023.0,1023.0,1023.0,1024.0,1024.0,1024.0,1023.0,1024.0,1024.0,1024.0,1025.0,1024.0,1025.0,1022.0,1024.0,1024.0,1024.0,1025.0,1024.0,1025.0,1023.0,1024.0,1023.0,1024.0,1026.0,1025.0,1023.0,1024.0,1024.0,1026.0,1027.0,1025.0,1024.0,1025.0,1025.0,1028.0,1029.0,1028.0,1024.0,1027.0,1029.0,1031.0,1034.0,1030.0,1025.0,1027.0,1031.0,1032.0,1039.0,1031.0,1025.0,1028.0,1031.0,1030.0,1040.0,1032.0,1027.0,1031.0,1033.0,1032.0,1044.0,1036.0,1028.0,1033.0,1034.0,1031.0,1044.0,1034.0,1027.0,1031.0,1032.0,1029.0,1040.0,1033.0,1030.0,1034.0,1032.0,1029.0,1039.0,1033.0,1022.0,1023.0,1022.0,1023.0,1024.0,1022.0,1034.0,1045.0,1037.0,1034.0,1048.0,1039.0,1032.0,1043.0,1037.0,1038.0,1049.0,1038.0,1028.0,1037.0,1032.0,1032.0,1039.0,1930,1992,1909,	00:32:46.244,0.0556640625,0.041015625,1.017578125,-0.244140625,0.30517578125,0.06103515625,2.3455810546875,-3.087158203125,56.8597412109375,455.0,-1589.0,-2577.0,0.878631591796875,0.03082275390625,-0.013916015625,0.476318359375,2.3471418376814728,-3.084738165668396,52.25133297092244,0.8970741063998101,0.030231838723353773,-0.015145612180643857,0.4405844913135968,1,	00:32:46.245,0.00341796875,0.08447265625,1.0048828125,-1.46484375,-1.40380859375,-0.54931640625,4.779052734375,-0.252685546875,76.640625,-360.0,-1317.0,-1941.0,-0.7838134765625,-0.0340576171875,-0.024139404296875,-0.619598388671875,4.777219131596674,-0.25027102296679055,77.99654074371287,-0.7764305747812269,-0.0337630535237069,-0.024531289531522303,-0.6288193974390178,1
1782117473.474585,0.382,1023.0,1023.0,1024.0,1023.0,1023.0,1023.0,1024.0,1024.0,1023.0,1022.0,1023.0,1023.0,1024.0,1024.0,1023.0,1023.0,1022.0,1023.0,1023.0,1023.0,1023.0,1024.0,1023.0,1022.0,1023.0,1023.0,1023.0,1024.0,1024.0,1024.0,1024.0,1023.0,1022.0,1023.0,1024.0,1023.0,1024.0,1024.0,1023.0,1024.0,1024.0,1023.0,1023.0,1023.0,1023.0,1023.0,1024.0,1024.0,1024.0,1023.0,1022.0,1023.0,1023.0,1023.0,1023.0,1023.0,1024.0,1024.0,1023.0,1022.0,1022.0,1023.0,1022.0,1023.0,1023.0,1023.0,1024.0,1024.0,1023.0,1022.0,1022.0,1023.0,1022.0,1023.0,1023.0,1023.0,1024.0,1024.0,1023.0,1022.0,1023.0,1023.0,1023.0,1023.0,1023.0,1024.0,1024.0,1024.0,1023.0,1022.0,1023.0,1023.0,1023.0,1023.0,1024.0,1024.0,1024.0,1024.0,1023.0,1023.0,1022.0,1023.0,1023.0,1024.0,1024.0,1024.0,1024.0,1024.0,1024.0,1024.0,1023.0,1023.0,1022.0,1023.0,1023.0,1023.0,1024.0,1023.0,1023.0,1022.0,1022.0,1023.0,1023.0,1024.0,1024.0,1024.0,1024.0,1023.0,1023.0,1023.0,1024.0,1023.0,1024.0,1024.0,1024.0,1024.0,1023.0,1024.0,1024.0,1024.0,1026.0,1024.0,1025.0,1023.0,1024.0,1024.0,1025.0,1025.0,1024.0,1025.0,1023.0,1023.0,1024.0,1024.0,1025.0,1025.0,1023.0,1024.0,1025.0,1026.0,1026.0,1025.0,1024.0,1025.0,1025.0,1028.0,1029.0,1027.0,1024.0,1026.0,1028.0,1032.0,1034.0,1030.0,1025.0,1028.0,1031.0,1032.0,1039.0,1031.0,1025.0,1028.0,1030.0,1030.0,1040.0,1033.0,1027.0,1030.0,1033.0,1031.0,1044.0,1035.0,1028.0,1033.0,1035.0,1031.0,1044.0,1035.0,1027.0,1031.0,1032.0,1029.0,1040.0,1034.0,1030.0,1034.0,1033.0,1029.0,1040.0,1033.0,1022.0,1023.0,1023.0,1023.0,1024.0,1023.0,1035.0,1045.0,1037.0,1034.0,1047.0,1039.0,1032.0,1042.0,1038.0,1037.0,1048.0,1038.0,1028.0,1037.0,1033.0,1032.0,1039.0,1930,1992,1909,	00:32:46.254,0.05419921875,0.0400390625,1.01708984375,-0.244140625,0.244140625,0.06103515625,2.2576904296875,-3.0487060546875,56.865234375,456.0,-1588.0,-2576.0,0.878631591796875,0.029998779296875,-0.014007568359375,0.476348876953125,2.2594713289629835,-3.0485603052780648,52.256600575493124,0.8970870432969272,0.02940741008738065,-0.015197961627303582,0.4406121457053864,1,	00:32:46.255,0.001953125,0.0859375,1.00390625,-1.52587890625,-1.40380859375,-0.54931640625,4.822998046875,-0.1922607421875,76.6351318359375,-361.0,-1318.0,-1942.0,-0.783843994140625,-0.034027099609375,-0.024749755859375,-0.6195068359375,4.820463540146668,-0.19335123305519078,77.98966381432614,-0.7764694041475911,-0.03374529383480009,-0.025152281414188456,-0.628747868629667,1
1782117473.482914,0.390,1023.0,1023.0,1023.0,1022.0,1023.0,1023.0,1023.0,1024.0,1023.0,1022.0,1023.0,1023.0,1023.0,1024.0,1023.0,1023.0,1022.0,1023.0,1023.0,1023.0,1024.0,1024.0,1023.0,1023.0,1023.0,1023.0,1024.0,1023.0,1024.0,1024.0,1023.0,1023.0,1022.0,1023.0,1023.0,1023.0,1023.0,1024.0,1024.0,1023.0,1023.0,1023.0,1022.0,1023.0,1023.0,1024.0,1024.0,1024.0,1023.0,1022.0,1023.0,1023.0,1023.0,1023.0,1024.0,1023.0,1024.0,1023.0,1023.0,1022.0,1022.0,1023.0,1022.0,1023.0,1022.0,1023.0,1024.0,1023.0,1023.0,1022.0,1022.0,1023.0,1023.0,1023.0,1023.0,1023.0,1024.0,1024.0,1023.0,1022.0,1022.0,1023.0,1023.0,1023.0,1023.0,1024.0,1024.0,1024.0,1024.0,1022.0,1022.0,1023.0,1023.0,1023.0,1024.0,1024.0,1024.0,1024.0,1024.0,1024.0,1023.0,1023.0,1023.0,1024.0,1024.0,1024.0,1025.0,1024.0,1024.0,1024.0,1022.0,1023.0,1022.0,1023.0,1022.0,1023.0,1024.0,1024.0,1023.0,1021.0,1022.0,1023.0,1023.0,1024.0,1024.0,1024.0,1024.0,1023.0,1023.0,1023.0,1023.0,1023.0,1024.0,1024.0,1024.0,1024.0,1024.0,1024.0,1024.0,1024.0,1025.0,1024.0,1025.0,1023.0,1024.0,1024.0,1024.0,1025.0,1024.0,1025.0,1023.0,1024.0,1024.0,1024.0,1026.0,1025.0,1023.0,1024.0,1024.0,1026.0,1026.0,1026.0,1024.0,1025.0,1026.0,1028.0,1028.0,1027.0,1025.0,1026.0,1028.0,1032.0,1034.0,1030.0,1025.0,1027.0,1031.0,1032.0,1040.0,1031.0,1025.0,1028.0,1031.0,1030.0,1040.0,1033.0,1027.0,1031.0,1034.0,1031.0,1044.0,1035.0,1028.0,1032.0,1034.0,1032.0,1045.0,1035.0,1028.0,1031.0,1032.0,1029.0,1040.0,1034.0,1030.0,1033.0,1033.0,1030.0,1039.0,1033.0,1023.0,1023.0,1022.0,1023.0,1024.0,1023.0,1035.0,1044.0,1037.0,1035.0,1047.0,1039.0,1032.0,1042.0,1038.0,1037.0,1048.0,1038.0,1028.0,1037.0,1032.0,1032.0,1039.0,1930,1992,1909,	00:32:46.264,0.05517578125,0.04052734375,1.01806640625,-0.18310546875,0.244140625,0.06103515625,2.2906494140625,-3.131103515625,56.865234375,456.0,-1588.0,-2574.0,0.87860107421875,0.03057861328125,-0.014495849609375,0.476348876953125,2.2911359479023616,-3.1312787593939557,52.25550147230352,0.8970592861416635,0.029972510435540282,-0.015724390702744978,0.44061210753022656,1,	00:32:46.265,0.00244140625,0.08544921875,1.00390625,-1.46484375,-1.40380859375,-0.54931640625,4.8614501953125,-0.1373291015625,76.629638671875,-361.0,-1318.0,-1943.0,-0.783905029296875,-0.034027099609375,-0.025390625,-0.61944580078125,4.863837237144819,-0.1360402383985894,77.98283660669665,-0.7765079446708829,-0.033726325023649514,-0.025776628953567162,-0.6286759994330865,1
1782117473.493332,0.401,1023.0,1023.0,1023.0,1023.0,1022.0,1023.0,1023.0,1024.0,1023.0,1023.0,1023.0,1023.0,1023.0,1024.0,1024.0,1023.0,1022.0,1023.0,1023.0,1023.0,1024.0,1024.0,1023.0,1023.0,1023.0,1023.0,1023.0,1023.0,1024.0,1024.0,1023.0,1023.0,1022.0,1023.0,1023.0,1024.0,1024.0,1024.0,1024.0,1023.0,1023.0,1022.0,1023.0,1024.0,1024.0,1024.0,1024.0,1023.0,1023.0,1023.0,1023.0,1023.0,1023.0,1023.0,1024.0,1023.0,1024.0,1024.0,1023.0,1023.0,1022.0,1024.0,1023.0,1023.0,1023.0,1024.0,1024.0,1024.0,1023.0,1022.0,1022.0,1023.0,1023.0,1023.0,1023.0,1022.0,1024.0,1023.0,1023.0,1022.0,1022.0,1023.0,1022.0,1023.0,1023.0,1024.0,1024.0,1024.0,1023.0,1022.0,1023.0,1023.0,1023.0,1023.0,1024.0,1024.0,1024.0,1024.0,1024.0,1024.0,1023.0,1024.0,1023.0,1024.0,1024.0,1024.0,1024.0,1024.0,1024.0,1023.0,1022.0,1023.0,1023.0,1023.0,1022.0,1024.0,1024.0,1023.0,1023.0,1021.0,1022.0,1022.0,1023.0,1024.0,1024.0,1024.0,1024.0,1024.0,1022.0,1023.0,1023.0,1023.0,1023.0,1024.0,1024.0,1024.0,1023.0,1024.0,1024.0,1024.0,1026.0,1024.0,1024.0,1023.0,1024.0,1024.0,1024.0,1026.0,1025.0,1025.0,1023.0,1024.0,1024.0,1025.0,1026.0,1025.0,1023.0,1024.0,1024.0,1025.0,1026.0,1026.0,1024.0,1025.0,1025.0,1028.0,1029.0,1027.0,1025.0,1026.0,1028.0,1032.0,1034.0,1030.0,1025.0,1028.0,1032.0,1032.0,1040.0,1031.0,1025.0,1029.0,1031.0,1030.0,1040.0,1032.0,1026.0,1031.0,1034.0,1031.0,1044.0,1035.0,1028.0,1033.0,1035.0,1031.0,1045.0,1035.0,1028.0,1031.0,1032.0,1029.0,1040.0,1033.0,1030.0,1034.0,1033.0,1030.0,1039.0,1033.0,1022.0,1023.0,1023.0,1023.0,1025.0,1022.0,1034.0,1045.0,1037.0,1034.0,1047.0,1039.0,1031.0,1042.0,1038.0,1037.0,1048.0,1038.0,1028.0,1037.0,1032.0,1032.0,1039.0,1929,1992,1909,	00:32:46.275,0.05517578125,0.041015625,1.017578125,-0.30517578125,0.18310546875,0.06103515625,2.3345947265625,-3.0487060546875,56.865234375,456.0,-1589.0,-2579.0,0.878631591796875,0.03057861328125,-0.013702392578125,0.476318359375,2.333207575793889,-3.049697126107175,52.25374861910836,0.8970785748735329,0.029988642864101297,-0.014924088316056693,0.4405995726166504,1,	00:32:46.276,0.00244140625,0.08447265625,1.00390625,-1.46484375,-1.40380859375,-0.54931640625,4.757080078125,-0.15380859375,76.61865234375,-361.0,-1320.0,-1941.0,-0.783966064453125,-0.033416748046875,-0.024688720703125,-0.619415283203125,4.757973768327504,-0.15430456691051364,77.97640597819013,-0.7765697314861678,-0.033110547458106106,-0.025070188450310688,-0.6286609813226774,1
1782117473.504758,0.412,1023.0,1023.0,1023.0,1022.0,1023.0,1022.0,1024.0,1024.0,1023.0,1023.0,1023.0,1023.0,1023.0,1024.0,1024.0,1023.0,1023.0,1023.0,1023.0,1023.0,1024.0,1023.0,1024.0,1023.0,1024.0,1023.0,1024.0,1023.0,1024.0,1024.0,1023.0,1022.0,1022.0,1023.0,1023.0,1024.0,1024.0,1024.0,1024.0,1024.0,1023.0,1023.0,1023.0,1024.0,1023.0,1023.0,1024.0,1024.0,1023.0,1023.0,1023.0,1024.0,1023.0,1023.0,1024.0,1023.0,1024.0,1024.0,1024.0,1023.0,1022.0,1024.0,1023.0,1023.0,1023.0,1023.0,1024.0,1023.0,1024.0,1021.0,1022.0,1023.0,1023.0,1022.0,1023.0,1023.0,1024.0,1024.0,1023.0,1022.0,1023.0,1023.0,1022.0,1023.0,1024.0,1023.0,1024.0,1024.0,1024.0,1023.0,1023.0,1023.0,1022.0,1023.0,1023.0,1024.0,1024.0,1024.0,1024.0,1023.0,1023.0,1023.0,1023.0,1024.0,1024.0,1024.0,1024.0,1024.0,1024.0,1024.0,1022.0,1023.0,1022.0,1023.0,1022.0,1023.0,1024.0,1023.0,1023.0,1021.0,1022.0,1023.0,1023.0,1024.0,1024.0,1024.0,1024.0,1024.0,1023.0,1023.0,1023.0,1024.0,1024.0,1024.0,1024.0,1023.0,1024.0,1024.0,1024.0,1024.0,1026.0,1025.0,1025.0,1022.0,1023.0,1024.0,1024.0,1026.0,1024.0,1025.0,1023.0,1024.0,1024.0,1024.0,1025.0,1025.0,1024.0,1024.0,1024.0,1025.0,1027.0,1025.0,1024.0,1025.0,1025.0,1028.0,1029.0,1027.0,1024.0,1026.0,1028.0,1031.0,1034.0,1030.0,1025.0,1028.0,1031.0,1032.0,1040.0,1031.0,1025.0,1028.0,1031.0,1030.0,1040.0,1032.0,1027.0,1031.0,1034.0,1032.0,1044.0,1035.0,1029.0,1033.0,1035.0,1031.0,1044.0,1035.0,1028.0,1032.0,1033.0,1029.0,1040.0,1032.0,1030.0,1033.0,1033.0,1030.0,1039.0,1032.0,1022.0,1024.0,1023.0,1023.0,1024.0,1022.0,1034.0,1045.0,1037.0,1033.0,1047.0,1039.0,1032.0,1043.0,1038.0,1037.0,1048.0,1038.0,1027.0,1037.0,1032.0,1031.0,1039.0,1929,1992,1909,	00:32:46.285,0.05517578125,0.041015625,1.0185546875,-0.18310546875,0.18310546875,0.06103515625,2.28515625,-3.1256103515625,56.865234375,456.0,-1589.0,-2580.0,0.87860107421875,0.030517578125,-0.014495849609375,0.476348876953125,2.28645785421744,-3.1278247810320057,52.256853624093026,0.8970563133883205,0.02992282297038417,-0.015714971827633192,0.4406218729660332,1,	00:32:46.286,0.0029296875,0.0830078125,1.001953125,-1.3427734375,-1.46484375,-0.54931640625,4.6636962890625,-0.2142333984375,76.6131591796875,-360.0,-1318.0,-1944.0,-0.78399658203125,-0.0330810546875,-0.023773193359375,-0.619415283203125,4.6652383297203155,-0.21395352258327915,77.96997820364092,-0.7766175577332975,-0.03281063952550378,-0.024155298805866213,-0.628653443873407,1
1782117473.514122,0.421,1023.0,1023.0,1024.0,1022.0,1023.0,1023.0,1023.0,1024.0,1023.0,1023.0,1023.0,1023.0,1023.0,1024.0,1023.0,1023.0,1023.0,1024.0,1024.0,1023.0,1024.0,1023.0,1023.0,1023.0,1023.0,1023.0,1023.0,1023.0,1024.0,1024.0,1023.0,1023.0,1022.0,1023.0,1023.0,1023.0,1023.0,1024.0,1024.0,1024.0,1023.0,1022.0,1022.0,1023.0,1022.0,1024.0,1024.0,1024.0,1023.0,1023.0,1022.0,1023.0,1023.0,1024.0,1023.0,1024.0,1024.0,1024.0,1024.0,1023.0,1023.0,1023.0,1022.0,1023.0,1023.0,1023.0,1024.0,1023.0,1023.0,1022.0,1022.0,1023.0,1023.0,1023.0,1022.0,1023.0,1024.0,1024.0,1023.0,1022.0,1022.0,1023.0,1022.0,1023.0,1023.0,1023.0,1024.0,1024.0,1023.0,1023.0,1023.0,1023.0,1022.0,1023.0,1024.0,1023.0,1024.0,1024.0,1024.0,1024.0,1022.0,1024.0,1023.0,1024.0,1024.0,1024.0,1025.0,1024.0,1024.0,1023.0,1023.0,1024.0,1022.0,1023.0,1023.0,1023.0,1024.0,1024.0,1023.0,1021.0,1022.0,1023.0,1023.0,1023.0,1024.0,1024.0,1024.0,1024.0,1023.0,1022.0,1023.0,1023.0,1024.0,1024.0,1024.0,1024.0,1023.0,1024.0,1024.0,1025.0,1025.0,1024.0,1025.0,1023.0,1023.0,1024.0,1024.0,1025.0,1025.0,1025.0,1023.0,1024.0,1024.0,1024.0,1025.0,1025.0,1023.0,1024.0,1025.0,1026.0,1027.0,1025.0,1023.0,1025.0,1026.0,1028.0,1029.0,1027.0,1024.0,1026.0,1028.0,1032.0,1034.0,1029.0,1025.0,1027.0,1032.0,1033.0,1040.0,1030.0,1024.0,1028.0,1031.0,1031.0,1040.0,1032.0,1026.0,1030.0,1034.0,1032.0,1044.0,1035.0,1028.0,1033.0,1035.0,1031.0,1045.0,1034.0,1028.0,1032.0,1033.0,1029.0,1040.0,1033.0,1030.0,1034.0,1034.0,1030.0,1039.0,1032.0,1022.0,1023.0,1023.0,1023.0,1024.0,1022.0,1034.0,1045.0,1037.0,1034.0,1047.0,1038.0,1031.0,1043.0,1038.0,1037.0,1047.0,1037.0,1028.0,1037.0,1032.0,1032.0,1038.0,1929,1992,1909,	00:32:46.295,0.05517578125,0.0400390625,1.01708984375,-0.06103515625,0.18310546875,0.06103515625,2.2137451171875,-3.0706787109375,56.8707275390625,456.0,-1590.0,-2575.0,0.878631591796875,0.02972412109375,-0.01434326171875,0.47637939453125,2.213620602445572,-3.0696867465177946,52.26143962778648,0.8970741458380653,0.029130179563726814,-0.015538504344223922,0.44064494141001437,1,	00:32:46.296,0.001953125,0.083984375,1.00341796875,-1.220703125,-1.46484375,-0.54931640625,4.72412109375,-0.1702880859375,76.607666015625,-361.0,-1318.0,-1944.0,-0.784027099609375,-0.033233642578125,-0.024383544921875,-0.619354248046875,4.722339752727673,-0.16832429781652378,77.9630761153722,-0.7766498102545677,-0.0329488456052508,-0.024775843204510973,-0.6285822168963505,1
1782117473.522881,0.430,1023.0,1023.0,1023.0,1022.0,1023.0,1023.0,1023.0,1024.0,1023.0,1023.0,1023.0,1023.0,1023.0,1023.0,1023.0,1023.0,1022.0,1023.0,1024.0,1023.0,1024.0,1023.0,1023.0,1023.0,1023.0,1023.0,1023.0,1023.0,1024.0,1024.0,1023.0,1023.0,1023.0,1023.0,1023.0,1024.0,1024.0,1024.0,1024.0,1023.0,1023.0,1022.0,1022.0,1023.0,1024.0,1023.0,1024.0,1023.0,1023.0,1022.0,1022.0,1023.0,1023.0,1023.0,1023.0,1023.0,1024.0,1024.0,1024.0,1023.0,1022.0,1023.0,1022.0,1023.0,1023.0,1023.0,1024.0,1023.0,1023.0,1022.0,1022.0,1023.0,1023.0,1023.0,1023.0,1023.0,1024.0,1024.0,1023.0,1022.0,1022.0,1023.0,1022.0,1023.0,1023.0,1023.0,1024.0,1024.0,1023.0,1022.0,1022.0,1023.0,1023.0,1023.0,1024.0,1024.0,1024.0,1024.0,1024.0,1024.0,1022.0,1023.0,1023.0,1024.0,1025.0,1024.0,1024.0,1024.0,1024.0,1024.0,1022.0,1024.0,1022.0,1023.0,1023.0,1024.0,1023.0,1023.0,1024.0,1021.0,1022.0,1023.0,1023.0,1024.0,1024.0,1024.0,1024.0,1023.0,1023.0,1023.0,1023.0,1024.0,1024.0,1024.0,1023.0,1023.0,1023.0,1024.0,1024.0,1024.0,1025.0,1025.0,1025.0,1023.0,1024.0,1024.0,1024.0,1025.0,1024.0,1025.0,1023.0,1024.0,1024.0,1024.0,1025.0,1025.0,1024.0,1024.0,1024.0,1025.0,1027.0,1026.0,1024.0,1025.0,1026.0,1028.0,1029.0,1027.0,1024.0,1026.0,1029.0,1032.0,1034.0,1030.0,1025.0,1028.0,1032.0,1032.0,1039.0,1031.0,1025.0,1029.0,1031.0,1031.0,1039.0,1032.0,1026.0,1031.0,1034.0,1032.0,1043.0,1035.0,1028.0,1033.0,1035.0,1031.0,1045.0,1034.0,1028.0,1032.0,1032.0,1030.0,1040.0,1033.0,1030.0,1034.0,1034.0,1029.0,1039.0,1032.0,1022.0,1023.0,1022.0,1023.0,1024.0,1022.0,1034.0,1044.0,1036.0,1034.0,1047.0,1039.0,1032.0,1043.0,1038.0,1038.0,1048.0,1037.0,1028.0,1036.0,1032.0,1032.0,1038.0,1929,1992,1909,	00:32:46.306,0.05517578125,0.04052734375,1.017578125,-0.1220703125,0.1220703125,0.0,2.296142578125,-3.109130859375,56.865234375,457.0,-1586.0,-2576.0,0.87860107421875,0.030517578125,-0.014312744140625,0.476348876953125,2.295316976739511,-3.1074488701656335,52.25701957492304,0.8970592689845822,0.029914022550694242,-0.015521269745712992,0.440623319139108,1,	00:32:46.307,0.00244140625,0.0859375,1.00390625,-1.15966796875,-1.52587890625,-0.6103515625,4.801025390625,-0.164794921875,76.6021728515625,-361.0,-1318.0,-1942.0,-0.7840576171875,-0.033782958984375,-0.024810791015625,-0.619293212890625,4.800798404107561,-0.16744201477569876,77.95547365152217,-0.7766689801918569,-0.03347742891256191,-0.02520997476387077,-0.6285133364802614,1
1782117473.534338,0.442,1023.0,1022.0,1023.0,1023.0,1023.0,1023.0,1024.0,1024.0,1023.0,1022.0,1023.0,1023.0,1023.0,1024.0,1023.0,1023.0,1023.0,1023.0,1024.0,1024.0,1024.0,1023.0,1023.0,1023.0,1023.0,1023.0,1024.0,1024.0,1023.0,1024.0,1024.0,1023.0,1022.0,1022.0,1024.0,1023.0,1024.0,1024.0,1024.0,1023.0,1023.0,1022.0,1023.0,1024.0,1023.0,1023.0,1024.0,1023.0,1023.0,1022.0,1023.0,1023.0,1023.0,1024.0,1024.0,1023.0,1024.0,1024.0,1024.0,1023.0,1022.0,1023.0,1022.0,1023.0,1023.0,1023.0,1024.0,1024.0,1023.0,1022.0,1022.0,1024.0,1023.0,1023.0,1023.0,1023.0,1024.0,1023.0,1024.0,1022.0,1022.0,1023.0,1023.0,1023.0,1024.0,1024.0,1024.0,1024.0,1023.0,1023.0,1022.0,1023.0,1023.0,1024.0,1024.0,1024.0,1024.0,1024.0,1024.0,1023.0,1023.0,1024.0,1023.0,1024.0,1024.0,1024.0,1024.0,1024.0,1024.0,1024.0,1023.0,1024.0,1022.0,1023.0,1022.0,1024.0,1024.0,1024.0,1023.0,1021.0,1022.0,1023.0,1023.0,1023.0,1024.0,1024.0,1024.0,1024.0,1023.0,1023.0,1024.0,1024.0,1024.0,1024.0,1023.0,1024.0,1023.0,1024.0,1024.0,1025.0,1025.0,1025.0,1025.0,1023.0,1024.0,1024.0,1025.0,1025.0,1024.0,1025.0,1023.0,1024.0,1024.0,1025.0,1026.0,1025.0,1024.0,1024.0,1024.0,1026.0,1027.0,1025.0,1024.0,1025.0,1026.0,1028.0,1029.0,1027.0,1024.0,1027.0,1029.0,1032.0,1033.0,1029.0,1024.0,1028.0,1031.0,1033.0,1039.0,1030.0,1025.0,1029.0,1031.0,1030.0,1039.0,1032.0,1027.0,1031.0,1033.0,1032.0,1043.0,1034.0,1028.0,1033.0,1035.0,1031.0,1045.0,1035.0,1028.0,1032.0,1032.0,1030.0,1040.0,1033.0,1030.0,1035.0,1033.0,1030.0,1039.0,1032.0,1023.0,1023.0,1023.0,1023.0,1024.0,1022.0,1033.0,1044.0,1036.0,1034.0,1047.0,1039.0,1031.0,1042.0,1037.0,1037.0,1048.0,1037.0,1028.0,1037.0,1031.0,1033.0,1039.0,1929,1993,1910,	00:32:46.316,0.05322265625,0.04052734375,1.01708984375,-0.1220703125,0.1220703125,0.06103515625,2.28515625,-3.0157470703125,56.8707275390625,454.0,-1589.0,-2575.0,0.878631591796875,0.030029296875,-0.013641357421875,0.476348876953125,2.2833348594968075,-3.015361245151802,52.25825113176856,0.8970839744388034,0.029467061374594424,-0.014845745034059242,0.4406264165405994,1,	00:32:46.317,0.001953125,0.08544921875,1.0048828125,-1.0986328125,-1.5869140625,-0.54931640625,4.85595703125,-0.120849609375,76.5911865234375,-361.0,-1319.0,-1941.0,-0.784088134765625,-0.033905029296875,-0.025421142578125,-0.61920166015625,4.856252569477798,-0.1198447472589906,77.9485008601882,-0.7767024034850395,-0.033593829637530874,-0.025834707558890717,-0.6284404497772195,1
1782117473.544795,0.452,1023.0,1023.0,1024.0,1023.0,1023.0,1023.0,1023.0,1023.0,1023.0,1023.0,1023.0,1023.0,1023.0,1023.0,1023.0,1024.0,1023.0,1023.0,1023.0,1024.0,1024.0,1024.0,1023.0,1022.0,1023.0,1023.0,1024.0,1023.0,1024.0,1024.0,1024.0,1023.0,1022.0,1023.0,1023.0,1023.0,1024.0,1024.0,1024.0,1024.0,1022.0,1023.0,1022.0,1024.0,1023.0,1023.0,1024.0,1024.0,1023.0,1022.0,1022.0,1023.0,1022.0,1023.0,1024.0,1024.0,1024.0,1024.0,1023.0,1023.0,1022.0,1024.0,1023.0,1023.0,1023.0,1023.0,1023.0,1023.0,1023.0,1022.0,1022.0,1023.0,1022.0,1023.0,1023.0,1024.0,1023.0,1023.0,1023.0,1022.0,1022.0,1023.0,1023.0,1023.0,1024.0,1023.0,1023.0,1023.0,1024.0,1023.0,1022.0,1023.0,1023.0,1023.0,1024.0,1024.0,1024.0,1024.0,1024.0,1024.0,1023.0,1023.0,1023.0,1024.0,1024.0,1024.0,1024.0,1024.0,1024.0,1024.0,1023.0,1024.0,1022.0,1023.0,1023.0,1023.0,1024.0,1023.0,1024.0,1021.0,1022.0,1023.0,1024.0,1023.0,1024.0,1024.0,1024.0,1024.0,1023.0,1023.0,1023.0,1023.0,1023.0,1024.0,1024.0,1024.0,1024.0,1024.0,1024.0,1025.0,1025.0,1025.0,1025.0,1023.0,1024.0,1024.0,1024.0,1025.0,1024.0,1025.0,1023.0,1024.0,1024.0,1025.0,1026.0,1025.0,1023.0,1024.0,1024.0,1027.0,1027.0,1025.0,1024.0,1025.0,1026.0,1028.0,1029.0,1027.0,1024.0,1027.0,1028.0,1032.0,1034.0,1029.0,1024.0,1027.0,1031.0,1032.0,1039.0,1031.0,1025.0,1028.0,1031.0,1031.0,1039.0,1032.0,1026.0,1031.0,1034.0,1032.0,1044.0,1034.0,1028.0,1033.0,1036.0,1032.0,1045.0,1034.0,1028.0,1031.0,1032.0,1029.0,1040.0,1033.0,1030.0,1034.0,1033.0,1030.0,1040.0,1033.0,1022.0,1023.0,1023.0,1023.0,1024.0,1023.0,1034.0,1044.0,1037.0,1035.0,1047.0,1038.0,1031.0,1043.0,1037.0,1038.0,1048.0,1037.0,1028.0,1037.0,1031.0,1033.0,1039.0,1929,1993,1910,	00:32:46.326,0.05517578125,0.04052734375,1.01806640625,-0.18310546875,0.1220703125,0.06103515625,2.2796630859375,-3.1036376953125,56.8707275390625,457.0,-1586.0,-2578.0,0.87860107421875,0.030364990234375,-0.014373779296875,0.476348876953125,2.2774592484959926,-3.1056298613955553,52.259126079130446,0.8970563449864811,0.029767533521676662,-0.015575140852021156,0.4406372917207199,1,	00:32:46.327,0.0009765625,0.08544921875,1.00390625,-1.03759765625,-1.52587890625,-0.6103515625,4.85595703125,-0.0439453125,76.585693359375,-361.0,-1316.0,-1942.0,-0.784149169921875,-0.03350830078125,-0.025970458984375,-0.619140625,4.858385009231101,-0.04371933835068758,77.94110282960186,-0.7767604254545294,-0.033192538678045974,-0.026360268828223773,-0.6283682304597431,1
1782117473.555180,0.462,1022.0,1023.0,1023.0,1022.0,1023.0,1022.0,1023.0,1024.0,1023.0,1023.0,1023.0,1023.0,1023.0,1024.0,1024.0,1023.0,1022.0,1023.0,1023.0,1023.0,1024.0,1024.0,1023.0,1023.0,1023.0,1023.0,1023.0,1024.0,1024.0,1024.0,1023.0,1022.0,1022.0,1023.0,1024.0,1023.0,1023.0,1024.0,1024.0,1024.0,1023.0,1022.0,1023.0,1023.0,1023.0,1024.0,1024.0,1023.0,1023.0,1022.0,1022.0,1023.0,1023.0,1023.0,1023.0,1024.0,1024.0,1023.0,1024.0,1023.0,1022.0,1023.0,1022.0,1024.0,1023.0,1023.0,1024.0,1023.0,1023.0,1022.0,1022.0,1023.0,1022.0,1024.0,1023.0,1023.0,1023.0,1023.0,1023.0,1022.0,1023.0,1023.0,1023.0,1023.0,1023.0,1024.0,1024.0,1024.0,1024.0,1023.0,1022.0,1023.0,1023.0,1024.0,1024.0,1024.0,1025.0,1024.0,1024.0,1024.0,1022.0,1023.0,1023.0,1024.0,1024.0,1024.0,1024.0,1024.0,1024.0,1024.0,1023.0,1023.0,1022.0,1024.0,1022.0,1023.0,1024.0,1023.0,1023.0,1020.0,1022.0,1023.0,1023.0,1024.0,1024.0,1024.0,1024.0,1024.0,1023.0,1023.0,1023.0,1024.0,1024.0,1024.0,1023.0,1024.0,1024.0,1024.0,1024.0,1024.0,1025.0,1024.0,1026.0,1023.0,1023.0,1024.0,1025.0,1026.0,1025.0,1025.0,1023.0,1024.0,1024.0,1024.0,1026.0,1025.0,1023.0,1024.0,1025.0,1026.0,1026.0,1025.0,1024.0,1025.0,1026.0,1028.0,1029.0,1027.0,1024.0,1026.0,1029.0,1032.0,1033.0,1029.0,1025.0,1027.0,1032.0,1032.0,1039.0,1030.0,1025.0,1028.0,1032.0,1031.0,1039.0,1032.0,1026.0,1032.0,1033.0,1032.0,1044.0,1035.0,1028.0,1034.0,1035.0,1032.0,1045.0,1034.0,1028.0,1032.0,1031.0,1029.0,1040.0,1033.0,1030.0,1035.0,1034.0,1030.0,1039.0,1032.0,1022.0,1023.0,1023.0,1023.0,1024.0,1022.0,1034.0,1045.0,1036.0,1034.0,1047.0,1038.0,1031.0,1043.0,1037.0,1038.0,1048.0,1038.0,1027.0,1038.0,1032.0,1032.0,1039.0,1929,1993,1909,	00:32:46.336,0.05517578125,0.041015625,1.017578125,-0.18310546875,0.18310546875,0.0,2.3675537109375,-3.0926513671875,56.865234375,457.0,-1586.0,-2577.0,0.87860107421875,0.030975341796875,-0.013885498046875,0.476318359375,2.3664311459253047,-3.0906325713133387,52.25429093783731,0.8970559199552965,0.030405845582642112,-0.01511683203331901,0.440610533710711,1,	00:32:46.337,0.0029296875,0.08447265625,1.00390625,-0.9765625,-1.5869140625,-0.54931640625,4.8175048828125,-0.142822265625,76.5802001953125,-361.0,-1315.0,-1941.0,-0.7841796875,-0.03375244140625,-0.025054931640625,-0.619140625,4.814920533130779,-0.1442763092152752,77.93434908394093,-0.77678625301314,-0.033450794121823724,-0.02543829052571887,-0.6283606089480422,1
1782117473.564896,0.472,1023.0,1024.0,1024.0,1023.0,1023.0,1023.0,1023.0,1024.0,1023.0,1022.0,1023.0,1023.0,1023.0,1024.0,1023.0,1023.0,1023.0,1023.0,1023.0,1024.0,1024.0,1023.0,1023.0,1023.0,1023.0,1023.0,1024.0,1024.0,1024.0,1024.0,1024.0,1023.0,1022.0,1022.0,1023.0,1023.0,1023.0,1024.0,1024.0,1023.0,1023.0,1023.0,1023.0,1023.0,1023.0,1023.0,1024.0,1023.0,1024.0,1022.0,1022.0,1023.0,1023.0,1024.0,1023.0,1024.0,1024.0,1024.0,1024.0,1023.0,1022.0,1023.0,1023.0,1023.0,1023.0,1023.0,1024.0,1023.0,1023.0,1022.0,1022.0,1023.0,1022.0,1023.0,1023.0,1023.0,1024.0,1023.0,1023.0,1022.0,1022.0,1023.0,1023.0,1023.0,1023.0,1023.0,1024.0,1023.0,1023.0,1023.0,1023.0,1023.0,1023.0,1024.0,1024.0,1024.0,1024.0,1024.0,1024.0,1024.0,1022.0,1023.0,1023.0,1024.0,1024.0,1024.0,1024.0,1024.0,1024.0,1024.0,1023.0,1023.0,1022.0,1023.0,1023.0,1023.0,1023.0,1023.0,1023.0,1021.0,1022.0,1023.0,1024.0,1024.0,1024.0,1024.0,1023.0,1024.0,1023.0,1023.0,1024.0,1023.0,1024.0,1024.0,1024.0,1024.0,1023.0,1024.0,1025.0,1025.0,1025.0,1024.0,1026.0,1023.0,1024.0,1024.0,1024.0,1025.0,1024.0,1025.0,1023.0,1024.0,1024.0,1025.0,1026.0,1025.0,1023.0,1024.0,1024.0,1026.0,1026.0,1026.0,1024.0,1025.0,1026.0,1028.0,1029.0,1027.0,1024.0,1027.0,1029.0,1032.0,1034.0,1030.0,1025.0,1028.0,1032.0,1032.0,1039.0,1031.0,1025.0,1029.0,1031.0,1031.0,1039.0,1032.0,1026.0,1031.0,1033.0,1032.0,1044.0,1035.0,1028.0,1034.0,1035.0,1031.0,1045.0,1035.0,1028.0,1033.0,1032.0,1029.0,1040.0,1033.0,1030.0,1035.0,1033.0,1030.0,1040.0,1033.0,1021.0,1024.0,1023.0,1024.0,1024.0,1022.0,1034.0,1045.0,1037.0,1034.0,1047.0,1039.0,1031.0,1043.0,1038.0,1037.0,1048.0,1038.0,1028.0,1037.0,1032.0,1032.0,1038.0,1929,1993,1909,	00:32:46.346,0.0546875,0.0400390625,1.01806640625,-0.1220703125,0.1220703125,0.06103515625,2.274169921875,-3.076171875,56.8707275390625,457.0,-1587.0,-2574.0,0.87860107421875,0.03021240234375,-0.014129638671875,0.476348876953125,2.274621564483582,-3.0750116004593924,52.25982188901441,0.8970632083172442,0.029627933605570637,-0.015346056585552471,0.4406407656823294,1,	00:32:46.348,0.0029296875,0.08447265625,1.00390625,-1.03759765625,-1.52587890625,-0.6103515625,4.7845458984375,-0.2471923828125,76.5692138671875,-360.0,-1318.0,-1938.0,-0.7841796875,-0.034088134765625,-0.024169921875,-0.619110107421875,4.783955075663845,-0.24828503614284342,77.92706620336456,-0.7768101697679416,-0.03381269534798997,-0.024561215712567808,-0.6283465671594987,1
1782117473.576231,0.483,1023.0,1023.0,1024.0,1022.0,1023.0,1022.0,1024.0,1024.0,1023.0,1022.0,1023.0,1023.0,1024.0,1024.0,1024.0,1023.0,1023.0,1023.0,1023.0,1023.0,1024.0,1024.0,1023.0,1023.0,1023.0,1023.0,1024.0,1024.0,1024.0,1023.0,1023.0,1023.0,1022.0,1023.0,1023.0,1023.0,1023.0,1024.0,1024.0,1024.0,1023.0,1022.0,1023.0,1023.0,1023.0,1023.0,1024.0,1023.0,1024.0,1022.0,1022.0,1023.0,1023.0,1023.0,1023.0,1023.0,1024.0,1024.0,1023.0,1023.0,1023.0,1023.0,1022.0,1023.0,1023.0,1023.0,1024.0,1023.0,1023.0,1022.0,1022.0,1023.0,1023.0,1024.0,1023.0,1024.0,1024.0,1024.0,1023.0,1023.0,1022.0,1023.0,1023.0,1023.0,1023.0,1023.0,1024.0,1024.0,1023.0,1023.0,1023.0,1023.0,1023.0,1023.0,1024.0,1024.0,1024.0,1024.0,1024.0,1024.0,1022.0,1023.0,1023.0,1024.0,1024.0,1024.0,1024.0,1024.0,1024.0,1024.0,1023.0,1023.0,1022.0,1023.0,1023.0,1023.0,1024.0,1024.0,1023.0,1021.0,1022.0,1023.0,1023.0,1024.0,1024.0,1024.0,1024.0,1024.0,1024.0,1022.0,1024.0,1023.0,1023.0,1024.0,1024.0,1023.0,1024.0,1024.0,1024.0,1024.0,1025.0,1024.0,1025.0,1023.0,1024.0,1024.0,1024.0,1025.0,1024.0,1026.0,1023.0,1024.0,1024.0,1024.0,1025.0,1025.0,1023.0,1024.0,1024.0,1025.0,1027.0,1025.0,1023.0,1025.0,1026.0,1028.0,1029.0,1027.0,1024.0,1027.0,1029.0,1032.0,1034.0,1029.0,1025.0,1028.0,1031.0,1032.0,1040.0,1031.0,1025.0,1028.0,1031.0,1031.0,1039.0,1031.0,1027.0,1031.0,1034.0,1031.0,1044.0,1035.0,1028.0,1034.0,1035.0,1031.0,1045.0,1034.0,1027.0,1032.0,1032.0,1029.0,1040.0,1033.0,1030.0,1034.0,1033.0,1030.0,1040.0,1033.0,1023.0,1024.0,1023.0,1023.0,1024.0,1022.0,1034.0,1045.0,1036.0,1035.0,1047.0,1038.0,1031.0,1042.0,1037.0,1037.0,1047.0,1037.0,1028.0,1037.0,1032.0,1032.0,1039.0,1929,1993,1909,	00:32:46.357,0.0546875,0.041015625,1.017578125,-0.1220703125,0.1220703125,0.06103515625,2.3675537109375,-3.0706787109375,56.865234375,454.0,-1589.0,-2577.0,0.87860107421875,0.0308837890625,-0.01373291015625,0.476348876953125,2.3650413066283225,-3.070463558141944,52.2555669278214,0.8970572280590037,0.030317756686886223,-0.014963862997683555,0.4406191621125412,1,	00:32:46.358,0.00244140625,0.0859375,1.00439453125,-0.9765625,-1.64794921875,-0.54931640625,4.8394775390625,-0.19775390625,76.563720703125,-361.0,-1317.0,-1939.0,-0.784210205078125,-0.034210205078125,-0.0247802734375,-0.619049072265625,4.83801101047455,-0.1986080676166274,77.9199650444302,-0.7768452306109908,-0.03390836202265948,-0.025192317919584685,-0.6282730758036154,1
1782117473.585638,0.493,1023.0,1023.0,1023.0,1023.0,1023.0,1023.0,1023.0,1023.0,1023.0,1023.0,1023.0,1023.0,1023.0,1024.0,1023.0,1024.0,1023.0,1023.0,1023.0,1023.0,1024.0,1024.0,1023.0,1023.0,1024.0,1023.0,1023.0,1023.0,1024.0,1024.0,1024.0,1023.0,1022.0,1022.0,1023.0,1024.0,1023.0,1024.0,1023.0,1023.0,1023.0,1022.0,1023.0,1024.0,1023.0,1023.0,1024.0,1024.0,1023.0,1022.0,1023.0,1024.0,1023.0,1023.0,1023.0,1023.0,1024.0,1024.0,1024.0,1023.0,1022.0,1023.0,1023.0,1023.0,1022.0,1023.0,1023.0,1023.0,1023.0,1022.0,1022.0,1023.0,1022.0,1023.0,1022.0,1023.0,1024.0,1024.0,1023.0,1023.0,1022.0,1023.0,1023.0,1023.0,1023.0,1023.0,1024.0,1024.0,1024.0,1023.0,1023.0,1023.0,1022.0,1024.0,1024.0,1024.0,1024.0,1024.0,1024.0,1023.0,1023.0,1023.0,1024.0,1024.0,1024.0,1024.0,1024.0,1024.0,1024.0,1024.0,1023.0,1023.0,1022.0,1024.0,1023.0,1023.0,1024.0,1023.0,1023.0,1021.0,1022.0,1023.0,1024.0,1024.0,1023.0,1024.0,1024.0,1024.0,1023.0,1023.0,1023.0,1024.0,1024.0,1024.0,1024.0,1024.0,1024.0,1024.0,1024.0,1024.0,1025.0,1024.0,1025.0,1023.0,1024.0,1024.0,1024.0,1025.0,1024.0,1025.0,1023.0,1024.0,1024.0,1025.0,1025.0,1024.0,1024.0,1024.0,1025.0,1025.0,1027.0,1026.0,1024.0,1026.0,1026.0,1028.0,1029.0,1027.0,1024.0,1027.0,1029.0,1032.0,1034.0,1030.0,1025.0,1028.0,1031.0,1033.0,1039.0,1031.0,1025.0,1028.0,1031.0,1030.0,1039.0,1031.0,1026.0,1031.0,1033.0,1032.0,1043.0,1035.0,1028.0,1034.0,1035.0,1032.0,1045.0,1035.0,1028.0,1032.0,1031.0,1029.0,1040.0,1032.0,1029.0,1034.0,1033.0,1030.0,1039.0,1032.0,1022.0,1024.0,1022.0,1023.0,1024.0,1023.0,1035.0,1046.0,1037.0,1034.0,1047.0,1038.0,1031.0,1043.0,1037.0,1037.0,1048.0,1036.0,1028.0,1038.0,1032.0,1033.0,1039.0,1929,1993,1909,	00:32:46.367,0.05517578125,0.0400390625,1.01708984375,-0.1220703125,0.1220703125,0.0,2.274169921875,-3.0926513671875,56.8707275390625,457.0,-1589.0,-2581.0,0.87860107421875,0.030303955078125,-0.0142822265625,0.47637939453125,2.275726179381137,-3.094963893311841,52.2603549927504,0.8970551434031868,0.029713208886144274,-0.01549794578971772,0.4406461262599223,1,	00:32:46.368,0.0029296875,0.0859375,1.00439453125,-0.9765625,-1.64794921875,-0.6103515625,4.9053955078125,-0.164794921875,76.5582275390625,-360.0,-1321.0,-1941.0,-0.78424072265625,-0.034515380859375,-0.025360107421875,-0.61895751953125,4.906246934397422,-0.1667430361301911,77.912242470465,-0.7768750669255439,-0.034198010081194725,-0.025780167488248476,-0.6281966327991546,1
