Unix_Time_s,EMG_t_s,sample_idx,fs,gain,flags,emg_valid,ch1_raw_uV,ch1_filt_uV,ch1_env_uV,ch2_raw_uV,ch2_filt_uV,ch2_env_uV
1782117235.655575,0.000000,1682280,1000,12,0,1,1654.520,-18.989,8.405,370.303,3.030,4.115
1782117235.656575,0.001000,1682281,1000,12,0,1,1649.139,-19.655,8.832,373.618,4.388,4.146
1782117235.657575,0.002000,1682282,1000,12,0,1,1663.287,-5.192,8.838,374.338,5.621,4.201
1782117235.658575,0.003000,1682283,1000,12,0,1,1688.605,20.987,9.148,371.143,1.440,4.197
1782117235.659575,0.004000,1682284,1000,12,0,1,1706.260,35.717,10.380,372.224,1.492,4.197
1782117235.660575,0.005000,1682285,1000,12,0,1,1700.976,28.675,11.144,371.432,1.497,4.084
1782117235.661575,0.006000,1682286,1000,12,0,1,1686.515,9.800,11.229,372.176,0.996,3.882
1782117235.662575,0.007000,1682287,1000,12,0,1,1681.543,2.159,11.233,371.960,1.778,3.779
1782117235.663575,0.008000,1682288,1000,12,0,1,1682.864,2.586,11.227,367.108,-2.579,3.784
1782117235.664575,0.009000,1682289,1000,12,0,1,1691.944,8.550,11.221,362.424,-6.262,3.885
1782117235.665575,0.010000,1682290,1000,12,0,1,1702.297,16.777,11.293,359.806,-7.306,3.976
1782117235.666575,0.011000,1682291,1000,12,0,1,1713.419,22.272,11.590,357.932,-7.206,4.084
1782117235.667575,0.012000,1682292,1000,12,0,1,1720.216,24.760,12.096,357.524,-5.926,4.169
1782117235.668575,0.013000,1682293,1000,12,0,1,1715.965,16.049,12.307,357.524,-4.165,4.211
1782117235.669575,0.014000,1682294,1000,12,0,1,1715.989,9.943,12.342,359.253,-1.588,4.217
1782117235.670575,0.015000,1682295,1000,12,0,1,1722.498,12.486,12.405,362.736,2.334,4.229
1782117235.671575,0.016000,1682296,1000,12,0,1,1714.187,3.591,12.384,364.754,4.528,4.270
1782117235.672575,0.017000,1682297,1000,12,0,1,1701.889,-11.268,12.468,368.573,6.848,4.355
1782117235.673575,0.018000,1682298,1000,12,0,1,1701.961,-12.016,12.581,370.639,8.399,4.499
1782117235.674575,0.019000,1682299,1000,12,0,1,1706.645,-6.587,12.615,370.735,6.696,4.598
1782117235.675575,0.020000,1682300,1000,12,0,1,1702.873,-8.610,12.637,368.982,4.197,4.635
1782117235.676575,0.021000,1682301,1000,12,0,1,1696.916,-14.037,12.735,367.781,1.707,4.641
1782117235.677575,0.022000,1682302,1000,12,0,1,1699.366,-11.304,12.832,367.660,1.177,4.633
1782117235.678575,0.023000,1682303,1000,12,0,1,1705.684,-4.089,12.818,368.261,1.253,4.612
1782117235.679575,0.024000,1682304,1000,12,0,1,1705.516,-3.369,12.804,369.294,1.932,4.604
1782117235.680575,0.025000,1682305,1000,12,0,1,1703.450,-6.015,12.832,369.846,2.297,4.595
1782117235.681575,0.026000,1682306,1000,12,0,1,1703.258,-6.261,12.848,370.471,2.458,4.598
1782117235.682575,0.027000,1682307,1000,12,0,1,1694.851,-12.359,12.962,368.453,1.005,4.599
1782117235.683575,0.028000,1682308,1000,12,0,1,1688.245,-18.868,13.221,366.579,-1.128,4.601
1782117235.684575,0.029000,1682309,1000,12,0,1,1687.596,-16.992,13.376,364.153,-2.367,4.605
1782117235.685575,0.030000,1682310,1000,12,0,1,1689.278,-13.610,13.439,363.072,-3.186,4.613
1782117235.686575,0.031000,1682311,1000,12,0,1,1686.804,-12.966,13.499,362.328,-2.625,4.625
1782117235.687575,0.032000,1682312,1000,12,0,1,1686.828,-12.093,13.529,362.112,-2.375,4.636
1782117235.688575,0.033000,1682313,1000,12,0,1,1685.314,-10.257,13.554,361.583,-1.965,4.642
1782117235.689575,0.034000,1682314,1000,12,0,1,1689.758,-5.925,13.556,363.673,-0.198,4.641
1782117235.690575,0.035000,1682315,1000,12,0,1,1698.646,4.194,13.558,364.778,1.452,4.645
1782117235.691575,0.036000,1682316,1000,12,0,1,1701.672,7.751,13.601,365.210,1.183,4.571
1782117235.692575,0.037000,1682317,1000,12,0,1,1704.363,8.815,13.582,365.066,0.841,4.414
1782117235.693575,0.038000,1682318,1000,12,0,1,1710.800,13.830,13.499,364.418,-0.275,4.332
1782117235.694575,0.039000,1682319,1000,12,0,1,1720.913,20.602,13.693,361.631,-2.776,4.330
1782117235.695575,0.040000,1682320,1000,12,0,1,1720.192,19.340,13.964,359.277,-5.069,4.376
1782117235.696575,0.041000,1682321,1000,12,0,1,1715.508,10.740,14.024,357.644,-5.828,4.453
1782117235.697575,0.042000,1682322,1000,12,0,1,1713.995,7.849,14.053,359.902,-3.498,4.401
1782117235.698575,0.043000,1682323,1000,12,0,1,1716.037,7.557,14.091,360.646,-1.326,4.233
1782117235.699575,0.044000,1682324,1000,12,0,1,1716.974,7.570,14.072,358.941,-2.473,4.055
1782117235.700575,0.045000,1682325,1000,12,0,1,1712.650,2.441,14.031,358.533,-2.243,3.838
1782117235.701575,0.046000,1682326,1000,12,0,1,1706.861,-4.071,14.042,357.524,-1.864,3.654
1782117235.702575,0.047000,1682327,1000,12,0,1,1698.454,-10.972,14.045,356.130,-2.366,3.624
1782117235.703575,0.048000,1682328,1000,12,0,1,1688.605,-19.034,14.103,357.091,-0.534,3.623
1782117235.704575,0.049000,1682329,1000,12,0,1,1674.673,-27.969,14.413,357.139,0.750,3.591
1782117235.705575,0.050000,1682330,1000,12,0,1,1661.005,-36.667,15.080,359.133,2.639,3.585
1782117235.706575,0.051000,1682331,1000,12,0,1,1654.280,-37.009,15.719,359.974,4.304,3.583
1782117235.707575,0.052000,1682332,1000,12,0,1,1660.213,-26.384,16.139,361.223,4.751,3.558
1782117235.708575,0.053000,1682333,1000,12,0,1,1656.610,-21.221,16.145,360.766,4.591,3.611
1782117235.709575,0.054000,1682334,1000,12,0,1,1657.739,-18.511,15.556,359.037,2.252,3.619
1782117235.710575,0.055000,1682335,1000,12,0,1,1676.907,2.425,15.023,355.458,-0.857,3.614
1782117235.711575,0.056000,1682336,1000,12,0,1,1695.475,21.424,15.262,352.503,-3.756,3.651
1782117235.712575,0.057000,1682337,1000,12,0,1,1706.525,29.254,15.810,350.245,-5.055,3.711
1782117235.713575,0.058000,1682338,1000,12,0,1,1716.998,34.495,16.542,352.696,-2.796,3.714
1782117235.714575,0.059000,1682339,1000,12,0,1,1716.589,30.656,17.057,352.744,-1.181,3.611
1782117235.715575,0.060000,1682340,1000,12,0,1,1694.803,8.306,16.932,351.735,-2.373,3.477
1782117235.716575,0.061000,1682341,1000,12,0,1,1668.956,-17.415,16.818,351.446,-1.919,3.335
1782117235.717575,0.062000,1682342,1000,12,0,1,1643.446,-35.713,17.208,350.654,-2.068,3.241
1782117235.718575,0.063000,1682343,1000,12,0,1,1615.919,-53.105,18.637,349.813,-2.268,3.203
1782117235.719575,0.064000,1682344,1000,12,0,1,1591.225,-64.050,20.674,351.855,0.023,3.195
1782117235.720575,0.065000,1682345,1000,12,0,1,1585.749,-57.460,22.144,354.377,3.000,3.206
1782117235.721575,0.066000,1682346,1000,12,0,1,1605.181,-27.571,22.479,354.497,3.518,3.181
1782117235.722575,0.067000,1682347,1000,12,0,1,1628.121,3.763,22.428,354.497,3.205,3.064
1782117235.723575,0.068000,1682348,1000,12,0,1,1658.363,32.579,22.834,355.002,3.875,2.877
1782117235.724575,0.069000,1682349,1000,12,0,1,1701.360,68.700,24.797,355.098,3.825,2.770
1782117235.725575,0.070000,1682350,1000,12,0,1,1750.218,102.649,28.708,360.334,7.589,2.910
1782117235.726575,0.071000,1682351,1000,12,0,1,1789.324,122.629,33.481,360.214,8.243,3.126
1782117235.727575,0.072000,1682352,1000,12,0,1,1803.688,115.489,37.218,355.218,2.194,3.137
1782117235.728575,0.073000,1682353,1000,12,0,1,1796.482,86.897,39.190,349.933,-2.580,3.153
1782117235.729575,0.074000,1682354,1000,12,0,1,1775.776,49.588,39.810,344.865,-6.749,3.283
1782117235.730575,0.075000,1682355,1000,12,0,1,1761.988,21.220,39.913,342.295,-8.159,3.465
1782117235.731575,0.076000,1682356,1000,12,0,1,1751.732,4.535,39.909,341.934,-6.906,3.583
1782117235.732575,0.077000,1682357,1000,12,0,1,1729.416,-19.322,39.964,343.087,-4.722,3.642
1782117235.733575,0.078000,1682358,1000,12,0,1,1693.073,-51.088,40.524,349.357,1.323,3.643
1782117235.734575,0.079000,1682359,1000,12,0,1,1666.963,-71.050,41.682,355.290,7.192,3.768
1782117235.735575,0.080000,1682360,1000,12,0,1,1664.056,-64.377,42.621,360.094,10.094,4.004
1782117235.736575,0.081000,1682361,1000,12,0,1,1682.024,-38.797,42.934,363.337,11.501,4.305
1782117235.737575,0.082000,1682362,1000,12,0,1,1708.158,-7.780,42.914,362.928,9.208,4.486
1782117235.738575,0.083000,1682363,1000,12,0,1,1759.130,35.712,43.186,364.514,7.927,4.615
1782117235.739575,0.084000,1682364,1000,12,0,1,1769.147,48.415,43.717,361.223,4.582,4.660
1782117235.740575,0.085000,1682365,1000,12,0,1,1772.798,34.183,43.980,358.172,-0.521,4.656
1782117235.741575,0.086000,1682366,1000,12,0,1,1756.920,18.464,44.043,358.460,-0.197,4.653
1782117235.742575,0.087000,1682367,1000,12,0,1,1731.794,-15.980,44.084,362.856,2.886,4.670
1782117235.743575,0.088000,1682368,1000,12,0,1,1712.169,-34.471,44.309,365.619,5.713,4.739
1782117235.744575,0.089000,1682369,1000,12,0,1,1700.567,-45.103,44.671,364.009,3.417,4.747
1782117235.745575,0.090000,1682370,1000,12,0,1,1699.799,-43.123,45.002,362.472,1.080,4.695
1782117235.746575,0.091000,1682371,1000,12,0,1,1703.546,-34.541,45.241,361.535,0.117,4.623
1782117235.747575,0.092000,1682372,1000,12,0,1,1708.927,-27.250,45.392,359.734,-1.689,4.602
1782117235.748575,0.093000,1682373,1000,12,0,1,1712.386,-19.300,45.461,358.557,-2.721,4.614
1782117235.749575,0.094000,1682374,1000,12,0,1,1717.070,-14.158,45.492,355.410,-4.976,4.655
1782117235.750575,0.095000,1682375,1000,12,0,1,1717.358,-9.373,45.510,355.098,-5.493,4.708
1782117235.751575,0.096000,1682376,1000,12,0,1,1716.469,-9.472,45.527,354.929,-4.514,4.744
1782117235.752575,0.097000,1682377,1000,12,0,1,1715.268,-6.631,45.510,355.938,-3.829,4.763
1782117235.753575,0.098000,1682378,1000,12,0,1,1711.016,-7.914,45.444,355.098,-3.714,4.792
1782117235.754575,0.099000,1682379,1000,12,0,1,1706.885,-8.209,45.286,351.494,-6.880,4.888
1782117235.755575,0.100000,1682380,1000,12,0,1,1703.858,-7.376,45.000,349.453,-8.427,5.017
1782117235.756575,0.101000,1682381,1000,12,0,1,1698.526,-8.100,44.710,350.366,-6.735,5.071
1782117235.757575,0.102000,1682382,1000,12,0,1,1693.746,-9.089,44.572,345.970,-8.774,5.177
1782117235.758575,0.103000,1682383,1000,12,0,1,1684.666,-12.610,44.507,346.666,-8.424,5.272
1782117235.759575,0.104000,1682384,1000,12,0,1,1679.573,-14.562,44.478,349.405,-3.477,5.286
1782117235.760575,0.105000,1682385,1000,12,0,1,1679.645,-10.257,44.500,348.252,-3.481,5.307
1782117235.761575,0.106000,1682386,1000,12,0,1,1685.819,-2.609,44.398,347.123,-3.663,5.306
1782117235.762575,0.107000,1682387,1000,12,0,1,1707.533,16.346,44.265,345.826,-3.265,5.278
1782117235.763575,0.108000,1682388,1000,12,0,1,1733.428,38.270,44.327,344.697,-3.220,5.283
1782117235.764575,0.109000,1682389,1000,12,0,1,1747.792,45.443,44.581,345.850,-0.787,5.281
1782117235.765575,0.110000,1682390,1000,12,0,1,1748.417,38.197,44.891,345.273,0.264,5.271
1782117235.766575,0.111000,1682391,1000,12,0,1,1747.576,28.054,44.999,346.786,2.001,5.271
1782117235.767575,0.112000,1682392,1000,12,0,1,1730.954,9.541,44.735,349.741,5.583,5.322
1782117235.768575,0.113000,1682393,1000,12,0,1,1702.994,-19.869,44.189,352.888,8.230,5.438
1782117235.769575,0.114000,1682394,1000,12,0,1,1680.582,-38.458,43.592,354.689,9.467,5.601
1782117235.770575,0.115000,1682395,1000,12,0,1,1673.304,-40.220,43.204,356.923,10.052,5.763
1782117235.771575,0.116000,1682396,1000,12,0,1,1679.982,-26.814,43.194,355.554,8.112,5.855
1782117235.772575,0.117000,1682397,1000,12,0,1,1691.512,-9.337,43.211,355.770,6.031,5.899
1782117235.773575,0.118000,1682398,1000,12,0,1,1703.450,5.671,42.972,356.443,5.951,5.934
1782117235.774575,0.119000,1682399,1000,12,0,1,1703.450,9.821,41.882,356.443,4.399,5.941
1782117235.775575,0.120000,1682400,1000,12,0,1,1702.321,7.997,39.302,363.241,8.243,5.959
1782117235.776575,0.121000,1682401,1000,12,0,1,1704.363,11.312,35.306,364.586,9.437,5.994
1782117235.777575,0.122000,1682402,1000,12,0,1,1702.489,9.657,31.330,366.123,7.007,6.068
1782117235.778575,0.123000,1682403,1000,12,0,1,1703.258,8.971,28.848,364.057,4.974,6.097
1782117235.779575,0.124000,1682404,1000,12,0,1,1707.077,11.493,28.029,358.701,-2.138,6.030
1782117235.780575,0.125000,1682405,1000,12,0,1,1707.221,9.980,27.904,353.849,-6.484,5.989
1782117235.781575,0.126000,1682406,1000,12,0,1,1701.504,2.913,27.900,352.407,-7.780,6.010
1782117235.782575,0.127000,1682407,1000,12,0,1,1702.922,0.661,27.766,348.660,-9.176,6.112
1782117235.783575,0.128000,1682408,1000,12,0,1,1702.922,0.752,26.809,348.660,-8.795,6.235
1782117235.784575,0.129000,1682409,1000,12,0,1,1701.913,-2.865,24.859,342.487,-10.775,6.337
1782117235.785575,0.130000,1682410,1000,12,0,1,1704.026,-1.778,23.133,346.018,-8.465,6.289
1782117235.786575,0.131000,1682411,1000,12,0,1,1705.876,-0.920,22.473,345.609,-4.031,6.102
1782117235.787575,0.132000,1682412,1000,12,0,1,1699.919,-5.782,22.461,345.465,-5.085,6.005
1782117235.788575,0.133000,1682413,1000,12,0,1,1695.475,-10.358,21.935,345.633,-2.450,5.909
1782117235.789575,0.134000,1682414,1000,12,0,1,1690.527,-11.934,20.907,344.360,-3.240,5.892
1782117235.790575,0.135000,1682415,1000,12,0,1,1686.948,-13.036,20.424,344.961,-2.215,5.899
1782117235.791575,0.136000,1682416,1000,12,0,1,1690.191,-7.072,20.281,346.114,-0.224,5.900
1782117235.792575,0.137000,1682417,1000,12,0,1,1691.271,-1.845,20.156,349.573,2.180,5.893
1782117235.793575,0.138000,1682418,1000,12,0,1,1694.634,2.379,19.561,352.599,5.446,5.888
1782117235.794575,0.139000,1682419,1000,12,0,1,1691.320,3.373,18.498,348.948,1.569,5.873
1782117235.795575,0.140000,1682420,1000,12,0,1,1696.268,6.155,17.485,346.594,-1.501,5.875
1782117235.796575,0.141000,1682421,1000,12,0,1,1712.866,22.162,17.079,344.817,-2.575,5.886
1782117235.797575,0.142000,1682422,1000,12,0,1,1740.250,42.406,17.686,344.312,-2.864,5.895
1782117235.798575,0.143000,1682423,1000,12,0,1,1758.289,54.620,19.106,341.262,-4.140,5.911
1782117235.799575,0.144000,1682424,1000,12,0,1,1770.444,54.053,20.480,336.602,-7.405,5.962
1782117235.800575,0.145000,1682425,1000,12,0,1,1770.155,44.977,21.404,335.593,-6.923,5.992
1782117235.801575,0.146000,1682426,1000,12,0,1,1755.623,21.385,21.575,333.023,-6.395,6.026
1782117235.802575,0.147000,1682427,1000,12,0,1,1729.368,-8.600,21.589,336.001,-3.149,6.018
1782117235.803575,0.148000,1682428,1000,12,0,1,1708.975,-31.236,22.008,341.310,4.180,6.024
1782117235.804575,0.149000,1682429,1000,12,0,1,1694.370,-42.075,22.769,341.142,4.803,5.984
1782117235.805575,0.150000,1682430,1000,12,0,1,1679.045,-50.911,23.857,342.559,5.535,5.916
1782117235.806575,0.151000,1682431,1000,12,0,1,1676.499,-48.515,24.798,346.907,9.373,5.987
1782117235.807575,0.152000,1682432,1000,12,0,1,1692.617,-27.176,25.061,348.060,9.927,6.023
1782117235.808575,0.153000,1682433,1000,12,0,1,1706.044,-8.765,25.028,347.027,7.600,6.001
1782117235.809575,0.154000,1682434,1000,12,0,1,1707.389,-4.445,24.951,345.249,4.921,6.021
1782117235.810575,0.155000,1682435,1000,12,0,1,1713.298,0.443,24.909,345.081,3.538,6.022
1782117235.811575,0.156000,1682436,1000,12,0,1,1720.024,8.427,24.935,344.288,2.449,6.010
1782117235.812575,0.157000,1682437,1000,12,0,1,1732.563,16.970,24.943,343.039,0.522,5.992
1782117235.813575,0.158000,1682438,1000,12,0,1,1754.326,33.993,24.819,341.238,-1.222,5.978
1782117235.814575,0.159000,1682439,1000,12,0,1,1764.102,39.333,24.609,339.868,-2.630,5.988
1782117235.815575,0.160000,1682440,1000,12,0,1,1746.687,18.909,24.158,341.598,-1.144,5.990
1782117235.816575,0.161000,1682441,1000,12,0,1,1732.395,-1.284,23.830,342.319,0.241,5.984
1782117235.817575,0.162000,1682442,1000,12,0,1,1723.627,-9.047,23.826,341.358,-0.764,5.932
1782117235.818575,0.163000,1682443,1000,12,0,1,1708.614,-21.655,23.858,344.625,1.785,5.822
1782117235.819575,0.164000,1682444,1000,12,0,1,1703.906,-25.315,23.504,348.708,5.739,5.724
1782117235.820575,0.165000,1682445,1000,12,0,1,1699.030,-23.825,23.053,350.558,6.702,5.625
1782117235.821575,0.166000,1682446,1000,12,0,1,1694.658,-25.474,23.022,351.326,6.411,5.581
1782117235.822575,0.167000,1682447,1000,12,0,1,1695.571,-19.948,23.157,348.996,3.732,5.541
1782117235.823575,0.168000,1682448,1000,12,0,1,1704.531,-9.644,23.183,349.525,2.633,5.489
1782117235.824575,0.169000,1682449,1000,12,0,1,1718.127,4.888,23.152,350.197,3.420,5.475
1782117235.825575,0.170000,1682450,1000,12,0,1,1743.613,25.075,23.394,348.444,1.079,5.352
1782117235.826575,0.171000,1682451,1000,12,0,1,1756.103,35.694,23.879,349.020,0.805,5.184
1782117235.827575,0.172000,1682452,1000,12,0,1,1740.922,16.947,23.960,350.317,1.860,5.095
1782117235.828575,0.173000,1682453,1000,12,0,1,1713.587,-11.667,23.984,353.176,3.325,5.068
1782117235.829575,0.174000,1682454,1000,12,0,1,1695.043,-29.044,24.278,352.720,2.875,5.076
1782117235.830575,0.175000,1682455,1000,12,0,1,1688.365,-31.260,24.637,351.759,0.305,4.992
1782117235.831575,0.176000,1682456,1000,12,0,1,1686.155,-27.312,24.935,349.645,-1.624,4.875
1782117235.832575,0.177000,1682457,1000,12,0,1,1684.378,-23.358,25.152,350.966,-1.847,4.706
1782117235.833575,0.178000,1682458,1000,12,0,1,1689.542,-14.095,25.231,350.245,-1.685,4.545
1782117235.834575,0.179000,1682459,1000,12,0,1,1701.841,0.817,25.228,342.367,-8.646,4.453
1782117235.835575,0.180000,1682460,1000,12,0,1,1694.730,0.065,25.227,339.460,-11.679,4.596
1782117235.836575,0.181000,1682461,1000,12,0,1,1687.356,-7.916,25.251,335.401,-12.276,4.880
1782117235.837575,0.182000,1682462,1000,12,0,1,1684.858,-5.659,25.251,334.152,-12.892,5.160
1782117235.838575,0.183000,1682463,1000,12,0,1,1685.483,-3.735,25.214,333.119,-10.326,5.351
1782117235.839575,0.184000,1682464,1000,12,0,1,1687.885,1.362,25.158,332.278,-9.740,5.507
1782117235.840575,0.185000,1682465,1000,12,0,1,1691.608,5.564,25.103,329.684,-9.061,5.645
1782117235.841575,0.186000,1682466,1000,12,0,1,1693.073,7.828,25.107,330.380,-7.298,5.739
1782117235.842575,0.187000,1682467,1000,12,0,1,1696.076,9.681,25.143,328.363,-5.839,5.789
1782117235.843575,0.188000,1682468,1000,12,0,1,1710.968,20.533,25.308,331.197,-3.066,5.754
1782117235.844575,0.189000,1682469,1000,12,0,1,1725.525,32.342,25.713,335.425,3.129,5.767
1782117235.845575,0.190000,1682470,1000,12,0,1,1754.614,49.369,26.630,334.392,2.936,5.778
1782117235.846575,0.191000,1682471,1000,12,0,1,1781.925,68.406,28.159,333.239,1.696,5.772
1782117235.847575,0.192000,1682472,1000,12,0,1,1792.783,65.663,29.038,334.320,3.204,5.775
1782117235.848575,0.193000,1682473,1000,12,0,1,1775.464,40.808,28.580,339.604,7.258,5.836
1782117235.849575,0.194000,1682474,1000,12,0,1,1747.696,4.669,27.547,340.229,8.742,5.873
1782117235.850575,0.195000,1682475,1000,12,0,1,1724.300,-19.731,26.948,343.111,8.679,5.920
1782117235.851575,0.196000,1682476,1000,12,0,1,1709.287,-32.862,27.178,348.276,13.030,6.134
1782117235.852575,0.197000,1682477,1000,12,0,1,1706.044,-32.474,27.536,354.089,15.617,6.504
1782117235.853575,0.198000,1682478,1000,12,0,1,1714.908,-20.061,27.327,350.606,11.834,6.690
1782117235.854575,0.199000,1682479,1000,12,0,1,1722.258,-9.114,26.703,348.636,6.098,6.711
1782117235.855575,0.200000,1682480,1000,12,0,1,1721.754,-7.225,25.734,345.681,3.575,6.684
1782117235.856575,0.201000,1682481,1000,12,0,1,1722.691,-6.497,24.819,344.000,0.146,6.551
1782117235.857575,0.202000,1682482,1000,12,0,1,1717.190,-8.917,24.552,344.144,0.465,6.400
1782117235.858575,0.203000,1682483,1000,12,0,1,1709.359,-16.544,24.632,344.312,0.354,6.309
1782117235.859575,0.204000,1682484,1000,12,0,1,1708.879,-15.670,24.724,341.862,-1.664,6.275
1782117235.860575,0.205000,1682485,1000,12,0,1,1713.274,-10.588,24.769,340.349,-3.190,6.271
1782117235.861575,0.206000,1682486,1000,12,0,1,1713.371,-8.954,24.773,341.070,-2.347,6.270
1782117235.862575,0.207000,1682487,1000,12,0,1,1712.650,-10.098,24.698,341.286,-1.472,6.273
1782117235.863575,0.208000,1682488,1000,12,0,1,1713.971,-8.488,24.255,337.995,-4.127,6.298
1782117235.864575,0.209000,1682489,1000,12,0,1,1712.986,-8.622,23.640,336.073,-5.765,6.340
1782117235.865575,0.210000,1682490,1000,12,0,1,1712.386,-9.061,23.523,335.040,-5.801,6.390
1782117235.866575,0.211000,1682491,1000,12,0,1,1710.704,-8.874,23.556,333.359,-6.421,6.455
1782117235.867575,0.212000,1682492,1000,12,0,1,1711.401,-7.579,23.546,332.038,-6.835,6.526
1782117235.868575,0.213000,1682493,1000,12,0,1,1708.086,-7.307,23.368,330.597,-6.865,6.593
1782117235.869575,0.214000,1682494,1000,12,0,1,1709.623,-5.469,23.106,330.476,-6.193,6.601
1782117235.870575,0.215000,1682495,1000,12,0,1,1712.169,0.561,22.859,329.876,-5.177,6.573
1782117235.871575,0.216000,1682496,1000,12,0,1,1713.371,2.877,22.577,330.092,-4.341,6.539
1782117235.872575,0.217000,1682497,1000,12,0,1,1716.853,7.458,22.425,331.149,-2.153,6.525
1782117235.873575,0.218000,1682498,1000,12,0,1,1717.838,9.772,22.426,331.077,-1.345,6.517
1782117235.874575,0.219000,1682499,1000,12,0,1,1712.890,5.890,22.430,330.116,-1.439,6.503
1782117235.875575,0.220000,1682500,1000,12,0,1,1708.903,2.387,22.151,332.206,0.729,6.502
1782117235.876575,0.221000,1682501,1000,12,0,1,1718.943,10.195,21.616,331.269,1.382,6.503
1782117235.877575,0.222000,1682502,1000,12,0,1,1738.184,26.910,21.817,328.939,-0.723,6.499
1782117235.878575,0.223000,1682503,1000,12,0,1,1766.961,46.755,22.738,332.014,2.282,6.490
1782117235.879575,0.224000,1682504,1000,12,0,1,1776.953,51.551,23.522,330.044,2.376,6.486
1782117235.880575,0.225000,1682505,1000,12,0,1,1766.504,31.228,23.521,329.948,1.119,6.488
1782117235.881575,0.226000,1682506,1000,12,0,1,1746.687,6.381,23.219,334.248,5.894,6.537
1782117235.882575,0.227000,1682507,1000,12,0,1,1732.443,-12.558,23.052,336.986,8.084,6.631
1782117235.883575,0.228000,1682508,1000,12,0,1,1722.570,-21.703,23.169,339.244,9.122,6.751
1782117235.884575,0.229000,1682509,1000,12,0,1,1721.033,-23.383,23.404,339.364,8.387,6.745
1782117235.885575,0.230000,1682510,1000,12,0,1,1723.771,-18.370,23.548,339.532,6.733,6.608
1782117235.886575,0.231000,1682511,1000,12,0,1,1724.636,-15.451,23.622,339.148,5.556,6.424
1782117235.887575,0.232000,1682512,1000,12,0,1,1726.149,-12.772,23.678,336.866,2.310,6.169
1782117235.888575,0.233000,1682513,1000,12,0,1,1724.036,-11.748,23.730,337.394,1.562,5.998
1782117235.889575,0.234000,1682514,1000,12,0,1,1716.974,-16.254,23.840,337.418,1.496,5.841
1782117235.890575,0.235000,1682515,1000,12,0,1,1716.061,-14.925,23.921,339.604,2.099,5.707
1782117235.891575,0.236000,1682516,1000,12,0,1,1720.985,-7.435,23.918,338.547,1.562,5.617
1782117235.892575,0.237000,1682517,1000,12,0,1,1723.147,-2.532,23.882,335.401,-2.397,5.566
1782117235.893575,0.238000,1682518,1000,12,0,1,1726.390,0.921,23.705,334.344,-3.341,5.569
1782117235.894575,0.239000,1682519,1000,12,0,1,1728.648,4.376,23.268,334.608,-2.813,5.566
1782117235.895575,0.240000,1682520,1000,12,0,1,1728.792,4.089,22.203,331.197,-4.866,5.593
1782117235.896575,0.241000,1682521,1000,12,0,1,1727.879,3.124,19.989,330.741,-5.456,5.641
1782117235.897575,0.242000,1682522,1000,12,0,1,1726.654,1.367,17.703,329.660,-4.573,5.660
1782117235.898575,0.243000,1682523,1000,12,0,1,1728.936,2.418,16.739,327.138,-6.182,5.634
1782117235.899575,0.244000,1682524,1000,12,0,1,1731.674,4.484,16.738,325.864,-6.103,5.564
1782117235.900575,0.245000,1682525,1000,12,0,1,1733.212,4.392,16.515,325.432,-5.097,5.475
1782117235.901575,0.246000,1682526,1000,12,0,1,1732.995,3.075,15.854,323.703,-5.239,5.208
1782117235.902575,0.247000,1682527,1000,12,0,1,1731.963,0.643,15.175,322.213,-5.400,4.778
1782117235.903575,0.248000,1682528,1000,12,0,1,1733.860,1.053,14.908,323.655,-3.198,4.498
1782117235.904575,0.249000,1682529,1000,12,0,1,1734.076,1.057,14.853,325.936,0.120,4.415
1782117235.905575,0.250000,1682530,1000,12,0,1,1740.634,4.670,14.832,325.288,0.211,4.386
1782117235.906575,0.251000,1682531,1000,12,0,1,1742.219,7.056,14.837,322.598,-1.808,4.393
1782117235.907575,0.252000,1682532,1000,12,0,1,1742.676,4.606,14.798,321.469,-2.583,4.408
1782117235.908575,0.253000,1682533,1000,12,0,1,1741.811,4.017,14.623,323.871,0.089,4.408
1782117235.909575,0.254000,1682534,1000,12,0,1,1737.511,-0.732,14.454,326.705,3.218,4.425
1782117235.910575,0.255000,1682535,1000,12,0,1,1733.428,-4.317,14.390,328.218,4.513,4.448
1782117235.911575,0.256000,1682536,1000,12,0,1,1732.083,-4.823,14.350,327.666,3.859,4.469
1782117235.912575,0.257000,1682537,1000,12,0,1,1729.512,-5.636,14.301,329.540,4.593,4.511
1782117235.913575,0.258000,1682538,1000,12,0,1,1732.515,-2.744,14.256,327.546,3.520,4.501
1782117235.914575,0.259000,1682539,1000,12,0,1,1732.587,-0.557,14.204,325.432,0.504,4.427
1782117235.915575,0.260000,1682540,1000,12,0,1,1738.977,3.393,14.154,325.552,1.133,4.353
1782117235.916575,0.261000,1682541,1000,12,0,1,1748.753,12.400,14.207,322.742,-0.681,4.258
1782117235.917575,0.262000,1682542,1000,12,0,1,1756.031,16.301,14.353,324.063,-0.026,4.147
1782117235.918575,0.263000,1682543,1000,12,0,1,1758.121,15.166,14.475,323.655,1.387,4.037
1782117235.919575,0.264000,1682544,1000,12,0,1,1750.434,5.429,14.475,323.751,0.694,3.942
1782117235.920575,0.265000,1682545,1000,12,0,1,1739.841,-7.355,14.512,324.351,2.228,3.886
1782117235.921575,0.266000,1682546,1000,12,0,1,1732.515,-14.380,14.648,323.991,1.629,3.844
1782117235.922575,0.267000,1682547,1000,12,0,1,1730.689,-15.827,14.781,323.006,0.955,3.834
1782117235.923575,0.268000,1682548,1000,12,0,1,1731.602,-12.978,14.830,322.093,0.027,3.830
1782117235.924575,0.269000,1682549,1000,12,0,1,1731.122,-11.775,14.900,323.751,1.201,3.828
1782117235.925575,0.270000,1682550,1000,12,0,1,1726.342,-13.710,15.022,324.063,1.938,3.837
1782117235.926575,0.271000,1682551,1000,12,0,1,1727.519,-11.856,15.046,324.711,1.564,3.838
1782117235.927575,0.272000,1682552,1000,12,0,1,1730.593,-5.785,14.580,324.832,1.825,3.845
1782117235.928575,0.273000,1682553,1000,12,0,1,1736.839,0.346,12.994,324.808,0.969,3.834
1782117235.929575,0.274000,1682554,1000,12,0,1,1745.678,9.348,10.837,324.495,0.664,3.820
1782117235.930575,0.275000,1682555,1000,12,0,1,1752.308,14.672,10.112,325.144,0.643,3.818
1782117235.931575,0.276000,1682556,1000,12,0,1,1753.053,14.027,10.265,326.081,1.491,3.732
1782117235.932575,0.277000,1682557,1000,12,0,1,1749.281,8.710,10.185,325.384,0.759,3.554
1782117235.933575,0.278000,1682558,1000,12,0,1,1748.777,5.906,9.747,322.381,-1.849,3.322
1782117235.934575,0.279000,1682559,1000,12,0,1,1750.050,6.386,9.214,320.268,-3.635,3.146
1782117235.935575,0.280000,1682560,1000,12,0,1,1752.284,6.546,8.888,319.667,-3.370,3.036
1782117235.936575,0.281000,1682561,1000,12,0,1,1758.097,9.986,8.730,321.276,-1.291,2.938
1782117235.937575,0.282000,1682562,1000,12,0,1,1760.931,10.889,8.679,319.427,-1.508,2.927
1782117235.938575,0.283000,1682563,1000,12,0,1,1758.625,6.278,8.565,316.689,-3.775,2.968
1782117235.939575,0.284000,1682564,1000,12,0,1,1755.959,1.388,8.253,318.274,-1.717,2.970
1782117235.940575,0.285000,1682565,1000,12,0,1,1755.118,-1.019,7.980,318.226,-0.307,2.955
1782117235.941575,0.286000,1682566,1000,12,0,1,1757.040,-0.728,7.911,317.745,-0.822,2.949
1782117235.942575,0.287000,1682567,1000,12,0,1,1757.713,-0.726,7.903,317.505,-0.254,2.930
1782117235.943575,0.288000,1682568,1000,12,0,1,1757.593,-2.165,7.908,316.665,-0.878,2.894
1782117235.944575,0.289000,1682569,1000,12,0,1,1755.142,-4.580,7.911,319.211,1.219,2.872
1782117235.945575,0.290000,1682570,1000,12,0,1,1753.773,-6.651,7.945,319.211,1.991,2.803
1782117235.946575,0.291000,1682571,1000,12,0,1,1754.062,-5.946,7.977,319.139,0.921,2.698
1782117235.947575,0.292000,1682572,1000,12,0,1,1753.509,-5.974,8.020,319.115,1.191,2.624
1782117235.948575,0.293000,1682573,1000,12,0,1,1753.077,-5.991,8.057,319.163,0.662,2.476
1782117235.949575,0.294000,1682574,1000,12,0,1,1752.020,-6.014,8.077,319.091,0.692,2.323
1782117235.950575,0.295000,1682575,1000,12,0,1,1752.476,-5.290,8.088,319.619,0.855,2.212
1782117235.951575,0.296000,1682576,1000,12,0,1,1753.869,-3.036,8.087,317.001,-0.889,2.088
1782117235.952575,0.297000,1682577,1000,12,0,1,1754.422,-2.125,8.093,315.055,-2.931,1.987
1782117235.953575,0.298000,1682578,1000,12,0,1,1755.311,-1.141,8.093,317.673,-0.155,1.935
1782117235.954575,0.299000,1682579,1000,12,0,1,1754.542,-1.434,8.094,317.625,1.093,1.941
1782117235.955575,0.300000,1682580,1000,12,0,1,1755.239,-1.311,8.069,317.289,0.378,1.941
1782117235.956575,0.301000,1682581,1000,12,0,1,1755.431,-0.661,8.008,317.265,1.204,1.932
1782117235.957575,0.302000,1682582,1000,12,0,1,1754.302,-2.016,7.986,315.728,0.016,1.897
1782117235.958575,0.303000,1682583,1000,12,0,1,1756.031,-0.904,7.967,314.335,-0.818,1.900
1782117235.959575,0.304000,1682584,1000,12,0,1,1756.440,-0.135,7.966,312.989,-1.433,1.856
1782117235.960575,0.305000,1682585,1000,12,0,1,1757.737,0.018,7.943,312.989,-1.070,1.750
1782117235.961575,0.306000,1682586,1000,12,0,1,1757.232,-0.045,7.914,313.806,0.291,1.663
1782117235.962575,0.307000,1682587,1000,12,0,1,1758.818,0.053,7.873,314.310,0.953,1.537
1782117235.963575,0.308000,1682588,1000,12,0,1,1758.385,0.354,7.864,313.662,0.579,1.456
1782117235.964575,0.309000,1682589,1000,12,0,1,1757.545,-1.421,7.866,312.221,-0.772,1.458
1782117235.965575,0.310000,1682590,1000,12,0,1,1758.770,-0.229,7.852,312.437,-0.707,1.453
1782117235.966575,0.311000,1682591,1000,12,0,1,1758.025,-0.562,7.654,312.869,-0.000,1.450
1782117235.967575,0.312000,1682592,1000,12,0,1,1759.130,-0.238,7.298,313.926,0.689,1.453
1782117235.968575,0.313000,1682593,1000,12,0,1,1761.508,2.370,6.984,314.286,1.191,1.449
1782117235.969575,0.314000,1682594,1000,12,0,1,1761.220,1.917,6.947,314.767,1.176,1.456
1782117235.970575,0.315000,1682595,1000,12,0,1,1762.421,2.303,6.876,313.566,0.384,1.422
1782117235.971575,0.316000,1682596,1000,12,0,1,1762.949,2.821,6.581,313.734,-0.005,1.403
1782117235.972575,0.317000,1682597,1000,12,0,1,1760.667,0.402,6.189,314.743,1.355,1.410
1782117235.973575,0.318000,1682598,1000,12,0,1,1759.442,-1.251,5.913,316.040,2.357,1.449
1782117235.974575,0.319000,1682599,1000,12,0,1,1756.968,-2.891,5.688,315.007,1.835,1.462
1782117235.975575,0.320000,1682600,1000,12,0,1,1750.915,-7.806,5.461,315.103,1.376,1.449
1782117235.976575,0.321000,1682601,1000,12,0,1,1750.458,-8.206,5.325,315.728,2.348,1.470
1782117235.977575,0.322000,1682602,1000,12,0,1,1752.524,-4.492,5.300,313.182,0.391,1.449
1782117235.978575,0.323000,1682603,1000,12,0,1,1758.217,0.409,5.300,310.203,-2.351,1.480
1782117235.979575,0.324000,1682604,1000,12,0,1,1760.403,3.535,5.157,309.410,-2.465,1.517
1782117235.980575,0.325000,1682605,1000,12,0,1,1758.241,0.546,4.721,309.290,-1.859,1.537
1782117235.981575,0.326000,1682606,1000,12,0,1,1760.307,1.323,4.289,308.089,-2.118,1.552
1782117235.982575,0.327000,1682607,1000,12,0,1,1766.456,6.308,4.204,308.738,-1.474,1.562
1782117235.983575,0.328000,1682608,1000,12,0,1,1765.063,5.009,4.180,308.810,-0.496,1.542
1782117235.984575,0.329000,1682609,1000,12,0,1,1760.451,-0.858,4.083,308.257,-1.108,1.462
1782117235.985575,0.330000,1682610,1000,12,0,1,1756.488,-4.434,4.026,310.635,0.891,1.388
1782117235.986575,0.331000,1682611,1000,12,0,1,1750.963,-8.552,3.960,314.022,3.883,1.481
1782117235.987575,0.332000,1682612,1000,12,0,1,1746.519,-11.445,3.991,313.422,3.136,1.532
1782117235.988575,0.333000,1682613,1000,12,0,1,1739.049,-14.959,4.429,316.689,4.214,1.554
1782117235.989575,0.334000,1682614,1000,12,0,1,1736.478,-15.682,4.949,316.112,4.307,1.652
1782117235.990575,0.335000,1682615,1000,12,0,1,1743.156,-6.440,5.030,312.701,-0.371,1.652
1782117235.991575,0.336000,1682616,1000,12,0,1,1744.405,-1.798,5.035,313.206,-0.305,1.648
1782117235.992575,0.337000,1682617,1000,12,0,1,1740.538,-4.213,5.070,314.383,1.041,1.655
1782117235.993575,0.338000,1682618,1000,12,0,1,1751.251,4.683,5.103,310.179,-2.152,1.678
1782117235.994575,0.339000,1682619,1000,12,0,1,1767.393,20.317,5.821,306.288,-5.684,1.852
1782117235.995575,0.340000,1682620,1000,12,0,1,1765.664,18.199,6.294,308.618,-2.968,1.878
1782117235.996575,0.341000,1682621,1000,12,0,1,1757.064,6.451,6.304,312.629,1.999,1.895
1782117235.997575,0.342000,1682622,1000,12,0,1,1765.784,10.593,6.425,309.891,0.552,1.889
1782117235.998575,0.343000,1682623,1000,12,0,1,1780.196,22.523,7.121,305.951,-3.193,1.940
1782117235.999575,0.344000,1682624,1000,12,0,1,1776.665,17.382,7.485,305.927,-2.626,1.973
1782117236.000575,0.345000,1682625,1000,12,0,1,1767.153,3.926,7.468,306.840,-0.794,1.972
1782117236.001575,0.346000,1682626,1000,12,0,1,1759.178,-4.401,7.482,306.336,-0.716,1.971
1782117236.002575,0.347000,1682627,1000,12,0,1,1751.323,-11.724,7.657,310.755,2.671,1.964
1782117236.003575,0.348000,1682628,1000,12,0,1,1746.903,-14.528,7.927,313.614,5.862,2.131
1782117236.004575,0.349000,1682629,1000,12,0,1,1754.974,-6.571,7.978,310.900,2.543,2.156
1782117236.005575,0.350000,1682630,1000,12,0,1,1770.035,8.542,8.067,306.192,-2.353,2.181
1782117236.006575,0.351000,1682631,1000,12,0,1,1777.193,15.059,8.343,305.759,-3.373,2.226
1782117236.007575,0.352000,1682632,1000,12,0,1,1778.370,13.290,8.547,304.678,-3.296,2.274
1782117236.008575,0.353000,1682633,1000,12,0,1,1771.669,5.991,8.588,305.903,-2.618,2.301
1782117236.009575,0.354000,1682634,1000,12,0,1,1767.801,-0.753,8.589,308.137,0.258,2.292
1782117236.010575,0.355000,1682635,1000,12,0,1,1768.498,-0.173,8.589,309.122,1.138,2.293
1782117236.011575,0.356000,1682636,1000,12,0,1,1777.770,5.890,8.629,303.453,-2.963,2.331
1782117236.012575,0.357000,1682637,1000,12,0,1,1788.291,14.684,8.875,298.121,-7.913,2.582
1782117236.013575,0.358000,1682638,1000,12,0,1,1787.354,11.612,9.026,301.652,-3.897,2.639
1782117236.014575,0.359000,1682639,1000,12,0,1,1786.081,5.956,9.063,301.892,-0.903,2.640
1782117236.015575,0.360000,1682640,1000,12,0,1,1779.547,-0.607,9.063,303.357,-0.124,2.638
1782117236.016575,0.361000,1682641,1000,12,0,1,1780.172,-4.176,9.082,302.636,1.413,2.645
1782117236.017575,0.362000,1682642,1000,12,0,1,1785.649,1.270,9.084,301.580,-0.083,2.644
1782117236.018575,0.363000,1682643,1000,12,0,1,1788.267,1.780,9.081,301.195,0.795,2.641
1782117236.019575,0.364000,1682644,1000,12,0,1,1786.994,-0.349,9.077,301.051,0.782,2.638
1782117236.020575,0.365000,1682645,1000,12,0,1,1785.649,-3.298,9.083,299.610,0.258,2.637
1782117236.021575,0.366000,1682646,1000,12,0,1,1785.048,-4.447,9.096,299.033,-0.251,2.638
1782117236.022575,0.367000,1682647,1000,12,0,1,1785.072,-4.834,9.122,300.451,1.261,2.637
1782117236.023575,0.368000,1682648,1000,12,0,1,1781.805,-7.416,9.180,302.204,3.026,2.650
1782117236.024575,0.369000,1682649,1000,12,0,1,1780.484,-8.881,9.257,301.075,1.950,2.652
1782117236.025575,0.370000,1682650,1000,12,0,1,1783.775,-5.426,9.223,300.955,1.136,2.650
1782117236.026575,0.371000,1682651,1000,12,0,1,1789.132,-0.222,9.149,302.324,2.180,2.647
1782117236.027575,0.372000,1682652,1000,12,0,1,1788.555,-0.318,9.127,302.084,1.901,2.660
1782117236.028575,0.373000,1682653,1000,12,0,1,1785.553,-3.959,9.144,302.684,1.640,2.649
1782117236.029575,0.374000,1682654,1000,12,0,1,1784.063,-5.416,9.163,303.525,2.455,2.649
1782117236.030575,0.375000,1682655,1000,12,0,1,1775.224,-11.684,9.310,305.039,3.091,2.672
1782117236.031575,0.376000,1682656,1000,12,0,1,1768.810,-17.664,9.638,306.240,4.078,2.717
1782117236.032575,0.377000,1682657,1000,12,0,1,1762.925,-19.178,9.972,307.080,4.106,2.771
1782117236.033575,0.378000,1682658,1000,12,0,1,1756.223,-22.732,10.454,308.810,5.074,2.861
1782117236.034575,0.379000,1682659,1000,12,0,1,1756.920,-18.939,10.791,309.098,4.961,2.942
1782117236.035575,0.380000,1682660,1000,12,0,1,1755.959,-15.048,10.981,309.290,4.175,2.998
1782117236.036575,0.381000,1682661,1000,12,0,1,1762.012,-8.520,10.980,306.047,1.450,2.954
1782117236.037575,0.382000,1682662,1000,12,0,1,1774.575,5.513,10.888,301.075,-3.528,2.963
1782117236.038575,0.383000,1682663,1000,12,0,1,1773.831,6.603,10.721,298.073,-5.669,3.011
1782117236.039575,0.384000,1682664,1000,12,0,1,1776.569,6.116,10.525,300.403,-3.220,2.984
1782117236.040575,0.385000,1682665,1000,12,0,1,1783.511,12.842,10.642,300.042,-1.769,2.994
1782117236.041575,0.386000,1682666,1000,12,0,1,1778.875,8.179,10.701,299.250,-2.834,3.020
1782117236.042575,0.387000,1682667,1000,12,0,1,1773.422,1.111,10.686,302.829,0.573,3.018
1782117236.043575,0.388000,1682668,1000,12,0,1,1770.324,-1.052,10.667,304.246,2.350,3.021
1782117236.044575,0.389000,1682669,1000,12,0,1,1772.365,0.364,10.272,300.835,-1.155,2.916
1782117236.045575,0.390000,1682670,1000,12,0,1,1786.249,12.427,10.099,295.262,-6.154,3.014
1782117236.046575,0.391000,1682671,1000,12,0,1,1801.142,25.277,10.674,296.031,-6.003,3.119
1782117236.047575,0.392000,1682672,1000,12,0,1,1804.409,25.693,11.175,296.055,-3.984,3.168
1782117236.048575,0.393000,1682673,1000,12,0,1,1799.244,16.887,10.975,297.064,-3.527,3.175
1782117236.049575,0.394000,1682674,1000,12,0,1,1793.047,7.916,10.754,298.841,-0.732,3.155
1782117236.050575,0.395000,1682675,1000,12,0,1,1790.261,3.074,10.749,299.730,0.080,3.153
1782117236.051575,0.396000,1682676,1000,12,0,1,1785.769,-1.365,10.733,299.490,0.284,3.152
1782117236.052575,0.397000,1682677,1000,12,0,1,1786.754,-2.304,10.609,297.040,-1.455,3.136
1782117236.053575,0.398000,1682678,1000,12,0,1,1787.714,-0.551,10.408,298.553,-0.426,3.025
1782117236.054575,0.399000,1682679,1000,12,0,1,1786.802,-2.454,10.372,296.583,-0.207,3.004
1782117236.055575,0.400000,1682680,1000,12,0,1,1787.739,-2.121,10.306,295.718,-1.677,2.995
1782117236.056575,0.401000,1682681,1000,12,0,1,1788.267,-1.947,10.088,297.328,1.235,2.962
1782117236.057575,0.402000,1682682,1000,12,0,1,1785.264,-4.973,9.936,296.367,0.969,2.928
1782117236.058575,0.403000,1682683,1000,12,0,1,1784.207,-6.688,9.945,296.487,1.144,2.909
1782117236.059575,0.404000,1682684,1000,12,0,1,1785.433,-5.403,9.973,295.670,1.300,2.914
1782117236.060575,0.405000,1682685,1000,12,0,1,1786.081,-4.610,9.995,295.646,0.950,2.913
1782117236.061575,0.406000,1682686,1000,12,0,1,1785.000,-5.483,9.990,295.286,1.340,2.889
1782117236.062575,0.407000,1682687,1000,12,0,1,1784.880,-5.570,9.804,293.845,-0.135,2.664
1782117236.063575,0.408000,1682688,1000,12,0,1,1786.441,-3.852,9.680,292.740,-0.917,2.609
1782117236.064575,0.409000,1682689,1000,12,0,1,1784.832,-4.282,9.663,295.478,1.094,2.611
1782117236.065575,0.410000,1682690,1000,12,0,1,1780.676,-7.609,9.722,296.896,2.934,2.643
1782117236.066575,0.411000,1682691,1000,12,0,1,1777.818,-9.006,9.787,296.439,1.704,2.647
1782117236.067575,0.412000,1682692,1000,12,0,1,1778.635,-6.957,9.835,298.073,2.453,2.669
1782117236.068575,0.413000,1682693,1000,12,0,1,1778.274,-4.995,9.857,298.937,3.050,2.702
1782117236.069575,0.414000,1682694,1000,12,0,1,1775.392,-6.167,9.896,298.289,1.688,2.710
1782117236.070575,0.415000,1682695,1000,12,0,1,1779.980,-1.637,9.887,301.531,3.585,2.757
1782117236.071575,0.416000,1682696,1000,12,0,1,1785.048,4.943,9.892,297.400,0.944,2.760
1782117236.072575,0.417000,1682697,1000,12,0,1,1787.066,6.283,9.908,296.679,-1.840,2.766
1782117236.073575,0.418000,1682698,1000,12,0,1,1782.406,2.627,9.860,296.463,-0.234,2.733
1782117236.074575,0.419000,1682699,1000,12,0,1,1784.352,2.025,9.783,293.701,-2.885,2.750
1782117236.075575,0.420000,1682700,1000,12,0,1,1792.615,9.709,9.849,293.220,-2.690,2.771
1782117236.076575,0.421000,1682701,1000,12,0,1,1790.693,7.826,9.911,292.356,-2.180,2.771
1782117236.077575,0.422000,1682702,1000,12,0,1,1781.998,-1.919,9.915,295.142,0.181,2.758
1782117236.078575,0.423000,1682703,1000,12,0,1,1772.678,-10.126,10.002,297.640,3.808,2.801
1782117236.079575,0.424000,1682704,1000,12,0,1,1777.482,-7.005,10.022,294.686,1.085,2.783
1782117236.080575,0.425000,1682705,1000,12,0,1,1793.359,8.722,9.961,289.761,-3.204,2.786
1782117236.081575,0.426000,1682706,1000,12,0,1,1798.716,13.807,9.839,286.422,-5.885,2.850
1782117236.082575,0.427000,1682707,1000,12,0,1,1795.497,8.222,9.529,290.314,-2.182,2.807
1782117236.083575,0.428000,1682708,1000,12,0,1,1793.023,3.993,8.988,290.314,-0.203,2.714
1782117236.084575,0.429000,1682709,1000,12,0,1,1789.636,0.187,8.580,290.002,-1.525,2.630
1782117236.085575,0.430000,1682710,1000,12,0,1,1787.522,-2.472,8.319,291.587,0.535,2.564
1782117236.086575,0.431000,1682711,1000,12,0,1,1788.795,-1.268,8.233,291.707,0.480,2.557
1782117236.087575,0.432000,1682712,1000,12,0,1,1790.357,0.549,8.196,293.196,1.259,2.514
1782117236.088575,0.433000,1682713,1000,12,0,1,1792.927,2.500,8.151,295.310,3.063,2.422
1782117236.089575,0.434000,1682714,1000,12,0,1,1794.560,4.006,8.125,293.557,1.314,2.386
1782117236.090575,0.435000,1682715,1000,12,0,1,1792.014,1.392,7.921,292.812,-0.171,2.373
1782117236.091575,0.436000,1682716,1000,12,0,1,1789.684,-1.476,7.839,294.085,1.088,2.344
1782117236.092575,0.437000,1682717,1000,12,0,1,1789.276,-1.792,7.842,294.109,1.363,2.351
1782117236.093575,0.438000,1682718,1000,12,0,1,1789.372,-1.656,7.844,294.758,1.634,2.338
1782117236.094575,0.439000,1682719,1000,12,0,1,1789.276,-1.686,7.847,292.187,0.241,2.333
1782117236.095575,0.440000,1682720,1000,12,0,1,1786.153,-4.099,7.670,291.995,-0.648,2.166
1782117236.096575,0.441000,1682721,1000,12,0,1,1783.271,-6.865,6.855,292.956,1.439,2.004
1782117236.097575,0.442000,1682722,1000,12,0,1,1783.583,-6.045,5.875,293.845,2.092,1.945
1782117236.098575,0.443000,1682723,1000,12,0,1,1785.769,-3.502,5.391,291.227,0.653,1.883
1782117236.099575,0.444000,1682724,1000,12,0,1,1782.766,-4.958,5.320,292.043,0.420,1.881
1782117236.100575,0.445000,1682725,1000,12,0,1,1779.595,-8.018,5.422,290.866,0.759,1.884
1782117236.101575,0.446000,1682726,1000,12,0,1,1781.349,-5.560,5.475,290.578,-0.474,1.884
1782117236.102575,0.447000,1682727,1000,12,0,1,1786.513,-0.193,5.466,291.659,1.004,1.879
1782117236.103575,0.448000,1682728,1000,12,0,1,1786.177,0.770,5.466,290.626,0.011,1.878
1782117236.104575,0.449000,1682729,1000,12,0,1,1782.118,-3.107,5.473,289.353,-1.601,1.891
1782117236.105575,0.450000,1682730,1000,12,0,1,1780.124,-4.410,5.500,290.962,-0.382,1.877
1782117236.106575,0.451000,1682731,1000,12,0,1,1787.979,2.447,5.504,289.761,-1.082,1.875
1782117236.107575,0.452000,1682732,1000,12,0,1,1790.573,6.946,5.547,290.122,-1.602,1.884
1782117236.108575,0.453000,1682733,1000,12,0,1,1787.594,3.026,5.482,289.954,-1.175,1.884
1782117236.109575,0.454000,1682734,1000,12,0,1,1787.714,2.758,5.443,290.866,-0.903,1.879
1782117236.110575,0.455000,1682735,1000,12,0,1,1787.546,3.008,5.420,291.443,0.083,1.875
1782117236.111575,0.456000,1682736,1000,12,0,1,1786.778,1.905,5.371,288.873,-1.930,1.885
1782117236.112575,0.457000,1682737,1000,12,0,1,1786.009,1.512,5.317,286.711,-3.834,1.961
1782117236.113575,0.458000,1682738,1000,12,0,1,1783.247,-0.870,5.291,288.632,-1.481,1.968
1782117236.114575,0.459000,1682739,1000,12,0,1,1779.475,-3.823,5.284,290.026,0.840,1.966
1782117236.115575,0.460000,1682740,1000,12,0,1,1779.091,-4.047,5.205,289.545,0.872,1.925
1782117236.116575,0.461000,1682741,1000,12,0,1,1784.231,1.036,5.048,288.680,0.432,1.911
1782117236.117575,0.462000,1682742,1000,12,0,1,1784.904,2.675,4.966,289.041,1.084,1.886
1782117236.118575,0.463000,1682743,1000,12,0,1,1785.649,1.908,4.923,288.584,1.250,1.844
1782117236.119575,0.464000,1682744,1000,12,0,1,1792.855,7.432,4.958,286.735,-0.114,1.829
1782117236.120575,0.465000,1682745,1000,12,0,1,1795.569,9.576,5.134,284.237,-1.968,1.779
1782117236.121575,0.466000,1682746,1000,12,0,1,1790.765,3.442,5.110,286.278,-0.295,1.774
1782117236.122575,0.467000,1682747,1000,12,0,1,1784.207,-3.577,5.057,288.296,2.410,1.788
1782117236.123575,0.468000,1682748,1000,12,0,1,1781.613,-6.424,5.125,286.951,0.996,1.793
1782117236.124575,0.469000,1682749,1000,12,0,1,1783.607,-3.944,5.147,284.741,-1.281,1.755
1782117236.125575,0.470000,1682750,1000,12,0,1,1787.450,0.122,4.960,285.101,-1.268,1.723
1782117236.126575,0.471000,1682751,1000,12,0,1,1787.763,1.183,4.838,288.344,1.509,1.709
1782117236.127575,0.472000,1682752,1000,12,0,1,1784.400,-1.782,4.837,289.665,2.822,1.754
1782117236.128575,0.473000,1682753,1000,12,0,1,1789.036,1.410,4.625,286.999,-0.039,1.670
1782117236.129575,0.474000,1682754,1000,12,0,1,1796.314,8.832,4.687,285.582,-1.927,1.685
1782117236.130575,0.475000,1682755,1000,12,0,1,1795.089,7.368,4.640,284.981,-2.022,1.648
1782117236.131575,0.476000,1682756,1000,12,0,1,1794.584,4.744,4.262,286.038,-1.053,1.430
1782117236.132575,0.477000,1682757,1000,12,0,1,1792.879,3.271,4.127,286.759,0.342,1.397
1782117236.133575,0.478000,1682758,1000,12,0,1,1793.335,1.880,4.097,285.462,-0.469,1.398
1782117236.134575,0.479000,1682759,1000,12,0,1,1793.527,2.314,4.110,284.789,-0.838,1.387
1782117236.135575,0.480000,1682760,1000,12,0,1,1793.191,0.788,4.096,285.726,0.573,1.387
1782117236.136575,0.481000,1682761,1000,12,0,1,1790.141,-1.820,4.100,286.326,1.665,1.405
1782117236.137575,0.482000,1682762,1000,12,0,1,1789.780,-3.322,4.126,285.630,1.429,1.409
1782117236.138575,0.483000,1682763,1000,12,0,1,1792.471,-0.721,4.113,283.516,-0.141,1.340
1782117236.139575,0.484000,1682764,1000,12,0,1,1792.206,-0.839,4.075,283.876,0.109,1.328
1782117236.140575,0.485000,1682765,1000,12,0,1,1792.206,-1.847,4.079,285.149,1.837,1.353
1782117236.141575,0.486000,1682766,1000,12,0,1,1792.831,-1.161,4.077,285.318,1.951,1.372
1782117236.142575,0.487000,1682767,1000,12,0,1,1791.870,-2.389,4.083,286.543,2.573,1.406
1782117236.143575,0.488000,1682768,1000,12,0,1,1792.615,-2.054,4.086,285.942,2.081,1.418
1782117236.144575,0.489000,1682769,1000,12,0,1,1791.486,-2.547,4.095,285.918,1.005,1.425
1782117236.145575,0.490000,1682770,1000,12,0,1,1791.822,-2.749,4.073,285.101,0.369,1.423
1782117236.146575,0.491000,1682771,1000,12,0,1,1793.816,-0.425,3.956,286.615,0.579,1.410
1782117236.147575,0.492000,1682772,1000,12,0,1,1792.399,-1.193,3.866,285.822,0.432,1.380
1782117236.148575,0.493000,1682773,1000,12,0,1,1792.591,-1.533,3.840,285.029,-1.367,1.391
1782117236.149575,0.494000,1682774,1000,12,0,1,1793.023,-0.261,3.776,282.795,-2.678,1.440
1782117236.150575,0.495000,1682775,1000,12,0,1,1793.527,-0.044,3.601,284.237,-2.149,1.468
1782117236.151575,0.496000,1682776,1000,12,0,1,1791.702,-0.863,3.517,285.053,-0.142,1.466
1782117236.152575,0.497000,1682777,1000,12,0,1,1792.086,-1.143,3.520,285.438,-0.144,1.460
1782117236.153575,0.498000,1682778,1000,12,0,1,1790.381,-1.369,3.524,285.414,0.394,1.461
1782117236.154575,0.499000,1682779,1000,12,0,1,1790.645,-1.883,3.507,283.036,-1.271,1.454
1782117236.155575,0.500000,1682780,1000,12,0,1,1789.732,-1.414,3.456,281.474,-2.572,1.498
1782117236.156575,0.501000,1682781,1000,12,0,1,1785.360,-5.148,3.515,282.315,-0.937,1.496
1782117236.157575,0.502000,1682782,1000,12,0,1,1784.592,-5.757,3.472,281.787,-0.574,1.481
1782117236.158575,0.503000,1682783,1000,12,0,1,1788.651,-1.255,3.450,282.747,0.440,1.473
1782117236.159575,0.504000,1682784,1000,12,0,1,1791.438,1.791,3.437,280.826,-0.197,1.468
1782117236.160575,0.505000,1682785,1000,12,0,1,1793.287,3.027,3.438,278.712,-2.309,1.504
1782117236.161575,0.506000,1682786,1000,12,0,1,1794.512,3.549,3.464,277.847,-2.317,1.515
1782117236.162575,0.507000,1682787,1000,12,0,1,1792.278,1.288,3.462,278.880,-1.159,1.424
1782117236.163575,0.508000,1682788,1000,12,0,1,1791.798,-0.366,3.460,279.529,0.048,1.408
1782117236.164575,0.509000,1682789,1000,12,0,1,1791.294,-0.262,3.418,275.949,-2.595,1.450
1782117236.165575,0.510000,1682790,1000,12,0,1,1791.173,-0.892,3.372,274.652,-4.248,1.565
1782117236.166575,0.511000,1682791,1000,12,0,1,1791.125,-0.371,3.369,276.694,-1.511,1.578
1782117236.167575,0.512000,1682792,1000,12,0,1,1788.003,-2.661,3.369,277.271,-0.502,1.572
1782117236.168575,0.513000,1682793,1000,12,0,1,1787.811,-2.948,3.384,280.153,1.701,1.581
1782117236.169575,0.514000,1682794,1000,12,0,1,1786.730,-2.226,3.232,281.234,3.246,1.646
1782117236.170575,0.515000,1682795,1000,12,0,1,1785.745,-2.944,2.964,280.225,1.688,1.640
1782117236.171575,0.516000,1682796,1000,12,0,1,1787.402,-0.461,2.924,280.513,1.709,1.657
1782117236.172575,0.517000,1682797,1000,12,0,1,1791.918,3.744,2.928,279.817,1.348,1.633
1782117236.173575,0.518000,1682798,1000,12,0,1,1792.038,4.687,2.862,279.120,0.560,1.629
1782117236.174575,0.519000,1682799,1000,12,0,1,1790.069,1.891,2.820,280.585,2.043,1.644
1782117236.175575,0.520000,1682800,1000,12,0,1,1789.540,1.198,2.825,275.973,-0.789,1.638
1782117236.176575,0.521000,1682801,1000,12,0,1,1790.213,1.488,2.828,275.061,-2.563,1.664
1782117236.177575,0.522000,1682802,1000,12,0,1,1793.407,3.661,2.864,276.574,0.595,1.618
1782117236.178575,0.523000,1682803,1000,12,0,1,1790.333,1.539,2.865,275.613,0.154,1.618
1782117236.179575,0.524000,1682804,1000,12,0,1,1789.780,-1.112,2.583,276.526,1.062,1.602
1782117236.180575,0.525000,1682805,1000,12,0,1,1787.594,-1.665,2.375,276.934,2.152,1.605
1782117236.181575,0.526000,1682806,1000,12,0,1,1785.673,-4.484,2.365,275.829,0.926,1.604
1782117236.182575,0.527000,1682807,1000,12,0,1,1785.481,-3.596,2.375,277.223,1.878,1.625
1782117236.183575,0.528000,1682808,1000,12,0,1,1788.555,-1.023,2.364,279.072,3.424,1.694
1782117236.184575,0.529000,1682809,1000,12,0,1,1789.012,0.567,2.343,281.522,4.752,1.819
1782117236.185575,0.530000,1682810,1000,12,0,1,1794.320,3.877,2.403,278.400,1.982,1.838
1782117236.186575,0.531000,1682811,1000,12,0,1,1800.349,9.681,2.754,279.072,0.391,1.824
1782117236.187575,0.532000,1682812,1000,12,0,1,1799.461,7.938,2.937,279.697,1.680,1.828
1782117236.188575,0.533000,1682813,1000,12,0,1,1795.617,2.864,2.963,278.400,-0.539,1.830
1782117236.189575,0.534000,1682814,1000,12,0,1,1796.938,2.819,2.987,278.183,-0.906,1.834
1782117236.190575,0.535000,1682815,1000,12,0,1,1800.662,5.731,3.084,275.757,-2.633,1.854
1782117236.191575,0.536000,1682816,1000,12,0,1,1803.640,7.539,3.259,275.709,-3.155,1.886
1782117236.192575,0.537000,1682817,1000,12,0,1,1801.959,5.142,3.322,276.550,-1.163,1.858
1782117236.193575,0.538000,1682818,1000,12,0,1,1800.157,1.887,3.320,278.063,0.074,1.835
1782117236.194575,0.539000,1682819,1000,12,0,1,1794.344,-3.108,3.330,277.151,0.401,1.830
1782117236.195575,0.540000,1682820,1000,12,0,1,1785.024,-11.494,3.685,277.967,0.489,1.831
1782117236.196575,0.541000,1682821,1000,12,0,1,1782.262,-13.521,4.151,280.634,3.551,1.897
1782117236.197575,0.542000,1682822,1000,12,0,1,1787.931,-6.706,4.254,277.655,1.398,1.906
1782117236.198575,0.543000,1682823,1000,12,0,1,1802.343,6.246,4.340,272.034,-3.902,1.975
1782117236.199575,0.544000,1682824,1000,12,0,1,1802.055,8.204,4.492,272.611,-3.344,1.995
1782117236.200575,0.545000,1682825,1000,12,0,1,1794.512,-2.003,4.501,272.058,-2.109,1.994
1782117236.201575,0.546000,1682826,1000,12,0,1,1788.267,-7.162,4.612,272.659,-1.850,2.011
1782117236.202575,0.547000,1682827,1000,12,0,1,1791.486,-5.551,4.675,273.091,-0.390,2.012
1782117236.203575,0.548000,1682828,1000,12,0,1,1787.258,-5.971,4.747,274.412,0.357,2.012
1782117236.204575,0.549000,1682829,1000,12,0,1,1783.271,-10.803,4.980,274.941,1.204,2.011
1782117236.205575,0.550000,1682830,1000,12,0,1,1783.271,-8.378,5.115,275.013,0.714,1.980
1782117236.206575,0.551000,1682831,1000,12,0,1,1794.897,1.544,5.068,274.268,-0.057,1.976
1782117236.207575,0.552000,1682832,1000,12,0,1,1805.922,13.182,5.338,276.334,1.031,1.980
1782117236.208575,0.553000,1682833,1000,12,0,1,1804.649,11.101,5.561,278.328,2.898,2.021
1782117236.209575,0.554000,1682834,1000,12,0,1,1802.199,5.988,5.620,276.886,1.303,2.029
1782117236.210575,0.555000,1682835,1000,12,0,1,1803.736,6.544,5.679,275.613,-0.573,2.004
1782117236.211575,0.556000,1682836,1000,12,0,1,1801.286,3.636,5.680,275.349,-0.545,1.978
1782117236.212575,0.557000,1682837,1000,12,0,1,1801.815,2.622,5.689,274.220,-1.338,1.981
1782117236.213575,0.558000,1682838,1000,12,0,1,1806.186,5.974,5.752,275.061,-0.445,1.982
1782117236.214575,0.559000,1682839,1000,12,0,1,1805.586,5.364,5.801,272.659,-1.359,1.957
1782117236.215575,0.560000,1682840,1000,12,0,1,1801.839,0.480,5.800,272.394,-1.949,1.883
1782117236.216575,0.561000,1682841,1000,12,0,1,1799.701,-1.855,5.806,273.331,0.245,1.871
1782117236.217575,0.562000,1682842,1000,12,0,1,1799.509,-2.353,5.803,271.602,-0.721,1.872
1782117236.218575,0.563000,1682843,1000,12,0,1,1800.085,-1.659,5.793,271.362,-0.815,1.860
1782117236.219575,0.564000,1682844,1000,12,0,1,1801.070,-1.048,5.786,271.674,0.324,1.803
1782117236.220575,0.565000,1682845,1000,12,0,1,1801.815,-0.531,5.772,271.530,0.278,1.788
1782117236.221575,0.566000,1682846,1000,12,0,1,1803.088,-0.046,5.771,270.016,-0.547,1.773
1782117236.222575,0.567000,1682847,1000,12,0,1,1801.935,-1.149,5.749,270.185,-0.802,1.767
1782117236.223575,0.568000,1682848,1000,12,0,1,1802.848,-1.580,5.715,270.377,-0.024,1.765
1782117236.224575,0.569000,1682849,1000,12,0,1,1803.928,-0.442,5.710,268.839,-1.490,1.754
1782117236.225575,0.570000,1682850,1000,12,0,1,1801.574,-2.888,5.722,270.665,-0.330,1.751
1782117236.226575,0.571000,1682851,1000,12,0,1,1801.022,-4.044,5.746,270.737,0.496,1.714
1782117236.227575,0.572000,1682852,1000,12,0,1,1803.400,-1.668,5.728,270.521,-0.523,1.714
1782117236.228575,0.573000,1682853,1000,12,0,1,1802.535,-1.897,5.730,270.377,-0.253,1.714
1782117236.229575,0.574000,1682854,1000,12,0,1,1803.808,-1.480,5.732,270.257,-0.632,1.710
1782117236.230575,0.575000,1682855,1000,12,0,1,1804.529,0.026,5.727,269.680,-0.731,1.686
1782117236.231575,0.576000,1682856,1000,12,0,1,1806.186,0.825,5.693,272.587,1.442,1.693
1782117236.232575,0.577000,1682857,1000,12,0,1,1805.994,1.296,5.673,269.872,0.560,1.674
1782117236.233575,0.578000,1682858,1000,12,0,1,1805.226,-0.010,5.671,269.824,-0.839,1.607
1782117236.234575,0.579000,1682859,1000,12,0,1,1802.848,-1.592,5.675,270.473,1.368,1.472
1782117236.235575,0.580000,1682860,1000,12,0,1,1800.229,-3.907,5.675,270.329,1.014,1.452
1782117236.236575,0.581000,1682861,1000,12,0,1,1797.851,-5.211,5.557,268.623,0.334,1.452
1782117236.237575,0.582000,1682862,1000,12,0,1,1798.644,-4.038,5.472,268.263,-0.046,1.432
1782117236.238575,0.583000,1682863,1000,12,0,1,1797.803,-3.332,5.477,267.446,0.066,1.430
1782117236.239575,0.584000,1682864,1000,12,0,1,1798.091,-3.077,5.480,267.062,-0.109,1.425
1782117236.240575,0.585000,1682865,1000,12,0,1,1802.703,1.300,5.423,265.284,-1.031,1.383
1782117236.241575,0.586000,1682866,1000,12,0,1,1807.051,5.349,5.371,264.083,-1.966,1.338
1782117236.242575,0.587000,1682867,1000,12,0,1,1807.027,4.584,5.361,261.297,-3.574,1.421
1782117236.243575,0.588000,1682868,1000,12,0,1,1805.778,2.214,5.363,262.354,-2.815,1.476
1782117236.244575,0.589000,1682869,1000,12,0,1,1804.649,0.384,5.345,262.498,-1.318,1.486
1782117236.245575,0.590000,1682870,1000,12,0,1,1802.247,-2.011,5.100,259.351,-3.868,1.582
1782117236.246575,0.591000,1682871,1000,12,0,1,1800.998,-3.567,4.755,260.000,-3.416,1.576
1782117236.247575,0.592000,1682872,1000,12,0,1,1799.629,-4.033,4.694,260.889,-1.275,1.574
1782117236.248575,0.593000,1682873,1000,12,0,1,1797.803,-5.244,4.670,260.120,-1.882,1.498
1782117236.249575,0.594000,1682874,1000,12,0,1,1799.413,-3.249,4.547,260.240,-1.225,1.432
1782117236.250575,0.595000,1682875,1000,12,0,1,1798.860,-2.146,4.548,261.609,0.283,1.401
1782117236.251575,0.596000,1682876,1000,12,0,1,1800.373,-1.007,4.436,262.282,1.542,1.394
1782117236.252575,0.597000,1682877,1000,12,0,1,1799.581,0.015,4.366,263.579,2.593,1.440
1782117236.253575,0.598000,1682878,1000,12,0,1,1798.043,-1.598,4.289,265.621,4.650,1.582
1782117236.254575,0.599000,1682879,1000,12,0,1,1802.703,2.725,4.027,265.044,4.321,1.688
1782117236.255575,0.600000,1682880,1000,12,0,1,1812.936,11.597,4.183,263.387,2.508,1.722
1782117236.256575,0.601000,1682881,1000,12,0,1,1819.518,16.724,4.801,261.753,1.316,1.732
1782117236.257575,0.602000,1682882,1000,12,0,1,1815.987,11.707,4.724,261.249,0.957,1.731
1782117236.258575,0.603000,1682883,1000,12,0,1,1808.372,2.188,4.466,264.347,3.778,1.764
1782117236.259575,0.604000,1682884,1000,12,0,1,1804.169,-2.876,4.404,261.633,2.559,1.792
1782117236.260575,0.605000,1682885,1000,12,0,1,1803.928,-3.435,4.333,261.153,0.608,1.792
1782117236.261575,0.606000,1682886,1000,12,0,1,1802.872,-3.759,4.335,261.777,2.236,1.818
1782117236.262575,0.607000,1682887,1000,12,0,1,1801.214,-5.275,4.383,262.882,2.349,1.838
1782117236.263575,0.608000,1682888,1000,12,0,1,1798.812,-6.587,4.400,261.561,1.604,1.851
1782117236.264575,0.609000,1682889,1000,12,0,1,1803.568,-2.907,4.354,261.297,0.234,1.842
1782117236.265575,0.610000,1682890,1000,12,0,1,1813.945,6.930,4.462,261.033,0.211,1.821
1782117236.266575,0.611000,1682891,1000,12,0,1,1819.278,11.172,4.726,257.886,-2.667,1.859
1782117236.267575,0.612000,1682892,1000,12,0,1,1818.413,8.377,4.861,259.447,-2.210,1.883
1782117236.268575,0.613000,1682893,1000,12,0,1,1816.155,4.311,4.894,260.913,0.276,1.880
1782117236.269575,0.614000,1682894,1000,12,0,1,1816.251,2.663,4.906,261.177,-0.267,1.879
1782117236.270575,0.615000,1682895,1000,12,0,1,1816.707,2.389,4.917,261.417,0.288,1.879
1782117236.271575,0.616000,1682896,1000,12,0,1,1815.098,0.174,4.917,259.495,-1.439,1.889
1782117236.272575,0.617000,1682897,1000,12,0,1,1813.585,-1.797,4.921,260.168,-1.094,1.892
1782117236.273575,0.618000,1682898,1000,12,0,1,1813.465,-2.093,4.925,260.768,0.332,1.892
1782117236.274575,0.619000,1682899,1000,12,0,1,1811.999,-2.993,4.942,259.784,-0.422,1.881
1782117236.275575,0.620000,1682900,1000,12,0,1,1811.951,-3.290,4.948,258.919,-0.727,1.884
1782117236.276575,0.621000,1682901,1000,12,0,1,1809.021,-4.688,4.959,256.613,-2.003,1.904
1782117236.277575,0.622000,1682902,1000,12,0,1,1809.838,-4.675,4.997,253.058,-4.366,2.000
1782117236.278575,0.623000,1682903,1000,12,0,1,1810.462,-2.474,5.002,252.770,-3.916,2.075
1782117236.279575,0.624000,1682904,1000,12,0,1,1809.789,-3.343,5.020,254.931,-0.666,2.075
1782117236.280575,0.625000,1682905,1000,12,0,1,1810.750,-2.218,5.030,256.925,1.837,2.089
1782117236.281575,0.626000,1682906,1000,12,0,1,1810.991,-1.677,5.034,254.763,0.674,2.081
1782117236.282575,0.627000,1682907,1000,12,0,1,1813.729,-0.004,5.031,254.211,-0.462,2.080
1782117236.283575,0.628000,1682908,1000,12,0,1,1814.690,1.367,5.035,254.451,0.485,2.078
1782117236.284575,0.629000,1682909,1000,12,0,1,1814.353,-0.153,5.030,255.652,1.131,2.075
1782117236.285575,0.630000,1682910,1000,12,0,1,1815.194,0.294,4.999,255.772,1.539,2.082
1782117236.286575,0.631000,1682911,1000,12,0,1,1813.777,-1.180,4.947,254.547,0.015,2.081
1782117236.287575,0.632000,1682912,1000,12,0,1,1812.696,-2.692,4.929,253.971,-0.737,2.084
1782117236.288575,0.633000,1682913,1000,12,0,1,1812.672,-2.443,4.919,254.211,-0.461,2.085
1782117236.289575,0.634000,1682914,1000,12,0,1,1813.393,-1.706,4.905,255.003,0.176,2.085
1782117236.290575,0.635000,1682915,1000,12,0,1,1816.371,1.007,4.904,257.045,1.962,2.098
1782117236.291575,0.636000,1682916,1000,12,0,1,1818.461,3.154,4.866,255.340,0.906,2.084
1782117236.292575,0.637000,1682917,1000,12,0,1,1815.843,0.870,4.824,254.835,-0.267,2.022
1782117236.293575,0.638000,1682918,1000,12,0,1,1812.432,-2.577,4.828,254.667,0.407,1.983
1782117236.294575,0.639000,1682919,1000,12,0,1,1812.095,-2.590,4.841,256.685,1.867,1.992
1782117236.295575,0.640000,1682920,1000,12,0,1,1811.711,-1.989,4.841,255.676,2.103,1.938
1782117236.296575,0.641000,1682921,1000,12,0,1,1812.768,-0.933,4.816,255.196,0.967,1.882
1782117236.297575,0.642000,1682922,1000,12,0,1,1814.257,1.049,4.785,253.514,0.495,1.875
1782117236.298575,0.643000,1682923,1000,12,0,1,1811.831,-0.726,4.728,253.634,0.189,1.856
1782117236.299575,0.644000,1682924,1000,12,0,1,1813.296,-0.383,4.706,253.394,0.932,1.852
1782117236.300575,0.645000,1682925,1000,12,0,1,1813.777,1.088,4.699,253.130,0.551,1.854
1782117236.301575,0.646000,1682926,1000,12,0,1,1814.377,0.481,4.697,252.529,0.357,1.841
1782117236.302575,0.647000,1682927,1000,12,0,1,1813.825,0.374,4.697,252.529,0.262,1.805
1782117236.303575,0.648000,1682928,1000,12,0,1,1808.781,-4.288,4.731,250.728,-1.020,1.687
1782117236.304575,0.649000,1682929,1000,12,0,1,1808.012,-5.644,4.782,250.728,-1.441,1.586
1782117236.305575,0.650000,1682930,1000,12,0,1,1811.399,-1.650,4.498,253.754,1.243,1.555
1782117236.306575,0.651000,1682931,1000,12,0,1,1810.414,-1.740,3.834,254.907,2.456,1.583
1782117236.307575,0.652000,1682932,1000,12,0,1,1813.633,0.135,3.458,253.058,0.154,1.577
1782117236.308575,0.653000,1682933,1000,12,0,1,1813.657,1.650,3.452,253.226,-0.362,1.485
1782117236.309575,0.654000,1682934,1000,12,0,1,1807.772,-3.978,3.474,255.484,1.447,1.455
1782117236.310575,0.655000,1682935,1000,12,0,1,1809.381,-3.069,3.467,254.859,1.099,1.460
1782117236.311575,0.656000,1682936,1000,12,0,1,1810.174,-0.172,3.427,254.811,0.176,1.426
1782117236.312575,0.657000,1682937,1000,12,0,1,1808.300,-1.985,3.356,256.805,2.062,1.417
1782117236.313575,0.658000,1682938,1000,12,0,1,1802.487,-5.354,3.312,256.204,1.684,1.419
1782117236.314575,0.659000,1682939,1000,12,0,1,1792.278,-13.129,3.775,258.895,3.066,1.483
1782117236.315575,0.660000,1682940,1000,12,0,1,1792.086,-12.143,4.029,260.240,4.941,1.639
1782117236.316575,0.661000,1682941,1000,12,0,1,1803.328,0.539,3.707,255.051,0.040,1.595
1782117236.317575,0.662000,1682942,1000,12,0,1,1824.298,19.092,4.431,246.284,-7.485,1.889
1782117236.318575,0.663000,1682943,1000,12,0,1,1838.518,31.459,6.249,243.017,-9.977,2.357
1782117236.319575,0.664000,1682944,1000,12,0,1,1833.210,23.013,7.036,245.203,-5.956,2.503
1782117236.320575,0.665000,1682945,1000,12,0,1,1826.244,10.962,7.197,247.029,-2.561,2.529
1782117236.321575,0.666000,1682946,1000,12,0,1,1822.641,5.441,7.238,246.668,-1.871,2.534
1782117236.322575,0.667000,1682947,1000,12,0,1,1823.001,3.066,7.246,246.068,-1.850,2.543
1782117236.323575,0.668000,1682948,1000,12,0,1,1818.581,-0.733,7.241,246.284,-1.262,2.549
1782117236.324575,0.669000,1682949,1000,12,0,1,1818.797,-3.168,7.242,246.548,-0.592,2.550
1782117236.325575,0.670000,1682950,1000,12,0,1,1826.892,4.065,7.250,246.260,-0.750,2.550
1782117236.326575,0.671000,1682951,1000,12,0,1,1829.390,6.135,7.272,245.443,-1.315,2.541
1782117236.327575,0.672000,1682952,1000,12,0,1,1827.108,2.167,7.248,244.843,-1.831,2.478
1782117236.328575,0.673000,1682953,1000,12,0,1,1823.721,-1.613,7.243,245.515,-1.071,2.420
1782117236.329575,0.674000,1682954,1000,12,0,1,1824.538,-2.262,7.235,247.269,0.647,2.420
1782117236.330575,0.675000,1682955,1000,12,0,1,1826.940,0.331,7.228,247.437,1.152,2.412
1782117236.331575,0.676000,1682956,1000,12,0,1,1820.887,-4.614,7.254,247.365,0.855,2.413
1782117236.332575,0.677000,1682957,1000,12,0,1,1820.887,-6.275,7.308,247.365,1.170,2.418
1782117236.333575,0.678000,1682958,1000,12,0,1,1821.055,-3.943,7.327,248.734,2.300,2.438
1782117236.334575,0.679000,1682959,1000,12,0,1,1821.271,-4.513,7.354,248.158,2.499,2.459
1782117236.335575,0.680000,1682960,1000,12,0,1,1822.328,-2.597,7.363,247.989,2.006,2.465
1782117236.336575,0.681000,1682961,1000,12,0,1,1821.079,-3.590,7.379,247.269,2.091,2.483
1782117236.337575,0.682000,1682962,1000,12,0,1,1820.262,-4.442,7.396,244.723,0.109,2.481
1782117236.338575,0.683000,1682963,1000,12,0,1,1821.103,-3.369,7.403,242.369,-1.519,2.489
1782117236.339575,0.684000,1682964,1000,12,0,1,1821.247,-3.063,7.412,243.401,-0.162,2.489
1782117236.340575,0.685000,1682965,1000,12,0,1,1820.118,-3.806,7.430,241.912,-0.133,2.474
1782117236.341575,0.686000,1682966,1000,12,0,1,1818.797,-4.972,7.450,242.393,-0.147,2.471
1782117236.342575,0.687000,1682967,1000,12,0,1,1820.190,-3.540,7.466,244.795,2.687,2.500
1782117236.343575,0.688000,1682968,1000,12,0,1,1817.716,-4.527,7.484,245.876,3.437,2.546
1782117236.344575,0.689000,1682969,1000,12,0,1,1814.882,-7.125,7.543,246.620,3.407,2.577
1782117236.345575,0.690000,1682970,1000,12,0,1,1819.782,-2.410,7.545,245.948,2.372,2.582
1782117236.346575,0.691000,1682971,1000,12,0,1,1824.562,3.288,7.559,244.530,0.172,2.579
1782117236.347575,0.692000,1682972,1000,12,0,1,1826.412,4.430,7.583,242.272,-1.955,2.592
1782117236.348575,0.693000,1682973,1000,12,0,1,1825.547,3.583,7.599,242.921,-2.125,2.610
1782117236.349575,0.694000,1682974,1000,12,0,1,1824.442,1.743,7.603,244.795,0.074,2.606
1782117236.350575,0.695000,1682975,1000,12,0,1,1819.662,-1.806,7.606,244.122,-0.501,2.606
1782117236.351575,0.696000,1682976,1000,12,0,1,1817.188,-4.581,7.633,247.701,1.836,2.619
1782117236.352575,0.697000,1682977,1000,12,0,1,1817.836,-2.666,7.642,249.479,4.276,2.687
1782117236.353575,0.698000,1682978,1000,12,0,1,1812.456,-5.716,7.661,248.662,2.582,2.708
1782117236.354575,0.699000,1682979,1000,12,0,1,1812.672,-5.992,7.666,245.948,0.434,2.701
1782117236.355575,0.700000,1682980,1000,12,0,1,1819.158,1.695,7.666,243.305,-2.119,2.712
1782117236.356575,0.701000,1682981,1000,12,0,1,1826.748,8.249,7.751,241.504,-2.881,2.720
1782117236.357575,0.702000,1682982,1000,12,0,1,1825.187,7.445,7.822,244.026,-0.368,2.721
1782117236.358575,0.703000,1682983,1000,12,0,1,1822.496,2.419,7.826,244.795,1.786,2.732
1782117236.359575,0.704000,1682984,1000,12,0,1,1824.322,3.479,7.821,243.834,0.761,2.726
1782117236.360575,0.705000,1682985,1000,12,0,1,1819.806,-0.251,7.809,245.587,2.220,2.740
1782117236.361575,0.706000,1682986,1000,12,0,1,1815.627,-5.440,7.847,246.116,3.087,2.774
1782117236.362575,0.707000,1682987,1000,12,0,1,1814.474,-5.429,7.879,246.068,2.164,2.776
1782117236.363575,0.708000,1682988,1000,12,0,1,1811.951,-6.900,7.903,247.125,2.716,2.792
1782117236.364575,0.709000,1682989,1000,12,0,1,1815.699,-3.411,7.697,245.275,0.705,2.760
1782117236.365575,0.710000,1682990,1000,12,0,1,1830.615,9.772,7.629,243.041,-2.138,2.687
1782117236.366575,0.711000,1682991,1000,12,0,1,1829.751,11.127,7.790,244.314,-1.511,2.696
1782117236.367575,0.712000,1682992,1000,12,0,1,1820.983,-0.213,7.307,246.836,0.710,2.481
1782117236.368575,0.713000,1682993,1000,12,0,1,1813.152,-6.487,5.868,250.199,2.922,2.083
1782117236.369575,0.714000,1682994,1000,12,0,1,1816.395,-4.649,4.927,250.319,2.836,1.946
1782117236.370575,0.715000,1682995,1000,12,0,1,1828.430,7.566,4.798,246.404,-1.503,1.924
1782117236.371575,0.716000,1682996,1000,12,0,1,1835.828,14.202,5.144,244.987,-3.438,1.967
1782117236.372575,0.717000,1682997,1000,12,0,1,1839.671,15.064,5.551,241.864,-5.022,2.075
1782117236.373575,0.718000,1682998,1000,12,0,1,1838.110,12.119,5.808,240.591,-6.170,2.244
1782117236.374575,0.719000,1682999,1000,12,0,1,1834.867,5.958,5.852,241.312,-3.833,2.307
1782117236.375575,0.720000,1683000,1000,12,0,1,1832.969,3.016,5.839,241.792,-2.443,2.330
1782117236.376575,0.721000,1683001,1000,12,0,1,1828.285,-2.093,5.782,241.071,-1.856,2.337
1782117236.377575,0.722000,1683002,1000,12,0,1,1827.829,-3.746,5.798,242.224,-0.409,2.324
1782117236.378575,0.723000,1683003,1000,12,0,1,1832.489,0.377,5.794,239.967,-0.861,2.322
1782117236.379575,0.724000,1683004,1000,12,0,1,1834.194,1.896,5.791,237.829,-2.833,2.355
1782117236.380575,0.725000,1683005,1000,12,0,1,1831.456,-1.398,5.795,238.525,-1.286,2.356
1782117236.381575,0.726000,1683006,1000,12,0,1,1821.992,-9.528,5.913,238.741,-0.271,2.353
1782117236.382575,0.727000,1683007,1000,12,0,1,1810.702,-19.260,6.450,244.747,4.233,2.422
1782117236.383575,0.728000,1683008,1000,12,0,1,1799.845,-25.993,7.403,247.437,7.648,2.633
1782117236.384575,0.729000,1683009,1000,12,0,1,1795.617,-26.716,8.287,248.206,6.006,2.744
1782117236.385575,0.730000,1683010,1000,12,0,1,1810.942,-10.370,8.407,242.633,1.343,2.736
1782117236.386575,0.731000,1683011,1000,12,0,1,1810.942,-3.267,8.405,242.633,-1.550,2.729
1782117236.387575,0.732000,1683012,1000,12,0,1,1810.942,-5.827,8.422,242.633,-0.020,2.729
1782117236.388575,0.733000,1683013,1000,12,0,1,1830.519,12.648,8.596,239.198,-3.909,2.776
1782117236.389575,0.734000,1683014,1000,12,0,1,1822.857,9.838,8.697,241.792,-2.007,2.790
1782117236.390575,0.735000,1683015,1000,12,0,1,1819.950,0.234,8.681,242.897,0.430,2.791
1782117236.391575,0.736000,1683016,1000,12,0,1,1815.939,1.268,8.654,242.465,-0.696,2.792
1782117236.392575,0.737000,1683017,1000,12,0,1,1822.496,2.375,8.646,240.591,-1.280,2.772
1782117236.393575,0.738000,1683018,1000,12,0,1,1843.226,22.227,9.178,233.577,-6.865,2.897
1782117236.394575,0.739000,1683019,1000,12,0,1,1845.124,23.431,9.705,231.631,-8.118,3.079
1782117236.395575,0.740000,1683020,1000,12,0,1,1838.326,11.967,9.846,232.448,-4.913,3.138
1782117236.396575,0.741000,1683021,1000,12,0,1,1834.387,6.699,9.880,235.739,-0.999,3.141
1782117236.397575,0.742000,1683022,1000,12,0,1,1833.450,3.410,9.872,235.667,1.002,3.132
1782117236.398575,0.743000,1683023,1000,12,0,1,1835.011,4.500,9.880,233.745,-0.662,3.119
1782117236.399575,0.744000,1683024,1000,12,0,1,1836.236,4.310,9.895,234.322,0.438,3.120
1782117236.400575,0.745000,1683025,1000,12,0,1,1835.323,3.064,9.902,235.114,1.799,3.129
1782117236.401575,0.746000,1683026,1000,12,0,1,1835.780,1.856,9.884,233.481,0.646,3.120
1782117236.402575,0.747000,1683027,1000,12,0,1,1834.771,0.932,9.878,234.105,0.818,3.063
1782117236.403575,0.748000,1683028,1000,12,0,1,1833.834,-1.229,9.846,235.210,2.143,3.056
1782117236.404575,0.749000,1683029,1000,12,0,1,1832.801,-2.233,9.815,232.928,0.183,3.056
1782117236.405575,0.750000,1683030,1000,12,0,1,1834.795,-1.561,9.814,231.559,-1.645,3.050
1782117236.406575,0.751000,1683031,1000,12,0,1,1833.570,-2.127,9.749,232.520,-0.459,3.023
1782117236.407575,0.752000,1683032,1000,12,0,1,1831.624,-5.071,9.719,234.418,1.195,3.027
1782117236.408575,0.753000,1683033,1000,12,0,1,1831.840,-4.902,9.737,234.346,1.496,3.024
1782117236.409575,0.754000,1683034,1000,12,0,1,1832.441,-4.351,9.744,233.265,0.188,3.022
1782117236.410575,0.755000,1683035,1000,12,0,1,1831.432,-5.153,9.772,234.033,0.874,3.009
1782117236.411575,0.756000,1683036,1000,12,0,1,1830.159,-6.184,9.780,236.075,2.857,3.004
1782117236.412575,0.757000,1683037,1000,12,0,1,1829.126,-6.719,9.796,235.979,3.088,3.020
1782117236.413575,0.758000,1683038,1000,12,0,1,1828.550,-6.479,9.791,234.081,1.300,3.001
1782117236.414575,0.759000,1683039,1000,12,0,1,1827.204,-6.721,9.825,233.649,0.891,3.002
1782117236.415575,0.760000,1683040,1000,12,0,1,1826.748,-6.210,9.767,233.745,1.533,2.995
1782117236.416575,0.761000,1683041,1000,12,0,1,1827.997,-4.021,9.656,233.025,1.194,2.992
1782117236.417575,0.762000,1683042,1000,12,0,1,1826.508,-3.721,9.670,232.424,0.918,2.993
1782117236.418575,0.763000,1683043,1000,12,0,1,1831.168,-0.049,9.627,233.889,2.214,2.981
1782117236.419575,0.764000,1683044,1000,12,0,1,1835.612,5.741,9.638,231.896,1.254,2.959
1782117236.420575,0.765000,1683045,1000,12,0,1,1836.236,5.489,9.610,229.974,-1.160,2.956
1782117236.421575,0.766000,1683046,1000,12,0,1,1836.573,5.268,9.427,230.598,-0.236,2.916
1782117236.422575,0.767000,1683047,1000,12,0,1,1835.131,3.529,9.197,230.238,-0.280,2.828
1782117236.423575,0.768000,1683048,1000,12,0,1,1833.834,1.490,9.038,230.815,-0.156,2.691
1782117236.424575,0.769000,1683049,1000,12,0,1,1836.188,2.996,9.009,231.463,0.606,2.637
1782117236.425575,0.770000,1683050,1000,12,0,1,1835.203,2.327,9.005,230.430,-0.594,2.615
1782117236.426575,0.771000,1683051,1000,12,0,1,1834.771,0.579,9.000,230.695,-0.780,2.605
1782117236.427575,0.772000,1683052,1000,12,0,1,1832.873,-0.776,8.986,230.094,-1.032,2.608
1782117236.428575,0.773000,1683053,1000,12,0,1,1833.570,-1.332,8.987,232.304,0.211,2.605
1782117236.429575,0.774000,1683054,1000,12,0,1,1836.765,1.680,8.986,230.454,-0.277,2.575
1782117236.430575,0.775000,1683055,1000,12,0,1,1837.077,1.732,8.988,231.631,-0.657,2.570
1782117236.431575,0.776000,1683056,1000,12,0,1,1834.291,-1.376,8.888,232.880,1.791,2.582
1782117236.432575,0.777000,1683057,1000,12,0,1,1835.323,-1.315,8.463,232.784,1.156,2.517
1782117236.433575,0.778000,1683058,1000,12,0,1,1832.609,-2.660,7.632,232.760,1.453,2.282
1782117236.434575,0.779000,1683059,1000,12,0,1,1833.210,-3.325,6.648,233.433,2.008,2.137
1782117236.435575,0.780000,1683060,1000,12,0,1,1829.390,-4.501,6.515,234.033,2.661,2.162
1782117236.436575,0.781000,1683061,1000,12,0,1,1827.156,-7.295,6.580,232.880,1.907,2.167
1782117236.437575,0.782000,1683062,1000,12,0,1,1826.652,-5.582,6.576,231.175,0.141,2.167
1782117236.438575,0.783000,1683063,1000,12,0,1,1827.637,-4.062,6.354,229.782,-0.660,2.098
1782117236.439575,0.784000,1683064,1000,12,0,1,1826.556,-3.245,6.217,231.391,0.480,2.080
1782117236.440575,0.785000,1683065,1000,12,0,1,1827.589,-2.081,6.223,230.334,0.634,2.081
1782117236.441575,0.786000,1683066,1000,12,0,1,1825.643,-2.058,6.228,231.415,0.391,2.079
1782117236.442575,0.787000,1683067,1000,12,0,1,1823.289,-3.946,6.244,229.830,0.141,2.071
1782117236.443575,0.788000,1683068,1000,12,0,1,1822.112,-3.836,5.422,230.622,-0.715,1.832
1782117236.444575,0.789000,1683069,1000,12,0,1,1817.356,-6.318,4.383,230.142,-0.108,1.428
1782117236.445575,0.790000,1683070,1000,12,0,1,1821.560,-3.224,4.069,228.917,-2.165,1.285
1782117236.446575,0.791000,1683071,1000,12,0,1,1824.154,2.264,3.970,228.100,-2.583,1.328
1782117236.447575,0.792000,1683072,1000,12,0,1,1819.662,-2.129,3.952,225.890,-4.261,1.452
1782117236.448575,0.793000,1683073,1000,12,0,1,1814.113,-6.116,3.995,227.284,-3.348,1.524
1782117236.449575,0.794000,1683074,1000,12,0,1,1811.135,-7.965,4.106,225.290,-3.278,1.592
1782117236.450575,0.795000,1683075,1000,12,0,1,1814.858,-3.446,4.112,227.284,-2.664,1.616
1782117236.451575,0.796000,1683076,1000,12,0,1,1823.553,5.491,4.177,228.004,0.244,1.614
1782117236.452575,0.797000,1683077,1000,12,0,1,1833.834,14.320,4.640,227.139,-1.164,1.618
1782117236.453575,0.798000,1683078,1000,12,0,1,1843.226,21.147,5.517,230.478,2.263,1.621
1782117236.454575,0.799000,1683079,1000,12,0,1,1847.214,22.009,6.327,229.854,2.750,1.667
1782117236.455575,0.800000,1683080,1000,12,0,1,1847.646,18.649,6.851,230.695,2.403,1.685
1782117236.456575,0.801000,1683081,1000,12,0,1,1848.247,15.583,7.190,228.989,2.254,1.714
1782117236.457575,0.802000,1683082,1000,12,0,1,1844.692,10.177,7.298,228.413,0.571,1.708
1782117236.458575,0.803000,1683083,1000,12,0,1,1843.683,5.939,7.313,227.932,1.323,1.705
1782117236.459575,0.804000,1683084,1000,12,0,1,1839.191,1.903,7.292,228.052,0.876,1.709
1782117236.460575,0.805000,1683085,1000,12,0,1,1835.996,-3.031,7.268,228.797,1.999,1.728
1782117236.461575,0.806000,1683086,1000,12,0,1,1831.336,-5.883,7.263,227.500,0.857,1.684
1782117236.462575,0.807000,1683087,1000,12,0,1,1829.078,-8.392,7.298,228.365,0.902,1.632
1782117236.463575,0.808000,1683088,1000,12,0,1,1828.261,-7.342,7.315,227.788,0.987,1.627
1782117236.464575,0.809000,1683089,1000,12,0,1,1829.871,-5.514,7.294,228.172,0.191,1.623
1782117236.465575,0.810000,1683090,1000,12,0,1,1830.399,-3.738,7.261,229.373,1.511,1.622
1782117236.466575,0.811000,1683091,1000,12,0,1,1830.591,-3.558,7.256,228.749,0.399,1.614
1782117236.467575,0.812000,1683092,1000,12,0,1,1829.727,-3.941,7.258,229.614,0.512,1.611
1782117236.468575,0.813000,1683093,1000,12,0,1,1828.646,-4.887,7.291,231.103,1.644,1.597
1782117236.469575,0.814000,1683094,1000,12,0,1,1826.676,-6.347,7.301,229.061,-0.256,1.588
1782117236.470575,0.815000,1683095,1000,12,0,1,1820.599,-10.662,7.414,230.695,0.032,1.579
1782117236.471575,0.816000,1683096,1000,12,0,1,1814.498,-15.482,7.695,232.736,2.478,1.617
1782117236.472575,0.817000,1683097,1000,12,0,1,1803.664,-21.549,8.261,236.700,4.774,1.752
1782117236.473575,0.818000,1683098,1000,12,0,1,1804.289,-20.238,8.741,237.276,5.631,1.924
1782117236.474575,0.819000,1683099,1000,12,0,1,1815.699,-5.442,8.764,231.415,-0.361,1.923
1782117236.475575,0.820000,1683100,1000,12,0,1,1826.244,5.837,8.797,229.181,-3.309,1.977
1782117236.476575,0.821000,1683101,1000,12,0,1,1836.236,14.679,9.038,226.467,-4.130,2.059
1782117236.477575,0.822000,1683102,1000,12,0,1,1838.686,16.547,9.335,222.936,-6.996,2.280
1782117236.478575,0.823000,1683103,1000,12,0,1,1834.963,10.797,9.458,223.873,-5.002,2.387
1782117236.479575,0.824000,1683104,1000,12,0,1,1833.690,7.960,9.521,224.209,-3.074,2.426
1782117236.480575,0.825000,1683105,1000,12,0,1,1830.976,5.209,9.547,223.512,-3.027,2.461
1782117236.481575,0.826000,1683106,1000,12,0,1,1831.432,4.338,9.564,225.338,-0.955,2.452
1782117236.482575,0.827000,1683107,1000,12,0,1,1831.624,5.090,9.590,228.533,2.282,2.468
1782117236.483575,0.828000,1683108,1000,12,0,1,1828.357,1.857,9.586,225.290,0.078,2.459
1782117236.484575,0.829000,1683109,1000,12,0,1,1829.222,1.862,9.578,224.858,-1.835,2.457
1782117236.485575,0.830000,1683110,1000,12,0,1,1829.919,3.280,9.568,226.155,0.215,2.428
1782117236.486575,0.831000,1683111,1000,12,0,1,1829.558,2.143,9.517,226.323,-0.143,2.413
1782117236.487575,0.832000,1683112,1000,12,0,1,1831.408,3.337,9.496,227.572,0.732,2.415
1782117236.488575,0.833000,1683113,1000,12,0,1,1831.888,3.330,9.490,227.188,0.486,2.414
1782117236.489575,0.834000,1683114,1000,12,0,1,1830.231,0.921,9.480,227.572,0.091,2.413
1782117236.490575,0.835000,1683115,1000,12,0,1,1829.486,-0.734,9.476,228.220,0.993,2.416
1782117236.491575,0.836000,1683116,1000,12,0,1,1829.799,-1.006,9.473,227.284,0.004,2.415
1782117236.492575,0.837000,1683117,1000,12,0,1,1827.204,-3.360,9.468,223.392,-2.839,2.448
1782117236.493575,0.838000,1683118,1000,12,0,1,1825.619,-5.518,9.485,222.936,-3.473,2.495
1782117236.494575,0.839000,1683119,1000,12,0,1,1827.781,-3.394,9.455,225.146,-0.112,2.495
1782117236.495575,0.840000,1683120,1000,12,0,1,1829.126,-1.684,9.447,224.737,0.398,2.477
1782117236.496575,0.841000,1683121,1000,12,0,1,1827.517,-2.921,9.450,223.416,-0.414,2.450
1782117236.497575,0.842000,1683122,1000,12,0,1,1825.379,-4.607,9.468,225.170,1.410,2.383
1782117236.498575,0.843000,1683123,1000,12,0,1,1815.002,-11.633,9.571,227.067,3.718,2.394
1782117236.499575,0.844000,1683124,1000,12,0,1,1806.066,-18.829,9.870,229.734,5.593,2.479
1782117236.500575,0.845000,1683125,1000,12,0,1,1815.915,-8.215,9.927,227.788,4.155,2.519
1782117236.501575,0.846000,1683126,1000,12,0,1,1832.993,10.317,10.003,221.639,-2.086,2.536
1782117236.502575,0.847000,1683127,1000,12,0,1,1834.050,12.827,9.963,221.254,-3.185,2.571
1782117236.503575,0.848000,1683128,1000,12,0,1,1829.919,6.563,9.548,222.215,-1.164,2.556
1782117236.504575,0.849000,1683129,1000,12,0,1,1829.462,5.541,9.061,221.206,-2.150,2.544
1782117236.505575,0.850000,1683130,1000,12,0,1,1830.519,5.740,8.706,220.870,-2.277,2.542
1782117236.506575,0.851000,1683131,1000,12,0,1,1832.921,6.992,8.481,224.161,0.324,2.522
1782117236.507575,0.852000,1683132,1000,12,0,1,1832.921,6.426,8.407,225.650,2.223,2.541
1782117236.508575,0.853000,1683133,1000,12,0,1,1830.087,2.567,8.373,223.705,-0.071,2.534
1782117236.509575,0.854000,1683134,1000,12,0,1,1827.661,-0.448,8.369,223.296,-0.947,2.534
1782117236.510575,0.855000,1683135,1000,12,0,1,1827.805,-1.040,8.359,223.969,-0.093,2.519
1782117236.511575,0.856000,1683136,1000,12,0,1,1827.661,-1.013,8.319,223.344,-0.471,2.516
1782117236.512575,0.857000,1683137,1000,12,0,1,1830.736,0.656,8.234,223.705,-0.154,2.513
1782117236.513575,0.858000,1683138,1000,12,0,1,1835.804,5.000,8.199,222.335,-0.597,2.511
1782117236.514575,0.859000,1683139,1000,12,0,1,1834.915,3.732,8.179,222.383,-0.692,2.513
1782117236.515575,0.860000,1683140,1000,12,0,1,1831.312,-0.943,8.163,223.849,1.406,2.511
1782117236.516575,0.861000,1683141,1000,12,0,1,1830.591,-2.201,8.153,222.095,0.539,2.512
1782117236.517575,0.862000,1683142,1000,12,0,1,1829.246,-2.982,8.145,221.495,-0.240,2.511
1782117236.518575,0.863000,1683143,1000,12,0,1,1828.646,-3.600,8.132,221.975,1.001,2.504
1782117236.519575,0.864000,1683144,1000,12,0,1,1825.619,-5.032,8.113,222.528,1.495,2.513
1782117236.520575,0.865000,1683145,1000,12,0,1,1824.418,-6.010,8.017,223.969,2.847,2.545
1782117236.521575,0.866000,1683146,1000,12,0,1,1822.304,-5.869,7.757,224.449,3.143,2.560
1782117236.522575,0.867000,1683147,1000,12,0,1,1823.265,-4.711,7.164,221.951,0.712,2.471
1782117236.523575,0.868000,1683148,1000,12,0,1,1824.154,-1.909,6.573,221.543,-0.549,2.341
1782117236.524575,0.869000,1683149,1000,12,0,1,1824.058,-1.570,6.532,220.414,-1.046,2.345
1782117236.525575,0.870000,1683150,1000,12,0,1,1822.761,-1.771,6.484,222.455,-0.251,2.298
1782117236.526575,0.871000,1683151,1000,12,0,1,1820.383,-3.308,6.161,224.665,2.228,2.245
1782117236.527575,0.872000,1683152,1000,12,0,1,1819.037,-3.993,5.727,223.296,0.480,2.016
1782117236.528575,0.873000,1683153,1000,12,0,1,1821.512,-1.235,5.522,222.792,-0.743,1.891
1782117236.529575,0.874000,1683154,1000,12,0,1,1820.911,-0.585,5.407,223.584,-0.013,1.840
1782117236.530575,0.875000,1683155,1000,12,0,1,1820.262,-1.547,5.361,224.449,0.485,1.791
1782117236.531575,0.876000,1683156,1000,12,0,1,1817.332,-3.086,5.344,224.858,0.908,1.790
1782117236.532575,0.877000,1683157,1000,12,0,1,1813.345,-6.410,5.372,224.401,0.335,1.761
1782117236.533575,0.878000,1683158,1000,12,0,1,1814.041,-5.128,5.414,225.026,0.772,1.765
1782117236.534575,0.879000,1683159,1000,12,0,1,1816.299,-1.543,5.412,226.827,2.383,1.778
1782117236.535575,0.880000,1683160,1000,12,0,1,1819.902,1.907,5.399,227.091,2.775,1.820
1782117236.536575,0.881000,1683161,1000,12,0,1,1830.399,10.770,5.602,221.975,-1.438,1.832
1782117236.537575,0.882000,1683162,1000,12,0,1,1832.705,13.536,5.901,218.324,-5.079,1.965
1782117236.538575,0.883000,1683163,1000,12,0,1,1828.141,6.996,5.965,217.916,-4.254,2.054
1782117236.539575,0.884000,1683164,1000,12,0,1,1826.172,3.982,5.990,217.483,-3.561,2.114
1782117236.540575,0.885000,1683165,1000,12,0,1,1828.502,5.266,6.035,217.867,-2.509,2.139
1782117236.541575,0.886000,1683166,1000,12,0,1,1831.432,7.534,6.127,218.948,-0.807,2.142
1782117236.542575,0.887000,1683167,1000,12,0,1,1829.486,5.520,6.158,220.101,0.444,2.105
1782117236.543575,0.888000,1683168,1000,12,0,1,1826.556,1.607,6.112,220.390,0.858,2.051
1782117236.544575,0.889000,1683169,1000,12,0,1,1829.414,3.426,6.113,219.381,-0.243,2.051
1782117236.545575,0.890000,1683170,1000,12,0,1,1833.450,6.867,6.185,220.846,0.458,2.051
1782117236.546575,0.891000,1683171,1000,12,0,1,1834.843,7.119,6.253,220.630,0.647,2.053
1782117236.547575,0.892000,1683172,1000,12,0,1,1832.561,3.938,6.244,219.717,-0.920,2.047
1782117236.548575,0.893000,1683173,1000,12,0,1,1833.114,2.463,6.033,220.462,-0.330,1.979
1782117236.549575,0.894000,1683174,1000,12,0,1,1831.168,0.727,5.414,220.173,-0.411,1.815
1782117236.550575,0.895000,1683175,1000,12,0,1,1825.883,-5.075,5.337,220.966,-0.088,1.717
1782117236.551575,0.896000,1683176,1000,12,0,1,1822.472,-8.301,5.266,222.816,1.824,1.711
1782117236.552575,0.897000,1683177,1000,12,0,1,1820.262,-9.454,5.121,221.615,1.008,1.657
1782117236.553575,0.898000,1683178,1000,12,0,1,1821.704,-7.792,5.156,222.407,1.099,1.656
1782117236.554575,0.899000,1683179,1000,12,0,1,1824.514,-3.958,5.126,221.639,1.349,1.639
1782117236.555575,0.900000,1683180,1000,12,0,1,1823.457,-4.155,5.096,221.158,0.427,1.608
1782117236.556575,0.901000,1683181,1000,12,0,1,1821.824,-5.416,5.057,219.117,-0.358,1.608
1782117236.557575,0.902000,1683182,1000,12,0,1,1820.070,-5.999,5.047,216.282,-2.774,1.625
1782117236.558575,0.903000,1683183,1000,12,0,1,1820.431,-5.119,5.085,215.922,-2.420,1.661
1782117236.559575,0.904000,1683184,1000,12,0,1,1817.260,-5.903,5.153,217.819,0.023,1.656
1782117236.560575,0.905000,1683185,1000,12,0,1,1809.189,-11.735,5.412,219.453,1.969,1.679
1782117236.561575,0.906000,1683186,1000,12,0,1,1808.180,-11.473,5.648,219.837,2.376,1.711
1782117236.562575,0.907000,1683187,1000,12,0,1,1810.510,-6.015,5.711,218.804,1.164,1.719
1782117236.563575,0.908000,1683188,1000,12,0,1,1813.681,-1.698,5.672,219.117,0.890,1.721
1782117236.564575,0.909000,1683189,1000,12,0,1,1818.053,3.707,5.672,217.651,-0.270,1.719
1782117236.565575,0.910000,1683190,1000,12,0,1,1825.235,9.888,5.840,218.900,-0.206,1.708
1782117236.566575,0.911000,1683191,1000,12,0,1,1828.213,12.767,6.105,218.252,-0.098,1.706
1782117236.567575,0.912000,1683192,1000,12,0,1,1831.144,12.841,6.355,220.390,0.378,1.706
1782117236.568575,0.913000,1683193,1000,12,0,1,1836.404,15.765,6.716,220.294,1.170,1.709
1782117236.569575,0.914000,1683194,1000,12,0,1,1840.992,17.263,7.110,220.582,0.086,1.695
1782117236.570575,0.915000,1683195,1000,12,0,1,1837.389,11.993,7.260,219.741,-0.069,1.647
1782117236.571575,0.916000,1683196,1000,12,0,1,1826.940,0.172,7.213,220.342,-0.280,1.586
1782117236.572575,0.917000,1683197,1000,12,0,1,1818.269,-8.893,7.291,220.005,0.142,1.583
1782117236.573575,0.918000,1683198,1000,12,0,1,1811.783,-13.466,7.531,220.534,0.299,1.582
1782117236.574575,0.919000,1683199,1000,12,0,1,1804.385,-17.964,7.945,224.809,4.001,1.674
1782117236.575575,0.920000,1683200,1000,12,0,1,1805.994,-14.856,8.214,224.978,4.945,1.814
1782117236.576575,0.921000,1683201,1000,12,0,1,1811.087,-6.645,8.254,223.897,2.634,1.824
1782117236.577575,0.922000,1683202,1000,12,0,1,1812.192,-3.658,8.251,225.962,4.324,1.923
1782117236.578575,0.923000,1683203,1000,12,0,1,1811.999,-2.763,8.259,224.137,2.776,1.960
1782117236.579575,0.924000,1683204,1000,12,0,1,1811.543,-2.008,8.263,221.375,-0.521,1.961
1782117236.580575,0.925000,1683205,1000,12,0,1,1810.846,-1.891,8.264,220.005,-1.671,1.974
1782117236.581575,0.926000,1683206,1000,12,0,1,1810.438,-1.371,8.255,220.294,-1.482,1.981
1782117236.582575,0.927000,1683207,1000,12,0,1,1815.002,2.556,8.213,217.075,-3.489,2.041
1782117236.583575,0.928000,1683208,1000,12,0,1,1822.184,9.354,8.287,213.376,-7.001,2.266
1782117236.584575,0.929000,1683209,1000,12,0,1,1825.019,11.219,8.435,214.240,-5.713,2.382
1782117236.585575,0.930000,1683210,1000,12,0,1,1828.766,12.164,8.604,214.024,-4.537,2.435
1782117236.586575,0.931000,1683211,1000,12,0,1,1829.462,11.736,8.630,216.426,-2.769,2.458
1782117236.587575,0.932000,1683212,1000,12,0,1,1832.729,11.287,8.565,219.117,0.627,2.353
1782117236.588575,0.933000,1683213,1000,12,0,1,1842.241,17.528,8.861,219.045,0.222,2.275
1782117236.589575,0.934000,1683214,1000,12,0,1,1846.541,19.199,9.251,221.807,1.930,2.235
1782117236.590575,0.935000,1683215,1000,12,0,1,1842.073,11.821,9.371,221.975,2.522,2.235
1782117236.591575,0.936000,1683216,1000,12,0,1,1843.779,9.040,9.398,219.333,-0.640,2.234
1782117236.592575,0.937000,1683217,1000,12,0,1,1849.760,12.572,9.532,217.267,-2.354,2.258
1782117236.593575,0.938000,1683218,1000,12,0,1,1844.283,6.375,9.572,218.084,-1.553,2.265
1782117236.594575,0.939000,1683219,1000,12,0,1,1830.303,-8.324,9.632,220.606,1.405,2.274
1782117236.595575,0.940000,1683220,1000,12,0,1,1818.029,-19.243,9.962,221.711,2.808,2.307
1782117236.596575,0.941000,1683221,1000,12,0,1,1816.924,-19.235,10.278,218.948,0.738,2.308
1782117236.597575,0.942000,1683222,1000,12,0,1,1812.288,-18.495,10.591,218.204,-0.328,2.305
1782117236.598575,0.943000,1683223,1000,12,0,1,1812.288,-17.798,10.880,218.852,1.066,2.309
1782117236.599575,0.944000,1683224,1000,12,0,1,1817.836,-9.105,10.955,213.472,-2.656,2.339
1782117236.600575,0.945000,1683225,1000,12,0,1,1817.500,-7.227,10.980,211.094,-5.267,2.454
1782117236.601575,0.946000,1683226,1000,12,0,1,1813.825,-9.613,11.001,210.613,-3.762,2.498
1782117236.602575,0.947000,1683227,1000,12,0,1,1810.030,-11.429,11.038,209.556,-4.114,2.561
1782117236.603575,0.948000,1683228,1000,12,0,1,1802.487,-16.021,11.214,210.205,-2.653,2.584
1782117236.604575,0.949000,1683229,1000,12,0,1,1796.578,-19.239,11.526,210.493,-1.587,2.586
1782117236.605575,0.950000,1683230,1000,12,0,1,1797.083,-15.966,11.731,208.427,-2.878,2.618
1782117236.606575,0.951000,1683231,1000,12,0,1,1805.706,-5.670,11.733,207.899,-3.283,2.658
1782117236.607575,0.952000,1683232,1000,12,0,1,1819.662,8.326,11.761,208.596,-1.979,2.644
1782117236.608575,0.953000,1683233,1000,12,0,1,1845.004,28.882,12.429,206.001,-3.400,2.665
1782117236.609575,0.954000,1683234,1000,12,0,1,1876.591,53.213,14.506,202.758,-6.004,2.797
1782117236.610575,0.955000,1683235,1000,12,0,1,1891.556,60.417,16.753,207.274,-1.733,2.794
1782117236.611575,0.956000,1683236,1000,12,0,1,1885.935,45.411,17.869,211.358,3.617,2.820
1782117236.612575,0.957000,1683237,1000,12,0,1,1865.397,19.187,18.053,214.288,5.625,2.926
1782117236.613575,0.958000,1683238,1000,12,0,1,1855.549,2.453,18.055,215.850,7.127,3.092
1782117236.614575,0.959000,1683239,1000,12,0,1,1852.090,-0.975,18.048,219.765,9.186,3.354
1782117236.615575,0.960000,1683240,1000,12,0,1,1841.641,-10.692,18.057,224.713,12.963,3.822
1782117236.616575,0.961000,1683241,1000,12,0,1,1816.707,-30.030,18.462,231.271,16.640,4.488
1782117236.617575,0.962000,1683242,1000,12,0,1,1796.338,-45.904,19.486,233.121,16.860,5.082
1782117236.618575,0.963000,1683243,1000,12,0,1,1793.576,-41.701,20.236,229.205,10.699,5.300
1782117236.619575,0.964000,1683244,1000,12,0,1,1804.601,-24.865,20.394,224.425,4.298,5.335
1782117236.620575,0.965000,1683245,1000,12,0,1,1811.615,-12.007,20.394,221.350,0.465,5.335
1782117236.621575,0.966000,1683246,1000,12,0,1,1812.144,-8.840,20.432,219.093,-1.969,5.342
1782117236.622575,0.967000,1683247,1000,12,0,1,1815.218,-5.159,20.406,218.060,-2.940,5.358
1782117236.623575,0.968000,1683248,1000,12,0,1,1816.515,-2.350,20.320,216.378,-4.135,5.390
1782117236.624575,0.969000,1683249,1000,12,0,1,1816.395,-3.192,20.166,216.570,-4.101,5.391
1782117236.625575,0.970000,1683250,1000,12,0,1,1815.747,-3.439,20.062,216.931,-3.300,5.366
1782117236.626575,0.971000,1683251,1000,12,0,1,1816.515,-3.599,20.046,216.258,-3.932,5.382
1782117236.627575,0.972000,1683252,1000,12,0,1,1817.836,-2.046,20.042,215.898,-4.368,5.383
1782117236.628575,0.973000,1683253,1000,12,0,1,1819.037,-1.247,20.039,216.907,-3.544,5.392
1782117236.629575,0.974000,1683254,1000,12,0,1,1818.701,-0.973,20.037,216.186,-3.911,5.420
1782117236.630575,0.975000,1683255,1000,12,0,1,1820.695,0.708,20.036,214.240,-5.741,5.475
1782117236.631575,0.976000,1683256,1000,12,0,1,1822.232,3.424,20.040,214.192,-5.681,5.530
1782117236.632575,0.977000,1683257,1000,12,0,1,1824.947,6.026,20.055,215.730,-3.710,5.533
1782117236.633575,0.978000,1683258,1000,12,0,1,1828.670,10.237,20.064,214.192,-4.143,5.475
1782117236.634575,0.979000,1683259,1000,12,0,1,1828.982,11.171,20.063,214.240,-4.125,5.446
1782117236.635575,0.980000,1683260,1000,12,0,1,1827.084,9.394,20.034,215.081,-2.109,5.416
1782117236.636575,0.981000,1683261,1000,12,0,1,1822.232,5.905,19.982,214.000,-2.275,5.412
1782117236.637575,0.982000,1683262,1000,12,0,1,1817.620,1.937,19.920,215.249,-0.796,5.412
1782117236.638575,0.983000,1683263,1000,12,0,1,1812.408,-1.033,19.766,217.003,1.913,5.419
1782117236.639575,0.984000,1683264,1000,12,0,1,1811.183,-1.787,19.580,218.972,3.695,5.437
1782117236.640575,0.985000,1683265,1000,12,0,1,1811.615,0.329,19.509,219.213,4.441,5.462
1782117236.641575,0.986000,1683266,1000,12,0,1,1805.538,-3.982,19.475,218.324,3.180,5.479
1782117236.642575,0.987000,1683267,1000,12,0,1,1800.710,-8.645,19.432,220.053,4.268,5.502
1782117236.643575,0.988000,1683268,1000,12,0,1,1805.514,-4.132,19.420,220.029,4.382,5.533
1782117236.644575,0.989000,1683269,1000,12,0,1,1813.657,3.492,19.391,215.778,0.120,5.529
1782117236.645575,0.990000,1683270,1000,12,0,1,1821.824,9.209,19.243,213.039,-2.944,5.531
1782117236.646575,0.991000,1683271,1000,12,0,1,1820.094,6.620,19.073,215.730,-0.719,5.531
1782117236.647575,0.992000,1683272,1000,12,0,1,1815.362,-1.040,18.893,216.811,0.931,5.532
1782117236.648575,0.993000,1683273,1000,12,0,1,1811.135,-5.405,18.740,217.867,0.820,5.531
1782117236.649575,0.994000,1683274,1000,12,0,1,1808.612,-8.119,18.731,220.222,2.585,5.531
1782117236.650575,0.995000,1683275,1000,12,0,1,1813.441,-3.525,18.710,217.651,0.126,5.480
1782117236.651575,0.996000,1683276,1000,12,0,1,1821.560,5.028,18.674,213.400,-4.578,5.493
1782117236.652575,0.997000,1683277,1000,12,0,1,1819.518,4.665,18.615,213.640,-4.462,5.498
1782117236.653575,0.998000,1683278,1000,12,0,1,1815.098,0.184,18.477,215.610,-1.984,5.492
1782117236.654575,0.999000,1683279,1000,12,0,1,1811.423,-1.291,18.277,215.393,-1.571,5.492
1782117236.655575,1.000000,1683280,1000,12,0,1,1809.669,-1.421,18.138,215.057,-1.766,5.483
1782117236.656575,1.001000,1683281,1000,12,0,1,1810.750,1.606,18.121,215.562,-0.749,5.464
1782117236.657575,1.002000,1683282,1000,12,0,1,1809.765,2.928,18.088,212.295,-2.585,5.469
1782117236.658575,1.003000,1683283,1000,12,0,1,1803.256,-1.306,17.622,213.544,-1.878,5.455
1782117236.659575,1.004000,1683284,1000,12,0,1,1805.778,0.625,15.934,211.478,-1.285,5.391
1782117236.660575,1.005000,1683285,1000,12,0,1,1815.338,10.402,13.530,207.010,-5.278,5.437
1782117236.661575,1.006000,1683286,1000,12,0,1,1817.140,11.947,12.028,204.176,-6.139,5.482
1782117236.662575,1.007000,1683287,1000,12,0,1,1814.786,7.062,11.760,203.119,-5.706,5.484
1782117236.663575,1.008000,1683288,1000,12,0,1,1810.942,2.026,11.758,203.071,-4.089,5.421
1782117236.664575,1.009000,1683289,1000,12,0,1,1806.547,-3.947,11.771,204.848,-1.383,5.267
1782117236.665575,1.010000,1683290,1000,12,0,1,1803.976,-7.170,11.717,205.689,0.440,4.938
1782117236.666575,1.011000,1683291,1000,12,0,1,1806.907,-5.659,10.950,205.833,0.846,4.343
1782117236.667575,1.012000,1683292,1000,12,0,1,1809.453,-2.981,8.828,205.449,0.682,3.631
1782117236.668575,1.013000,1683293,1000,12,0,1,1815.651,0.832,6.570,207.611,2.229,3.316
1782117236.669575,1.014000,1683294,1000,12,0,1,1832.921,14.385,5.911,208.764,3.474,3.296
1782117236.670575,1.015000,1683295,1000,12,0,1,1843.827,23.266,6.548,210.277,3.867,3.341
1782117236.671575,1.016000,1683296,1000,12,0,1,1839.767,16.048,6.817,211.814,4.837,3.399
1782117236.672575,1.017000,1683297,1000,12,0,1,1829.270,3.698,6.798,212.679,4.770,3.440
1782117236.673575,1.018000,1683298,1000,12,0,1,1821.271,-4.829,6.824,212.847,4.210,3.442
1782117236.674575,1.019000,1683299,1000,12,0,1,1814.978,-8.961,6.926,211.742,2.787,3.415
1782117236.675575,1.020000,1683300,1000,12,0,1,1815.146,-7.568,6.991,211.838,2.179,3.397
1782117236.676575,1.021000,1683301,1000,12,0,1,1816.755,-2.849,6.984,212.054,2.629,3.372
1782117236.677575,1.022000,1683302,1000,12,0,1,1814.161,-3.140,6.993,211.406,1.895,3.326
1782117236.678575,1.023000,1683303,1000,12,0,1,1810.966,-4.560,7.020,209.364,0.489,3.289
1782117236.679575,1.024000,1683304,1000,12,0,1,1810.798,-3.391,7.035,207.731,-0.872,3.244
1782117236.680575,1.025000,1683305,1000,12,0,1,1812.648,-0.761,7.035,207.250,-0.613,3.142
1782117236.681575,1.026000,1683306,1000,12,0,1,1811.231,-1.183,7.020,206.890,-0.325,3.038
1782117236.682575,1.027000,1683307,1000,12,0,1,1811.087,-2.436,6.977,204.968,-1.314,2.998
1782117236.683575,1.028000,1683308,1000,12,0,1,1812.672,-1.231,6.827,208.163,1.042,2.944
1782117236.684575,1.029000,1683309,1000,12,0,1,1810.654,-3.763,6.663,208.139,2.436,2.906
1782117236.685575,1.030000,1683310,1000,12,0,1,1810.630,-5.464,6.575,206.241,-0.408,2.891
1782117236.686575,1.031000,1683311,1000,12,0,1,1811.807,-4.744,6.556,208.596,1.313,2.879
1782117236.687575,1.032000,1683312,1000,12,0,1,1813.873,-4.020,6.575,208.259,1.316,2.883
1782117236.688575,1.033000,1683313,1000,12,0,1,1812.936,-4.656,6.606,206.578,-1.320,2.877
1782117236.689575,1.034000,1683314,1000,12,0,1,1811.279,-6.766,6.671,208.451,-0.116,2.829
1782117236.690575,1.035000,1683315,1000,12,0,1,1812.264,-5.268,6.712,211.958,2.543,2.781
1782117236.691575,1.036000,1683316,1000,12,0,1,1811.975,-4.026,6.712,211.694,2.170,2.762
1782117236.692575,1.037000,1683317,1000,12,0,1,1809.501,-4.794,6.635,210.253,-0.303,2.696
1782117236.693575,1.038000,1683318,1000,12,0,1,1808.132,-4.122,6.635,210.637,-0.250,2.624
1782117236.694575,1.039000,1683319,1000,12,0,1,1807.916,-1.909,6.622,211.166,0.188,2.624
1782117236.695575,1.040000,1683320,1000,12,0,1,1807.748,0.402,6.493,211.310,0.314,2.591
1782117236.696575,1.041000,1683321,1000,12,0,1,1811.567,5.229,6.467,208.596,-1.524,2.598
1782117236.697575,1.042000,1683322,1000,12,0,1,1812.384,8.328,6.572,205.809,-3.884,2.652
1782117236.698575,1.043000,1683323,1000,12,0,1,1809.741,6.061,6.584,206.121,-2.729,2.677
1782117236.699575,1.044000,1683324,1000,12,0,1,1808.564,5.213,6.524,203.911,-3.031,2.687
1782117236.700575,1.045000,1683325,1000,12,0,1,1807.123,4.133,6.532,204.680,-2.267,2.706
1782117236.701575,1.046000,1683326,1000,12,0,1,1807.772,3.839,6.515,206.602,1.051,2.631
1782117236.702575,1.047000,1683327,1000,12,0,1,1805.466,1.929,6.488,205.641,0.601,2.556
1782117236.703575,1.048000,1683328,1000,12,0,1,1808.228,1.815,6.493,206.049,0.811,2.543
1782117236.704575,1.049000,1683329,1000,12,0,1,1811.471,4.586,6.522,205.977,1.219,2.539
1782117236.705575,1.050000,1683330,1000,12,0,1,1812.936,3.293,6.536,204.152,-0.683,2.529
1782117236.706575,1.051000,1683331,1000,12,0,1,1811.279,0.508,6.532,206.025,0.363,2.527
1782117236.707575,1.052000,1683332,1000,12,0,1,1809.813,-3.006,6.533,207.154,1.692,2.512
1782117236.708575,1.053000,1683333,1000,12,0,1,1808.901,-4.399,6.560,208.692,1.895,2.512
1782117236.709575,1.054000,1683334,1000,12,0,1,1811.903,-2.637,6.570,208.043,1.294,2.512
1782117236.710575,1.055000,1683335,1000,12,0,1,1815.867,1.248,6.406,209.700,1.167,2.405
1782117236.711575,1.056000,1683336,1000,12,0,1,1808.877,-3.576,6.200,211.646,2.927,2.280
1782117236.712575,1.057000,1683337,1000,12,0,1,1799.485,-12.114,6.354,212.799,2.865,2.171
1782117236.713575,1.058000,1683338,1000,12,0,1,1791.750,-15.499,6.715,213.376,2.826,2.130
1782117236.714575,1.059000,1683339,1000,12,0,1,1799.869,-7.027,6.765,211.118,0.557,2.123
1782117236.715575,1.060000,1683340,1000,12,0,1,1811.951,8.894,6.806,207.563,-2.943,2.162
1782117236.716575,1.061000,1683341,1000,12,0,1,1809.381,8.473,6.864,206.482,-3.514,2.215
1782117236.717575,1.062000,1683342,1000,12,0,1,1808.612,6.475,6.912,205.161,-3.503,2.268
1782117236.718575,1.063000,1683343,1000,12,0,1,1811.423,10.099,7.057,203.960,-3.654,2.305
1782117236.719575,1.064000,1683344,1000,12,0,1,1810.942,9.063,6.878,206.770,-0.494,2.253
1782117236.720575,1.065000,1683345,1000,12,0,1,1806.787,4.877,6.079,207.202,1.518,2.196
1782117236.721575,1.066000,1683346,1000,12,0,1,1805.970,2.303,5.649,205.233,-0.326,2.087
1782117236.722575,1.067000,1683347,1000,12,0,1,1803.448,0.308,5.625,206.314,0.740,1.978
1782117236.723575,1.068000,1683348,1000,12,0,1,1801.622,-3.096,5.601,208.692,3.082,1.936
1782117236.724575,1.069000,1683349,1000,12,0,1,1802.775,-2.504,5.467,206.746,1.523,1.907
1782117236.725575,1.070000,1683350,1000,12,0,1,1805.802,-0.859,5.363,206.530,0.052,1.882
1782117236.726575,1.071000,1683351,1000,12,0,1,1801.935,-4.157,5.380,209.028,2.140,1.870
1782117236.727575,1.072000,1683352,1000,12,0,1,1799.389,-8.239,5.486,208.812,1.569,1.864
1782117236.728575,1.073000,1683353,1000,12,0,1,1807.676,-1.363,5.452,206.338,-1.479,1.874
1782117236.729575,1.074000,1683354,1000,12,0,1,1813.609,4.997,5.477,203.071,-4.605,1.980
1782117236.730575,1.075000,1683355,1000,12,0,1,1814.089,4.020,5.505,203.671,-4.557,2.081
1782117236.731575,1.076000,1683356,1000,12,0,1,1811.495,1.560,5.507,207.034,-0.889,2.084
1782117236.732575,1.077000,1683357,1000,12,0,1,1807.027,-2.628,5.509,206.530,-0.782,2.079
1782117236.733575,1.078000,1683358,1000,12,0,1,1806.306,-2.662,5.519,205.161,-2.279,2.098
1782117236.734575,1.079000,1683359,1000,12,0,1,1810.654,2.411,5.504,203.407,-3.037,2.114
1782117236.735575,1.080000,1683360,1000,12,0,1,1808.516,2.883,5.464,204.392,-2.019,2.132
1782117236.736575,1.081000,1683361,1000,12,0,1,1808.949,2.540,5.435,202.038,-2.188,2.147
1782117236.737575,1.082000,1683362,1000,12,0,1,1811.303,6.383,5.480,204.080,-0.951,2.143
1782117236.738575,1.083000,1683363,1000,12,0,1,1811.039,6.074,5.508,204.872,2.039,2.154
1782117236.739575,1.084000,1683364,1000,12,0,1,1811.207,5.766,5.485,202.398,-0.227,2.154
1782117236.740575,1.085000,1683365,1000,12,0,1,1813.224,6.788,5.518,201.605,-0.390,2.125
1782117236.741575,1.086000,1683366,1000,12,0,1,1816.131,7.964,5.603,201.942,0.637,2.105
1782117236.742575,1.087000,1683367,1000,12,0,1,1816.924,7.157,5.653,203.239,1.926,2.122
1782117236.743575,1.088000,1683368,1000,12,0,1,1815.338,3.296,5.642,202.927,2.241,2.145
1782117236.744575,1.089000,1683369,1000,12,0,1,1820.311,4.571,5.673,202.686,1.306,2.153
1782117236.745575,1.090000,1683370,1000,12,0,1,1820.238,3.710,5.697,204.128,2.501,2.181
1782117236.746575,1.091000,1683371,1000,12,0,1,1813.777,-4.918,5.691,204.512,2.390,2.197
1782117236.747575,1.092000,1683372,1000,12,0,1,1806.715,-12.215,5.830,207.154,3.592,2.187
1782117236.748575,1.093000,1683373,1000,12,0,1,1800.638,-17.364,6.268,209.316,5.018,2.266
1782117236.749575,1.094000,1683374,1000,12,0,1,1800.229,-16.713,6.658,209.244,3.662,2.285
1782117236.750575,1.095000,1683375,1000,12,0,1,1803.544,-11.173,6.818,209.364,2.521,2.290
1782117236.751575,1.096000,1683376,1000,12,0,1,1806.186,-6.778,6.863,210.685,2.706,2.317
1782117236.752575,1.097000,1683377,1000,12,0,1,1805.105,-5.440,6.901,207.923,0.142,2.316
1782117236.753575,1.098000,1683378,1000,12,0,1,1799.677,-8.303,6.995,207.707,-1.410,2.321
1782117236.754575,1.099000,1683379,1000,12,0,1,1800.013,-6.584,7.027,206.434,-1.448,2.324
1782117236.755575,1.100000,1683380,1000,12,0,1,1797.515,-4.728,7.043,204.800,-3.221,2.366
1782117236.756575,1.101000,1683381,1000,12,0,1,1794.921,-5.693,7.089,204.080,-2.863,2.400
1782117236.757575,1.102000,1683382,1000,12,0,1,1794.536,-3.023,7.089,203.479,-2.641,2.417
1782117236.758575,1.103000,1683383,1000,12,0,1,1792.975,-2.259,7.069,204.032,-1.431,2.411
1782117236.759575,1.104000,1683384,1000,12,0,1,1793.936,-0.169,7.059,204.296,-0.189,2.404
1782117236.760575,1.105000,1683385,1000,12,0,1,1795.209,2.609,7.067,202.470,-1.259,2.405
1782117236.761575,1.106000,1683386,1000,12,0,1,1802.079,7.771,7.134,204.056,0.074,2.369
1782117236.762575,1.107000,1683387,1000,12,0,1,1808.733,13.934,7.200,203.263,0.509,2.335
1782117236.763575,1.108000,1683388,1000,12,0,1,1812.888,14.768,7.169,203.960,0.204,2.301
1782117236.764575,1.109000,1683389,1000,12,0,1,1810.054,10.505,7.254,204.920,1.582,2.310
1782117236.765575,1.110000,1683390,1000,12,0,1,1804.553,2.190,7.150,207.154,2.506,2.300
1782117236.766575,1.111000,1683391,1000,12,0,1,1804.625,0.247,7.049,209.412,4.125,2.320
1782117236.767575,1.112000,1683392,1000,12,0,1,1808.516,2.771,7.001,208.836,2.683,2.298
1782117236.768575,1.113000,1683393,1000,12,0,1,1806.787,1.003,6.855,208.091,0.652,2.241
1782117236.769575,1.114000,1683394,1000,12,0,1,1801.142,-4.850,6.769,211.094,2.275,2.263
1782117236.770575,1.115000,1683395,1000,12,0,1,1792.326,-11.654,6.932,212.175,2.919,2.291
1782117236.771575,1.116000,1683396,1000,12,0,1,1783.799,-17.448,7.351,210.301,0.302,2.291
1782117236.772575,1.117000,1683397,1000,12,0,1,1781.301,-16.657,7.719,211.574,0.320,2.289
1782117236.773575,1.118000,1683398,1000,12,0,1,1786.393,-8.398,7.798,209.484,-0.694,2.249
1782117236.774575,1.119000,1683399,1000,12,0,1,1792.855,0.869,7.791,208.043,-2.995,2.278
1782117236.775575,1.120000,1683400,1000,12,0,1,1802.535,10.571,7.932,206.338,-3.126,2.321
1782117236.776575,1.121000,1683401,1000,12,0,1,1808.132,16.670,8.254,204.896,-4.237,2.378
1782117236.777575,1.122000,1683402,1000,12,0,1,1804.145,12.217,8.352,202.831,-4.495,2.451
1782117236.778575,1.123000,1683403,1000,12,0,1,1803.784,9.242,8.451,201.678,-4.751,2.533
1782117236.779575,1.124000,1683404,1000,12,0,1,1800.373,6.668,8.474,201.437,-3.510,2.498
1782117236.780575,1.125000,1683405,1000,12,0,1,1798.139,2.150,8.461,201.581,-2.347,2.436
1782117236.781575,1.126000,1683406,1000,12,0,1,1799.100,2.957,8.468,201.005,-1.922,2.448
1782117236.782575,1.127000,1683407,1000,12,0,1,1798.452,1.448,8.463,202.230,-0.540,2.446
1782117236.783575,1.128000,1683408,1000,12,0,1,1796.506,-1.115,8.456,200.188,-1.331,2.432
1782117236.784575,1.129000,1683409,1000,12,0,1,1796.722,-1.909,8.453,201.485,-1.095,2.399
1782117236.785575,1.130000,1683410,1000,12,0,1,1794.873,-3.451,8.457,202.927,1.103,2.387
1782117236.786575,1.131000,1683411,1000,12,0,1,1793.215,-5.557,8.486,201.509,-0.620,2.369
1782117236.787575,1.132000,1683412,1000,12,0,1,1795.761,-3.351,8.451,201.990,-0.808,2.368
1782117236.788575,1.133000,1683413,1000,12,0,1,1802.391,2.592,8.416,201.317,-0.952,2.354
1782117236.789575,1.134000,1683414,1000,12,0,1,1810.486,9.215,8.477,202.494,-0.821,2.356
1782117236.790575,1.135000,1683415,1000,12,0,1,1814.498,11.999,8.591,202.807,0.289,2.356
1782117236.791575,1.136000,1683416,1000,12,0,1,1811.039,7.399,8.581,202.470,-0.602,2.356
1782117236.792575,1.137000,1683417,1000,12,0,1,1806.619,1.816,8.525,201.389,-0.872,2.343
1782117236.793575,1.138000,1683418,1000,12,0,1,1802.703,-1.664,8.516,202.831,0.113,2.322
1782117236.794575,1.139000,1683419,1000,12,0,1,1799.533,-4.059,8.511,203.431,1.795,2.329
1782117236.795575,1.140000,1683420,1000,12,0,1,1796.458,-5.451,8.529,205.881,3.490,2.354
1782117236.796575,1.141000,1683421,1000,12,0,1,1795.617,-5.082,8.531,205.689,4.355,2.409
1782117236.797575,1.142000,1683422,1000,12,0,1,1797.659,-1.868,8.359,204.872,2.920,2.391
1782117236.798575,1.143000,1683423,1000,12,0,1,1798.163,-0.087,7.990,202.638,1.582,2.294
1782117236.799575,1.144000,1683424,1000,12,0,1,1799.989,1.299,7.634,204.560,2.512,2.263
1782117236.800575,1.145000,1683425,1000,12,0,1,1802.896,4.042,7.491,204.200,3.358,2.285
1782117236.801575,1.146000,1683426,1000,12,0,1,1800.614,1.733,7.433,201.317,0.134,2.253
1782117236.802575,1.147000,1683427,1000,12,0,1,1798.019,-2.030,7.399,201.798,0.190,2.253
1782117236.803575,1.148000,1683428,1000,12,0,1,1797.155,-3.127,7.319,202.494,1.241,2.251
1782117236.804575,1.149000,1683429,1000,12,0,1,1794.248,-5.761,7.305,205.473,2.719,2.274
1782117236.805575,1.150000,1683430,1000,12,0,1,1792.975,-7.339,7.348,207.539,4.618,2.322
1782117236.806575,1.151000,1683431,1000,12,0,1,1791.558,-7.637,7.383,207.491,2.965,2.324
1782117236.807575,1.152000,1683432,1000,12,0,1,1791.534,-7.481,7.446,207.106,1.696,2.307
1782117236.808575,1.153000,1683433,1000,12,0,1,1788.531,-8.247,7.530,207.851,1.013,2.302
1782117236.809575,1.154000,1683434,1000,12,0,1,1792.038,-5.481,7.570,206.890,-0.162,2.302
1782117236.810575,1.155000,1683435,1000,12,0,1,1795.185,0.106,7.561,205.929,-2.010,2.313
1782117236.811575,1.156000,1683436,1000,12,0,1,1793.071,-1.280,7.483,207.683,-0.771,2.315
1782117236.812575,1.157000,1683437,1000,12,0,1,1787.883,-4.507,7.247,207.467,-0.558,2.316
1782117236.813575,1.158000,1683438,1000,12,0,1,1783.078,-7.303,7.016,207.971,-0.767,2.318
1782117236.814575,1.159000,1683439,1000,12,0,1,1781.805,-6.362,6.916,210.061,1.458,2.316
1782117236.815575,1.160000,1683440,1000,12,0,1,1791.894,3.871,6.930,206.266,-1.190,2.295
1782117236.816575,1.161000,1683441,1000,12,0,1,1791.894,7.662,7.014,206.266,-2.177,2.241
1782117236.817575,1.162000,1683442,1000,12,0,1,1798.236,10.078,7.147,200.549,-4.570,2.301
1782117236.818575,1.163000,1683443,1000,12,0,1,1794.704,10.287,7.292,201.149,-5.521,2.429
1782117236.819575,1.164000,1683444,1000,12,0,1,1794.344,5.362,7.299,201.437,-1.854,2.421
1782117236.820575,1.165000,1683445,1000,12,0,1,1795.161,7.689,7.193,200.356,-3.207,2.429
1782117236.821575,1.166000,1683446,1000,12,0,1,1793.888,4.410,6.786,199.948,-2.196,2.448
1782117236.822575,1.167000,1683447,1000,12,0,1,1790.789,1.246,6.366,200.428,-1.510,2.457
1782117236.823575,1.168000,1683448,1000,12,0,1,1792.663,1.310,6.257,198.795,-2.197,2.475
1782117236.824575,1.169000,1683449,1000,12,0,1,1793.335,1.919,6.262,199.636,-1.758,2.451
1782117236.825575,1.170000,1683450,1000,12,0,1,1796.218,2.903,6.095,199.636,-1.107,2.416
1782117236.826575,1.171000,1683451,1000,12,0,1,1796.482,2.785,5.634,201.798,0.147,2.340
1782117236.827575,1.172000,1683452,1000,12,0,1,1795.809,0.850,5.364,201.750,0.539,2.253
1782117236.828575,1.173000,1683453,1000,12,0,1,1796.530,0.575,5.203,200.669,-1.161,2.157
1782117236.829575,1.174000,1683454,1000,12,0,1,1792.302,-2.461,5.128,203.287,0.573,2.101
1782117236.830575,1.175000,1683455,1000,12,0,1,1788.891,-6.497,5.201,203.984,1.800,2.090
1782117236.831575,1.176000,1683456,1000,12,0,1,1781.061,-10.539,5.394,206.169,2.370,2.099
1782117236.832575,1.177000,1683457,1000,12,0,1,1775.440,-15.096,5.798,209.773,5.803,2.253
1782117236.833575,1.178000,1683458,1000,12,0,1,1788.243,-2.003,5.803,207.394,3.434,2.297
1782117236.834575,1.179000,1683459,1000,12,0,1,1796.218,9.155,5.939,203.887,-0.480,2.292
1782117236.835575,1.180000,1683460,1000,12,0,1,1793.720,6.154,5.983,202.062,-1.718,2.300
1782117236.836575,1.181000,1683461,1000,12,0,1,1793.527,5.246,5.977,202.206,-1.088,2.303
1782117236.837575,1.182000,1683462,1000,12,0,1,1791.558,3.890,5.984,198.603,-2.657,2.331
1782117236.838575,1.183000,1683463,1000,12,0,1,1787.018,-0.590,5.973,202.566,0.017,2.327
1782117236.839575,1.184000,1683464,1000,12,0,1,1782.382,-4.304,5.861,202.350,2.722,2.356
1782117236.840575,1.185000,1683465,1000,12,0,1,1776.401,-8.650,5.742,204.488,2.619,2.385
1782117236.841575,1.186000,1683466,1000,12,0,1,1776.569,-8.104,5.761,202.807,3.064,2.422
1782117236.842575,1.187000,1683467,1000,12,0,1,1777.626,-4.849,5.796,201.605,0.037,2.419
1782117236.843575,1.188000,1683468,1000,12,0,1,1782.502,-0.788,5.792,199.876,-0.588,2.420
1782117236.844575,1.189000,1683469,1000,12,0,1,1789.348,6.065,5.827,201.053,-0.727,2.409
1782117236.845575,1.190000,1683470,1000,12,0,1,1783.991,1.837,5.781,202.758,1.105,2.363
1782117236.846575,1.191000,1683471,1000,12,0,1,1775.056,-7.718,5.840,204.032,1.473,2.291
1782117236.847575,1.192000,1683472,1000,12,0,1,1774.647,-7.676,5.934,206.842,2.824,2.289
1782117236.848575,1.193000,1683473,1000,12,0,1,1782.694,0.306,5.934,205.713,1.828,2.292
1782117236.849575,1.194000,1683474,1000,12,0,1,1788.171,6.696,6.006,202.446,-2.672,2.296
1782117236.850575,1.195000,1683475,1000,12,0,1,1788.219,6.134,6.041,201.077,-3.785,2.309
1782117236.851575,1.196000,1683476,1000,12,0,1,1791.318,7.670,6.133,200.741,-4.055,2.379
1782117236.852575,1.197000,1683477,1000,12,0,1,1795.521,11.109,6.325,201.077,-2.986,2.416
1782117236.853575,1.198000,1683478,1000,12,0,1,1795.641,10.290,6.475,201.269,-2.229,2.430
1782117236.854575,1.199000,1683479,1000,12,0,1,1790.645,5.064,6.463,203.359,0.097,2.400
1782117236.855575,1.200000,1683480,1000,12,0,1,1780.340,-4.162,6.406,203.359,1.160,2.315
1782117236.856575,1.201000,1683481,1000,12,0,1,1777.241,-7.369,6.400,202.326,0.294,2.277
1782117236.857575,1.202000,1683482,1000,12,0,1,1777.241,-4.678,6.347,202.446,0.930,2.268
1782117236.858575,1.203000,1683483,1000,12,0,1,1777.025,-3.865,6.262,201.197,0.518,2.265
1782117236.859575,1.204000,1683484,1000,12,0,1,1782.286,1.444,6.218,198.627,-1.374,2.273
1782117236.860575,1.205000,1683485,1000,12,0,1,1791.294,9.693,6.367,195.720,-3.239,2.301
1782117236.861575,1.206000,1683486,1000,12,0,1,1792.206,10.341,6.530,194.111,-4.047,2.369
1782117236.862575,1.207000,1683487,1000,12,0,1,1789.420,5.241,6.541,197.594,-0.573,2.369
1782117236.863575,1.208000,1683488,1000,12,0,1,1787.594,2.150,6.466,198.987,1.860,2.381
1782117236.864575,1.209000,1683489,1000,12,0,1,1787.114,0.346,6.404,198.435,0.663,2.374
1782117236.865575,1.210000,1683490,1000,12,0,1,1784.015,-2.774,6.392,197.474,-0.236,2.368
1782117236.866575,1.211000,1683491,1000,12,0,1,1785.144,-3.230,6.316,199.059,0.320,2.349
1782117236.867575,1.212000,1683492,1000,12,0,1,1783.343,-3.651,6.175,199.203,0.739,2.260
1782117236.868575,1.213000,1683493,1000,12,0,1,1781.829,-5.929,6.059,198.267,-0.895,2.125
1782117236.869575,1.214000,1683494,1000,12,0,1,1781.445,-5.110,6.055,198.579,-0.852,2.112
1782117236.870575,1.215000,1683495,1000,12,0,1,1780.748,-5.063,5.999,199.852,0.196,2.063
1782117236.871575,1.216000,1683496,1000,12,0,1,1781.205,-3.766,5.991,202.638,2.334,2.066
1782117236.872575,1.217000,1683497,1000,12,0,1,1781.085,-2.430,5.998,201.726,2.072,2.076
1782117236.873575,1.218000,1683498,1000,12,0,1,1778.683,-3.505,6.016,201.005,0.472,2.054
1782117236.874575,1.219000,1683499,1000,12,0,1,1779.668,-1.856,6.015,200.477,0.780,2.042
1782117236.875575,1.220000,1683500,1000,12,0,1,1780.869,0.815,6.002,202.062,1.795,2.051
1782117236.876575,1.221000,1683501,1000,12,0,1,1780.628,1.304,5.992,199.660,1.102,2.057
1782117236.877575,1.222000,1683502,1000,12,0,1,1779.547,0.956,5.992,196.441,-2.177,2.079
1782117236.878575,1.223000,1683503,1000,12,0,1,1778.995,0.812,5.993,198.026,-0.115,2.072
1782117236.879575,1.224000,1683504,1000,12,0,1,1781.829,3.195,6.000,198.891,1.809,2.086
1782117236.880575,1.225000,1683505,1000,12,0,1,1780.700,3.084,5.945,196.970,0.265,2.071
1782117236.881575,1.226000,1683506,1000,12,0,1,1779.331,0.520,5.756,198.267,1.154,2.050
1782117236.882575,1.227000,1683507,1000,12,0,1,1775.704,-1.923,5.352,198.531,1.961,1.899
1782117236.883575,1.228000,1683508,1000,12,0,1,1777.554,-1.827,5.351,198.050,0.865,1.840
1782117236.884575,1.229000,1683509,1000,12,0,1,1778.010,0.147,5.192,200.164,2.118,1.863
1782117236.885575,1.230000,1683510,1000,12,0,1,1780.172,0.454,5.119,200.428,2.229,1.874
1782117236.886575,1.231000,1683511,1000,12,0,1,1778.370,0.023,5.065,201.774,1.844,1.886
1782117236.887575,1.232000,1683512,1000,12,0,1,1777.169,-2.498,5.047,199.924,0.353,1.849
1782117236.888575,1.233000,1683513,1000,12,0,1,1777.217,-1.658,5.052,200.284,-1.235,1.857
1782117236.889575,1.234000,1683514,1000,12,0,1,1778.082,-0.888,5.017,201.942,0.589,1.818
1782117236.890575,1.235000,1683515,1000,12,0,1,1779.499,0.759,4.866,200.573,-1.092,1.787
1782117236.891575,1.236000,1683516,1000,12,0,1,1777.097,-0.374,4.730,202.206,-0.466,1.735
1782117236.892575,1.237000,1683517,1000,12,0,1,1774.743,-2.696,4.695,202.951,0.923,1.740
1782117236.893575,1.238000,1683518,1000,12,0,1,1775.920,-0.489,4.695,203.383,0.588,1.740
1782117236.894575,1.239000,1683519,1000,12,0,1,1775.224,0.059,4.616,201.221,-0.432,1.738
1782117236.895575,1.240000,1683520,1000,12,0,1,1775.752,0.904,4.610,200.188,-1.878,1.751
1782117236.896575,1.241000,1683521,1000,12,0,1,1775.272,1.613,4.485,201.053,-0.075,1.739
1782117236.897575,1.242000,1683522,1000,12,0,1,1776.161,2.279,4.363,199.516,-0.693,1.695
1782117236.898575,1.243000,1683523,1000,12,0,1,1774.119,1.566,4.369,199.948,-0.334,1.676
1782117236.899575,1.244000,1683524,1000,12,0,1,1772.317,-0.602,4.266,200.428,1.123,1.640
1782117236.900575,1.245000,1683525,1000,12,0,1,1771.308,-0.789,4.178,200.645,1.098,1.558
1782117236.901575,1.246000,1683526,1000,12,0,1,1772.581,0.096,4.035,198.963,0.167,1.449
1782117236.902575,1.247000,1683527,1000,12,0,1,1776.665,3.668,3.752,198.507,-0.925,1.392
1782117236.903575,1.248000,1683528,1000,12,0,1,1775.104,2.672,3.479,199.852,0.477,1.358
1782117236.904575,1.249000,1683529,1000,12,0,1,1771.308,-2.113,3.418,199.564,0.071,1.358
1782117236.905575,1.250000,1683530,1000,12,0,1,1769.291,-3.759,3.409,202.230,1.298,1.360
1782117236.906575,1.251000,1683531,1000,12,0,1,1767.897,-4.816,3.316,205.257,3.823,1.463
1782117236.907575,1.252000,1683532,1000,12,0,1,1762.277,-8.315,3.456,207.130,4.013,1.564
1782117236.908575,1.253000,1683533,1000,12,0,1,1760.619,-9.684,3.677,205.353,1.784,1.583
1782117236.909575,1.254000,1683534,1000,12,0,1,1767.033,-2.267,3.685,203.647,-1.362,1.582
1782117236.910575,1.255000,1683535,1000,12,0,1,1773.951,5.276,3.501,202.158,-2.674,1.561
1782117236.911575,1.256000,1683536,1000,12,0,1,1775.200,6.809,3.323,200.645,-4.201,1.569
1782117236.912575,1.257000,1683537,1000,12,0,1,1775.824,6.392,3.363,198.002,-5.721,1.764
1782117236.913575,1.258000,1683538,1000,12,0,1,1769.507,1.686,3.358,199.275,-4.392,1.851
1782117236.914575,1.259000,1683539,1000,12,0,1,1768.234,-1.112,3.362,202.614,-0.027,1.849
1782117236.915575,1.260000,1683540,1000,12,0,1,1773.494,4.897,3.410,199.251,-1.570,1.862
1782117236.916575,1.261000,1683541,1000,12,0,1,1772.654,5.029,3.453,196.129,-4.550,1.969
1782117236.917575,1.262000,1683542,1000,12,0,1,1772.413,3.526,3.450,200.164,-0.029,1.967
1782117236.918575,1.263000,1683543,1000,12,0,1,1770.876,3.079,3.375,202.614,3.561,2.026
1782117236.919575,1.264000,1683544,1000,12,0,1,1767.561,-0.634,3.298,200.573,1.843,2.039
1782117236.920575,1.265000,1683545,1000,12,0,1,1764.751,-2.567,3.240,201.389,1.890,2.056
1782117236.921575,1.266000,1683546,1000,12,0,1,1769.507,0.806,3.198,199.203,0.901,2.034
1782117236.922575,1.267000,1683547,1000,12,0,1,1774.239,6.133,3.295,197.450,-1.735,2.027
1782117236.923575,1.268000,1683548,1000,12,0,1,1777.386,7.230,3.415,196.970,-1.533,2.038
1782117236.924575,1.269000,1683549,1000,12,0,1,1776.545,5.825,3.503,198.459,-0.727,2.038
1782117236.925575,1.270000,1683550,1000,12,0,1,1775.224,2.482,3.518,197.666,-0.809,2.025
1782117236.926575,1.271000,1683551,1000,12,0,1,1773.086,-0.007,3.514,198.147,-1.376,2.028
1782117236.927575,1.272000,1683552,1000,12,0,1,1770.299,-3.256,3.541,198.747,-0.485,2.006
1782117236.928575,1.273000,1683553,1000,12,0,1,1770.636,-3.397,3.572,198.098,-1.400,2.016
1782117236.929575,1.274000,1683554,1000,12,0,1,1767.777,-4.621,3.603,199.011,-0.942,2.004
1782117236.930575,1.275000,1683555,1000,12,0,1,1763.430,-8.506,3.773,200.284,0.477,2.005
1782117236.931575,1.276000,1683556,1000,12,0,1,1759.466,-10.110,4.034,203.431,2.623,2.032
1782117236.932575,1.277000,1683557,1000,12,0,1,1757.016,-10.760,4.303,201.846,2.126,2.035
1782117236.933575,1.278000,1683558,1000,12,0,1,1754.062,-10.445,4.542,203.191,1.605,2.044
1782117236.934575,1.279000,1683559,1000,12,0,1,1763.358,-1.879,4.550,203.479,3.226,2.073
1782117236.935575,1.280000,1683560,1000,12,0,1,1777.482,13.245,4.920,199.780,-0.545,2.050
1782117236.936575,1.281000,1683561,1000,12,0,1,1781.517,16.497,5.445,198.483,-1.554,2.046
1782117236.937575,1.282000,1683562,1000,12,0,1,1776.401,10.032,5.616,199.372,0.037,2.045
1782117236.938575,1.283000,1683563,1000,12,0,1,1766.480,-0.102,5.611,199.636,0.850,2.041
1782117236.939575,1.284000,1683564,1000,12,0,1,1763.598,-4.297,5.642,200.741,2.014,2.059
1782117236.940575,1.285000,1683565,1000,12,0,1,1771.116,2.829,5.655,196.777,-0.625,2.055
1782117236.941575,1.286000,1683566,1000,12,0,1,1773.110,5.577,5.710,195.552,-2.641,2.088
1782117236.942575,1.287000,1683567,1000,12,0,1,1770.444,1.755,5.703,197.522,-0.014,2.084
1782117236.943575,1.288000,1683568,1000,12,0,1,1769.771,0.354,5.702,197.690,0.286,2.083
1782117236.944575,1.289000,1683569,1000,12,0,1,1772.581,2.120,5.710,198.435,0.367,2.082
1782117236.945575,1.290000,1683570,1000,12,0,1,1773.302,2.722,5.722,198.026,0.121,2.065
1782117236.946575,1.291000,1683571,1000,12,0,1,1769.387,-1.330,5.720,197.930,-0.907,2.069
1782117236.947575,1.292000,1683572,1000,12,0,1,1766.312,-4.722,5.750,198.627,-0.329,2.068
1782117236.948575,1.293000,1683573,1000,12,0,1,1764.318,-5.729,5.803,199.107,-0.419,2.068
1782117236.949575,1.294000,1683574,1000,12,0,1,1760.811,-7.881,5.908,200.837,0.706,2.064
1782117236.950575,1.295000,1683575,1000,12,0,1,1755.815,-10.756,6.100,201.509,1.205,2.065
1782117236.951575,1.296000,1683576,1000,12,0,1,1757.785,-8.164,6.208,200.284,-0.208,2.065
1782117236.952575,1.297000,1683577,1000,12,0,1,1766.096,1.254,6.189,197.546,-2.509,2.092
1782117236.953575,1.298000,1683578,1000,12,0,1,1773.062,8.271,6.287,193.919,-5.209,2.216
1782117236.954575,1.299000,1683579,1000,12,0,1,1771.188,6.863,6.355,196.945,-2.400,2.242
1782117236.955575,1.300000,1683580,1000,12,0,1,1770.900,4.472,6.364,195.552,-0.977,2.239
1782117236.956575,1.301000,1683581,1000,12,0,1,1770.059,4.175,6.355,196.849,-0.773,2.176
1782117236.957575,1.302000,1683582,1000,12,0,1,1770.900,3.384,6.263,196.345,1.179,2.107
1782117236.958575,1.303000,1683583,1000,12,0,1,1768.306,1.783,6.117,194.399,-0.976,2.096
1782117236.959575,1.304000,1683584,1000,12,0,1,1766.816,-0.930,6.110,195.336,0.607,2.089
1782117236.960575,1.305000,1683585,1000,12,0,1,1766.240,-0.796,6.065,199.227,4.186,2.138
1782117236.961575,1.306000,1683586,1000,12,0,1,1767.729,0.037,5.988,199.348,4.717,2.160
1782117236.962575,1.307000,1683587,1000,12,0,1,1769.555,1.910,5.926,199.636,3.691,2.069
1782117236.963575,1.308000,1683588,1000,12,0,1,1768.258,0.745,5.922,199.612,3.294,2.028
1782117236.964575,1.309000,1683589,1000,12,0,1,1764.102,-3.269,5.938,200.140,2.635,2.062
1782117236.965575,1.310000,1683590,1000,12,0,1,1762.637,-4.615,5.934,202.254,3.496,2.109
1782117236.966575,1.311000,1683591,1000,12,0,1,1763.069,-3.523,5.912,206.001,5.672,2.163
1782117236.967575,1.312000,1683592,1000,12,0,1,1760.139,-4.852,5.931,206.794,5.287,2.288
1782117236.968575,1.313000,1683593,1000,12,0,1,1759.802,-5.275,5.961,201.053,-0.730,2.234
1782117236.969575,1.314000,1683594,1000,12,0,1,1759.899,-3.327,5.979,193.535,-8.456,2.521
1782117236.970575,1.315000,1683595,1000,12,0,1,1760.379,-2.652,5.980,193.462,-8.510,2.781
1782117236.971575,1.316000,1683596,1000,12,0,1,1759.538,-1.956,5.985,192.574,-7.052,2.951
1782117236.972575,1.317000,1683597,1000,12,0,1,1762.829,0.559,5.923,191.901,-7.069,3.106
1782117236.973575,1.318000,1683598,1000,12,0,1,1761.460,1.308,5.837,193.030,-4.334,3.159
1782117236.974575,1.319000,1683599,1000,12,0,1,1755.815,-4.100,5.807,195.192,-1.361,3.163
1782117236.975575,1.320000,1683600,1000,12,0,1,1752.500,-6.182,5.862,194.039,-0.867,3.163
1782117236.976575,1.321000,1683601,1000,12,0,1,1751.683,-5.479,5.913,196.105,0.722,3.159
1782117236.977575,1.322000,1683602,1000,12,0,1,1741.835,-11.194,6.104,199.828,5.058,3.238
1782117236.978575,1.323000,1683603,1000,12,0,1,1740.009,-12.816,6.349,200.236,5.414,3.322
1782117236.979575,1.324000,1683604,1000,12,0,1,1740.009,-8.079,6.418,200.236,4.557,3.381
1782117236.980575,1.325000,1683605,1000,12,0,1,1756.584,5.385,6.350,196.801,1.735,3.389
1782117236.981575,1.326000,1683606,1000,12,0,1,1749.786,6.303,6.251,201.389,3.503,3.405
1782117236.982575,1.327000,1683607,1000,12,0,1,1758.625,6.036,6.123,197.162,2.221,3.406
1782117236.983575,1.328000,1683608,1000,12,0,1,1766.504,18.617,6.499,194.976,-3.157,3.428
1782117236.984575,1.329000,1683609,1000,12,0,1,1763.333,11.083,6.680,195.648,-0.813,3.399
1782117236.985575,1.330000,1683610,1000,12,0,1,1767.465,12.488,6.651,195.240,-2.028,3.410
1782117236.986575,1.331000,1683611,1000,12,0,1,1767.537,12.294,6.466,195.600,-1.491,3.410
1782117236.987575,1.332000,1683612,1000,12,0,1,1765.159,6.523,6.376,197.354,-0.092,3.410
1782117236.988575,1.333000,1683613,1000,12,0,1,1765.832,6.766,6.447,195.720,-1.230,3.412
1782117236.989575,1.334000,1683614,1000,12,0,1,1764.294,3.659,6.440,190.964,-5.265,3.481
1782117236.990575,1.335000,1683615,1000,12,0,1,1762.757,2.032,6.434,190.268,-6.077,3.584
1782117236.991575,1.336000,1683616,1000,12,0,1,1763.934,1.779,6.390,188.995,-5.020,3.635
1782117236.992575,1.337000,1683617,1000,12,0,1,1762.973,1.762,6.390,190.964,-3.434,3.667
