Unix_Time_s,EMG_t_s,sample_idx,fs,gain,flags,emg_valid,ch1_raw_uV,ch1_filt_uV,ch1_env_uV,ch2_raw_uV,ch2_filt_uV,ch2_env_uV
1782117284.522856,0.000000,1730880,1000,12,0,1,659.944,9.146,12.409,329.179,12.795,4.966
1782117284.523856,0.001000,1730881,1000,12,0,1,655.428,3.315,12.322,335.425,15.074,5.332
1782117284.524856,0.002000,1730882,1000,12,0,1,652.642,-1.421,12.302,338.499,14.798,5.690
1782117284.525856,0.003000,1730883,1000,12,0,1,652.281,-2.324,12.306,334.031,7.640,5.778
1782117284.526856,0.004000,1730884,1000,12,0,1,661.673,4.088,12.319,327.594,-1.251,5.775
1782117284.527856,0.005000,1730885,1000,12,0,1,667.318,9.460,12.382,332.902,0.677,5.776
1782117284.528856,0.006000,1730886,1000,12,0,1,665.397,4.977,12.353,344.793,10.540,5.960
1782117284.529856,0.007000,1730887,1000,12,0,1,660.472,-1.326,12.298,356.371,18.100,6.474
1782117284.530856,0.008000,1730888,1000,12,0,1,654.155,-8.094,12.115,366.243,23.064,7.219
1782117284.531856,0.009000,1730889,1000,12,0,1,648.894,-13.183,11.498,369.630,21.720,7.753
1782117284.532856,0.010000,1730890,1000,12,0,1,649.831,-11.968,11.127,371.864,17.762,8.072
1782117284.533856,0.011000,1730891,1000,12,0,1,652.498,-8.320,11.182,367.853,10.777,8.214
1782117284.534856,0.012000,1730892,1000,12,0,1,664.844,1.555,10.935,348.492,-9.098,8.307
1782117284.535856,0.013000,1730893,1000,12,0,1,682.379,16.639,11.098,320.196,-34.807,9.647
1782117284.536856,0.014000,1730894,1000,12,0,1,681.322,14.720,11.150,308.257,-44.317,11.474
1782117284.537856,0.015000,1730895,1000,12,0,1,661.986,-6.092,10.705,315.007,-32.345,12.310
1782117284.538856,0.016000,1730896,1000,12,0,1,637.244,-28.536,11.250,326.729,-16.756,12.523
1782117284.539856,0.017000,1730897,1000,12,0,1,622.159,-40.190,12.532,330.765,-9.389,12.593
1782117284.540856,0.018000,1730898,1000,12,0,1,633.449,-26.360,12.809,321.421,-15.586,12.777
1782117284.541856,0.019000,1730899,1000,12,0,1,650.768,-4.264,12.320,312.989,-22.673,13.168
1782117284.542856,0.020000,1730900,1000,12,0,1,649.351,-2.049,11.979,314.647,-18.707,13.431
1782117284.543856,0.021000,1730901,1000,12,0,1,649.711,-3.111,11.892,316.496,-13.747,13.571
1782117284.544856,0.022000,1730902,1000,12,0,1,652.978,2.014,11.886,317.890,-10.912,13.649
1782117284.545856,0.023000,1730903,1000,12,0,1,649.351,-0.758,11.846,311.860,-13.205,13.772
1782117284.546856,0.024000,1730904,1000,12,0,1,664.844,9.944,11.890,284.837,-32.928,14.531
1782117284.547856,0.025000,1730905,1000,12,0,1,676.542,22.823,12.320,260.720,-51.187,16.207
1782117284.548856,0.026000,1730906,1000,12,0,1,671.474,14.373,12.486,254.235,-47.916,17.556
1782117284.549856,0.027000,1730907,1000,12,0,1,660.929,2.499,12.489,261.561,-31.902,18.123
1782117284.550856,0.028000,1730908,1000,12,0,1,661.842,0.057,12.485,272.130,-13.063,18.213
1782117284.551856,0.029000,1730909,1000,12,0,1,664.700,3.594,12.491,280.706,0.692,18.201
1782117284.552856,0.030000,1730910,1000,12,0,1,665.613,2.885,12.490,282.747,7.230,18.222
1782117284.553856,0.031000,1730911,1000,12,0,1,659.151,-2.392,12.491,285.005,11.011,18.288
1782117284.554856,0.032000,1730912,1000,12,0,1,653.458,-8.649,12.516,286.975,15.114,18.408
1782117284.555856,0.033000,1730913,1000,12,0,1,657.518,-4.731,12.462,283.372,13.353,18.486
1782117284.556856,0.034000,1730914,1000,12,0,1,660.641,0.022,12.430,283.516,13.132,18.578
1782117284.557856,0.035000,1730915,1000,12,0,1,660.761,-0.415,12.355,289.281,19.126,18.768
1782117284.558856,0.036000,1730916,1000,12,0,1,666.526,4.204,12.059,291.899,21.417,18.992
1782117284.559856,0.037000,1730917,1000,12,0,1,675.293,11.199,11.858,292.284,20.281,19.199
1782117284.560856,0.038000,1730918,1000,12,0,1,677.623,12.312,11.911,294.734,20.473,19.416
1782117284.561856,0.039000,1730919,1000,12,0,1,673.059,5.702,11.924,298.193,21.643,19.652
1782117284.562856,0.040000,1730920,1000,12,0,1,673.323,3.188,11.931,301.796,22.115,19.896
1782117284.563856,0.041000,1730921,1000,12,0,1,672.555,2.203,11.930,303.958,21.273,20.116
1782117284.564856,0.042000,1730922,1000,12,0,1,671.930,-0.315,11.826,308.858,21.634,20.335
1782117284.565856,0.043000,1730923,1000,12,0,1,668.375,-3.228,11.717,309.122,19.559,20.514
1782117284.566856,0.044000,1730924,1000,12,0,1,660.953,-10.214,11.768,307.320,13.665,20.605
1782117284.567856,0.045000,1730925,1000,12,0,1,650.984,-17.718,11.904,310.996,13.729,20.696
1782117284.568856,0.046000,1730926,1000,12,0,1,650.984,-17.032,11.912,310.996,12.087,20.760
1782117284.569856,0.047000,1730927,1000,12,0,1,661.818,-4.794,11.670,309.146,7.171,20.743
1782117284.570856,0.048000,1730928,1000,12,0,1,652.065,-8.639,11.530,314.575,9.484,20.719
1782117284.571856,0.049000,1730929,1000,12,0,1,653.819,-10.873,11.502,315.680,9.722,20.699
1782117284.572856,0.050000,1730930,1000,12,0,1,660.857,0.698,11.429,307.176,0.278,20.619
1782117284.573856,0.051000,1730931,1000,12,0,1,661.073,0.065,11.420,302.492,-5.920,20.526
1782117284.574856,0.052000,1730932,1000,12,0,1,654.155,-4.421,11.435,308.113,-1.243,20.420
1782117284.575856,0.053000,1730933,1000,12,0,1,647.693,-10.456,11.525,309.002,0.765,20.391
1782117284.576856,0.054000,1730934,1000,12,0,1,641.184,-13.638,11.671,299.970,-7.648,20.419
1782117284.577856,0.055000,1730935,1000,12,0,1,631.119,-19.455,11.916,298.024,-10.600,20.474
1782117284.578856,0.056000,1730936,1000,12,0,1,627.204,-20.467,12.243,302.132,-5.375,20.434
1782117284.579856,0.057000,1730937,1000,12,0,1,637.773,-7.351,12.285,299.970,-6.203,20.292
1782117284.580856,0.058000,1730938,1000,12,0,1,656.197,11.398,12.338,297.136,-9.117,20.069
1782117284.581856,0.059000,1730939,1000,12,0,1,673.371,26.944,12.777,295.478,-9.554,19.879
1782117284.582856,0.060000,1730940,1000,12,0,1,679.737,30.130,13.362,294.229,-10.025,19.771
1782117284.583856,0.061000,1730941,1000,12,0,1,672.603,20.189,13.613,297.472,-6.626,19.734
1782117284.584856,0.062000,1730942,1000,12,0,1,665.997,9.457,13.677,299.922,-3.151,19.697
1782117284.585856,0.063000,1730943,1000,12,0,1,668.639,9.494,13.540,301.363,-2.111,19.074
1782117284.586856,0.064000,1730944,1000,12,0,1,669.864,9.738,13.450,302.973,-0.482,18.015
1782117284.587856,0.065000,1730945,1000,12,0,1,669.192,7.018,13.459,307.537,2.814,17.430
1782117284.588856,0.066000,1730946,1000,12,0,1,667.583,4.579,12.856,311.380,6.243,17.290
1782117284.589856,0.067000,1730947,1000,12,0,1,663.283,-0.055,11.531,312.077,5.827,17.259
1782117284.590856,0.068000,1730948,1000,12,0,1,661.938,-2.126,10.916,316.280,7.788,17.153
1782117284.591856,0.069000,1730949,1000,12,0,1,661.025,-2.170,10.903,314.887,6.835,16.878
1782117284.592856,0.070000,1730950,1000,12,0,1,663.595,-0.549,10.900,310.779,1.152,16.671
1782117284.593856,0.071000,1730951,1000,12,0,1,666.838,2.973,10.899,304.678,-3.587,16.565
1782117284.594856,0.072000,1730952,1000,12,0,1,668.159,3.300,10.905,301.724,-6.643,16.519
1782117284.595856,0.073000,1730953,1000,12,0,1,667.222,1.829,10.908,302.492,-4.324,16.425
1782117284.596856,0.074000,1730954,1000,12,0,1,667.174,0.450,10.817,304.534,-1.638,15.753
1782117284.597856,0.075000,1730955,1000,12,0,1,665.228,-1.507,10.327,303.405,-1.466,13.992
1782117284.598856,0.076000,1730956,1000,12,0,1,662.082,-5.089,10.150,300.379,-3.947,12.255
1782117284.599856,0.077000,1730957,1000,12,0,1,662.442,-5.219,10.171,299.874,-4.208,11.409
1782117284.600856,0.078000,1730958,1000,12,0,1,660.256,-6.100,10.207,301.315,-2.227,11.263
1782117284.601856,0.079000,1730959,1000,12,0,1,653.554,-11.727,10.329,304.702,0.505,11.263
1782117284.602856,0.080000,1730960,1000,12,0,1,654.035,-11.084,10.439,305.063,1.227,11.218
1782117284.603856,0.081000,1730961,1000,12,0,1,660.448,-3.598,10.446,303.934,-1.033,11.110
1782117284.604856,0.082000,1730962,1000,12,0,1,662.394,-0.436,10.374,307.272,1.071,10.904
1782117284.605856,0.083000,1730963,1000,12,0,1,662.874,-0.376,10.353,309.410,2.828,10.746
1782117284.606856,0.084000,1730964,1000,12,0,1,662.634,0.005,10.353,309.098,1.402,10.587
1782117284.607856,0.085000,1730965,1000,12,0,1,658.959,-2.882,10.361,308.810,0.399,10.235
1782117284.608856,0.086000,1730966,1000,12,0,1,650.216,-9.378,10.428,311.068,1.565,9.780
1782117284.609856,0.087000,1730967,1000,12,0,1,651.200,-8.624,10.379,310.539,1.474,9.352
1782117284.610856,0.088000,1730968,1000,12,0,1,658.022,0.386,10.232,306.240,-2.647,8.900
1782117284.611856,0.089000,1730969,1000,12,0,1,658.503,2.210,10.205,306.576,-2.601,8.365
1782117284.612856,0.090000,1730970,1000,12,0,1,651.609,-3.162,10.205,310.419,1.870,7.763
1782117284.613856,0.091000,1730971,1000,12,0,1,652.209,-3.248,10.210,312.725,4.347,7.183
1782117284.614856,0.092000,1730972,1000,12,0,1,667.991,10.840,10.325,313.782,5.120,6.539
1782117284.615856,0.093000,1730973,1000,12,0,1,679.377,21.710,10.762,315.463,6.009,5.986
1782117284.616856,0.094000,1730974,1000,12,0,1,675.053,15.260,10.881,321.276,9.899,5.836
1782117284.617856,0.095000,1730975,1000,12,0,1,666.742,4.426,10.607,326.777,13.734,5.836
1782117284.618856,0.096000,1730976,1000,12,0,1,667.799,2.653,10.336,328.170,12.628,5.859
1782117284.619856,0.097000,1730977,1000,12,0,1,669.888,4.549,10.334,329.444,10.619,5.963
1782117284.620856,0.098000,1730978,1000,12,0,1,668.327,1.703,10.265,332.782,10.633,6.001
1782117284.621856,0.099000,1730979,1000,12,0,1,661.385,-4.538,10.169,333.767,8.887,5.975
1782117284.622856,0.100000,1730980,1000,12,0,1,661.697,-5.947,10.203,329.996,2.772,5.988
1782117284.623856,0.101000,1730981,1000,12,0,1,660.184,-4.837,10.226,325.336,-3.881,5.955
1782117284.624856,0.102000,1730982,1000,12,0,1,656.101,-8.689,10.281,326.801,-4.526,5.986
1782117284.625856,0.103000,1730983,1000,12,0,1,654.395,-8.745,10.249,333.503,0.521,5.986
1782117284.626856,0.104000,1730984,1000,12,0,1,652.185,-8.847,10.143,338.547,3.958,5.914
1782117284.627856,0.105000,1730985,1000,12,0,1,650.672,-8.798,9.842,337.442,1.462,5.724
1782117284.628856,0.106000,1730986,1000,12,0,1,658.863,-0.717,9.407,332.927,-4.270,5.706
1782117284.629856,0.107000,1730987,1000,12,0,1,670.417,10.742,9.472,335.617,-3.693,5.662
1782117284.630856,0.108000,1730988,1000,12,0,1,670.033,10.776,9.457,336.962,-1.558,5.518
1782117284.631856,0.109000,1730989,1000,12,0,1,664.796,3.492,8.670,331.293,-7.021,5.441
1782117284.632856,0.110000,1730990,1000,12,0,1,663.187,1.263,7.553,323.967,-13.162,5.573
1782117284.633856,0.111000,1730991,1000,12,0,1,670.729,6.261,7.048,315.680,-18.630,6.093
1782117284.634856,0.112000,1730992,1000,12,0,1,672.483,8.780,7.031,319.379,-14.557,6.416
1782117284.635856,0.113000,1730993,1000,12,0,1,675.053,7.459,6.981,320.580,-8.607,6.524
1782117284.636856,0.114000,1730994,1000,12,0,1,672.459,5.502,6.888,313.614,-13.576,6.800
1782117284.637856,0.115000,1730995,1000,12,0,1,669.504,-0.126,6.816,297.808,-23.830,7.579
1782117284.638856,0.116000,1730996,1000,12,0,1,661.794,-5.883,6.836,291.395,-28.065,8.509
1782117284.639856,0.117000,1730997,1000,12,0,1,659.391,-9.564,6.969,292.308,-21.111,8.980
1782117284.640856,0.118000,1730998,1000,12,0,1,665.877,-2.457,6.971,290.434,-18.301,9.281
1782117284.641856,0.119000,1730999,1000,12,0,1,672.411,4.169,6.989,292.067,-13.812,9.435
1782117284.642856,0.120000,1731000,1000,12,0,1,670.849,2.810,7.000,303.645,-0.982,9.434
1782117284.643856,0.121000,1731001,1000,12,0,1,665.228,-2.885,6.999,317.145,12.522,9.586
1782117284.644856,0.122000,1731002,1000,12,0,1,656.773,-9.987,7.125,326.873,20.311,9.963
1782117284.645856,0.123000,1731003,1000,12,0,1,646.060,-17.741,7.550,327.570,18.829,10.294
1782117284.646856,0.124000,1731004,1000,12,0,1,658.911,-7.373,7.621,324.808,12.986,10.454
1782117284.647856,0.125000,1731005,1000,12,0,1,684.805,18.979,8.077,322.550,8.760,10.525
1782117284.648856,0.126000,1731006,1000,12,0,1,689.826,23.212,8.689,321.469,6.371,10.549
1782117284.649856,0.127000,1731007,1000,12,0,1,677.719,8.496,8.740,320.508,4.839,10.554
1782117284.650856,0.128000,1731008,1000,12,0,1,657.206,-11.266,8.842,313.374,-0.698,10.550
1782117284.651856,0.129000,1731009,1000,12,0,1,648.870,-20.307,9.148,304.054,-8.673,10.621
1782117284.652856,0.130000,1731010,1000,12,0,1,663.091,-5.825,9.050,291.995,-16.032,10.859
1782117284.653856,0.131000,1731011,1000,12,0,1,670.945,4.983,9.063,285.029,-19.593,11.206
1782117284.654856,0.132000,1731012,1000,12,0,1,666.958,0.493,9.063,285.990,-13.724,11.372
1782117284.655856,0.133000,1731013,1000,12,0,1,660.977,-4.903,9.090,282.219,-11.612,11.483
1782117284.656856,0.134000,1731014,1000,12,0,1,658.839,-6.837,9.141,287.311,-5.543,11.508
1782117284.657856,0.135000,1731015,1000,12,0,1,652.618,-9.891,9.238,298.121,7.973,11.563
1782117284.658856,0.136000,1731016,1000,12,0,1,656.917,-6.854,9.194,300.090,10.717,11.659
1782117284.659856,0.137000,1731017,1000,12,0,1,673.011,9.303,9.207,297.472,7.338,11.704
1782117284.660856,0.138000,1731018,1000,12,0,1,690.955,24.164,9.821,293.076,2.863,11.705
1782117284.661856,0.139000,1731019,1000,12,0,1,687.616,20.677,10.242,293.989,2.069,11.703
1782117284.662856,0.140000,1731020,1000,12,0,1,677.239,5.732,10.264,302.084,8.706,11.764
1782117284.663856,0.141000,1731021,1000,12,0,1,673.900,0.914,10.255,307.777,12.853,11.888
1782117284.664856,0.142000,1731022,1000,12,0,1,678.248,3.349,10.151,310.731,12.872,12.005
1782117284.665856,0.143000,1731023,1000,12,0,1,678.800,4.065,9.692,317.361,15.613,12.176
1782117284.666856,0.144000,1731024,1000,12,0,1,666.790,-6.535,9.494,330.116,23.484,12.543
1782117284.667856,0.145000,1731025,1000,12,0,1,652.978,-19.317,9.860,341.142,29.805,13.089
1782117284.668856,0.146000,1731026,1000,12,0,1,648.510,-20.965,10.289,347.603,30.238,13.654
1782117284.669856,0.147000,1731027,1000,12,0,1,651.753,-14.936,10.484,346.162,24.322,14.000
1782117284.670856,0.148000,1731028,1000,12,0,1,662.466,-2.889,10.489,339.028,13.148,14.043
1782117284.671856,0.149000,1731029,1000,12,0,1,682.283,14.901,10.679,331.269,3.297,13.994
1782117284.672856,0.150000,1731030,1000,12,0,1,694.366,25.718,11.250,327.378,-1.750,13.991
1782117284.673856,0.151000,1731031,1000,12,0,1,700.419,25.738,11.805,320.364,-6.969,14.015
1782117284.674856,0.152000,1731032,1000,12,0,1,701.548,22.804,12.175,311.092,-14.597,14.152
1782117284.675856,0.153000,1731033,1000,12,0,1,686.631,6.084,12.143,313.734,-11.669,14.247
1782117284.676856,0.154000,1731034,1000,12,0,1,671.690,-11.463,12.187,322.934,-1.008,14.237
1782117284.677856,0.155000,1731035,1000,12,0,1,674.332,-10.049,12.206,320.940,-1.392,14.237
1782117284.678856,0.156000,1731036,1000,12,0,1,684.901,0.567,12.206,310.539,-11.372,14.315
1782117284.679856,0.157000,1731037,1000,12,0,1,684.853,1.612,12.113,301.435,-19.333,14.564
1782117284.680856,0.158000,1731038,1000,12,0,1,676.374,-7.020,12.058,292.788,-25.002,14.986
1782117284.681856,0.159000,1731039,1000,12,0,1,668.639,-13.563,12.199,293.677,-23.200,15.308
1782117284.682856,0.160000,1731040,1000,12,0,1,665.180,-15.221,12.386,298.313,-15.512,15.352
1782117284.683856,0.161000,1731041,1000,12,0,1,669.168,-9.891,12.434,299.153,-13.175,15.239
1782117284.684856,0.162000,1731042,1000,12,0,1,675.533,-1.962,12.375,299.322,-11.910,15.193
1782117284.685856,0.163000,1731043,1000,12,0,1,667.967,-6.093,12.360,299.057,-10.709,15.219
1782117284.686856,0.164000,1731044,1000,12,0,1,656.245,-16.599,12.557,304.678,-5.400,15.117
1782117284.687856,0.165000,1731045,1000,12,0,1,634.050,-31.043,13.302,316.520,6.202,14.763
1782117284.688856,0.166000,1731046,1000,12,0,1,622.472,-39.416,14.399,327.450,15.749,14.393
1782117284.689856,0.167000,1731047,1000,12,0,1,632.536,-23.493,14.715,327.978,15.778,14.255
1782117284.690856,0.168000,1731048,1000,12,0,1,659.007,4.159,14.723,320.316,7.153,14.055
1782117284.691856,0.169000,1731049,1000,12,0,1,670.033,18.701,14.947,313.854,0.771,13.919
1782117284.692856,0.170000,1731050,1000,12,0,1,664.820,11.557,15.030,311.836,-0.112,13.918
1782117284.693856,0.171000,1731051,1000,12,0,1,668.760,11.724,15.116,306.167,-2.507,13.810
1782117284.694856,0.172000,1731052,1000,12,0,1,698.978,34.555,15.823,293.340,-11.282,13.602
1782117284.695856,0.173000,1731053,1000,12,0,1,708.370,43.086,16.769,291.010,-11.861,13.443
1782117284.696856,0.174000,1731054,1000,12,0,1,697.152,24.265,17.085,296.343,-2.555,13.322
1782117284.697856,0.175000,1731055,1000,12,0,1,683.772,7.720,16.908,302.276,4.516,13.280
1782117284.698856,0.176000,1731056,1000,12,0,1,673.492,-4.211,16.597,303.093,6.747,13.284
1782117284.699856,0.177000,1731057,1000,12,0,1,668.904,-8.683,16.599,303.045,5.346,13.288
1782117284.700856,0.178000,1731058,1000,12,0,1,672.555,-4.413,16.534,306.167,7.002,13.324
1782117284.701856,0.179000,1731059,1000,12,0,1,667.510,-5.928,16.305,305.975,5.756,13.292
1782117284.702856,0.180000,1731060,1000,12,0,1,662.947,-9.921,16.344,306.336,3.192,13.105
1782117284.703856,0.181000,1731061,1000,12,0,1,668.687,-3.232,16.335,306.432,2.027,12.812
1782117284.704856,0.182000,1731062,1000,12,0,1,677.359,6.298,16.359,307.032,0.152,12.664
1782117284.705856,0.183000,1731063,1000,12,0,1,678.512,7.634,16.380,310.755,2.016,12.561
1782117284.706856,0.184000,1731064,1000,12,0,1,672.603,1.664,16.354,315.319,4.662,12.554
1782117284.707856,0.185000,1731065,1000,12,0,1,672.267,-0.739,16.294,317.697,5.565,12.528
1782117284.708856,0.186000,1731066,1000,12,0,1,675.557,2.529,16.269,320.244,6.168,12.466
1782117284.709856,0.187000,1731067,1000,12,0,1,678.296,3.456,16.223,327.978,11.367,12.526
1782117284.710856,0.188000,1731068,1000,12,0,1,675.005,0.174,15.859,341.406,21.503,12.884
1782117284.711856,0.189000,1731069,1000,12,0,1,666.045,-9.171,15.641,353.368,29.724,13.549
1782117284.712856,0.190000,1731070,1000,12,0,1,658.070,-16.261,15.788,363.817,34.322,14.340
1782117284.713856,0.191000,1731071,1000,12,0,1,656.077,-16.985,15.970,367.108,32.905,14.966
1782117284.714856,0.192000,1731072,1000,12,0,1,659.512,-11.883,16.051,365.330,25.247,15.278
1782117284.715856,0.193000,1731073,1000,12,0,1,654.779,-12.548,16.138,368.909,22.536,15.450
1782117284.716856,0.194000,1731074,1000,12,0,1,665.997,-4.372,16.124,360.574,12.865,15.198
1782117284.717856,0.195000,1731075,1000,12,0,1,701.163,27.715,16.367,327.546,-18.836,14.842
1782117284.718856,0.196000,1731076,1000,12,0,1,712.669,38.927,17.011,300.643,-44.708,15.556
1782117284.719856,0.197000,1731077,1000,12,0,1,700.827,21.411,17.149,290.554,-48.593,16.655
1782117284.720856,0.198000,1731078,1000,12,0,1,685.502,4.000,17.154,292.235,-41.415,17.556
1782117284.721856,0.199000,1731079,1000,12,0,1,675.750,-6.936,17.052,300.619,-28.135,17.996
1782117284.722856,0.200000,1731080,1000,12,0,1,656.629,-20.340,16.906,313.686,-13.378,18.093
1782117284.723856,0.201000,1731081,1000,12,0,1,648.606,-27.463,16.960,322.429,-3.565,18.073
1782117284.724856,0.202000,1731082,1000,12,0,1,648.942,-20.139,16.893,327.186,-0.630,17.955
1782117284.725856,0.203000,1731083,1000,12,0,1,654.804,-11.894,16.954,328.074,-1.053,17.880
1782117284.726856,0.204000,1731084,1000,12,0,1,670.273,4.704,16.890,323.054,-6.782,17.905
1782117284.727856,0.205000,1731085,1000,12,0,1,677.095,13.215,16.933,315.295,-14.354,18.019
1782117284.728856,0.206000,1731086,1000,12,0,1,674.524,8.592,16.977,311.812,-16.719,18.102
1782117284.729856,0.207000,1731087,1000,12,0,1,669.048,2.716,16.980,315.776,-11.297,17.965
1782117284.730856,0.208000,1731088,1000,12,0,1,670.681,1.272,16.951,314.046,-8.606,17.656
1782117284.731856,0.209000,1731089,1000,12,0,1,674.356,4.768,16.856,306.216,-13.182,17.448
1782117284.732856,0.210000,1731090,1000,12,0,1,680.193,7.119,16.748,299.442,-15.084,17.441
1782117284.733856,0.211000,1731091,1000,12,0,1,678.272,5.301,16.707,300.595,-10.063,17.399
1782117284.734856,0.212000,1731092,1000,12,0,1,674.404,-1.472,16.706,304.750,-0.934,17.318
1782117284.735856,0.213000,1731093,1000,12,0,1,672.579,-3.346,16.690,300.066,-0.418,17.252
1782117284.736856,0.214000,1731094,1000,12,0,1,679.593,1.249,16.525,296.607,-1.596,17.236
1782117284.737856,0.215000,1731095,1000,12,0,1,680.410,3.788,15.940,296.751,2.144,17.217
1782117284.738856,0.216000,1731096,1000,12,0,1,673.852,-3.155,14.941,301.171,7.317,17.103
1782117284.739856,0.217000,1731097,1000,12,0,1,671.114,-5.515,14.587,302.636,10.577,17.023
1782117284.740856,0.218000,1731098,1000,12,0,1,669.432,-4.922,14.592,305.519,11.394,17.069
1782117284.741856,0.219000,1731099,1000,12,0,1,666.694,-5.976,14.375,311.308,15.416,17.207
1782117284.742856,0.220000,1731100,1000,12,0,1,666.670,-4.012,14.293,315.824,16.718,17.369
1782117284.743856,0.221000,1731101,1000,12,0,1,669.024,-0.353,14.197,319.211,15.999,17.512
1782117284.744856,0.222000,1731102,1000,12,0,1,668.087,0.870,13.330,326.993,18.201,17.628
1782117284.745856,0.223000,1731103,1000,12,0,1,665.084,-1.471,11.858,336.073,21.872,17.819
1782117284.746856,0.224000,1731104,1000,12,0,1,665.277,-0.707,11.351,344.000,23.490,18.122
1782117284.747856,0.225000,1731105,1000,12,0,1,670.801,4.103,11.313,351.206,24.059,18.428
1782117284.748856,0.226000,1731106,1000,12,0,1,668.159,2.988,11.305,352.720,20.527,18.631
1782117284.749856,0.227000,1731107,1000,12,0,1,661.265,-4.907,11.260,352.095,14.366,18.726
1782117284.750856,0.228000,1731108,1000,12,0,1,666.982,-1.221,11.244,342.655,4.082,18.709
1782117284.751856,0.229000,1731109,1000,12,0,1,683.340,12.709,11.355,324.784,-13.459,18.788
1782117284.752856,0.230000,1731110,1000,12,0,1,699.770,24.795,11.801,301.027,-31.709,19.310
1782117284.753856,0.231000,1731111,1000,12,0,1,698.017,20.644,12.149,287.792,-39.891,20.115
1782117284.754856,0.232000,1731112,1000,12,0,1,680.674,0.184,12.116,288.416,-31.313,20.597
1782117284.755856,0.233000,1731113,1000,12,0,1,666.309,-15.223,12.258,299.394,-14.963,20.703
1782117284.756856,0.234000,1731114,1000,12,0,1,664.964,-16.227,12.469,305.735,-2.741,20.696
1782117284.757856,0.235000,1731115,1000,12,0,1,667.198,-11.069,12.566,306.696,0.162,20.682
1782117284.758856,0.236000,1731116,1000,12,0,1,674.284,-3.692,12.572,307.729,2.211,20.665
1782117284.759856,0.237000,1731117,1000,12,0,1,680.001,3.902,12.575,306.936,2.009,20.605
1782117284.760856,0.238000,1731118,1000,12,0,1,681.034,5.021,12.595,309.891,2.940,20.383
1782117284.761856,0.239000,1731119,1000,12,0,1,680.025,4.288,12.543,311.212,3.919,19.953
1782117284.762856,0.240000,1731120,1000,12,0,1,681.322,5.068,12.351,310.347,0.407,19.354
1782117284.763856,0.241000,1731121,1000,12,0,1,679.689,4.248,12.130,311.020,-0.762,18.786
1782117284.764856,0.242000,1731122,1000,12,0,1,677.647,1.683,12.015,312.245,-1.594,18.445
1782117284.765856,0.243000,1731123,1000,12,0,1,680.458,3.627,11.894,312.725,-2.479,18.171
1782117284.766856,0.244000,1731124,1000,12,0,1,677.143,1.592,11.881,312.533,-3.702,18.087
1782117284.767856,0.245000,1731125,1000,12,0,1,672.194,-4.568,11.234,314.335,-2.755,17.894
1782117284.768856,0.246000,1731126,1000,12,0,1,671.522,-5.012,9.818,313.542,-2.502,16.744
1782117284.769856,0.247000,1731127,1000,12,0,1,672.219,-4.503,9.361,315.175,-1.232,15.270
1782117284.770856,0.248000,1731128,1000,12,0,1,671.594,-4.904,9.370,316.857,2.384,14.106
1782117284.771856,0.249000,1731129,1000,12,0,1,669.192,-7.195,9.374,314.623,1.773,13.535
1782117284.772856,0.250000,1731130,1000,12,0,1,668.904,-7.714,8.988,314.767,3.098,13.410
1782117284.773856,0.251000,1731131,1000,12,0,1,672.026,-4.630,8.132,315.079,5.734,13.425
1782117284.774856,0.252000,1731132,1000,12,0,1,673.924,-2.418,7.625,315.848,7.400,13.465
1782117284.775856,0.253000,1731133,1000,12,0,1,672.267,-3.619,7.454,314.238,7.681,13.508
1782117284.776856,0.254000,1731134,1000,12,0,1,672.026,-3.952,7.446,315.103,7.942,13.521
1782117284.777856,0.255000,1731135,1000,12,0,1,676.254,0.359,7.208,316.016,9.406,13.433
1782117284.778856,0.256000,1731136,1000,12,0,1,681.875,5.911,7.153,317.001,8.717,13.281
1782117284.779856,0.257000,1731137,1000,12,0,1,681.442,6.193,7.197,318.370,8.485,13.239
1782117284.780856,0.258000,1731138,1000,12,0,1,677.407,2.065,7.200,315.944,4.406,13.198
1782117284.781856,0.259000,1731139,1000,12,0,1,674.789,0.068,7.169,319.019,3.301,13.074
1782117284.782856,0.260000,1731140,1000,12,0,1,673.083,-0.498,7.098,320.628,3.507,12.908
1782117284.783856,0.261000,1731141,1000,12,0,1,672.843,0.107,7.058,320.988,-0.130,12.829
1782117284.784856,0.262000,1731142,1000,12,0,1,672.795,1.171,7.057,321.493,-1.690,12.831
1782117284.785856,0.263000,1731143,1000,12,0,1,672.170,1.101,7.043,322.742,-3.251,12.839
1782117284.786856,0.264000,1731144,1000,12,0,1,671.594,0.906,7.042,319.259,-6.885,12.874
1782117284.787856,0.265000,1731145,1000,12,0,1,670.465,0.015,7.021,319.811,-8.365,12.925
1782117284.788856,0.266000,1731146,1000,12,0,1,670.249,-0.506,7.008,322.429,-4.816,12.901
1782117284.789856,0.267000,1731147,1000,12,0,1,672.915,1.309,6.966,323.991,-3.052,12.821
1782117284.790856,0.268000,1731148,1000,12,0,1,677.815,4.791,6.965,325.864,-0.482,12.720
1782117284.791856,0.269000,1731149,1000,12,0,1,680.818,6.291,6.970,326.609,1.535,12.534
1782117284.792856,0.270000,1731150,1000,12,0,1,680.746,4.303,6.974,323.390,0.055,12.309
1782117284.793856,0.271000,1731151,1000,12,0,1,682.571,3.587,6.992,324.039,1.321,12.100
1782117284.794856,0.272000,1731152,1000,12,0,1,680.602,1.194,6.993,324.255,3.729,11.835
1782117284.795856,0.273000,1731153,1000,12,0,1,679.209,-2.114,6.996,323.703,3.810,11.436
1782117284.796856,0.274000,1731154,1000,12,0,1,680.145,-1.295,6.998,325.024,5.442,10.970
1782117284.797856,0.275000,1731155,1000,12,0,1,681.515,-0.345,6.974,326.657,6.893,10.475
1782117284.798856,0.276000,1731156,1000,12,0,1,680.530,-0.696,6.962,325.072,4.803,10.087
1782117284.799856,0.277000,1731157,1000,12,0,1,682.067,0.291,6.927,323.823,1.975,9.885
1782117284.800856,0.278000,1731158,1000,12,0,1,679.617,-0.232,6.925,325.096,1.403,9.870
1782117284.801856,0.279000,1731159,1000,12,0,1,679.281,-1.119,6.690,324.375,-0.585,9.685
1782117284.802856,0.280000,1731160,1000,12,0,1,680.001,1.164,5.700,325.528,-2.367,8.591
1782117284.803856,0.281000,1731161,1000,12,0,1,679.401,0.983,4.897,324.519,-4.196,6.506
1782117284.804856,0.282000,1731162,1000,12,0,1,680.602,2.189,4.907,325.288,-6.246,4.847
1782117284.805856,0.283000,1731163,1000,12,0,1,679.857,2.228,4.420,324.255,-7.231,4.479
1782117284.806856,0.284000,1731164,1000,12,0,1,677.455,-0.530,3.779,326.009,-7.528,4.588
1782117284.807856,0.285000,1731165,1000,12,0,1,678.728,0.161,3.439,324.447,-7.548,4.710
1782117284.808856,0.286000,1731166,1000,12,0,1,678.848,0.294,3.400,324.063,-8.576,4.854
1782117284.809856,0.287000,1731167,1000,12,0,1,680.121,0.113,3.355,323.775,-6.674,4.936
1782117284.810856,0.288000,1731168,1000,12,0,1,680.121,-0.238,3.279,323.967,-5.298,4.976
1782117284.811856,0.289000,1731169,1000,12,0,1,679.737,-2.019,3.235,324.759,-2.374,4.956
1782117284.812856,0.290000,1731170,1000,12,0,1,677.095,-4.615,3.221,322.790,-1.643,4.961
1782117284.813856,0.291000,1731171,1000,12,0,1,678.080,-5.085,3.246,323.847,0.408,4.960
1782117284.814856,0.292000,1731172,1000,12,0,1,677.887,-4.330,3.294,323.054,2.799,4.971
1782117284.815856,0.293000,1731173,1000,12,0,1,676.975,-5.609,3.349,321.709,2.089,4.967
1782117284.816856,0.294000,1731174,1000,12,0,1,676.854,-4.967,3.415,321.901,3.838,4.970
1782117284.817856,0.295000,1731175,1000,12,0,1,678.464,-3.001,3.380,321.781,4.057,4.987
1782117284.818856,0.296000,1731176,1000,12,0,1,680.482,-0.260,3.305,325.480,6.734,5.065
1782117284.819856,0.297000,1731177,1000,12,0,1,679.665,0.115,3.243,326.633,7.594,5.175
1782117284.820856,0.298000,1731178,1000,12,0,1,678.800,-0.379,3.168,325.672,4.396,5.201
1782117284.821856,0.299000,1731179,1000,12,0,1,676.927,-0.531,3.002,324.495,1.688,5.200
1782117284.822856,0.300000,1731180,1000,12,0,1,673.876,-2.432,2.817,325.384,0.047,5.182
1782117284.823856,0.301000,1731181,1000,12,0,1,676.398,0.484,2.741,325.480,-1.143,5.121
1782117284.824856,0.302000,1731182,1000,12,0,1,680.049,5.129,2.815,323.847,-4.385,5.051
1782117284.825856,0.303000,1731183,1000,12,0,1,680.770,5.818,2.887,324.111,-5.487,4.993
1782117284.826856,0.304000,1731184,1000,12,0,1,679.689,4.383,2.900,324.567,-5.284,4.922
1782117284.827856,0.305000,1731185,1000,12,0,1,679.305,3.149,2.933,323.727,-6.138,4.818
1782117284.828856,0.306000,1731186,1000,12,0,1,681.875,4.347,2.878,321.709,-7.150,4.766
1782117284.829856,0.307000,1731187,1000,12,0,1,686.799,7.449,2.937,321.853,-6.212,4.696
1782117284.830856,0.308000,1731188,1000,12,0,1,686.223,5.893,3.039,324.231,-2.213,4.665
1782117284.831856,0.309000,1731189,1000,12,0,1,685.502,2.377,3.058,323.606,-0.649,4.642
1782117284.832856,0.310000,1731190,1000,12,0,1,684.949,0.846,3.059,323.534,0.437,4.616
1782117284.833856,0.311000,1731191,1000,12,0,1,687.328,0.845,3.061,319.619,-0.320,4.616
1782117284.834856,0.312000,1731192,1000,12,0,1,685.046,-0.980,3.060,320.604,0.796,4.611
1782117284.835856,0.313000,1731193,1000,12,0,1,681.971,-5.369,3.149,319.355,2.956,4.607
1782117284.836856,0.314000,1731194,1000,12,0,1,679.209,-7.032,3.300,321.132,3.870,4.536
1782117284.837856,0.315000,1731195,1000,12,0,1,674.885,-9.975,3.589,326.633,9.825,4.595
1782117284.838856,0.316000,1731196,1000,12,0,1,669.336,-13.048,4.035,328.891,11.096,4.807
1782117284.839856,0.317000,1731197,1000,12,0,1,672.315,-9.061,4.229,329.395,9.436,4.970
1782117284.840856,0.318000,1731198,1000,12,0,1,683.364,3.059,4.197,326.033,4.928,5.018
1782117284.841856,0.319000,1731199,1000,12,0,1,691.915,12.075,4.443,324.135,0.137,5.014
1782117284.842856,0.320000,1731200,1000,12,0,1,694.678,13.605,4.803,325.192,-0.161,5.014
1782117284.843856,0.321000,1731201,1000,12,0,1,689.465,8.255,4.917,329.419,1.226,5.013
1782117284.844856,0.322000,1731202,1000,12,0,1,680.938,-1.005,4.916,331.293,1.944,4.993
1782117284.845856,0.323000,1731203,1000,12,0,1,682.523,-0.789,4.908,332.422,0.307,4.964
1782117284.846856,0.324000,1731204,1000,12,0,1,690.018,6.312,4.985,331.990,-0.981,4.906
1782117284.847856,0.325000,1731205,1000,12,0,1,693.189,8.532,5.129,327.354,-5.888,4.880
1782117284.848856,0.326000,1731206,1000,12,0,1,692.996,6.302,5.205,323.174,-9.748,5.025
1782117284.849856,0.327000,1731207,1000,12,0,1,699.218,8.796,5.351,319.139,-11.486,5.274
1782117284.850856,0.328000,1731208,1000,12,0,1,700.899,9.373,5.513,313.830,-13.848,5.622
1782117284.851856,0.329000,1731209,1000,12,0,1,695.134,1.198,5.513,313.085,-11.790,5.864
1782117284.852856,0.330000,1731210,1000,12,0,1,692.636,-3.449,5.533,316.424,-5.280,5.901
1782117284.853856,0.331000,1731211,1000,12,0,1,695.014,-2.272,5.540,316.761,-1.537,5.875
1782117284.854856,0.332000,1731212,1000,12,0,1,699.026,0.444,5.532,316.737,0.099,5.809
1782117284.855856,0.333000,1731213,1000,12,0,1,701.836,2.224,5.532,315.920,1.601,5.722
1782117284.856856,0.334000,1731214,1000,12,0,1,701.716,1.058,5.533,315.175,1.760,5.628
1782117284.857856,0.335000,1731215,1000,12,0,1,701.115,-0.505,5.534,317.529,4.417,5.561
1782117284.858856,0.336000,1731216,1000,12,0,1,700.227,-1.670,5.539,316.328,4.137,5.459
1782117284.859856,0.337000,1731217,1000,12,0,1,699.074,-2.819,5.553,315.151,1.794,5.382
1782117284.860856,0.338000,1731218,1000,12,0,1,697.536,-3.860,5.580,316.977,2.875,5.346
1782117284.861856,0.339000,1731219,1000,12,0,1,698.113,-3.169,5.590,317.697,2.618,5.348
1782117284.862856,0.340000,1731220,1000,12,0,1,697.632,-2.569,5.564,316.761,0.457,5.343
1782117284.863856,0.341000,1731221,1000,12,0,1,694.582,-4.827,5.559,317.097,-0.696,5.344
1782117284.864856,0.342000,1731222,1000,12,0,1,690.690,-7.564,5.628,319.067,0.038,5.329
1782117284.865856,0.343000,1731223,1000,12,0,1,688.024,-9.023,5.716,320.388,0.478,5.321
1782117284.866856,0.344000,1731224,1000,12,0,1,686.463,-9.099,5.817,320.628,-0.091,5.294
1782117284.867856,0.345000,1731225,1000,12,0,1,693.213,-3.067,5.818,318.826,-1.751,5.268
1782117284.868856,0.346000,1731226,1000,12,0,1,696.191,1.554,5.822,315.656,-4.333,5.218
1782117284.869856,0.347000,1731227,1000,12,0,1,696.239,-0.022,5.822,315.103,-4.040,5.138
1782117284.870856,0.348000,1731228,1000,12,0,1,695.254,-0.990,5.823,314.623,-2.463,5.112
1782117284.871856,0.349000,1731229,1000,12,0,1,694.702,-2.590,5.834,314.815,-0.900,5.108
1782117284.872856,0.350000,1731230,1000,12,0,1,691.771,-4.897,5.865,315.103,1.367,5.111
1782117284.873856,0.351000,1731231,1000,12,0,1,688.649,-7.915,5.970,318.250,5.013,5.158
1782117284.874856,0.352000,1731232,1000,12,0,1,688.649,-7.332,6.016,318.250,6.837,5.211
1782117284.875856,0.353000,1731233,1000,12,0,1,688.649,-5.812,6.016,318.250,6.289,5.229
1782117284.876856,0.354000,1731234,1000,12,0,1,666.670,-21.033,6.683,323.655,10.718,5.393
1782117284.877856,0.355000,1731235,1000,12,0,1,680.722,-13.226,6.925,322.429,9.982,5.506
1782117284.878856,0.356000,1731236,1000,12,0,1,693.933,9.203,7.019,319.187,4.434,5.449
1782117284.879856,0.357000,1731237,1000,12,0,1,692.036,4.724,6.972,318.178,2.654,5.391
1782117284.880856,0.358000,1731238,1000,12,0,1,679.088,-3.642,6.941,320.123,2.455,5.393
1782117284.881856,0.359000,1731239,1000,12,0,1,668.423,-13.803,7.203,321.301,2.615,5.405
1782117284.882856,0.360000,1731240,1000,12,0,1,661.049,-16.095,7.553,328.483,5.783,5.466
1782117284.883856,0.361000,1731241,1000,12,0,1,647.405,-22.985,8.222,337.971,12.508,5.745
1782117284.884856,0.362000,1731242,1000,12,0,1,652.377,-17.335,8.578,340.973,12.075,5.992
1782117284.885856,0.363000,1731243,1000,12,0,1,689.105,19.090,8.961,332.086,1.547,5.982
1782117284.886856,0.364000,1731244,1000,12,0,1,711.372,41.500,10.666,324.063,-8.858,6.087
1782117284.887856,0.365000,1731245,1000,12,0,1,717.642,40.616,12.032,322.502,-10.243,6.101
1782117284.888856,0.366000,1731246,1000,12,0,1,726.073,40.472,13.195,321.973,-9.398,6.043
1782117284.889856,0.367000,1731247,1000,12,0,1,724.271,33.435,13.958,321.012,-8.898,6.027
1782117284.890856,0.368000,1731248,1000,12,0,1,718.074,19.339,14.217,321.108,-6.927,6.066
1782117284.891856,0.369000,1731249,1000,12,0,1,714.327,11.443,14.206,321.949,-4.373,6.098
1782117284.892856,0.370000,1731250,1000,12,0,1,714.159,6.594,14.106,312.173,-9.436,6.242
1782117284.893856,0.371000,1731251,1000,12,0,1,714.807,5.050,14.076,306.095,-14.418,6.564
1782117284.894856,0.372000,1731252,1000,12,0,1,714.807,2.464,14.080,306.095,-9.977,6.708
1782117284.895856,0.373000,1731253,1000,12,0,1,702.533,-8.008,14.125,321.925,4.295,6.736
1782117284.896856,0.374000,1731254,1000,12,0,1,699.098,-14.017,14.235,322.838,10.444,6.894
1782117284.897856,0.375000,1731255,1000,12,0,1,703.830,-6.893,14.218,322.309,5.286,6.885
1782117284.898856,0.376000,1731256,1000,12,0,1,706.328,-3.874,14.200,324.135,7.937,6.838
1782117284.899856,0.377000,1731257,1000,12,0,1,701.716,-6.508,14.175,330.476,10.063,6.793
1782117284.900856,0.378000,1731258,1000,12,0,1,698.377,-9.632,14.179,335.305,13.182,6.766
1782117284.901856,0.379000,1731259,1000,12,0,1,697.656,-8.782,14.232,335.136,9.663,6.699
1782117284.902856,0.380000,1731260,1000,12,0,1,697.752,-7.547,14.264,328.939,1.372,6.660
1782117284.903856,0.381000,1731261,1000,12,0,1,706.832,-0.155,14.260,316.544,-10.869,6.831
1782117284.904856,0.382000,1731262,1000,12,0,1,717.401,9.940,14.329,306.456,-20.864,7.441
1782117284.905856,0.383000,1731263,1000,12,0,1,719.203,9.437,14.388,304.798,-20.002,7.958
1782117284.906856,0.384000,1731264,1000,12,0,1,719.563,6.403,14.415,300.763,-19.851,8.435
1782117284.907856,0.385000,1731265,1000,12,0,1,713.126,-0.840,14.416,301.556,-16.683,8.736
1782117284.908856,0.386000,1731266,1000,12,0,1,698.209,-15.563,14.581,307.897,-7.236,8.776
1782117284.909856,0.387000,1731267,1000,12,0,1,683.820,-27.998,15.104,314.887,1.707,8.776
1782117284.910856,0.388000,1731268,1000,12,0,1,688.000,-23.303,15.449,313.734,3.207,8.778
1782117284.911856,0.389000,1731269,1000,12,0,1,692.084,-13.805,15.566,313.806,3.123,8.782
1782117284.912856,0.390000,1731270,1000,12,0,1,688.745,-14.829,15.702,314.335,5.441,8.815
1782117284.913856,0.391000,1731271,1000,12,0,1,694.750,-8.138,15.730,311.164,3.403,8.828
1782117284.914856,0.392000,1731272,1000,12,0,1,703.782,2.965,15.699,304.726,-1.304,8.830
1782117284.915856,0.393000,1731273,1000,12,0,1,708.994,7.972,15.687,302.805,-2.502,8.836
1782117284.916856,0.394000,1731274,1000,12,0,1,707.865,7.542,15.671,306.480,2.041,8.841
1782117284.917856,0.395000,1731275,1000,12,0,1,705.007,3.858,15.674,307.489,4.287,8.858
1782117284.918856,0.396000,1731276,1000,12,0,1,704.214,3.335,15.680,308.762,4.444,8.859
1782117284.919856,0.397000,1731277,1000,12,0,1,700.443,0.666,15.680,310.659,6.056,8.882
1782117284.920856,0.398000,1731278,1000,12,0,1,699.626,-0.435,15.680,311.812,5.683,8.912
1782117284.921856,0.399000,1731279,1000,12,0,1,698.905,0.399,15.676,313.902,6.195,8.954
1782117284.922856,0.400000,1731280,1000,12,0,1,699.818,0.852,15.661,316.905,7.162,9.009
1782117284.923856,0.401000,1731281,1000,12,0,1,699.698,1.736,15.623,314.695,4.273,9.001
1782117284.924856,0.402000,1731282,1000,12,0,1,705.679,5.386,15.607,313.494,0.858,8.950
1782117284.925856,0.403000,1731283,1000,12,0,1,707.721,8.099,15.627,312.149,-0.294,8.906
1782117284.926856,0.404000,1731284,1000,12,0,1,711.997,8.469,15.388,311.692,-1.525,8.779
1782117284.927856,0.405000,1731285,1000,12,0,1,712.789,8.899,15.326,310.323,-1.896,8.669
1782117284.928856,0.406000,1731286,1000,12,0,1,706.424,0.837,15.271,315.824,2.195,8.651
1782117284.929856,0.407000,1731287,1000,12,0,1,699.914,-6.340,15.283,322.934,9.701,8.751
1782117284.930856,0.408000,1731288,1000,12,0,1,696.311,-9.413,15.332,328.315,13.359,8.946
1782117284.931856,0.409000,1731289,1000,12,0,1,692.348,-11.778,15.298,327.714,12.218,9.104
1782117284.932856,0.410000,1731290,1000,12,0,1,696.119,-7.837,15.168,326.945,9.175,9.160
1782117284.933856,0.411000,1731291,1000,12,0,1,706.472,2.820,14.821,323.631,5.816,9.025
1782117284.934856,0.412000,1731292,1000,12,0,1,706.472,4.727,14.632,323.631,3.842,8.878
1782117284.935856,0.413000,1731293,1000,12,0,1,706.472,2.476,14.385,323.631,3.933,8.893
1782117284.936856,0.414000,1731294,1000,12,0,1,709.835,6.195,13.163,308.762,-8.292,8.882
1782117284.937856,0.415000,1731295,1000,12,0,1,710.195,5.910,11.873,309.723,-11.102,8.903
1782117284.938856,0.416000,1731296,1000,12,0,1,707.000,2.857,10.410,312.053,-4.160,8.823
1782117284.939856,0.417000,1731297,1000,12,0,1,710.051,3.995,9.291,314.094,-4.669,8.757
1782117284.940856,0.418000,1731298,1000,12,0,1,714.255,8.231,8.956,314.359,-2.531,8.710
1782117284.941856,0.419000,1731299,1000,12,0,1,713.678,6.656,8.859,316.929,-2.415,8.695
1782117284.942856,0.420000,1731300,1000,12,0,1,712.597,4.129,8.829,316.496,-1.940,8.596
1782117284.943856,0.421000,1731301,1000,12,0,1,710.459,1.601,8.803,317.529,-2.955,8.361
1782117284.944856,0.422000,1731302,1000,12,0,1,705.920,-3.254,8.808,318.730,-1.760,8.245
1782117284.945856,0.423000,1731303,1000,12,0,1,706.376,-3.753,8.751,319.211,-1.978,8.227
1782117284.946856,0.424000,1731304,1000,12,0,1,701.284,-6.691,8.576,316.064,-4.634,8.120
1782117284.947856,0.425000,1731305,1000,12,0,1,695.999,-12.176,8.692,319.907,-2.153,8.091
1782117284.948856,0.426000,1731306,1000,12,0,1,696.335,-10.491,8.801,321.373,0.929,8.014
1782117284.949856,0.427000,1731307,1000,12,0,1,694.486,-10.112,8.869,318.418,-1.792,7.891
1782117284.950856,0.428000,1731308,1000,12,0,1,691.867,-11.464,8.912,316.184,-3.265,7.681
1782117284.951856,0.429000,1731309,1000,12,0,1,692.828,-8.949,8.916,317.313,-1.216,7.561
1782117284.952856,0.430000,1731310,1000,12,0,1,693.669,-6.325,8.897,319.907,2.065,7.564
1782117284.953856,0.431000,1731311,1000,12,0,1,704.550,3.006,8.907,317.649,1.649,7.410
1782117284.954856,0.432000,1731312,1000,12,0,1,712.669,12.179,8.962,314.815,-1.207,6.799
1782117284.955856,0.433000,1731313,1000,12,0,1,714.951,12.071,9.025,316.737,1.247,6.185
1782117284.956856,0.434000,1731314,1000,12,0,1,716.200,11.653,9.130,316.881,2.175,5.520
1782117284.957856,0.435000,1731315,1000,12,0,1,711.877,6.741,9.178,316.328,1.285,4.994
1782117284.958856,0.436000,1731316,1000,12,0,1,709.210,2.242,8.916,318.394,2.606,4.902
1782117284.959856,0.437000,1731317,1000,12,0,1,711.516,4.158,8.010,317.241,1.602,4.901
1782117284.960856,0.438000,1731318,1000,12,0,1,710.916,3.673,7.320,319.355,1.416,4.884
1782117284.961856,0.439000,1731319,1000,12,0,1,705.871,-0.941,7.056,321.132,2.970,4.882
1782117284.962856,0.440000,1731320,1000,12,0,1,708.874,0.372,6.737,319.667,0.058,4.821
1782117284.963856,0.441000,1731321,1000,12,0,1,712.309,4.873,6.674,319.067,-1.655,4.803
1782117284.964856,0.442000,1731322,1000,12,0,1,711.492,3.109,6.675,318.634,-2.539,4.813
1782117284.965856,0.443000,1731323,1000,12,0,1,708.994,0.450,6.579,320.460,-1.781,4.806
1782117284.966856,0.444000,1731324,1000,12,0,1,705.391,-3.230,6.508,322.045,-0.071,4.797
1782117284.967856,0.445000,1731325,1000,12,0,1,704.646,-4.373,6.515,320.940,-1.296,4.763
1782117284.968856,0.446000,1731326,1000,12,0,1,701.259,-6.200,6.557,322.982,0.087,4.721
1782117284.969856,0.447000,1731327,1000,12,0,1,700.347,-7.694,6.646,323.342,1.410,4.647
1782117284.970856,0.448000,1731328,1000,12,0,1,703.878,-3.504,6.664,322.862,0.690,4.578
1782117284.971856,0.449000,1731329,1000,12,0,1,700.275,-5.384,6.707,324.135,2.286,4.505
1782117284.972856,0.450000,1731330,1000,12,0,1,692.396,-12.239,6.926,326.513,4.569,4.437
1782117284.973856,0.451000,1731331,1000,12,0,1,698.281,-7.277,6.997,324.856,3.700,4.426
1782117284.974856,0.452000,1731332,1000,12,0,1,710.628,5.842,7.005,319.499,-1.193,4.428
1782117284.975856,0.453000,1731333,1000,12,0,1,712.069,7.739,6.997,317.481,-3.120,4.450
1782117284.976856,0.454000,1731334,1000,12,0,1,708.322,2.677,6.904,320.772,0.351,4.445
1782117284.977856,0.455000,1731335,1000,12,0,1,704.310,-1.021,6.790,321.709,1.923,4.445
1782117284.978856,0.456000,1731336,1000,12,0,1,705.511,-0.668,6.789,320.580,0.221,4.434
1782117284.979856,0.457000,1731337,1000,12,0,1,702.797,-1.033,6.731,322.069,0.677,4.218
1782117284.980856,0.458000,1731338,1000,12,0,1,690.330,-11.082,6.782,324.904,2.545,3.788
1782117284.981856,0.459000,1731339,1000,12,0,1,678.776,-19.663,7.138,328.843,4.489,3.430
1782117284.982856,0.460000,1731340,1000,12,0,1,676.806,-18.147,7.504,327.858,2.845,3.201
1782117284.983856,0.461000,1731341,1000,12,0,1,685.814,-6.667,7.552,324.015,-2.658,3.116
1782117284.984856,0.462000,1731342,1000,12,0,1,695.230,5.208,7.559,316.689,-9.119,3.328
1782117284.985856,0.463000,1731343,1000,12,0,1,708.105,15.837,7.876,315.512,-11.183,3.643
1782117284.986856,0.464000,1731344,1000,12,0,1,720.116,25.837,8.638,315.367,-8.821,3.668
1782117284.987856,0.465000,1731345,1000,12,0,1,722.782,24.863,9.289,316.256,-7.535,3.482
1782117284.988856,0.466000,1731346,1000,12,0,1,718.002,16.434,9.566,319.307,-3.095,3.459
1782117284.989856,0.467000,1731347,1000,12,0,1,714.231,8.890,9.632,318.298,-2.287,3.411
1782117284.990856,0.468000,1731348,1000,12,0,1,711.588,4.284,9.581,321.060,-0.031,3.392
1782117284.991856,0.469000,1731349,1000,12,0,1,705.511,-2.345,9.540,326.753,6.554,3.500
1782117284.992856,0.470000,1731350,1000,12,0,1,702.965,-6.150,9.562,327.834,7.662,3.654
1782117284.993856,0.471000,1731351,1000,12,0,1,703.734,-4.719,9.582,326.105,5.706,3.718
1782117284.994856,0.472000,1731352,1000,12,0,1,706.880,-2.054,9.576,318.922,-0.324,3.710
1782117284.995856,0.473000,1731353,1000,12,0,1,704.238,-2.845,9.570,318.106,-2.266,3.714
1782117284.996856,0.474000,1731354,1000,12,0,1,703.589,-4.489,9.544,321.493,2.247,3.669
1782117284.997856,0.475000,1731355,1000,12,0,1,704.791,-1.827,9.391,319.379,0.793,3.658
1782117284.998856,0.476000,1731356,1000,12,0,1,706.472,-0.305,9.273,316.857,-2.110,3.668
1782117284.999856,0.477000,1731357,1000,12,0,1,706.232,0.388,9.162,315.920,-2.639,3.678
1782117285.000856,0.478000,1731358,1000,12,0,1,707.505,1.051,9.019,316.136,-2.629,3.668
1782117285.001856,0.479000,1731359,1000,12,0,1,708.274,2.217,8.935,315.367,-2.873,3.686
1782117285.002856,0.480000,1731360,1000,12,0,1,703.229,-1.906,8.894,316.881,-2.249,3.689
1782117285.003856,0.481000,1731361,1000,12,0,1,701.139,-4.730,8.909,315.968,-2.214,3.694
1782117285.004856,0.482000,1731362,1000,12,0,1,701.476,-3.102,8.752,315.944,-3.207,3.718
1782117285.005856,0.483000,1731363,1000,12,0,1,700.155,-4.022,8.603,317.793,-1.043,3.717
1782117285.006856,0.484000,1731364,1000,12,0,1,700.515,-3.406,8.457,319.307,0.249,3.704
1782117285.007856,0.485000,1731365,1000,12,0,1,707.601,2.366,8.410,319.139,0.314,3.700
1782117285.008856,0.486000,1731366,1000,12,0,1,708.946,4.662,8.430,317.553,-0.916,3.684
1782117285.009856,0.487000,1731367,1000,12,0,1,706.184,0.280,8.409,314.286,-3.166,3.704
1782117285.010856,0.488000,1731368,1000,12,0,1,703.614,-2.238,8.399,315.127,-2.060,3.710
1782117285.011856,0.489000,1731369,1000,12,0,1,699.866,-5.609,8.436,315.103,-0.146,3.687
1782117285.012856,0.490000,1731370,1000,12,0,1,700.107,-5.504,8.471,316.064,0.996,3.689
1782117285.013856,0.491000,1731371,1000,12,0,1,700.155,-3.818,8.460,317.577,3.536,3.716
1782117285.014856,0.492000,1731372,1000,12,0,1,699.914,-3.798,8.466,320.892,6.331,3.805
1782117285.015856,0.493000,1731373,1000,12,0,1,696.599,-4.900,8.494,323.510,8.812,3.996
1782117285.016856,0.494000,1731374,1000,12,0,1,697.272,-4.406,8.505,327.666,11.014,4.289
1782117285.017856,0.495000,1731375,1000,12,0,1,705.439,4.108,8.502,326.921,9.823,4.505
1782117285.018856,0.496000,1731376,1000,12,0,1,703.277,4.263,8.478,325.432,5.881,4.581
1782117285.019856,0.497000,1731377,1000,12,0,1,706.112,4.064,8.428,325.024,4.310,4.617
1782117285.020856,0.498000,1731378,1000,12,0,1,708.250,7.956,8.488,322.550,0.941,4.618
1782117285.021856,0.499000,1731379,1000,12,0,1,712.261,8.773,8.544,315.415,-5.988,4.683
1782117285.022856,0.500000,1731380,1000,12,0,1,715.167,11.557,8.525,313.278,-8.957,4.809
1782117285.023856,0.501000,1731381,1000,12,0,1,712.477,7.155,8.523,313.614,-7.385,4.893
1782117285.024856,0.502000,1731382,1000,12,0,1,708.081,1.730,8.487,311.740,-8.248,5.027
1782117285.025856,0.503000,1731383,1000,12,0,1,699.146,-6.109,8.460,316.088,-4.640,5.050
1782117285.026856,0.504000,1731384,1000,12,0,1,698.377,-8.403,8.535,318.730,-0.302,5.050
1782117285.027856,0.505000,1731385,1000,12,0,1,701.356,-3.355,8.547,316.304,-2.766,5.058
1782117285.028856,0.506000,1731386,1000,12,0,1,700.995,-3.631,8.562,316.352,-2.582,5.071
1782117285.029856,0.507000,1731387,1000,12,0,1,699.002,-4.648,8.585,315.223,-2.421,5.082
1782117285.030856,0.508000,1731388,1000,12,0,1,699.050,-4.671,8.467,316.328,-1.430,5.073
1782117285.031856,0.509000,1731389,1000,12,0,1,699.050,-3.568,8.013,316.328,0.179,5.033
1782117285.032856,0.510000,1731390,1000,12,0,1,698.329,-3.833,7.611,312.149,-2.872,5.034
1782117285.033856,0.511000,1731391,1000,12,0,1,695.855,-5.045,7.586,314.431,-0.927,5.021
1782117285.034856,0.512000,1731392,1000,12,0,1,700.299,-1.458,7.553,314.335,1.379,4.857
1782117285.035856,0.513000,1731393,1000,12,0,1,708.826,7.113,7.283,312.821,-0.420,4.592
1782117285.036856,0.514000,1731394,1000,12,0,1,710.940,9.020,6.427,311.116,-0.659,4.421
1782117285.037856,0.515000,1731395,1000,12,0,1,711.276,7.368,5.480,311.332,-0.598,4.291
1782117285.038856,0.516000,1731396,1000,12,0,1,712.741,7.759,5.083,313.782,2.205,4.280
1782117285.039856,0.517000,1731397,1000,12,0,1,710.483,4.889,4.973,315.704,3.899,4.304
1782117285.040856,0.518000,1731398,1000,12,0,1,710.483,3.288,4.958,315.704,3.422,4.331
1782117285.041856,0.519000,1731399,1000,12,0,1,710.483,3.304,4.969,315.704,2.591,4.246
1782117285.042856,0.520000,1731400,1000,12,0,1,700.467,-4.993,4.943,318.538,3.945,4.143
1782117285.043856,0.521000,1731401,1000,12,0,1,701.500,-6.294,4.978,318.466,3.774,4.099
1782117285.044856,0.522000,1731402,1000,12,0,1,695.302,-7.059,5.069,319.571,2.742,4.117
1782117285.045856,0.523000,1731403,1000,12,0,1,686.967,-15.617,5.514,322.309,4.759,4.159
1782117285.046856,0.524000,1731404,1000,12,0,1,685.262,-13.834,5.817,321.493,3.167,4.171
1782117285.047856,0.525000,1731405,1000,12,0,1,688.264,-9.222,5.955,322.309,2.412,4.184
1782117285.048856,0.526000,1731406,1000,12,0,1,699.266,1.813,5.961,320.244,0.930,4.175
1782117285.049856,0.527000,1731407,1000,12,0,1,713.630,15.165,6.335,314.647,-4.548,4.208
1782117285.050856,0.528000,1731408,1000,12,0,1,719.755,19.192,6.890,312.197,-6.359,4.287
1782117285.051856,0.529000,1731409,1000,12,0,1,718.434,14.845,7.196,310.948,-5.872,4.347
1782117285.052856,0.530000,1731410,1000,12,0,1,711.228,5.598,7.234,315.656,-1.307,4.340
1782117285.053856,0.531000,1731411,1000,12,0,1,705.487,-1.883,7.208,317.385,2.521,4.343
1782117285.054856,0.532000,1731412,1000,12,0,1,700.491,-6.425,7.252,317.385,1.794,4.327
1782117285.055856,0.533000,1731413,1000,12,0,1,702.461,-5.257,7.268,319.427,3.869,4.359
1782117285.056856,0.534000,1731414,1000,12,0,1,709.979,2.342,7.259,316.256,1.463,4.363
1782117285.057856,0.535000,1731415,1000,12,0,1,716.657,8.259,7.345,316.088,-0.205,4.363
1782117285.058856,0.536000,1731416,1000,12,0,1,716.873,7.897,7.400,314.407,-0.457,4.362
1782117285.059856,0.537000,1731417,1000,12,0,1,712.189,2.496,7.409,315.175,-1.317,4.343
1782117285.060856,0.538000,1731418,1000,12,0,1,711.300,0.292,7.402,315.367,-0.095,4.333
1782117285.061856,0.539000,1731419,1000,12,0,1,716.441,4.646,7.389,314.647,-1.759,4.340
1782117285.062856,0.540000,1731420,1000,12,0,1,716.681,5.152,7.383,314.383,-1.882,4.346
1782117285.063856,0.541000,1731421,1000,12,0,1,710.003,-1.547,7.367,317.529,0.140,4.317
1782117285.064856,0.542000,1731422,1000,12,0,1,705.679,-6.218,7.400,319.379,2.054,4.233
1782117285.065856,0.543000,1731423,1000,12,0,1,701.139,-8.828,7.472,319.763,1.491,4.051
1782117285.066856,0.544000,1731424,1000,12,0,1,695.182,-13.199,7.677,321.301,2.119,3.752
1782117285.067856,0.545000,1731425,1000,12,0,1,698.737,-9.420,7.770,319.235,0.532,3.486
1782117285.068856,0.546000,1731426,1000,12,0,1,708.442,0.964,7.747,317.097,-2.321,3.401
1782117285.069856,0.547000,1731427,1000,12,0,1,714.231,6.395,7.779,315.536,-2.783,3.369
1782117285.070856,0.548000,1731428,1000,12,0,1,709.354,1.720,7.701,315.896,-2.410,3.384
1782117285.071856,0.549000,1731429,1000,12,0,1,701.788,-6.690,7.659,316.929,-0.258,3.276
1782117285.072856,0.550000,1731430,1000,12,0,1,701.596,-7.207,7.552,316.857,0.137,3.022
1782117285.073856,0.551000,1731431,1000,12,0,1,703.301,-4.401,7.509,318.082,1.487,2.843
1782117285.074856,0.552000,1731432,1000,12,0,1,705.703,-2.188,7.512,315.968,0.573,2.594
1782117285.075856,0.553000,1731433,1000,12,0,1,707.000,-0.201,7.462,314.190,-1.487,2.518
1782117285.076856,0.554000,1731434,1000,12,0,1,708.586,0.843,7.368,315.704,0.366,2.519
1782117285.077856,0.555000,1731435,1000,12,0,1,709.162,1.881,7.357,318.754,3.032,2.525
1782117285.078856,0.556000,1731436,1000,12,0,1,707.721,0.558,7.340,318.298,2.821,2.530
1782117285.079856,0.557000,1731437,1000,12,0,1,708.418,1.056,7.312,319.307,2.205,2.526
1782117285.080856,0.558000,1731438,1000,12,0,1,707.361,1.130,7.284,321.036,3.473,2.565
1782117285.081856,0.559000,1731439,1000,12,0,1,707.865,1.129,7.268,320.099,1.694,2.576
1782117285.082856,0.560000,1731440,1000,12,0,1,707.793,2.183,7.254,320.051,0.371,2.545
1782117285.083856,0.561000,1731441,1000,12,0,1,707.217,1.383,7.222,321.060,0.740,2.543
1782117285.084856,0.562000,1731442,1000,12,0,1,705.223,0.308,7.219,321.349,0.270,2.536
1782117285.085856,0.563000,1731443,1000,12,0,1,704.190,-0.875,7.150,320.460,-0.891,2.539
1782117285.086856,0.564000,1731444,1000,12,0,1,703.277,-1.023,7.036,320.748,-1.288,2.543
1782117285.087856,0.565000,1731445,1000,12,0,1,704.550,-0.179,6.959,320.556,-1.111,2.547
1782117285.088856,0.566000,1731446,1000,12,0,1,705.751,1.260,6.874,323.270,0.627,2.529
1782117285.089856,0.567000,1731447,1000,12,0,1,701.740,-2.120,6.846,321.204,0.123,2.468
1782117285.090856,0.568000,1731448,1000,12,0,1,701.235,-3.785,6.851,320.148,-1.987,2.437
1782117285.091856,0.569000,1731449,1000,12,0,1,702.388,-1.735,6.839,320.820,-0.221,2.409
1782117285.092856,0.570000,1731450,1000,12,0,1,706.256,0.738,6.804,319.307,-1.182,2.350
1782117285.093856,0.571000,1731451,1000,12,0,1,706.088,1.571,6.749,319.979,-0.597,2.290
1782117285.094856,0.572000,1731452,1000,12,0,1,706.544,0.238,6.675,321.060,1.222,2.263
1782117285.095856,0.573000,1731453,1000,12,0,1,705.847,0.348,6.299,319.499,-0.099,2.161
1782117285.096856,0.574000,1731454,1000,12,0,1,703.710,-2.135,5.995,320.027,0.061,2.114
1782117285.097856,0.575000,1731455,1000,12,0,1,704.863,-1.048,5.853,320.220,0.566,2.088
1782117285.098856,0.576000,1731456,1000,12,0,1,706.520,1.252,5.850,320.172,0.038,2.084
1782117285.099856,0.577000,1731457,1000,12,0,1,706.304,1.234,5.446,320.460,0.044,1.982
1782117285.100856,0.578000,1731458,1000,12,0,1,707.337,2.272,4.732,320.940,0.002,1.766
1782117285.101856,0.579000,1731459,1000,12,0,1,704.262,0.465,4.241,321.589,0.053,1.559
1782117285.102856,0.580000,1731460,1000,12,0,1,705.031,0.351,4.167,321.805,-0.194,1.548
1782117285.103856,0.581000,1731461,1000,12,0,1,704.598,1.609,4.165,320.460,-1.780,1.528
1782117285.104856,0.582000,1731462,1000,12,0,1,703.301,-0.007,4.065,322.598,-0.775,1.510
1782117285.105856,0.583000,1731463,1000,12,0,1,703.469,0.639,3.997,321.397,-0.986,1.415
1782117285.106856,0.584000,1731464,1000,12,0,1,705.631,2.400,3.998,321.108,-2.385,1.440
1782117285.107856,0.585000,1731465,1000,12,0,1,700.515,-1.119,3.827,322.333,-0.557,1.441
1782117285.108856,0.586000,1731466,1000,12,0,1,697.104,-5.473,3.741,321.613,-0.995,1.447
1782117285.109856,0.587000,1731467,1000,12,0,1,699.314,-2.749,3.744,319.739,-2.331,1.472
1782117285.110856,0.588000,1731468,1000,12,0,1,701.139,-0.553,3.745,319.307,-2.255,1.506
1782117285.111856,0.589000,1731469,1000,12,0,1,699.410,-1.999,3.698,318.226,-2.194,1.518
1782117285.112856,0.590000,1731470,1000,12,0,1,698.329,-3.247,3.654,318.106,-1.746,1.514
1782117285.113856,0.591000,1731471,1000,12,0,1,683.845,-13.553,4.121,321.060,1.394,1.527
1782117285.114856,0.592000,1731472,1000,12,0,1,664.268,-30.041,5.853,326.777,6.640,1.769
1782117285.115856,0.593000,1731473,1000,12,0,1,678.200,-17.145,6.211,323.054,4.205,1.854
1782117285.116856,0.594000,1731474,1000,12,0,1,704.574,12.741,6.192,316.665,-3.103,1.882
1782117285.117856,0.595000,1731475,1000,12,0,1,702.268,12.941,6.318,318.898,-1.474,1.892
1782117285.118856,0.596000,1731476,1000,12,0,1,690.042,-0.864,6.317,321.997,2.219,1.889
1782117285.119856,0.597000,1731477,1000,12,0,1,692.540,0.559,6.253,319.979,0.155,1.848
1782117285.120856,0.598000,1731478,1000,12,0,1,693.573,4.056,6.274,321.252,0.102,1.816
1782117285.121856,0.599000,1731479,1000,12,0,1,690.738,1.159,6.205,322.165,1.227,1.824
1782117285.122856,0.600000,1731480,1000,12,0,1,694.582,4.658,6.156,321.325,-0.374,1.825
1782117285.123856,0.601000,1731481,1000,12,0,1,698.089,8.806,6.250,320.220,-1.639,1.828
1782117285.124856,0.602000,1731482,1000,12,0,1,695.446,6.248,6.304,319.403,-2.576,1.862
1782117285.125856,0.603000,1731483,1000,12,0,1,691.795,2.380,6.313,319.691,-2.318,1.879
1782117285.126856,0.604000,1731484,1000,12,0,1,690.811,1.358,6.315,319.499,-1.972,1.899
1782117285.127856,0.605000,1731485,1000,12,0,1,697.656,6.742,6.381,315.824,-4.567,1.959
1782117285.128856,0.606000,1731486,1000,12,0,1,700.971,10.420,6.548,315.415,-4.853,2.037
1782117285.129856,0.607000,1731487,1000,12,0,1,694.846,3.706,6.568,317.217,-1.750,2.028
1782117285.130856,0.608000,1731488,1000,12,0,1,697.897,3.523,6.585,318.538,0.183,1.968
1782117285.131856,0.609000,1731489,1000,12,0,1,701.668,7.699,6.672,315.848,-1.023,1.959
1782117285.132856,0.610000,1731490,1000,12,0,1,704.911,7.815,6.756,316.088,-1.086,1.964
1782117285.133856,0.611000,1731491,1000,12,0,1,704.622,7.028,6.826,317.169,1.277,1.970
1782117285.134856,0.612000,1731492,1000,12,0,1,703.037,2.985,6.839,318.874,2.664,2.005
1782117285.135856,0.613000,1731493,1000,12,0,1,703.037,1.946,6.843,317.265,2.062,2.022
1782117285.136856,0.614000,1731494,1000,12,0,1,705.559,2.848,6.853,316.136,0.301,2.014
1782117285.137856,0.615000,1731495,1000,12,0,1,709.931,5.672,6.900,316.544,0.971,2.013
1782117285.138856,0.616000,1731496,1000,12,0,1,707.721,3.514,6.916,317.745,1.815,2.027
1782117285.139856,0.617000,1731497,1000,12,0,1,707.385,0.664,6.910,318.514,2.277,2.053
1782117285.140856,0.618000,1731498,1000,12,0,1,703.061,-1.926,6.895,320.075,2.983,2.077
1782117285.141856,0.619000,1731499,1000,12,0,1,698.233,-7.548,6.972,322.718,4.485,2.171
1782117285.142856,0.620000,1731500,1000,12,0,1,693.573,-9.742,7.106,324.591,5.366,2.294
1782117285.143856,0.621000,1731501,1000,12,0,1,687.135,-14.093,7.377,325.192,4.545,2.381
1782117285.144856,0.622000,1731502,1000,12,0,1,682.643,-15.826,7.709,326.033,4.097,2.444
1782117285.145856,0.623000,1731503,1000,12,0,1,678.800,-15.989,8.034,328.122,4.637,2.530
1782117285.146856,0.624000,1731504,1000,12,0,1,673.756,-17.324,8.394,328.915,4.615,2.613
1782117285.147856,0.625000,1731505,1000,12,0,1,681.298,-9.065,8.490,327.138,2.003,2.627
1782117285.148856,0.626000,1731506,1000,12,0,1,684.301,-1.689,8.491,326.297,0.365,2.628
1782117285.149856,0.627000,1731507,1000,12,0,1,692.828,4.032,8.509,322.478,-2.553,2.652
1782117285.150856,0.628000,1731508,1000,12,0,1,700.299,12.544,8.686,319.835,-5.326,2.757
1782117285.151856,0.629000,1731509,1000,12,0,1,697.320,8.101,8.761,318.610,-5.091,2.850
1782117285.152856,0.630000,1731510,1000,12,0,1,701.884,8.666,8.846,317.121,-5.509,2.954
1782117285.153856,0.631000,1731511,1000,12,0,1,707.673,13.580,9.049,313.157,-7.400,3.124
1782117285.154856,0.632000,1731512,1000,12,0,1,704.358,8.227,9.123,313.926,-6.334,3.248
1782117285.155856,0.633000,1731513,1000,12,0,1,700.299,2.485,9.130,316.520,-2.062,3.258
1782117285.156856,0.634000,1731514,1000,12,0,1,696.816,-1.385,9.126,318.082,-0.243,3.241
1782117285.157856,0.635000,1731515,1000,12,0,1,694.774,-3.305,9.136,315.223,-1.934,3.251
1782117285.158856,0.636000,1731516,1000,12,0,1,697.752,-0.569,9.104,318.442,-0.404,3.249
1782117285.159856,0.637000,1731517,1000,12,0,1,698.737,1.783,9.099,319.499,2.025,3.245
1782117285.160856,0.638000,1731518,1000,12,0,1,695.446,-0.958,9.099,319.787,0.694,3.230
1782117285.161856,0.639000,1731519,1000,12,0,1,692.468,-3.016,9.105,322.189,2.592,3.236
1782117285.162856,0.640000,1731520,1000,12,0,1,694.269,-0.918,9.094,323.823,3.379,3.262
1782117285.163856,0.641000,1731521,1000,12,0,1,695.927,1.983,8.895,321.973,1.111,3.260
1782117285.164856,0.642000,1731522,1000,12,0,1,697.200,2.985,7.826,324.087,1.587,3.130
1782117285.165856,0.643000,1731523,1000,12,0,1,695.855,2.244,7.447,323.510,1.671,3.082
1782117285.166856,0.644000,1731524,1000,12,0,1,692.276,-1.376,7.229,323.174,0.185,3.051
1782117285.167856,0.645000,1731525,1000,12,0,1,691.747,-2.283,7.001,322.646,0.238,3.044
1782117285.168856,0.646000,1731526,1000,12,0,1,692.612,-1.138,7.002,323.270,0.469,3.028
1782117285.169856,0.647000,1731527,1000,12,0,1,693.621,-0.677,7.002,321.541,-0.193,3.028
1782117285.170856,0.648000,1731528,1000,12,0,1,688.288,-4.641,7.009,320.460,-1.282,3.034
1782117285.171856,0.649000,1731529,1000,12,0,1,683.364,-9.994,7.148,326.297,3.761,3.075
1782117285.172856,0.650000,1731530,1000,12,0,1,685.766,-7.083,7.188,327.666,6.402,3.205
1782117285.173856,0.651000,1731531,1000,12,0,1,694.173,0.866,7.080,328.795,5.324,3.284
1782117285.174856,0.652000,1731532,1000,12,0,1,692.780,1.414,7.028,328.963,5.764,3.364
1782117285.175856,0.653000,1731533,1000,12,0,1,685.286,-6.302,7.076,332.975,6.802,3.484
1782117285.176856,0.654000,1731534,1000,12,0,1,683.941,-7.126,7.145,332.398,6.647,3.597
1782117285.177856,0.655000,1731535,1000,12,0,1,698.737,5.824,7.129,328.218,0.418,3.539
1782117285.178856,0.656000,1731536,1000,12,0,1,705.920,14.911,7.287,323.871,-3.939,3.517
1782117285.179856,0.657000,1731537,1000,12,0,1,707.745,13.317,7.508,321.877,-6.441,3.624
1782117285.180856,0.658000,1731538,1000,12,0,1,710.964,14.876,7.781,325.985,-3.128,3.651
1782117285.181856,0.659000,1731539,1000,12,0,1,702.893,7.198,7.771,332.758,3.061,3.674
1782117285.182856,0.660000,1731540,1000,12,0,1,694.918,-2.617,7.701,340.085,8.053,3.843
1782117285.183856,0.661000,1731541,1000,12,0,1,691.171,-4.675,7.665,349.405,14.211,4.333
1782117285.184856,0.662000,1731542,1000,12,0,1,687.183,-7.488,7.727,354.521,16.161,4.884
1782117285.185856,0.663000,1731543,1000,12,0,1,679.088,-12.157,7.911,359.421,16.151,5.384
1782117285.186856,0.664000,1731544,1000,12,0,1,677.359,-13.136,8.116,361.223,14.670,5.770
1782117285.187856,0.665000,1731545,1000,12,0,1,680.842,-6.842,8.134,349.285,1.811,5.774
1782117285.188856,0.666000,1731546,1000,12,0,1,689.658,1.422,8.121,331.677,-16.144,6.204
1782117285.189856,0.667000,1731547,1000,12,0,1,691.267,4.800,8.149,327.546,-19.999,6.810
1782117285.190856,0.668000,1731548,1000,12,0,1,696.023,5.958,8.188,322.021,-20.058,7.365
1782117285.191856,0.669000,1731549,1000,12,0,1,695.206,6.116,8.164,310.011,-27.734,8.321
1782117285.192856,0.670000,1731550,1000,12,0,1,683.484,-5.977,8.091,309.338,-25.194,9.019
1782117285.193856,0.671000,1731551,1000,12,0,1,683.196,-8.376,7.931,312.221,-16.588,9.297
1782117285.194856,0.672000,1731552,1000,12,0,1,703.373,9.431,7.725,308.257,-16.110,9.555
1782117285.195856,0.673000,1731553,1000,12,0,1,709.835,16.908,7.764,304.918,-16.135,9.802
1782117285.196856,0.674000,1731554,1000,12,0,1,699.434,4.424,7.394,308.041,-10.549,9.893
1782117285.197856,0.675000,1731555,1000,12,0,1,692.564,-4.050,7.304,310.707,-4.974,9.914
1782117285.198856,0.676000,1731556,1000,12,0,1,694.558,-2.145,7.306,311.356,-3.181,9.924
1782117285.199856,0.677000,1731557,1000,12,0,1,694.462,-0.827,7.285,314.767,0.399,9.918
1782117285.200856,0.678000,1731558,1000,12,0,1,690.450,-3.614,7.084,321.925,6.765,9.935
1782117285.201856,0.679000,1731559,1000,12,0,1,695.543,0.454,6.991,321.949,7.267,9.962
1782117285.202856,0.680000,1731560,1000,12,0,1,705.944,11.197,7.063,316.064,0.660,9.932
1782117285.203856,0.681000,1731561,1000,12,0,1,709.523,13.985,7.079,313.302,-2.324,9.882
1782117285.204856,0.682000,1731562,1000,12,0,1,704.622,8.353,7.082,316.088,0.584,9.842
1782117285.205856,0.683000,1731563,1000,12,0,1,704.670,5.471,7.115,316.977,2.754,9.845
1782117285.206856,0.684000,1731564,1000,12,0,1,700.827,2.744,7.123,315.055,1.538,9.848
1782117285.207856,0.685000,1731565,1000,12,0,1,697.752,-2.463,7.116,314.527,1.745,9.847
1782117285.208856,0.686000,1731566,1000,12,0,1,695.903,-3.535,7.133,317.529,5.298,9.875
1782117285.209856,0.687000,1731567,1000,12,0,1,700.467,-1.202,7.131,316.809,6.252,9.911
1782117285.210856,0.688000,1731568,1000,12,0,1,701.043,0.388,7.130,315.463,4.995,9.935
1782117285.211856,0.689000,1731569,1000,12,0,1,695.687,-5.848,7.165,315.439,5.809,9.962
1782117285.212856,0.690000,1731570,1000,12,0,1,692.588,-9.293,7.283,318.394,8.324,10.020
1782117285.213856,0.691000,1731571,1000,12,0,1,694.990,-7.017,7.345,317.265,8.135,10.085
1782117285.214856,0.692000,1731572,1000,12,0,1,700.371,-2.098,7.339,315.776,5.452,10.112
1782117285.215856,0.693000,1731573,1000,12,0,1,703.517,1.094,7.334,315.728,5.155,10.135
1782117285.216856,0.694000,1731574,1000,12,0,1,705.968,2.002,7.337,316.785,5.084,10.161
1782117285.217856,0.695000,1731575,1000,12,0,1,703.229,0.060,7.330,320.340,6.898,10.207
1782117285.218856,0.696000,1731576,1000,12,0,1,697.272,-6.084,7.378,324.087,8.856,10.284
1782117285.219856,0.697000,1731577,1000,12,0,1,692.660,-9.092,7.489,324.471,7.159,10.333
1782117285.220856,0.698000,1731578,1000,12,0,1,692.708,-7.935,7.544,323.054,3.658,10.345
1782117285.221856,0.699000,1731579,1000,12,0,1,695.446,-3.260,7.425,324.063,2.256,10.336
1782117285.222856,0.700000,1731580,1000,12,0,1,698.065,0.496,7.357,323.294,0.825,10.297
1782117285.223856,0.701000,1731581,1000,12,0,1,701.356,4.097,7.379,323.294,-1.011,10.270
1782117285.224856,0.702000,1731582,1000,12,0,1,698.113,2.529,7.385,322.285,-1.789,10.241
1782117285.225856,0.703000,1731583,1000,12,0,1,691.963,-3.433,7.347,322.670,-2.353,10.201
1782117285.226856,0.704000,1731584,1000,12,0,1,697.056,0.625,7.278,320.940,-2.791,10.166
1782117285.227856,0.705000,1731585,1000,12,0,1,697.488,3.349,7.247,322.862,-1.718,10.168
1782117285.228856,0.706000,1731586,1000,12,0,1,692.348,-2.477,6.942,325.168,1.859,10.156
1782117285.229856,0.707000,1731587,1000,12,0,1,691.771,-3.182,6.697,322.814,0.213,10.116
1782117285.230856,0.708000,1731588,1000,12,0,1,695.302,-0.002,6.358,321.709,-0.856,10.107
1782117285.231856,0.709000,1731589,1000,12,0,1,698.353,2.607,6.286,319.763,-1.215,10.099
1782117285.232856,0.710000,1731590,1000,12,0,1,699.026,2.504,6.286,319.931,-1.281,10.036
1782117285.233856,0.711000,1731591,1000,12,0,1,697.464,0.158,6.251,319.427,-0.269,9.833
1782117285.234856,0.712000,1731592,1000,12,0,1,698.713,0.107,6.160,322.117,1.195,9.565
1782117285.235856,0.713000,1731593,1000,12,0,1,696.672,-1.245,5.918,322.213,2.350,9.294
1782117285.236856,0.714000,1731594,1000,12,0,1,697.272,-1.990,5.626,323.919,1.871,9.064
1782117285.237856,0.715000,1731595,1000,12,0,1,697.080,-0.905,5.544,324.567,2.529,9.067
1782117285.238856,0.716000,1731596,1000,12,0,1,695.615,-2.367,5.550,323.294,-0.285,8.775
1782117285.239856,0.717000,1731597,1000,12,0,1,695.687,-1.555,5.513,326.633,1.037,8.308
1782117285.240856,0.718000,1731598,1000,12,0,1,697.080,0.482,5.449,327.089,1.331,7.811
1782117285.241856,0.719000,1731599,1000,12,0,1,694.678,-0.367,5.380,327.978,-0.295,6.755
1782117285.242856,0.720000,1731600,1000,12,0,1,697.056,1.357,5.316,326.417,-1.460,5.743
1782117285.243856,0.721000,1731601,1000,12,0,1,697.632,3.736,5.210,326.585,-3.198,5.261
1782117285.244856,0.722000,1731602,1000,12,0,1,694.534,0.800,5.037,326.297,-2.551,4.756
1782117285.245856,0.723000,1731603,1000,12,0,1,693.044,-0.354,4.434,327.666,-2.172,4.184
1782117285.246856,0.724000,1731604,1000,12,0,1,693.717,0.693,4.391,328.315,-0.502,3.910
1782117285.247856,0.725000,1731605,1000,12,0,1,693.837,1.035,4.356,330.260,0.836,3.848
1782117285.248856,0.726000,1731606,1000,12,0,1,691.387,-0.873,4.347,328.819,0.789,3.823
1782117285.249856,0.727000,1731607,1000,12,0,1,688.577,-3.767,4.378,328.459,-0.049,3.822
1782117285.250856,0.728000,1731608,1000,12,0,1,688.505,-3.667,4.379,327.306,0.165,3.701
1782117285.251856,0.729000,1731609,1000,12,0,1,689.177,-2.763,4.396,326.321,-0.621,3.556
1782117285.252856,0.730000,1731610,1000,12,0,1,684.517,-5.962,4.186,328.411,1.519,3.562
1782117285.253856,0.731000,1731611,1000,12,0,1,678.800,-11.047,4.007,329.468,3.111,3.574
1782117285.254856,0.732000,1731612,1000,12,0,1,676.638,-11.502,4.160,331.870,4.066,3.619
1782117285.255856,0.733000,1731613,1000,12,0,1,677.503,-8.959,4.279,330.765,3.389,3.629
1782117285.256856,0.734000,1731614,1000,12,0,1,683.748,-2.105,4.272,330.500,0.913,3.625
1782117285.257856,0.735000,1731615,1000,12,0,1,697.945,10.891,4.528,326.777,-1.948,3.627
1782117285.258856,0.736000,1731616,1000,12,0,1,712.021,23.075,5.559,323.270,-6.817,3.678
1782117285.259856,0.737000,1731617,1000,12,0,1,712.789,22.142,6.378,322.622,-6.982,3.704
1782117285.260856,0.738000,1731618,1000,12,0,1,710.628,15.643,6.750,327.474,-3.333,3.666
1782117285.261856,0.739000,1731619,1000,12,0,1,706.184,10.242,6.854,329.083,-0.878,3.575
1782117285.262856,0.740000,1731620,1000,12,0,1,703.109,4.823,6.762,329.660,-1.679,3.384
1782117285.263856,0.741000,1731621,1000,12,0,1,703.229,4.482,6.718,330.356,-1.023,3.186
1782117285.264856,0.742000,1731622,1000,12,0,1,703.806,4.354,6.740,329.948,-1.609,3.100
1782117285.265856,0.743000,1731623,1000,12,0,1,704.911,4.630,6.770,328.242,-2.990,3.042
1782117285.266856,0.744000,1731624,1000,12,0,1,703.686,3.264,6.780,328.507,-2.486,2.977
1782117285.267856,0.745000,1731625,1000,12,0,1,700.875,-0.280,6.780,330.621,0.055,2.813
1782117285.268856,0.746000,1731626,1000,12,0,1,700.082,-1.545,6.729,330.885,1.340,2.525
1782117285.269856,0.747000,1731627,1000,12,0,1,694.029,-6.294,6.664,331.005,1.445,2.323
1782117285.270856,0.748000,1731628,1000,12,0,1,688.745,-11.690,6.774,332.878,3.633,2.322
1782117285.271856,0.749000,1731629,1000,12,0,1,681.851,-15.733,7.115,334.584,5.221,2.415
1782117285.272856,0.750000,1731630,1000,12,0,1,683.028,-14.785,7.416,333.527,4.378,2.491
1782117285.273856,0.751000,1731631,1000,12,0,1,689.321,-6.513,7.450,330.717,1.328,2.494
1782117285.274856,0.752000,1731632,1000,12,0,1,704.046,5.545,7.483,327.114,-1.862,2.495
1782117285.275856,0.753000,1731633,1000,12,0,1,712.117,13.711,7.715,324.543,-4.228,2.544
1782117285.276856,0.754000,1731634,1000,12,0,1,709.354,8.182,7.800,325.024,-3.585,2.564
1782117285.277856,0.755000,1731635,1000,12,0,1,707.265,3.474,7.801,327.474,-1.167,2.557
1782117285.278856,0.756000,1731636,1000,12,0,1,706.256,1.563,7.797,327.882,-0.692,2.546
1782117285.279856,0.757000,1731637,1000,12,0,1,707.193,0.875,7.785,328.050,-1.350,2.553
1782117285.280856,0.758000,1731638,1000,12,0,1,703.589,-1.379,7.787,330.717,0.312,2.550
1782117285.281856,0.759000,1731639,1000,12,0,1,703.541,-2.999,7.790,331.942,1.108,2.549
1782117285.282856,0.760000,1731640,1000,12,0,1,703.638,-0.810,7.783,333.983,1.516,2.552
1782117285.283856,0.761000,1731641,1000,12,0,1,703.109,-1.545,7.786,334.344,1.653,2.562
1782117285.284856,0.762000,1731642,1000,12,0,1,700.779,-1.986,7.791,334.152,0.286,2.557
1782117285.285856,0.763000,1731643,1000,12,0,1,701.115,-1.770,7.793,337.466,2.605,2.562
1782117285.286856,0.764000,1731644,1000,12,0,1,701.476,0.091,7.788,337.707,3.155,2.587
1782117285.287856,0.765000,1731645,1000,12,0,1,699.170,-1.510,7.790,341.142,4.540,2.641
1782117285.288856,0.766000,1731646,1000,12,0,1,694.582,-4.975,7.814,341.310,5.678,2.760
1782117285.289856,0.767000,1731647,1000,12,0,1,691.387,-7.293,7.879,337.442,1.055,2.760
1782117285.290856,0.768000,1731648,1000,12,0,1,689.850,-7.666,7.953,335.593,-0.588,2.755
1782117285.291856,0.769000,1731649,1000,12,0,1,694.342,-3.415,7.967,330.356,-4.032,2.813
1782117285.292856,0.770000,1731650,1000,12,0,1,691.003,-4.225,7.987,329.780,-4.955,2.892
1782117285.293856,0.771000,1731651,1000,12,0,1,690.090,-6.811,8.028,331.581,-1.308,2.862
1782117285.294856,0.772000,1731652,1000,12,0,1,685.886,-8.067,8.108,332.614,-0.303,2.840
1782117285.295856,0.773000,1731653,1000,12,0,1,670.441,-20.482,8.610,337.322,3.659,2.870
1782117285.296856,0.774000,1731654,1000,12,0,1,660.881,-27.575,9.451,340.589,6.362,3.007
1782117285.297856,0.775000,1731655,1000,12,0,1,685.982,-4.330,9.470,331.894,-1.580,3.013
1782117285.298856,0.776000,1731656,1000,12,0,1,710.796,23.319,10.027,326.105,-9.159,3.278
1782117285.299856,0.777000,1731657,1000,12,0,1,720.596,28.883,10.814,324.976,-8.950,3.514
1782117285.300856,0.778000,1731658,1000,12,0,1,718.242,23.925,11.319,324.928,-8.675,3.722
1782117285.301856,0.779000,1731659,1000,12,0,1,711.036,13.178,11.465,325.192,-7.433,3.866
1782117285.302856,0.780000,1731660,1000,12,0,1,707.961,7.673,11.485,327.618,-4.928,3.923
1782117285.303856,0.781000,1731661,1000,12,0,1,701.187,2.072,11.382,329.299,-2.528,3.914
1782117285.304856,0.782000,1731662,1000,12,0,1,698.665,-1.960,11.269,329.900,-1.757,3.880
1782117285.305856,0.783000,1731663,1000,12,0,1,700.539,1.631,11.199,329.924,-1.353,3.855
1782117285.306856,0.784000,1731664,1000,12,0,1,699.866,1.391,11.197,328.579,-1.803,3.861
1782117285.307856,0.785000,1731665,1000,12,0,1,696.167,-0.949,11.092,330.717,0.082,3.851
1782117285.308856,0.786000,1731666,1000,12,0,1,689.730,-6.045,10.635,332.158,2.938,3.752
1782117285.309856,0.787000,1731667,1000,12,0,1,689.129,-6.347,10.203,331.101,2.137,3.632
1782117285.310856,0.788000,1731668,1000,12,0,1,695.615,0.465,9.961,326.417,-0.796,3.603
1782117285.311856,0.789000,1731669,1000,12,0,1,708.153,10.830,9.973,322.069,-4.231,3.650
1782117285.312856,0.790000,1731670,1000,12,0,1,710.075,12.636,10.109,321.589,-3.169,3.670
1782117285.313856,0.791000,1731671,1000,12,0,1,705.391,4.375,10.108,323.510,-0.016,3.667
1782117285.314856,0.792000,1731672,1000,12,0,1,704.863,1.474,10.091,323.631,1.385,3.665
1782117285.315856,0.793000,1731673,1000,12,0,1,705.439,0.391,10.070,324.832,2.428,3.657
1782117285.316856,0.794000,1731674,1000,12,0,1,700.779,-4.643,10.081,329.419,6.300,3.748
1782117285.317856,0.795000,1731675,1000,12,0,1,691.867,-13.053,10.249,332.014,8.302,3.927
1782117285.318856,0.796000,1731676,1000,12,0,1,693.333,-12.560,10.399,332.566,6.995,4.045
1782117285.319856,0.797000,1731677,1000,12,0,1,708.370,1.978,10.365,329.395,3.187,4.065
1782117285.320856,0.798000,1731678,1000,12,0,1,716.945,10.982,10.349,328.026,-0.188,4.033
1782117285.321856,0.799000,1731679,1000,12,0,1,714.879,7.621,10.165,329.083,0.359,3.965
1782117285.322856,0.800000,1731680,1000,12,0,1,710.507,2.291,9.953,330.669,0.860,3.918
1782117285.323856,0.801000,1731681,1000,12,0,1,710.844,1.667,9.913,331.557,1.200,3.917
1782117285.324856,0.802000,1731682,1000,12,0,1,713.438,4.316,9.900,330.765,-0.000,3.909
1782117285.325856,0.803000,1731683,1000,12,0,1,715.768,6.126,9.747,330.909,-0.451,3.863
1782117285.326856,0.804000,1731684,1000,12,0,1,715.552,5.721,9.712,331.629,0.444,3.830
1782117285.327856,0.805000,1731685,1000,12,0,1,708.129,-0.774,9.700,331.533,0.456,3.827
1782117285.328856,0.806000,1731686,1000,12,0,1,703.277,-6.216,9.737,332.566,1.487,3.832
1782117285.329856,0.807000,1731687,1000,12,0,1,705.992,-3.098,9.747,330.909,0.849,3.829
1782117285.330856,0.808000,1731688,1000,12,0,1,710.604,1.400,9.747,329.876,-0.249,3.829
1782117285.331856,0.809000,1731689,1000,12,0,1,712.573,2.841,9.746,330.548,1.128,3.829
1782117285.332856,0.810000,1731690,1000,12,0,1,711.252,0.507,9.745,330.236,1.347,3.828
1782117285.333856,0.811000,1731691,1000,12,0,1,710.724,-1.619,9.745,329.660,0.940,3.823
1782117285.334856,0.812000,1731692,1000,12,0,1,710.387,-2.747,9.749,328.098,-0.091,3.823
1782117285.335856,0.813000,1731693,1000,12,0,1,709.547,-4.595,9.768,327.234,-1.126,3.808
1782117285.336856,0.814000,1731694,1000,12,0,1,709.162,-5.580,9.799,328.411,-0.062,3.782
1782117285.337856,0.815000,1731695,1000,12,0,1,710.844,-4.719,9.820,330.548,1.488,3.733
1782117285.338856,0.816000,1731696,1000,12,0,1,710.267,-4.822,9.818,330.332,1.003,3.648
1782117285.339856,0.817000,1731697,1000,12,0,1,710.652,-5.089,9.790,328.987,-1.255,3.650
1782117285.340856,0.818000,1731698,1000,12,0,1,711.564,-3.446,9.742,332.278,0.450,3.649
1782117285.341856,0.819000,1731699,1000,12,0,1,711.300,-3.219,9.741,333.383,1.546,3.611
1782117285.342856,0.820000,1731700,1000,12,0,1,712.453,-1.682,9.726,333.623,0.114,3.542
1782117285.343856,0.821000,1731701,1000,12,0,1,709.811,-2.341,9.684,333.983,0.101,3.538
1782117285.344856,0.822000,1731702,1000,12,0,1,709.715,-2.508,9.623,334.728,-0.110,3.537
1782117285.345856,0.823000,1731703,1000,12,0,1,708.466,-1.196,9.178,333.455,-1.057,3.502
1782117285.346856,0.824000,1731704,1000,12,0,1,707.409,-1.850,8.312,333.503,-1.580,3.392
1782117285.347856,0.825000,1731705,1000,12,0,1,706.520,-0.882,8.291,333.215,-1.003,3.388
1782117285.348856,0.826000,1731706,1000,12,0,1,710.051,2.157,7.613,332.951,-1.063,3.134
1782117285.349856,0.827000,1731707,1000,12,0,1,716.320,8.323,6.531,330.548,-2.055,2.882
1782117285.350856,0.828000,1731708,1000,12,0,1,721.893,12.165,5.845,329.419,-2.721,2.636
1782117285.351856,0.829000,1731709,1000,12,0,1,720.812,9.902,5.714,329.660,-1.249,2.424
1782117285.352856,0.830000,1731710,1000,12,0,1,717.233,3.938,5.638,329.011,-0.846,2.324
1782117285.353856,0.831000,1731711,1000,12,0,1,717.738,2.141,5.638,330.188,0.417,2.297
1782117285.354856,0.832000,1731712,1000,12,0,1,718.795,2.007,5.639,330.308,1.457,2.293
1782117285.355856,0.833000,1731713,1000,12,0,1,719.539,0.716,5.635,329.540,0.341,2.286
1782117285.356856,0.834000,1731714,1000,12,0,1,721.845,1.371,5.635,331.221,1.565,2.282
1782117285.357856,0.835000,1731715,1000,12,0,1,719.539,-1.396,5.637,330.957,1.289,2.290
1782117285.358856,0.836000,1731716,1000,12,0,1,718.482,-4.074,5.601,331.749,0.712,2.254
1782117285.359856,0.837000,1731717,1000,12,0,1,713.654,-7.302,5.624,336.313,3.857,2.299
1782117285.360856,0.838000,1731718,1000,12,0,1,705.751,-14.110,5.967,337.394,4.247,2.374
1782117285.361856,0.839000,1731719,1000,12,0,1,712.453,-8.055,5.879,336.434,1.484,2.306
1782117285.362856,0.840000,1731720,1000,12,0,1,722.061,3.819,5.627,334.344,-1.097,2.268
1782117285.363856,0.841000,1731721,1000,12,0,1,723.503,5.345,5.643,335.184,-1.674,2.280
1782117285.364856,0.842000,1731722,1000,12,0,1,718.843,1.420,5.643,335.641,-0.818,2.275
1782117285.365856,0.843000,1731723,1000,12,0,1,716.921,-1.043,5.645,334.968,-1.848,2.264
1782117285.366856,0.844000,1731724,1000,12,0,1,719.803,2.189,5.615,333.071,-2.971,2.123
1782117285.367856,0.845000,1731725,1000,12,0,1,727.442,8.554,5.439,332.951,-2.920,1.816
1782117285.368856,0.846000,1731726,1000,12,0,1,728.451,9.879,5.327,331.798,-2.529,1.565
1782117285.369856,0.847000,1731727,1000,12,0,1,726.938,5.931,5.386,330.861,-2.762,1.548
1782117285.370856,0.848000,1731728,1000,12,0,1,725.761,3.827,5.185,329.468,-2.566,1.590
1782117285.371856,0.849000,1731729,1000,12,0,1,726.193,2.386,5.083,330.164,-1.314,1.600
1782117285.372856,0.850000,1731730,1000,12,0,1,722.878,-1.005,5.075,331.125,0.774,1.599
1782117285.373856,0.851000,1731731,1000,12,0,1,721.317,-4.274,5.105,331.005,1.111,1.598
1782117285.374856,0.852000,1731732,1000,12,0,1,720.140,-5.190,5.122,330.140,0.540,1.600
1782117285.375856,0.853000,1731733,1000,12,0,1,713.222,-10.967,5.281,332.710,2.333,1.632
1782117285.376856,0.854000,1731734,1000,12,0,1,712.405,-12.567,5.513,333.095,3.013,1.686
1782117285.377856,0.855000,1731735,1000,12,0,1,718.602,-5.332,5.563,333.287,1.804,1.704
1782117285.378856,0.856000,1731736,1000,12,0,1,718.410,-4.084,5.523,334.128,1.959,1.713
1782117285.379856,0.857000,1731737,1000,12,0,1,715.600,-6.624,5.585,334.031,0.940,1.714
1782117285.380856,0.858000,1731738,1000,12,0,1,712.405,-8.178,5.700,336.097,1.406,1.725
1782117285.381856,0.859000,1731739,1000,12,0,1,712.429,-7.316,5.779,336.746,1.700,1.735
1782117285.382856,0.860000,1731740,1000,12,0,1,712.429,-4.997,5.822,336.746,0.261,1.725
1782117285.383856,0.861000,1731741,1000,12,0,1,721.533,2.836,5.831,331.317,-3.995,1.810
1782117285.384856,0.862000,1731742,1000,12,0,1,715.624,1.964,5.825,331.605,-5.421,1.966
1782117285.385856,0.863000,1731743,1000,12,0,1,712.333,-4.125,5.818,332.230,-2.570,1.993
1782117285.386856,0.864000,1731744,1000,12,0,1,710.147,-2.217,5.773,332.782,-2.422,2.022
1782117285.387856,0.865000,1731745,1000,12,0,1,706.352,-5.555,5.787,333.671,-0.274,2.011
1782117285.388856,0.866000,1731746,1000,12,0,1,697.776,-10.074,5.921,337.442,2.950,2.049
1782117285.389856,0.867000,1731747,1000,12,0,1,684.877,-19.189,6.473,338.884,5.251,2.172
1782117285.390856,0.868000,1731748,1000,12,0,1,690.186,-13.573,6.734,337.899,3.899,2.240
1782117285.391856,0.869000,1731749,1000,12,0,1,709.354,7.699,6.807,333.671,0.422,2.230
1782117285.392856,0.870000,1731750,1000,12,0,1,723.959,20.871,7.415,327.978,-4.450,2.317
1782117285.393856,0.871000,1731751,1000,12,0,1,735.225,28.101,8.406,325.696,-6.077,2.472
1782117285.394856,0.872000,1731752,1000,12,0,1,742.263,29.883,9.402,321.829,-7.340,2.681
1782117285.395856,0.873000,1731753,1000,12,0,1,740.822,23.830,9.987,320.580,-8.188,2.916
1782117285.396856,0.874000,1731754,1000,12,0,1,733.495,12.082,10.128,324.207,-3.280,2.944
1782117285.397856,0.875000,1731755,1000,12,0,1,730.060,4.892,10.151,328.747,1.260,2.946
1782117285.398856,0.876000,1731756,1000,12,0,1,729.268,2.418,10.152,328.771,1.797,2.953
1782117285.399856,0.877000,1731757,1000,12,0,1,734.504,4.721,10.106,329.419,0.954,2.942
1782117285.400856,0.878000,1731758,1000,12,0,1,741.014,9.787,10.054,333.119,3.728,2.964
1782117285.401856,0.879000,1731759,1000,12,0,1,743.272,9.882,10.054,332.158,2.653,2.983
1782117285.402856,0.880000,1731760,1000,12,0,1,745.866,9.600,10.130,330.140,-0.653,2.982
1782117285.403856,0.881000,1731761,1000,12,0,1,745.674,8.063,10.189,331.966,0.554,2.982
1782117285.404856,0.882000,1731762,1000,12,0,1,742.215,2.879,10.193,332.710,1.397,2.982
1782117285.405856,0.883000,1731763,1000,12,0,1,739.621,-0.692,10.193,331.437,0.109,2.981
1782117285.406856,0.884000,1731764,1000,12,0,1,733.976,-5.699,10.223,333.431,1.514,2.981
1782117285.407856,0.885000,1731765,1000,12,0,1,735.609,-5.733,10.254,331.413,1.103,2.979
1782117285.408856,0.886000,1731766,1000,12,0,1,739.885,-0.742,10.238,330.044,-0.774,2.979
1782117285.409856,0.887000,1731767,1000,12,0,1,740.437,-1.049,10.187,332.086,2.093,2.944
1782117285.410856,0.888000,1731768,1000,12,0,1,735.753,-5.575,10.020,331.317,2.301,2.900
1782117285.411856,0.889000,1731769,1000,12,0,1,729.003,-12.365,10.108,331.990,2.564,2.915
1782117285.412856,0.890000,1731770,1000,12,0,1,717.690,-21.130,10.527,334.272,5.111,3.000
1782117285.413856,0.891000,1731771,1000,12,0,1,713.318,-24.683,11.064,332.806,3.796,3.038
1782117285.414856,0.892000,1731772,1000,12,0,1,719.011,-16.851,11.316,330.284,0.883,3.039
1782117285.415856,0.893000,1731773,1000,12,0,1,720.908,-11.955,11.441,332.254,1.815,3.038
1782117285.416856,0.894000,1731774,1000,12,0,1,721.677,-10.734,11.537,335.545,4.560,3.077
1782117285.417856,0.895000,1731775,1000,12,0,1,727.850,-4.133,11.488,332.182,1.185,3.054
1782117285.418856,0.896000,1731776,1000,12,0,1,727.850,-2.350,11.408,2.907,-241.051,34.224
1782117285.419856,0.897000,1731777,1000,12,0,1,754.417,16.277,11.608,326.513,-65.262,35.445
1782117285.420856,0.898000,1731778,1000,12,0,1,751.319,20.365,11.947,328.555,132.287,40.078
1782117285.421856,0.899000,1731779,1000,12,0,1,748.172,6.616,11.979,328.747,-19.572,40.173
1782117285.422856,0.900000,1731780,1000,12,0,1,745.962,8.337,12.036,328.074,73.242,41.486
1782117285.423856,0.901000,1731781,1000,12,0,1,747.019,4.381,12.037,327.834,6.599,41.496
1782117285.424856,0.902000,1731782,1000,12,0,1,746.346,5.752,12.042,327.642,33.665,41.769
1782117285.425856,0.903000,1731783,1000,12,0,1,744.905,2.760,11.948,327.114,18.914,41.853
1782117285.426856,0.904000,1731784,1000,12,0,1,743.992,1.959,11.819,326.633,11.195,41.881
1782117285.427856,0.905000,1731785,1000,12,0,1,741.662,0.520,11.795,326.225,21.626,41.991
1782117285.428856,0.906000,1731786,1000,12,0,1,738.612,-2.935,11.788,328.218,3.471,41.993
1782117285.429856,0.907000,1731787,1000,12,0,1,731.814,-6.952,11.792,327.186,21.418,42.102
1782117285.430856,0.908000,1731788,1000,12,0,1,723.455,-14.602,11.915,329.035,1.981,42.103
1782117285.431856,0.909000,1731789,1000,12,0,1,717.353,-17.204,12.117,332.566,21.891,42.216
1782117285.432856,0.910000,1731790,1000,12,0,1,722.254,-12.499,12.225,331.389,5.363,42.222
1782117285.433856,0.911000,1731791,1000,12,0,1,734.504,1.096,12.219,329.419,13.580,42.262
1782117285.434856,0.912000,1731792,1000,12,0,1,736.882,3.860,12.228,328.339,2.781,42.257
1782117285.435856,0.913000,1731793,1000,12,0,1,734.504,-0.080,12.214,332.158,10.659,42.283
1782117285.436856,0.914000,1731794,1000,12,0,1,733.447,-2.014,12.214,335.281,8.317,42.298
1782117285.437856,0.915000,1731795,1000,12,0,1,735.297,-1.398,12.190,335.833,8.627,42.315
1782117285.438856,0.916000,1731796,1000,12,0,1,740.677,2.695,12.112,333.311,2.898,42.315
1782117285.439856,0.917000,1731797,1000,12,0,1,737.435,0.437,11.805,334.031,0.472,42.309
1782117285.440856,0.918000,1731798,1000,12,0,1,737.963,-1.561,11.650,336.626,1.207,42.305
1782117285.441856,0.919000,1731799,1000,12,0,1,732.054,-4.006,11.612,336.770,-1.668,42.306
1782117285.442856,0.920000,1731800,1000,12,0,1,717.546,-16.505,11.471,339.676,-1.245,42.302
1782117285.443856,0.921000,1731801,1000,12,0,1,712.309,-19.055,11.093,340.133,-2.858,42.295
1782117285.444856,0.922000,1731802,1000,12,0,1,726.049,-3.862,10.271,335.953,-7.716,42.296
1782117285.445856,0.923000,1731803,1000,12,0,1,739.548,12.388,9.859,331.029,-13.440,42.323
1782117285.446856,0.924000,1731804,1000,12,0,1,740.557,13.975,9.909,325.240,-17.191,42.390
1782117285.447856,0.925000,1731805,1000,12,0,1,732.775,6.380,9.926,319.979,-20.518,42.489
1782117285.448856,0.926000,1731806,1000,12,0,1,726.097,-0.181,9.920,320.172,-17.477,42.560
1782117285.449856,0.927000,1731807,1000,12,0,1,724.776,-1.052,9.899,325.480,-9.761,42.582
1782117285.450856,0.928000,1731808,1000,12,0,1,727.370,2.073,9.806,327.882,-4.123,42.583
1782117285.451856,0.929000,1731809,1000,12,0,1,729.844,4.437,9.726,330.284,-0.876,42.582
1782117285.452856,0.930000,1731810,1000,12,0,1,733.591,6.856,9.679,330.741,1.678,42.582
1782117285.453856,0.931000,1731811,1000,12,0,1,739.380,10.368,9.723,329.347,0.939,42.582
1782117285.454856,0.932000,1731812,1000,12,0,1,735.921,6.565,9.759,330.717,2.565,42.583
1782117285.455856,0.933000,1731813,1000,12,0,1,730.421,-1.655,9.761,331.918,4.265,42.588
1782117285.456856,0.934000,1731814,1000,12,0,1,731.982,-1.484,9.730,331.749,3.605,42.590
1782117285.457856,0.935000,1731815,1000,12,0,1,733.687,-0.226,9.696,331.317,2.667,42.591
1782117285.458856,0.936000,1731816,1000,12,0,1,742.743,5.509,9.727,331.653,1.845,42.592
1782117285.459856,0.937000,1731817,1000,12,0,1,741.110,5.594,9.758,331.269,0.779,42.591
1782117285.460856,0.938000,1731818,1000,12,0,1,737.699,-1.152,9.728,331.437,-0.522,42.590
1782117285.461856,0.939000,1731819,1000,12,0,1,733.928,-3.098,9.579,332.542,-0.457,42.589
1782117285.462856,0.940000,1731820,1000,12,0,1,732.871,-4.922,9.128,331.317,-2.276,42.584
1782117285.463856,0.941000,1731821,1000,12,0,1,729.964,-5.004,8.463,332.038,-2.982,42.582
1782117285.464856,0.942000,1731822,1000,12,0,1,725.592,-7.897,8.197,329.564,-4.542,42.587
1782117285.465856,0.943000,1731823,1000,12,0,1,720.956,-9.541,8.134,329.756,-5.512,42.593
1782117285.466856,0.944000,1731824,1000,12,0,1,715.960,-11.204,8.147,332.854,-1.610,42.589
1782117285.467856,0.945000,1731825,1000,12,0,1,714.111,-10.447,8.259,337.731,2.597,42.590
1782117285.468856,0.946000,1731826,1000,12,0,1,710.099,-9.910,8.370,342.319,7.027,25.550
1782117285.469856,0.947000,1731827,1000,12,0,1,706.472,-11.279,8.204,354.953,16.109,23.934
1782117285.470856,0.948000,1731828,1000,12,0,1,724.295,4.833,7.712,353.272,16.064,15.099
1782117285.471856,0.949000,1731829,1000,12,0,1,741.614,22.937,8.314,351.735,9.464,14.904
1782117285.472856,0.950000,1731830,1000,12,0,1,752.664,28.382,9.157,352.071,10.042,10.809
1782117285.473856,0.951000,1731831,1000,12,0,1,748.220,21.934,9.648,354.617,9.454,10.852
1782117285.474856,0.952000,1731832,1000,12,0,1,732.414,2.350,9.619,351.038,6.386,9.793
1782117285.475856,0.953000,1731833,1000,12,0,1,723.599,-8.715,9.690,339.796,-5.048,9.448
1782117285.476856,0.954000,1731834,1000,12,0,1,733.904,-1.261,9.688,319.139,-22.166,9.828
1782117285.477856,0.955000,1731835,1000,12,0,1,745.866,10.192,9.794,308.714,-30.876,10.310
1782117285.478856,0.956000,1731836,1000,12,0,1,751.511,12.921,9.955,314.887,-21.392,10.734
1782117285.479856,0.957000,1731837,1000,12,0,1,750.262,9.567,9.998,322.381,-10.190,10.398
1782117285.480856,0.958000,1731838,1000,12,0,1,744.857,2.523,9.789,325.072,-6.368,10.433
1782117285.481856,0.959000,1731839,1000,12,0,1,740.773,-2.567,9.489,329.876,-1.735,9.966
1782117285.482856,0.960000,1731840,1000,12,0,1,741.134,-2.164,9.328,331.701,0.212,9.937
1782117285.483856,0.961000,1731841,1000,12,0,1,736.930,-4.393,9.347,333.863,0.856,9.751
1782117285.484856,0.962000,1731842,1000,12,0,1,729.988,-9.715,9.432,333.863,0.659,9.743
1782117285.485856,0.963000,1731843,1000,12,0,1,732.054,-7.050,9.484,332.278,-1.683,9.629
1782117285.486856,0.964000,1731844,1000,12,0,1,733.976,-2.084,9.484,333.719,-0.939,9.557
1782117285.487856,0.965000,1731845,1000,12,0,1,737.098,0.523,9.483,336.818,2.181,9.484
1782117285.488856,0.966000,1731846,1000,12,0,1,748.796,10.750,9.596,339.244,4.267,9.495
1782117285.489856,0.967000,1731847,1000,12,0,1,757.396,17.760,9.919,340.493,5.538,9.527
1782117285.490856,0.968000,1731848,1000,12,0,1,750.310,9.466,10.007,342.535,6.909,9.575
1782117285.491856,0.969000,1731849,1000,12,0,1,748.100,2.261,9.996,339.484,5.176,9.600
1782117285.492856,0.970000,1731850,1000,12,0,1,753.504,5.661,9.752,328.603,-3.994,9.615
1782117285.493856,0.971000,1731851,1000,12,0,1,752.544,3.008,9.382,322.309,-9.010,9.691
1782117285.494856,0.972000,1731852,1000,12,0,1,746.298,-5.063,9.394,326.153,-3.428,9.641
1782117285.495856,0.973000,1731853,1000,12,0,1,744.136,-8.831,9.313,323.799,-1.862,9.456
1782117285.496856,0.974000,1731854,1000,12,0,1,748.580,-5.638,9.136,317.818,-6.606,9.186
1782117285.497856,0.975000,1731855,1000,12,0,1,748.989,-4.455,9.113,315.007,-7.256,8.775
1782117285.498856,0.976000,1731856,1000,12,0,1,745.698,-8.202,9.186,318.946,-2.893,8.430
1782117285.499856,0.977000,1731857,1000,12,0,1,743.872,-9.247,9.278,326.057,4.527,8.341
1782117285.500856,0.978000,1731858,1000,12,0,1,742.959,-8.953,9.359,328.627,6.678,8.374
1782117285.501856,0.979000,1731859,1000,12,0,1,743.344,-7.155,9.393,332.422,7.540,8.441
1782117285.502856,0.980000,1731860,1000,12,0,1,744.232,-4.645,9.366,333.263,7.355,8.501
1782117285.503856,0.981000,1731861,1000,12,0,1,741.614,-4.983,9.277,333.887,4.682,8.526
1782117285.504856,0.982000,1731862,1000,12,0,1,736.858,-7.674,9.294,336.506,5.437,8.553
1782117285.505856,0.983000,1731863,1000,12,0,1,737.867,-5.515,9.324,332.182,0.664,8.532
1782117285.506856,0.984000,1731864,1000,12,0,1,746.082,3.368,9.334,327.786,-5.090,8.547
1782117285.507856,0.985000,1731865,1000,12,0,1,748.028,6.833,9.383,319.811,-10.445,8.666
1782117285.508856,0.986000,1731866,1000,12,0,1,745.530,3.430,9.364,312.917,-15.884,8.948
1782117285.509856,0.987000,1731867,1000,12,0,1,736.498,-3.882,9.346,317.073,-9.652,9.051
1782117285.510856,0.988000,1731868,1000,12,0,1,736.666,-5.872,9.382,319.931,-2.837,9.060
1782117285.511856,0.989000,1731869,1000,12,0,1,746.995,4.371,9.392,320.484,-0.719,9.060
1782117285.512856,0.990000,1731870,1000,12,0,1,750.454,7.510,9.426,321.949,2.778,9.063
1782117285.513856,0.991000,1731871,1000,12,0,1,747.836,2.958,9.409,324.015,5.742,9.089
1782117285.514856,0.992000,1731872,1000,12,0,1,748.148,1.312,9.344,326.393,8.672,9.149
1782117285.515856,0.993000,1731873,1000,12,0,1,747.187,-0.246,9.246,329.588,11.225,9.253
1782117285.516856,0.994000,1731874,1000,12,0,1,746.587,-2.047,9.114,336.145,15.669,9.512
1782117285.517856,0.995000,1731875,1000,12,0,1,748.052,-1.161,8.995,341.045,18.474,9.857
1782117285.518856,0.996000,1731876,1000,12,0,1,750.862,1.069,8.886,349.573,21.572,10.271
1782117285.519856,0.997000,1731877,1000,12,0,1,751.078,1.391,8.744,355.098,23.400,10.548
1782117285.520856,0.998000,1731878,1000,12,0,1,750.045,0.160,8.717,358.220,20.046,10.683
1782117285.521856,0.999000,1731879,1000,12,0,1,745.578,-2.955,8.102,358.845,15.952,10.836
1782117285.522856,1.000000,1731880,1000,12,0,1,742.575,-5.335,7.078,358.677,10.285,10.841
1782117285.523856,1.001000,1731881,1000,12,0,1,738.323,-6.751,6.434,355.434,3.830,10.772
1782117285.524856,1.002000,1731882,1000,12,0,1,733.327,-9.512,6.565,347.147,-6.370,10.771
1782117285.525856,1.003000,1731883,1000,12,0,1,734.816,-6.403,6.511,335.761,-17.609,11.033
1782117285.526856,1.004000,1731884,1000,12,0,1,743.368,3.113,6.523,321.709,-28.496,11.319
1782117285.527856,1.005000,1731885,1000,12,0,1,752.544,11.989,6.584,309.218,-36.481,11.648
1782117285.528856,1.006000,1731886,1000,12,0,1,744.833,6.270,6.388,308.546,-32.426,12.147
1782117285.529856,1.007000,1731887,1000,12,0,1,730.589,-8.816,6.366,306.576,-26.487,12.630
1782117285.530856,1.008000,1731888,1000,12,0,1,728.643,-10.621,6.531,305.759,-22.695,13.000
1782117285.531856,1.009000,1731889,1000,12,0,1,736.330,-2.505,6.530,308.666,-14.323,13.155
1782117285.532856,1.010000,1731890,1000,12,0,1,734.432,-2.007,6.529,309.290,-9.124,13.218
1782117285.533856,1.011000,1731891,1000,12,0,1,735.153,-3.516,6.519,311.908,-4.134,13.230
1782117285.534856,1.012000,1731892,1000,12,0,1,739.260,1.224,6.375,312.245,-0.434,13.230
1782117285.535856,1.013000,1731893,1000,12,0,1,746.034,5.723,6.348,313.926,1.486,13.229
1782117285.536856,1.014000,1731894,1000,12,0,1,751.487,10.107,6.500,312.053,2.067,13.232
1782117285.537856,1.015000,1731895,1000,12,0,1,752.640,9.274,6.631,314.262,2.725,13.234
1782117285.538856,1.016000,1731896,1000,12,0,1,751.174,6.145,6.513,316.424,6.070,13.248
1782117285.539856,1.017000,1731897,1000,12,0,1,753.240,6.220,6.073,318.466,6.339,13.255
1782117285.540856,1.018000,1731898,1000,12,0,1,746.755,1.269,5.926,318.562,6.320,13.249
1782117285.541856,1.019000,1731899,1000,12,0,1,739.068,-6.766,5.994,320.268,6.028,13.257
1782117285.542856,1.020000,1731900,1000,12,0,1,738.660,-5.849,5.998,320.484,5.988,13.272
1782117285.543856,1.021000,1731901,1000,12,0,1,749.733,4.676,6.019,319.931,4.312,13.224
1782117285.544856,1.022000,1731902,1000,12,0,1,759.486,14.984,6.341,316.833,1.621,13.217
1782117285.545856,1.023000,1731903,1000,12,0,1,753.024,9.305,6.355,318.010,1.912,13.218
1782117285.546856,1.024000,1731904,1000,12,0,1,742.935,-2.119,6.312,319.091,4.130,13.197
1782117285.547856,1.025000,1731905,1000,12,0,1,751.799,4.027,6.306,317.745,3.242,13.166
1782117285.548856,1.026000,1731906,1000,12,0,1,755.210,9.370,6.338,319.091,4.500,13.175
1782117285.549856,1.027000,1731907,1000,12,0,1,754.970,5.601,6.252,318.058,5.082,13.179
1782117285.550856,1.028000,1731908,1000,12,0,1,751.631,2.328,6.132,317.986,4.439,13.160
1782117285.551856,1.029000,1731909,1000,12,0,1,752.279,-0.311,6.048,317.649,5.400,13.139
1782117285.552856,1.030000,1731910,1000,12,0,1,749.901,-2.077,6.019,318.778,5.658,13.122
1782117285.553856,1.031000,1731911,1000,12,0,1,747.908,-6.104,6.040,319.211,6.594,13.138
1782117285.554856,1.032000,1731912,1000,12,0,1,743.440,-9.452,6.090,319.691,5.821,13.142
1782117285.555856,1.033000,1731913,1000,12,0,1,739.140,-13.652,6.341,320.628,5.991,13.168
1782117285.556856,1.034000,1731914,1000,12,0,1,733.928,-16.566,6.743,320.652,4.768,13.166
1782117285.557856,1.035000,1731915,1000,12,0,1,732.847,-16.175,7.055,324.639,6.138,13.112
1782117285.558856,1.036000,1731916,1000,12,0,1,736.138,-10.781,7.201,325.792,6.433,12.950
1782117285.559856,1.037000,1731917,1000,12,0,1,733.279,-9.784,7.312,328.795,5.647,12.902
1782117285.560856,1.038000,1731918,1000,12,0,1,722.037,-17.415,7.671,330.861,6.375,12.928
1782117285.561856,1.039000,1731919,1000,12,0,1,714.471,-21.023,8.204,330.068,2.928,12.934
1782117285.562856,1.040000,1731920,1000,12,0,1,723.238,-10.202,8.262,330.452,1.377,12.929
1782117285.563856,1.041000,1731921,1000,12,0,1,752.496,18.206,8.643,323.655,-4.730,12.921
1782117285.564856,1.042000,1731922,1000,12,0,1,774.523,39.490,10.289,316.232,-12.559,12.985
1782117285.565856,1.043000,1731923,1000,12,0,1,772.217,33.961,11.355,315.007,-12.213,13.003
1782117285.566856,1.044000,1731924,1000,12,0,1,762.080,18.812,11.659,317.818,-7.942,12.862
1782117285.567856,1.045000,1731925,1000,12,0,1,763.569,15.280,11.856,317.601,-5.486,12.617
1782117285.568856,1.046000,1731926,1000,12,0,1,763.689,14.045,12.020,315.536,-6.068,12.273
1782117285.569856,1.047000,1731927,1000,12,0,1,762.152,8.815,12.083,315.752,-4.210,11.833
1782117285.570856,1.048000,1731928,1000,12,0,1,764.122,8.160,12.138,315.848,-2.216,11.493
1782117285.571856,1.049000,1731929,1000,12,0,1,767.124,8.419,12.189,314.022,-2.466,11.275
1782117285.572856,1.050000,1731930,1000,12,0,1,766.115,5.428,12.190,317.145,0.633,11.181
1782117285.573856,1.051000,1731931,1000,12,0,1,763.137,0.268,12.153,321.541,5.625,11.196
1782117285.574856,1.052000,1731932,1000,12,0,1,760.518,-3.716,12.090,320.292,4.502,11.178
1782117285.575856,1.053000,1731933,1000,12,0,1,759.438,-5.658,12.082,321.757,3.959,10.911
1782117285.576856,1.054000,1731934,1000,12,0,1,759.077,-6.399,12.108,320.772,3.347,10.151
1782117285.577856,1.055000,1731935,1000,12,0,1,756.939,-8.040,12.042,321.180,1.362,8.744
1782117285.578856,1.056000,1731936,1000,12,0,1,756.507,-8.723,12.073,320.340,0.728,7.446
1782117285.579856,1.057000,1731937,1000,12,0,1,756.075,-7.936,12.061,324.063,1.600,6.439
1782117285.580856,1.058000,1731938,1000,12,0,1,753.480,-9.554,12.043,324.087,2.280,5.592
1782117285.581856,1.059000,1731939,1000,12,0,1,747.715,-13.055,12.178,325.648,1.015,5.214
1782117285.582856,1.060000,1731940,1000,12,0,1,746.611,-13.236,12.318,326.153,1.796,5.058
1782117285.583856,1.061000,1731941,1000,12,0,1,749.877,-7.827,12.358,321.925,-2.716,5.039
1782117285.584856,1.062000,1731942,1000,12,0,1,752.135,-4.095,12.370,319.883,-5.032,5.089
1782117285.585856,1.063000,1731943,1000,12,0,1,751.391,-3.495,12.354,319.619,-3.978,5.115
1782117285.586856,1.064000,1731944,1000,12,0,1,748.172,-5.388,12.294,317.890,-4.586,5.148
1782117285.587856,1.065000,1731945,1000,12,0,1,738.900,-11.756,12.337,318.418,-2.978,5.151
1782117285.588856,1.066000,1731946,1000,12,0,1,733.087,-15.939,12.511,323.582,2.360,5.090
1782117285.589856,1.067000,1731947,1000,12,0,1,735.057,-11.352,12.583,324.063,4.615,5.053
1782117285.590856,1.068000,1731948,1000,12,0,1,741.398,-3.328,12.590,322.213,2.205,4.983
1782117285.591856,1.069000,1731949,1000,12,0,1,746.779,3.139,12.561,321.709,2.209,4.919
1782117285.592856,1.070000,1731950,1000,12,0,1,749.181,5.591,12.559,320.412,1.107,4.848
1782117285.593856,1.071000,1731951,1000,12,0,1,743.344,0.913,12.542,322.069,2.062,4.819
1782117285.594856,1.072000,1731952,1000,12,0,1,743.896,-0.431,12.362,322.646,2.907,4.831
1782117285.595856,1.073000,1731953,1000,12,0,1,761.479,14.453,12.461,320.748,0.314,4.823
1782117285.596856,1.074000,1731954,1000,12,0,1,767.052,20.788,12.799,321.276,-0.141,4.788
1782117285.597856,1.075000,1731955,1000,12,0,1,758.549,9.307,12.854,322.237,0.330,4.766
1782117285.598856,1.076000,1731956,1000,12,0,1,751.535,1.071,12.787,324.015,0.780,4.725
1782117285.599856,1.077000,1731957,1000,12,0,1,761.047,6.871,12.799,323.342,-0.138,4.670
1782117285.600856,1.078000,1731958,1000,12,0,1,764.001,11.740,12.902,323.222,-1.670,4.633
1782117285.601856,1.079000,1731959,1000,12,0,1,760.711,5.559,12.926,326.417,0.611,4.571
1782117285.602856,1.080000,1731960,1000,12,0,1,760.927,4.937,12.941,324.231,-0.932,4.502
1782117285.603856,1.081000,1731961,1000,12,0,1,760.783,4.206,12.926,324.087,-2.602,4.420
1782117285.604856,1.082000,1731962,1000,12,0,1,757.276,0.575,12.857,323.126,-2.071,4.352
1782117285.605856,1.083000,1731963,1000,12,0,1,758.405,0.542,12.712,317.625,-6.612,4.370
1782117285.606856,1.084000,1731964,1000,12,0,1,760.206,2.470,12.499,312.389,-9.995,4.543
1782117285.607856,1.085000,1731965,1000,12,0,1,764.626,5.113,12.309,309.482,-10.472,4.699
1782117285.608856,1.086000,1731966,1000,12,0,1,764.842,5.200,12.236,308.882,-8.519,4.765
1782117285.609856,1.087000,1731967,1000,12,0,1,762.128,0.911,12.159,312.437,-3.193,4.719
1782117285.610856,1.088000,1731968,1000,12,0,1,760.999,-1.277,11.908,311.068,-1.495,4.637
1782117285.611856,1.089000,1731969,1000,12,0,1,756.243,-5.357,11.556,314.935,1.469,4.623
1782117285.612856,1.090000,1731970,1000,12,0,1,754.513,-8.259,11.525,318.995,7.104,4.727
1782117285.613856,1.091000,1731971,1000,12,0,1,751.751,-8.963,11.305,322.478,8.835,4.844
1782117285.614856,1.092000,1731972,1000,12,0,1,749.133,-11.513,9.963,325.072,10.522,4.746
1782117285.615856,1.093000,1731973,1000,12,0,1,753.192,-6.946,8.784,322.886,7.111,4.533
1782117285.616856,1.094000,1731974,1000,12,0,1,764.001,2.907,8.381,319.811,2.308,4.404
1782117285.617856,1.095000,1731975,1000,12,0,1,769.983,8.835,8.194,313.998,-3.084,4.357
1782117285.618856,1.096000,1731976,1000,12,0,1,756.219,-3.107,7.961,315.512,-3.798,4.305
1782117285.619856,1.097000,1731977,1000,12,0,1,736.690,-21.657,8.438,322.790,3.487,4.292
1782117285.620856,1.098000,1731978,1000,12,0,1,732.606,-23.545,8.998,328.074,7.194,4.400
1782117285.621856,1.099000,1731979,1000,12,0,1,741.422,-11.583,9.068,324.351,3.618,4.416
1782117285.622856,1.100000,1731980,1000,12,0,1,758.405,5.867,9.074,319.067,-3.091,4.437
1782117285.623856,1.101000,1731981,1000,12,0,1,770.199,18.048,9.426,314.623,-6.364,4.456
1782117285.624856,1.102000,1731982,1000,12,0,1,773.490,18.859,9.782,312.197,-7.942,4.551
1782117285.625856,1.103000,1731983,1000,12,0,1,772.096,15.137,9.981,307.176,-9.893,4.729
1782117285.626856,1.104000,1731984,1000,12,0,1,776.084,14.874,10.160,307.849,-8.419,4.853
1782117285.627856,1.105000,1731985,1000,12,0,1,779.687,16.382,10.359,308.762,-4.131,4.884
1782117285.628856,1.106000,1731986,1000,12,0,1,778.654,12.264,10.430,305.615,-5.162,4.938
1782117285.629856,1.107000,1731987,1000,12,0,1,776.829,7.675,10.426,306.216,-3.492,4.957
1782117285.630856,1.108000,1731988,1000,12,0,1,775.940,4.621,10.359,308.161,0.478,4.947
1782117285.631856,1.109000,1731989,1000,12,0,1,774.090,1.289,10.195,309.338,2.068,4.954
1782117285.632856,1.110000,1731990,1000,12,0,1,766.163,-6.147,10.059,314.310,6.539,5.033
1782117285.633856,1.111000,1731991,1000,12,0,1,756.771,-15.188,10.226,320.172,11.312,5.267
1782117285.634856,1.112000,1731992,1000,12,0,1,759.702,-12.475,10.361,320.051,10.323,5.419
1782117285.635856,1.113000,1731993,1000,12,0,1,769.766,-1.679,10.352,318.130,6.085,5.458
1782117285.636856,1.114000,1731994,1000,12,0,1,774.450,3.210,10.334,316.232,3.187,5.438
1782117285.637856,1.115000,1731995,1000,12,0,1,774.258,1.917,10.203,316.304,1.556,5.426
1782117285.638856,1.116000,1731996,1000,12,0,1,770.775,-1.817,9.954,319.979,3.812,5.443
1782117285.639856,1.117000,1731997,1000,12,0,1,770.415,-3.498,9.836,321.901,4.869,5.447
1782117285.640856,1.118000,1731998,1000,12,0,1,778.822,3.234,9.835,322.862,4.095,5.469
1782117285.641856,1.119000,1731999,1000,12,0,1,781.729,6.363,9.867,325.456,5.212,5.509
1782117285.642856,1.120000,1732000,1000,12,0,1,780.288,2.705,9.842,328.315,6.593,5.586
1782117285.643856,1.121000,1732001,1000,12,0,1,774.619,-2.539,9.848,337.923,12.702,5.860
1782117285.644856,1.122000,1732002,1000,12,0,1,770.511,-7.553,9.906,344.048,17.410,6.343
1782117285.645856,1.123000,1732003,1000,12,0,1,770.535,-6.721,9.739,346.714,15.940,6.732
1782117285.646856,1.124000,1732004,1000,12,0,1,767.701,-7.847,9.351,349.573,15.617,7.085
1782117285.647856,1.125000,1732005,1000,12,0,1,757.516,-15.186,9.503,352.239,14.633,7.380
1782117285.648856,1.126000,1732006,1000,12,0,1,755.834,-16.155,9.773,353.800,12.938,7.603
1782117285.649856,1.127000,1732007,1000,12,0,1,762.080,-7.335,9.780,347.843,5.553,7.644
1782117285.650856,1.128000,1732008,1000,12,0,1,769.839,1.081,9.639,335.665,-7.550,7.714
1782117285.651856,1.129000,1732009,1000,12,0,1,777.165,7.960,9.673,313.998,-25.484,8.514
1782117285.652856,1.130000,1732010,1000,12,0,1,772.337,4.404,9.667,302.348,-35.728,9.900
1782117285.653856,1.131000,1732011,1000,12,0,1,754.705,-11.901,9.795,309.578,-24.725,10.492
1782117285.654856,1.132000,1732012,1000,12,0,1,738.371,-25.398,10.432,318.730,-11.964,10.624
1782117285.655856,1.133000,1732013,1000,12,0,1,751.607,-13.446,10.604,312.101,-14.191,10.771
1782117285.656856,1.134000,1732014,1000,12,0,1,770.055,8.980,10.674,301.796,-22.758,11.153
1782117285.657856,1.135000,1732015,1000,12,0,1,788.094,22.331,11.108,296.679,-24.189,11.571
1782117285.658856,1.136000,1732016,1000,12,0,1,800.801,32.317,11.989,294.926,-22.144,11.927
1782117285.659856,1.137000,1732017,1000,12,0,1,793.547,21.875,12.381,301.964,-13.338,12.067
1782117285.660856,1.138000,1732018,1000,12,0,1,768.349,-4.131,12.393,319.979,4.786,12.084
1782117285.661856,1.139000,1732019,1000,12,0,1,757.444,-17.364,12.612,337.130,20.570,12.427
1782117285.662856,1.140000,1732020,1000,12,0,1,767.725,-6.435,12.590,344.769,25.250,12.891
1782117285.663856,1.141000,1732021,1000,12,0,1,773.177,1.864,12.529,346.666,22.640,13.224
1782117285.664856,1.142000,1732022,1000,12,0,1,768.565,-2.392,12.427,344.432,17.286,13.365
1782117285.665856,1.143000,1732023,1000,12,0,1,752.063,-14.573,12.559,336.169,7.309,13.367
1782117285.666856,1.144000,1732024,1000,12,0,1,751.823,-16.377,12.764,317.553,-9.260,13.427
1782117285.667856,1.145000,1732025,1000,12,0,1,762.800,-1.350,12.704,297.088,-26.407,13.930
1782117285.668856,1.146000,1732026,1000,12,0,1,767.196,3.876,12.708,288.344,-30.116,14.557
1782117285.669856,1.147000,1732027,1000,12,0,1,767.797,4.605,12.351,284.789,-25.961,15.005
1782117285.670856,1.148000,1732028,1000,12,0,1,765.467,2.509,11.899,285.750,-19.418,15.220
1782117285.671856,1.149000,1732029,1000,12,0,1,767.533,2.881,11.793,289.497,-9.959,15.276
1782117285.672856,1.150000,1732030,1000,12,0,1,764.602,1.704,11.766,298.409,1.048,15.271
1782117285.673856,1.151000,1732031,1000,12,0,1,762.008,-2.636,11.492,311.788,14.960,15.390
1782117285.674856,1.152000,1732032,1000,12,0,1,764.770,0.384,11.178,324.375,25.355,15.763
1782117285.675856,1.153000,1732033,1000,12,0,1,768.541,3.322,10.981,335.785,31.866,16.334
1782117285.676856,1.154000,1732034,1000,12,0,1,769.526,4.026,10.793,342.847,33.323,16.959
1782117285.677856,1.155000,1732035,1000,12,0,1,767.653,1.482,10.543,352.984,34.507,17.637
1782117285.678856,1.156000,1732036,1000,12,0,1,771.760,3.510,10.412,365.547,38.777,18.456
1782117285.679856,1.157000,1732037,1000,12,0,1,778.582,9.474,10.441,367.036,32.854,19.025
1782117285.680856,1.158000,1732038,1000,12,0,1,784.563,12.875,10.579,359.301,17.900,19.193
1782117285.681856,1.159000,1732039,1000,12,0,1,793.667,18.322,10.890,341.358,-2.513,19.194
1782117285.682856,1.160000,1732040,1000,12,0,1,805.797,25.619,11.444,315.896,-27.228,19.554
1782117285.683856,1.161000,1732041,1000,12,0,1,823.525,35.886,12.333,304.774,-36.728,20.169
1782117285.684856,1.162000,1732042,1000,12,0,1,810.674,23.180,12.639,302.829,-31.990,20.619
1782117285.685856,1.163000,1732043,1000,12,0,1,781.657,-10.280,12.720,304.006,-25.765,20.921
1782117285.686856,1.164000,1732044,1000,12,0,1,769.742,-22.374,13.100,302.252,-20.647,21.118
1782117285.687856,1.165000,1732045,1000,12,0,1,769.214,-20.014,13.399,305.159,-14.539,21.217
1782117285.688856,1.166000,1732046,1000,12,0,1,766.500,-18.920,13.661,312.845,-3.062,21.215
1782117285.689856,1.167000,1732047,1000,12,0,1,759.774,-21.595,13.990,323.366,8.009,21.234
1782117285.690856,1.168000,1732048,1000,12,0,1,767.124,-14.270,14.127,321.252,8.467,21.260
1782117285.691856,1.169000,1732049,1000,12,0,1,785.596,5.218,14.118,308.930,-3.615,21.253
1782117285.692856,1.170000,1732050,1000,12,0,1,784.731,6.392,14.141,301.075,-10.817,21.288
1782117285.693856,1.171000,1732051,1000,12,0,1,773.730,-6.237,14.164,297.520,-12.051,21.280
1782117285.694856,1.172000,1732052,1000,12,0,1,767.220,-12.331,14.231,290.386,-16.091,21.259
1782117285.695856,1.173000,1732053,1000,12,0,1,772.841,-7.826,14.243,281.066,-21.893,21.365
1782117285.696856,1.174000,1732054,1000,12,0,1,771.952,-5.569,14.221,277.751,-22.386,21.485
1782117285.697856,1.175000,1732055,1000,12,0,1,763.929,-13.217,14.182,282.867,-14.208,21.479
1782117285.698856,1.176000,1732056,1000,12,0,1,763.353,-13.063,14.118,288.825,-5.610,21.416
1782117285.699856,1.177000,1732057,1000,12,0,1,771.808,-3.936,14.091,290.314,-1.986,21.403
1782117285.700856,1.178000,1732058,1000,12,0,1,771.616,-1.379,14.091,290.626,-0.702,21.377
1782117285.701856,1.179000,1732059,1000,12,0,1,767.653,-5.182,14.065,290.386,0.790,21.071
1782117285.702856,1.180000,1732060,1000,12,0,1,764.962,-5.926,14.077,291.875,3.103,20.461
1782117285.703856,1.181000,1732061,1000,12,0,1,765.082,-4.394,13.989,294.830,7.377,20.187
1782117285.704856,1.182000,1732062,1000,12,0,1,764.122,-2.829,13.526,294.205,8.379,20.151
1782117285.705856,1.183000,1732063,1000,12,0,1,763.761,-1.657,13.394,292.716,7.724,20.081
1782117285.706856,1.184000,1732064,1000,12,0,1,769.694,4.571,13.349,293.701,9.682,19.868
1782117285.707856,1.185000,1732065,1000,12,0,1,775.988,11.719,13.076,295.190,12.033,19.645
1782117285.708856,1.186000,1732066,1000,12,0,1,774.859,10.622,12.343,295.911,13.148,19.483
1782117285.709856,1.187000,1732067,1000,12,0,1,771.352,6.440,11.984,295.262,12.626,19.474
1782117285.710856,1.188000,1732068,1000,12,0,1,765.707,1.338,11.971,295.815,12.373,19.540
1782117285.711856,1.189000,1732069,1000,12,0,1,762.080,-2.369,11.721,298.577,13.923,19.423
1782117285.712856,1.190000,1732070,1000,12,0,1,758.381,-4.497,11.703,306.456,18.647,19.273
1782117285.713856,1.191000,1732071,1000,12,0,1,757.204,-5.362,11.724,310.827,20.775,19.231
1782117285.714856,1.192000,1732072,1000,12,0,1,769.406,4.893,11.740,307.296,13.958,19.177
1782117285.715856,1.193000,1732073,1000,12,0,1,777.693,13.714,11.719,303.381,6.550,19.171
1782117285.716856,1.194000,1732074,1000,12,0,1,777.645,10.726,11.588,301.556,2.357,19.129
1782117285.717856,1.195000,1732075,1000,12,0,1,775.051,6.442,11.622,303.093,1.249,18.762
1782117285.718856,1.196000,1732076,1000,12,0,1,772.217,1.814,11.612,304.438,1.225,18.273
1782117285.719856,1.197000,1732077,1000,12,0,1,770.127,-0.951,11.594,307.008,1.295,17.901
1782117285.720856,1.198000,1732078,1000,12,0,1,769.670,-1.827,11.592,307.441,0.992,17.690
1782117285.721856,1.199000,1732079,1000,12,0,1,769.238,-1.932,11.588,311.020,1.868,17.636
1782117285.722856,1.200000,1732080,1000,12,0,1,766.692,-3.491,11.596,310.852,2.131,17.638
1782117285.723856,1.201000,1732081,1000,12,0,1,762.248,-6.544,11.627,312.221,1.190,17.511
1782117285.724856,1.202000,1732082,1000,12,0,1,759.606,-7.538,11.676,316.809,5.309,17.157
1782117285.725856,1.203000,1732083,1000,12,0,1,761.912,-3.944,11.679,318.226,6.160,16.577
1782117285.726856,1.204000,1732084,1000,12,0,1,769.118,3.918,11.679,317.625,4.571,15.906
1782117285.727856,1.205000,1732085,1000,12,0,1,772.817,8.434,11.738,315.199,2.236,15.142
1782117285.728856,1.206000,1732086,1000,12,0,1,763.401,0.826,11.728,321.108,5.437,14.135
1782117285.729856,1.207000,1732087,1000,12,0,1,759.774,-4.427,11.668,320.700,6.787,13.385
1782117285.730856,1.208000,1732088,1000,12,0,1,762.080,-0.369,11.525,320.148,2.865,13.149
1782117285.731856,1.209000,1732089,1000,12,0,1,762.584,0.324,11.230,318.346,1.771,13.147
1782117285.732856,1.210000,1732090,1000,12,0,1,761.287,-0.507,10.630,317.914,-1.140,12.571
1782117285.733856,1.211000,1732091,1000,12,0,1,758.741,-2.771,9.348,315.632,-3.051,11.456
1782117285.734856,1.212000,1732092,1000,12,0,1,759.510,-2.547,8.762,313.878,-6.379,10.564
1782117285.735856,1.213000,1732093,1000,12,0,1,760.591,-0.867,8.641,316.544,-4.869,9.939
1782117285.736856,1.214000,1732094,1000,12,0,1,758.693,-2.709,8.050,315.151,-5.878,9.537
1782117285.737856,1.215000,1732095,1000,12,0,1,756.627,-4.475,7.563,315.776,-7.530,9.373
1782117285.738856,1.216000,1732096,1000,12,0,1,757.516,-3.596,7.092,321.204,-2.785,9.372
1782117285.739856,1.217000,1732097,1000,12,0,1,753.216,-5.575,6.449,327.138,1.137,9.304
1782117285.740856,1.218000,1732098,1000,12,0,1,748.100,-9.910,6.283,326.753,0.422,9.227
1782117285.741856,1.219000,1732099,1000,12,0,1,742.983,-11.711,6.456,326.873,-1.982,9.217
1782117285.742856,1.220000,1732100,1000,12,0,1,740.798,-11.687,6.603,327.378,-1.462,9.092
1782117285.743856,1.221000,1732101,1000,12,0,1,742.455,-6.976,6.617,326.465,-2.931,8.940
1782117285.744856,1.222000,1732102,1000,12,0,1,743.128,-3.330,6.401,325.624,-3.442,8.659
1782117285.745856,1.223000,1732103,1000,12,0,1,750.718,4.226,6.333,321.180,-6.192,8.134
1782117285.746856,1.224000,1732104,1000,12,0,1,753.865,10.037,6.442,320.172,-6.917,7.556
1782117285.747856,1.225000,1732105,1000,12,0,1,758.909,12.462,6.412,317.505,-6.325,7.339
1782117285.748856,1.226000,1732106,1000,12,0,1,765.635,18.707,6.685,308.329,-12.631,7.512
1782117285.749856,1.227000,1732107,1000,12,0,1,762.873,14.844,6.985,306.792,-12.644,7.716
1782117285.750856,1.228000,1732108,1000,12,0,1,756.891,6.998,7.052,311.092,-5.473,7.754
1782117285.751856,1.229000,1732109,1000,12,0,1,753.817,3.069,7.027,315.223,-0.181,7.754
1782117285.752856,1.230000,1732110,1000,12,0,1,764.530,9.995,7.119,314.527,0.536,7.742
1782117285.753856,1.231000,1732111,1000,12,0,1,771.544,17.053,7.491,311.740,-2.359,7.678
1782117285.754856,1.232000,1732112,1000,12,0,1,768.493,10.770,7.633,312.197,-2.196,7.593
1782117285.755856,1.233000,1732113,1000,12,0,1,765.755,5.588,7.671,314.503,-0.202,7.514
1782117285.756856,1.234000,1732114,1000,12,0,1,770.055,6.637,7.701,315.127,-0.059,7.388
1782117285.757856,1.235000,1732115,1000,12,0,1,771.856,7.464,7.594,313.566,-2.098,7.195
1782117285.758856,1.236000,1732116,1000,12,0,1,767.292,1.417,7.447,314.022,-2.717,6.962
1782117285.759856,1.237000,1732117,1000,12,0,1,765.611,-2.102,7.397,315.295,-1.515,6.732
1782117285.760856,1.238000,1732118,1000,12,0,1,762.560,-4.229,7.418,316.833,-0.628,6.501
1782117285.761856,1.239000,1732119,1000,12,0,1,761.936,-5.845,7.457,318.130,0.643,6.197
1782117285.762856,1.240000,1732120,1000,12,0,1,762.873,-3.667,7.448,319.211,1.460,5.611
1782117285.763856,1.241000,1732121,1000,12,0,1,761.239,-4.714,7.439,316.496,-0.139,4.781
1782117285.764856,1.242000,1732122,1000,12,0,1,758.477,-6.351,7.461,317.169,0.035,4.354
1782117285.765856,1.243000,1732123,1000,12,0,1,755.979,-7.607,7.284,318.250,2.775,4.273
1782117285.766856,1.244000,1732124,1000,12,0,1,757.924,-5.160,7.162,317.697,2.746,4.277
1782117285.767856,1.245000,1732125,1000,12,0,1,757.564,-3.419,7.120,320.027,5.216,4.337
1782117285.768856,1.246000,1732126,1000,12,0,1,757.011,-3.989,7.138,317.457,4.489,4.380
1782117285.769856,1.247000,1732127,1000,12,0,1,758.549,-1.689,7.141,317.553,3.361,4.401
1782117285.770856,1.248000,1732128,1000,12,0,1,757.324,-2.146,7.142,318.370,5.402,4.465
1782117285.771856,1.249000,1732129,1000,12,0,1,758.957,-1.323,7.140,317.577,3.853,4.490
1782117285.772856,1.250000,1732130,1000,12,0,1,760.350,0.676,7.123,318.586,4.208,4.520
1782117285.773856,1.251000,1732131,1000,12,0,1,761.047,0.437,7.063,320.556,5.026,4.572
1782117285.774856,1.252000,1732132,1000,12,0,1,763.065,1.867,6.987,320.148,3.594,4.539
1782117285.775856,1.253000,1732133,1000,12,0,1,762.488,1.073,6.966,319.787,1.446,4.459
1782117285.776856,1.254000,1732134,1000,12,0,1,761.912,-0.429,6.945,323.462,2.802,4.430
1782117285.777856,1.255000,1732135,1000,12,0,1,764.794,1.633,6.845,322.670,1.568,4.424
1782117285.778856,1.256000,1732136,1000,12,0,1,763.785,1.147,6.846,321.493,-2.098,4.367
1782117285.779856,1.257000,1732137,1000,12,0,1,761.840,-1.497,6.821,321.493,-2.537,4.275
1782117285.780856,1.258000,1732138,1000,12,0,1,759.558,-2.846,6.833,320.868,-3.948,4.292
1782117285.781856,1.259000,1732139,1000,12,0,1,757.876,-4.082,6.857,320.892,-4.050,4.323
1782117285.782856,1.260000,1732140,1000,12,0,1,756.291,-4.213,6.882,321.877,-2.999,4.341
1782117285.783856,1.261000,1732141,1000,12,0,1,754.705,-4.538,6.901,323.534,-1.140,4.322
1782117285.784856,1.262000,1732142,1000,12,0,1,755.931,-2.485,6.901,322.141,-1.333,4.231
1782117285.785856,1.263000,1732143,1000,12,0,1,758.429,1.041,6.901,322.910,-0.814,4.176
1782117285.786856,1.264000,1732144,1000,12,0,1,757.444,1.035,6.892,323.174,1.068,4.096
1782117285.787856,1.265000,1732145,1000,12,0,1,758.213,1.366,6.866,320.676,-0.648,3.956
1782117285.788856,1.266000,1732146,1000,12,0,1,757.588,1.655,6.851,320.244,-0.458,3.937
1782117285.789856,1.267000,1732147,1000,12,0,1,758.164,1.347,6.808,321.613,1.645,3.940
1782117285.790856,1.268000,1732148,1000,12,0,1,758.885,2.298,6.670,325.168,4.778,3.997
1782117285.791856,1.269000,1732149,1000,12,0,1,759.029,1.730,6.466,325.504,5.478,4.062
1782117285.792856,1.270000,1732150,1000,12,0,1,759.774,1.844,6.256,326.561,4.604,4.109
1782117285.793856,1.271000,1732151,1000,12,0,1,761.023,2.335,6.187,327.714,5.025,4.149
1782117285.794856,1.272000,1732152,1000,12,0,1,757.564,-0.792,6.170,328.843,4.017,4.159
1782117285.795856,1.273000,1732153,1000,12,0,1,753.793,-4.964,6.181,329.948,3.495,4.096
1782117285.796856,1.274000,1732154,1000,12,0,1,757.756,-1.792,6.021,327.426,-0.180,3.978
1782117285.797856,1.275000,1732155,1000,12,0,1,760.759,2.191,5.766,327.882,-2.143,3.888
1782117285.798856,1.276000,1732156,1000,12,0,1,759.534,0.616,5.123,332.038,0.747,3.454
1782117285.799856,1.277000,1732157,1000,12,0,1,755.018,-2.909,4.692,330.236,-1.338,2.962
1782117285.800856,1.278000,1732158,1000,12,0,1,754.153,-4.061,4.622,328.747,-4.435,2.927
1782117285.801856,1.279000,1732159,1000,12,0,1,754.153,-2.286,4.613,331.509,-2.171,2.943
1782117285.802856,1.280000,1732160,1000,12,0,1,754.201,-1.750,4.398,331.557,-1.652,2.951
1782117285.803856,1.281000,1732161,1000,12,0,1,754.201,-0.549,3.679,331.557,-2.153,2.948
1782117285.804856,1.282000,1732162,1000,12,0,1,748.436,-4.144,3.399,329.059,-3.163,2.965
1782117285.805856,1.283000,1732163,1000,12,0,1,747.619,-5.144,3.385,328.891,-3.525,3.007
1782117285.806856,1.284000,1732164,1000,12,0,1,743.872,-5.144,3.333,331.341,0.133,3.007
1782117285.807856,1.285000,1732165,1000,12,0,1,737.867,-9.979,3.462,331.101,0.833,2.995
1782117285.808856,1.286000,1732166,1000,12,0,1,741.854,-5.096,3.531,330.909,0.793,2.972
1782117285.809856,1.287000,1732167,1000,12,0,1,755.883,8.389,3.713,327.282,-1.228,2.969
1782117285.810856,1.288000,1732168,1000,12,0,1,755.042,9.858,3.921,327.114,-2.140,2.983
1782117285.811856,1.289000,1732169,1000,12,0,1,755.402,5.949,3.924,329.948,1.460,2.989
1782117285.812856,1.290000,1732170,1000,12,0,1,764.890,13.723,4.347,327.666,-0.331,2.982
1782117285.813856,1.291000,1732171,1000,12,0,1,763.329,11.685,4.602,325.264,-3.334,3.019
1782117285.814856,1.292000,1732172,1000,12,0,1,760.879,5.396,4.578,327.210,-1.925,3.032
1782117285.815856,1.293000,1732173,1000,12,0,1,756.027,1.270,4.453,330.597,0.748,3.008
1782117285.816856,1.294000,1732174,1000,12,0,1,751.895,-4.553,4.440,330.188,0.006,2.983
1782117285.817856,1.295000,1732175,1000,12,0,1,752.592,-3.157,4.436,329.636,-2.037,2.904
1782117285.818856,1.296000,1732176,1000,12,0,1,750.574,-3.996,4.436,327.738,-3.790,2.884
1782117285.819856,1.297000,1732177,1000,12,0,1,751.823,-2.968,4.449,329.636,-3.413,2.886
1782117285.820856,1.298000,1732178,1000,12,0,1,752.183,-0.768,4.440,332.278,-0.390,2.783
1782117285.821856,1.299000,1732179,1000,12,0,1,749.877,-2.506,4.451,332.927,-0.270,2.730
1782117285.822856,1.300000,1732180,1000,12,0,1,743.416,-6.445,4.542,332.710,-0.459,2.665
1782117285.823856,1.301000,1732181,1000,12,0,1,737.579,-10.746,4.789,331.509,-1.260,2.574
1782117285.824856,1.302000,1732182,1000,12,0,1,746.899,-1.806,4.789,330.693,-1.654,2.535
1782117285.825856,1.303000,1732183,1000,12,0,1,757.924,10.736,5.021,327.354,-3.133,2.565
1782117285.826856,1.304000,1732184,1000,12,0,1,755.498,8.503,5.163,328.795,-1.873,2.548
1782117285.827856,1.305000,1732185,1000,12,0,1,754.826,5.203,5.210,327.402,-0.303,2.539
1782117285.828856,1.306000,1732186,1000,12,0,1,755.474,5.704,5.270,327.954,-0.323,2.522
1782117285.829856,1.307000,1732187,1000,12,0,1,751.799,1.314,5.269,326.705,0.855,2.499
1782117285.830856,1.308000,1732188,1000,12,0,1,749.229,-2.030,5.261,326.825,0.327,2.436
1782117285.831856,1.309000,1732189,1000,12,0,1,747.932,-3.151,5.248,330.356,4.116,2.438
1782117285.832856,1.310000,1732190,1000,12,0,1,743.536,-6.553,5.296,333.263,6.377,2.565
1782117285.833856,1.311000,1732191,1000,12,0,1,735.561,-12.647,5.553,332.927,5.134,2.661
1782117285.834856,1.312000,1732192,1000,12,0,1,730.060,-16.242,5.999,337.659,6.958,2.831
1782117285.835856,1.313000,1732193,1000,12,0,1,733.231,-11.305,6.207,335.160,4.722,2.906
1782117285.836856,1.314000,1732194,1000,12,0,1,733.735,-7.093,6.285,337.899,2.956,2.932
1782117285.837856,1.315000,1732195,1000,12,0,1,740.173,-1.308,6.285,339.844,4.907,3.012
1782117285.838856,1.316000,1732196,1000,12,0,1,756.891,14.603,6.612,333.407,-2.675,3.035
1782117285.839856,1.317000,1732197,1000,12,0,1,768.782,24.901,7.489,329.780,-7.558,3.209
1782117285.840856,1.318000,1732198,1000,12,0,1,764.770,19.217,7.960,330.332,-6.393,3.265
1782117285.841856,1.319000,1732199,1000,12,0,1,757.060,8.386,8.044,330.548,-5.725,3.273
1782117285.842856,1.320000,1732200,1000,12,0,1,756.963,6.088,8.086,329.540,-5.402,3.298
1782117285.843856,1.321000,1732201,1000,12,0,1,761.551,9.269,8.185,328.507,-5.614,3.316
1782117285.844856,1.322000,1732202,1000,12,0,1,758.309,6.169,8.230,328.795,-3.855,3.313
1782117285.845856,1.323000,1732203,1000,12,0,1,753.312,-0.267,8.200,329.371,-2.092,3.289
1782117285.846856,1.324000,1732204,1000,12,0,1,749.205,-3.732,8.213,334.080,2.734,3.311
1782117285.847856,1.325000,1732205,1000,12,0,1,744.569,-7.496,8.276,336.458,6.182,3.411
1782117285.848856,1.326000,1732206,1000,12,0,1,748.652,-4.173,8.296,331.701,2.118,3.423
1782117285.849856,1.327000,1732207,1000,12,0,1,759.365,6.243,8.333,329.299,-0.794,3.420
1782117285.850856,1.328000,1732208,1000,12,0,1,762.368,8.890,8.408,328.699,-0.343,3.362
1782117285.851856,1.329000,1732209,1000,12,0,1,765.082,8.247,8.482,328.170,-0.814,3.350
1782117285.852856,1.330000,1732210,1000,12,0,1,769.046,10.074,8.597,326.513,-1.708,3.350
1782117285.853856,1.331000,1732211,1000,12,0,1,768.061,6.987,8.654,327.858,-1.158,3.341
1782117285.854856,1.332000,1732212,1000,12,0,1,766.668,2.878,8.643,330.068,1.168,3.315
1782117285.855856,1.333000,1732213,1000,12,0,1,760.855,-2.944,8.623,332.302,2.211,3.292
1782117285.856856,1.334000,1732214,1000,12,0,1,753.625,-10.785,8.726,335.040,3.730,3.334
1782117285.857856,1.335000,1732215,1000,12,0,1,751.030,-12.524,8.792,334.944,2.766,3.355
1782117285.858856,1.336000,1732216,1000,12,0,1,751.271,-10.906,8.897,331.365,-1.559,3.360
1782117285.859856,1.337000,1732217,1000,12,0,1,748.508,-11.179,8.958,333.455,-1.194,3.360
1782117285.860856,1.338000,1732218,1000,12,0,1,752.688,-7.231,8.908,332.758,-0.747,3.348
1782117285.861856,1.339000,1732219,1000,12,0,1,764.410,4.744,8.893,326.729,-6.393,3.461
1782117285.862856,1.340000,1732220,1000,12,0,1,770.439,10.718,8.810,326.705,-6.442,3.579
1782117285.863856,1.341000,1732221,1000,12,0,1,769.839,8.533,8.738,327.738,-3.263,3.578
1782117285.864856,1.342000,1732222,1000,12,0,1,768.157,5.416,8.738,326.705,-3.269,3.597
1782117285.865856,1.343000,1732223,1000,12,0,1,765.371,1.848,8.740,328.987,-0.261,3.596
1782117285.866856,1.344000,1732224,1000,12,0,1,762.152,-1.734,8.720,327.858,0.624,3.597
