Unix_Time_s,IMU1_RefTime,ax_g,ay_g,az_g,gx_dps,gy_dps,gz_dps,mx_uT,my_uT,mz_uT,temp_C,qw,qx,qy,qz
1782117284.522856,1783951,0.906738,-0.020996,-0.420410,0.182927,-0.182927,-0.548781,16.587500,-37.362499,2.337500,0.0,1.000000,0.000000,0.000000,0.000000
1782117284.530856,1783959,0.906738,-0.020996,-0.420410,0.182927,-0.182927,-0.548781,16.781250,-37.087502,2.112500,0.0,1.000000,0.000000,0.000000,0.000000
1782117284.540856,1783969,0.908203,-0.022949,-0.418945,0.243902,-0.243902,-0.670732,16.781250,-37.087502,2.112500,0.0,1.000000,0.000000,0.000000,0.000000
1782117284.551856,1783980,0.910645,-0.023438,-0.419922,0.243902,-0.243902,-0.670732,16.625000,-37.293751,2.256250,0.0,1.000000,0.000000,0.000000,0.000000
1782117284.561856,1783990,0.910645,-0.020996,-0.419922,0.365854,-0.060976,-0.609756,16.625000,-37.293751,2.256250,0.0,1.000000,0.000000,0.000000,0.000000
1782117284.570856,1783999,0.907227,-0.021484,-0.420410,0.426829,0.000000,-0.609756,16.675001,-37.231251,2.212500,0.0,1.000000,0.000000,0.000000,0.000000
1782117284.581856,1784010,0.907715,-0.020508,-0.418457,0.548781,-0.121951,-0.487805,16.675001,-37.231251,2.212500,0.0,1.000000,0.000000,0.000000,0.000000
1782117284.590856,1784019,0.907227,-0.019531,-0.418457,0.609756,-0.243902,-0.426829,16.787500,-37.081249,2.118750,0.0,1.000000,0.000000,0.000000,0.000000
1782117284.602856,1784031,0.907715,-0.019043,-0.418457,0.609756,-0.121951,-0.365854,16.787500,-37.081249,2.118750,0.0,1.000000,0.000000,0.000000,0.000000
1782117284.610856,1784039,0.907227,-0.016113,-0.419434,0.548781,0.000000,-0.365854,16.675001,-37.256252,2.193750,0.0,1.000000,0.000000,0.000000,0.000000
1782117284.620856,1784049,0.904785,-0.015625,-0.420410,0.426829,-0.060976,-0.426829,16.675001,-37.256252,2.193750,0.0,1.000000,0.000000,0.000000,0.000000
1782117284.630856,1784059,0.903809,-0.015137,-0.422363,0.182927,-0.121951,-0.487805,16.631250,-37.306252,2.287500,0.0,1.000000,0.000000,0.000000,0.000000
1782117284.642856,1784071,0.902832,-0.016602,-0.425293,0.000000,-0.121951,-0.548781,16.631250,-37.306252,2.287500,0.0,1.000000,0.000000,0.000000,0.000000
1782117284.650856,1784079,0.902344,-0.019043,-0.426758,-0.060976,-0.243902,-0.548781,16.631250,-37.325001,2.293750,0.0,1.000000,0.000000,0.000000,0.000000
1782117284.660856,1784089,0.905273,-0.019531,-0.426758,-0.060976,-0.365854,-0.609756,16.631250,-37.325001,2.293750,0.0,1.000000,0.000000,0.000000,0.000000
1782117284.670856,1784099,0.906250,-0.020996,-0.426758,-0.060976,-0.243902,-0.548781,16.662500,-37.262501,2.187500,0.0,1.000000,0.000000,0.000000,0.000000
1782117284.683856,1784112,0.904297,-0.019531,-0.424805,0.243902,-0.243902,-0.487805,16.662500,-37.262501,2.187500,0.0,1.000000,0.000000,0.000000,0.000000
1782117284.690856,1784119,0.904297,-0.019531,-0.424805,0.243902,-0.243902,-0.487805,16.693750,-37.218750,2.256250,0.0,1.000000,0.000000,0.000000,0.000000
1782117284.701856,1784130,0.904785,-0.019043,-0.423340,0.365854,-0.365854,-0.487805,16.693750,-37.218750,2.256250,0.0,1.000000,0.000000,0.000000,0.000000
1782117284.710856,1784139,0.906250,-0.020020,-0.421875,0.304878,-0.304878,-0.487805,16.643751,-37.293751,2.193750,0.0,1.000000,0.000000,0.000000,0.000000
1782117284.721856,1784150,0.906250,-0.020020,-0.421875,0.304878,-0.304878,-0.487805,16.643751,-37.293751,2.193750,0.0,1.000000,0.000000,0.000000,0.000000
1782117284.731856,1784160,0.907715,-0.019531,-0.423340,0.365854,-0.182927,-0.487805,16.700001,-37.187500,2.200000,0.0,1.000000,0.000000,0.000000,0.000000
1782117284.740856,1784169,0.906250,-0.018555,-0.423340,0.426829,-0.060976,-0.426829,16.700001,-37.187500,2.200000,0.0,1.000000,0.000000,0.000000,0.000000
1782117284.750856,1784179,0.905762,-0.017578,-0.423340,0.487805,0.000000,-0.487805,16.618750,-37.293751,2.237500,0.0,1.000000,0.000000,0.000000,0.000000
1782117284.763856,1784192,0.904297,-0.017090,-0.422363,0.426829,0.060976,-0.426829,16.618750,-37.293751,2.237500,0.0,1.000000,0.000000,0.000000,0.000000
1782117284.770856,1784199,0.904785,-0.017090,-0.420898,0.304878,0.000000,-0.487805,16.675001,-37.225002,2.262500,0.0,1.000000,0.000000,0.000000,0.000000
1782117284.780856,1784209,0.904785,-0.019531,-0.420410,0.304878,0.000000,-0.487805,16.675001,-37.225002,2.262500,0.0,1.000000,0.000000,0.000000,0.000000
1782117284.790856,1784219,0.907227,-0.021484,-0.420898,0.304878,0.000000,-0.426829,16.743750,-37.125000,2.187500,0.0,1.000000,0.000000,0.000000,0.000000
1782117284.800856,1784229,0.909668,-0.020508,-0.420410,0.243902,0.060976,-0.426829,16.743750,-37.125000,2.187500,0.0,1.000000,0.000000,0.000000,0.000000
1782117284.810856,1784239,0.908691,-0.020508,-0.420410,0.121951,0.121951,-0.304878,16.656250,-37.200001,2.200000,0.0,1.000000,0.000000,0.000000,0.000000
1782117284.820856,1784249,0.904785,-0.019043,-0.421387,0.000000,0.304878,-0.304878,16.656250,-37.200001,2.200000,0.0,1.000000,0.000000,0.000000,0.000000
1782117284.830856,1784259,0.904785,-0.018555,-0.421387,0.060976,0.182927,-0.304878,16.618750,-37.256252,2.181250,0.0,1.000000,0.000000,0.000000,0.000000
1782117284.844856,1784273,0.907715,-0.019043,-0.421875,0.121951,0.000000,-0.426829,16.618750,-37.256252,2.181250,0.0,1.000000,0.000000,0.000000,0.000000
1782117284.851856,1784280,0.909180,-0.019531,-0.423828,0.243902,0.243902,-0.426829,16.668751,-37.218750,2.287500,0.0,1.000000,0.000000,0.000000,0.000000
1782117284.860856,1784289,0.906738,-0.020020,-0.422363,0.243902,0.304878,-0.365854,16.668751,-37.218750,2.287500,0.0,1.000000,0.000000,0.000000,0.000000
1782117284.871856,1784300,0.904785,-0.020508,-0.421875,0.060976,0.243902,-0.304878,16.662500,-37.200001,2.250000,0.0,1.000000,0.000000,0.000000,0.000000
1782117284.880856,1784309,0.904785,-0.020020,-0.421875,-0.060976,0.060976,-0.365854,16.662500,-37.200001,2.250000,0.0,1.000000,0.000000,0.000000,0.000000
1782117284.891856,1784320,0.905273,-0.019531,-0.423828,-0.121951,0.000000,-0.426829,16.650000,-37.231251,2.225000,0.0,1.000000,0.000000,0.000000,0.000000
1782117284.901856,1784330,0.904297,-0.021484,-0.424316,0.000000,0.000000,-0.487805,16.650000,-37.231251,2.225000,0.0,1.000000,0.000000,0.000000,0.000000
1782117284.910856,1784339,0.905273,-0.020508,-0.422363,0.182927,-0.060976,-0.548781,16.687500,-37.206249,2.212500,0.0,1.000000,0.000000,0.000000,0.000000
1782117284.921856,1784350,0.907227,-0.020996,-0.421875,0.304878,-0.060976,-0.548781,16.687500,-37.206249,2.212500,0.0,1.000000,0.000000,0.000000,0.000000
1782117284.930856,1784359,0.908203,-0.019531,-0.421387,0.365854,0.000000,-0.548781,16.643751,-37.231251,2.256250,0.0,1.000000,0.000000,0.000000,0.000000
1782117284.940856,1784369,0.908691,-0.019531,-0.420898,0.365854,0.243902,-0.548781,16.643751,-37.231251,2.256250,0.0,1.000000,0.000000,0.000000,0.000000
1782117284.950856,1784379,0.908203,-0.019531,-0.420898,0.426829,0.304878,-0.487805,16.706251,-37.256252,2.225000,0.0,1.000000,0.000000,0.000000,0.000000
1782117284.960856,1784389,0.908203,-0.020020,-0.419434,0.426829,0.304878,-0.487805,16.706251,-37.256252,2.225000,0.0,1.000000,0.000000,0.000000,0.000000
1782117284.970856,1784399,0.906738,-0.020020,-0.418457,0.365854,0.304878,-0.426829,16.656250,-37.231251,2.212500,0.0,1.000000,0.000000,0.000000,0.000000
1782117284.980856,1784409,0.905762,-0.020020,-0.417480,0.304878,0.182927,-0.426829,16.656250,-37.231251,2.212500,0.0,1.000000,0.000000,0.000000,0.000000
1782117284.990856,1784419,0.907227,-0.020996,-0.418457,0.304878,0.121951,-0.548781,16.643751,-37.262501,2.231250,0.0,1.000000,0.000000,0.000000,0.000000
1782117285.000856,1784429,0.907715,-0.019531,-0.419922,0.182927,0.243902,-0.548781,16.643751,-37.262501,2.231250,0.0,1.000000,0.000000,0.000000,0.000000
1782117285.010856,1784439,0.907715,-0.018555,-0.419922,0.121951,0.304878,-0.487805,16.662500,-37.125000,2.187500,0.0,1.000000,0.000000,0.000000,0.000000
1782117285.021856,1784450,0.908203,-0.019043,-0.421387,0.121951,0.243902,-0.548781,16.662500,-37.125000,2.187500,0.0,1.000000,0.000000,0.000000,0.000000
1782117285.030856,1784459,0.907715,-0.019531,-0.420410,0.121951,0.182927,-0.487805,16.600000,-37.218750,2.225000,0.0,1.000000,0.000000,0.000000,0.000000
1782117285.040856,1784469,0.908203,-0.018066,-0.418945,0.121951,0.182927,-0.487805,16.600000,-37.218750,2.225000,0.0,1.000000,0.000000,0.000000,0.000000
1782117285.050856,1784479,0.909180,-0.019043,-0.420410,0.121951,0.304878,-0.426829,16.706251,-37.143749,2.225000,0.0,1.000000,0.000000,0.000000,0.000000
1782117285.060856,1784489,0.907715,-0.018066,-0.420410,0.121951,0.426829,-0.487805,16.706251,-37.143749,2.225000,0.0,1.000000,0.000000,0.000000,0.000000
1782117285.070856,1784499,0.907715,-0.019531,-0.420898,0.060976,0.426829,-0.487805,16.587500,-37.243752,2.256250,0.0,1.000000,0.000000,0.000000,0.000000
1782117285.080856,1784509,0.907227,-0.019531,-0.419434,0.000000,0.426829,-0.487805,16.587500,-37.243752,2.256250,0.0,1.000000,0.000000,0.000000,0.000000
1782117285.091856,1784520,0.907227,-0.020508,-0.420410,0.121951,0.426829,-0.487805,16.668751,-37.168751,2.212500,0.0,1.000000,0.000000,0.000000,0.000000
1782117285.101856,1784530,0.907227,-0.023438,-0.420410,0.182927,0.365854,-0.487805,16.668751,-37.168751,2.212500,0.0,1.000000,0.000000,0.000000,0.000000
1782117285.111856,1784540,0.907715,-0.022949,-0.420898,0.121951,0.365854,-0.487805,16.656250,-37.187500,2.275000,0.0,1.000000,0.000000,0.000000,0.000000
1782117285.120856,1784549,0.909180,-0.021484,-0.419434,0.121951,0.426829,-0.548781,16.656250,-37.187500,2.275000,0.0,1.000000,0.000000,0.000000,0.000000
1782117285.130856,1784559,0.908691,-0.020508,-0.418457,0.182927,0.548781,-0.548781,16.700001,-37.174999,2.293750,0.0,1.000000,0.000000,0.000000,0.000000
1782117285.140856,1784569,0.907715,-0.019043,-0.418457,0.182927,0.609756,-0.548781,16.700001,-37.174999,2.293750,0.0,1.000000,0.000000,0.000000,0.000000
1782117285.150856,1784579,0.907715,-0.018555,-0.418457,0.243902,0.609756,-0.609756,16.637501,-37.137501,2.262500,0.0,1.000000,0.000000,0.000000,0.000000
1782117285.161856,1784590,0.906250,-0.018066,-0.417480,0.304878,0.548781,-0.609756,16.637501,-37.137501,2.262500,0.0,1.000000,0.000000,0.000000,0.000000
1782117285.170856,1784599,0.907715,-0.018555,-0.418945,0.426829,0.426829,-0.548781,16.606251,-37.168751,2.312500,0.0,1.000000,0.000000,0.000000,0.000000
1782117285.180856,1784609,0.907227,-0.017578,-0.418457,0.365854,0.365854,-0.548781,16.606251,-37.168751,2.312500,0.0,1.000000,0.000000,0.000000,0.000000
1782117285.190856,1784619,0.907227,-0.017090,-0.418457,0.243902,0.365854,-0.548781,16.625000,-37.218750,2.225000,0.0,1.000000,0.000000,0.000000,0.000000
1782117285.200856,1784629,0.907227,-0.019531,-0.418945,0.243902,0.365854,-0.548781,16.625000,-37.218750,2.225000,0.0,1.000000,0.000000,0.000000,0.000000
1782117285.213856,1784642,0.907715,-0.020020,-0.417969,0.121951,0.304878,-0.487805,16.650000,-37.200001,2.381250,0.0,1.000000,0.000000,0.000000,0.000000
1782117285.220856,1784649,0.907227,-0.020508,-0.417969,0.121951,0.243902,-0.487805,16.650000,-37.200001,2.381250,0.0,1.000000,0.000000,0.000000,0.000000
1782117285.230856,1784659,0.909180,-0.022461,-0.417480,0.060976,0.243902,-0.548781,16.650000,-37.150002,2.350000,0.0,1.000000,0.000000,0.000000,0.000000
1782117285.240856,1784669,0.909668,-0.021484,-0.416992,0.060976,0.304878,-0.609756,16.650000,-37.150002,2.350000,0.0,1.000000,0.000000,0.000000,0.000000
1782117285.250856,1784679,0.910156,-0.020020,-0.416992,0.000000,0.365854,-0.548781,16.650000,-37.231251,2.362500,0.0,1.000000,0.000000,0.000000,0.000000
1782117285.260856,1784689,0.910645,-0.019043,-0.416016,0.000000,0.487805,-0.548781,16.650000,-37.231251,2.362500,0.0,1.000000,0.000000,0.000000,0.000000
1782117285.271856,1784700,0.910156,-0.016602,-0.415527,0.121951,0.548781,-0.487805,16.675001,-37.156250,2.331250,0.0,1.000000,0.000000,0.000000,0.000000
1782117285.280856,1784709,0.909180,-0.016602,-0.417480,0.060976,0.548781,-0.426829,16.675001,-37.156250,2.331250,0.0,1.000000,0.000000,0.000000,0.000000
1782117285.290856,1784719,0.907715,-0.016602,-0.416992,0.000000,0.548781,-0.365854,16.587500,-37.143749,2.312500,0.0,1.000000,0.000000,0.000000,0.000000
1782117285.301856,1784730,0.907715,-0.015625,-0.416504,-0.060976,0.426829,-0.365854,16.587500,-37.143749,2.312500,0.0,1.000000,0.000000,0.000000,0.000000
1782117285.310856,1784739,0.908691,-0.017578,-0.415527,-0.243902,0.304878,-0.304878,16.631250,-37.237499,2.400000,0.0,1.000000,0.000000,0.000000,0.000000
1782117285.320856,1784749,0.909668,-0.019043,-0.415527,-0.304878,0.304878,-0.304878,16.631250,-37.237499,2.400000,0.0,1.000000,0.000000,0.000000,0.000000
1782117285.330856,1784759,0.910156,-0.020020,-0.415527,-0.487805,0.426829,-0.243902,16.643751,-37.150002,2.368750,0.0,1.000000,0.000000,0.000000,0.000000
1782117285.340856,1784769,0.909668,-0.020508,-0.415039,-0.487805,0.426829,-0.243902,16.643751,-37.150002,2.368750,0.0,1.000000,0.000000,0.000000,0.000000
1782117285.350856,1784779,0.909180,-0.020508,-0.414551,-0.426829,0.487805,-0.243902,16.612501,-37.181252,2.375000,0.0,1.000000,0.000000,0.000000,0.000000
1782117285.360856,1784789,0.909668,-0.020996,-0.414551,-0.365854,0.426829,-0.304878,16.612501,-37.181252,2.375000,0.0,1.000000,0.000000,0.000000,0.000000
1782117285.372856,1784801,0.911621,-0.020020,-0.414551,-0.304878,0.365854,-0.243902,16.612501,-37.187500,2.381250,0.0,1.000000,0.000000,0.000000,0.000000
1782117285.380856,1784809,0.910156,-0.018555,-0.413086,-0.304878,0.487805,-0.243902,16.612501,-37.187500,2.381250,0.0,1.000000,0.000000,0.000000,0.000000
1782117285.390856,1784819,0.909180,-0.017578,-0.413574,-0.365854,0.426829,-0.304878,16.625000,-37.100002,2.381250,0.0,1.000000,0.000000,0.000000,0.000000
1782117285.400856,1784829,0.908691,-0.018066,-0.414551,-0.487805,0.365854,-0.304878,16.625000,-37.100002,2.381250,0.0,1.000000,0.000000,0.000000,0.000000
1782117285.410856,1784839,0.909180,-0.017578,-0.414062,-0.548781,0.426829,-0.304878,16.568750,-37.218750,2.437500,0.0,1.000000,0.000000,0.000000,0.000000
1782117285.420856,1784849,0.909180,-0.017090,-0.414062,-0.609756,0.304878,-0.182927,16.568750,-37.218750,2.437500,0.0,1.000000,0.000000,0.000000,0.000000
1782117285.431856,1784860,0.910156,-0.018555,-0.414062,-0.609756,0.243902,-0.182927,16.575001,-37.243752,2.481250,0.0,1.000000,0.000000,0.000000,0.000000
1782117285.442856,1784871,0.909668,-0.019531,-0.414551,-0.731707,0.243902,-0.121951,16.575001,-37.243752,2.481250,0.0,1.000000,0.000000,0.000000,0.000000
1782117285.451856,1784880,0.910156,-0.020508,-0.415039,-0.731707,0.243902,-0.121951,16.543751,-37.218750,2.437500,0.0,1.000000,0.000000,0.000000,0.000000
1782117285.460856,1784889,0.909668,-0.020508,-0.415039,-0.792683,0.182927,-0.060976,16.543751,-37.218750,2.437500,0.0,1.000000,0.000000,0.000000,0.000000
1782117285.471856,1784900,0.907715,-0.020996,-0.414551,-0.731707,0.060976,-0.121951,16.593750,-37.143749,2.437500,0.0,1.000000,0.000000,0.000000,0.000000
1782117285.480856,1784909,0.908691,-0.020508,-0.415527,-0.731707,0.000000,-0.182927,16.593750,-37.143749,2.437500,0.0,1.000000,0.000000,0.000000,0.000000
1782117285.490856,1784919,0.909180,-0.019531,-0.415039,-0.731707,0.000000,-0.243902,16.606251,-37.218750,2.537500,0.0,1.000000,0.000000,0.000000,0.000000
1782117285.501856,1784930,0.909668,-0.019531,-0.415527,-0.731707,-0.060976,-0.304878,16.606251,-37.218750,2.537500,0.0,1.000000,0.000000,0.000000,0.000000
1782117285.511856,1784940,0.909668,-0.019531,-0.416504,-0.609756,0.000000,-0.304878,16.581251,-37.162502,2.456250,0.0,1.000000,0.000000,0.000000,0.000000
1782117285.520856,1784949,0.908203,-0.019043,-0.415039,-0.487805,0.000000,-0.243902,16.581251,-37.162502,2.456250,0.0,1.000000,0.000000,0.000000,0.000000
1782117285.531856,1784960,0.907715,-0.019531,-0.414062,-0.426829,-0.060976,-0.182927,16.575001,-37.256252,2.512500,0.0,1.000000,0.000000,0.000000,0.000000
1782117285.540856,1784969,0.909180,-0.020020,-0.415527,-0.365854,0.000000,-0.243902,16.575001,-37.256252,2.512500,0.0,1.000000,0.000000,0.000000,0.000000
1782117285.551856,1784980,0.910156,-0.020508,-0.416504,-0.182927,0.000000,-0.182927,16.618750,-37.106251,2.437500,0.0,1.000000,0.000000,0.000000,0.000000
1782117285.560856,1784989,0.910156,-0.020020,-0.414062,-0.182927,-0.121951,-0.243902,16.618750,-37.106251,2.437500,0.0,1.000000,0.000000,0.000000,0.000000
1782117285.571856,1785000,0.910156,-0.019531,-0.415527,-0.182927,-0.060976,-0.304878,16.562500,-37.231251,2.512500,0.0,1.000000,0.000000,0.000000,0.000000
1782117285.580856,1785009,0.911133,-0.020020,-0.415039,-0.121951,0.060976,-0.426829,16.562500,-37.231251,2.512500,0.0,1.000000,0.000000,0.000000,0.000000
1782117285.590856,1785019,0.909668,-0.020020,-0.415039,0.000000,0.121951,-0.426829,16.568750,-37.212502,2.518750,0.0,1.000000,0.000000,0.000000,0.000000
1782117285.600856,1785029,0.908691,-0.022461,-0.416016,0.060976,0.060976,-0.487805,16.568750,-37.212502,2.518750,0.0,1.000000,0.000000,0.000000,0.000000
1782117285.611856,1785040,0.909180,-0.017090,-0.419434,0.731707,-0.060976,-0.670732,16.518751,-37.237499,2.531250,0.0,1.000000,0.000000,0.000000,0.000000
1782117285.620856,1785049,0.909180,-0.017090,-0.419434,0.731707,-0.060976,-0.670732,16.518751,-37.237499,2.531250,0.0,1.000000,0.000000,0.000000,0.000000
1782117285.630856,1785059,0.910645,-0.012207,-0.416992,0.548781,-0.060976,-0.609756,16.606251,-37.156250,2.512500,0.0,1.000000,0.000000,0.000000,0.000000
1782117285.640856,1785069,0.902344,-0.013184,-0.416016,0.000000,0.121951,-0.487805,16.606251,-37.156250,2.512500,0.0,1.000000,0.000000,0.000000,0.000000
1782117285.651856,1785080,0.903320,-0.019531,-0.418457,0.182927,-0.487805,-0.426829,16.525000,-37.293751,2.525000,0.0,1.000000,0.000000,0.000000,0.000000
1782117285.661856,1785090,0.906250,-0.021973,-0.418945,0.121951,-0.670732,-0.426829,16.525000,-37.293751,2.525000,0.0,1.000000,0.000000,0.000000,0.000000
1782117285.670856,1785099,0.907715,-0.020508,-0.419434,0.000000,-0.487805,-0.487805,16.568750,-37.174999,2.500000,0.0,1.000000,0.000000,0.000000,0.000000
1782117285.681856,1785110,0.909668,-0.020996,-0.417969,-0.121951,-0.304878,-0.365854,16.568750,-37.174999,2.500000,0.0,1.000000,0.000000,0.000000,0.000000
1782117285.691856,1785120,0.911621,-0.019531,-0.415527,-0.365854,-0.182927,-0.243902,16.575001,-37.200001,2.550000,0.0,1.000000,0.000000,0.000000,0.000000
1782117285.701856,1785130,0.912109,-0.016113,-0.414551,-0.731707,-0.060976,-0.182927,16.575001,-37.200001,2.550000,0.0,1.000000,0.000000,0.000000,0.000000
1782117285.711856,1785140,0.910156,-0.018555,-0.415527,-0.853659,0.000000,-0.182927,16.606251,-37.174999,2.456250,0.0,1.000000,0.000000,0.000000,0.000000
1782117285.720856,1785149,0.909180,-0.020020,-0.415039,-0.853659,-0.060976,-0.121951,16.606251,-37.174999,2.456250,0.0,1.000000,0.000000,0.000000,0.000000
1782117285.730856,1785159,0.910156,-0.019043,-0.415039,-0.914634,-0.121951,-0.121951,16.593750,-37.243752,2.525000,0.0,1.000000,0.000000,0.000000,0.000000
1782117285.740856,1785169,0.911621,-0.019043,-0.415039,-0.914634,0.000000,-0.182927,16.593750,-37.243752,2.525000,0.0,1.000000,0.000000,0.000000,0.000000
1782117285.750856,1785179,0.912109,-0.019043,-0.414551,-0.914634,0.182927,-0.121951,16.562500,-37.206249,2.481250,0.0,1.000000,0.000000,0.000000,0.000000
1782117285.760856,1785189,0.913086,-0.018555,-0.412109,-0.853659,0.304878,-0.121951,16.562500,-37.206249,2.481250,0.0,1.000000,0.000000,0.000000,0.000000
1782117285.770856,1785199,0.913574,-0.019043,-0.411621,-0.792683,0.365854,-0.060976,16.537500,-37.268749,2.612500,0.0,1.000000,0.000000,0.000000,0.000000
1782117285.780856,1785209,0.913574,-0.018066,-0.412598,-0.792683,0.487805,-0.121951,16.537500,-37.268749,2.612500,0.0,1.000000,0.000000,0.000000,0.000000
1782117285.790856,1785219,0.912109,-0.018066,-0.412109,-0.853659,0.548781,-0.121951,16.575001,-37.112499,2.518750,0.0,1.000000,0.000000,0.000000,0.000000
1782117285.800856,1785229,0.910156,-0.018555,-0.413086,-0.975610,0.487805,0.000000,16.575001,-37.112499,2.518750,0.0,1.000000,0.000000,0.000000,0.000000
1782117285.810856,1785239,0.910156,-0.018066,-0.413086,-1.097561,0.365854,0.000000,16.556250,-37.250000,2.575000,0.0,1.000000,0.000000,0.000000,0.000000
1782117285.820856,1785249,0.910645,-0.016602,-0.413086,-1.219512,0.365854,0.000000,16.556250,-37.250000,2.575000,0.0,1.000000,0.000000,0.000000,0.000000
1782117285.830856,1785259,0.910645,-0.018066,-0.412598,-1.219512,0.548781,0.000000,16.637501,-37.125000,2.456250,0.0,1.000000,0.000000,0.000000,0.000000
1782117285.840856,1785269,0.908203,-0.017578,-0.414062,-0.975610,0.609756,-0.060976,16.637501,-37.125000,2.456250,0.0,1.000000,0.000000,0.000000,0.000000
1782117285.850856,1785279,0.909668,-0.017578,-0.416992,-0.731707,0.548781,-0.182927,16.550001,-37.174999,2.575000,0.0,1.000000,0.000000,0.000000,0.000000
1782117285.860856,1785289,0.909668,-0.017578,-0.416016,-0.365854,0.426829,-0.182927,16.550001,-37.174999,2.575000,0.0,1.000000,0.000000,0.000000,0.000000
1782117285.870856,1785299,0.909668,-0.019043,-0.416016,-0.060976,0.426829,-0.243902,16.618750,-37.150002,2.500000,0.0,1.000000,0.000000,0.000000,0.000000
1782117285.880856,1785309,0.910645,-0.019531,-0.414551,0.182927,0.487805,-0.243902,16.618750,-37.150002,2.500000,0.0,1.000000,0.000000,0.000000,0.000000
1782117285.891856,1785320,0.911133,-0.020508,-0.414551,0.365854,0.548781,-0.243902,16.493750,-37.256252,2.631250,0.0,1.000000,0.000000,0.000000,0.000000
1782117285.900856,1785329,0.911133,-0.019043,-0.414062,0.487805,0.670732,-0.365854,16.493750,-37.256252,2.631250,0.0,1.000000,0.000000,0.000000,0.000000
1782117285.910856,1785339,0.911133,-0.017090,-0.414551,0.426829,0.609756,-0.304878,16.587500,-37.118752,2.600000,0.0,1.000000,0.000000,0.000000,0.000000
1782117285.921856,1785350,0.911133,-0.015625,-0.413574,0.487805,0.670732,-0.365854,16.587500,-37.118752,2.600000,0.0,1.000000,0.000000,0.000000,0.000000
1782117285.933856,1785362,0.912109,-0.013672,-0.412598,0.487805,0.670732,-0.304878,16.481251,-37.237499,2.681250,0.0,1.000000,0.000000,0.000000,0.000000
1782117285.941856,1785370,0.913086,-0.014648,-0.412598,0.487805,0.670732,-0.304878,16.550001,-37.174999,2.625000,0.0,1.000000,0.000000,0.000000,0.000000
1782117285.951856,1785380,0.913574,-0.016113,-0.410645,0.304878,0.792683,-0.243902,16.550001,-37.174999,2.625000,0.0,1.000000,0.000000,0.000000,0.000000
1782117285.960856,1785389,0.913086,-0.015625,-0.409180,0.182927,0.853659,-0.060976,16.550001,-37.174999,2.625000,0.0,1.000000,0.000000,0.000000,0.000000
1782117285.972856,1785401,0.912598,-0.015137,-0.408691,-0.121951,0.792683,0.060976,16.506250,-37.250000,2.681250,0.0,1.000000,0.000000,0.000000,0.000000
1782117285.980856,1785409,0.910156,-0.014648,-0.409668,-0.670732,0.670732,0.121951,16.506250,-37.250000,2.681250,0.0,1.000000,0.000000,0.000000,0.000000
1782117285.990856,1785419,0.908691,-0.012695,-0.412109,-1.097561,0.426829,0.182927,16.550001,-37.125000,2.637500,0.0,1.000000,0.000000,0.000000,0.000000
1782117286.000856,1785429,0.909668,-0.012207,-0.411621,-1.280488,0.426829,0.000000,16.531250,-37.206249,2.687500,0.0,1.000000,0.000000,0.000000,0.000000
1782117286.012856,1785441,0.910156,-0.017578,-0.410156,-1.219512,0.548781,-0.060976,16.531250,-37.206249,2.687500,0.0,1.000000,0.000000,0.000000,0.000000
1782117286.020856,1785449,0.913574,-0.021484,-0.408691,-0.975610,0.609756,0.000000,16.518751,-37.200001,2.650000,0.0,1.000000,0.000000,0.000000,0.000000
1782117286.030856,1785459,0.914551,-0.025879,-0.409668,-0.670732,0.670732,-0.060976,16.518751,-37.200001,2.650000,0.0,1.000000,0.000000,0.000000,0.000000
1782117286.040856,1785469,0.913086,-0.025391,-0.410645,-0.365854,0.731707,-0.060976,16.537500,-37.231251,2.737500,0.0,1.000000,0.000000,0.000000,0.000000
1782117286.052856,1785481,0.912598,-0.024414,-0.411621,-0.060976,0.670732,-0.182927,16.537500,-37.231251,2.737500,0.0,1.000000,0.000000,0.000000,0.000000
1782117286.060856,1785489,0.911133,-0.022949,-0.411133,0.121951,0.670732,-0.182927,16.575001,-37.118752,2.737500,0.0,1.000000,0.000000,0.000000,0.000000
1782117286.071856,1785500,0.913086,-0.022461,-0.407227,0.243902,0.731707,-0.243902,16.575001,-37.118752,2.737500,0.0,1.000000,0.000000,0.000000,0.000000
1782117286.080856,1785509,0.914062,-0.023926,-0.407227,0.304878,0.853659,-0.243902,16.425001,-37.243752,2.781250,0.0,1.000000,0.000000,0.000000,0.000000
1782117286.092856,1785521,0.911621,-0.026367,-0.407227,0.365854,0.914634,-0.121951,16.425001,-37.243752,2.781250,0.0,1.000000,0.000000,0.000000,0.000000
1782117286.101856,1785530,0.911621,-0.024414,-0.411133,0.548781,0.792683,-0.182927,16.512501,-37.068752,2.706250,0.0,1.000000,0.000000,0.000000,0.000000
1782117286.110856,1785539,0.913574,-0.020996,-0.412109,0.731707,0.792683,-0.182927,16.512501,-37.068752,2.706250,0.0,1.000000,0.000000,0.000000,0.000000
1782117286.121856,1785550,0.912598,-0.018066,-0.412109,0.731707,0.731707,-0.060976,16.600000,-36.931252,2.612500,0.0,1.000000,0.000000,0.000000,0.000000
1782117286.132856,1785561,0.910645,-0.014648,-0.411621,0.731707,0.853659,-0.060976,16.600000,-36.931252,2.612500,0.0,1.000000,0.000000,0.000000,0.000000
1782117286.140856,1785569,0.907227,-0.014160,-0.412598,0.670732,0.731707,-0.121951,16.462500,-37.118752,2.762500,0.0,1.000000,0.000000,0.000000,0.000000
1782117286.150856,1785579,0.908203,-0.014648,-0.413574,0.731707,0.548781,-0.304878,16.462500,-37.118752,2.762500,0.0,1.000000,0.000000,0.000000,0.000000
1782117286.160856,1785589,0.910156,-0.014648,-0.415039,0.670732,0.548781,-0.426829,16.487501,-37.187500,2.831250,0.0,1.000000,0.000000,0.000000,0.000000
1782117286.173856,1785602,0.908203,-0.015625,-0.416016,0.426829,0.487805,-0.365854,16.487501,-37.187500,2.831250,0.0,1.000000,0.000000,0.000000,0.000000
1782117286.180856,1785609,0.908203,-0.018066,-0.420898,0.182927,0.365854,-0.487805,16.525000,-37.087502,2.800000,0.0,1.000000,0.000000,0.000000,0.000000
1782117286.190856,1785619,0.909668,-0.024414,-0.427246,0.365854,0.182927,-0.487805,16.525000,-37.087502,2.800000,0.0,1.000000,0.000000,0.000000,0.000000
1782117286.200856,1785629,0.910156,-0.028809,-0.429688,0.853659,-0.243902,-0.304878,16.468750,-37.168751,2.868750,0.0,1.000000,0.000000,0.000000,0.000000
1782117286.212856,1785641,0.907715,-0.032715,-0.430176,1.524390,-0.670732,0.060976,16.468750,-37.168751,2.868750,0.0,1.000000,0.000000,0.000000,0.000000
1782117286.220856,1785649,0.903809,-0.031250,-0.431152,2.073171,-1.280488,0.548781,16.500000,-37.056252,2.793750,0.0,1.000000,0.000000,0.000000,0.000000
1782117286.230856,1785659,0.902832,-0.027344,-0.430176,2.560976,-1.646341,0.853659,16.500000,-37.056252,2.793750,0.0,1.000000,0.000000,0.000000,0.000000
1782117286.240856,1785669,0.897461,-0.024902,-0.430176,3.048780,-1.280488,0.853659,16.475000,-37.187500,2.800000,0.0,1.000000,0.000000,0.000000,0.000000
1782117286.252856,1785681,0.887695,-0.015625,-0.434570,3.170732,-0.487805,0.731707,16.475000,-37.187500,2.800000,0.0,1.000000,0.000000,0.000000,0.000000
1782117286.260856,1785689,0.897461,0.000000,-0.450684,2.804878,-0.365854,0.000000,16.456251,-37.187500,2.743750,0.0,1.000000,0.000000,0.000000,0.000000
1782117286.270856,1785699,0.919922,0.007812,-0.466797,2.378049,0.853659,-0.914634,16.456251,-37.187500,2.743750,0.0,1.000000,0.000000,0.000000,0.000000
1782117286.280856,1785709,0.913574,-0.006348,-0.471680,2.317073,2.743902,-1.341463,16.431250,-37.162502,2.787500,0.0,1.000000,0.000000,0.000000,0.000000
1782117286.294856,1785723,0.886230,-0.037109,-0.472656,4.512195,4.695122,-1.036585,16.431250,-37.162502,2.787500,0.0,1.000000,0.000000,0.000000,0.000000
1782117286.302856,1785731,0.886230,-0.037109,-0.472656,4.512195,4.695122,-1.036585,16.487501,-37.131252,2.793750,0.0,1.000000,0.000000,0.000000,0.000000
1782117286.310856,1785739,0.873047,-0.022461,-0.468750,5.121951,4.451220,-0.975610,16.487501,-37.131252,2.793750,0.0,1.000000,0.000000,0.000000,0.000000
1782117286.320856,1785749,0.873535,-0.007324,-0.466309,5.182927,3.963415,-1.280488,16.500000,-37.062500,2.756250,0.0,1.000000,0.000000,0.000000,0.000000
1782117286.332856,1785761,0.865234,0.003418,-0.462891,4.573171,4.390244,-1.402439,16.500000,-37.062500,2.756250,0.0,1.000000,0.000000,0.000000,0.000000
1782117286.341856,1785770,0.854492,0.015625,-0.462402,3.414634,4.146341,-1.341463,16.537500,-36.924999,2.818750,0.0,1.000000,0.000000,0.000000,0.000000
1782117286.350856,1785779,0.853027,0.026855,-0.460938,2.256098,3.414634,-1.707317,16.537500,-36.924999,2.818750,0.0,1.000000,0.000000,0.000000,0.000000
1782117286.360856,1785789,0.860352,0.025391,-0.460938,1.707317,2.987805,-2.378049,16.456251,-37.049999,2.925000,0.0,1.000000,0.000000,0.000000,0.000000
1782117286.374856,1785803,0.880371,-0.002441,-0.459473,1.646341,2.804878,-2.500000,16.456251,-37.049999,2.925000,0.0,1.000000,0.000000,0.000000,0.000000
1782117286.380856,1785809,0.880371,-0.002441,-0.459473,1.646341,2.804878,-2.500000,16.437500,-37.075001,2.950000,0.0,1.000000,0.000000,0.000000,0.000000
1782117286.392856,1785821,0.891113,-0.009766,-0.465820,1.829268,3.109756,-2.621951,16.437500,-37.075001,2.950000,0.0,1.000000,0.000000,0.000000,0.000000
1782117286.400856,1785829,0.899414,-0.015625,-0.460449,2.743902,3.597561,-2.804878,16.531250,-36.781250,2.918750,0.0,1.000000,0.000000,0.000000,0.000000
1782117286.412856,1785841,0.885254,-0.024902,-0.439941,4.268293,6.097561,-3.109756,16.531250,-36.781250,2.918750,0.0,1.000000,0.000000,0.000000,0.000000
1782117286.421856,1785850,0.885254,-0.024902,-0.439941,4.268293,6.097561,-3.109756,16.481251,-36.900002,3.106250,0.0,1.000000,0.000000,0.000000,0.000000
1782117286.430856,1785859,0.880859,-0.026855,-0.437012,5.000000,6.097561,-3.902439,16.481251,-36.900002,3.106250,0.0,1.000000,0.000000,0.000000,0.000000
1782117286.440856,1785869,0.889648,-0.026855,-0.435059,6.036585,5.548780,-4.817073,16.525000,-36.750000,3.075000,0.0,1.000000,0.000000,0.000000,0.000000
1782117286.453856,1785882,0.911133,-0.027832,-0.420898,8.292683,7.012195,-5.975610,16.525000,-36.750000,3.075000,0.0,1.000000,0.000000,0.000000,0.000000
1782117286.461856,1785890,0.911133,-0.027832,-0.420898,8.292683,7.012195,-5.975610,16.468750,-36.887501,3.225000,0.0,1.000000,0.000000,0.000000,0.000000
1782117286.471856,1785900,0.908691,-0.024414,-0.417480,8.902439,8.475610,-6.158537,16.468750,-36.887501,3.225000,0.0,1.000000,0.000000,0.000000,0.000000
1782117286.481856,1785910,0.902344,-0.019043,-0.414062,9.329268,9.512196,-6.280488,16.531250,-36.743752,3.262500,0.0,1.000000,0.000000,0.000000,0.000000
1782117286.494856,1785923,0.898926,0.001465,-0.407227,8.719512,9.756098,-5.914634,16.531250,-36.743752,3.262500,0.0,1.000000,0.000000,0.000000,0.000000
1782117286.501856,1785930,0.895996,0.008789,-0.414062,6.829268,9.939025,-5.426829,16.531250,-36.725002,3.362500,0.0,1.000000,0.000000,0.000000,0.000000
1782117286.510856,1785939,0.895996,0.008789,-0.414062,6.829268,9.939025,-5.426829,16.531250,-36.725002,3.362500,0.0,1.000000,0.000000,0.000000,0.000000
1782117286.520856,1785949,0.891113,0.011230,-0.421387,4.756098,10.243902,-4.695122,16.543751,-36.762501,3.512500,0.0,1.000000,0.000000,0.000000,0.000000
1782117286.533856,1785962,0.895020,0.010742,-0.420410,1.829268,9.573171,-4.207317,16.543751,-36.762501,3.512500,0.0,1.000000,0.000000,0.000000,0.000000
1782117286.540856,1785969,0.895020,0.010742,-0.420410,1.829268,9.573171,-4.207317,16.587500,-36.650002,3.568750,0.0,1.000000,0.000000,0.000000,0.000000
1782117286.550856,1785979,0.899902,0.013672,-0.417480,0.853659,9.573171,-4.390244,16.587500,-36.650002,3.568750,0.0,1.000000,0.000000,0.000000,0.000000
1782117286.560856,1785989,0.906250,0.018555,-0.416016,-0.182927,9.817074,-4.573171,16.612501,-36.631252,3.787500,0.0,1.000000,0.000000,0.000000,0.000000
1782117286.573856,1786002,0.910645,0.023438,-0.427734,-4.695122,10.792684,-4.512195,16.612501,-36.631252,3.787500,0.0,1.000000,0.000000,0.000000,0.000000
1782117286.580856,1786009,0.908203,0.013184,-0.437988,-7.012195,11.585366,-3.658537,16.712500,-36.537502,3.900000,0.0,1.000000,0.000000,0.000000,0.000000
1782117286.590856,1786019,0.916504,-0.005371,-0.444336,-7.987805,10.975610,-2.804878,16.712500,-36.537502,3.900000,0.0,1.000000,0.000000,0.000000,0.000000
1782117286.600856,1786029,0.945312,-0.032227,-0.458008,-7.500000,7.804878,-3.170732,16.743750,-36.437500,4.068750,0.0,1.000000,0.000000,0.000000,0.000000
1782117286.613856,1786042,0.934082,-0.074219,-0.456543,-4.939024,8.536586,-2.256098,16.743750,-36.437500,4.068750,0.0,1.000000,0.000000,0.000000,0.000000
1782117286.620856,1786049,0.900879,-0.067871,-0.443359,-1.829268,11.402439,0.792683,16.581251,-36.518749,4.300000,0.0,1.000000,0.000000,0.000000,0.000000
1782117286.630856,1786059,0.878418,-0.043945,-0.431152,-1.829268,8.536586,2.865854,16.581251,-36.518749,4.300000,0.0,1.000000,0.000000,0.000000,0.000000
1782117286.640856,1786069,0.913574,-0.030273,-0.425293,-2.073171,1.707317,0.853659,16.500000,-36.606251,4.450000,0.0,1.000000,0.000000,0.000000,0.000000
1782117286.653856,1786082,0.973145,-0.033203,-0.409668,-0.609756,0.487805,-1.585366,16.500000,-36.606251,4.450000,0.0,1.000000,0.000000,0.000000,0.000000
1782117286.660856,1786089,1.011719,-0.049316,-0.390137,2.865854,5.426829,-3.292683,16.500000,-36.543751,4.462500,0.0,1.000000,0.000000,0.000000,0.000000
1782117286.670856,1786099,1.020020,-0.065430,-0.363281,8.048780,12.682927,-4.878049,16.500000,-36.543751,4.462500,0.0,1.000000,0.000000,0.000000,0.000000
1782117286.680856,1786109,1.011230,-0.088379,-0.334473,13.292684,18.353659,-5.609756,16.475000,-36.587502,4.562500,0.0,1.000000,0.000000,0.000000,0.000000
1782117286.694856,1786123,1.013184,-0.124023,-0.317871,20.060976,19.695122,-7.256098,16.475000,-36.587502,4.562500,0.0,1.000000,0.000000,0.000000,0.000000
1782117286.700856,1786129,1.008789,-0.141602,-0.304688,29.329269,21.158537,-8.780488,16.462500,-36.475002,4.650000,0.0,1.000000,0.000000,0.000000,0.000000
1782117286.710856,1786139,0.975098,-0.143555,-0.294922,36.524391,23.597561,-8.048780,16.462500,-36.475002,4.650000,0.0,1.000000,0.000000,0.000000,0.000000
1782117286.720856,1786149,0.941895,-0.109863,-0.306641,41.280487,23.353659,-7.378049,16.468750,-36.443752,4.718750,0.0,1.000000,0.000000,0.000000,0.000000
1782117286.733856,1786162,0.916016,-0.086426,-0.323242,43.536587,22.073172,-6.829268,16.468750,-36.443752,4.718750,0.0,1.000000,0.000000,0.000000,0.000000
1782117286.742856,1786171,0.902832,-0.057617,-0.344238,45.670734,19.939024,-6.280488,16.437500,-36.381252,4.718750,0.0,1.000000,0.000000,0.000000,0.000000
1782117286.750856,1786179,0.889160,-0.053711,-0.357422,47.865856,18.292683,-5.670732,16.437500,-36.381252,4.718750,0.0,1.000000,0.000000,0.000000,0.000000
1782117286.761856,1786190,0.862793,-0.056641,-0.352539,50.243904,15.426829,-6.158537,16.431250,-36.350002,4.575000,0.0,1.000000,0.000000,0.000000,0.000000
1782117286.772856,1786201,0.829102,-0.072754,-0.333008,51.158539,9.634147,-7.621952,16.431250,-36.350002,4.575000,0.0,1.000000,0.000000,0.000000,0.000000
1782117286.780856,1786209,0.817871,-0.066895,-0.283691,49.939026,1.524390,-8.963415,16.531250,-36.112499,4.187500,0.0,1.000000,0.000000,0.000000,0.000000
1782117286.790856,1786219,0.846191,-0.032715,-0.222168,44.146343,-8.292683,-10.182927,16.531250,-36.112499,4.187500,0.0,1.000000,0.000000,0.000000,0.000000
1782117286.800856,1786229,0.901367,0.021973,-0.153320,34.573170,-16.341463,-11.707317,16.556250,-36.162502,3.887500,0.0,1.000000,0.000000,0.000000,0.000000
1782117286.810856,1786239,0.989746,0.057129,-0.095703,24.329269,-20.000000,-13.841464,16.556250,-36.162502,3.887500,0.0,1.000000,0.000000,0.000000,0.000000
1782117286.820856,1786249,1.078125,0.060547,-0.043945,15.182927,-17.743902,-14.878049,16.600000,-36.125000,3.375000,0.0,1.000000,0.000000,0.000000,0.000000
1782117286.831856,1786260,1.160645,0.042969,-0.012695,9.817074,-12.560976,-14.329268,16.600000,-36.125000,3.375000,0.0,1.000000,0.000000,0.000000,0.000000
1782117286.840856,1786269,1.219727,0.012207,0.000977,8.658537,-5.853659,-12.743903,16.775000,-35.962502,2.968750,0.0,1.000000,0.000000,0.000000,0.000000
1782117286.853856,1786282,1.249023,-0.015137,-0.000977,9.756098,-0.060976,-9.817074,16.775000,-35.962502,2.968750,0.0,1.000000,0.000000,0.000000,0.000000
1782117286.860856,1786289,1.223145,-0.001465,-0.012207,11.402439,7.195122,-5.975610,16.850000,-35.918751,2.931250,0.0,1.000000,0.000000,0.000000,0.000000
1782117286.870856,1786299,1.129395,0.040527,-0.038574,11.036586,13.475610,-2.500000,16.850000,-35.918751,2.931250,0.0,1.000000,0.000000,0.000000,0.000000
1782117286.881856,1786310,1.023926,0.076172,-0.090820,8.109756,13.658537,0.121951,16.856251,-35.931252,3.006250,0.0,1.000000,0.000000,0.000000,0.000000
1782117286.893856,1786322,0.954590,0.091309,-0.146484,3.231707,10.304878,2.500000,16.856251,-35.931252,3.006250,0.0,1.000000,0.000000,0.000000,0.000000
1782117286.901856,1786330,0.922852,0.093750,-0.186523,-3.048780,7.378049,5.365854,16.887501,-35.868752,3.112500,0.0,1.000000,0.000000,0.000000,0.000000
1782117286.911856,1786340,0.910156,0.084473,-0.223633,-9.146341,4.024390,7.195122,16.887501,-35.868752,3.112500,0.0,1.000000,0.000000,0.000000,0.000000
1782117286.921856,1786350,0.925293,0.062500,-0.251953,-14.207317,-0.304878,7.073171,16.881250,-35.893749,3.218750,0.0,1.000000,0.000000,0.000000,0.000000
1782117286.930856,1786359,0.969238,0.006836,-0.268555,-16.646341,-4.207317,5.060976,16.881250,-35.893749,3.218750,0.0,1.000000,0.000000,0.000000,0.000000
1782117286.941856,1786370,1.009277,-0.048828,-0.273926,-14.390244,-3.231707,3.658537,16.825001,-35.956249,3.337500,0.0,1.000000,0.000000,0.000000,0.000000
1782117286.951856,1786380,1.006836,-0.093262,-0.270508,-10.914635,-0.914634,3.536585,16.825001,-35.956249,3.337500,0.0,1.000000,0.000000,0.000000,0.000000
1782117286.961856,1786390,1.000488,-0.119629,-0.262695,-7.378049,0.731707,3.536585,16.843750,-36.018749,3.487500,0.0,1.000000,0.000000,0.000000,0.000000
1782117286.970856,1786399,1.006348,-0.124512,-0.284180,-4.878049,1.219512,4.451220,16.843750,-36.018749,3.487500,0.0,1.000000,0.000000,0.000000,0.000000
1782117286.980856,1786409,1.022461,-0.109375,-0.305664,-0.975610,-1.524390,4.268293,16.868750,-35.937500,3.481250,0.0,1.000000,0.000000,0.000000,0.000000
1782117286.990856,1786419,1.062988,-0.098633,-0.301270,4.939024,-3.353659,4.207317,16.868750,-35.937500,3.481250,0.0,1.000000,0.000000,0.000000,0.000000
1782117287.000856,1786429,1.077148,-0.104004,-0.273926,11.463415,-2.987805,6.524390,16.812500,-36.018749,3.518750,0.0,1.000000,0.000000,0.000000,0.000000
1782117287.010856,1786439,1.068848,-0.142090,-0.261230,17.743902,-5.182927,9.146341,16.812500,-36.018749,3.518750,0.0,1.000000,0.000000,0.000000,0.000000
1782117287.020856,1786449,1.040039,-0.175781,-0.259277,21.219513,-8.841464,13.170732,16.668751,-36.075001,3.312500,0.0,1.000000,0.000000,0.000000,0.000000
1782117287.030856,1786459,1.032227,-0.214844,-0.279785,21.768293,-13.353659,19.329269,16.668751,-36.075001,3.312500,0.0,1.000000,0.000000,0.000000,0.000000
1782117287.040856,1786469,1.059570,-0.202148,-0.283203,23.475611,-10.000000,23.170732,16.431250,-36.112499,3.000000,0.0,1.000000,0.000000,0.000000,0.000000
1782117287.050856,1786479,1.041016,-0.145020,-0.261230,27.317074,2.012195,21.707317,16.431250,-36.112499,3.000000,0.0,1.000000,0.000000,0.000000,0.000000
1782117287.060856,1786489,0.954590,-0.062012,-0.200684,34.329269,17.012196,15.853659,16.100000,-36.162502,2.800000,0.0,1.000000,0.000000,0.000000,0.000000
1782117287.070856,1786499,0.796875,0.058105,-0.150391,39.634148,24.024391,4.695122,16.100000,-36.162502,2.800000,0.0,1.000000,0.000000,0.000000,0.000000
1782117287.080856,1786509,0.715820,0.144043,-0.175781,37.987804,15.487805,-6.036585,16.031250,-36.218750,2.762500,0.0,1.000000,0.000000,0.000000,0.000000
1782117287.090856,1786519,0.740723,0.194824,-0.237305,26.585367,1.646341,-10.182927,16.031250,-36.218750,2.762500,0.0,1.000000,0.000000,0.000000,0.000000
1782117287.100856,1786529,0.837891,0.214355,-0.320312,8.780488,-7.804878,-9.878049,16.112501,-36.137501,2.575000,0.0,1.000000,0.000000,0.000000,0.000000
1782117287.110856,1786539,0.908691,0.174805,-0.350586,-7.317073,-10.060976,-6.585366,16.112501,-36.137501,2.575000,0.0,1.000000,0.000000,0.000000,0.000000
1782117287.120856,1786549,0.960449,0.100098,-0.342773,-18.841463,-12.195122,-2.804878,16.325001,-36.025002,2.425000,0.0,1.000000,0.000000,0.000000,0.000000
1782117287.133856,1786562,0.987305,0.017578,-0.349121,-25.914635,-11.219512,1.646341,16.325001,-36.025002,2.425000,0.0,1.000000,0.000000,0.000000,0.000000
1782117287.140856,1786569,0.971680,-0.030273,-0.369141,-29.390245,-7.378049,3.048780,16.400000,-36.100002,2.562500,0.0,1.000000,0.000000,0.000000,0.000000
1782117287.150856,1786579,0.943848,-0.060547,-0.385254,-31.280489,-6.585366,3.841464,16.400000,-36.100002,2.562500,0.0,1.000000,0.000000,0.000000,0.000000
1782117287.160856,1786589,0.946289,-0.077637,-0.395020,-32.073170,-6.829268,6.829268,16.468750,-36.012501,2.668750,0.0,1.000000,0.000000,0.000000,0.000000
1782117287.170856,1786599,0.934570,-0.075684,-0.398438,-31.890245,-5.121951,8.902439,16.468750,-36.012501,2.668750,0.0,1.000000,0.000000,0.000000,0.000000
1782117287.180856,1786609,0.929199,-0.068848,-0.384766,-30.731709,-5.426829,9.390244,16.450001,-36.106251,2.943750,0.0,1.000000,0.000000,0.000000,0.000000
1782117287.191856,1786620,0.921387,-0.062012,-0.365723,-30.121952,-5.060976,9.451220,16.450001,-36.106251,2.943750,0.0,1.000000,0.000000,0.000000,0.000000
1782117287.200856,1786629,0.908691,-0.057617,-0.354004,-29.756098,-4.756098,8.719512,16.481251,-35.987499,2.893750,0.0,1.000000,0.000000,0.000000,0.000000
1782117287.211856,1786640,0.904785,-0.058105,-0.354004,-29.817074,-5.365854,7.317073,16.481251,-35.987499,2.893750,0.0,1.000000,0.000000,0.000000,0.000000
1782117287.220856,1786649,0.911621,-0.061035,-0.355957,-29.085367,-6.524390,6.463415,16.306250,-36.206249,3.212500,0.0,1.000000,0.000000,0.000000,0.000000
1782117287.230856,1786659,0.939453,-0.061523,-0.349121,-27.500000,-6.829268,5.609756,16.306250,-36.206249,3.212500,0.0,1.000000,0.000000,0.000000,0.000000
1782117287.240856,1786669,0.950195,-0.059570,-0.339844,-26.402439,-5.182927,5.670732,16.368750,-36.268749,3.381250,0.0,1.000000,0.000000,0.000000,0.000000
1782117287.250856,1786679,0.944824,-0.052246,-0.335938,-25.670732,-3.475610,6.402439,16.368750,-36.268749,3.381250,0.0,1.000000,0.000000,0.000000,0.000000
1782117287.260856,1786689,0.932129,-0.043457,-0.335938,-24.451220,-2.865854,7.621952,16.343750,-36.350002,3.506250,0.0,1.000000,0.000000,0.000000,0.000000
1782117287.270856,1786699,0.933105,-0.027344,-0.333008,-23.292683,-1.890244,7.987805,16.343750,-36.350002,3.506250,0.0,1.000000,0.000000,0.000000,0.000000
1782117287.280856,1786709,0.938477,-0.018066,-0.330078,-22.378050,-0.304878,7.743903,16.281250,-36.450001,3.612500,0.0,1.000000,0.000000,0.000000,0.000000
1782117287.290856,1786719,0.936523,-0.017578,-0.324219,-21.890244,1.097561,7.987805,16.281250,-36.450001,3.612500,0.0,1.000000,0.000000,0.000000,0.000000
1782117287.300856,1786729,0.922363,-0.024414,-0.331543,-22.195122,1.158537,7.439024,16.206251,-36.518749,3.737500,0.0,1.000000,0.000000,0.000000,0.000000
1782117287.310856,1786739,0.932617,-0.038086,-0.334961,-22.987806,-0.365854,7.682927,16.206251,-36.518749,3.737500,0.0,1.000000,0.000000,0.000000,0.000000
1782117287.320856,1786749,0.922852,-0.047852,-0.340820,-23.780489,-0.487805,7.256098,16.200001,-36.581249,3.893750,0.0,1.000000,0.000000,0.000000,0.000000
1782117287.331856,1786760,0.927734,-0.052734,-0.348145,-24.390244,-1.707317,7.256098,16.200001,-36.581249,3.893750,0.0,1.000000,0.000000,0.000000,0.000000
1782117287.340856,1786769,0.937988,-0.036621,-0.349609,-24.024391,-1.097561,7.073171,16.200001,-36.662502,4.050000,0.0,1.000000,0.000000,0.000000,0.000000
1782117287.351856,1786780,0.917969,-0.028809,-0.353027,-23.597561,1.158537,6.524390,16.200001,-36.662502,4.050000,0.0,1.000000,0.000000,0.000000,0.000000
1782117287.361856,1786790,0.901855,-0.029297,-0.348633,-24.146341,-0.121951,6.402439,16.225000,-36.650002,4.200000,0.0,1.000000,0.000000,0.000000,0.000000
1782117287.371856,1786800,0.936035,-0.029297,-0.355957,-27.743902,-1.158537,11.341464,16.225000,-36.650002,4.200000,0.0,1.000000,0.000000,0.000000,0.000000
1782117287.380856,1786809,0.880859,0.004395,-0.400391,-31.768293,3.536585,8.719512,16.150000,-36.718750,4.443750,0.0,1.000000,0.000000,0.000000,0.000000
1782117287.393856,1786822,0.894043,0.001953,-0.412598,-31.951220,-0.487805,6.524390,16.150000,-36.718750,4.443750,0.0,1.000000,0.000000,0.000000,0.000000
1782117287.400856,1786829,0.909668,-0.002441,-0.412598,-31.280489,-1.646341,5.365854,16.168751,-36.843750,4.625000,0.0,1.000000,0.000000,0.000000,0.000000
1782117287.411856,1786840,0.926758,-0.019531,-0.395508,-30.426830,-2.378049,5.731708,16.168751,-36.843750,4.625000,0.0,1.000000,0.000000,0.000000,0.000000
1782117287.420856,1786849,0.913574,-0.034180,-0.389648,-30.121952,-1.951220,5.670732,16.175001,-36.825001,4.800000,0.0,1.000000,0.000000,0.000000,0.000000
1782117287.430856,1786859,0.899902,-0.048828,-0.387207,-30.792685,-3.170732,5.487805,16.175001,-36.825001,4.800000,0.0,1.000000,0.000000,0.000000,0.000000
1782117287.440856,1786869,0.898926,-0.059570,-0.390137,-31.768293,-4.878049,5.365854,16.256250,-36.768749,4.868750,0.0,1.000000,0.000000,0.000000,0.000000
1782117287.450856,1786879,0.911621,-0.065918,-0.399414,-32.012196,-6.097561,5.060976,16.256250,-36.768749,4.868750,0.0,1.000000,0.000000,0.000000,0.000000
1782117287.460856,1786889,0.960938,-0.082520,-0.397461,-31.585367,-5.487805,7.865854,16.125000,-37.006252,5.081250,0.0,1.000000,0.000000,0.000000,0.000000
1782117287.470856,1786899,0.916992,-0.095703,-0.403809,-28.170732,-0.975610,4.756098,16.125000,-37.006252,5.081250,0.0,1.000000,0.000000,0.000000,0.000000
1782117287.480856,1786909,0.867188,-0.117676,-0.449707,-18.963415,-7.378049,3.963415,16.187500,-36.918751,5.125000,0.0,1.000000,0.000000,0.000000,0.000000
1782117287.490856,1786919,0.875488,-0.061035,-0.456543,-14.512196,-8.597561,2.195122,16.187500,-36.918751,5.125000,0.0,1.000000,0.000000,0.000000,0.000000
1782117287.500856,1786929,0.892090,-0.030273,-0.456055,-11.524390,-7.926829,1.402439,16.106251,-37.143749,5.212500,0.0,1.000000,0.000000,0.000000,0.000000
1782117287.510856,1786939,0.884277,-0.016602,-0.459961,-7.743903,-7.378049,-0.731707,16.106251,-37.143749,5.212500,0.0,1.000000,0.000000,0.000000,0.000000
1782117287.520856,1786949,0.888672,-0.022949,-0.443359,-5.243903,-8.841464,-2.195122,16.137501,-37.006252,5.125000,0.0,1.000000,0.000000,0.000000,0.000000
1782117287.530856,1786959,0.902832,-0.034668,-0.432129,-4.207317,-9.207317,-2.134146,16.137501,-37.006252,5.125000,0.0,1.000000,0.000000,0.000000,0.000000
1782117287.540856,1786969,0.893066,-0.039062,-0.433594,-3.597561,-8.536586,-1.890244,16.118750,-37.049999,4.981250,0.0,1.000000,0.000000,0.000000,0.000000
1782117287.551856,1786980,0.878906,-0.040527,-0.439453,-2.439024,-9.634147,-2.256098,16.118750,-37.049999,4.981250,0.0,1.000000,0.000000,0.000000,0.000000
1782117287.560856,1786989,0.886719,-0.035156,-0.452148,-0.853659,-11.707317,-2.865854,16.306250,-36.856251,4.793750,0.0,1.000000,0.000000,0.000000,0.000000
1782117287.571856,1787000,0.905762,-0.022461,-0.456055,1.341463,-12.500000,-3.841464,16.275000,-36.962502,4.637500,0.0,1.000000,0.000000,0.000000,0.000000
1782117287.581856,1787010,0.910645,-0.014648,-0.451660,3.170732,-12.134147,-4.329268,16.275000,-36.962502,4.637500,0.0,1.000000,0.000000,0.000000,0.000000
1782117287.590856,1787019,0.895508,-0.018555,-0.447266,4.146341,-11.646341,-4.024390,16.281250,-37.000000,4.393750,0.0,1.000000,0.000000,0.000000,0.000000
1782117287.601856,1787030,0.890625,-0.016113,-0.452148,4.512195,-12.500000,-3.719512,16.281250,-37.000000,4.393750,0.0,1.000000,0.000000,0.000000,0.000000
1782117287.611856,1787040,0.902344,-0.004883,-0.451660,4.939024,-12.621951,-3.597561,16.281250,-37.043751,4.250000,0.0,1.000000,0.000000,0.000000,0.000000
1782117287.621856,1787050,0.912598,0.007324,-0.445801,5.731708,-11.158537,-3.902439,16.281250,-37.043751,4.250000,0.0,1.000000,0.000000,0.000000,0.000000
1782117287.630856,1787059,0.915527,0.016602,-0.434570,6.219512,-9.939025,-4.390244,16.450001,-36.818752,3.875000,0.0,1.000000,0.000000,0.000000,0.000000
1782117287.640856,1787069,0.915527,0.019043,-0.417969,5.975610,-9.085366,-4.512195,16.450001,-36.818752,3.875000,0.0,1.000000,0.000000,0.000000,0.000000
1782117287.653856,1787082,0.907227,0.014648,-0.403809,4.512195,-8.841464,-4.146341,16.306250,-36.993752,3.831250,0.0,1.000000,0.000000,0.000000,0.000000
1782117287.660856,1787089,0.901855,0.003906,-0.400391,2.195122,-9.695122,-3.719512,16.306250,-36.993752,3.831250,0.0,1.000000,0.000000,0.000000,0.000000
1782117287.671856,1787100,0.908203,-0.008301,-0.404297,0.121951,-10.243902,-3.231707,16.437500,-36.912502,3.581250,0.0,1.000000,0.000000,0.000000,0.000000
1782117287.680856,1787109,0.909668,-0.015625,-0.413574,-0.792683,-10.182927,-3.048780,16.437500,-36.912502,3.581250,0.0,1.000000,0.000000,0.000000,0.000000
1782117287.690856,1787119,0.909668,-0.017578,-0.417969,-0.914634,-10.304878,-3.109756,16.437500,-37.037502,3.506250,0.0,1.000000,0.000000,0.000000,0.000000
1782117287.700856,1787129,0.915039,-0.017090,-0.420410,-0.670732,-10.182927,-3.048780,16.437500,-37.037502,3.506250,0.0,1.000000,0.000000,0.000000,0.000000
1782117287.710856,1787139,0.918457,-0.016602,-0.419434,-0.365854,-9.756098,-2.865854,16.512501,-36.875000,3.281250,0.0,1.000000,0.000000,0.000000,0.000000
1782117287.720856,1787149,0.917969,-0.017090,-0.426758,0.000000,-9.207317,-2.621951,16.512501,-36.875000,3.281250,0.0,1.000000,0.000000,0.000000,0.000000
1782117287.731856,1787160,0.916992,-0.015137,-0.425293,0.792683,-8.414635,-2.560976,16.612501,-36.687500,3.056250,0.0,1.000000,0.000000,0.000000,0.000000
1782117287.740856,1787169,0.911621,-0.017578,-0.420898,2.012195,-7.926829,-3.048780,16.612501,-36.687500,3.056250,0.0,1.000000,0.000000,0.000000,0.000000
1782117287.750856,1787179,0.913086,-0.020508,-0.418945,3.109756,-7.682927,-3.353659,16.587500,-36.868752,2.975000,0.0,1.000000,0.000000,0.000000,0.000000
1782117287.760856,1787189,0.918945,-0.018066,-0.419922,3.902439,-7.378049,-3.536585,16.587500,-36.868752,2.975000,0.0,1.000000,0.000000,0.000000,0.000000
1782117287.770856,1787199,0.917969,-0.009766,-0.419922,4.268293,-6.829268,-3.597561,16.587500,-36.906250,2.868750,0.0,1.000000,0.000000,0.000000,0.000000
1782117287.780856,1787209,0.912109,-0.002441,-0.417969,4.512195,-6.585366,-3.597561,16.587500,-36.906250,2.868750,0.0,1.000000,0.000000,0.000000,0.000000
1782117287.790856,1787219,0.909180,0.000977,-0.417480,4.451220,-6.768293,-3.475610,16.681250,-36.812500,2.700000,0.0,1.000000,0.000000,0.000000,0.000000
1782117287.800856,1787229,0.906738,0.000488,-0.415527,4.329268,-7.073171,-3.414634,16.681250,-36.812500,2.700000,0.0,1.000000,0.000000,0.000000,0.000000
1782117287.810856,1787239,0.906250,-0.004883,-0.418457,4.268293,-7.256098,-3.292683,16.681250,-36.881252,2.643750,0.0,1.000000,0.000000,0.000000,0.000000
1782117287.821856,1787250,0.911621,-0.007812,-0.419922,4.146341,-7.317073,-2.987805,16.681250,-36.881252,2.643750,0.0,1.000000,0.000000,0.000000,0.000000
1782117287.830856,1787259,0.917969,-0.009766,-0.425293,4.085366,-6.829268,-2.500000,16.750000,-36.843750,2.468750,0.0,1.000000,0.000000,0.000000,0.000000
1782117287.840856,1787269,0.914551,-0.011719,-0.427246,4.207317,-6.768293,-2.500000,16.750000,-36.843750,2.468750,0.0,1.000000,0.000000,0.000000,0.000000
1782117287.850856,1787279,0.909668,-0.007324,-0.425781,4.573171,-6.524390,-2.439024,16.743750,-36.843750,2.343750,0.0,1.000000,0.000000,0.000000,0.000000
1782117287.860856,1787289,0.904297,-0.002930,-0.418457,4.878049,-6.585366,-2.500000,16.743750,-36.843750,2.343750,0.0,1.000000,0.000000,0.000000,0.000000
1782117287.871856,1787300,0.901367,-0.003906,-0.415527,4.695122,-6.829268,-2.560976,16.900000,-36.531250,2.062500,0.0,1.000000,0.000000,0.000000,0.000000
1782117287.880856,1787309,0.904297,-0.005371,-0.418945,4.085366,-7.317073,-2.500000,16.900000,-36.531250,2.062500,0.0,1.000000,0.000000,0.000000,0.000000
1782117287.890856,1787319,0.907715,-0.006348,-0.422363,3.475610,-7.378049,-2.500000,16.825001,-36.850002,2.081250,0.0,1.000000,0.000000,0.000000,0.000000
1782117287.901856,1787330,0.909668,-0.008789,-0.419434,3.231707,-7.256098,-2.439024,16.825001,-36.850002,2.081250,0.0,1.000000,0.000000,0.000000,0.000000
1782117287.910856,1787339,0.906250,-0.007812,-0.420898,2.926829,-7.134147,-2.256098,16.862501,-36.775002,1.993750,0.0,1.000000,0.000000,0.000000,0.000000
1782117287.920856,1787349,0.900391,-0.007812,-0.419922,2.804878,-7.500000,-2.073171,16.862501,-36.775002,1.993750,0.0,1.000000,0.000000,0.000000,0.000000
1782117287.931856,1787360,0.901367,-0.007812,-0.415527,2.621951,-8.048780,-1.707317,16.893751,-36.775002,1.812500,0.0,1.000000,0.000000,0.000000,0.000000
1782117287.941856,1787370,0.903320,-0.003906,-0.415527,2.256098,-8.353659,-1.463415,16.893751,-36.775002,1.812500,0.0,1.000000,0.000000,0.000000,0.000000
1782117287.951856,1787380,0.904785,-0.000977,-0.416992,1.646341,-8.475610,-1.524390,16.962500,-36.662502,1.662500,0.0,1.000000,0.000000,0.000000,0.000000
1782117287.960856,1787389,0.905273,-0.001465,-0.417969,0.731707,-8.719512,-1.646341,16.962500,-36.662502,1.662500,0.0,1.000000,0.000000,0.000000,0.000000
1782117287.970856,1787399,0.906250,-0.005859,-0.419922,-0.365854,-8.719512,-1.829268,16.956251,-36.818752,1.550000,0.0,1.000000,0.000000,0.000000,0.000000
1782117287.982856,1787411,0.903809,-0.006836,-0.418945,-1.280488,-8.780488,-1.890244,16.956251,-36.818752,1.550000,0.0,1.000000,0.000000,0.000000,0.000000
1782117287.990856,1787419,0.908203,-0.006348,-0.417969,-1.951220,-8.841464,-1.829268,17.100000,-36.637501,1.331250,0.0,1.000000,0.000000,0.000000,0.000000
1782117288.000856,1787429,0.912109,-0.006836,-0.415527,-2.195122,-8.658537,-1.951220,17.100000,-36.637501,1.331250,0.0,1.000000,0.000000,0.000000,0.000000
1782117288.010856,1787439,0.913574,-0.006836,-0.414551,-2.195122,-8.414635,-2.012195,17.068750,-36.643749,1.312500,0.0,1.000000,0.000000,0.000000,0.000000
1782117288.021856,1787450,0.919434,-0.005371,-0.414551,-2.378049,-8.841464,-2.073171,17.068750,-36.643749,1.312500,0.0,1.000000,0.000000,0.000000,0.000000
1782117288.032856,1787461,0.927246,-0.007324,-0.413086,-2.439024,-8.658537,-2.317073,17.200001,-36.575001,1.137500,0.0,1.000000,0.000000,0.000000,0.000000
1782117288.040856,1787469,0.928223,-0.014648,-0.415527,-2.195122,-8.170732,-2.560976,17.200001,-36.575001,1.137500,0.0,1.000000,0.000000,0.000000,0.000000
1782117288.050856,1787479,0.932129,-0.027832,-0.423340,-1.219512,-7.500000,-2.926829,17.100000,-36.806252,1.193750,0.0,1.000000,0.000000,0.000000,0.000000
1782117288.060856,1787489,0.931641,-0.030762,-0.427246,-0.182927,-5.975610,-2.865854,17.100000,-36.806252,1.193750,0.0,1.000000,0.000000,0.000000,0.000000
1782117288.071856,1787500,0.924805,-0.027832,-0.419922,0.792683,-4.817073,-2.682927,17.162500,-36.787502,1.081250,0.0,1.000000,0.000000,0.000000,0.000000
1782117288.081856,1787510,0.920410,-0.034180,-0.413086,1.463415,-4.268293,-2.317073,17.162500,-36.787502,1.081250,0.0,1.000000,0.000000,0.000000,0.000000
1782117288.090856,1787519,0.921387,-0.041504,-0.414062,1.707317,-3.902439,-1.768293,17.218750,-36.775002,0.956250,0.0,1.000000,0.000000,0.000000,0.000000
1782117288.101856,1787530,0.916992,-0.048828,-0.420410,1.768293,-3.841464,-0.914634,17.218750,-36.775002,0.956250,0.0,1.000000,0.000000,0.000000,0.000000
1782117288.111856,1787540,0.917480,-0.049316,-0.424316,2.073171,-4.024390,-0.060976,17.212500,-36.706249,0.875000,0.0,1.000000,0.000000,0.000000,0.000000
1782117288.121856,1787550,0.913574,-0.041504,-0.418945,2.317073,-3.780488,0.792683,17.212500,-36.706249,0.875000,0.0,1.000000,0.000000,0.000000,0.000000
1782117288.130856,1787559,0.907715,-0.028320,-0.415527,2.317073,-4.024390,0.670732,17.200001,-36.793751,0.906250,0.0,1.000000,0.000000,0.000000,0.000000
1782117288.140856,1787569,0.901855,-0.015625,-0.416016,1.280488,-4.024390,0.731707,17.200001,-36.793751,0.906250,0.0,1.000000,0.000000,0.000000,0.000000
1782117288.150856,1787579,0.900391,-0.003418,-0.423828,0.426829,-3.475610,0.487805,17.193750,-36.799999,0.718750,0.0,1.000000,0.000000,0.000000,0.000000
1782117288.160856,1787589,0.889648,-0.003418,-0.431641,0.304878,-2.682927,-0.121951,17.193750,-36.799999,0.718750,0.0,1.000000,0.000000,0.000000,0.000000
1782117288.170856,1787599,0.887207,-0.013184,-0.433594,0.487805,-3.048780,-0.304878,17.262501,-36.787502,0.675000,0.0,1.000000,0.000000,0.000000,0.000000
1782117288.182856,1787611,0.891602,-0.013184,-0.441406,0.487805,-3.353659,-0.304878,17.262501,-36.787502,0.675000,0.0,1.000000,0.000000,0.000000,0.000000
1782117288.190856,1787619,0.891602,-0.012207,-0.450684,0.304878,-3.536585,-0.426829,17.268751,-36.756252,0.650000,0.0,1.000000,0.000000,0.000000,0.000000
1782117288.200856,1787629,0.884766,-0.017578,-0.458008,0.060976,-3.902439,-0.060976,17.268751,-36.756252,0.650000,0.0,1.000000,0.000000,0.000000,0.000000
1782117288.210856,1787639,0.878418,-0.022461,-0.458496,0.060976,-4.695122,0.243902,17.225000,-36.806252,0.587500,0.0,1.000000,0.000000,0.000000,0.000000
1782117288.222856,1787651,0.882324,-0.025391,-0.457031,-0.365854,-5.426829,0.609756,17.225000,-36.806252,0.587500,0.0,1.000000,0.000000,0.000000,0.000000
1782117288.230856,1787659,0.885742,-0.025879,-0.455078,-0.975610,-5.487805,0.792683,17.237501,-36.825001,0.506250,0.0,1.000000,0.000000,0.000000,0.000000
1782117288.240856,1787669,0.885254,-0.022461,-0.452148,-1.585366,-5.304878,0.731707,17.237501,-36.825001,0.506250,0.0,1.000000,0.000000,0.000000,0.000000
1782117288.250856,1787679,0.888184,-0.016113,-0.452148,-2.195122,-5.121951,0.609756,17.306250,-36.712502,0.343750,0.0,1.000000,0.000000,0.000000,0.000000
1782117288.260856,1787689,0.891602,-0.012207,-0.447754,-2.682927,-5.000000,0.426829,17.306250,-36.712502,0.343750,0.0,1.000000,0.000000,0.000000,0.000000
1782117288.270856,1787699,0.891602,-0.015625,-0.444824,-3.170732,-4.756098,0.548781,17.237501,-36.875000,0.400000,0.0,1.000000,0.000000,0.000000,0.000000
1782117288.280856,1787709,0.893066,-0.012695,-0.447266,-3.780488,-4.817073,0.853659,17.237501,-36.875000,0.400000,0.0,1.000000,0.000000,0.000000,0.000000
1782117288.290856,1787719,0.893555,-0.015137,-0.450195,-3.963415,-4.817073,0.792683,17.206251,-36.937500,0.450000,0.0,1.000000,0.000000,0.000000,0.000000
1782117288.302856,1787731,0.894043,-0.024414,-0.453125,-3.170732,-4.878049,0.975610,17.206251,-36.937500,0.450000,0.0,1.000000,0.000000,0.000000,0.000000
1782117288.310856,1787739,0.894043,-0.024414,-0.453125,-3.170732,-4.878049,0.975610,17.300001,-36.812500,0.268750,0.0,1.000000,0.000000,0.000000,0.000000
1782117288.321856,1787750,0.895020,-0.025391,-0.450684,-2.500000,-4.390244,0.914634,17.300001,-36.812500,0.268750,0.0,1.000000,0.000000,0.000000,0.000000
1782117288.330856,1787759,0.892578,-0.028320,-0.453613,-1.890244,-3.902439,0.853659,17.250000,-36.900002,0.193750,0.0,1.000000,0.000000,0.000000,0.000000
1782117288.344856,1787773,0.895996,-0.025879,-0.460938,-1.402439,-4.146341,0.731707,17.250000,-36.900002,0.193750,0.0,1.000000,0.000000,0.000000,0.000000
1782117288.351856,1787780,0.900391,-0.020020,-0.464355,-1.951220,-4.207317,0.731707,17.250000,-36.825001,0.143750,0.0,1.000000,0.000000,0.000000,0.000000
1782117288.361856,1787790,0.904785,-0.015137,-0.465332,-2.621951,-4.146341,0.853659,17.250000,-36.825001,0.143750,0.0,1.000000,0.000000,0.000000,0.000000
1782117288.371856,1787800,0.904785,-0.015137,-0.465332,-2.621951,-4.146341,0.853659,17.218750,-37.012501,0.175000,0.0,1.000000,0.000000,0.000000,0.000000
1782117288.382856,1787811,0.898438,-0.013672,-0.460449,-3.353659,-3.597561,1.280488,17.218750,-37.012501,0.175000,0.0,1.000000,0.000000,0.000000,0.000000
1782117288.391856,1787820,0.889648,-0.006348,-0.454590,-5.365854,-3.048780,2.012195,17.193750,-36.906250,0.125000,0.0,1.000000,0.000000,0.000000,0.000000
1782117288.400856,1787829,0.882812,-0.001465,-0.455566,-6.280488,-2.500000,1.951220,17.193750,-36.906250,0.125000,0.0,1.000000,0.000000,0.000000,0.000000
1782117288.410856,1787839,0.879395,-0.001953,-0.457031,-6.829268,-2.500000,1.890244,17.218750,-36.812500,0.012500,0.0,1.000000,0.000000,0.000000,0.000000
1782117288.422856,1787851,0.875488,-0.010254,-0.460449,-7.134147,-2.439024,1.829268,17.218750,-36.812500,0.012500,0.0,1.000000,0.000000,0.000000,0.000000
1782117288.430856,1787859,0.878418,-0.020020,-0.461426,-7.073171,-2.804878,1.890244,17.281250,-36.787502,-0.006250,0.0,1.000000,0.000000,0.000000,0.000000
1782117288.441856,1787870,0.888184,-0.025391,-0.466797,-7.134147,-2.682927,1.951220,17.281250,-36.787502,-0.006250,0.0,1.000000,0.000000,0.000000,0.000000
1782117288.450856,1787879,0.886230,-0.028320,-0.470703,-7.195122,-2.073171,2.195122,17.143751,-37.062500,0.162500,0.0,1.000000,0.000000,0.000000,0.000000
1782117288.463856,1787892,0.882324,-0.027832,-0.470215,-7.256098,-1.829268,2.439024,17.143751,-37.062500,0.162500,0.0,1.000000,0.000000,0.000000,0.000000
1782117288.470856,1787899,0.886719,-0.019531,-0.470215,-7.317073,-1.463415,2.621951,17.106251,-37.062500,0.237500,0.0,1.000000,0.000000,0.000000,0.000000
1782117288.482856,1787911,0.890625,-0.012695,-0.468262,-7.743903,-0.792683,2.682927,17.106251,-37.062500,0.237500,0.0,1.000000,0.000000,0.000000,0.000000
1782117288.490856,1787919,0.881348,-0.011230,-0.465332,-7.987805,-0.304878,2.865854,17.118750,-37.062500,0.218750,0.0,1.000000,0.000000,0.000000,0.000000
1782117288.502856,1787931,0.875000,-0.012207,-0.462402,-7.987805,-0.609756,2.987805,17.118750,-37.062500,0.218750,0.0,1.000000,0.000000,0.000000,0.000000
1782117288.511856,1787940,0.893066,-0.014648,-0.465332,-7.743903,-1.341463,2.621951,17.218750,-36.968750,0.168750,0.0,1.000000,0.000000,0.000000,0.000000
1782117288.521856,1787950,0.909668,-0.013672,-0.470215,-7.378049,-0.853659,2.256098,17.218750,-36.968750,0.168750,0.0,1.000000,0.000000,0.000000,0.000000
1782117288.531856,1787960,0.902832,-0.008301,-0.465820,-6.707317,0.121951,2.500000,17.050001,-37.143749,0.318750,0.0,1.000000,0.000000,0.000000,0.000000
1782117288.541856,1787970,0.897461,0.000977,-0.456543,-6.524390,0.731707,2.682927,17.050001,-37.143749,0.318750,0.0,1.000000,0.000000,0.000000,0.000000
1782117288.551856,1787980,0.889648,0.005371,-0.453125,-6.768293,1.219512,2.621951,17.062500,-37.106251,0.381250,0.0,1.000000,0.000000,0.000000,0.000000
1782117288.560856,1787989,0.886230,0.005371,-0.449707,-7.195122,1.158537,2.743902,17.062500,-37.106251,0.381250,0.0,1.000000,0.000000,0.000000,0.000000
1782117288.570856,1787999,0.883789,-0.004883,-0.454102,-7.500000,1.097561,2.743902,17.000000,-37.243752,0.468750,0.0,1.000000,0.000000,0.000000,0.000000
1782117288.580856,1788009,0.881836,-0.012207,-0.457031,-7.682927,0.853659,2.926829,17.000000,-37.243752,0.468750,0.0,1.000000,0.000000,0.000000,0.000000
1782117288.590856,1788019,0.877441,-0.017578,-0.458496,-7.804878,0.853659,3.048780,16.943750,-37.281250,0.556250,0.0,1.000000,0.000000,0.000000,0.000000
1782117288.600856,1788029,0.868164,-0.023926,-0.458984,-8.048780,0.487805,3.475610,16.943750,-37.281250,0.556250,0.0,1.000000,0.000000,0.000000,0.000000
1782117288.610856,1788039,0.860352,-0.028809,-0.461426,-8.292683,-0.304878,3.780488,16.931250,-37.306252,0.650000,0.0,1.000000,0.000000,0.000000,0.000000
1782117288.623856,1788052,0.860352,-0.033203,-0.465332,-8.475610,-1.219512,3.780488,16.931250,-37.306252,0.650000,0.0,1.000000,0.000000,0.000000,0.000000
1782117288.630856,1788059,0.866211,-0.043457,-0.474121,-8.292683,-2.073171,3.536585,16.887501,-37.356251,0.631250,0.0,1.000000,0.000000,0.000000,0.000000
1782117288.640856,1788069,0.875977,-0.052734,-0.483398,-7.743903,-2.621951,3.231707,16.887501,-37.356251,0.631250,0.0,1.000000,0.000000,0.000000,0.000000
1782117288.650856,1788079,0.886230,-0.059082,-0.485352,-6.463415,-2.439024,2.865854,16.868750,-37.381252,0.693750,0.0,1.000000,0.000000,0.000000,0.000000
1782117288.662856,1788091,0.889648,-0.061035,-0.481934,-4.695122,-1.829268,2.621951,16.868750,-37.381252,0.693750,0.0,1.000000,0.000000,0.000000,0.000000
1782117288.671856,1788100,0.893066,-0.052246,-0.476074,-3.048780,-1.402439,2.195122,16.868750,-37.362499,0.700000,0.0,1.000000,0.000000,0.000000,0.000000
1782117288.680856,1788109,0.900879,-0.039062,-0.478516,-2.073171,-0.975610,1.646341,16.868750,-37.362499,0.700000,0.0,1.000000,0.000000,0.000000,0.000000
1782117288.690856,1788119,0.904785,-0.027344,-0.478027,-1.219512,-0.243902,1.036585,16.837500,-37.375000,0.668750,0.0,1.000000,0.000000,0.000000,0.000000
1782117288.701856,1788130,0.899902,-0.020508,-0.471680,-0.243902,0.243902,0.548781,16.837500,-37.375000,0.668750,0.0,1.000000,0.000000,0.000000,0.000000
1782117288.710856,1788139,0.893066,-0.008789,-0.458496,1.036585,0.792683,0.243902,16.756250,-37.437500,0.743750,0.0,1.000000,0.000000,0.000000,0.000000
1782117288.720856,1788149,0.886230,-0.006348,-0.448242,1.402439,1.219512,-0.121951,16.756250,-37.437500,0.743750,0.0,1.000000,0.000000,0.000000,0.000000
1782117288.730856,1788159,0.887207,0.003418,-0.440430,2.195122,1.280488,-0.731707,16.768751,-37.450001,0.743750,0.0,1.000000,0.000000,0.000000,0.000000
1782117288.741856,1788170,0.891602,0.001465,-0.448242,2.195122,1.219512,-1.219512,16.768751,-37.450001,0.743750,0.0,1.000000,0.000000,0.000000,0.000000
1782117288.752856,1788181,0.894531,0.011230,-0.457520,1.707317,1.097561,-1.524390,16.750000,-37.437500,0.787500,0.0,1.000000,0.000000,0.000000,0.000000
1782117288.760856,1788189,0.891113,0.016113,-0.464844,0.853659,0.792683,-1.707317,16.750000,-37.437500,0.787500,0.0,1.000000,0.000000,0.000000,0.000000
1782117288.770856,1788199,0.886719,0.009766,-0.475586,0.000000,0.060976,-1.829268,16.818750,-37.412502,0.700000,0.0,1.000000,0.000000,0.000000,0.000000
1782117288.783856,1788212,0.887207,0.007324,-0.474609,0.182927,-0.975610,-1.951220,16.925001,-37.287502,0.668750,0.0,1.000000,0.000000,0.000000,0.000000
1782117288.791856,1788220,0.895020,-0.006836,-0.477539,0.731707,-1.341463,-2.256098,16.925001,-37.287502,0.668750,0.0,1.000000,0.000000,0.000000,0.000000
1782117288.800856,1788229,0.894043,-0.016113,-0.477051,1.890244,-0.975610,-2.560976,16.925001,-37.287502,0.668750,0.0,1.000000,0.000000,0.000000,0.000000
1782117288.810856,1788239,0.889160,-0.018555,-0.469727,2.560976,-0.914634,-2.621951,16.887501,-37.375000,0.743750,0.0,1.000000,0.000000,0.000000,0.000000
1782117288.820856,1788249,0.887695,-0.023926,-0.470703,3.841464,-0.975610,-3.231707,16.887501,-37.375000,0.743750,0.0,1.000000,0.000000,0.000000,0.000000
1782117288.830856,1788259,0.882812,-0.030762,-0.473633,5.487805,-1.036585,-3.841464,16.850000,-37.443752,0.706250,0.0,1.000000,0.000000,0.000000,0.000000
1782117288.840856,1788269,0.880371,-0.040527,-0.483398,8.353659,-1.402439,-4.268293,16.850000,-37.443752,0.706250,0.0,1.000000,0.000000,0.000000,0.000000
1782117288.850856,1788279,0.884766,-0.038086,-0.485352,11.707317,-1.768293,-4.634146,16.925001,-37.337502,0.700000,0.0,1.000000,0.000000,0.000000,0.000000
1782117288.860856,1788289,0.885742,-0.029785,-0.482910,14.207317,-1.646341,-4.634146,16.925001,-37.337502,0.700000,0.0,1.000000,0.000000,0.000000,0.000000
1782117288.870856,1788299,0.883301,-0.023926,-0.476562,15.487805,-1.463415,-4.512195,16.975000,-37.343750,0.606250,0.0,1.000000,0.000000,0.000000,0.000000
1782117288.880856,1788309,0.880371,-0.015137,-0.469238,15.487805,-1.280488,-4.268293,16.975000,-37.343750,0.606250,0.0,1.000000,0.000000,0.000000,0.000000
1782117288.890856,1788319,0.881836,-0.007324,-0.464355,14.512196,-1.402439,-4.085366,16.937500,-37.331249,0.393750,0.0,1.000000,0.000000,0.000000,0.000000
1782117288.900856,1788329,0.882812,0.000977,-0.463379,12.865854,-1.585366,-3.902439,16.937500,-37.331249,0.393750,0.0,1.000000,0.000000,0.000000,0.000000
1782117288.910856,1788339,0.881348,0.007812,-0.462402,10.975610,-1.707317,-3.780488,17.006250,-37.256252,0.243750,0.0,1.000000,0.000000,0.000000,0.000000
1782117288.921856,1788350,0.880859,0.006348,-0.460938,9.329268,-2.012195,-3.536585,17.006250,-37.256252,0.243750,0.0,1.000000,0.000000,0.000000,0.000000
1782117288.930856,1788359,0.879883,0.002930,-0.459961,7.682927,-2.317073,-3.231707,16.993750,-37.243752,0.150000,0.0,1.000000,0.000000,0.000000,0.000000
1782117288.941856,1788370,0.886719,-0.001953,-0.457031,6.585366,-2.743902,-3.109756,16.993750,-37.243752,0.150000,0.0,1.000000,0.000000,0.000000,0.000000
1782117288.950856,1788379,0.897461,-0.010254,-0.456055,5.792683,-2.256098,-2.865854,17.050001,-37.281250,0.125000,0.0,1.000000,0.000000,0.000000,0.000000
1782117288.960856,1788389,0.898926,-0.010254,-0.457520,5.121951,-1.280488,-2.439024,17.050001,-37.281250,0.125000,0.0,1.000000,0.000000,0.000000,0.000000
1782117288.970856,1788399,0.898926,-0.001953,-0.464355,3.841464,-0.548781,-2.195122,17.037500,-37.212502,-0.037500,0.0,1.000000,0.000000,0.000000,0.000000
1782117288.980856,1788409,0.894531,0.002930,-0.472168,2.073171,0.243902,-1.951220,17.037500,-37.212502,-0.037500,0.0,1.000000,0.000000,0.000000,0.000000
1782117288.990856,1788419,0.886719,-0.001953,-0.472656,0.609756,0.548781,-1.646341,17.037500,-37.325001,0.068750,0.0,1.000000,0.000000,0.000000,0.000000
1782117289.000856,1788429,0.885742,-0.009277,-0.464355,-0.426829,0.365854,-1.280488,17.037500,-37.325001,0.068750,0.0,1.000000,0.000000,0.000000,0.000000
1782117289.010856,1788439,0.890137,-0.015625,-0.454590,-1.646341,0.304878,-0.853659,17.175001,-37.206249,0.031250,0.0,1.000000,0.000000,0.000000,0.000000
1782117289.020856,1788449,0.891113,-0.024414,-0.449219,-2.500000,0.609756,-0.609756,17.175001,-37.206249,0.031250,0.0,1.000000,0.000000,0.000000,0.000000
1782117289.031856,1788460,0.889160,-0.028320,-0.445801,-2.682927,0.853659,-0.487805,17.081251,-37.275002,0.087500,0.0,1.000000,0.000000,0.000000,0.000000
1782117289.040856,1788469,0.885742,-0.029297,-0.447754,-2.073171,0.914634,-0.487805,17.081251,-37.275002,0.087500,0.0,1.000000,0.000000,0.000000,0.000000
1782117289.050856,1788479,0.881348,-0.033203,-0.457031,-0.975610,0.670732,-0.670732,17.156250,-37.193752,0.125000,0.0,1.000000,0.000000,0.000000,0.000000
1782117289.060856,1788489,0.881836,-0.038574,-0.469727,1.036585,0.182927,-0.914634,17.156250,-37.193752,0.125000,0.0,1.000000,0.000000,0.000000,0.000000
1782117289.070856,1788499,0.882324,-0.041504,-0.475098,2.865854,0.000000,-0.853659,17.162500,-37.243752,0.137500,0.0,1.000000,0.000000,0.000000,0.000000
1782117289.080856,1788509,0.878418,-0.038574,-0.475098,3.963415,-0.182927,-0.609756,17.162500,-37.243752,0.137500,0.0,1.000000,0.000000,0.000000,0.000000
1782117289.090856,1788519,0.872559,-0.035156,-0.472168,4.329268,-0.365854,-0.548781,17.143751,-37.168751,0.093750,0.0,1.000000,0.000000,0.000000,0.000000
1782117289.100856,1788529,0.870605,-0.032715,-0.465820,4.390244,-0.487805,-0.731707,17.093750,-37.218750,0.093750,0.0,1.000000,0.000000,0.000000,0.000000
1782117289.111856,1788540,0.868652,-0.036133,-0.463867,4.756098,-0.670732,-1.158537,17.093750,-37.218750,0.093750,0.0,1.000000,0.000000,0.000000,0.000000
1782117289.121856,1788550,0.865234,-0.038574,-0.465332,5.609756,-0.792683,-1.768293,17.156250,-37.200001,0.025000,0.0,1.000000,0.000000,0.000000,0.000000
1782117289.130856,1788559,0.869141,-0.042969,-0.470215,6.646342,-1.341463,-2.560976,17.156250,-37.200001,0.025000,0.0,1.000000,0.000000,0.000000,0.000000
1782117289.141856,1788570,0.884766,-0.046875,-0.481445,7.987805,-1.646341,-3.353659,17.093750,-37.237499,0.037500,0.0,1.000000,0.000000,0.000000,0.000000
1782117289.150856,1788579,0.898438,-0.044434,-0.488281,8.963415,-1.219512,-3.658537,17.093750,-37.237499,0.037500,0.0,1.000000,0.000000,0.000000,0.000000
1782117289.161856,1788590,0.900391,-0.035156,-0.484863,9.329268,-0.365854,-3.597561,17.193750,-37.087502,-0.187500,0.0,1.000000,0.000000,0.000000,0.000000
1782117289.170856,1788599,0.897461,-0.021973,-0.477539,9.451220,0.731707,-3.597561,17.193750,-37.087502,-0.187500,0.0,1.000000,0.000000,0.000000,0.000000
1782117289.180856,1788609,0.896973,0.000977,-0.461426,9.329268,1.707317,-3.597561,17.100000,-37.181252,-0.087500,0.0,1.000000,0.000000,0.000000,0.000000
1782117289.191856,1788620,0.895996,0.016113,-0.446289,7.865854,2.073171,-3.231707,17.100000,-37.181252,-0.087500,0.0,1.000000,0.000000,0.000000,0.000000
1782117289.200856,1788629,0.895996,0.017090,-0.437500,6.036585,2.378049,-2.865854,17.243750,-37.043751,-0.162500,0.0,1.000000,0.000000,0.000000,0.000000
1782117289.210856,1788639,0.900391,0.018066,-0.431641,4.024390,2.439024,-2.256098,17.243750,-37.043751,-0.162500,0.0,1.000000,0.000000,0.000000,0.000000
1782117289.220856,1788649,0.909180,0.014160,-0.431641,1.585366,2.743902,-1.219512,17.131250,-37.162502,-0.081250,0.0,1.000000,0.000000,0.000000,0.000000
1782117289.230856,1788659,0.904785,0.005371,-0.438477,-0.670732,3.475610,-0.243902,17.131250,-37.162502,-0.081250,0.0,1.000000,0.000000,0.000000,0.000000
1782117289.240856,1788669,0.895508,-0.007324,-0.450195,-2.134146,3.780488,0.487805,17.218750,-37.012501,-0.031250,0.0,1.000000,0.000000,0.000000,0.000000
1782117289.250856,1788679,0.890137,-0.018066,-0.455566,-2.560976,3.780488,0.914634,17.218750,-37.012501,-0.031250,0.0,1.000000,0.000000,0.000000,0.000000
1782117289.261856,1788690,0.881348,-0.026855,-0.469238,-2.317073,3.902439,0.975610,17.181250,-37.193752,0.137500,0.0,1.000000,0.000000,0.000000,0.000000
1782117289.270856,1788699,0.881348,-0.026855,-0.469238,-2.317073,3.902439,0.975610,17.181250,-37.193752,0.137500,0.0,1.000000,0.000000,0.000000,0.000000
1782117289.281856,1788710,0.880371,-0.028320,-0.473145,-1.707317,4.024390,0.792683,17.175001,-37.093750,0.125000,0.0,1.000000,0.000000,0.000000,0.000000
1782117289.291856,1788720,0.875000,-0.018066,-0.478027,-0.060976,3.597561,0.365854,17.175001,-37.093750,0.125000,0.0,1.000000,0.000000,0.000000,0.000000
1782117289.300856,1788729,0.872559,-0.011719,-0.476562,0.609756,3.231707,0.121951,17.162500,-37.006252,0.181250,0.0,1.000000,0.000000,0.000000,0.000000
1782117289.311856,1788740,0.872559,-0.011719,-0.476562,0.609756,3.231707,0.121951,17.162500,-37.006252,0.181250,0.0,1.000000,0.000000,0.000000,0.000000
1782117289.321856,1788750,0.876465,-0.009277,-0.468750,1.158537,2.073171,-0.243902,17.162500,-37.043751,0.181250,0.0,1.000000,0.000000,0.000000,0.000000
1782117289.330856,1788759,0.884766,-0.010742,-0.459473,1.097561,2.012195,-0.609756,17.162500,-37.043751,0.181250,0.0,1.000000,0.000000,0.000000,0.000000
1782117289.340856,1788769,0.891602,-0.017578,-0.451660,1.219512,2.195122,-0.853659,17.106251,-37.100002,0.237500,0.0,1.000000,0.000000,0.000000,0.000000
1782117289.350856,1788779,0.896973,-0.020020,-0.448242,0.853659,2.378049,-0.853659,17.106251,-37.100002,0.237500,0.0,1.000000,0.000000,0.000000,0.000000
1782117289.360856,1788789,0.898438,-0.017578,-0.444824,0.426829,2.500000,-0.731707,17.137501,-37.100002,0.293750,0.0,1.000000,0.000000,0.000000,0.000000
1782117289.370856,1788799,0.899414,-0.018555,-0.439453,0.121951,2.500000,-0.609756,17.137501,-37.100002,0.293750,0.0,1.000000,0.000000,0.000000,0.000000
1782117289.380856,1788809,0.896973,-0.024414,-0.435547,-0.243902,2.256098,-0.182927,17.093750,-37.218750,0.406250,0.0,1.000000,0.000000,0.000000,0.000000
1782117289.390856,1788819,0.898438,-0.026855,-0.431641,-0.548781,1.707317,0.182927,17.093750,-37.218750,0.406250,0.0,1.000000,0.000000,0.000000,0.000000
1782117289.402856,1788831,0.902832,-0.031738,-0.431152,-0.853659,1.524390,0.426829,17.075001,-37.187500,0.431250,0.0,1.000000,0.000000,0.000000,0.000000
1782117289.410856,1788839,0.909180,-0.038086,-0.430176,-0.975610,1.829268,0.426829,17.075001,-37.187500,0.431250,0.0,1.000000,0.000000,0.000000,0.000000
1782117289.420856,1788849,0.911133,-0.038086,-0.431641,-1.036585,2.439024,0.487805,17.075001,-37.100002,0.462500,0.0,1.000000,0.000000,0.000000,0.000000
1782117289.430856,1788859,0.908203,-0.030762,-0.435059,-0.792683,2.926829,0.304878,17.075001,-37.100002,0.462500,0.0,1.000000,0.000000,0.000000,0.000000
1782117289.440856,1788869,0.906250,-0.028809,-0.434570,-0.304878,3.109756,-0.060976,17.081251,-37.181252,0.556250,0.0,1.000000,0.000000,0.000000,0.000000
1782117289.450856,1788879,0.904297,-0.027832,-0.435059,0.060976,3.414634,-0.365854,17.081251,-37.181252,0.556250,0.0,1.000000,0.000000,0.000000,0.000000
1782117289.460856,1788889,0.901855,-0.028320,-0.437012,0.487805,3.658537,-0.609756,17.050001,-37.125000,0.593750,0.0,1.000000,0.000000,0.000000,0.000000
1782117289.470856,1788899,0.897461,-0.026855,-0.438965,0.731707,3.658537,-0.731707,17.050001,-37.125000,0.593750,0.0,1.000000,0.000000,0.000000,0.000000
1782117289.480856,1788909,0.891113,-0.024902,-0.439453,0.914634,3.231707,-0.792683,17.093750,-36.981251,0.543750,0.0,1.000000,0.000000,0.000000,0.000000
1782117289.490856,1788919,0.889160,-0.024414,-0.440918,1.036585,2.743902,-0.792683,17.093750,-36.981251,0.543750,0.0,1.000000,0.000000,0.000000,0.000000
1782117289.500856,1788929,0.895996,-0.023926,-0.442871,1.280488,2.073171,-0.975610,17.137501,-36.912502,0.568750,0.0,1.000000,0.000000,0.000000,0.000000
1782117289.511856,1788940,0.909668,-0.020996,-0.443848,1.219512,1.890244,-1.097561,17.137501,-36.912502,0.568750,0.0,1.000000,0.000000,0.000000,0.000000
1782117289.520856,1788949,0.911621,-0.020508,-0.439453,0.792683,2.560976,-0.731707,16.968750,-37.106251,0.737500,0.0,1.000000,0.000000,0.000000,0.000000
1782117289.530856,1788959,0.904785,-0.020020,-0.431641,0.121951,3.170732,-0.304878,16.968750,-37.106251,0.737500,0.0,1.000000,0.000000,0.000000,0.000000
1782117289.541856,1788970,0.902832,-0.019531,-0.424316,-0.548781,3.353659,-0.060976,16.937500,-37.200001,0.806250,0.0,1.000000,0.000000,0.000000,0.000000
1782117289.551856,1788980,0.904297,-0.017578,-0.428223,-1.036585,3.658537,0.060976,16.937500,-37.200001,0.806250,0.0,1.000000,0.000000,0.000000,0.000000
1782117289.561856,1788990,0.899902,-0.011719,-0.432129,-1.341463,3.963415,0.121951,17.043751,-37.100002,0.837500,0.0,1.000000,0.000000,0.000000,0.000000
1782117289.573856,1789002,0.894531,-0.009277,-0.436035,-1.646341,4.024390,0.060976,17.043751,-37.100002,0.837500,0.0,1.000000,0.000000,0.000000,0.000000
1782117289.581856,1789010,0.887695,-0.013672,-0.443359,-1.768293,3.902439,0.000000,16.981251,-37.131252,0.875000,0.0,1.000000,0.000000,0.000000,0.000000
1782117289.592856,1789021,0.883789,-0.016113,-0.451660,-1.646341,3.475610,0.060976,16.981251,-37.131252,0.875000,0.0,1.000000,0.000000,0.000000,0.000000
1782117289.600856,1789029,0.881836,-0.022461,-0.460938,-1.280488,2.987805,-0.060976,16.993750,-37.093750,1.056250,0.0,1.000000,0.000000,0.000000,0.000000
1782117289.610856,1789039,0.882812,-0.026855,-0.466309,-0.548781,2.621951,-0.243902,16.993750,-37.093750,1.056250,0.0,1.000000,0.000000,0.000000,0.000000
1782117289.620856,1789049,0.882324,-0.030273,-0.469727,0.304878,2.743902,-0.426829,16.993750,-37.125000,1.031250,0.0,1.000000,0.000000,0.000000,0.000000
1782117289.631856,1789060,0.879395,-0.031250,-0.468262,1.219512,2.621951,-0.609756,16.993750,-37.125000,1.031250,0.0,1.000000,0.000000,0.000000,0.000000
1782117289.640856,1789069,0.878418,-0.028809,-0.461426,2.195122,2.439024,-1.036585,17.075001,-37.037502,1.000000,0.0,1.000000,0.000000,0.000000,0.000000
1782117289.650856,1789079,0.881348,-0.026855,-0.453613,2.926829,2.378049,-1.402439,17.075001,-37.037502,1.000000,0.0,1.000000,0.000000,0.000000,0.000000
1782117289.660856,1789089,0.885254,-0.026855,-0.445801,3.475610,1.951220,-1.585366,16.956251,-37.118752,1.081250,0.0,1.000000,0.000000,0.000000,0.000000
1782117289.671856,1789100,0.895020,-0.024414,-0.438965,3.780488,1.585366,-1.951220,16.956251,-37.118752,1.081250,0.0,1.000000,0.000000,0.000000,0.000000
1782117289.680856,1789109,0.902832,-0.020508,-0.432617,4.207317,1.219512,-2.073171,16.968750,-37.068752,1.087500,0.0,1.000000,0.000000,0.000000,0.000000
1782117289.691856,1789120,0.906738,-0.016113,-0.427734,4.573171,1.158537,-2.134146,16.968750,-37.068752,1.087500,0.0,1.000000,0.000000,0.000000,0.000000
1782117289.701856,1789130,0.909180,-0.010254,-0.421387,4.817073,0.914634,-2.195122,17.025000,-37.100002,1.093750,0.0,1.000000,0.000000,0.000000,0.000000
1782117289.712856,1789141,0.911621,-0.007324,-0.412109,5.000000,1.036585,-2.195122,17.025000,-37.100002,1.093750,0.0,1.000000,0.000000,0.000000,0.000000
1782117289.721856,1789150,0.910156,-0.010254,-0.405762,4.817073,1.158537,-1.951220,17.125000,-36.875000,0.987500,0.0,1.000000,0.000000,0.000000,0.000000
1782117289.731856,1789160,0.906738,-0.012695,-0.404297,4.024390,1.158537,-1.585366,17.125000,-36.875000,0.987500,0.0,1.000000,0.000000,0.000000,0.000000
1782117289.740856,1789169,0.902344,-0.013184,-0.405762,2.926829,1.036585,-1.341463,17.050001,-37.062500,1.125000,0.0,1.000000,0.000000,0.000000,0.000000
1782117289.753856,1789182,0.898926,-0.015137,-0.407715,1.829268,0.792683,-1.158537,17.050001,-37.062500,1.125000,0.0,1.000000,0.000000,0.000000,0.000000
1782117289.760856,1789189,0.896973,-0.022461,-0.414551,0.670732,0.426829,-1.097561,17.181250,-36.731251,0.981250,0.0,1.000000,0.000000,0.000000,0.000000
1782117289.770856,1789199,0.898926,-0.025391,-0.420898,0.060976,-0.121951,-0.975610,17.181250,-36.731251,0.981250,0.0,1.000000,0.000000,0.000000,0.000000
1782117289.780856,1789209,0.901855,-0.027344,-0.423828,-0.487805,-0.487805,-0.792683,17.137501,-36.850002,1.031250,0.0,1.000000,0.000000,0.000000,0.000000
1782117289.790856,1789219,0.904297,-0.026855,-0.428223,-1.219512,-0.487805,-0.426829,17.137501,-36.850002,1.031250,0.0,1.000000,0.000000,0.000000,0.000000
1782117289.800856,1789229,0.900879,-0.023438,-0.432617,-2.012195,-0.548781,-0.060976,17.131250,-36.875000,1.081250,0.0,1.000000,0.000000,0.000000,0.000000
1782117289.810856,1789239,0.900391,-0.017090,-0.431641,-2.621951,-0.792683,0.121951,17.131250,-36.875000,1.081250,0.0,1.000000,0.000000,0.000000,0.000000
1782117289.820856,1789249,0.900391,-0.016602,-0.428223,-2.987805,-0.975610,0.243902,17.012501,-37.025002,1.200000,0.0,1.000000,0.000000,0.000000,0.000000
1782117289.832856,1789261,0.901855,-0.018555,-0.425293,-2.865854,-1.097561,0.121951,17.012501,-37.025002,1.200000,0.0,1.000000,0.000000,0.000000,0.000000
1782117289.840856,1789269,0.907227,-0.020996,-0.424316,-2.256098,-1.036585,-0.121951,17.037500,-36.975002,1.137500,0.0,1.000000,0.000000,0.000000,0.000000
1782117289.850856,1789279,0.909668,-0.024902,-0.423828,-1.463415,-0.853659,-0.304878,17.037500,-36.975002,1.137500,0.0,1.000000,0.000000,0.000000,0.000000
1782117289.860856,1789289,0.909668,-0.026855,-0.425781,-0.731707,-0.731707,-0.426829,16.993750,-37.062500,1.181250,0.0,1.000000,0.000000,0.000000,0.000000
1782117289.872856,1789301,0.908203,-0.028320,-0.430176,-0.060976,-0.792683,-0.670732,16.993750,-37.062500,1.181250,0.0,1.000000,0.000000,0.000000,0.000000
1782117289.881856,1789310,0.907715,-0.029297,-0.429199,0.731707,-0.731707,-0.853659,17.000000,-37.081249,1.162500,0.0,1.000000,0.000000,0.000000,0.000000
1782117289.890856,1789319,0.907227,-0.030273,-0.433594,1.158537,-0.731707,-1.036585,17.000000,-37.081249,1.162500,0.0,1.000000,0.000000,0.000000,0.000000
1782117289.900856,1789329,0.902832,-0.025879,-0.433594,1.463415,-0.548781,-1.097561,17.037500,-36.868752,1.100000,0.0,1.000000,0.000000,0.000000,0.000000
1782117289.912856,1789341,0.899902,-0.024902,-0.433594,1.890244,-0.609756,-1.219512,17.037500,-36.868752,1.100000,0.0,1.000000,0.000000,0.000000,0.000000
1782117289.920856,1789349,0.902344,-0.022949,-0.435059,2.073171,-0.548781,-1.280488,17.181250,-36.768749,0.993750,0.0,1.000000,0.000000,0.000000,0.000000
1782117289.930856,1789359,0.899902,-0.020508,-0.434082,2.256098,-0.304878,-1.158537,17.181250,-36.768749,0.993750,0.0,1.000000,0.000000,0.000000,0.000000
1782117289.941856,1789370,0.897461,-0.019043,-0.434082,2.256098,-0.426829,-0.975610,17.050001,-37.025002,1.168750,0.0,1.000000,0.000000,0.000000,0.000000
1782117289.953856,1789382,0.898438,-0.016602,-0.431641,2.134146,-0.487805,-0.914634,17.050001,-37.025002,1.168750,0.0,1.000000,0.000000,0.000000,0.000000
1782117289.961856,1789390,0.900391,-0.014648,-0.432617,1.829268,-0.548781,-0.853659,17.043751,-36.981251,1.025000,0.0,1.000000,0.000000,0.000000,0.000000
1782117289.970856,1789399,0.901855,-0.014160,-0.431152,1.341463,-0.426829,-0.731707,17.043751,-36.981251,1.025000,0.0,1.000000,0.000000,0.000000,0.000000
1782117289.980856,1789409,0.903320,-0.014160,-0.433105,0.792683,-0.243902,-0.487805,16.987501,-36.975002,1.106250,0.0,1.000000,0.000000,0.000000,0.000000
1782117289.992856,1789421,0.901367,-0.013672,-0.431152,0.426829,-0.060976,-0.548781,16.987501,-36.975002,1.106250,0.0,1.000000,0.000000,0.000000,0.000000
1782117290.000856,1789429,0.899414,-0.015625,-0.429688,0.243902,0.060976,-0.487805,17.056250,-36.962502,1.075000,0.0,1.000000,0.000000,0.000000,0.000000
1782117290.010856,1789439,0.899902,-0.016113,-0.430664,-0.243902,-0.121951,-0.426829,17.056250,-36.962502,1.075000,0.0,1.000000,0.000000,0.000000,0.000000
1782117290.020856,1789449,0.905762,-0.016602,-0.432129,-0.548781,-0.182927,-0.365854,17.043751,-37.068752,1.143750,0.0,1.000000,0.000000,0.000000,0.000000
1782117290.033856,1789462,0.907715,-0.018555,-0.428711,-0.853659,-0.060976,-0.182927,17.043751,-37.068752,1.143750,0.0,1.000000,0.000000,0.000000,0.000000
1782117290.040856,1789469,0.907715,-0.018555,-0.428711,-0.853659,-0.060976,-0.182927,17.037500,-36.962502,1.125000,0.0,1.000000,0.000000,0.000000,0.000000
1782117290.050856,1789479,0.909668,-0.019531,-0.428223,-0.914634,0.243902,-0.182927,17.037500,-36.962502,1.125000,0.0,1.000000,0.000000,0.000000,0.000000
1782117290.060856,1789489,0.908691,-0.020996,-0.427246,-0.792683,0.548781,-0.121951,16.993750,-37.037502,1.150000,0.0,1.000000,0.000000,0.000000,0.000000
1782117290.072856,1789501,0.903809,-0.025391,-0.426270,-0.548781,0.792683,0.060976,16.993750,-37.037502,1.150000,0.0,1.000000,0.000000,0.000000,0.000000
1782117290.080856,1789509,0.903809,-0.025391,-0.426270,-0.548781,0.792683,0.060976,16.993750,-37.143749,1.143750,0.0,1.000000,0.000000,0.000000,0.000000
1782117290.090856,1789519,0.902832,-0.025879,-0.425781,-0.426829,0.670732,0.000000,16.993750,-37.143749,1.143750,0.0,1.000000,0.000000,0.000000,0.000000
1782117290.100856,1789529,0.904297,-0.028809,-0.426270,-0.304878,0.548781,0.060976,17.031250,-37.012501,1.150000,0.0,1.000000,0.000000,0.000000,0.000000
1782117290.114856,1789543,0.906250,-0.024902,-0.428223,0.121951,0.609756,-0.243902,17.075001,-36.950001,1.125000,0.0,1.000000,0.000000,0.000000,0.000000
1782117290.121856,1789550,0.906250,-0.024902,-0.428223,0.121951,0.609756,-0.243902,17.075001,-36.950001,1.125000,0.0,1.000000,0.000000,0.000000,0.000000
1782117290.130856,1789559,0.906738,-0.021973,-0.429688,0.182927,0.670732,-0.243902,17.075001,-36.950001,1.125000,0.0,1.000000,0.000000,0.000000,0.000000
1782117290.140856,1789569,0.906738,-0.020996,-0.428711,0.243902,1.097561,-0.182927,16.987501,-37.043751,1.250000,0.0,1.000000,0.000000,0.000000,0.000000
1782117290.153856,1789582,0.904297,-0.020020,-0.428223,0.243902,1.158537,0.000000,16.987501,-37.043751,1.250000,0.0,1.000000,0.000000,0.000000,0.000000
1782117290.160856,1789589,0.902344,-0.019043,-0.427246,0.121951,1.219512,0.060976,17.006250,-37.018749,1.175000,0.0,1.000000,0.000000,0.000000,0.000000
1782117290.170856,1789599,0.901367,-0.020508,-0.428711,-0.182927,1.097561,0.060976,17.006250,-37.018749,1.175000,0.0,1.000000,0.000000,0.000000,0.000000
1782117290.181856,1789610,0.898926,-0.019043,-0.433594,-0.548781,0.975610,0.121951,16.931250,-37.118752,1.262500,0.0,1.000000,0.000000,0.000000,0.000000
1782117290.194856,1789623,0.891602,-0.019043,-0.436035,-0.670732,0.426829,0.060976,16.993750,-37.037502,1.275000,0.0,1.000000,0.000000,0.000000,0.000000
1782117290.200856,1789629,0.891602,-0.019043,-0.436035,-0.670732,0.426829,0.060976,16.993750,-37.037502,1.275000,0.0,1.000000,0.000000,0.000000,0.000000
1782117290.211856,1789640,0.900879,-0.021484,-0.433594,-0.609756,-0.365854,-0.121951,16.993750,-37.037502,1.275000,0.0,1.000000,0.000000,0.000000,0.000000
1782117290.220856,1789649,0.906738,-0.022461,-0.432129,-0.792683,-0.243902,-0.182927,16.993750,-37.068752,1.293750,0.0,1.000000,0.000000,0.000000,0.000000
1782117290.233856,1789662,0.907227,-0.022461,-0.428711,-0.792683,-0.060976,-0.060976,16.962500,-37.125000,1.318750,0.0,1.000000,0.000000,0.000000,0.000000
1782117290.241856,1789670,0.907227,-0.022949,-0.425781,-0.792683,0.121951,0.060976,16.962500,-37.125000,1.318750,0.0,1.000000,0.000000,0.000000,0.000000
1782117290.250856,1789679,0.908203,-0.020996,-0.421875,-0.914634,0.000000,0.182927,16.962500,-37.125000,1.318750,0.0,1.000000,0.000000,0.000000,0.000000
1782117290.260856,1789689,0.908691,-0.018555,-0.418945,-0.853659,0.182927,0.243902,17.025000,-37.062500,1.300000,0.0,1.000000,0.000000,0.000000,0.000000
1782117290.272856,1789701,0.907227,-0.018066,-0.418457,-0.914634,0.243902,0.365854,17.025000,-37.062500,1.300000,0.0,1.000000,0.000000,0.000000,0.000000
1782117290.280856,1789709,0.903320,-0.015625,-0.418945,-1.341463,0.060976,0.609756,16.993750,-37.125000,1.331250,0.0,1.000000,0.000000,0.000000,0.000000
1782117290.290856,1789719,0.901855,-0.013672,-0.418457,-1.890244,-0.243902,0.670732,16.993750,-37.125000,1.331250,0.0,1.000000,0.000000,0.000000,0.000000
1782117290.300856,1789729,0.900879,-0.015137,-0.420898,-2.256098,-0.426829,0.670732,17.037500,-36.931252,1.250000,0.0,1.000000,0.000000,0.000000,0.000000
1782117290.310856,1789739,0.899902,-0.016602,-0.423340,-2.500000,-0.548781,0.670732,17.037500,-36.931252,1.250000,0.0,1.000000,0.000000,0.000000,0.000000
1782117290.320856,1789749,0.900391,-0.019043,-0.427246,-2.378049,-0.731707,0.548781,16.925001,-37.168751,1.431250,0.0,1.000000,0.000000,0.000000,0.000000
1782117290.330856,1789759,0.898926,-0.022949,-0.428711,-1.890244,-0.792683,0.548781,16.925001,-37.168751,1.431250,0.0,1.000000,0.000000,0.000000,0.000000
1782117290.340856,1789769,0.899902,-0.024902,-0.430176,-1.341463,-1.036585,0.365854,16.906250,-37.193752,1.368750,0.0,1.000000,0.000000,0.000000,0.000000
1782117290.351856,1789780,0.901855,-0.026855,-0.430664,-0.792683,-1.036585,0.182927,16.906250,-37.193752,1.368750,0.0,1.000000,0.000000,0.000000,0.000000
1782117290.360856,1789789,0.899902,-0.029297,-0.433105,-0.365854,-1.097561,0.121951,16.893751,-37.187500,1.375000,0.0,1.000000,0.000000,0.000000,0.000000
1782117290.370856,1789799,0.900391,-0.030273,-0.436035,0.000000,-1.219512,0.000000,16.893751,-37.187500,1.375000,0.0,1.000000,0.000000,0.000000,0.000000
1782117290.381856,1789810,0.900879,-0.028809,-0.436523,0.548781,-1.158537,-0.121951,16.956251,-37.056252,1.293750,0.0,1.000000,0.000000,0.000000,0.000000
1782117290.390856,1789819,0.900391,-0.029785,-0.435547,0.853659,-1.402439,-0.243902,16.956251,-37.056252,1.293750,0.0,1.000000,0.000000,0.000000,0.000000
1782117290.400856,1789829,0.903320,-0.025879,-0.432129,0.914634,-1.524390,-0.121951,16.906250,-37.131252,1.293750,0.0,1.000000,0.000000,0.000000,0.000000
1782117290.410856,1789839,0.900879,-0.025879,-0.436035,0.792683,-1.341463,-0.060976,16.906250,-37.131252,1.293750,0.0,1.000000,0.000000,0.000000,0.000000
1782117290.420856,1789849,0.900391,-0.022461,-0.434570,0.670732,-1.463415,0.182927,16.900000,-37.156250,1.325000,0.0,1.000000,0.000000,0.000000,0.000000
1782117290.433856,1789862,0.902832,-0.018555,-0.431641,0.182927,-1.768293,0.304878,16.918751,-37.206249,1.312500,0.0,1.000000,0.000000,0.000000,0.000000
1782117290.441856,1789870,0.908691,-0.015625,-0.427734,-0.426829,-1.707317,0.426829,16.918751,-37.206249,1.312500,0.0,1.000000,0.000000,0.000000,0.000000
1782117290.450856,1789879,0.907227,-0.019043,-0.426758,-0.914634,-1.219512,0.548781,16.918751,-37.206249,1.312500,0.0,1.000000,0.000000,0.000000,0.000000
1782117290.460856,1789889,0.901367,-0.018066,-0.426270,-1.097561,-0.975610,0.670732,16.925001,-37.137501,1.243750,0.0,1.000000,0.000000,0.000000,0.000000
1782117290.473856,1789902,0.898438,-0.021484,-0.427734,-1.036585,-1.036585,0.487805,16.881250,-37.225002,1.212500,0.0,1.000000,0.000000,0.000000,0.000000
1782117290.480856,1789909,0.900879,-0.024414,-0.430176,-1.097561,-1.158537,0.426829,16.881250,-37.225002,1.212500,0.0,1.000000,0.000000,0.000000,0.000000
1782117290.490856,1789919,0.902344,-0.027344,-0.434082,-1.158537,-1.097561,0.487805,16.881250,-37.225002,1.212500,0.0,1.000000,0.000000,0.000000,0.000000
1782117290.500856,1789929,0.899902,-0.029785,-0.437500,-1.036585,-0.975610,0.487805,16.925001,-37.168751,1.237500,0.0,1.000000,0.000000,0.000000,0.000000
1782117290.512856,1789941,0.895508,-0.032715,-0.438965,-0.731707,-1.097561,0.426829,16.925001,-37.168751,1.237500,0.0,1.000000,0.000000,0.000000,0.000000
1782117290.520856,1789949,0.897461,-0.032715,-0.441406,-0.121951,-1.402439,0.243902,16.906250,-37.237499,1.300000,0.0,1.000000,0.000000,0.000000,0.000000
1782117290.530856,1789959,0.898438,-0.034180,-0.442383,0.548781,-1.341463,0.121951,16.906250,-37.237499,1.300000,0.0,1.000000,0.000000,0.000000,0.000000
1782117290.540856,1789969,0.897949,-0.032715,-0.439453,1.219512,-1.158537,-0.121951,16.912500,-37.218750,1.218750,0.0,1.000000,0.000000,0.000000,0.000000
1782117290.550856,1789979,0.895996,-0.031250,-0.437988,1.829268,-0.975610,-0.304878,16.912500,-37.218750,1.218750,0.0,1.000000,0.000000,0.000000,0.000000
1782117290.560856,1789989,0.896484,-0.027832,-0.436523,2.134146,-0.975610,-0.487805,16.893751,-37.237499,1.193750,0.0,1.000000,0.000000,0.000000,0.000000
1782117290.570856,1789999,0.892578,-0.024414,-0.438477,2.134146,-0.975610,-0.670732,16.893751,-37.237499,1.193750,0.0,1.000000,0.000000,0.000000,0.000000
1782117290.580856,1790009,0.890137,-0.020508,-0.443359,2.134146,-1.219512,-0.792683,16.931250,-37.206249,1.156250,0.0,1.000000,0.000000,0.000000,0.000000
1782117290.593856,1790022,0.891113,-0.020508,-0.447266,2.012195,-1.585366,-0.914634,16.931250,-37.206249,1.156250,0.0,1.000000,0.000000,0.000000,0.000000
1782117290.600856,1790029,0.894043,-0.021973,-0.446777,1.890244,-1.768293,-0.914634,16.925001,-37.287502,1.137500,0.0,1.000000,0.000000,0.000000,0.000000
1782117290.610856,1790039,0.895508,-0.025879,-0.442871,1.951220,-1.768293,-0.914634,16.925001,-37.287502,1.137500,0.0,1.000000,0.000000,0.000000,0.000000
1782117290.620856,1790049,0.898438,-0.029785,-0.441895,2.073171,-1.829268,-1.036585,16.987501,-37.068752,0.981250,0.0,1.000000,0.000000,0.000000,0.000000
1782117290.632856,1790061,0.901855,-0.029785,-0.438965,2.256098,-1.585366,-1.097561,16.987501,-37.068752,0.981250,0.0,1.000000,0.000000,0.000000,0.000000
1782117290.640856,1790069,0.902832,-0.032227,-0.437988,2.378049,-1.219512,-1.219512,16.912500,-37.193752,1.056250,0.0,1.000000,0.000000,0.000000,0.000000
1782117290.651856,1790080,0.900879,-0.032715,-0.437988,2.560976,-0.914634,-1.280488,16.912500,-37.193752,1.056250,0.0,1.000000,0.000000,0.000000,0.000000
1782117290.662856,1790091,0.898926,-0.032715,-0.435547,2.804878,-0.853659,-1.402439,16.968750,-37.137501,1.018750,0.0,1.000000,0.000000,0.000000,0.000000
1782117290.670856,1790099,0.897461,-0.032227,-0.436035,3.048780,-0.914634,-1.585366,16.968750,-37.137501,1.018750,0.0,1.000000,0.000000,0.000000,0.000000
1782117290.680856,1790109,0.896484,-0.032715,-0.438965,3.231707,-0.975610,-1.646341,17.093750,-37.049999,0.925000,0.0,1.000000,0.000000,0.000000,0.000000
1782117290.691856,1790120,0.893555,-0.028809,-0.443848,3.353659,-1.158537,-1.829268,17.043751,-37.068752,0.875000,0.0,1.000000,0.000000,0.000000,0.000000
1782117290.700856,1790129,0.895508,-0.026367,-0.444336,3.719512,-1.158537,-1.890244,17.043751,-37.068752,0.875000,0.0,1.000000,0.000000,0.000000,0.000000
1782117290.711856,1790140,0.896484,-0.025879,-0.444336,3.902439,-1.341463,-1.829268,16.987501,-37.200001,0.925000,0.0,1.000000,0.000000,0.000000,0.000000
1782117290.720856,1790149,0.897461,-0.023926,-0.443848,3.841464,-1.341463,-1.768293,16.987501,-37.200001,0.925000,0.0,1.000000,0.000000,0.000000,0.000000
1782117290.731856,1790160,0.898438,-0.020508,-0.445312,3.841464,-1.097561,-1.768293,17.075001,-37.056252,0.756250,0.0,1.000000,0.000000,0.000000,0.000000
1782117290.740856,1790169,0.897949,-0.020508,-0.440430,3.658537,-0.975610,-1.768293,17.075001,-37.056252,0.756250,0.0,1.000000,0.000000,0.000000,0.000000
1782117290.751856,1790180,0.900391,-0.020020,-0.435059,3.353659,-0.792683,-1.646341,17.018751,-37.156250,0.875000,0.0,1.000000,0.000000,0.000000,0.000000
1782117290.760856,1790189,0.899902,-0.020508,-0.434082,2.865854,-0.548781,-1.585366,17.018751,-37.156250,0.875000,0.0,1.000000,0.000000,0.000000,0.000000
1782117290.770856,1790199,0.899414,-0.020020,-0.435547,2.560976,-0.487805,-1.524390,17.062500,-37.106251,0.725000,0.0,1.000000,0.000000,0.000000,0.000000
1782117290.782856,1790211,0.898438,-0.019043,-0.437988,2.195122,-0.487805,-1.402439,17.062500,-37.106251,0.725000,0.0,1.000000,0.000000,0.000000,0.000000
1782117290.790856,1790219,0.899414,-0.018066,-0.438477,1.951220,-0.426829,-1.341463,17.037500,-37.112499,0.762500,0.0,1.000000,0.000000,0.000000,0.000000
1782117290.800856,1790229,0.897461,-0.018555,-0.438477,1.768293,-0.365854,-1.280488,17.037500,-37.112499,0.762500,0.0,1.000000,0.000000,0.000000,0.000000
1782117290.810856,1790239,0.896973,-0.021484,-0.439453,1.585366,-0.365854,-1.219512,17.181250,-36.900002,0.700000,0.0,1.000000,0.000000,0.000000,0.000000
1782117290.820856,1790249,0.897461,-0.022949,-0.440918,1.463415,-0.426829,-1.097561,17.181250,-36.900002,0.700000,0.0,1.000000,0.000000,0.000000,0.000000
1782117290.830856,1790259,0.897461,-0.022949,-0.443359,1.219512,-0.304878,-1.097561,17.218750,-36.931252,0.606250,0.0,1.000000,0.000000,0.000000,0.000000
1782117290.840856,1790269,0.896973,-0.023926,-0.444824,1.036585,-0.243902,-1.097561,17.218750,-36.931252,0.606250,0.0,1.000000,0.000000,0.000000,0.000000
1782117290.850856,1790279,0.896484,-0.025391,-0.445801,0.853659,-0.243902,-1.036585,17.187500,-36.981251,0.693750,0.0,1.000000,0.000000,0.000000,0.000000
1782117290.860856,1790289,0.898438,-0.025391,-0.447754,0.731707,-0.365854,-0.975610,17.187500,-36.981251,0.693750,0.0,1.000000,0.000000,0.000000,0.000000
1782117290.871856,1790300,0.901855,-0.024902,-0.446777,0.731707,-0.304878,-0.914634,17.112501,-37.137501,0.750000,0.0,1.000000,0.000000,0.000000,0.000000
1782117290.881856,1790310,0.901367,-0.024414,-0.447266,0.731707,0.000000,-0.792683,17.112501,-37.137501,0.750000,0.0,1.000000,0.000000,0.000000,0.000000
1782117290.890856,1790319,0.898926,-0.026367,-0.445312,0.853659,0.182927,-0.792683,17.181250,-37.000000,0.625000,0.0,1.000000,0.000000,0.000000,0.000000
1782117290.900856,1790329,0.898438,-0.028320,-0.439453,1.036585,0.365854,-0.792683,17.181250,-37.000000,0.625000,0.0,1.000000,0.000000,0.000000,0.000000
1782117290.911856,1790340,0.896973,-0.029297,-0.437988,1.280488,0.487805,-0.792683,17.125000,-37.056252,0.725000,0.0,1.000000,0.000000,0.000000,0.000000
1782117290.921856,1790350,0.898438,-0.030762,-0.437500,1.341463,0.487805,-0.731707,17.125000,-37.056252,0.725000,0.0,1.000000,0.000000,0.000000,0.000000
1782117290.930856,1790359,0.901367,-0.028809,-0.437988,1.219512,0.609756,-0.731707,17.181250,-37.049999,0.793750,0.0,1.000000,0.000000,0.000000,0.000000
1782117290.940856,1790369,0.902832,-0.025879,-0.439453,0.914634,0.731707,-0.670732,17.181250,-37.049999,0.793750,0.0,1.000000,0.000000,0.000000,0.000000
1782117290.950856,1790379,0.902344,-0.022949,-0.438965,0.548781,0.609756,-0.548781,17.112501,-37.043751,0.712500,0.0,1.000000,0.000000,0.000000,0.000000
1782117290.960856,1790389,0.903320,-0.021973,-0.435059,0.121951,0.731707,-0.365854,17.112501,-37.043751,0.712500,0.0,1.000000,0.000000,0.000000,0.000000
1782117290.970856,1790399,0.903320,-0.020508,-0.431641,-0.304878,0.731707,-0.243902,17.206251,-36.937500,0.675000,0.0,1.000000,0.000000,0.000000,0.000000
1782117290.980856,1790409,0.904297,-0.020020,-0.430176,-0.792683,0.914634,-0.121951,17.206251,-36.937500,0.675000,0.0,1.000000,0.000000,0.000000,0.000000
1782117290.990856,1790419,0.901855,-0.021484,-0.427246,-1.402439,1.036585,0.121951,17.081251,-37.012501,0.731250,0.0,1.000000,0.000000,0.000000,0.000000
1782117291.001856,1790430,0.901367,-0.020508,-0.428711,-2.012195,1.036585,0.304878,17.081251,-37.012501,0.731250,0.0,1.000000,0.000000,0.000000,0.000000
1782117291.010856,1790439,0.901855,-0.019531,-0.430664,-2.439024,1.097561,0.548781,17.100000,-36.993752,0.831250,0.0,1.000000,0.000000,0.000000,0.000000
1782117291.020856,1790449,0.900391,-0.018066,-0.430664,-2.743902,1.036585,0.609756,17.100000,-36.993752,0.831250,0.0,1.000000,0.000000,0.000000,0.000000
1782117291.030856,1790459,0.900391,-0.019043,-0.429199,-3.048780,0.914634,0.731707,17.056250,-37.056252,0.843750,0.0,1.000000,0.000000,0.000000,0.000000
1782117291.041856,1790470,0.899414,-0.020508,-0.428711,-3.353659,0.792683,0.731707,17.056250,-37.056252,0.843750,0.0,1.000000,0.000000,0.000000,0.000000
1782117291.050856,1790479,0.900879,-0.024414,-0.430176,-3.780488,0.731707,0.731707,17.137501,-36.887501,0.750000,0.0,1.000000,0.000000,0.000000,0.000000
1782117291.060856,1790489,0.902832,-0.024414,-0.432617,-4.024390,0.609756,0.792683,17.137501,-36.887501,0.750000,0.0,1.000000,0.000000,0.000000,0.000000
1782117291.070856,1790499,0.902832,-0.022949,-0.431152,-4.146341,0.609756,0.853659,17.100000,-37.062500,0.925000,0.0,1.000000,0.000000,0.000000,0.000000
1782117291.081856,1790510,0.906250,-0.019043,-0.432617,-4.329268,0.670732,0.975610,17.100000,-37.062500,0.925000,0.0,1.000000,0.000000,0.000000,0.000000
1782117291.090856,1790519,0.903320,-0.017090,-0.432129,-4.756098,0.914634,1.097561,17.100000,-37.031250,0.950000,0.0,1.000000,0.000000,0.000000,0.000000
1782117291.102856,1790531,0.894043,-0.016602,-0.435547,-5.304878,0.243902,1.158537,17.100000,-37.031250,0.950000,0.0,1.000000,0.000000,0.000000,0.000000
1782117291.110856,1790539,0.898926,-0.020508,-0.436523,-5.426829,-0.243902,1.097561,17.043751,-37.112499,1.050000,0.0,1.000000,0.000000,0.000000,0.000000
1782117291.121856,1790550,0.905762,-0.020996,-0.434570,-5.548780,-0.304878,1.158537,17.043751,-37.112499,1.050000,0.0,1.000000,0.000000,0.000000,0.000000
1782117291.130856,1790559,0.910156,-0.020020,-0.429688,-5.731708,-0.121951,1.219512,17.181250,-36.893749,0.887500,0.0,1.000000,0.000000,0.000000,0.000000
1782117291.140856,1790569,0.915039,-0.014160,-0.426758,-6.036585,0.000000,1.402439,17.181250,-36.893749,0.887500,0.0,1.000000,0.000000,0.000000,0.000000
1782117291.150856,1790579,0.914551,-0.007324,-0.423340,-6.646342,0.243902,1.463415,17.050001,-37.100002,1.137500,0.0,1.000000,0.000000,0.000000,0.000000
1782117291.160856,1790589,0.908691,0.000977,-0.423340,-7.621952,0.426829,1.707317,17.050001,-37.100002,1.137500,0.0,1.000000,0.000000,0.000000,0.000000
1782117291.170856,1790599,0.901855,0.004883,-0.423340,-8.719512,0.304878,1.829268,17.068750,-37.156250,1.175000,0.0,1.000000,0.000000,0.000000,0.000000
1782117291.180856,1790609,0.895020,0.002441,-0.425293,-9.817074,0.000000,2.012195,17.068750,-37.156250,1.175000,0.0,1.000000,0.000000,0.000000,0.000000
1782117291.190856,1790619,0.892578,-0.003418,-0.425293,-10.792684,-0.548781,2.195122,17.031250,-37.168751,1.187500,0.0,1.000000,0.000000,0.000000,0.000000
1782117291.200856,1790629,0.896484,-0.011719,-0.426270,-11.524390,-0.914634,2.195122,17.031250,-37.168751,1.187500,0.0,1.000000,0.000000,0.000000,0.000000
1782117291.210856,1790639,0.902344,-0.020508,-0.428223,-11.646341,-0.914634,2.195122,17.050001,-37.181252,1.325000,0.0,1.000000,0.000000,0.000000,0.000000
1782117291.220856,1790649,0.906738,-0.028320,-0.429199,-11.402439,-0.792683,2.256098,17.050001,-37.181252,1.325000,0.0,1.000000,0.000000,0.000000,0.000000
1782117291.230856,1790659,0.905762,-0.031250,-0.430176,-11.280488,-0.487805,2.621951,17.000000,-37.231251,1.412500,0.0,1.000000,0.000000,0.000000,0.000000
1782117291.241856,1790670,0.894043,-0.030273,-0.433105,-10.975610,-0.731707,2.378049,17.000000,-37.231251,1.412500,0.0,1.000000,0.000000,0.000000,0.000000
1782117291.250856,1790679,0.892578,-0.030273,-0.437988,-10.731708,-1.463415,2.073171,17.175001,-36.968750,1.368750,0.0,1.000000,0.000000,0.000000,0.000000
1782117291.261856,1790690,0.892578,-0.035645,-0.437988,-10.182927,-1.951220,1.768293,17.175001,-36.968750,1.368750,0.0,1.000000,0.000000,0.000000,0.000000
1782117291.270856,1790699,0.890137,-0.042480,-0.439453,-9.329268,-2.317073,1.585366,16.981251,-37.187500,1.531250,0.0,1.000000,0.000000,0.000000,0.000000
1782117291.281856,1790710,0.889160,-0.044922,-0.437500,-8.170732,-2.621951,1.402439,16.981251,-37.187500,1.531250,0.0,1.000000,0.000000,0.000000,0.000000
1782117291.291856,1790720,0.897461,-0.041992,-0.436523,-6.707317,-2.926829,1.036585,17.031250,-37.237499,1.531250,0.0,1.000000,0.000000,0.000000,0.000000
1782117291.300856,1790729,0.905762,-0.036621,-0.431152,-5.365854,-2.621951,0.792683,17.031250,-37.237499,1.531250,0.0,1.000000,0.000000,0.000000,0.000000
1782117291.311856,1790740,0.904785,-0.031738,-0.427734,-4.512195,-2.256098,0.792683,16.956251,-37.318752,1.581250,0.0,1.000000,0.000000,0.000000,0.000000
1782117291.320856,1790749,0.898438,-0.023438,-0.427246,-3.780488,-2.073171,0.548781,16.956251,-37.318752,1.581250,0.0,1.000000,0.000000,0.000000,0.000000
1782117291.330856,1790759,0.896484,-0.020996,-0.427246,-3.231707,-2.500000,0.426829,16.962500,-37.312500,1.575000,0.0,1.000000,0.000000,0.000000,0.000000
1782117291.340856,1790769,0.899902,-0.022461,-0.423828,-2.621951,-2.682927,0.182927,16.962500,-37.312500,1.575000,0.0,1.000000,0.000000,0.000000,0.000000
1782117291.350856,1790779,0.899414,-0.025391,-0.424805,-2.073171,-2.743902,-0.121951,16.956251,-37.262501,1.481250,0.0,1.000000,0.000000,0.000000,0.000000
1782117291.360856,1790789,0.900391,-0.027344,-0.426758,-1.646341,-2.743902,-0.243902,16.956251,-37.262501,1.481250,0.0,1.000000,0.000000,0.000000,0.000000
1782117291.370856,1790799,0.905762,-0.028320,-0.427734,-1.097561,-2.865854,-0.426829,17.000000,-37.281250,1.518750,0.0,1.000000,0.000000,0.000000,0.000000
1782117291.380856,1790809,0.906738,-0.023438,-0.431152,-1.097561,-2.500000,-0.365854,17.000000,-37.281250,1.518750,0.0,1.000000,0.000000,0.000000,0.000000
1782117291.390856,1790819,0.896484,-0.015137,-0.433105,-1.707317,-2.621951,-0.182927,16.968750,-37.381252,1.593750,0.0,1.000000,0.000000,0.000000,0.000000
1782117291.400856,1790829,0.890137,-0.009277,-0.435059,-2.256098,-3.109756,-0.365854,16.968750,-37.381252,1.593750,0.0,1.000000,0.000000,0.000000,0.000000
1782117291.410856,1790839,0.893555,-0.010254,-0.434082,-2.621951,-3.658537,-0.609756,16.943750,-37.343750,1.487500,0.0,1.000000,0.000000,0.000000,0.000000
1782117291.420856,1790849,0.898926,-0.015625,-0.430176,-2.987805,-3.780488,-0.670732,16.943750,-37.343750,1.487500,0.0,1.000000,0.000000,0.000000,0.000000
1782117291.430856,1790859,0.906738,-0.018066,-0.426758,-2.987805,-3.658537,-0.609756,16.962500,-37.356251,1.412500,0.0,1.000000,0.000000,0.000000,0.000000
1782117291.440856,1790869,0.911621,-0.019531,-0.425781,-2.987805,-3.353659,-0.487805,16.962500,-37.356251,1.412500,0.0,1.000000,0.000000,0.000000,0.000000
1782117291.450856,1790879,0.909668,-0.017578,-0.424805,-3.292683,-2.987805,-0.182927,17.087500,-37.225002,1.350000,0.0,1.000000,0.000000,0.000000,0.000000
1782117291.460856,1790889,0.904785,-0.015625,-0.425293,-3.353659,-2.987805,0.000000,17.087500,-37.225002,1.350000,0.0,1.000000,0.000000,0.000000,0.000000
1782117291.470856,1790899,0.898926,-0.017090,-0.425293,-3.292683,-3.170732,0.060976,17.006250,-37.368752,1.412500,0.0,1.000000,0.000000,0.000000,0.000000
1782117291.480856,1790909,0.893066,-0.018555,-0.430664,-3.414634,-3.597561,0.060976,17.006250,-37.368752,1.412500,0.0,1.000000,0.000000,0.000000,0.000000
1782117291.491856,1790920,0.888672,-0.022949,-0.439453,-3.353659,-3.963415,-0.121951,17.031250,-37.325001,1.381250,0.0,1.000000,0.000000,0.000000,0.000000
1782117291.501856,1790930,0.886230,-0.026855,-0.447754,-2.987805,-4.329268,-0.304878,17.031250,-37.325001,1.381250,0.0,1.000000,0.000000,0.000000,0.000000
1782117291.510856,1790939,0.889160,-0.028320,-0.455566,-2.439024,-4.695122,-0.487805,17.087500,-37.256252,1.175000,0.0,1.000000,0.000000,0.000000,0.000000
1782117291.521856,1790950,0.892578,-0.026855,-0.458008,-1.951220,-4.756098,-0.487805,17.087500,-37.256252,1.175000,0.0,1.000000,0.000000,0.000000,0.000000
1782117291.530856,1790959,0.895996,-0.021484,-0.456055,-1.524390,-4.695122,-0.426829,17.093750,-37.318752,1.268750,0.0,1.000000,0.000000,0.000000,0.000000
1782117291.540856,1790969,0.895020,-0.014160,-0.455078,-1.707317,-4.451220,-0.243902,17.093750,-37.318752,1.268750,0.0,1.000000,0.000000,0.000000,0.000000
1782117291.550856,1790979,0.886719,-0.005371,-0.452148,-2.317073,-4.451220,-0.121951,17.025000,-37.424999,1.225000,0.0,1.000000,0.000000,0.000000,0.000000
1782117291.560856,1790989,0.877441,0.001953,-0.451660,-3.109756,-4.756098,0.000000,17.025000,-37.424999,1.225000,0.0,1.000000,0.000000,0.000000,0.000000
1782117291.570856,1790999,0.877441,0.003906,-0.449219,-3.902439,-5.426829,-0.121951,17.050001,-37.312500,1.150000,0.0,1.000000,0.000000,0.000000,0.000000
1782117291.580856,1791009,0.880859,-0.002930,-0.449219,-4.512195,-5.731708,-0.121951,17.050001,-37.312500,1.150000,0.0,1.000000,0.000000,0.000000,0.000000
1782117291.590856,1791019,0.885742,-0.011230,-0.453613,-4.939024,-6.036585,-0.060976,17.062500,-37.393749,1.068750,0.0,1.000000,0.000000,0.000000,0.000000
1782117291.600856,1791029,0.896973,-0.015137,-0.458008,-5.365854,-5.975610,0.060976,17.062500,-37.393749,1.068750,0.0,1.000000,0.000000,0.000000,0.000000
1782117291.610856,1791039,0.903320,-0.014160,-0.455566,-5.731708,-5.426829,0.304878,17.068750,-37.343750,0.993750,0.0,1.000000,0.000000,0.000000,0.000000
1782117291.620856,1791049,0.895996,-0.017090,-0.449219,-6.219512,-5.121951,0.670732,17.068750,-37.343750,0.993750,0.0,1.000000,0.000000,0.000000,0.000000
1782117291.630856,1791059,0.886230,-0.022949,-0.442871,-6.585366,-5.609756,1.158537,17.050001,-37.412502,1.018750,0.0,1.000000,0.000000,0.000000,0.000000
1782117291.641856,1791070,0.882324,-0.032715,-0.445312,-6.646342,-6.646342,1.463415,17.050001,-37.412502,1.018750,0.0,1.000000,0.000000,0.000000,0.000000
1782117291.650856,1791079,0.885742,-0.040039,-0.454102,-6.097561,-7.621952,1.341463,17.100000,-37.356251,0.950000,0.0,1.000000,0.000000,0.000000,0.000000
1782117291.661856,1791090,0.886719,-0.039062,-0.470215,-6.219512,-7.621952,1.219512,17.100000,-37.356251,0.950000,0.0,1.000000,0.000000,0.000000,0.000000
1782117291.670856,1791099,0.891602,-0.020508,-0.484375,-6.463415,-6.646342,0.731707,17.025000,-37.412502,0.912500,0.0,1.000000,0.000000,0.000000,0.000000
1782117291.682856,1791111,0.891113,-0.009277,-0.492676,-6.463415,-5.304878,0.121951,17.025000,-37.412502,0.912500,0.0,1.000000,0.000000,0.000000,0.000000
1782117291.691856,1791120,0.885742,-0.011719,-0.493164,-6.646342,-4.573171,-0.243902,17.181250,-37.143749,0.681250,0.0,1.000000,0.000000,0.000000,0.000000
1782117291.701856,1791130,0.879395,-0.016602,-0.496582,-6.463415,-4.451220,-0.182927,17.181250,-37.143749,0.681250,0.0,1.000000,0.000000,0.000000,0.000000
1782117291.711856,1791140,0.874023,-0.021973,-0.492676,-5.243903,-4.878049,-0.365854,17.050001,-37.437500,0.868750,0.0,1.000000,0.000000,0.000000,0.000000
1782117291.722856,1791151,0.876465,-0.023926,-0.488770,-3.902439,-5.609756,-0.426829,17.050001,-37.437500,0.868750,0.0,1.000000,0.000000,0.000000,0.000000
1782117291.730856,1791159,0.889160,-0.016113,-0.481934,-2.804878,-5.792683,-0.365854,17.131250,-37.318752,0.712500,0.0,1.000000,0.000000,0.000000,0.000000
1782117291.740856,1791169,0.906250,-0.003418,-0.470703,-2.378049,-5.243903,0.000000,17.131250,-37.318752,0.712500,0.0,1.000000,0.000000,0.000000,0.000000
1782117291.750856,1791179,0.916992,0.007812,-0.454590,-2.987805,-4.573171,0.914634,17.087500,-37.450001,0.700000,0.0,1.000000,0.000000,0.000000,0.000000
1782117291.763856,1791192,0.914551,0.012207,-0.441406,-4.329268,-4.024390,2.134146,17.087500,-37.450001,0.700000,0.0,1.000000,0.000000,0.000000,0.000000
1782117291.770856,1791199,0.907227,0.007324,-0.436523,-6.402439,-4.146341,3.414634,17.106251,-37.212502,0.581250,0.0,1.000000,0.000000,0.000000,0.000000
1782117291.780856,1791209,0.900879,0.004395,-0.450684,-9.451220,-4.451220,4.573171,17.106251,-37.212502,0.581250,0.0,1.000000,0.000000,0.000000,0.000000
1782117291.790856,1791219,0.896973,0.000977,-0.465820,-12.560976,-4.024390,5.487805,16.968750,-37.475002,0.700000,0.0,1.000000,0.000000,0.000000,0.000000
1782117291.802856,1791231,0.890625,-0.001465,-0.480957,-15.121951,-2.378049,5.792683,16.968750,-37.475002,0.700000,0.0,1.000000,0.000000,0.000000,0.000000
1782117291.810856,1791239,0.872559,-0.002441,-0.503906,-16.158537,-0.304878,5.304878,16.943750,-37.400002,0.593750,0.0,1.000000,0.000000,0.000000,0.000000
1782117291.820856,1791249,0.855957,-0.006836,-0.533203,-15.487805,0.182927,4.085366,16.943750,-37.400002,0.593750,0.0,1.000000,0.000000,0.000000,0.000000
1782117291.830856,1791259,0.854004,-0.020020,-0.552734,-14.512196,-0.731707,2.987805,16.918751,-37.437500,0.837500,0.0,1.000000,0.000000,0.000000,0.000000
1782117291.842856,1791271,0.840820,-0.036133,-0.570312,-13.231708,-1.463415,2.926829,16.918751,-37.437500,0.837500,0.0,1.000000,0.000000,0.000000,0.000000
1782117291.850856,1791279,0.833984,-0.042969,-0.583008,-9.146341,-3.109756,2.560976,16.943750,-37.337502,0.818750,0.0,1.000000,0.000000,0.000000,0.000000
1782117291.860856,1791289,0.854004,-0.061523,-0.566895,-0.853659,-4.634146,0.426829,16.943750,-37.337502,0.818750,0.0,1.000000,0.000000,0.000000,0.000000
1782117291.870856,1791299,0.868164,-0.090332,-0.537109,8.475610,-4.756098,-1.646341,16.800001,-37.468750,0.856250,0.0,1.000000,0.000000,0.000000,0.000000
1782117291.880856,1791309,0.863770,-0.119141,-0.532227,16.219513,-4.878049,-2.621951,16.800001,-37.468750,0.856250,0.0,1.000000,0.000000,0.000000,0.000000
1782117291.890856,1791319,0.866699,-0.125977,-0.531250,22.439024,-5.182927,-3.170732,16.850000,-37.381252,0.556250,0.0,1.000000,0.000000,0.000000,0.000000
1782117291.900856,1791329,0.877441,-0.112793,-0.525391,27.743902,-5.792683,-3.658537,16.850000,-37.381252,0.556250,0.0,1.000000,0.000000,0.000000,0.000000
1782117291.911856,1791340,0.890625,-0.079590,-0.520996,32.560978,-4.939024,-5.000000,16.706251,-37.356251,0.331250,0.0,1.000000,0.000000,0.000000,0.000000
1782117291.920856,1791349,0.901855,-0.049805,-0.501465,36.768295,-3.170732,-6.280488,16.706251,-37.356251,0.331250,0.0,1.000000,0.000000,0.000000,0.000000
1782117291.930856,1791359,0.906738,-0.023926,-0.486816,38.475609,-1.768293,-6.463415,16.706251,-37.200001,-0.025000,0.0,1.000000,0.000000,0.000000,0.000000
1782117291.941856,1791370,0.885742,-0.003418,-0.472168,35.426830,0.060976,-4.390244,16.706251,-37.200001,-0.025000,0.0,1.000000,0.000000,0.000000,0.000000
1782117291.951856,1791380,0.859863,0.020020,-0.441895,29.207317,-0.487805,-1.524390,16.612501,-37.200001,-0.250000,0.0,1.000000,0.000000,0.000000,0.000000
1782117291.961856,1791390,0.836914,0.026855,-0.416016,23.353659,-1.585366,-0.487805,16.612501,-37.200001,-0.250000,0.0,1.000000,0.000000,0.000000,0.000000
1782117291.970856,1791399,0.831055,0.020508,-0.408203,19.207317,-2.682927,-0.853659,16.525000,-37.068752,-0.500000,0.0,1.000000,0.000000,0.000000,0.000000
1782117291.980856,1791409,0.851074,0.020020,-0.420898,16.158537,-3.353659,-1.524390,16.525000,-37.068752,-0.500000,0.0,1.000000,0.000000,0.000000,0.000000
1782117291.990856,1791419,0.879883,0.023926,-0.436035,13.597561,-2.134146,-1.707317,16.418751,-37.106251,-0.662500,0.0,1.000000,0.000000,0.000000,0.000000
1782117292.002856,1791431,0.885742,0.033203,-0.455078,10.792684,-0.304878,-1.158537,16.375000,-37.025002,-0.762500,0.0,1.000000,0.000000,0.000000,0.000000
1782117292.010856,1791439,0.883301,0.041992,-0.466797,8.353659,0.365854,-0.243902,16.375000,-37.025002,-0.762500,0.0,1.000000,0.000000,0.000000,0.000000
1782117292.021856,1791450,0.880859,0.036621,-0.468750,7.073171,0.121951,0.243902,16.375000,-37.025002,-0.762500,0.0,1.000000,0.000000,0.000000,0.000000
1782117292.030856,1791459,0.882812,0.020508,-0.472656,6.402439,0.060976,0.548781,16.325001,-37.031250,-0.787500,0.0,1.000000,0.000000,0.000000,0.000000
1782117292.043856,1791472,0.854980,-0.022461,-0.457031,7.378049,1.402439,0.487805,16.300001,-37.006252,-0.800000,0.0,1.000000,0.000000,0.000000,0.000000
1782117292.050856,1791479,0.840332,-0.050293,-0.439941,10.487805,2.073171,-0.304878,16.300001,-37.006252,-0.800000,0.0,1.000000,0.000000,0.000000,0.000000
1782117292.060856,1791489,0.843262,-0.067383,-0.427246,14.390244,2.073171,-1.402439,16.300001,-37.006252,-0.800000,0.0,1.000000,0.000000,0.000000,0.000000
1782117292.070856,1791499,0.853027,-0.055176,-0.419434,16.951220,2.560976,-2.500000,16.243750,-37.031250,-0.862500,0.0,1.000000,0.000000,0.000000,0.000000
1782117292.084856,1791513,0.856934,-0.019043,-0.420898,17.134148,3.475610,-3.414634,16.193750,-37.043751,-0.968750,0.0,1.000000,0.000000,0.000000,0.000000
1782117292.091856,1791520,0.857910,0.014648,-0.424805,15.121951,4.024390,-4.451220,16.193750,-37.043751,-0.968750,0.0,1.000000,0.000000,0.000000,0.000000
1782117292.101856,1791530,0.864746,0.041504,-0.435547,11.280488,3.780488,-5.487805,16.193750,-37.043751,-0.968750,0.0,1.000000,0.000000,0.000000,0.000000
1782117292.111856,1791540,0.876953,0.055664,-0.459473,6.890244,2.865854,-6.402439,16.337500,-36.850002,-1.125000,0.0,1.000000,0.000000,0.000000,0.000000
1782117292.122856,1791551,0.879395,0.062988,-0.484375,2.743902,1.829268,-6.890244,16.318750,-36.987499,-1.050000,0.0,1.000000,0.000000,0.000000,0.000000
1782117292.130856,1791559,0.871582,0.058105,-0.502441,-0.365854,0.304878,-6.768293,16.318750,-36.987499,-1.050000,0.0,1.000000,0.000000,0.000000,0.000000
1782117292.140856,1791569,0.865723,0.030273,-0.507324,-2.195122,-1.524390,-6.707317,16.318750,-36.987499,-1.050000,0.0,1.000000,0.000000,0.000000,0.000000
1782117292.150856,1791579,0.873535,-0.000977,-0.501465,-3.109756,-2.743902,-6.768293,16.418751,-36.931252,-0.993750,0.0,1.000000,0.000000,0.000000,0.000000
1782117292.164856,1791593,0.892578,-0.024902,-0.489258,-2.926829,-2.743902,-7.256098,16.675001,-36.525002,-1.243750,0.0,1.000000,0.000000,0.000000,0.000000
1782117292.170856,1791599,0.921875,-0.041016,-0.474609,-1.463415,-1.524390,-8.292683,16.675001,-36.525002,-1.243750,0.0,1.000000,0.000000,0.000000,0.000000
1782117292.180856,1791609,0.945801,-0.041016,-0.464355,0.000000,0.487805,-8.658537,16.675001,-36.525002,-1.243750,0.0,1.000000,0.000000,0.000000,0.000000
1782117292.190856,1791619,0.953613,-0.022461,-0.455078,-0.121951,2.439024,-8.048780,16.656250,-36.806252,-1.068750,0.0,1.000000,0.000000,0.000000,0.000000
1782117292.200856,1791629,0.945312,-0.012695,-0.449219,-0.670732,3.597561,-7.256098,16.656250,-36.806252,-1.068750,0.0,1.000000,0.000000,0.000000,0.000000
1782117292.210856,1791639,0.935547,-0.020996,-0.453125,-0.975610,3.963415,-6.402439,16.756250,-36.818752,-0.918750,0.0,1.000000,0.000000,0.000000,0.000000
1782117292.220856,1791649,0.922852,-0.033691,-0.456543,-0.914634,3.902439,-5.243903,16.756250,-36.818752,-0.918750,0.0,1.000000,0.000000,0.000000,0.000000
1782117292.230856,1791659,0.916992,-0.042969,-0.457520,0.365854,3.353659,-4.268293,16.831251,-36.812500,-0.862500,0.0,1.000000,0.000000,0.000000,0.000000
1782117292.242856,1791671,0.922363,-0.045898,-0.459961,2.500000,3.841464,-3.719512,16.831251,-36.812500,-0.862500,0.0,1.000000,0.000000,0.000000,0.000000
1782117292.250856,1791679,0.918945,-0.032715,-0.455566,3.963415,5.670732,-3.231707,16.912500,-36.775002,-0.850000,0.0,1.000000,0.000000,0.000000,0.000000
1782117292.260856,1791689,0.902832,-0.009766,-0.453613,3.475610,7.134147,-1.951220,17.018751,-36.637501,-0.787500,0.0,1.000000,0.000000,0.000000,0.000000
1782117292.270856,1791699,0.880859,0.005859,-0.458008,1.707317,7.621952,-0.670732,17.018751,-36.637501,-0.787500,0.0,1.000000,0.000000,0.000000,0.000000
1782117292.282856,1791711,0.861328,0.015625,-0.476074,-1.036585,7.195122,0.914634,16.962500,-36.799999,-0.625000,0.0,1.000000,0.000000,0.000000,0.000000
1782117292.291856,1791720,0.844238,0.021484,-0.492676,-5.243903,5.121951,1.951220,16.962500,-36.799999,-0.625000,0.0,1.000000,0.000000,0.000000,0.000000
1782117292.300856,1791729,0.846680,0.015625,-0.502930,-9.939025,2.560976,2.865854,17.087500,-36.543751,-0.600000,0.0,1.000000,0.000000,0.000000,0.000000
