Unix_Time_s,IMU1_RefTime,ax_g,ay_g,az_g,gx_dps,gy_dps,gz_dps,mx_uT,my_uT,mz_uT,temp_C,qw,qx,qy,qz
1782117284.522856,1787890,-0.963379,0.029785,-0.284180,0.182927,-0.365854,0.670732,-3.925000,40.237499,-2.706250,0.0,1.000000,0.000000,0.000000,0.000000
1782117284.535856,1787903,-0.965820,0.030273,-0.286621,0.121951,-0.243902,0.792683,-3.925000,40.237499,-2.706250,0.0,1.000000,0.000000,0.000000,0.000000
1782117284.542856,1787910,-0.965820,0.030273,-0.286621,0.121951,-0.243902,0.792683,-3.762500,40.387501,-2.656250,0.0,1.000000,0.000000,0.000000,0.000000
1782117284.552856,1787920,-0.965332,0.030762,-0.285645,0.304878,-0.365854,0.853659,-3.762500,40.387501,-2.656250,0.0,1.000000,0.000000,0.000000,0.000000
1782117284.562856,1787930,-0.963379,0.029785,-0.287109,0.365854,-0.426829,0.792683,-3.775000,40.375000,-2.606250,0.0,1.000000,0.000000,0.000000,0.000000
1782117284.573856,1787941,-0.964355,0.029785,-0.286621,0.304878,-0.365854,0.731707,-3.775000,40.375000,-2.606250,0.0,1.000000,0.000000,0.000000,0.000000
1782117284.582856,1787950,-0.964355,0.031250,-0.287598,0.121951,-0.304878,0.670732,-3.906250,40.281250,-2.712500,0.0,1.000000,0.000000,0.000000,0.000000
1782117284.592856,1787960,-0.962891,0.031738,-0.285645,0.243902,-0.304878,0.609756,-3.906250,40.281250,-2.712500,0.0,1.000000,0.000000,0.000000,0.000000
1782117284.602856,1787970,-0.962891,0.032227,-0.283691,0.304878,-0.365854,0.609756,-3.906250,40.237499,-2.675000,0.0,1.000000,0.000000,0.000000,0.000000
1782117284.614856,1787982,-0.960449,0.031250,-0.282715,0.426829,-0.487805,0.670732,-3.906250,40.237499,-2.675000,0.0,1.000000,0.000000,0.000000,0.000000
1782117284.622856,1787990,-0.958984,0.030762,-0.287109,0.426829,-0.487805,0.670732,-3.831250,40.312500,-2.700000,0.0,1.000000,0.000000,0.000000,0.000000
1782117284.632856,1788000,-0.958984,0.033203,-0.289062,0.243902,-0.304878,0.792683,-3.831250,40.312500,-2.700000,0.0,1.000000,0.000000,0.000000,0.000000
1782117284.642856,1788010,-0.960938,0.032227,-0.291992,0.060976,-0.182927,0.914634,-3.937500,40.200001,-2.625000,0.0,1.000000,0.000000,0.000000,0.000000
1782117284.654856,1788022,-0.962402,0.032227,-0.291504,0.000000,-0.243902,0.792683,-3.937500,40.200001,-2.625000,0.0,1.000000,0.000000,0.000000,0.000000
1782117284.662856,1788030,-0.962402,0.031738,-0.290527,0.243902,-0.182927,0.670732,-3.818750,40.368752,-2.675000,0.0,1.000000,0.000000,0.000000,0.000000
1782117284.672856,1788040,-0.962402,0.030762,-0.286621,0.609756,-0.121951,0.670732,-3.818750,40.368752,-2.675000,0.0,1.000000,0.000000,0.000000,0.000000
1782117284.682856,1788050,-0.961426,0.028320,-0.286621,0.792683,-0.121951,0.670732,-4.000000,40.137501,-2.656250,0.0,1.000000,0.000000,0.000000,0.000000
1782117284.695856,1788063,-0.960449,0.027832,-0.289062,0.914634,-0.121951,0.731707,-3.950000,40.187500,-2.612500,0.0,1.000000,0.000000,0.000000,0.000000
1782117284.703856,1788071,-0.958984,0.028320,-0.291504,0.975610,-0.243902,0.792683,-3.950000,40.187500,-2.612500,0.0,1.000000,0.000000,0.000000,0.000000
1782117284.713856,1788081,-0.961426,0.030273,-0.291992,0.792683,-0.121951,0.853659,-3.950000,40.187500,-2.612500,0.0,1.000000,0.000000,0.000000,0.000000
1782117284.723856,1788091,-0.961426,0.029785,-0.292969,0.609756,-0.121951,0.853659,-3.918750,40.200001,-2.656250,0.0,1.000000,0.000000,0.000000,0.000000
1782117284.733856,1788101,-0.963379,0.029297,-0.291992,0.731707,-0.182927,0.792683,-3.918750,40.200001,-2.656250,0.0,1.000000,0.000000,0.000000,0.000000
1782117284.742856,1788110,-0.960938,0.030273,-0.289062,1.036585,-0.182927,0.792683,-4.018750,40.131252,-2.668750,0.0,1.000000,0.000000,0.000000,0.000000
1782117284.753856,1788121,-0.961914,0.031250,-0.288086,1.036585,-0.121951,0.792683,-3.956250,40.174999,-2.675000,0.0,1.000000,0.000000,0.000000,0.000000
1782117284.762856,1788130,-0.963379,0.031250,-0.287109,0.975610,-0.121951,0.792683,-3.956250,40.174999,-2.675000,0.0,1.000000,0.000000,0.000000,0.000000
1782117284.772856,1788140,-0.963379,0.030273,-0.286133,0.792683,-0.304878,0.792683,-3.981250,40.168751,-2.650000,0.0,1.000000,0.000000,0.000000,0.000000
1782117284.782856,1788150,-0.962891,0.032715,-0.283691,0.731707,-0.426829,0.792683,-3.981250,40.168751,-2.650000,0.0,1.000000,0.000000,0.000000,0.000000
1782117284.792856,1788160,-0.959473,0.032227,-0.283691,0.609756,-0.548781,0.792683,-3.818750,40.287502,-2.625000,0.0,1.000000,0.000000,0.000000,0.000000
1782117284.802856,1788170,-0.960938,0.032715,-0.287598,0.487805,-0.548781,0.975610,-3.818750,40.287502,-2.625000,0.0,1.000000,0.000000,0.000000,0.000000
1782117284.812856,1788180,-0.963379,0.033203,-0.288574,0.365854,-0.609756,0.914634,-3.981250,40.187500,-2.656250,0.0,1.000000,0.000000,0.000000,0.000000
1782117284.823856,1788191,-0.962402,0.034668,-0.288086,0.060976,-0.609756,0.792683,-3.981250,40.187500,-2.656250,0.0,1.000000,0.000000,0.000000,0.000000
1782117284.832856,1788200,-0.961426,0.033203,-0.289551,0.121951,-0.548781,0.670732,-3.900000,40.250000,-2.668750,0.0,1.000000,0.000000,0.000000,0.000000
1782117284.842856,1788210,-0.961426,0.033691,-0.288086,0.182927,-0.548781,0.670732,-3.900000,40.250000,-2.668750,0.0,1.000000,0.000000,0.000000,0.000000
1782117284.855856,1788223,-0.960938,0.034180,-0.288086,0.060976,-0.487805,0.731707,-3.912500,40.225002,-2.687500,0.0,1.000000,0.000000,0.000000,0.000000
1782117284.862856,1788230,-0.960938,0.034180,-0.288086,0.000000,-0.487805,0.792683,-3.912500,40.225002,-2.687500,0.0,1.000000,0.000000,0.000000,0.000000
1782117284.873856,1788241,-0.959961,0.033203,-0.286133,0.000000,-0.487805,0.792683,-3.843750,40.293751,-2.587500,0.0,1.000000,0.000000,0.000000,0.000000
1782117284.882856,1788250,-0.961426,0.031738,-0.286621,0.060976,-0.426829,0.853659,-3.843750,40.293751,-2.587500,0.0,1.000000,0.000000,0.000000,0.000000
1782117284.892856,1788260,-0.962891,0.031250,-0.289062,0.000000,-0.426829,0.914634,-3.906250,40.237499,-2.643750,0.0,1.000000,0.000000,0.000000,0.000000
1782117284.903856,1788271,-0.963379,0.028809,-0.289551,0.121951,-0.487805,0.792683,-3.906250,40.237499,-2.643750,0.0,1.000000,0.000000,0.000000,0.000000
1782117284.912856,1788280,-0.964355,0.029297,-0.290039,0.060976,-0.487805,0.731707,-3.843750,40.306252,-2.631250,0.0,1.000000,0.000000,0.000000,0.000000
1782117284.923856,1788291,-0.964355,0.030762,-0.288574,0.182927,-0.609756,0.670732,-3.843750,40.306252,-2.631250,0.0,1.000000,0.000000,0.000000,0.000000
1782117284.932856,1788300,-0.962402,0.031738,-0.287109,0.426829,-0.792683,0.609756,-3.993750,40.187500,-2.593750,0.0,1.000000,0.000000,0.000000,0.000000
1782117284.942856,1788310,-0.960449,0.032227,-0.285645,0.548781,-0.853659,0.731707,-3.993750,40.187500,-2.593750,0.0,1.000000,0.000000,0.000000,0.000000
1782117284.952856,1788320,-0.962402,0.033203,-0.285645,0.548781,-0.731707,0.792683,-3.881250,40.268749,-2.618750,0.0,1.000000,0.000000,0.000000,0.000000
1782117284.962856,1788330,-0.962402,0.033203,-0.286133,0.365854,-0.792683,0.792683,-3.881250,40.268749,-2.618750,0.0,1.000000,0.000000,0.000000,0.000000
1782117284.972856,1788340,-0.961426,0.031250,-0.286621,0.243902,-0.670732,0.731707,-3.900000,40.218750,-2.618750,0.0,1.000000,0.000000,0.000000,0.000000
1782117284.982856,1788350,-0.961426,0.031738,-0.287598,0.243902,-0.670732,0.792683,-3.900000,40.218750,-2.618750,0.0,1.000000,0.000000,0.000000,0.000000
1782117284.992856,1788360,-0.961914,0.034180,-0.286133,0.243902,-0.609756,0.731707,-3.881250,40.181252,-2.631250,0.0,1.000000,0.000000,0.000000,0.000000
1782117285.002856,1788370,-0.962402,0.033691,-0.285156,0.182927,-0.670732,0.792683,-3.881250,40.181252,-2.631250,0.0,1.000000,0.000000,0.000000,0.000000
1782117285.012856,1788380,-0.961426,0.034180,-0.285156,-0.060976,-0.731707,0.731707,-4.000000,40.143749,-2.618750,0.0,1.000000,0.000000,0.000000,0.000000
1782117285.023856,1788391,-0.961914,0.035156,-0.284180,-0.182927,-0.609756,0.731707,-4.000000,40.143749,-2.618750,0.0,1.000000,0.000000,0.000000,0.000000
1782117285.032856,1788400,-0.962402,0.034180,-0.284668,-0.365854,-0.426829,0.670732,-3.918750,40.174999,-2.612500,0.0,1.000000,0.000000,0.000000,0.000000
1782117285.043856,1788411,-0.961426,0.032227,-0.284668,-0.243902,-0.426829,0.670732,-3.918750,40.174999,-2.612500,0.0,1.000000,0.000000,0.000000,0.000000
1782117285.052856,1788420,-0.963867,0.031738,-0.287109,-0.182927,-0.548781,0.731707,-4.018750,40.143749,-2.618750,0.0,1.000000,0.000000,0.000000,0.000000
1782117285.062856,1788430,-0.964844,0.030762,-0.285645,-0.182927,-0.670732,0.792683,-3.925000,40.256252,-2.568750,0.0,1.000000,0.000000,0.000000,0.000000
1782117285.072856,1788440,-0.963867,0.030273,-0.286621,-0.182927,-0.731707,0.731707,-3.925000,40.256252,-2.568750,0.0,1.000000,0.000000,0.000000,0.000000
1782117285.082856,1788450,-0.962402,0.032227,-0.286621,-0.121951,-0.853659,0.670732,-4.043750,40.125000,-2.612500,0.0,1.000000,0.000000,0.000000,0.000000
1782117285.093856,1788461,-0.960938,0.031250,-0.284668,0.121951,-0.853659,0.670732,-4.043750,40.125000,-2.612500,0.0,1.000000,0.000000,0.000000,0.000000
1782117285.103856,1788471,-0.960449,0.033203,-0.282715,0.487805,-0.853659,0.792683,-3.937500,40.225002,-2.531250,0.0,1.000000,0.000000,0.000000,0.000000
1782117285.112856,1788480,-0.961426,0.031250,-0.283203,0.487805,-0.731707,0.853659,-3.937500,40.225002,-2.531250,0.0,1.000000,0.000000,0.000000,0.000000
1782117285.122856,1788490,-0.960449,0.031250,-0.283203,0.426829,-0.792683,0.853659,-3.937500,40.200001,-2.518750,0.0,1.000000,0.000000,0.000000,0.000000
1782117285.132856,1788500,-0.961426,0.030762,-0.287109,0.182927,-0.670732,0.914634,-3.937500,40.200001,-2.518750,0.0,1.000000,0.000000,0.000000,0.000000
1782117285.142856,1788510,-0.963867,0.034180,-0.287109,0.000000,-0.670732,0.914634,-3.787500,40.350002,-2.531250,0.0,1.000000,0.000000,0.000000,0.000000
1782117285.152856,1788520,-0.963379,0.034668,-0.286133,-0.060976,-0.609756,0.853659,-3.787500,40.350002,-2.531250,0.0,1.000000,0.000000,0.000000,0.000000
1782117285.163856,1788531,-0.961914,0.032227,-0.284668,0.060976,-0.609756,0.853659,-3.912500,40.162502,-2.581250,0.0,1.000000,0.000000,0.000000,0.000000
1782117285.172856,1788540,-0.961426,0.032715,-0.285156,0.365854,-0.487805,0.792683,-3.912500,40.162502,-2.581250,0.0,1.000000,0.000000,0.000000,0.000000
1782117285.182856,1788550,-0.962891,0.030762,-0.283203,0.670732,-0.548781,0.792683,-3.843750,40.281250,-2.556250,0.0,1.000000,0.000000,0.000000,0.000000
1782117285.192856,1788560,-0.964355,0.029297,-0.282715,0.792683,-0.609756,0.792683,-3.843750,40.281250,-2.556250,0.0,1.000000,0.000000,0.000000,0.000000
1782117285.202856,1788570,-0.965820,0.030273,-0.282227,0.792683,-0.731707,0.792683,-3.918750,40.193752,-2.537500,0.0,1.000000,0.000000,0.000000,0.000000
1782117285.212856,1788580,-0.964844,0.031250,-0.280273,0.609756,-0.853659,0.853659,-3.918750,40.193752,-2.537500,0.0,1.000000,0.000000,0.000000,0.000000
1782117285.222856,1788590,-0.963867,0.031738,-0.280762,0.487805,-0.975610,0.792683,-3.662500,40.462502,-2.450000,0.0,1.000000,0.000000,0.000000,0.000000
1782117285.232856,1788600,-0.960938,0.033203,-0.282715,0.487805,-0.853659,0.792683,-3.662500,40.462502,-2.450000,0.0,1.000000,0.000000,0.000000,0.000000
1782117285.242856,1788610,-0.962891,0.033203,-0.281250,0.609756,-0.609756,0.792683,-3.812500,40.281250,-2.493750,0.0,1.000000,0.000000,0.000000,0.000000
1782117285.252856,1788620,-0.962891,0.031738,-0.280273,0.792683,-0.548781,0.853659,-3.812500,40.281250,-2.493750,0.0,1.000000,0.000000,0.000000,0.000000
1782117285.262856,1788630,-0.961914,0.032227,-0.280273,0.792683,-0.548781,0.914634,-3.981250,40.174999,-2.562500,0.0,1.000000,0.000000,0.000000,0.000000
1782117285.273856,1788641,-0.961914,0.032227,-0.280273,0.792683,-0.548781,0.914634,-3.981250,40.174999,-2.562500,0.0,1.000000,0.000000,0.000000,0.000000
1782117285.282856,1788650,-0.963379,0.031738,-0.281738,0.792683,-0.670732,0.975610,-3.906250,40.212502,-2.487500,0.0,1.000000,0.000000,0.000000,0.000000
1782117285.292856,1788660,-0.963379,0.031738,-0.281738,0.792683,-0.670732,0.975610,-3.906250,40.212502,-2.487500,0.0,1.000000,0.000000,0.000000,0.000000
1782117285.303856,1788671,-0.962402,0.032715,-0.281250,0.792683,-0.731707,0.914634,-4.000000,40.081249,-2.556250,0.0,1.000000,0.000000,0.000000,0.000000
1782117285.313856,1788681,-0.962891,0.033203,-0.280762,0.853659,-0.670732,0.914634,-4.000000,40.081249,-2.556250,0.0,1.000000,0.000000,0.000000,0.000000
1782117285.322856,1788690,-0.963867,0.032715,-0.282227,0.914634,-0.731707,0.914634,-3.931250,40.118752,-2.475000,0.0,1.000000,0.000000,0.000000,0.000000
1782117285.332856,1788700,-0.963867,0.030273,-0.282227,1.097561,-0.670732,0.853659,-3.931250,40.118752,-2.475000,0.0,1.000000,0.000000,0.000000,0.000000
1782117285.342856,1788710,-0.966797,0.028809,-0.281738,0.975610,-0.548781,0.853659,-3.962500,40.112499,-2.487500,0.0,1.000000,0.000000,0.000000,0.000000
1782117285.352856,1788720,-0.966309,0.030273,-0.278809,0.853659,-0.487805,0.792683,-3.962500,40.112499,-2.487500,0.0,1.000000,0.000000,0.000000,0.000000
1782117285.362856,1788730,-0.964355,0.030273,-0.276855,0.853659,-0.670732,0.670732,-3.850000,40.331249,-2.462500,0.0,1.000000,0.000000,0.000000,0.000000
1782117285.372856,1788740,-0.961426,0.032227,-0.274414,1.097561,-0.792683,0.731707,-3.781250,40.306252,-2.425000,0.0,1.000000,0.000000,0.000000,0.000000
1782117285.382856,1788750,-0.961426,0.034668,-0.275391,1.158537,-0.609756,0.853659,-3.781250,40.306252,-2.425000,0.0,1.000000,0.000000,0.000000,0.000000
1782117285.392856,1788760,-0.964355,0.034668,-0.279297,1.158537,-0.609756,1.036585,-3.700000,40.418751,-2.412500,0.0,1.000000,0.000000,0.000000,0.000000
1782117285.402856,1788770,-0.964844,0.035645,-0.281250,0.975610,-0.731707,1.036585,-3.700000,40.418751,-2.412500,0.0,1.000000,0.000000,0.000000,0.000000
1782117285.412856,1788780,-0.963379,0.036133,-0.281250,0.853659,-0.731707,1.036585,-3.718750,40.375000,-2.418750,0.0,1.000000,0.000000,0.000000,0.000000
1782117285.423856,1788791,-0.962891,0.034180,-0.282715,0.792683,-0.670732,0.914634,-3.718750,40.375000,-2.418750,0.0,1.000000,0.000000,0.000000,0.000000
1782117285.433856,1788801,-0.964844,0.031250,-0.283691,0.609756,-0.426829,0.853659,-3.668750,40.350002,-2.400000,0.0,1.000000,0.000000,0.000000,0.000000
1782117285.444856,1788812,-0.966797,0.032227,-0.281738,0.548781,-0.548781,0.731707,-3.668750,40.350002,-2.400000,0.0,1.000000,0.000000,0.000000,0.000000
1782117285.452856,1788820,-0.964355,0.031738,-0.277832,0.731707,-0.609756,0.548781,-3.700000,40.331249,-2.443750,0.0,1.000000,0.000000,0.000000,0.000000
1782117285.463856,1788831,-0.963379,0.032227,-0.274414,1.036585,-0.487805,0.670732,-3.700000,40.331249,-2.443750,0.0,1.000000,0.000000,0.000000,0.000000
1782117285.474856,1788842,-0.963379,0.030762,-0.275391,1.280488,-0.426829,0.853659,-3.875000,40.174999,-2.437500,0.0,1.000000,0.000000,0.000000,0.000000
1782117285.482856,1788850,-0.964355,0.030273,-0.278809,1.341463,-0.365854,0.975610,-3.875000,40.174999,-2.437500,0.0,1.000000,0.000000,0.000000,0.000000
1782117285.492856,1788860,-0.964844,0.029297,-0.281250,1.158537,-0.365854,1.036585,-3.700000,40.356251,-2.393750,0.0,1.000000,0.000000,0.000000,0.000000
1782117285.506856,1788874,-0.963867,0.030762,-0.285156,0.792683,-0.243902,0.975610,-3.700000,40.356251,-2.393750,0.0,1.000000,0.000000,0.000000,0.000000
1782117285.513856,1788881,-0.964355,0.033691,-0.287109,0.731707,-0.304878,0.792683,-3.825000,40.225002,-2.375000,0.0,1.000000,0.000000,0.000000,0.000000
1782117285.523856,1788891,-0.963867,0.035156,-0.283691,0.914634,-0.365854,0.792683,-3.825000,40.225002,-2.375000,0.0,1.000000,0.000000,0.000000,0.000000
1782117285.532856,1788900,-0.963379,0.033691,-0.283691,1.036585,-0.548781,0.792683,-3.881250,40.162502,-2.393750,0.0,1.000000,0.000000,0.000000,0.000000
1782117285.545856,1788913,-0.961426,0.034668,-0.281738,1.097561,-0.609756,0.853659,-3.881250,40.162502,-2.393750,0.0,1.000000,0.000000,0.000000,0.000000
1782117285.553856,1788921,-0.962891,0.034180,-0.281250,0.975610,-0.548781,0.853659,-3.800000,40.243752,-2.400000,0.0,1.000000,0.000000,0.000000,0.000000
1782117285.562856,1788930,-0.963379,0.033203,-0.282227,0.853659,-0.609756,0.914634,-3.800000,40.243752,-2.400000,0.0,1.000000,0.000000,0.000000,0.000000
1782117285.573856,1788941,-0.964844,0.032227,-0.281250,0.670732,-0.731707,0.914634,-3.900000,40.143749,-2.443750,0.0,1.000000,0.000000,0.000000,0.000000
1782117285.585856,1788953,-0.963379,0.031738,-0.280762,0.548781,-0.731707,0.914634,-3.843750,40.187500,-2.406250,0.0,1.000000,0.000000,0.000000,0.000000
1782117285.592856,1788960,-0.960449,0.029297,-0.281250,0.548781,-0.548781,0.792683,-3.843750,40.187500,-2.406250,0.0,1.000000,0.000000,0.000000,0.000000
1782117285.602856,1788970,-0.960449,0.028809,-0.280762,0.670732,-0.365854,0.792683,-3.843750,40.187500,-2.406250,0.0,1.000000,0.000000,0.000000,0.000000
1782117285.612856,1788980,-0.960449,0.029785,-0.284180,0.731707,-0.243902,0.792683,-3.950000,40.056252,-2.387500,0.0,1.000000,0.000000,0.000000,0.000000
1782117285.625856,1788993,-0.962891,0.029297,-0.285156,0.914634,-0.182927,0.853659,-3.937500,40.131252,-2.412500,0.0,1.000000,0.000000,0.000000,0.000000
1782117285.632856,1789000,-0.962402,0.030273,-0.284668,1.036585,-0.304878,0.853659,-3.937500,40.131252,-2.412500,0.0,1.000000,0.000000,0.000000,0.000000
1782117285.642856,1789010,-0.961426,0.032227,-0.283691,0.975610,-0.243902,0.853659,-3.937500,40.131252,-2.412500,0.0,1.000000,0.000000,0.000000,0.000000
1782117285.653856,1789021,-0.961426,0.030762,-0.283691,0.670732,-0.243902,0.792683,-3.862500,40.112499,-2.375000,0.0,1.000000,0.000000,0.000000,0.000000
1782117285.664856,1789032,-0.961426,0.031738,-0.283691,0.548781,-0.182927,0.731707,-3.925000,40.137501,-2.343750,0.0,1.000000,0.000000,0.000000,0.000000
1782117285.672856,1789040,-0.961914,0.032227,-0.284668,0.548781,0.060976,0.792683,-3.925000,40.137501,-2.343750,0.0,1.000000,0.000000,0.000000,0.000000
1782117285.683856,1789051,-0.964355,0.031738,-0.284180,0.731707,0.121951,0.853659,-3.912500,40.093750,-2.412500,0.0,1.000000,0.000000,0.000000,0.000000
1782117285.693856,1789061,-0.964355,0.031738,-0.282715,0.914634,0.365854,0.914634,-3.912500,40.093750,-2.412500,0.0,1.000000,0.000000,0.000000,0.000000
1782117285.704856,1789072,-0.964355,0.030273,-0.281738,1.280488,0.487805,0.914634,-3.925000,40.118752,-2.412500,0.0,1.000000,0.000000,0.000000,0.000000
1782117285.713856,1789081,-0.964355,0.029785,-0.281250,1.829268,0.304878,0.975610,-3.925000,40.118752,-2.412500,0.0,1.000000,0.000000,0.000000,0.000000
1782117285.722856,1789090,-0.965332,0.031738,-0.279785,2.256098,0.182927,1.036585,-3.800000,40.237499,-2.325000,0.0,1.000000,0.000000,0.000000,0.000000
1782117285.732856,1789100,-0.967773,0.034180,-0.278809,2.317073,-0.060976,1.219512,-3.800000,40.237499,-2.325000,0.0,1.000000,0.000000,0.000000,0.000000
1782117285.744856,1789112,-0.967285,0.032227,-0.277344,2.439024,-0.487805,1.280488,-3.843750,40.168751,-2.368750,0.0,1.000000,0.000000,0.000000,0.000000
1782117285.752856,1789120,-0.965332,0.031738,-0.277832,2.439024,-0.487805,1.280488,-3.843750,40.168751,-2.368750,0.0,1.000000,0.000000,0.000000,0.000000
1782117285.762856,1789130,-0.967773,0.032227,-0.278320,2.134146,-0.426829,1.097561,-3.706250,40.262501,-2.343750,0.0,1.000000,0.000000,0.000000,0.000000
1782117285.772856,1789140,-0.965820,0.033203,-0.277344,1.890244,-0.609756,0.975610,-3.706250,40.262501,-2.343750,0.0,1.000000,0.000000,0.000000,0.000000
1782117285.784856,1789152,-0.962891,0.032715,-0.275391,1.646341,-0.670732,0.792683,-3.875000,40.118752,-2.318750,0.0,1.000000,0.000000,0.000000,0.000000
1782117285.792856,1789160,-0.961914,0.034668,-0.275879,1.158537,-0.670732,0.853659,-3.875000,40.118752,-2.318750,0.0,1.000000,0.000000,0.000000,0.000000
1782117285.802856,1789170,-0.961426,0.035156,-0.278320,0.792683,-0.792683,0.914634,-3.725000,40.306252,-2.331250,0.0,1.000000,0.000000,0.000000,0.000000
1782117285.812856,1789180,-0.961426,0.035645,-0.280273,0.304878,-0.670732,0.975610,-3.725000,40.306252,-2.331250,0.0,1.000000,0.000000,0.000000,0.000000
1782117285.824856,1789192,-0.961914,0.034668,-0.284668,0.000000,-0.670732,0.975610,-3.818750,40.156250,-2.318750,0.0,1.000000,0.000000,0.000000,0.000000
1782117285.833856,1789201,-0.962402,0.030762,-0.286621,-0.365854,-0.670732,0.975610,-3.818750,40.156250,-2.318750,0.0,1.000000,0.000000,0.000000,0.000000
1782117285.842856,1789210,-0.965332,0.029297,-0.285645,-0.487805,-0.609756,0.853659,-3.425000,40.568752,-2.187500,0.0,1.000000,0.000000,0.000000,0.000000
1782117285.852856,1789220,-0.964355,0.028320,-0.282715,-0.426829,-0.670732,0.731707,-3.425000,40.568752,-2.187500,0.0,1.000000,0.000000,0.000000,0.000000
1782117285.862856,1789230,-0.963379,0.025879,-0.279785,-0.182927,-0.731707,0.731707,-3.875000,40.168751,-2.287500,0.0,1.000000,0.000000,0.000000,0.000000
1782117285.872856,1789240,-0.961426,0.025879,-0.280273,0.060976,-0.609756,0.853659,-3.875000,40.168751,-2.287500,0.0,1.000000,0.000000,0.000000,0.000000
1782117285.883856,1789251,-0.962891,0.025391,-0.280273,0.182927,-0.609756,0.975610,-3.875000,40.143749,-2.225000,0.0,1.000000,0.000000,0.000000,0.000000
1782117285.892856,1789260,-0.963867,0.025879,-0.279785,0.426829,-0.670732,1.036585,-3.875000,40.143749,-2.225000,0.0,1.000000,0.000000,0.000000,0.000000
1782117285.905856,1789273,-0.966309,0.025879,-0.279785,0.487805,-0.792683,1.097561,-3.968750,40.093750,-2.293750,0.0,1.000000,0.000000,0.000000,0.000000
1782117285.912856,1789280,-0.967285,0.025879,-0.278320,0.548781,-0.914634,1.158537,-3.968750,40.093750,-2.293750,0.0,1.000000,0.000000,0.000000,0.000000
1782117285.923856,1789291,-0.967773,0.027344,-0.275391,0.792683,-1.097561,1.219512,-3.687500,40.312500,-2.218750,0.0,1.000000,0.000000,0.000000,0.000000
1782117285.933856,1789301,-0.966797,0.029297,-0.274414,0.914634,-1.219512,1.036585,-3.900000,40.087502,-2.281250,0.0,1.000000,0.000000,0.000000,0.000000
1782117285.943856,1789311,-0.966309,0.031738,-0.273438,0.914634,-1.158537,1.158537,-3.900000,40.087502,-2.281250,0.0,1.000000,0.000000,0.000000,0.000000
1782117285.952856,1789320,-0.965332,0.032715,-0.272461,0.975610,-1.097561,1.158537,-3.900000,40.087502,-2.281250,0.0,1.000000,0.000000,0.000000,0.000000
1782117285.962856,1789330,-0.965820,0.034668,-0.272949,0.975610,-1.158537,1.219512,-3.768750,40.212502,-2.231250,0.0,1.000000,0.000000,0.000000,0.000000
1782117285.972856,1789340,-0.965820,0.035645,-0.271973,0.853659,-1.219512,1.341463,-3.756250,40.206249,-2.243750,0.0,1.000000,0.000000,0.000000,0.000000
1782117285.982856,1789350,-0.965332,0.035645,-0.273438,0.609756,-1.219512,1.280488,-3.756250,40.206249,-2.243750,0.0,1.000000,0.000000,0.000000,0.000000
1782117285.992856,1789360,-0.966309,0.033691,-0.274414,0.426829,-1.280488,1.219512,-3.518750,40.431252,-2.175000,0.0,1.000000,0.000000,0.000000,0.000000
1782117286.002856,1789370,-0.967285,0.031738,-0.275391,0.548781,-1.280488,1.219512,-3.518750,40.431252,-2.175000,0.0,1.000000,0.000000,0.000000,0.000000
1782117286.012856,1789380,-0.968262,0.028320,-0.274414,0.792683,-1.402439,1.158537,-3.793750,40.162502,-2.187500,0.0,1.000000,0.000000,0.000000,0.000000
1782117286.022856,1789390,-0.968262,0.029785,-0.274902,1.219512,-1.463415,1.341463,-3.793750,40.162502,-2.187500,0.0,1.000000,0.000000,0.000000,0.000000
1782117286.032856,1789400,-0.968262,0.029297,-0.274902,1.402439,-1.768293,1.402439,-3.500000,40.456249,-2.143750,0.0,1.000000,0.000000,0.000000,0.000000
1782117286.042856,1789410,-0.963867,0.031250,-0.275879,1.524390,-1.951220,1.402439,-3.500000,40.456249,-2.143750,0.0,1.000000,0.000000,0.000000,0.000000
1782117286.052856,1789420,-0.962891,0.033691,-0.276855,1.524390,-1.890244,1.463415,-3.750000,40.193752,-2.212500,0.0,1.000000,0.000000,0.000000,0.000000
1782117286.062856,1789430,-0.961426,0.035156,-0.276855,1.524390,-1.707317,1.585366,-3.750000,40.193752,-2.212500,0.0,1.000000,0.000000,0.000000,0.000000
1782117286.073856,1789441,-0.962402,0.035156,-0.279297,1.402439,-1.524390,1.524390,-3.731250,40.218750,-2.131250,0.0,1.000000,0.000000,0.000000,0.000000
1782117286.082856,1789450,-0.960449,0.034668,-0.282715,1.097561,-1.219512,1.402439,-3.731250,40.218750,-2.131250,0.0,1.000000,0.000000,0.000000,0.000000
1782117286.092856,1789460,-0.963379,0.032227,-0.282715,0.731707,-0.792683,1.158537,-3.712500,40.162502,-2.043750,0.0,1.000000,0.000000,0.000000,0.000000
1782117286.102856,1789470,-0.967773,0.032715,-0.282227,0.365854,-0.609756,1.036585,-3.712500,40.162502,-2.043750,0.0,1.000000,0.000000,0.000000,0.000000
1782117286.112856,1789480,-0.967773,0.032715,-0.282227,0.365854,-0.609756,1.036585,-3.543750,40.356251,-2.018750,0.0,1.000000,0.000000,0.000000,0.000000
1782117286.123856,1789491,-0.964844,0.032715,-0.276855,0.304878,-0.792683,0.853659,-3.543750,40.356251,-2.018750,0.0,1.000000,0.000000,0.000000,0.000000
1782117286.132856,1789500,-0.960938,0.034180,-0.273926,0.487805,-0.731707,0.853659,-3.743750,40.112499,-2.043750,0.0,1.000000,0.000000,0.000000,0.000000
1782117286.142856,1789510,-0.962891,0.032715,-0.272949,0.609756,-0.731707,1.097561,-3.743750,40.112499,-2.043750,0.0,1.000000,0.000000,0.000000,0.000000
1782117286.152856,1789520,-0.964355,0.031738,-0.274414,0.609756,-0.853659,1.341463,-3.675000,40.162502,-2.062500,0.0,1.000000,0.000000,0.000000,0.000000
1782117286.162856,1789530,-0.965820,0.032715,-0.278809,0.487805,-0.914634,1.463415,-3.675000,40.162502,-2.062500,0.0,1.000000,0.000000,0.000000,0.000000
1782117286.172856,1789540,-0.967773,0.031250,-0.282715,0.548781,-0.853659,1.707317,-3.768750,40.093750,-2.025000,0.0,1.000000,0.000000,0.000000,0.000000
1782117286.182856,1789550,-0.972656,0.027344,-0.286621,0.731707,-0.548781,2.012195,-3.768750,40.093750,-2.025000,0.0,1.000000,0.000000,0.000000,0.000000
1782117286.192856,1789560,-0.975098,0.019531,-0.293457,0.792683,-0.304878,2.012195,-3.756250,40.081249,-2.056250,0.0,1.000000,0.000000,0.000000,0.000000
1782117286.202856,1789570,-0.966309,0.017090,-0.301758,0.243902,0.243902,1.463415,-3.756250,40.081249,-2.056250,0.0,1.000000,0.000000,0.000000,0.000000
1782117286.212856,1789580,-0.958984,0.018555,-0.308594,0.121951,0.975610,1.219512,-3.687500,40.112499,-1.981250,0.0,1.000000,0.000000,0.000000,0.000000
1782117286.222856,1789590,-0.956543,0.012695,-0.306641,1.158537,0.731707,1.280488,-3.687500,40.112499,-1.981250,0.0,1.000000,0.000000,0.000000,0.000000
1782117286.232856,1789600,-0.961426,0.002441,-0.306152,2.743902,0.000000,1.646341,-3.662500,40.100002,-2.043750,0.0,1.000000,0.000000,0.000000,0.000000
1782117286.242856,1789610,-0.971680,-0.005371,-0.301758,4.695122,-1.280488,2.195122,-3.662500,40.100002,-2.043750,0.0,1.000000,0.000000,0.000000,0.000000
1782117286.252856,1789620,-0.983887,-0.013184,-0.291504,7.134147,-3.109756,2.804878,-3.631250,40.100002,-2.012500,0.0,1.000000,0.000000,0.000000,0.000000
1782117286.262856,1789630,-1.001953,-0.005371,-0.298340,9.878049,-5.426829,3.170732,-3.631250,40.106251,-1.850000,0.0,1.000000,0.000000,0.000000,0.000000
1782117286.272856,1789640,-0.979980,0.021484,-0.301270,12.134147,-8.597561,3.292683,-3.631250,40.106251,-1.850000,0.0,1.000000,0.000000,0.000000,0.000000
1782117286.282856,1789650,-0.945801,0.030762,-0.302246,11.036586,-8.841464,3.048780,-3.456250,40.243752,-1.687500,0.0,1.000000,0.000000,0.000000,0.000000
1782117286.293856,1789661,-0.943848,0.041504,-0.312500,7.865854,-7.560976,3.109756,-3.456250,40.243752,-1.687500,0.0,1.000000,0.000000,0.000000,0.000000
1782117286.302856,1789670,-0.934570,0.049316,-0.322266,4.695122,-6.829268,3.048780,-3.306250,40.262501,-1.525000,0.0,1.000000,0.000000,0.000000,0.000000
1782117286.312856,1789680,-0.922852,0.039551,-0.329102,3.902439,-5.975610,2.926829,-3.306250,40.262501,-1.525000,0.0,1.000000,0.000000,0.000000,0.000000
1782117286.322856,1789690,-0.923340,0.035156,-0.332031,4.207317,-5.121951,3.170732,-3.431250,40.112499,-1.493750,0.0,1.000000,0.000000,0.000000,0.000000
1782117286.332856,1789700,-0.925293,0.029297,-0.333984,4.024390,-5.060976,3.414634,-3.431250,40.112499,-1.493750,0.0,1.000000,0.000000,0.000000,0.000000
1782117286.343856,1789711,-0.922363,0.024414,-0.336914,3.109756,-5.365854,3.414634,-3.362500,40.125000,-1.418750,0.0,1.000000,0.000000,0.000000,0.000000
1782117286.353856,1789721,-0.925293,0.021973,-0.345703,2.134146,-5.243903,3.414634,-3.362500,40.125000,-1.418750,0.0,1.000000,0.000000,0.000000,0.000000
1782117286.362856,1789730,-0.930664,0.024902,-0.345703,0.670732,-5.121951,3.536585,-3.231250,40.187500,-1.350000,0.0,1.000000,0.000000,0.000000,0.000000
1782117286.372856,1789740,-0.937500,0.023926,-0.345703,-0.853659,-5.365854,3.414634,-3.231250,40.187500,-1.350000,0.0,1.000000,0.000000,0.000000,0.000000
1782117286.382856,1789750,-0.935547,0.022461,-0.342285,-1.463415,-5.609756,3.475610,-3.150000,40.174999,-1.318750,0.0,1.000000,0.000000,0.000000,0.000000
1782117286.392856,1789760,-0.937500,0.022461,-0.334473,-0.914634,-5.365854,3.658537,-3.150000,40.174999,-1.318750,0.0,1.000000,0.000000,0.000000,0.000000
1782117286.402856,1789770,-0.940430,0.017090,-0.326660,0.426829,-5.121951,3.780488,-2.993750,40.250000,-1.300000,0.0,1.000000,0.000000,0.000000,0.000000
1782117286.412856,1789780,-0.945312,0.010742,-0.315918,1.341463,-5.060976,3.658537,-2.993750,40.250000,-1.300000,0.0,1.000000,0.000000,0.000000,0.000000
1782117286.423856,1789791,-0.950195,0.005859,-0.309082,2.256098,-4.756098,3.597561,-3.137500,40.049999,-1.256250,0.0,1.000000,0.000000,0.000000,0.000000
1782117286.432856,1789800,-0.960449,0.005371,-0.299316,2.804878,-5.304878,3.475610,-3.137500,40.049999,-1.256250,0.0,1.000000,0.000000,0.000000,0.000000
1782117286.442856,1789810,-0.964355,0.010742,-0.296875,3.658537,-6.402439,3.414634,-3.143750,39.937500,-1.256250,0.0,1.000000,0.000000,0.000000,0.000000
1782117286.452856,1789820,-0.958008,0.022949,-0.292969,4.085366,-7.743903,3.658537,-3.143750,39.937500,-1.256250,0.0,1.000000,0.000000,0.000000,0.000000
1782117286.463856,1789831,-0.957520,0.027832,-0.286133,3.658537,-8.414635,3.475610,-3.112500,39.924999,-1.225000,0.0,1.000000,0.000000,0.000000,0.000000
1782117286.474856,1789842,-0.955566,0.033203,-0.284180,2.560976,-8.597561,3.536585,-3.112500,39.924999,-1.225000,0.0,1.000000,0.000000,0.000000,0.000000
1782117286.483856,1789851,-0.954590,0.043945,-0.283691,1.463415,-8.902439,3.170732,-2.887500,40.056252,-1.156250,0.0,1.000000,0.000000,0.000000,0.000000
1782117286.492856,1789860,-0.954590,0.046875,-0.283203,0.731707,-9.024390,2.865854,-2.887500,40.056252,-1.156250,0.0,1.000000,0.000000,0.000000,0.000000
1782117286.503856,1789871,-0.953613,0.044434,-0.283691,0.121951,-8.841464,2.500000,-3.068750,39.781250,-1.112500,0.0,1.000000,0.000000,0.000000,0.000000
1782117286.513856,1789881,-0.946289,0.040039,-0.295410,-0.365854,-8.048780,2.256098,-3.068750,39.781250,-1.112500,0.0,1.000000,0.000000,0.000000,0.000000
1782117286.522856,1789890,-0.958008,0.037598,-0.289062,-1.402439,-7.073171,1.646341,-3.006250,39.843750,-1.156250,0.0,1.000000,0.000000,0.000000,0.000000
1782117286.532856,1789900,-0.965820,0.037109,-0.290527,-3.170732,-8.597561,0.487805,-3.006250,39.843750,-1.156250,0.0,1.000000,0.000000,0.000000,0.000000
1782117286.542856,1789910,-0.967285,0.035156,-0.291504,-3.475610,-8.597561,0.121951,-3.031250,39.787502,-1.087500,0.0,1.000000,0.000000,0.000000,0.000000
1782117286.553856,1789921,-0.974121,0.039551,-0.293945,-3.414634,-9.329268,-0.182927,-3.056250,39.793751,-1.031250,0.0,1.000000,0.000000,0.000000,0.000000
1782117286.562856,1789930,-0.978516,0.045898,-0.292969,-3.536585,-10.304878,-0.182927,-3.056250,39.793751,-1.031250,0.0,1.000000,0.000000,0.000000,0.000000
1782117286.572856,1789940,-0.980957,0.048828,-0.290527,-4.512195,-11.158537,-0.609756,-3.200000,39.700001,-1.056250,0.0,1.000000,0.000000,0.000000,0.000000
1782117286.582856,1789950,-0.982422,0.045410,-0.285645,-5.914634,-11.341464,-1.280488,-3.200000,39.700001,-1.056250,0.0,1.000000,0.000000,0.000000,0.000000
1782117286.593856,1789961,-0.995117,0.035156,-0.282227,-7.012195,-11.036586,-2.195122,-3.218750,39.762501,-1.150000,0.0,1.000000,0.000000,0.000000,0.000000
1782117286.603856,1789971,-1.013184,0.024902,-0.272461,-7.195122,-11.890244,-2.987805,-3.218750,39.762501,-1.150000,0.0,1.000000,0.000000,0.000000,0.000000
1782117286.612856,1789980,-1.034180,0.010254,-0.255371,-6.097561,-14.207317,-3.841464,-3.243750,39.893749,-1.062500,0.0,1.000000,0.000000,0.000000,0.000000
1782117286.622856,1789990,-1.055176,-0.001465,-0.236816,-2.560976,-16.524391,-4.207317,-3.243750,39.893749,-1.062500,0.0,1.000000,0.000000,0.000000,0.000000
1782117286.633856,1790001,-1.067383,-0.000977,-0.217285,3.902439,-19.512196,-3.902439,-3.587500,39.537502,-1.093750,0.0,1.000000,0.000000,0.000000,0.000000
1782117286.642856,1790010,-1.080078,0.001465,-0.200195,12.195122,-23.048780,-3.231707,-3.587500,39.537502,-1.093750,0.0,1.000000,0.000000,0.000000,0.000000
1782117286.652856,1790020,-1.067871,0.007324,-0.187500,20.975611,-27.256098,-1.585366,-3.681250,39.431252,-0.962500,0.0,1.000000,0.000000,0.000000,0.000000
1782117286.662856,1790030,-1.045898,0.015625,-0.187012,29.085367,-30.731709,0.243902,-3.681250,39.431252,-0.962500,0.0,1.000000,0.000000,0.000000,0.000000
1782117286.673856,1790041,-1.009766,0.021973,-0.187988,35.914635,-32.987804,1.585366,-3.506250,39.618752,-0.506250,0.0,1.000000,0.000000,0.000000,0.000000
1782117286.682856,1790050,-0.972656,0.018555,-0.178223,40.365856,-34.390244,2.012195,-3.506250,39.618752,-0.506250,0.0,1.000000,0.000000,0.000000,0.000000
1782117286.692856,1790060,-0.942383,0.011230,-0.170898,41.768295,-32.926830,1.524390,-3.637500,39.368752,-0.056250,0.0,1.000000,0.000000,0.000000,0.000000
1782117286.702856,1790070,-0.952148,0.009766,-0.162598,40.609756,-27.500000,0.731707,-3.637500,39.368752,-0.056250,0.0,1.000000,0.000000,0.000000,0.000000
1782117286.712856,1790080,-0.992676,0.013184,-0.166504,39.207317,-20.975611,0.731707,-3.593750,39.293751,0.425000,0.0,1.000000,0.000000,0.000000,0.000000
1782117286.722856,1790090,-1.035645,0.034180,-0.168457,38.963417,-16.707317,2.134146,-3.593750,39.293751,0.425000,0.0,1.000000,0.000000,0.000000,0.000000
1782117286.732856,1790100,-1.037598,0.052246,-0.151367,40.121952,-17.134148,4.390244,-3.412500,39.331249,0.756250,0.0,1.000000,0.000000,0.000000,0.000000
1782117286.742856,1790110,-1.004395,0.063965,-0.126953,40.731709,-18.475611,5.182927,-3.412500,39.331249,0.756250,0.0,1.000000,0.000000,0.000000,0.000000
1782117286.753856,1790121,-0.931152,0.067871,-0.108887,40.243904,-19.207317,3.902439,-3.062500,39.456249,1.075000,0.0,1.000000,0.000000,0.000000,0.000000
1782117286.763856,1790131,-0.865234,0.071777,-0.110352,38.109756,-15.182927,2.073171,-3.062500,39.456249,1.075000,0.0,1.000000,0.000000,0.000000,0.000000
1782117286.772856,1790140,-0.845703,0.088867,-0.125488,34.207317,-8.048780,1.402439,-2.968750,39.368752,1.387500,0.0,1.000000,0.000000,0.000000,0.000000
1782117286.782856,1790150,-0.875000,0.107910,-0.132324,29.085367,-0.304878,2.439024,-2.968750,39.368752,1.387500,0.0,1.000000,0.000000,0.000000,0.000000
1782117286.792856,1790160,-0.930176,0.129883,-0.112793,24.573172,4.939024,2.987805,-2.937500,39.200001,1.437500,0.0,1.000000,0.000000,0.000000,0.000000
1782117286.802856,1790170,-0.984863,0.151855,-0.073242,20.243902,8.048780,1.890244,-2.937500,39.200001,1.437500,0.0,1.000000,0.000000,0.000000,0.000000
1782117286.812856,1790180,-1.029297,0.163574,-0.037109,14.390244,9.939025,-0.121951,-2.781250,39.181252,1.418750,0.0,1.000000,0.000000,0.000000,0.000000
1782117286.822856,1790190,-1.058594,0.165039,-0.008789,7.621952,9.512196,-2.012195,-2.781250,39.181252,1.418750,0.0,1.000000,0.000000,0.000000,0.000000
1782117286.834856,1790202,-1.061035,0.155273,0.007812,2.012195,6.951220,-3.048780,-2.837500,39.137501,1.318750,0.0,1.000000,0.000000,0.000000,0.000000
1782117286.842856,1790210,-1.038574,0.137695,0.020996,-0.731707,4.329268,-3.231707,-2.837500,39.137501,1.318750,0.0,1.000000,0.000000,0.000000,0.000000
1782117286.852856,1790220,-1.019531,0.120605,0.033203,-2.073171,3.170732,-3.170732,-2.662500,39.318752,1.168750,0.0,1.000000,0.000000,0.000000,0.000000
1782117286.862856,1790230,-1.032227,0.111816,0.038086,-3.780488,3.353659,-2.987805,-2.912500,39.093750,1.025000,0.0,1.000000,0.000000,0.000000,0.000000
1782117286.872856,1790240,-1.056641,0.106934,0.032715,-5.731708,2.439024,-2.134146,-2.912500,39.093750,1.025000,0.0,1.000000,0.000000,0.000000,0.000000
1782117286.883856,1790251,-1.072754,0.097656,0.023438,-7.256098,0.182927,-1.097561,-2.762500,39.400002,1.162500,0.0,1.000000,0.000000,0.000000,0.000000
1782117286.892856,1790260,-1.063477,0.085449,0.010254,-7.865854,-2.926829,-0.853659,-2.762500,39.400002,1.162500,0.0,1.000000,0.000000,0.000000,0.000000
1782117286.902856,1790270,-1.031738,0.077148,-0.005859,-8.292683,-5.121951,-1.646341,-3.031250,39.200001,1.093750,0.0,1.000000,0.000000,0.000000,0.000000
1782117286.913856,1790281,-0.992676,0.074707,-0.016113,-8.292683,-6.097561,-2.560976,-3.031250,39.200001,1.093750,0.0,1.000000,0.000000,0.000000,0.000000
1782117286.922856,1790290,-0.959473,0.076172,-0.026367,-8.963415,-5.487805,-3.109756,-3.050000,39.250000,1.268750,0.0,1.000000,0.000000,0.000000,0.000000
1782117286.932856,1790300,-0.944824,0.084961,-0.048828,-10.792684,-3.597561,-2.621951,-3.050000,39.250000,1.268750,0.0,1.000000,0.000000,0.000000,0.000000
1782117286.943856,1790311,-0.943848,0.092285,-0.061035,-12.926829,-1.463415,-1.158537,-2.931250,39.312500,1.300000,0.0,1.000000,0.000000,0.000000,0.000000
1782117286.954856,1790322,-0.946777,0.092285,-0.067383,-15.182927,0.304878,0.182927,-2.931250,39.312500,1.300000,0.0,1.000000,0.000000,0.000000,0.000000
1782117286.963856,1790331,-0.939453,0.088867,-0.068359,-17.621952,1.829268,0.792683,-3.143750,39.168751,1.256250,0.0,1.000000,0.000000,0.000000,0.000000
1782117286.972856,1790340,-0.939453,0.088867,-0.068359,-17.621952,1.829268,0.792683,-3.143750,39.168751,1.256250,0.0,1.000000,0.000000,0.000000,0.000000
1782117286.982856,1790350,-0.951660,0.082520,-0.066406,-20.609756,5.182927,0.609756,-3.300000,38.987499,1.187500,0.0,1.000000,0.000000,0.000000,0.000000
1782117286.994856,1790362,-0.992188,0.071777,-0.083496,-23.658537,8.841464,1.219512,-3.300000,38.987499,1.187500,0.0,1.000000,0.000000,0.000000,0.000000
1782117287.002856,1790370,-1.060059,0.053711,-0.104980,-25.000000,10.731708,3.048780,-3.200000,39.025002,0.981250,0.0,1.000000,0.000000,0.000000,0.000000
1782117287.012856,1790380,-1.097656,0.019531,-0.106445,-22.926830,8.536586,4.329268,-3.200000,39.025002,0.981250,0.0,1.000000,0.000000,0.000000,0.000000
1782117287.022856,1790390,-1.080566,-0.008301,-0.093750,-17.682928,4.390244,3.353659,-3.287500,38.881252,0.893750,0.0,1.000000,0.000000,0.000000,0.000000
1782117287.033856,1790401,-0.988770,-0.020020,-0.100098,-10.060976,3.902439,-2.012195,-3.287500,38.881252,0.893750,0.0,1.000000,0.000000,0.000000,0.000000
1782117287.042856,1790410,-0.988770,-0.020020,-0.100098,-10.060976,3.902439,-2.012195,-2.912500,39.225002,1.006250,0.0,1.000000,0.000000,0.000000,0.000000
1782117287.052856,1790420,-0.977051,-0.009766,-0.117188,-8.902439,6.219512,-2.560976,-2.912500,39.225002,1.006250,0.0,1.000000,0.000000,0.000000,0.000000
1782117287.062856,1790430,-0.992676,0.004883,-0.131348,-7.865854,6.646342,-1.036585,-3.343750,38.793751,0.925000,0.0,1.000000,0.000000,0.000000,0.000000
1782117287.074856,1790442,-1.012695,0.016113,-0.131836,-5.792683,4.817073,1.219512,-3.343750,38.793751,0.925000,0.0,1.000000,0.000000,0.000000,0.000000
1782117287.082856,1790450,-1.024414,0.035156,-0.124023,-3.292683,2.012195,2.743902,-3.212500,38.918751,1.081250,0.0,1.000000,0.000000,0.000000,0.000000
1782117287.092856,1790460,-1.031738,0.057617,-0.119141,-2.743902,-1.097561,3.048780,-3.212500,38.918751,1.081250,0.0,1.000000,0.000000,0.000000,0.000000
1782117287.102856,1790470,-1.020996,0.083496,-0.127930,-3.780488,-2.378049,4.512195,-3.187500,38.906250,1.225000,0.0,1.000000,0.000000,0.000000,0.000000
1782117287.113856,1790481,-1.002930,0.096191,-0.141602,-5.060976,-3.719512,6.341464,-3.187500,38.906250,1.225000,0.0,1.000000,0.000000,0.000000,0.000000
1782117287.122856,1790490,-0.981934,0.096680,-0.154297,-6.280488,-4.634146,7.500000,-3.043750,39.018749,1.412500,0.0,1.000000,0.000000,0.000000,0.000000
1782117287.133856,1790501,-0.963867,0.093750,-0.159180,-8.353659,-4.207317,6.951220,-3.062500,38.843750,1.556250,0.0,1.000000,0.000000,0.000000,0.000000
1782117287.142856,1790510,-0.952148,0.091309,-0.173828,-12.500000,-2.682927,5.609756,-3.062500,38.843750,1.556250,0.0,1.000000,0.000000,0.000000,0.000000
1782117287.155856,1790523,-1.007812,0.095703,-0.194336,-21.890244,0.731707,1.524390,-3.050000,38.793751,1.618750,0.0,1.000000,0.000000,0.000000,0.000000
1782117287.163856,1790531,-1.007812,0.095703,-0.194336,-21.890244,0.731707,1.524390,-3.050000,38.793751,1.618750,0.0,1.000000,0.000000,0.000000,0.000000
1782117287.172856,1790540,-0.994629,0.085449,-0.198242,-23.475611,0.487805,0.487805,-3.081250,38.825001,1.625000,0.0,1.000000,0.000000,0.000000,0.000000
1782117287.183856,1790551,-0.997559,0.052734,-0.190918,-22.317074,0.670732,-1.097561,-3.081250,38.825001,1.625000,0.0,1.000000,0.000000,0.000000,0.000000
1782117287.194856,1790562,-0.991211,0.012207,-0.187988,-19.634148,2.378049,-1.707317,-3.168750,38.743752,1.568750,0.0,1.000000,0.000000,0.000000,0.000000
1782117287.202856,1790570,-0.997070,-0.013672,-0.194824,-17.682928,3.414634,-2.073171,-3.168750,38.743752,1.568750,0.0,1.000000,0.000000,0.000000,0.000000
1782117287.213856,1790581,-0.994141,-0.023926,-0.202637,-15.426829,4.695122,-1.158537,-3.112500,38.793751,1.518750,0.0,1.000000,0.000000,0.000000,0.000000
1782117287.222856,1790590,-0.988770,-0.021973,-0.214355,-13.475610,4.207317,-0.548781,-3.112500,38.793751,1.518750,0.0,1.000000,0.000000,0.000000,0.000000
1782117287.236856,1790604,-0.975586,-0.013672,-0.211914,-11.097561,2.804878,0.182927,-3.181250,38.743752,1.506250,0.0,1.000000,0.000000,0.000000,0.000000
1782117287.243856,1790611,-0.974121,-0.001465,-0.203613,-8.475610,2.743902,0.548781,-3.181250,38.743752,1.506250,0.0,1.000000,0.000000,0.000000,0.000000
1782117287.252856,1790620,-0.983887,0.001953,-0.201660,-8.292683,-0.304878,-0.548781,-3.162500,38.812500,1.687500,0.0,1.000000,0.000000,0.000000,0.000000
1782117287.262856,1790630,-0.957520,0.006348,-0.219238,-6.768293,0.060976,0.243902,-3.162500,38.812500,1.687500,0.0,1.000000,0.000000,0.000000,0.000000
1782117287.275856,1790643,-0.953125,0.013672,-0.231934,-5.426829,2.743902,0.243902,-3.268750,38.837502,1.731250,0.0,1.000000,0.000000,0.000000,0.000000
1782117287.282856,1790650,-0.956055,0.028320,-0.238281,-3.536585,6.524390,0.853659,-3.268750,38.837502,1.731250,0.0,1.000000,0.000000,0.000000,0.000000
1782117287.292856,1790660,-0.982910,0.032227,-0.234863,-2.012195,7.804878,0.914634,-3.312500,38.981251,1.675000,0.0,1.000000,0.000000,0.000000,0.000000
1782117287.302856,1790670,-0.989258,0.031738,-0.226074,-0.548781,6.341464,0.426829,-3.312500,38.981251,1.675000,0.0,1.000000,0.000000,0.000000,0.000000
1782117287.316856,1790684,-0.968750,0.037598,-0.223633,1.463415,6.219512,-0.426829,-3.312500,38.975002,1.606250,0.0,1.000000,0.000000,0.000000,0.000000
1782117287.323856,1790691,-0.960449,0.056641,-0.215820,0.731707,7.073171,-1.402439,-3.312500,38.975002,1.606250,0.0,1.000000,0.000000,0.000000,0.000000
1782117287.333856,1790701,-0.954102,0.075195,-0.207520,-3.231707,9.024390,-2.378049,-3.350000,39.081249,1.581250,0.0,1.000000,0.000000,0.000000,0.000000
1782117287.342856,1790710,-0.956543,0.087402,-0.205078,-7.743903,10.670732,-3.231707,-3.350000,39.081249,1.581250,0.0,1.000000,0.000000,0.000000,0.000000
1782117287.355856,1790723,-0.957031,0.102539,-0.196289,-12.073171,11.707317,-3.231707,-3.543750,38.975002,1.431250,0.0,1.000000,0.000000,0.000000,0.000000
1782117287.363856,1790731,-0.972656,0.101562,-0.189453,-18.780489,10.853659,-4.085366,-3.543750,38.975002,1.431250,0.0,1.000000,0.000000,0.000000,0.000000
1782117287.372856,1790740,-0.955566,0.101074,-0.202637,-23.109756,12.012196,-3.048780,-3.593750,39.137501,1.181250,0.0,1.000000,0.000000,0.000000,0.000000
1782117287.382856,1790750,-0.959473,0.097656,-0.213867,-25.792683,14.268293,-1.890244,-3.593750,39.137501,1.181250,0.0,1.000000,0.000000,0.000000,0.000000
1782117287.392856,1790760,-1.000977,0.093750,-0.226074,-29.085367,14.390244,-1.768293,-3.818750,39.006252,0.968750,0.0,1.000000,0.000000,0.000000,0.000000
1782117287.402856,1790770,-0.983887,0.093262,-0.227051,-32.317074,10.670732,-2.804878,-3.818750,39.006252,0.968750,0.0,1.000000,0.000000,0.000000,0.000000
1782117287.412856,1790780,-0.960938,0.097168,-0.238770,-35.548782,10.670732,-4.085366,-3.950000,39.156250,0.718750,0.0,1.000000,0.000000,0.000000,0.000000
1782117287.422856,1790790,-0.982910,0.085938,-0.233398,-37.743904,10.487805,-4.939024,-3.950000,39.156250,0.718750,0.0,1.000000,0.000000,0.000000,0.000000
1782117287.432856,1790800,-0.942871,0.054199,-0.241211,-38.109756,7.926829,-5.060976,-4.150000,39.049999,0.443750,0.0,1.000000,0.000000,0.000000,0.000000
1782117287.442856,1790810,-0.962891,0.019043,-0.233887,-35.243904,12.865854,-4.451220,-4.343750,39.137501,0.112500,0.0,1.000000,0.000000,0.000000,0.000000
1782117287.452856,1790820,-0.970215,-0.011719,-0.236328,-34.634148,12.987805,-4.634146,-4.343750,39.137501,0.112500,0.0,1.000000,0.000000,0.000000,0.000000
1782117287.462856,1790830,-0.987793,-0.031738,-0.234375,-33.536587,13.658537,-4.634146,-4.543750,39.137501,-0.268750,0.0,1.000000,0.000000,0.000000,0.000000
1782117287.473856,1790841,-0.996094,-0.055176,-0.240723,-30.914635,12.682927,-4.451220,-4.543750,39.137501,-0.268750,0.0,1.000000,0.000000,0.000000,0.000000
1782117287.482856,1790850,-1.001465,-0.066406,-0.261230,-27.012196,10.670732,-3.841464,-4.606250,39.306252,-0.506250,0.0,1.000000,0.000000,0.000000,0.000000
1782117287.492856,1790860,-0.986328,-0.059570,-0.294434,-21.219513,6.951220,-4.573171,-4.606250,39.306252,-0.506250,0.0,1.000000,0.000000,0.000000,0.000000
1782117287.502856,1790870,-0.959961,-0.030762,-0.310059,-16.402439,3.719512,-4.634146,-4.818750,39.200001,-0.737500,0.0,1.000000,0.000000,0.000000,0.000000
1782117287.512856,1790880,-0.931152,0.000488,-0.317383,-12.012196,2.378049,-4.878049,-4.818750,39.200001,-0.737500,0.0,1.000000,0.000000,0.000000,0.000000
1782117287.522856,1790890,-0.923340,0.025879,-0.312012,-7.439024,4.390244,-4.451220,-4.943750,39.212502,-0.818750,0.0,1.000000,0.000000,0.000000,0.000000
1782117287.532856,1790900,-0.926758,0.014160,-0.305664,-3.292683,6.951220,-3.475610,-4.943750,39.212502,-0.818750,0.0,1.000000,0.000000,0.000000,0.000000
1782117287.542856,1790910,-0.937500,-0.013672,-0.308105,-1.890244,9.390244,-2.987805,-4.762500,39.487499,-0.862500,0.0,1.000000,0.000000,0.000000,0.000000
1782117287.555856,1790923,-0.948730,-0.039551,-0.314453,-1.585366,11.707317,-2.804878,-4.762500,39.487499,-0.862500,0.0,1.000000,0.000000,0.000000,0.000000
1782117287.562856,1790930,-0.958496,-0.060547,-0.308105,-0.426829,13.231708,-2.865854,-5.018750,39.275002,-1.068750,0.0,1.000000,0.000000,0.000000,0.000000
1782117287.573856,1790941,-0.971191,-0.069824,-0.297852,1.280488,14.878049,-3.536585,-5.018750,39.275002,-1.068750,0.0,1.000000,0.000000,0.000000,0.000000
1782117287.583856,1790951,-0.990723,-0.067383,-0.288086,4.329268,15.365854,-4.085366,-5.156250,39.243752,-1.250000,0.0,1.000000,0.000000,0.000000,0.000000
1782117287.593856,1790961,-1.002441,-0.049805,-0.292480,8.109756,13.719513,-4.085366,-5.156250,39.243752,-1.250000,0.0,1.000000,0.000000,0.000000,0.000000
1782117287.603856,1790971,-1.000000,-0.010254,-0.297852,11.402439,10.060976,-3.841464,-5.212500,39.268749,-1.418750,0.0,1.000000,0.000000,0.000000,0.000000
1782117287.613856,1790981,-0.974609,0.040527,-0.299316,13.963415,7.012195,-3.109756,-5.212500,39.268749,-1.418750,0.0,1.000000,0.000000,0.000000,0.000000
1782117287.623856,1790991,-0.954102,0.082520,-0.294434,14.756098,5.365854,-2.195122,-5.281250,39.100002,-1.481250,0.0,1.000000,0.000000,0.000000,0.000000
1782117287.632856,1791000,-0.938477,0.099121,-0.290039,14.512196,5.365854,-1.036585,-5.281250,39.100002,-1.481250,0.0,1.000000,0.000000,0.000000,0.000000
1782117287.642856,1791010,-0.939941,0.088379,-0.286621,13.719513,6.158537,0.121951,-5.237500,39.193752,-1.487500,0.0,1.000000,0.000000,0.000000,0.000000
1782117287.655856,1791023,-0.949219,0.057617,-0.279297,12.560976,6.890244,0.853659,-5.237500,39.193752,-1.487500,0.0,1.000000,0.000000,0.000000,0.000000
1782117287.662856,1791030,-0.959961,0.023926,-0.277344,10.182927,7.500000,0.853659,-5.268750,39.156250,-1.500000,0.0,1.000000,0.000000,0.000000,0.000000
1782117287.672856,1791040,-0.966797,-0.004395,-0.276367,7.317073,8.231708,0.243902,-5.268750,39.156250,-1.500000,0.0,1.000000,0.000000,0.000000,0.000000
1782117287.682856,1791050,-0.969727,-0.024902,-0.276367,5.060976,8.780488,-0.670732,-5.256250,39.268749,-1.593750,0.0,1.000000,0.000000,0.000000,0.000000
1782117287.692856,1791060,-0.971191,-0.028809,-0.276855,3.597561,8.963415,-1.402439,-5.256250,39.268749,-1.593750,0.0,1.000000,0.000000,0.000000,0.000000
1782117287.702856,1791070,-0.973145,-0.017090,-0.275391,2.926829,8.597561,-1.829268,-5.287500,39.243752,-1.706250,0.0,1.000000,0.000000,0.000000,0.000000
1782117287.712856,1791080,-0.972656,-0.000977,-0.276367,2.743902,7.317073,-1.768293,-5.287500,39.243752,-1.706250,0.0,1.000000,0.000000,0.000000,0.000000
1782117287.722856,1791090,-0.969238,0.010742,-0.280273,3.048780,5.853659,-1.585366,-5.275000,39.206249,-1.831250,0.0,1.000000,0.000000,0.000000,0.000000
1782117287.733856,1791101,-0.966309,0.016113,-0.284668,3.902439,4.939024,-1.280488,-5.106250,39.424999,-1.787500,0.0,1.000000,0.000000,0.000000,0.000000
1782117287.743856,1791111,-0.964844,0.017578,-0.282227,4.756098,4.329268,-1.036585,-5.106250,39.424999,-1.787500,0.0,1.000000,0.000000,0.000000,0.000000
1782117287.752856,1791120,-0.965332,0.016113,-0.277832,5.304878,4.024390,-0.792683,-5.350000,39.237499,-1.900000,0.0,1.000000,0.000000,0.000000,0.000000
1782117287.764856,1791132,-0.965332,0.014160,-0.273926,5.365854,4.085366,-0.487805,-5.350000,39.237499,-1.900000,0.0,1.000000,0.000000,0.000000,0.000000
1782117287.772856,1791140,-0.968750,0.011719,-0.273438,5.000000,4.268293,-0.060976,-4.956250,39.650002,-1.862500,0.0,1.000000,0.000000,0.000000,0.000000
1782117287.782856,1791150,-0.966309,0.009277,-0.273438,4.512195,4.573171,0.243902,-4.956250,39.650002,-1.862500,0.0,1.000000,0.000000,0.000000,0.000000
1782117287.792856,1791160,-0.965820,0.010254,-0.274902,3.841464,5.182927,0.365854,-5.318750,39.337502,-1.975000,0.0,1.000000,0.000000,0.000000,0.000000
1782117287.802856,1791170,-0.965820,0.009766,-0.276367,3.902439,5.426829,0.548781,-5.318750,39.337502,-1.975000,0.0,1.000000,0.000000,0.000000,0.000000
1782117287.812856,1791180,-0.970703,0.004883,-0.278320,4.695122,5.426829,0.670732,-5.218750,39.450001,-2.037500,0.0,1.000000,0.000000,0.000000,0.000000
1782117287.822856,1791190,-0.975098,0.001953,-0.279297,5.487805,5.121951,0.731707,-5.218750,39.450001,-2.037500,0.0,1.000000,0.000000,0.000000,0.000000
1782117287.832856,1791200,-0.975098,0.001953,-0.279297,5.487805,5.121951,0.731707,-5.293750,39.350002,-2.118750,0.0,1.000000,0.000000,0.000000,0.000000
1782117287.842856,1791210,-0.974121,-0.001953,-0.273926,6.463415,4.756098,0.731707,-5.293750,39.350002,-2.118750,0.0,1.000000,0.000000,0.000000,0.000000
1782117287.852856,1791220,-0.968262,-0.005859,-0.269043,7.012195,4.695122,0.426829,-5.237500,39.368752,-2.106250,0.0,1.000000,0.000000,0.000000,0.000000
1782117287.862856,1791230,-0.965332,-0.004883,-0.264648,7.012195,4.878049,0.121951,-5.237500,39.368752,-2.106250,0.0,1.000000,0.000000,0.000000,0.000000
1782117287.873856,1791241,-0.965332,-0.001465,-0.266602,6.951220,5.060976,0.121951,-5.312500,39.350002,-2.162500,0.0,1.000000,0.000000,0.000000,0.000000
1782117287.882856,1791250,-0.966309,0.002930,-0.267578,7.073171,5.243903,0.548781,-5.312500,39.350002,-2.162500,0.0,1.000000,0.000000,0.000000,0.000000
1782117287.892856,1791260,-0.970215,0.008789,-0.271484,7.256098,5.487805,1.036585,-5.287500,39.368752,-2.262500,0.0,1.000000,0.000000,0.000000,0.000000
1782117287.902856,1791270,-0.973633,0.015625,-0.270508,7.560976,5.426829,1.707317,-5.287500,39.368752,-2.262500,0.0,1.000000,0.000000,0.000000,0.000000
1782117287.912856,1791280,-0.974609,0.018066,-0.266113,7.804878,5.121951,2.073171,-5.268750,39.375000,-2.275000,0.0,1.000000,0.000000,0.000000,0.000000
1782117287.922856,1791290,-0.972656,0.015137,-0.263672,8.231708,4.695122,1.951220,-5.268750,39.375000,-2.275000,0.0,1.000000,0.000000,0.000000,0.000000
1782117287.933856,1791301,-0.971191,0.015625,-0.259277,8.841464,4.451220,1.829268,-5.212500,39.431252,-2.293750,0.0,1.000000,0.000000,0.000000,0.000000
1782117287.942856,1791310,-0.966309,0.016113,-0.254395,9.817074,4.390244,1.585366,-5.212500,39.431252,-2.293750,0.0,1.000000,0.000000,0.000000,0.000000
1782117287.953856,1791321,-0.963379,0.016113,-0.253418,10.609756,4.573171,1.524390,-5.031250,39.587502,-2.300000,0.0,1.000000,0.000000,0.000000,0.000000
1782117287.962856,1791330,-0.964355,0.012207,-0.256836,11.280488,5.426829,1.707317,-5.031250,39.587502,-2.300000,0.0,1.000000,0.000000,0.000000,0.000000
1782117287.972856,1791340,-0.974609,0.007324,-0.256348,11.097561,5.487805,1.646341,-4.812500,39.831249,-2.256250,0.0,1.000000,0.000000,0.000000,0.000000
1782117287.982856,1791350,-0.976074,0.004883,-0.260254,10.670732,5.609756,1.585366,-4.812500,39.831249,-2.256250,0.0,1.000000,0.000000,0.000000,0.000000
1782117287.992856,1791360,-0.976074,0.005859,-0.259277,10.182927,5.548780,1.280488,-5.181250,39.412502,-2.425000,0.0,1.000000,0.000000,0.000000,0.000000
1782117288.002856,1791370,-0.975586,0.010742,-0.259766,9.634147,5.304878,1.036585,-5.181250,39.412502,-2.425000,0.0,1.000000,0.000000,0.000000,0.000000
1782117288.013856,1791381,-0.969238,0.017578,-0.261230,9.085366,4.878049,0.914634,-5.087500,39.487499,-2.425000,0.0,1.000000,0.000000,0.000000,0.000000
1782117288.022856,1791390,-0.961426,0.023438,-0.267090,8.658537,4.817073,0.853659,-5.087500,39.487499,-2.425000,0.0,1.000000,0.000000,0.000000,0.000000
1782117288.032856,1791400,-0.957031,0.027344,-0.268555,8.353659,5.548780,0.914634,-5.137500,39.481251,-2.437500,0.0,1.000000,0.000000,0.000000,0.000000
1782117288.042856,1791410,-0.958008,0.025391,-0.268555,8.048780,6.219512,0.975610,-5.025000,39.531250,-2.525000,0.0,1.000000,0.000000,0.000000,0.000000
1782117288.052856,1791420,-0.966309,0.017090,-0.268555,8.048780,7.073171,1.097561,-5.025000,39.531250,-2.525000,0.0,1.000000,0.000000,0.000000,0.000000
1782117288.062856,1791430,-0.975586,0.003906,-0.269043,8.170732,7.317073,1.097561,-5.087500,39.506252,-2.587500,0.0,1.000000,0.000000,0.000000,0.000000
1782117288.073856,1791441,-0.984863,-0.003418,-0.271484,8.231708,6.951220,0.975610,-5.087500,39.506252,-2.587500,0.0,1.000000,0.000000,0.000000,0.000000
1782117288.083856,1791451,-0.984863,-0.002441,-0.278320,8.597561,5.853659,0.914634,-5.043750,39.549999,-2.600000,0.0,1.000000,0.000000,0.000000,0.000000
1782117288.092856,1791460,-0.977051,0.003906,-0.281250,8.902439,5.121951,0.914634,-5.043750,39.549999,-2.600000,0.0,1.000000,0.000000,0.000000,0.000000
1782117288.102856,1791470,-0.969727,0.015137,-0.285156,8.719512,5.060976,0.975610,-5.068750,39.575001,-2.612500,0.0,1.000000,0.000000,0.000000,0.000000
1782117288.113856,1791481,-0.963867,0.022949,-0.284668,8.170732,5.487805,0.914634,-5.068750,39.575001,-2.612500,0.0,1.000000,0.000000,0.000000,0.000000
1782117288.123856,1791491,-0.956543,0.026855,-0.285156,7.256098,6.158537,0.853659,-4.962500,39.625000,-2.675000,0.0,1.000000,0.000000,0.000000,0.000000
1782117288.132856,1791500,-0.956055,0.031250,-0.289062,6.219512,6.524390,0.853659,-4.962500,39.625000,-2.675000,0.0,1.000000,0.000000,0.000000,0.000000
1782117288.142856,1791510,-0.958984,0.034180,-0.291992,5.121951,6.646342,0.792683,-4.950000,39.687500,-2.768750,0.0,1.000000,0.000000,0.000000,0.000000
1782117288.152856,1791520,-0.959473,0.033691,-0.292480,3.719512,6.280488,0.670732,-4.950000,39.687500,-2.768750,0.0,1.000000,0.000000,0.000000,0.000000
1782117288.162856,1791530,-0.950684,0.032715,-0.295898,2.500000,5.792683,0.487805,-5.025000,39.674999,-2.875000,0.0,1.000000,0.000000,0.000000,0.000000
1782117288.172856,1791540,-0.945801,0.032227,-0.301270,2.012195,6.158537,0.548781,-5.025000,39.674999,-2.875000,0.0,1.000000,0.000000,0.000000,0.000000
1782117288.182856,1791550,-0.954102,0.028809,-0.301270,2.195122,6.768293,0.792683,-5.006250,39.750000,-2.875000,0.0,1.000000,0.000000,0.000000,0.000000
1782117288.192856,1791560,-0.960938,0.027344,-0.301270,2.195122,6.646342,0.975610,-5.006250,39.750000,-2.875000,0.0,1.000000,0.000000,0.000000,0.000000
1782117288.202856,1791570,-0.962891,0.024902,-0.298340,1.829268,5.975610,0.975610,-4.981250,39.743752,-3.006250,0.0,1.000000,0.000000,0.000000,0.000000
1782117288.212856,1791580,-0.963379,0.022949,-0.300781,1.402439,5.182927,0.914634,-4.981250,39.743752,-3.006250,0.0,1.000000,0.000000,0.000000,0.000000
1782117288.222856,1791590,-0.962402,0.020508,-0.301758,1.036585,4.695122,0.731707,-5.025000,39.693752,-3.056250,0.0,1.000000,0.000000,0.000000,0.000000
1782117288.232856,1791600,-0.954102,0.021973,-0.300293,0.853659,4.634146,0.426829,-5.025000,39.693752,-3.056250,0.0,1.000000,0.000000,0.000000,0.000000
1782117288.242856,1791610,-0.946289,0.021973,-0.298828,1.158537,5.060976,0.243902,-5.068750,39.662502,-3.062500,0.0,1.000000,0.000000,0.000000,0.000000
1782117288.252856,1791620,-0.939941,0.014648,-0.303711,1.280488,5.975610,0.182927,-5.068750,39.662502,-3.062500,0.0,1.000000,0.000000,0.000000,0.000000
1782117288.262856,1791630,-0.942871,0.007812,-0.306152,1.158537,7.073171,0.121951,-5.043750,39.762501,-3.206250,0.0,1.000000,0.000000,0.000000,0.000000
1782117288.272856,1791640,-0.952148,0.002441,-0.311523,0.548781,7.378049,0.304878,-5.043750,39.762501,-3.206250,0.0,1.000000,0.000000,0.000000,0.000000
1782117288.283856,1791651,-0.958496,0.003418,-0.318359,-0.060976,7.134147,0.426829,-5.031250,39.731251,-3.325000,0.0,1.000000,0.000000,0.000000,0.000000
1782117288.292856,1791660,-0.961914,0.008301,-0.319824,-0.182927,6.463415,0.609756,-5.031250,39.731251,-3.325000,0.0,1.000000,0.000000,0.000000,0.000000
1782117288.302856,1791670,-0.966797,0.014160,-0.317383,0.426829,5.426829,1.036585,-4.987500,39.868752,-3.381250,0.0,1.000000,0.000000,0.000000,0.000000
1782117288.312856,1791680,-0.967285,0.017578,-0.311523,1.524390,4.573171,1.219512,-4.987500,39.868752,-3.381250,0.0,1.000000,0.000000,0.000000,0.000000
1782117288.323856,1791691,-0.962891,0.014648,-0.305664,2.439024,4.024390,1.280488,-5.112500,39.775002,-3.456250,0.0,1.000000,0.000000,0.000000,0.000000
1782117288.334856,1791702,-0.961426,0.009766,-0.309570,3.353659,4.268293,1.219512,-4.956250,39.893749,-3.537500,0.0,1.000000,0.000000,0.000000,0.000000
1782117288.343856,1791711,-0.962891,0.002441,-0.314941,3.536585,4.756098,1.158537,-4.956250,39.893749,-3.537500,0.0,1.000000,0.000000,0.000000,0.000000
1782117288.353856,1791721,-0.964355,-0.001465,-0.322754,2.743902,4.939024,0.975610,-4.768750,40.125000,-3.512500,0.0,1.000000,0.000000,0.000000,0.000000
1782117288.363856,1791731,-0.961914,0.002441,-0.330078,1.768293,4.817073,0.609756,-4.768750,40.125000,-3.512500,0.0,1.000000,0.000000,0.000000,0.000000
1782117288.373856,1791741,-0.959961,0.020020,-0.330566,0.548781,4.573171,0.304878,-5.018750,39.875000,-3.687500,0.0,1.000000,0.000000,0.000000,0.000000
1782117288.383856,1791751,-0.957031,0.039551,-0.323242,-0.670732,3.963415,0.182927,-5.018750,39.875000,-3.687500,0.0,1.000000,0.000000,0.000000,0.000000
1782117288.393856,1791761,-0.949707,0.049316,-0.313965,-2.073171,3.658537,0.060976,-5.031250,39.893749,-3.725000,0.0,1.000000,0.000000,0.000000,0.000000
1782117288.403856,1791771,-0.943359,0.047363,-0.312500,-3.841464,3.963415,-0.060976,-5.031250,39.893749,-3.725000,0.0,1.000000,0.000000,0.000000,0.000000
1782117288.412856,1791780,-0.946289,0.031738,-0.317871,-5.853659,4.817073,-0.304878,-4.956250,39.968750,-3.837500,0.0,1.000000,0.000000,0.000000,0.000000
1782117288.422856,1791790,-0.954590,0.014648,-0.321777,-7.743903,5.243903,-0.670732,-4.956250,39.968750,-3.837500,0.0,1.000000,0.000000,0.000000,0.000000
1782117288.432856,1791800,-0.970703,0.000000,-0.320801,-8.902439,4.756098,-0.914634,-5.062500,39.943752,-3.868750,0.0,1.000000,0.000000,0.000000,0.000000
1782117288.444856,1791812,-0.973633,-0.001953,-0.322754,-8.902439,2.743902,-1.097561,-5.062500,39.943752,-3.868750,0.0,1.000000,0.000000,0.000000,0.000000
1782117288.452856,1791820,-0.960449,0.009277,-0.318848,-8.841464,0.853659,-1.097561,-5.050000,39.981251,-3.962500,0.0,1.000000,0.000000,0.000000,0.000000
1782117288.462856,1791830,-0.957031,0.022949,-0.314941,-8.963415,0.060976,-0.609756,-5.050000,39.981251,-3.962500,0.0,1.000000,0.000000,0.000000,0.000000
1782117288.472856,1791840,-0.954102,0.030762,-0.312500,-9.634147,-0.365854,-0.243902,-4.962500,40.131252,-4.068750,0.0,1.000000,0.000000,0.000000,0.000000
1782117288.483856,1791851,-0.946777,0.021973,-0.310547,-9.817074,-0.365854,-0.304878,-4.962500,40.131252,-4.068750,0.0,1.000000,0.000000,0.000000,0.000000
1782117288.492856,1791860,-0.949219,0.005371,-0.313965,-9.695122,0.426829,-0.487805,-5.125000,39.950001,-4.112500,0.0,1.000000,0.000000,0.000000,0.000000
1782117288.502856,1791870,-0.953613,-0.018066,-0.312988,-9.207317,0.975610,-0.914634,-5.125000,39.950001,-4.112500,0.0,1.000000,0.000000,0.000000,0.000000
1782117288.512856,1791880,-0.966309,-0.026855,-0.319336,-7.439024,0.609756,-1.219512,-5.250000,39.862499,-4.268750,0.0,1.000000,0.000000,0.000000,0.000000
1782117288.524856,1791892,-0.957031,-0.020508,-0.323730,-5.548780,-1.158537,-1.341463,-5.250000,39.862499,-4.268750,0.0,1.000000,0.000000,0.000000,0.000000
1782117288.532856,1791900,-0.941895,-0.010254,-0.323242,-4.817073,-1.951220,-1.280488,-5.212500,39.912502,-4.268750,0.0,1.000000,0.000000,0.000000,0.000000
1782117288.542856,1791910,-0.948730,-0.005859,-0.328613,-4.512195,-2.378049,-0.304878,-5.212500,39.912502,-4.268750,0.0,1.000000,0.000000,0.000000,0.000000
1782117288.552856,1791920,-0.953613,0.008301,-0.329590,-3.353659,-3.170732,0.731707,-5.281250,39.862499,-4.268750,0.0,1.000000,0.000000,0.000000,0.000000
1782117288.563856,1791931,-0.955566,0.011719,-0.322266,-1.646341,-3.475610,1.707317,-5.281250,39.862499,-4.268750,0.0,1.000000,0.000000,0.000000,0.000000
1782117288.572856,1791940,-0.957031,0.008301,-0.317871,0.182927,-3.475610,2.378049,-5.312500,39.856251,-4.293750,0.0,1.000000,0.000000,0.000000,0.000000
1782117288.582856,1791950,-0.962402,0.001465,-0.319824,1.158537,-3.170732,2.682927,-5.312500,39.856251,-4.293750,0.0,1.000000,0.000000,0.000000,0.000000
1782117288.592856,1791960,-0.971191,-0.002930,-0.323242,1.280488,-3.170732,2.926829,-5.337500,39.756252,-4.250000,0.0,1.000000,0.000000,0.000000,0.000000
1782117288.603856,1791971,-0.970703,-0.003906,-0.323730,1.280488,-3.597561,3.109756,-5.268750,39.806252,-4.200000,0.0,1.000000,0.000000,0.000000,0.000000
1782117288.612856,1791980,-0.968750,-0.004883,-0.321289,1.768293,-3.963415,3.109756,-5.268750,39.806252,-4.200000,0.0,1.000000,0.000000,0.000000,0.000000
1782117288.622856,1791990,-0.985352,-0.009766,-0.313477,3.597561,-4.390244,3.231707,-5.268750,39.806252,-4.200000,0.0,1.000000,0.000000,0.000000,0.000000
1782117288.632856,1792000,-0.998535,-0.008301,-0.312012,6.219512,-6.646342,3.475610,-5.200000,39.868752,-4.137500,0.0,1.000000,0.000000,0.000000,0.000000
1782117288.642856,1792010,-0.999023,-0.000488,-0.313965,8.841464,-10.182927,3.475610,-5.231250,39.806252,-4.025000,0.0,1.000000,0.000000,0.000000,0.000000
1782117288.652856,1792020,-0.999023,-0.000488,-0.313965,8.841464,-10.182927,3.475610,-5.231250,39.806252,-4.025000,0.0,1.000000,0.000000,0.000000,0.000000
1782117288.662856,1792030,-0.979004,0.013672,-0.317383,10.975610,-12.987805,2.560976,-5.118750,39.812500,-3.831250,0.0,1.000000,0.000000,0.000000,0.000000
1782117288.673856,1792041,-0.964844,0.039062,-0.295898,12.560976,-13.536586,2.256098,-5.118750,39.812500,-3.831250,0.0,1.000000,0.000000,0.000000,0.000000
1782117288.684856,1792052,-0.964355,0.048828,-0.291504,11.768293,-14.512196,2.134146,-4.912500,39.981251,-3.506250,0.0,1.000000,0.000000,0.000000,0.000000
1782117288.692856,1792060,-0.964355,0.048828,-0.291504,11.768293,-14.512196,2.134146,-4.912500,39.981251,-3.506250,0.0,1.000000,0.000000,0.000000,0.000000
1782117288.702856,1792070,-0.952148,0.062988,-0.301758,9.451220,-15.243903,1.768293,-5.087500,39.693752,-3.325000,0.0,1.000000,0.000000,0.000000,0.000000
1782117288.712856,1792080,-0.931641,0.077148,-0.318848,5.792683,-15.060976,1.524390,-5.087500,39.693752,-3.325000,0.0,1.000000,0.000000,0.000000,0.000000
1782117288.723856,1792091,-0.916016,0.080566,-0.345215,-0.365854,-13.414635,2.256098,-5.031250,39.693752,-3.087500,0.0,1.000000,0.000000,0.000000,0.000000
1782117288.732856,1792100,-0.916016,0.080566,-0.345215,-0.365854,-13.414635,2.256098,-5.031250,39.693752,-3.087500,0.0,1.000000,0.000000,0.000000,0.000000
1782117288.742856,1792110,-0.917480,0.069336,-0.342773,-1.524390,-13.048780,2.743902,-5.025000,39.706249,-2.918750,0.0,1.000000,0.000000,0.000000,0.000000
1782117288.754856,1792122,-0.910645,0.044434,-0.331055,-5.670732,-12.134147,1.646341,-5.025000,39.706249,-2.918750,0.0,1.000000,0.000000,0.000000,0.000000
1782117288.765856,1792133,-0.904297,0.022949,-0.323730,-7.682927,-11.036586,0.548781,-5.031250,39.681252,-2.825000,0.0,1.000000,0.000000,0.000000,0.000000
1782117288.772856,1792140,-0.904297,0.022949,-0.323730,-7.682927,-11.036586,0.548781,-5.031250,39.681252,-2.825000,0.0,1.000000,0.000000,0.000000,0.000000
1782117288.783856,1792151,-0.895020,-0.006836,-0.322266,-10.975610,-7.621952,-0.975610,-5.012500,39.768749,-2.756250,0.0,1.000000,0.000000,0.000000,0.000000
1782117288.793856,1792161,-0.890625,-0.034180,-0.333984,-14.817074,-1.768293,-2.621951,-5.012500,39.768749,-2.756250,0.0,1.000000,0.000000,0.000000,0.000000
1782117288.804856,1792172,-0.896484,-0.053711,-0.348633,-18.048780,4.207317,-3.292683,-5.250000,39.500000,-2.893750,0.0,1.000000,0.000000,0.000000,0.000000
1782117288.812856,1792180,-0.910645,-0.089844,-0.362305,-19.268293,8.170732,-3.414634,-5.250000,39.500000,-2.893750,0.0,1.000000,0.000000,0.000000,0.000000
1782117288.822856,1792190,-0.922852,-0.092773,-0.362305,-17.621952,10.000000,-3.414634,-5.287500,39.493752,-3.075000,0.0,1.000000,0.000000,0.000000,0.000000
1782117288.832856,1792200,-0.940918,-0.088379,-0.353516,-14.207317,11.402439,-3.109756,-5.287500,39.493752,-3.075000,0.0,1.000000,0.000000,0.000000,0.000000
1782117288.844856,1792212,-0.949707,-0.056152,-0.341309,-10.487805,12.134147,-2.682927,-5.393750,39.475002,-3.306250,0.0,1.000000,0.000000,0.000000,0.000000
1782117288.853856,1792221,-0.953613,-0.032715,-0.336426,-8.170732,12.987805,-2.256098,-5.393750,39.475002,-3.306250,0.0,1.000000,0.000000,0.000000,0.000000
1782117288.862856,1792230,-0.957520,-0.013184,-0.332031,-6.158537,13.658537,-1.951220,-5.406250,39.631252,-3.450000,0.0,1.000000,0.000000,0.000000,0.000000
1782117288.872856,1792240,-0.960449,0.005371,-0.319336,-4.695122,13.597561,-1.585366,-5.406250,39.631252,-3.450000,0.0,1.000000,0.000000,0.000000,0.000000
1782117288.886856,1792254,-0.968262,0.018555,-0.303223,-3.353659,13.536586,-1.219512,-5.493750,39.562500,-3.756250,0.0,1.000000,0.000000,0.000000,0.000000
1782117288.893856,1792261,-0.980957,0.022949,-0.289062,-1.768293,12.865854,-0.548781,-5.493750,39.562500,-3.756250,0.0,1.000000,0.000000,0.000000,0.000000
1782117288.902856,1792270,-0.985352,0.022461,-0.281250,-0.731707,11.585366,-0.182927,-5.431250,39.718750,-3.937500,0.0,1.000000,0.000000,0.000000,0.000000
1782117288.913856,1792281,-0.984375,0.020996,-0.276855,-0.609756,10.243902,-0.365854,-5.437500,39.762501,-4.050000,0.0,1.000000,0.000000,0.000000,0.000000
1782117288.924856,1792292,-0.979980,0.014648,-0.278320,-0.792683,8.841464,-0.731707,-5.437500,39.762501,-4.050000,0.0,1.000000,0.000000,0.000000,0.000000
1782117288.933856,1792301,-0.969727,0.013672,-0.285645,-1.097561,7.743903,-1.219512,-5.468750,39.750000,-4.193750,0.0,1.000000,0.000000,0.000000,0.000000
1782117288.942856,1792310,-0.958008,0.020020,-0.300781,-1.585366,7.012195,-1.463415,-5.468750,39.750000,-4.193750,0.0,1.000000,0.000000,0.000000,0.000000
1782117288.952856,1792320,-0.946777,0.039551,-0.317871,-2.500000,7.073171,-1.097561,-5.531250,39.762501,-4.212500,0.0,1.000000,0.000000,0.000000,0.000000
1782117288.965856,1792333,-0.958008,0.074219,-0.314941,-2.621951,6.951220,0.609756,-5.531250,39.762501,-4.212500,0.0,1.000000,0.000000,0.000000,0.000000
1782117288.972856,1792340,-0.976074,0.089355,-0.292969,-2.439024,4.329268,2.317073,-5.581250,39.737499,-4.337500,0.0,1.000000,0.000000,0.000000,0.000000
1782117288.982856,1792350,-0.976562,0.080078,-0.272949,-3.231707,1.341463,2.378049,-5.581250,39.737499,-4.337500,0.0,1.000000,0.000000,0.000000,0.000000
1782117288.992856,1792360,-0.974609,0.057129,-0.266602,-3.475610,0.121951,1.585366,-5.518750,39.775002,-4.337500,0.0,1.000000,0.000000,0.000000,0.000000
1782117289.005856,1792373,-0.975586,0.017090,-0.266113,-3.658537,0.182927,0.548781,-5.518750,39.775002,-4.337500,0.0,1.000000,0.000000,0.000000,0.000000
1782117289.012856,1792380,-0.974121,-0.019531,-0.278320,-3.719512,0.000000,-0.609756,-5.487500,39.799999,-4.431250,0.0,1.000000,0.000000,0.000000,0.000000
1782117289.022856,1792390,-0.966797,-0.042480,-0.295898,-3.048780,-0.792683,-1.036585,-5.487500,39.799999,-4.431250,0.0,1.000000,0.000000,0.000000,0.000000
1782117289.032856,1792400,-0.955078,-0.050781,-0.312500,-2.317073,-0.670732,-0.975610,-5.525000,39.825001,-4.412500,0.0,1.000000,0.000000,0.000000,0.000000
1782117289.044856,1792412,-0.948730,-0.035156,-0.324219,-2.134146,0.304878,-0.487805,-5.525000,39.825001,-4.412500,0.0,1.000000,0.000000,0.000000,0.000000
1782117289.052856,1792420,-0.948242,-0.004395,-0.333008,-2.439024,1.524390,0.731707,-5.468750,39.843750,-4.450000,0.0,1.000000,0.000000,0.000000,0.000000
1782117289.062856,1792430,-0.950684,0.018066,-0.340332,-2.256098,2.317073,2.317073,-5.468750,39.843750,-4.450000,0.0,1.000000,0.000000,0.000000,0.000000
1782117289.072856,1792440,-0.952148,0.028809,-0.347168,-1.036585,2.500000,3.414634,-5.518750,39.743752,-4.468750,0.0,1.000000,0.000000,0.000000,0.000000
1782117289.084856,1792452,-0.947754,0.031250,-0.354980,1.036585,1.890244,4.085366,-5.518750,39.743752,-4.468750,0.0,1.000000,0.000000,0.000000,0.000000
1782117289.092856,1792460,-0.941406,0.024902,-0.363281,3.841464,1.341463,4.268293,-5.475000,39.818752,-4.450000,0.0,1.000000,0.000000,0.000000,0.000000
1782117289.102856,1792470,-0.943848,0.016113,-0.361328,7.012195,0.548781,4.329268,-5.475000,39.818752,-4.450000,0.0,1.000000,0.000000,0.000000,0.000000
1782117289.112856,1792480,-0.948242,0.008789,-0.349609,9.573171,-0.365854,4.207317,-5.425000,39.787502,-4.506250,0.0,1.000000,0.000000,0.000000,0.000000
1782117289.125856,1792493,-0.948730,0.003418,-0.340332,10.975610,-0.975610,3.658537,-5.387500,39.887501,-4.412500,0.0,1.000000,0.000000,0.000000,0.000000
1782117289.132856,1792500,-0.950195,0.010254,-0.335938,11.463415,-0.975610,3.048780,-5.387500,39.887501,-4.412500,0.0,1.000000,0.000000,0.000000,0.000000
1782117289.143856,1792511,-0.953613,0.033691,-0.324219,10.975610,-0.731707,2.743902,-5.387500,39.887501,-4.412500,0.0,1.000000,0.000000,0.000000,0.000000
1782117289.152856,1792520,-0.960938,0.062988,-0.302246,9.329268,-1.524390,2.865854,-5.337500,39.875000,-4.350000,0.0,1.000000,0.000000,0.000000,0.000000
1782117289.164856,1792532,-0.957520,0.071289,-0.290527,5.975610,-2.621951,2.621951,-5.256250,39.862499,-4.237500,0.0,1.000000,0.000000,0.000000,0.000000
1782117289.173856,1792541,-0.951660,0.071289,-0.294922,2.195122,-2.500000,1.646341,-5.256250,39.862499,-4.237500,0.0,1.000000,0.000000,0.000000,0.000000
1782117289.183856,1792551,-0.954102,0.049316,-0.302734,0.426829,-1.585366,1.158537,-5.256250,39.862499,-4.237500,0.0,1.000000,0.000000,0.000000,0.000000
1782117289.192856,1792560,-0.963379,0.031250,-0.303711,0.060976,-1.585366,0.975610,-5.287500,39.918751,-4.231250,0.0,1.000000,0.000000,0.000000,0.000000
1782117289.206856,1792574,-0.967773,0.013184,-0.297852,-0.609756,-2.195122,0.670732,-5.337500,39.868752,-4.150000,0.0,1.000000,0.000000,0.000000,0.000000
1782117289.212856,1792580,-0.965820,0.005859,-0.293945,-1.524390,-2.804878,0.487805,-5.337500,39.868752,-4.150000,0.0,1.000000,0.000000,0.000000,0.000000
1782117289.222856,1792590,-0.961914,0.006348,-0.290527,-2.865854,-2.987805,0.548781,-5.293750,39.843750,-4.150000,0.0,1.000000,0.000000,0.000000,0.000000
1782117289.232856,1792600,-0.957031,0.014160,-0.291992,-4.817073,-2.500000,0.853659,-5.293750,39.843750,-4.150000,0.0,1.000000,0.000000,0.000000,0.000000
1782117289.245856,1792613,-0.950195,0.019531,-0.298828,-6.646342,-1.707317,1.463415,-5.281250,39.862499,-4.237500,0.0,1.000000,0.000000,0.000000,0.000000
1782117289.252856,1792620,-0.945312,0.019043,-0.312500,-7.256098,-0.914634,2.195122,-5.281250,39.862499,-4.237500,0.0,1.000000,0.000000,0.000000,0.000000
1782117289.262856,1792630,-0.945312,0.015625,-0.322754,-6.280488,-0.182927,2.743902,-5.281250,39.868752,-4.231250,0.0,1.000000,0.000000,0.000000,0.000000
1782117289.272856,1792640,-0.949219,0.009277,-0.326172,-4.268293,0.060976,3.109756,-5.281250,39.868752,-4.231250,0.0,1.000000,0.000000,0.000000,0.000000
1782117289.286856,1792654,-0.952148,-0.001465,-0.323730,-1.707317,-0.304878,2.865854,-5.268750,39.868752,-4.212500,0.0,1.000000,0.000000,0.000000,0.000000
1782117289.293856,1792661,-0.952637,-0.008789,-0.320801,0.914634,-0.853659,2.500000,-5.268750,39.868752,-4.212500,0.0,1.000000,0.000000,0.000000,0.000000
1782117289.302856,1792670,-0.952637,-0.011230,-0.315430,3.109756,-1.219512,2.073171,-5.031250,40.131252,-4.225000,0.0,1.000000,0.000000,0.000000,0.000000
1782117289.313856,1792681,-0.946777,-0.009277,-0.317383,4.451220,-1.524390,1.768293,-5.031250,40.131252,-4.225000,0.0,1.000000,0.000000,0.000000,0.000000
1782117289.325856,1792693,-0.941406,-0.003418,-0.323242,5.000000,-1.341463,1.707317,-5.187500,39.950001,-4.156250,0.0,1.000000,0.000000,0.000000,0.000000
1782117289.333856,1792701,-0.942871,0.005859,-0.325195,4.878049,-1.036585,1.951220,-5.187500,39.950001,-4.156250,0.0,1.000000,0.000000,0.000000,0.000000
1782117289.343856,1792711,-0.945801,0.016113,-0.322266,4.695122,-0.731707,2.256098,-5.093750,39.987499,-4.112500,0.0,1.000000,0.000000,0.000000,0.000000
1782117289.352856,1792720,-0.948730,0.027832,-0.316895,4.634146,-0.609756,2.500000,-5.093750,39.987499,-4.112500,0.0,1.000000,0.000000,0.000000,0.000000
1782117289.364856,1792732,-0.955566,0.033203,-0.315918,4.512195,-0.609756,2.743902,-5.081250,40.012501,-4.112500,0.0,1.000000,0.000000,0.000000,0.000000
1782117289.372856,1792740,-0.958496,0.036133,-0.312988,4.390244,-0.731707,2.743902,-5.081250,40.012501,-4.112500,0.0,1.000000,0.000000,0.000000,0.000000
1782117289.382856,1792750,-0.959961,0.032227,-0.312500,3.719512,-0.487805,2.560976,-5.012500,40.006252,-4.037500,0.0,1.000000,0.000000,0.000000,0.000000
1782117289.392856,1792760,-0.962402,0.028320,-0.310547,3.109756,-0.182927,2.378049,-5.012500,40.006252,-4.037500,0.0,1.000000,0.000000,0.000000,0.000000
1782117289.406856,1792774,-0.967773,0.032715,-0.304199,2.804878,-0.304878,2.256098,-5.075000,39.943752,-4.056250,0.0,1.000000,0.000000,0.000000,0.000000
1782117289.412856,1792780,-0.970703,0.036621,-0.294434,2.804878,-0.792683,2.378049,-5.075000,39.943752,-4.056250,0.0,1.000000,0.000000,0.000000,0.000000
1782117289.422856,1792790,-0.969727,0.040527,-0.283691,3.109756,-1.585366,2.378049,-4.956250,40.056252,-4.081250,0.0,1.000000,0.000000,0.000000,0.000000
1782117289.432856,1792800,-0.962402,0.041992,-0.279297,2.987805,-2.073171,2.317073,-4.956250,40.056252,-4.081250,0.0,1.000000,0.000000,0.000000,0.000000
1782117289.442856,1792810,-0.958984,0.038086,-0.282715,2.439024,-2.012195,2.256098,-5.025000,39.975002,-4.062500,0.0,1.000000,0.000000,0.000000,0.000000
1782117289.452856,1792820,-0.960938,0.032715,-0.289551,2.012195,-2.012195,2.378049,-5.025000,39.975002,-4.062500,0.0,1.000000,0.000000,0.000000,0.000000
1782117289.462856,1792830,-0.960938,0.023438,-0.296875,1.768293,-2.195122,2.195122,-4.968750,39.968750,-4.025000,0.0,1.000000,0.000000,0.000000,0.000000
1782117289.472856,1792840,-0.958984,0.018555,-0.302246,1.646341,-2.378049,1.829268,-4.968750,39.968750,-4.025000,0.0,1.000000,0.000000,0.000000,0.000000
1782117289.482856,1792850,-0.958496,0.014648,-0.306152,2.073171,-2.621951,1.707317,-4.906250,39.981251,-3.943750,0.0,1.000000,0.000000,0.000000,0.000000
1782117289.492856,1792860,-0.958008,0.015625,-0.308105,3.170732,-3.170732,1.829268,-4.906250,39.981251,-3.943750,0.0,1.000000,0.000000,0.000000,0.000000
1782117289.502856,1792870,-0.962891,0.022461,-0.309082,4.390244,-3.658537,2.256098,-4.743750,40.187500,-3.868750,0.0,1.000000,0.000000,0.000000,0.000000
1782117289.512856,1792880,-0.962891,0.022461,-0.309082,4.390244,-3.658537,2.256098,-4.743750,40.187500,-3.868750,0.0,1.000000,0.000000,0.000000,0.000000
1782117289.523856,1792891,-0.965332,0.034668,-0.305664,5.060976,-4.085366,2.804878,-4.931250,39.931252,-3.787500,0.0,1.000000,0.000000,0.000000,0.000000
1782117289.532856,1792900,-0.956543,0.038574,-0.296387,4.878049,-4.451220,2.865854,-4.806250,40.025002,-3.712500,0.0,1.000000,0.000000,0.000000,0.000000
1782117289.543856,1792911,-0.948730,0.031738,-0.292480,2.743902,-2.804878,2.073171,-4.806250,40.025002,-3.712500,0.0,1.000000,0.000000,0.000000,0.000000
1782117289.552856,1792920,-0.948730,0.031738,-0.292480,2.743902,-2.804878,2.073171,-4.750000,40.075001,-3.606250,0.0,1.000000,0.000000,0.000000,0.000000
1782117289.562856,1792930,-0.953125,0.020508,-0.295898,2.134146,-2.317073,1.890244,-4.750000,40.075001,-3.606250,0.0,1.000000,0.000000,0.000000,0.000000
1782117289.572856,1792940,-0.959961,0.009277,-0.302246,2.012195,-2.134146,1.707317,-4.793750,40.043751,-3.581250,0.0,1.000000,0.000000,0.000000,0.000000
1782117289.582856,1792950,-0.968750,0.003906,-0.305176,2.134146,-2.926829,1.829268,-4.793750,40.043751,-3.581250,0.0,1.000000,0.000000,0.000000,0.000000
1782117289.593856,1792961,-0.970215,0.004395,-0.307129,2.621951,-4.085366,2.134146,-4.462500,40.325001,-3.412500,0.0,1.000000,0.000000,0.000000,0.000000
1782117289.602856,1792970,-0.966309,0.012695,-0.308105,2.804878,-5.121951,2.378049,-4.462500,40.325001,-3.412500,0.0,1.000000,0.000000,0.000000,0.000000
1782117289.612856,1792980,-0.959961,0.024414,-0.310059,3.170732,-5.853659,2.743902,-4.725000,39.987499,-3.462500,0.0,1.000000,0.000000,0.000000,0.000000
1782117289.622856,1792990,-0.953125,0.031250,-0.309570,3.414634,-5.853659,3.048780,-4.725000,39.987499,-3.462500,0.0,1.000000,0.000000,0.000000,0.000000
1782117289.632856,1793000,-0.945801,0.031250,-0.311523,3.597561,-5.365854,2.987805,-4.618750,40.062500,-3.275000,0.0,1.000000,0.000000,0.000000,0.000000
1782117289.642856,1793010,-0.943359,0.029785,-0.312988,3.963415,-4.817073,2.804878,-4.618750,40.062500,-3.275000,0.0,1.000000,0.000000,0.000000,0.000000
1782117289.652856,1793020,-0.945801,0.019531,-0.313477,4.634146,-4.146341,2.621951,-4.631250,40.006252,-3.237500,0.0,1.000000,0.000000,0.000000,0.000000
1782117289.662856,1793030,-0.954102,0.007812,-0.312988,5.304878,-3.719512,2.378049,-4.631250,40.006252,-3.237500,0.0,1.000000,0.000000,0.000000,0.000000
1782117289.672856,1793040,-0.959473,0.004395,-0.308594,5.975610,-3.963415,2.073171,-4.650000,39.950001,-3.181250,0.0,1.000000,0.000000,0.000000,0.000000
1782117289.682856,1793050,-0.962402,0.005371,-0.301270,6.707317,-4.268293,1.829268,-4.650000,39.950001,-3.181250,0.0,1.000000,0.000000,0.000000,0.000000
1782117289.693856,1793061,-0.963867,0.009277,-0.292969,7.073171,-4.329268,1.951220,-4.606250,39.962502,-3.118750,0.0,1.000000,0.000000,0.000000,0.000000
1782117289.703856,1793071,-0.960449,0.017090,-0.288574,7.256098,-4.207317,2.134146,-4.606250,39.962502,-3.118750,0.0,1.000000,0.000000,0.000000,0.000000
1782117289.712856,1793080,-0.956055,0.025879,-0.282715,6.951220,-3.597561,2.195122,-4.481250,39.981251,-2.956250,0.0,1.000000,0.000000,0.000000,0.000000
1782117289.723856,1793091,-0.955078,0.030762,-0.280762,6.402439,-2.743902,2.378049,-4.481250,39.981251,-2.956250,0.0,1.000000,0.000000,0.000000,0.000000
1782117289.733856,1793101,-0.954590,0.037598,-0.282715,5.792683,-1.951220,2.500000,-4.562500,39.906250,-2.956250,0.0,1.000000,0.000000,0.000000,0.000000
1782117289.742856,1793110,-0.955078,0.036133,-0.284180,5.426829,-1.524390,2.560976,-4.562500,39.906250,-2.956250,0.0,1.000000,0.000000,0.000000,0.000000
1782117289.752856,1793120,-0.958496,0.034668,-0.284668,5.426829,-1.097561,2.500000,-4.525000,39.862499,-2.900000,0.0,1.000000,0.000000,0.000000,0.000000
1782117289.762856,1793130,-0.963867,0.032227,-0.280762,5.609756,-1.158537,2.073171,-4.525000,39.862499,-2.900000,0.0,1.000000,0.000000,0.000000,0.000000
1782117289.774856,1793142,-0.963867,0.033203,-0.273926,5.670732,-1.280488,1.585366,-4.512500,39.881252,-2.906250,0.0,1.000000,0.000000,0.000000,0.000000
1782117289.782856,1793150,-0.963867,0.033203,-0.266602,5.426829,-1.219512,1.402439,-4.512500,39.881252,-2.906250,0.0,1.000000,0.000000,0.000000,0.000000
1782117289.792856,1793160,-0.968262,0.034180,-0.262207,4.634146,-0.975610,1.524390,-4.462500,39.956249,-2.812500,0.0,1.000000,0.000000,0.000000,0.000000
1782117289.802856,1793170,-0.971191,0.035156,-0.264160,3.353659,-0.914634,1.707317,-4.462500,39.956249,-2.812500,0.0,1.000000,0.000000,0.000000,0.000000
1782117289.812856,1793180,-0.970215,0.034668,-0.268555,2.378049,-0.853659,1.768293,-4.450000,39.900002,-2.837500,0.0,1.000000,0.000000,0.000000,0.000000
1782117289.822856,1793190,-0.968750,0.029785,-0.273926,1.951220,-0.731707,1.768293,-4.387500,39.943752,-2.750000,0.0,1.000000,0.000000,0.000000,0.000000
1782117289.832856,1793200,-0.968262,0.028320,-0.279785,1.829268,-0.548781,1.585366,-4.387500,39.943752,-2.750000,0.0,1.000000,0.000000,0.000000,0.000000
1782117289.842856,1793210,-0.966309,0.028809,-0.282227,2.195122,-0.792683,1.524390,-4.443750,39.931252,-2.812500,0.0,1.000000,0.000000,0.000000,0.000000
1782117289.852856,1793220,-0.961426,0.025879,-0.285156,2.804878,-0.914634,1.463415,-4.443750,39.931252,-2.812500,0.0,1.000000,0.000000,0.000000,0.000000
1782117289.862856,1793230,-0.959473,0.022949,-0.290527,3.475610,-0.609756,1.402439,-4.287500,40.062500,-2.675000,0.0,1.000000,0.000000,0.000000,0.000000
1782117289.872856,1793240,-0.959961,0.021484,-0.294434,4.146341,-0.304878,1.585366,-4.287500,40.062500,-2.675000,0.0,1.000000,0.000000,0.000000,0.000000
1782117289.883856,1793251,-0.961914,0.018555,-0.296875,4.817073,-0.304878,1.707317,-4.337500,40.000000,-2.756250,0.0,1.000000,0.000000,0.000000,0.000000
1782117289.892856,1793260,-0.964355,0.009766,-0.298340,5.853659,-0.365854,1.829268,-4.337500,40.000000,-2.756250,0.0,1.000000,0.000000,0.000000,0.000000
1782117289.902856,1793270,-0.968262,0.003906,-0.296387,6.829268,-0.609756,1.707317,-4.075000,40.256252,-2.606250,0.0,1.000000,0.000000,0.000000,0.000000
1782117289.912856,1793280,-0.970215,0.004395,-0.292480,7.743903,-1.036585,1.707317,-4.075000,40.256252,-2.606250,0.0,1.000000,0.000000,0.000000,0.000000
1782117289.922856,1793290,-0.964844,0.009766,-0.287598,8.719512,-1.707317,1.890244,-4.287500,39.987499,-2.662500,0.0,1.000000,0.000000,0.000000,0.000000
1782117289.933856,1793301,-0.960449,0.015137,-0.285156,9.573171,-1.768293,2.134146,-4.287500,39.987499,-2.662500,0.0,1.000000,0.000000,0.000000,0.000000
1782117289.942856,1793310,-0.957520,0.020508,-0.286621,10.060976,-1.463415,2.317073,-4.200000,40.068752,-2.481250,0.0,1.000000,0.000000,0.000000,0.000000
1782117289.954856,1793322,-0.956055,0.021484,-0.288086,10.243902,-1.280488,2.378049,-4.200000,40.068752,-2.481250,0.0,1.000000,0.000000,0.000000,0.000000
1782117289.963856,1793331,-0.958496,0.025391,-0.289551,9.939025,-1.097561,2.134146,-4.212500,39.968750,-2.481250,0.0,1.000000,0.000000,0.000000,0.000000
1782117289.972856,1793340,-0.960449,0.030273,-0.285156,9.268292,-1.341463,2.012195,-4.212500,39.968750,-2.481250,0.0,1.000000,0.000000,0.000000,0.000000
1782117289.983856,1793351,-0.957520,0.036621,-0.281250,8.170732,-1.524390,1.829268,-3.962500,40.187500,-2.362500,0.0,1.000000,0.000000,0.000000,0.000000
1782117289.992856,1793360,-0.956055,0.041504,-0.277344,6.585366,-1.219512,1.646341,-3.962500,40.187500,-2.362500,0.0,1.000000,0.000000,0.000000,0.000000
1782117290.002856,1793370,-0.956543,0.041504,-0.277832,4.878049,-0.731707,1.707317,-4.193750,39.924999,-2.381250,0.0,1.000000,0.000000,0.000000,0.000000
1782117290.012856,1793380,-0.954590,0.039062,-0.281738,3.475610,-0.487805,1.646341,-4.193750,39.924999,-2.381250,0.0,1.000000,0.000000,0.000000,0.000000
1782117290.022856,1793390,-0.957031,0.038086,-0.284180,2.378049,-0.121951,1.646341,-4.156250,39.943752,-2.418750,0.0,1.000000,0.000000,0.000000,0.000000
1782117290.032856,1793400,-0.958496,0.036133,-0.286133,1.768293,0.000000,1.768293,-4.156250,39.943752,-2.418750,0.0,1.000000,0.000000,0.000000,0.000000
1782117290.042856,1793410,-0.963379,0.029785,-0.286621,1.463415,0.060976,1.890244,-4.181250,39.912502,-2.393750,0.0,1.000000,0.000000,0.000000,0.000000
1782117290.052856,1793420,-0.963379,0.023438,-0.291016,1.219512,-0.060976,1.768293,-4.181250,39.912502,-2.393750,0.0,1.000000,0.000000,0.000000,0.000000
1782117290.062856,1793430,-0.966309,0.020508,-0.290039,1.280488,-0.060976,1.524390,-4.175000,39.975002,-2.393750,0.0,1.000000,0.000000,0.000000,0.000000
1782117290.072856,1793440,-0.966797,0.016113,-0.286621,1.524390,-0.182927,1.280488,-4.175000,39.975002,-2.393750,0.0,1.000000,0.000000,0.000000,0.000000
1782117290.082856,1793450,-0.963867,0.012695,-0.281738,2.073171,-0.304878,1.097561,-4.181250,39.918751,-2.406250,0.0,1.000000,0.000000,0.000000,0.000000
1782117290.092856,1793460,-0.961426,0.009766,-0.279297,2.804878,-0.365854,1.036585,-4.181250,39.918751,-2.406250,0.0,1.000000,0.000000,0.000000,0.000000
1782117290.102856,1793470,-0.963379,0.009766,-0.278320,3.536585,-0.365854,1.341463,-4.081250,39.962502,-2.412500,0.0,1.000000,0.000000,0.000000,0.000000
1782117290.112856,1793480,-0.965820,0.014160,-0.279297,3.902439,-0.609756,1.646341,-4.156250,39.968750,-2.343750,0.0,1.000000,0.000000,0.000000,0.000000
1782117290.122856,1793490,-0.966797,0.021484,-0.284180,3.780488,-0.853659,1.951220,-4.156250,39.968750,-2.343750,0.0,1.000000,0.000000,0.000000,0.000000
1782117290.132856,1793500,-0.968750,0.028320,-0.287598,3.658537,-0.914634,2.317073,-4.043750,39.968750,-2.306250,0.0,1.000000,0.000000,0.000000,0.000000
1782117290.142856,1793510,-0.968262,0.032715,-0.289062,3.658537,-1.097561,2.317073,-4.043750,39.968750,-2.306250,0.0,1.000000,0.000000,0.000000,0.000000
1782117290.152856,1793520,-0.962402,0.035645,-0.285645,3.841464,-1.219512,2.134146,-4.075000,39.937500,-2.287500,0.0,1.000000,0.000000,0.000000,0.000000
1782117290.162856,1793530,-0.959473,0.034180,-0.282227,3.963415,-1.158537,1.951220,-4.075000,39.937500,-2.287500,0.0,1.000000,0.000000,0.000000,0.000000
1782117290.173856,1793541,-0.960449,0.030273,-0.281250,4.329268,-1.097561,1.768293,-3.931250,40.068752,-2.262500,0.0,1.000000,0.000000,0.000000,0.000000
1782117290.182856,1793550,-0.965820,0.028809,-0.278320,4.329268,-1.158537,1.707317,-3.931250,40.068752,-2.262500,0.0,1.000000,0.000000,0.000000,0.000000
1782117290.192856,1793560,-0.972168,0.027344,-0.272949,4.024390,-1.585366,1.768293,-3.931250,40.118752,-2.150000,0.0,1.000000,0.000000,0.000000,0.000000
1782117290.202856,1793570,-0.977051,0.028809,-0.270020,3.414634,-2.195122,1.951220,-3.931250,40.118752,-2.150000,0.0,1.000000,0.000000,0.000000,0.000000
1782117290.212856,1793580,-0.978516,0.028809,-0.265625,2.804878,-2.804878,1.951220,-3.925000,40.075001,-2.187500,0.0,1.000000,0.000000,0.000000,0.000000
1782117290.222856,1793590,-0.976074,0.029785,-0.262207,2.439024,-3.597561,1.890244,-3.925000,40.075001,-2.187500,0.0,1.000000,0.000000,0.000000,0.000000
1782117290.232856,1793600,-0.967773,0.028809,-0.260742,2.256098,-3.841464,1.768293,-3.900000,40.037502,-2.081250,0.0,1.000000,0.000000,0.000000,0.000000
1782117290.243856,1793611,-0.964355,0.026855,-0.263184,2.439024,-3.658537,1.768293,-3.900000,40.037502,-2.081250,0.0,1.000000,0.000000,0.000000,0.000000
1782117290.253856,1793621,-0.960449,0.022949,-0.267090,2.621951,-3.353659,1.829268,-3.900000,40.006252,-2.056250,0.0,1.000000,0.000000,0.000000,0.000000
1782117290.262856,1793630,-0.956543,0.019043,-0.275879,2.621951,-2.743902,1.707317,-3.900000,40.006252,-2.056250,0.0,1.000000,0.000000,0.000000,0.000000
1782117290.272856,1793640,-0.954590,0.016602,-0.285156,2.073171,-1.951220,1.585366,-3.912500,40.006252,-2.012500,0.0,1.000000,0.000000,0.000000,0.000000
1782117290.282856,1793650,-0.954590,0.014648,-0.293457,1.402439,-1.280488,1.280488,-3.912500,40.006252,-2.012500,0.0,1.000000,0.000000,0.000000,0.000000
1782117290.292856,1793660,-0.955078,0.016113,-0.300293,0.609756,-0.731707,0.853659,-3.943750,39.918751,-2.043750,0.0,1.000000,0.000000,0.000000,0.000000
1782117290.303856,1793671,-0.955566,0.020508,-0.298340,0.182927,-0.365854,0.609756,-3.943750,39.918751,-2.043750,0.0,1.000000,0.000000,0.000000,0.000000
1782117290.312856,1793680,-0.956543,0.024902,-0.294922,0.182927,-0.060976,0.731707,-3.968750,39.981251,-1.962500,0.0,1.000000,0.000000,0.000000,0.000000
1782117290.322856,1793690,-0.954590,0.026367,-0.291016,0.487805,0.243902,0.975610,-3.968750,39.981251,-1.962500,0.0,1.000000,0.000000,0.000000,0.000000
1782117290.333856,1793701,-0.956543,0.025879,-0.285645,0.548781,0.609756,1.158537,-3.943750,39.943752,-2.025000,0.0,1.000000,0.000000,0.000000,0.000000
1782117290.343856,1793711,-0.959961,0.024902,-0.282227,0.487805,0.975610,1.280488,-3.943750,39.943752,-2.025000,0.0,1.000000,0.000000,0.000000,0.000000
1782117290.353856,1793721,-0.960938,0.023926,-0.281738,0.182927,1.280488,1.341463,-3.918750,39.937500,-1.968750,0.0,1.000000,0.000000,0.000000,0.000000
1782117290.363856,1793731,-0.960938,0.023926,-0.281738,0.182927,1.280488,1.341463,-3.918750,39.937500,-1.968750,0.0,1.000000,0.000000,0.000000,0.000000
1782117290.372856,1793740,-0.964844,0.020020,-0.282227,0.000000,1.402439,1.280488,-3.987500,39.931252,-2.043750,0.0,1.000000,0.000000,0.000000,0.000000
1782117290.382856,1793750,-0.968262,0.020020,-0.282227,0.243902,1.097561,1.097561,-3.987500,39.931252,-2.043750,0.0,1.000000,0.000000,0.000000,0.000000
1782117290.392856,1793760,-0.966309,0.021973,-0.282227,0.731707,0.792683,0.914634,-3.931250,40.000000,-2.000000,0.0,1.000000,0.000000,0.000000,0.000000
1782117290.402856,1793770,-0.968262,0.023926,-0.281250,1.219512,0.731707,0.853659,-3.931250,40.000000,-2.000000,0.0,1.000000,0.000000,0.000000,0.000000
1782117290.413856,1793781,-0.968262,0.025391,-0.281250,1.280488,0.365854,0.792683,-3.975000,39.975002,-2.093750,0.0,1.000000,0.000000,0.000000,0.000000
1782117290.422856,1793790,-0.968262,0.025391,-0.281250,1.280488,0.365854,0.792683,-3.862500,40.006252,-2.025000,0.0,1.000000,0.000000,0.000000,0.000000
1782117290.432856,1793800,-0.966797,0.028320,-0.280273,0.853659,0.365854,0.731707,-3.862500,40.006252,-2.025000,0.0,1.000000,0.000000,0.000000,0.000000
1782117290.442856,1793810,-0.964355,0.030273,-0.278320,0.487805,0.426829,0.548781,-4.006250,39.924999,-2.068750,0.0,1.000000,0.000000,0.000000,0.000000
1782117290.452856,1793820,-0.958984,0.032715,-0.279785,0.121951,0.487805,0.609756,-4.006250,39.924999,-2.068750,0.0,1.000000,0.000000,0.000000,0.000000
1782117290.462856,1793830,-0.958496,0.030762,-0.281250,-0.060976,0.792683,0.853659,-3.862500,40.081249,-2.037500,0.0,1.000000,0.000000,0.000000,0.000000
1782117290.472856,1793840,-0.959473,0.029785,-0.286133,-0.609756,1.097561,0.914634,-3.862500,40.081249,-2.037500,0.0,1.000000,0.000000,0.000000,0.000000
1782117290.482856,1793850,-0.958984,0.028320,-0.288574,-1.036585,1.280488,0.853659,-3.868750,40.031250,-2.118750,0.0,1.000000,0.000000,0.000000,0.000000
1782117290.493856,1793861,-0.961914,0.025391,-0.291992,-1.280488,1.341463,0.853659,-3.868750,40.031250,-2.118750,0.0,1.000000,0.000000,0.000000,0.000000
1782117290.502856,1793870,-0.965820,0.022949,-0.293945,-1.219512,1.341463,0.853659,-3.912500,40.031250,-2.118750,0.0,1.000000,0.000000,0.000000,0.000000
1782117290.512856,1793880,-0.967773,0.020996,-0.292969,-0.853659,0.853659,0.792683,-3.912500,40.031250,-2.118750,0.0,1.000000,0.000000,0.000000,0.000000
1782117290.522856,1793890,-0.962891,0.017578,-0.290527,-0.426829,0.304878,0.548781,-3.931250,40.025002,-2.156250,0.0,1.000000,0.000000,0.000000,0.000000
1782117290.532856,1793900,-0.960449,0.019043,-0.294922,-0.243902,0.243902,0.426829,-3.931250,40.025002,-2.156250,0.0,1.000000,0.000000,0.000000,0.000000
1782117290.542856,1793910,-0.956543,0.022949,-0.297852,-0.365854,0.243902,0.548781,-3.900000,40.125000,-2.143750,0.0,1.000000,0.000000,0.000000,0.000000
1782117290.552856,1793920,-0.950684,0.025879,-0.301758,-0.731707,0.548781,0.670732,-3.900000,40.125000,-2.143750,0.0,1.000000,0.000000,0.000000,0.000000
1782117290.562856,1793930,-0.951172,0.029297,-0.305176,-1.097561,0.975610,0.731707,-3.968750,40.056252,-2.168750,0.0,1.000000,0.000000,0.000000,0.000000
1782117290.574856,1793942,-0.949707,0.033691,-0.309082,-1.585366,1.158537,0.975610,-3.968750,40.056252,-2.168750,0.0,1.000000,0.000000,0.000000,0.000000
1782117290.582856,1793950,-0.951172,0.035156,-0.310547,-2.134146,1.524390,1.036585,-3.906250,40.112499,-2.143750,0.0,1.000000,0.000000,0.000000,0.000000
1782117290.592856,1793960,-0.958008,0.035645,-0.310059,-2.682927,1.707317,0.975610,-3.906250,40.112499,-2.143750,0.0,1.000000,0.000000,0.000000,0.000000
1782117290.602856,1793970,-0.962891,0.033203,-0.302734,-3.170732,1.585366,0.731707,-3.968750,40.025002,-2.156250,0.0,1.000000,0.000000,0.000000,0.000000
1782117290.612856,1793980,-0.961426,0.029785,-0.299805,-3.597561,1.280488,0.365854,-3.968750,40.025002,-2.156250,0.0,1.000000,0.000000,0.000000,0.000000
1782117290.622856,1793990,-0.960449,0.030762,-0.296387,-3.780488,1.036585,0.182927,-3.993750,40.037502,-2.312500,0.0,1.000000,0.000000,0.000000,0.000000
1782117290.632856,1794000,-0.958496,0.031738,-0.292969,-3.841464,0.853659,0.182927,-3.993750,40.037502,-2.312500,0.0,1.000000,0.000000,0.000000,0.000000
1782117290.642856,1794010,-0.955078,0.029785,-0.291992,-3.963415,0.975610,0.243902,-4.118750,39.950001,-2.393750,0.0,1.000000,0.000000,0.000000,0.000000
1782117290.657856,1794025,-0.956055,0.027344,-0.292480,-3.963415,1.219512,0.365854,-4.037500,40.037502,-2.393750,0.0,1.000000,0.000000,0.000000,0.000000
1782117290.662856,1794030,-0.959961,0.022461,-0.291504,-3.841464,1.158537,0.731707,-4.037500,40.037502,-2.393750,0.0,1.000000,0.000000,0.000000,0.000000
1782117290.672856,1794040,-0.959961,0.017090,-0.294922,-3.841464,1.158537,0.731707,-4.037500,40.037502,-2.393750,0.0,1.000000,0.000000,0.000000,0.000000
1782117290.682856,1794050,-0.961914,0.016113,-0.297363,-3.658537,1.158537,0.670732,-4.031250,40.025002,-2.393750,0.0,1.000000,0.000000,0.000000,0.000000
1782117290.693856,1794061,-0.962402,0.018066,-0.297852,-3.170732,0.975610,0.487805,-4.037500,40.043751,-2.418750,0.0,1.000000,0.000000,0.000000,0.000000
1782117290.702856,1794070,-0.958008,0.018555,-0.296387,-2.682927,0.609756,0.243902,-4.037500,40.043751,-2.418750,0.0,1.000000,0.000000,0.000000,0.000000
1782117290.713856,1794081,-0.956543,0.020020,-0.294922,-2.134146,0.670732,0.121951,-4.112500,40.025002,-2.475000,0.0,1.000000,0.000000,0.000000,0.000000
1782117290.722856,1794090,-0.956055,0.022949,-0.292480,-1.951220,0.792683,0.060976,-4.112500,40.025002,-2.475000,0.0,1.000000,0.000000,0.000000,0.000000
1782117290.733856,1794101,-0.956543,0.025391,-0.293457,-2.317073,0.975610,0.000000,-4.137500,39.987499,-2.456250,0.0,1.000000,0.000000,0.000000,0.000000
1782117290.742856,1794110,-0.961426,0.027832,-0.294434,-3.109756,1.158537,0.000000,-4.137500,39.987499,-2.456250,0.0,1.000000,0.000000,0.000000,0.000000
1782117290.752856,1794120,-0.959473,0.030762,-0.291992,-3.658537,0.975610,-0.060976,-4.062500,40.037502,-2.506250,0.0,1.000000,0.000000,0.000000,0.000000
1782117290.762856,1794130,-0.955566,0.032227,-0.288574,-3.780488,1.097561,-0.060976,-4.062500,40.037502,-2.506250,0.0,1.000000,0.000000,0.000000,0.000000
1782117290.772856,1794140,-0.952148,0.031738,-0.287598,-3.414634,1.524390,-0.060976,-4.131250,40.081249,-2.556250,0.0,1.000000,0.000000,0.000000,0.000000
1782117290.784856,1794152,-0.951172,0.030273,-0.289551,-3.109756,1.951220,0.121951,-4.131250,40.081249,-2.556250,0.0,1.000000,0.000000,0.000000,0.000000
1782117290.793856,1794161,-0.953125,0.027344,-0.291016,-2.865854,2.317073,0.365854,-3.443750,40.793751,-2.450000,0.0,1.000000,0.000000,0.000000,0.000000
1782117290.802856,1794170,-0.958496,0.024414,-0.291992,-2.804878,2.500000,0.487805,-3.443750,40.793751,-2.450000,0.0,1.000000,0.000000,0.000000,0.000000
1782117290.815856,1794183,-0.962891,0.021484,-0.292969,-2.804878,2.439024,0.426829,-4.075000,40.081249,-2.606250,0.0,1.000000,0.000000,0.000000,0.000000
1782117290.822856,1794190,-0.963379,0.021484,-0.293945,-3.048780,2.073171,0.182927,-4.075000,40.081249,-2.606250,0.0,1.000000,0.000000,0.000000,0.000000
1782117290.832856,1794200,-0.962402,0.024414,-0.293945,-3.414634,1.829268,0.121951,-4.168750,40.087502,-2.643750,0.0,1.000000,0.000000,0.000000,0.000000
1782117290.842856,1794210,-0.959961,0.025879,-0.292969,-3.902439,1.707317,0.060976,-4.168750,40.087502,-2.643750,0.0,1.000000,0.000000,0.000000,0.000000
1782117290.853856,1794221,-0.962402,0.028320,-0.292969,-4.024390,1.707317,0.060976,-4.168750,40.012501,-2.768750,0.0,1.000000,0.000000,0.000000,0.000000
1782117290.862856,1794230,-0.965332,0.030273,-0.287598,-4.146341,1.524390,0.182927,-4.168750,40.012501,-2.768750,0.0,1.000000,0.000000,0.000000,0.000000
1782117290.873856,1794241,-0.966797,0.031738,-0.284668,-3.963415,1.158537,0.426829,-4.181250,40.081249,-2.731250,0.0,1.000000,0.000000,0.000000,0.000000
1782117290.882856,1794250,-0.970703,0.024902,-0.286621,-2.560976,0.548781,0.914634,-4.181250,40.081249,-2.731250,0.0,1.000000,0.000000,0.000000,0.000000
1782117290.893856,1794261,-0.974609,0.018066,-0.287109,-0.426829,-0.243902,1.341463,-4.181250,40.049999,-2.850000,0.0,1.000000,0.000000,0.000000,0.000000
1782117290.902856,1794270,-0.979980,0.015625,-0.285156,1.341463,-1.219512,1.585366,-4.181250,40.049999,-2.850000,0.0,1.000000,0.000000,0.000000,0.000000
1782117290.912856,1794280,-0.977539,0.017090,-0.278320,2.682927,-2.195122,1.707317,-4.168750,40.012501,-2.818750,0.0,1.000000,0.000000,0.000000,0.000000
1782117290.922856,1794290,-0.973633,0.020020,-0.272949,3.719512,-3.048780,1.646341,-4.168750,40.012501,-2.818750,0.0,1.000000,0.000000,0.000000,0.000000
1782117290.935856,1794303,-0.966797,0.023438,-0.273438,4.878049,-3.536585,1.707317,-4.187500,40.037502,-2.768750,0.0,1.000000,0.000000,0.000000,0.000000
1782117290.944856,1794312,-0.960449,0.027344,-0.275879,5.548780,-3.353659,1.707317,-3.893750,40.299999,-2.687500,0.0,1.000000,0.000000,0.000000,0.000000
1782117290.952856,1794320,-0.959473,0.030273,-0.278809,5.914634,-2.865854,1.951220,-3.893750,40.299999,-2.687500,0.0,1.000000,0.000000,0.000000,0.000000
1782117290.962856,1794330,-0.961914,0.032227,-0.283203,5.792683,-2.439024,2.256098,-3.893750,40.299999,-2.687500,0.0,1.000000,0.000000,0.000000,0.000000
1782117290.974856,1794342,-0.965820,0.034180,-0.288574,5.426829,-2.621951,2.378049,-4.206250,39.943752,-2.718750,0.0,1.000000,0.000000,0.000000,0.000000
1782117290.982856,1794350,-0.966309,0.034668,-0.289062,5.426829,-2.804878,2.378049,-4.206250,39.943752,-2.718750,0.0,1.000000,0.000000,0.000000,0.000000
1782117290.992856,1794360,-0.966309,0.035156,-0.285645,5.121951,-3.048780,2.134146,-4.068750,40.049999,-2.581250,0.0,1.000000,0.000000,0.000000,0.000000
1782117291.002856,1794370,-0.961914,0.033203,-0.280762,5.000000,-3.231707,1.829268,-4.125000,39.975002,-2.518750,0.0,1.000000,0.000000,0.000000,0.000000
1782117291.013856,1794381,-0.956543,0.030273,-0.277832,5.121951,-3.048780,1.585366,-4.125000,39.975002,-2.518750,0.0,1.000000,0.000000,0.000000,0.000000
1782117291.022856,1794390,-0.958008,0.025879,-0.279785,5.426829,-2.743902,1.585366,-3.781250,40.318752,-2.350000,0.0,1.000000,0.000000,0.000000,0.000000
1782117291.032856,1794400,-0.964355,0.023926,-0.280273,5.365854,-2.682927,1.707317,-3.781250,40.318752,-2.350000,0.0,1.000000,0.000000,0.000000,0.000000
1782117291.044856,1794412,-0.968262,0.027344,-0.283691,5.182927,-2.865854,1.951220,-3.825000,40.306252,-2.350000,0.0,1.000000,0.000000,0.000000,0.000000
1782117291.054856,1794422,-0.965820,0.028809,-0.284180,4.939024,-3.048780,2.073171,-3.825000,40.306252,-2.350000,0.0,1.000000,0.000000,0.000000,0.000000
1782117291.062856,1794430,-0.963867,0.028809,-0.282715,5.000000,-2.682927,2.012195,-3.950000,40.081249,-2.325000,0.0,1.000000,0.000000,0.000000,0.000000
1782117291.072856,1794440,-0.966797,0.028320,-0.279785,5.182927,-2.378049,2.073171,-3.950000,40.081249,-2.325000,0.0,1.000000,0.000000,0.000000,0.000000
1782117291.082856,1794450,-0.964355,0.029785,-0.277344,5.670732,-2.317073,1.890244,-3.731250,40.281250,-2.206250,0.0,1.000000,0.000000,0.000000,0.000000
1782117291.094856,1794462,-0.962891,0.028809,-0.276855,6.402439,-2.073171,1.707317,-3.731250,40.281250,-2.206250,0.0,1.000000,0.000000,0.000000,0.000000
1782117291.103856,1794471,-0.961914,0.030273,-0.275391,6.829268,-1.890244,1.585366,-3.862500,40.137501,-2.218750,0.0,1.000000,0.000000,0.000000,0.000000
1782117291.112856,1794480,-0.959473,0.030273,-0.276855,6.524390,-1.707317,1.402439,-3.862500,40.137501,-2.218750,0.0,1.000000,0.000000,0.000000,0.000000
1782117291.122856,1794490,-0.956543,0.028809,-0.280273,5.853659,-1.402439,1.341463,-3.900000,40.068752,-2.162500,0.0,1.000000,0.000000,0.000000,0.000000
1782117291.134856,1794502,-0.958984,0.028809,-0.285645,5.182927,-0.792683,1.402439,-3.900000,40.068752,-2.162500,0.0,1.000000,0.000000,0.000000,0.000000
1782117291.142856,1794510,-0.967285,0.029785,-0.286621,4.878049,-0.487805,1.524390,-3.856250,40.118752,-2.150000,0.0,1.000000,0.000000,0.000000,0.000000
1782117291.152856,1794520,-0.969238,0.037598,-0.281738,4.512195,-0.548781,1.402439,-3.856250,40.118752,-2.150000,0.0,1.000000,0.000000,0.000000,0.000000
1782117291.162856,1794530,-0.966797,0.048340,-0.277832,4.085366,-0.670732,1.341463,-3.887500,39.981251,-2.168750,0.0,1.000000,0.000000,0.000000,0.000000
1782117291.175856,1794543,-0.963379,0.055664,-0.268555,3.475610,-0.731707,1.341463,-3.887500,39.981251,-2.168750,0.0,1.000000,0.000000,0.000000,0.000000
1782117291.182856,1794550,-0.954102,0.052734,-0.265625,2.256098,-0.670732,1.158537,-3.806250,40.081249,-2.087500,0.0,1.000000,0.000000,0.000000,0.000000
1782117291.192856,1794560,-0.945312,0.045410,-0.270996,0.792683,-0.121951,0.975610,-3.806250,40.081249,-2.087500,0.0,1.000000,0.000000,0.000000,0.000000
1782117291.202856,1794570,-0.951172,0.039551,-0.283203,-0.182927,0.853659,1.158537,-3.906250,40.000000,-2.081250,0.0,1.000000,0.000000,0.000000,0.000000
1782117291.213856,1794581,-0.974609,0.039062,-0.287109,-0.304878,1.219512,1.768293,-3.906250,40.000000,-2.081250,0.0,1.000000,0.000000,0.000000,0.000000
1782117291.222856,1794590,-0.974609,0.039062,-0.287109,-0.304878,1.219512,1.768293,-3.893750,40.012501,-2.143750,0.0,1.000000,0.000000,0.000000,0.000000
1782117291.232856,1794600,-0.989258,0.041504,-0.276855,-0.243902,0.060976,2.073171,-3.893750,40.012501,-2.143750,0.0,1.000000,0.000000,0.000000,0.000000
1782117291.242856,1794610,-0.980957,0.050293,-0.262207,-0.548781,-1.890244,1.890244,-3.837500,39.962502,-2.081250,0.0,1.000000,0.000000,0.000000,0.000000
1782117291.254856,1794622,-0.959961,0.056641,-0.254395,-1.951220,-2.987805,1.463415,-3.837500,39.962502,-2.081250,0.0,1.000000,0.000000,0.000000,0.000000
1782117291.263856,1794631,-0.940918,0.056641,-0.261719,-3.719512,-1.890244,1.341463,-3.887500,39.956249,-2.087500,0.0,1.000000,0.000000,0.000000,0.000000
1782117291.273856,1794641,-0.937500,0.048828,-0.275879,-5.000000,0.426829,1.585366,-3.887500,39.956249,-2.087500,0.0,1.000000,0.000000,0.000000,0.000000
1782117291.283856,1794651,-0.950195,0.029297,-0.288086,-5.121951,2.378049,1.768293,-3.875000,39.987499,-2.112500,0.0,1.000000,0.000000,0.000000,0.000000
1782117291.292856,1794660,-0.967285,0.005371,-0.296387,-3.963415,2.987805,1.585366,-3.875000,39.987499,-2.112500,0.0,1.000000,0.000000,0.000000,0.000000
1782117291.304856,1794672,-0.970215,-0.014160,-0.294922,-0.792683,0.609756,0.304878,-3.900000,39.968750,-2.243750,0.0,1.000000,0.000000,0.000000,0.000000
1782117291.313856,1794681,-0.970215,-0.014160,-0.294922,-0.792683,0.609756,0.304878,-3.762500,40.162502,-2.200000,0.0,1.000000,0.000000,0.000000,0.000000
1782117291.322856,1794690,-0.959473,-0.006836,-0.296875,0.670732,0.000000,0.121951,-3.762500,40.162502,-2.200000,0.0,1.000000,0.000000,0.000000,0.000000
1782117291.334856,1794702,-0.952148,0.014648,-0.300293,3.597561,1.280488,1.036585,-3.900000,40.062500,-2.218750,0.0,1.000000,0.000000,0.000000,0.000000
1782117291.342856,1794710,-0.952148,0.014648,-0.300293,3.597561,1.280488,1.036585,-3.900000,40.062500,-2.218750,0.0,1.000000,0.000000,0.000000,0.000000
1782117291.352856,1794720,-0.960449,0.020020,-0.292969,5.365854,1.585366,1.768293,-3.406250,40.600002,-2.150000,0.0,1.000000,0.000000,0.000000,0.000000
1782117291.362856,1794730,-0.960449,0.022461,-0.284668,6.524390,1.341463,2.012195,-3.406250,40.600002,-2.150000,0.0,1.000000,0.000000,0.000000,0.000000
1782117291.375856,1794743,-0.960938,0.026855,-0.276855,6.829268,1.158537,1.890244,-3.768750,40.150002,-2.200000,0.0,1.000000,0.000000,0.000000,0.000000
1782117291.382856,1794750,-0.959961,0.031738,-0.272461,6.463415,1.097561,1.707317,-3.768750,40.150002,-2.200000,0.0,1.000000,0.000000,0.000000,0.000000
1782117291.392856,1794760,-0.960938,0.035645,-0.271973,5.487805,1.524390,1.463415,-3.731250,40.181252,-2.162500,0.0,1.000000,0.000000,0.000000,0.000000
1782117291.402856,1794770,-0.961914,0.037598,-0.273926,4.573171,1.829268,0.975610,-3.731250,40.181252,-2.162500,0.0,1.000000,0.000000,0.000000,0.000000
1782117291.415856,1794783,-0.963379,0.037598,-0.273438,3.658537,2.317073,0.487805,-3.768750,40.181252,-2.225000,0.0,1.000000,0.000000,0.000000,0.000000
1782117291.422856,1794790,-0.966309,0.037109,-0.273438,2.926829,2.500000,0.000000,-3.768750,40.181252,-2.225000,0.0,1.000000,0.000000,0.000000,0.000000
1782117291.432856,1794800,-0.964355,0.033691,-0.270020,2.439024,2.439024,-0.426829,-3.712500,40.187500,-2.281250,0.0,1.000000,0.000000,0.000000,0.000000
1782117291.442856,1794810,-0.960449,0.030762,-0.272949,2.073171,2.682927,-0.853659,-3.712500,40.187500,-2.281250,0.0,1.000000,0.000000,0.000000,0.000000
1782117291.454856,1794822,-0.957520,0.028809,-0.277344,1.524390,3.353659,-0.975610,-3.862500,40.100002,-2.343750,0.0,1.000000,0.000000,0.000000,0.000000
1782117291.462856,1794830,-0.956055,0.026367,-0.285156,0.914634,4.146341,-0.975610,-3.862500,40.100002,-2.343750,0.0,1.000000,0.000000,0.000000,0.000000
1782117291.472856,1794840,-0.956543,0.021484,-0.292480,0.914634,4.512195,-0.731707,-3.781250,40.162502,-2.325000,0.0,1.000000,0.000000,0.000000,0.000000
1782117291.482856,1794850,-0.958008,0.016113,-0.296875,1.829268,4.695122,-0.487805,-3.781250,40.162502,-2.325000,0.0,1.000000,0.000000,0.000000,0.000000
1782117291.494856,1794862,-0.962402,0.014648,-0.298828,2.987805,4.817073,-0.243902,-3.800000,40.143749,-2.381250,0.0,1.000000,0.000000,0.000000,0.000000
1782117291.503856,1794871,-0.966797,0.012207,-0.299316,4.207317,4.634146,-0.060976,-3.800000,40.143749,-2.381250,0.0,1.000000,0.000000,0.000000,0.000000
1782117291.512856,1794880,-0.964355,0.008789,-0.302246,5.060976,4.207317,-0.121951,-3.800000,40.200001,-2.450000,0.0,1.000000,0.000000,0.000000,0.000000
1782117291.522856,1794890,-0.959961,0.012207,-0.300781,5.853659,4.146341,-0.487805,-3.800000,40.200001,-2.450000,0.0,1.000000,0.000000,0.000000,0.000000
1782117291.534856,1794902,-0.951660,0.014160,-0.300293,6.341464,4.573171,-0.914634,-3.881250,40.106251,-2.493750,0.0,1.000000,0.000000,0.000000,0.000000
1782117291.543856,1794911,-0.944336,0.016602,-0.303223,6.829268,5.609756,-1.341463,-3.881250,40.106251,-2.493750,0.0,1.000000,0.000000,0.000000,0.000000
1782117291.552856,1794920,-0.945312,0.015137,-0.311523,7.378049,6.951220,-1.463415,-3.925000,40.137501,-2.500000,0.0,1.000000,0.000000,0.000000,0.000000
1782117291.562856,1794930,-0.954102,0.015625,-0.320801,7.865854,7.865854,-1.280488,-3.925000,40.137501,-2.500000,0.0,1.000000,0.000000,0.000000,0.000000
1782117291.574856,1794942,-0.956543,0.021973,-0.324219,7.804878,8.109756,-1.341463,-3.931250,40.087502,-2.581250,0.0,1.000000,0.000000,0.000000,0.000000
1782117291.582856,1794950,-0.956543,0.032715,-0.318848,7.560976,7.439024,-1.341463,-3.931250,40.087502,-2.581250,0.0,1.000000,0.000000,0.000000,0.000000
1782117291.592856,1794960,-0.951660,0.040527,-0.313965,7.195122,6.524390,-1.219512,-3.900000,40.200001,-2.643750,0.0,1.000000,0.000000,0.000000,0.000000
1782117291.602856,1794970,-0.947266,0.045410,-0.312988,6.341464,5.975610,-0.975610,-3.968750,40.131252,-2.762500,0.0,1.000000,0.000000,0.000000,0.000000
1782117291.615856,1794983,-0.946289,0.044434,-0.310059,5.609756,5.853659,-0.792683,-3.968750,40.131252,-2.762500,0.0,1.000000,0.000000,0.000000,0.000000
1782117291.622856,1794990,-0.946289,0.038086,-0.307129,5.365854,5.914634,-0.731707,-3.862500,40.275002,-2.750000,0.0,1.000000,0.000000,0.000000,0.000000
1782117291.632856,1795000,-0.946777,0.025391,-0.306641,5.548780,5.975610,-1.036585,-3.862500,40.275002,-2.750000,0.0,1.000000,0.000000,0.000000,0.000000
1782117291.643856,1795011,-0.951660,0.015625,-0.305176,5.975610,5.914634,-1.341463,-3.887500,40.206249,-2.881250,0.0,1.000000,0.000000,0.000000,0.000000
1782117291.654856,1795022,-0.956543,0.007812,-0.302734,6.097561,5.487805,-1.524390,-3.887500,40.206249,-2.881250,0.0,1.000000,0.000000,0.000000,0.000000
1782117291.662856,1795030,-0.959961,0.005859,-0.305664,5.914634,4.939024,-1.768293,-3.925000,40.262501,-2.843750,0.0,1.000000,0.000000,0.000000,0.000000
1782117291.673856,1795041,-0.959961,0.006348,-0.312988,5.731708,4.268293,-1.951220,-3.925000,40.262501,-2.843750,0.0,1.000000,0.000000,0.000000,0.000000
1782117291.683856,1795051,-0.954102,0.006836,-0.319336,5.426829,3.597561,-2.195122,-3.918750,40.231251,-2.881250,0.0,1.000000,0.000000,0.000000,0.000000
1782117291.695856,1795063,-0.944336,0.003906,-0.323242,5.426829,3.597561,-2.500000,-3.918750,40.231251,-2.881250,0.0,1.000000,0.000000,0.000000,0.000000
1782117291.703856,1795071,-0.940430,0.006836,-0.326660,5.853659,4.207317,-2.865854,-3.887500,40.293751,-2.881250,0.0,1.000000,0.000000,0.000000,0.000000
1782117291.713856,1795081,-0.945312,0.009766,-0.327148,6.890244,4.878049,-2.926829,-3.887500,40.293751,-2.881250,0.0,1.000000,0.000000,0.000000,0.000000
1782117291.722856,1795090,-0.948242,0.014648,-0.329590,8.048780,4.817073,-2.743902,-3.850000,40.412502,-2.937500,0.0,1.000000,0.000000,0.000000,0.000000
1782117291.732856,1795100,-0.946289,0.023438,-0.336914,8.475610,4.573171,-2.134146,-3.850000,40.412502,-2.937500,0.0,1.000000,0.000000,0.000000,0.000000
1782117291.743856,1795111,-0.940430,0.027344,-0.344238,8.231708,4.390244,-1.219512,-4.037500,40.243752,-3.012500,0.0,1.000000,0.000000,0.000000,0.000000
1782117291.752856,1795120,-0.937988,0.027344,-0.350586,7.743903,4.634146,-0.243902,-4.037500,40.243752,-3.012500,0.0,1.000000,0.000000,0.000000,0.000000
1782117291.762856,1795130,-0.938965,0.020020,-0.359863,7.865854,4.695122,0.609756,-4.043750,40.225002,-3.062500,0.0,1.000000,0.000000,0.000000,0.000000
1782117291.772856,1795140,-0.942383,0.008789,-0.364258,8.841464,4.634146,1.280488,-4.043750,40.225002,-3.062500,0.0,1.000000,0.000000,0.000000,0.000000
1782117291.782856,1795150,-0.954102,-0.006836,-0.361816,10.365854,4.390244,1.585366,-4.050000,40.287502,-3.062500,0.0,1.000000,0.000000,0.000000,0.000000
1782117291.792856,1795160,-0.963867,-0.017090,-0.354980,12.134147,3.292683,1.341463,-4.050000,40.287502,-3.062500,0.0,1.000000,0.000000,0.000000,0.000000
1782117291.803856,1795171,-0.968262,-0.021484,-0.356934,13.597561,2.804878,0.975610,-3.962500,40.325001,-3.050000,0.0,1.000000,0.000000,0.000000,0.000000
1782117291.812856,1795180,-0.982422,-0.014648,-0.361816,13.536586,2.987805,0.487805,-3.962500,40.325001,-3.050000,0.0,1.000000,0.000000,0.000000,0.000000
1782117291.823856,1795191,-0.990234,-0.007812,-0.366211,12.195122,3.353659,0.182927,-4.006250,40.268749,-3.118750,0.0,1.000000,0.000000,0.000000,0.000000
1782117291.832856,1795200,-0.982422,0.011230,-0.359863,9.695122,3.109756,-0.426829,-4.006250,40.268749,-3.118750,0.0,1.000000,0.000000,0.000000,0.000000
1782117291.842856,1795210,-0.976562,0.025391,-0.344727,6.951220,2.134146,-0.914634,-3.700000,40.556252,-3.062500,0.0,1.000000,0.000000,0.000000,0.000000
1782117291.852856,1795220,-0.961426,0.030762,-0.336914,5.060976,1.585366,-1.280488,-3.700000,40.556252,-3.062500,0.0,1.000000,0.000000,0.000000,0.000000
1782117291.862856,1795230,-0.956055,0.021973,-0.334473,4.024390,0.060976,-1.585366,-3.987500,40.231251,-3.162500,0.0,1.000000,0.000000,0.000000,0.000000
1782117291.872856,1795240,-0.941406,0.008301,-0.334961,4.573171,-1.402439,-1.402439,-3.987500,40.231251,-3.162500,0.0,1.000000,0.000000,0.000000,0.000000
1782117291.882856,1795250,-0.922363,0.000000,-0.337402,5.792683,-2.560976,-1.158537,-3.800000,40.481251,-3.018750,0.0,1.000000,0.000000,0.000000,0.000000
1782117291.892856,1795260,-0.914551,-0.009766,-0.342773,7.195122,-1.280488,-0.792683,-4.112500,40.218750,-3.056250,0.0,1.000000,0.000000,0.000000,0.000000
1782117291.902856,1795270,-0.927734,-0.016113,-0.354004,8.963415,0.853659,-0.182927,-4.112500,40.218750,-3.056250,0.0,1.000000,0.000000,0.000000,0.000000
1782117291.913856,1795281,-0.943848,-0.018555,-0.357910,9.939025,2.256098,0.182927,-3.737500,40.487499,-2.950000,0.0,1.000000,0.000000,0.000000,0.000000
1782117291.923856,1795291,-0.949707,-0.025391,-0.362305,9.390244,2.865854,-0.853659,-3.737500,40.487499,-2.950000,0.0,1.000000,0.000000,0.000000,0.000000
1782117291.933856,1795301,-0.959961,-0.022461,-0.352051,7.134147,3.902439,-1.951220,-3.893750,40.237499,-3.093750,0.0,1.000000,0.000000,0.000000,0.000000
1782117291.943856,1795311,-0.973145,-0.028809,-0.340332,4.451220,3.719512,-2.804878,-3.893750,40.237499,-3.093750,0.0,1.000000,0.000000,0.000000,0.000000
1782117291.953856,1795321,-0.980469,-0.038086,-0.326172,2.926829,2.743902,-3.597561,-3.962500,40.243752,-3.056250,0.0,1.000000,0.000000,0.000000,0.000000
1782117291.962856,1795330,-0.985352,-0.039551,-0.309082,3.475610,1.341463,-3.902439,-3.962500,40.243752,-3.056250,0.0,1.000000,0.000000,0.000000,0.000000
1782117291.972856,1795340,-0.989258,-0.027832,-0.293945,5.243903,-1.219512,-3.414634,-4.018750,40.162502,-3.062500,0.0,1.000000,0.000000,0.000000,0.000000
1782117291.982856,1795350,-0.970215,-0.004395,-0.285645,7.195122,-4.878049,-2.500000,-4.018750,40.162502,-3.062500,0.0,1.000000,0.000000,0.000000,0.000000
1782117291.992856,1795360,-0.935547,0.011719,-0.293945,8.170732,-6.524390,-1.097561,-3.918750,40.306252,-3.037500,0.0,1.000000,0.000000,0.000000,0.000000
1782117292.002856,1795370,-0.908691,0.016113,-0.314941,8.353659,-4.695122,0.487805,-3.918750,40.306252,-3.037500,0.0,1.000000,0.000000,0.000000,0.000000
1782117292.012856,1795380,-0.897461,0.019043,-0.330566,7.012195,-1.463415,1.158537,-3.987500,40.168751,-2.950000,0.0,1.000000,0.000000,0.000000,0.000000
1782117292.023856,1795391,-0.896973,0.015625,-0.339355,4.756098,1.829268,0.853659,-3.987500,40.168751,-2.950000,0.0,1.000000,0.000000,0.000000,0.000000
1782117292.032856,1795400,-0.911621,0.000977,-0.344238,2.439024,4.268293,0.365854,-4.000000,40.150002,-2.987500,0.0,1.000000,0.000000,0.000000,0.000000
1782117292.042856,1795410,-0.911621,0.000977,-0.344238,2.439024,4.268293,0.365854,-4.000000,40.150002,-2.987500,0.0,1.000000,0.000000,0.000000,0.000000
1782117292.052856,1795420,-0.929688,-0.012207,-0.351562,0.243902,5.182927,-0.426829,-4.075000,40.062500,-3.050000,0.0,1.000000,0.000000,0.000000,0.000000
1782117292.062856,1795430,-0.942871,-0.017090,-0.355469,-2.134146,4.939024,-1.585366,-4.075000,40.062500,-3.050000,0.0,1.000000,0.000000,0.000000,0.000000
1782117292.072856,1795440,-0.951660,-0.014160,-0.346680,-4.085366,3.963415,-2.500000,-4.137500,40.068752,-3.137500,0.0,1.000000,0.000000,0.000000,0.000000
1782117292.082856,1795450,-0.948730,-0.015137,-0.331055,-5.121951,2.439024,-2.682927,-4.137500,40.068752,-3.137500,0.0,1.000000,0.000000,0.000000,0.000000
1782117292.093856,1795461,-0.936523,-0.012207,-0.316406,-4.878049,0.670732,-1.951220,-4.193750,40.025002,-3.193750,0.0,1.000000,0.000000,0.000000,0.000000
1782117292.103856,1795471,-0.922852,-0.007812,-0.300293,-3.597561,-1.036585,-0.609756,-4.193750,40.025002,-3.193750,0.0,1.000000,0.000000,0.000000,0.000000
1782117292.113856,1795481,-0.913086,-0.002441,-0.288086,-2.682927,-2.439024,0.731707,-4.100000,40.174999,-3.187500,0.0,1.000000,0.000000,0.000000,0.000000
1782117292.123856,1795491,-0.920898,0.004883,-0.277344,-2.804878,-2.743902,1.829268,-4.100000,40.174999,-3.187500,0.0,1.000000,0.000000,0.000000,0.000000
1782117292.135856,1795503,-0.972168,0.014160,-0.275879,-6.524390,-2.317073,2.743902,-4.200000,40.075001,-3.206250,0.0,1.000000,0.000000,0.000000,0.000000
1782117292.144856,1795512,-0.972168,0.014160,-0.275879,-6.524390,-2.317073,2.743902,-4.012500,40.174999,-3.125000,0.0,1.000000,0.000000,0.000000,0.000000
1782117292.152856,1795520,-0.987305,0.010742,-0.275879,-9.207317,-2.560976,1.707317,-4.012500,40.174999,-3.125000,0.0,1.000000,0.000000,0.000000,0.000000
1782117292.162856,1795530,-0.994141,0.002441,-0.277344,-11.951220,-2.560976,0.121951,-4.012500,40.174999,-3.125000,0.0,1.000000,0.000000,0.000000,0.000000
1782117292.172856,1795540,-0.993164,-0.003418,-0.278320,-15.060976,-2.439024,-1.768293,-3.793750,40.406250,-3.193750,0.0,1.000000,0.000000,0.000000,0.000000
1782117292.182856,1795550,-0.986328,-0.005859,-0.284668,-18.292683,-2.195122,-3.231707,-4.325000,40.025002,-3.400000,0.0,1.000000,0.000000,0.000000,0.000000
1782117292.192856,1795560,-0.973145,-0.006836,-0.298828,-20.365854,-1.768293,-3.780488,-4.325000,40.025002,-3.400000,0.0,1.000000,0.000000,0.000000,0.000000
1782117292.202856,1795570,-0.963867,-0.005859,-0.310547,-20.365854,-1.402439,-3.597561,-4.481250,39.906250,-3.437500,0.0,1.000000,0.000000,0.000000,0.000000
1782117292.212856,1795580,-0.966309,-0.004395,-0.321777,-18.963415,-0.975610,-2.439024,-4.481250,39.906250,-3.437500,0.0,1.000000,0.000000,0.000000,0.000000
1782117292.222856,1795590,-0.973633,-0.012695,-0.332520,-16.402439,-0.914634,-0.548781,-4.468750,40.012501,-3.493750,0.0,1.000000,0.000000,0.000000,0.000000
1782117292.232856,1795600,-0.977539,-0.021973,-0.333496,-12.804878,-1.463415,1.341463,-4.468750,40.012501,-3.493750,0.0,1.000000,0.000000,0.000000,0.000000
1782117292.242856,1795610,-0.974609,-0.034180,-0.331055,-8.353659,-2.439024,2.621951,-4.381250,40.012501,-3.506250,0.0,1.000000,0.000000,0.000000,0.000000
1782117292.252856,1795620,-0.967285,-0.047363,-0.324707,-3.902439,-3.292683,3.414634,-4.381250,40.012501,-3.506250,0.0,1.000000,0.000000,0.000000,0.000000
1782117292.263856,1795631,-0.962891,-0.055664,-0.322754,-0.243902,-3.597561,3.902439,-3.587500,40.818752,-3.218750,0.0,1.000000,0.000000,0.000000,0.000000
1782117292.272856,1795640,-0.962891,-0.058594,-0.317383,2.073171,-3.658537,4.451220,-3.587500,40.818752,-3.218750,0.0,1.000000,0.000000,0.000000,0.000000
1782117292.282856,1795650,-0.958008,-0.052246,-0.310059,2.804878,-3.658537,4.512195,-4.256250,40.031250,-3.325000,0.0,1.000000,0.000000,0.000000,0.000000
1782117292.293856,1795661,-0.952637,-0.038574,-0.311523,2.195122,-2.987805,4.207317,-4.256250,40.031250,-3.325000,0.0,1.000000,0.000000,0.000000,0.000000
1782117292.304856,1795672,-0.946289,-0.021484,-0.312988,1.219512,-2.012195,4.024390,-4.193750,40.075001,-3.350000,0.0,1.000000,0.000000,0.000000,0.000000
1782117292.312856,1795680,-0.938965,-0.004395,-0.312988,-0.182927,-1.097561,3.780488,-4.193750,40.075001,-3.350000,0.0,1.000000,0.000000,0.000000,0.000000
1782117292.323856,1795691,-0.936035,0.006836,-0.316895,-2.073171,-0.426829,3.536585,-4.206250,40.081249,-3.293750,0.0,1.000000,0.000000,0.000000,0.000000
