Unix_Time_s,RelativeTime_s,P_1,P_2,P_3,P_4,P_5,P_6,P_7,P_8,P_9,P_10,P_11,P_12,P_13,P_14,P_15,P_16,P_17,P_18,P_19,P_20,P_21,P_22,P_23,P_24,P_25,P_26,P_27,P_28,P_29,P_30,P_31,P_32,P_33,P_34,P_35,P_36,P_37,P_38,P_39,P_40,P_41,P_42,P_43,P_44,P_45,P_46,P_47,P_48,P_49,P_50,P_51,P_52,P_53,P_54,P_55,P_56,P_57,P_58,P_59,P_60,P_61,P_62,P_63,P_64,P_65,P_66,P_67,P_68,P_69,P_70,P_71,P_72,P_73,P_74,P_75,P_76,P_77,P_78,P_79,P_80,P_81,P_82,P_83,P_84,P_85,P_86,P_87,P_88,P_89,P_90,P_91,P_92,P_93,P_94,P_95,P_96,P_97,P_98,P_99,P_100,P_101,P_102,P_103,P_104,P_105,P_106,P_107,P_108,P_109,P_110,P_111,P_112,P_113,P_114,P_115,P_116,P_117,P_118,P_119,P_120,P_121,P_122,P_123,P_124,P_125,P_126,P_127,P_128,P_129,P_130,P_131,P_132,P_133,P_134,P_135,P_136,P_137,P_138,P_139,P_140,P_141,P_142,P_143,P_144,P_145,P_146,P_147,P_148,P_149,P_150,P_151,P_152,P_153,P_154,P_155,P_156,P_157,P_158,P_159,P_160,P_161,P_162,P_163,P_164,P_165,P_166,P_167,P_168,P_169,P_170,P_171,P_172,P_173,P_174,P_175,P_176,P_177,P_178,P_179,P_180,P_181,P_182,P_183,P_184,P_185,P_186,P_187,P_188,P_189,P_190,P_191,P_192,P_193,P_194,P_195,P_196,P_197,P_198,P_199,P_200,P_201,P_202,P_203,P_204,P_205,P_206,P_207,P_208,P_209,P_210,P_211,P_212,P_213,P_214,P_215,P_216,P_217,P_218,P_219,P_220,P_221,P_222,P_223,P_224,P_225,P_226,P_227,P_228,P_229,P_230,P_231,P_232,P_233,Flex1,Flex2,Bat,IMU1_RefTime,IMU1_Ax,IMU1_Ay,IMU1_Az,IMU1_Wx,IMU1_Wy,IMU1_Wz,IMU1_Roll,IMU1_Pitch,IMU1_Yaw,IMU1_Hx,IMU1_Hy,IMU1_Hz,IMU1_Q0,IMU1_Q1,IMU1_Q2,IMU1_Q3,IMU2_RefTime,IMU2_Ax,IMU2_Ay,IMU2_Az,IMU2_Wx,IMU2_Wy,IMU2_Wz,IMU2_Roll,IMU2_Pitch,IMU2_Yaw,IMU2_Hx,IMU2_Hy,IMU2_Hz,IMU2_Q0,IMU2_Q1,IMU2_Q2,IMU2_Q3,IMU1_FusedRoll,IMU1_FusedPitch,IMU1_FusedYaw,IMU1_FusedQ0,IMU1_FusedQ1,IMU1_FusedQ2,IMU1_FusedQ3,IMU1_MagValid,IMU2_FusedRoll,IMU2_FusedPitch,IMU2_FusedYaw,IMU2_FusedQ0,IMU2_FusedQ1,IMU2_FusedQ2,IMU2_FusedQ3,IMU2_MagValid
1782117284.537672,0.015,1018.0,1023.0,1020.0,1020.0,1021.0,1024.0,1021.0,1021.0,1012.0,1021.0,1021.0,1024.0,1021.0,1021.0,1012.0,1020.0,1021.0,1021.0,1024.0,1021.0,1022.0,1012.0,1020.0,1020.0,1021.0,1022.0,1024.0,1022.0,1021.0,1011.0,1020.0,1020.0,1020.0,1021.0,1021.0,1024.0,1022.0,1021.0,1012.0,1019.0,1020.0,1020.0,1021.0,1021.0,1024.0,1021.0,1021.0,1012.0,1020.0,1020.0,1020.0,1019.0,1021.0,1021.0,1024.0,1021.0,1021.0,1012.0,1020.0,1020.0,1020.0,1018.0,1022.0,1021.0,1024.0,1021.0,1022.0,1012.0,1021.0,1021.0,1021.0,1020.0,1022.0,1021.0,1024.0,1021.0,1022.0,1012.0,1020.0,1021.0,1021.0,1020.0,1021.0,1021.0,1024.0,1022.0,1021.0,1012.0,1020.0,1021.0,1021.0,1020.0,1022.0,1022.0,1024.0,1021.0,1021.0,1012.0,1020.0,1021.0,1021.0,1019.0,1022.0,1021.0,1024.0,1021.0,1022.0,1012.0,1020.0,1020.0,1021.0,1019.0,1022.0,1022.0,1025.0,1021.0,1024.0,1013.0,1021.0,1023.0,1024.0,1022.0,1021.0,1025.0,1022.0,1023.0,1013.0,1021.0,1021.0,1022.0,1021.0,1025.0,1022.0,1022.0,1012.0,1021.0,1022.0,1022.0,1026.0,1022.0,1023.0,1014.0,1021.0,1023.0,1022.0,1025.0,1022.0,1022.0,1013.0,1021.0,1022.0,1022.0,1026.0,1022.0,1023.0,1014.0,1022.0,1022.0,1025.0,1022.0,1021.0,1012.0,1023.0,1023.0,1026.0,1023.0,1024.0,1014.0,1024.0,1024.0,1028.0,1025.0,1027.0,1016.0,1023.0,1023.0,1026.0,1024.0,1024.0,1015.0,1024.0,1025.0,1029.0,1025.0,1025.0,1016.0,1026.0,1026.0,1031.0,1028.0,1028.0,1018.0,1026.0,1027.0,1032.0,1027.0,1028.0,1019.0,1029.0,1030.0,1034.0,1028.0,1028.0,1021.0,1032.0,1031.0,1037.0,1028.0,1028.0,1024.0,1034.0,1033.0,1044.0,1031.0,1029.0,1030.0,1031.0,1031.0,1041.0,1029.0,1025.0,1029.0,1032.0,1031.0,1051.0,1032.0,1026.0,1087.0,1031.0,1031.0,1049.0,1031.0,1027.0,2322,2259,1901,	00:29:35.409,-0.0107421875,0.07568359375,1.01904296875,0.06103515625,0.42724609375,0.1220703125,4.306640625,0.6427001953125,-73.32275390625,92.0,-675.0,-4018.0,-0.801483154296875,-0.033477783203125,0.0179443359375,0.5968017578125,4.3058332563165935,0.6411333973723383,-77.52744419475053,-0.7790403664986253,-0.03279211139114469,0.01916102160860926,0.6258223710024379,1,	00:29:35.410,0.02783203125,0.029296875,1.0244140625,-0.30517578125,0.244140625,0.48828125,1.6424560546875,-1.5435791015625,47.1148681640625,-10.0,618.0,-1843.0,0.916412353515625,0.018524169921875,-0.006622314453125,0.399749755859375,1.6425522720740453,-1.5446667120471589,40.61067622017124,0.9376080187023423,0.018118694301380852,-0.007666804040366251,0.3471370569352801,1
1782117284.548168,0.025,1018.0,1023.0,1021.0,1019.0,1021.0,1024.0,1021.0,1021.0,1012.0,1021.0,1021.0,1023.0,1022.0,1021.0,1011.0,1020.0,1020.0,1021.0,1023.0,1021.0,1021.0,1012.0,1020.0,1020.0,1021.0,1021.0,1024.0,1021.0,1021.0,1011.0,1020.0,1020.0,1020.0,1021.0,1021.0,1024.0,1021.0,1021.0,1011.0,1020.0,1020.0,1020.0,1021.0,1021.0,1024.0,1021.0,1021.0,1011.0,1020.0,1020.0,1020.0,1019.0,1021.0,1021.0,1024.0,1022.0,1021.0,1011.0,1020.0,1020.0,1020.0,1019.0,1021.0,1022.0,1024.0,1021.0,1022.0,1012.0,1020.0,1021.0,1021.0,1020.0,1021.0,1021.0,1024.0,1021.0,1022.0,1012.0,1020.0,1021.0,1021.0,1020.0,1021.0,1021.0,1024.0,1021.0,1021.0,1012.0,1020.0,1021.0,1021.0,1020.0,1022.0,1021.0,1025.0,1021.0,1022.0,1012.0,1020.0,1021.0,1021.0,1019.0,1021.0,1021.0,1024.0,1021.0,1022.0,1012.0,1021.0,1020.0,1021.0,1019.0,1022.0,1022.0,1025.0,1022.0,1024.0,1013.0,1022.0,1023.0,1024.0,1022.0,1022.0,1026.0,1022.0,1023.0,1013.0,1021.0,1022.0,1022.0,1022.0,1025.0,1022.0,1022.0,1013.0,1020.0,1022.0,1022.0,1026.0,1022.0,1023.0,1013.0,1022.0,1022.0,1022.0,1026.0,1022.0,1022.0,1013.0,1021.0,1022.0,1022.0,1025.0,1023.0,1023.0,1014.0,1022.0,1022.0,1025.0,1021.0,1021.0,1013.0,1023.0,1023.0,1026.0,1023.0,1024.0,1014.0,1023.0,1024.0,1028.0,1025.0,1026.0,1016.0,1022.0,1023.0,1028.0,1023.0,1024.0,1016.0,1024.0,1025.0,1028.0,1025.0,1025.0,1016.0,1025.0,1026.0,1031.0,1027.0,1029.0,1019.0,1025.0,1027.0,1032.0,1026.0,1028.0,1020.0,1028.0,1030.0,1036.0,1028.0,1029.0,1022.0,1031.0,1030.0,1038.0,1028.0,1028.0,1024.0,1033.0,1034.0,1045.0,1031.0,1030.0,1031.0,1030.0,1030.0,1043.0,1028.0,1026.0,1030.0,1033.0,1032.0,1053.0,1031.0,1027.0,1087.0,1030.0,1030.0,1051.0,1031.0,1027.0,2322,2259,1901,	00:29:35.419,-0.01025390625,0.07470703125,1.01904296875,0.1220703125,0.48828125,0.18310546875,4.229736328125,0.5987548828125,-73.3172607421875,89.0,-674.0,-4020.0,-0.801513671875,-0.03271484375,0.017822265625,0.5968017578125,4.2281701062735895,0.59963073433529,-77.52610627730105,-0.7790796117682757,-0.03203779009618491,0.01901875151842332,0.6258169266034805,1,	00:29:35.420,0.0263671875,0.0283203125,1.0224609375,-0.3662109375,0.30517578125,0.48828125,1.58203125,-1.47216796875,47.120361328125,-10.0,619.0,-1843.0,0.916412353515625,0.01776123046875,-0.006256103515625,0.399810791015625,1.5805452974417131,-1.4710059246331204,40.61717576327142,0.9376090035334176,0.01738883063730063,-0.007250860908583875,0.3471806591361671,1
1782117284.557917,0.035,1018.0,1024.0,1021.0,1020.0,1021.0,1024.0,1021.0,1021.0,1012.0,1020.0,1021.0,1024.0,1021.0,1021.0,1012.0,1020.0,1020.0,1021.0,1024.0,1021.0,1021.0,1012.0,1020.0,1021.0,1021.0,1021.0,1024.0,1021.0,1021.0,1012.0,1020.0,1020.0,1020.0,1021.0,1021.0,1024.0,1021.0,1022.0,1012.0,1020.0,1020.0,1021.0,1020.0,1021.0,1024.0,1021.0,1021.0,1012.0,1020.0,1020.0,1021.0,1019.0,1021.0,1021.0,1024.0,1021.0,1021.0,1012.0,1020.0,1020.0,1021.0,1019.0,1021.0,1021.0,1024.0,1021.0,1022.0,1012.0,1021.0,1021.0,1022.0,1020.0,1021.0,1022.0,1024.0,1021.0,1022.0,1012.0,1020.0,1021.0,1021.0,1020.0,1021.0,1021.0,1024.0,1021.0,1022.0,1012.0,1020.0,1021.0,1021.0,1020.0,1022.0,1021.0,1025.0,1022.0,1022.0,1012.0,1020.0,1020.0,1021.0,1019.0,1022.0,1021.0,1025.0,1022.0,1021.0,1012.0,1020.0,1020.0,1021.0,1019.0,1022.0,1022.0,1025.0,1022.0,1024.0,1012.0,1021.0,1023.0,1024.0,1022.0,1022.0,1025.0,1022.0,1023.0,1013.0,1021.0,1021.0,1022.0,1021.0,1025.0,1022.0,1023.0,1013.0,1021.0,1022.0,1022.0,1026.0,1022.0,1024.0,1014.0,1021.0,1022.0,1021.0,1026.0,1022.0,1023.0,1013.0,1021.0,1022.0,1022.0,1025.0,1022.0,1024.0,1014.0,1022.0,1022.0,1025.0,1022.0,1021.0,1013.0,1023.0,1023.0,1026.0,1023.0,1024.0,1015.0,1024.0,1024.0,1028.0,1026.0,1027.0,1017.0,1023.0,1023.0,1027.0,1024.0,1024.0,1015.0,1024.0,1025.0,1028.0,1025.0,1025.0,1017.0,1025.0,1026.0,1031.0,1027.0,1029.0,1019.0,1025.0,1026.0,1032.0,1027.0,1028.0,1020.0,1028.0,1029.0,1036.0,1027.0,1029.0,1022.0,1032.0,1030.0,1038.0,1028.0,1028.0,1025.0,1033.0,1033.0,1045.0,1031.0,1029.0,1030.0,1030.0,1030.0,1043.0,1028.0,1027.0,1029.0,1032.0,1031.0,1053.0,1032.0,1027.0,1088.0,1029.0,1030.0,1050.0,1031.0,1027.0,2322,2259,1901,	00:29:35.430,-0.009765625,0.07421875,1.01953125,0.1220703125,0.42724609375,0.18310546875,4.1583251953125,0.5438232421875,-73.3172607421875,91.0,-672.0,-4019.0,-0.80157470703125,-0.031951904296875,0.017852783203125,0.5968017578125,4.158312210337877,0.5461734819744309,-77.52467648724102,-0.7791192203344587,-0.031271258879429956,0.019000404606453712,0.6258069458693406,1,	00:29:35.431,0.0263671875,0.0283203125,1.0224609375,-0.42724609375,0.244140625,0.48828125,1.6424560546875,-1.5325927734375,47.1258544921875,-10.0,619.0,-1843.0,0.9163818359375,0.01849365234375,-0.00653076171875,0.39984130859375,1.643089054071824,-1.531256091504029,40.6203741631144,0.9375806072869479,0.018083142637216016,-0.0075539038206391814,0.3472154134379238,1
1782117284.567631,0.045,1018.0,1023.0,1021.0,1019.0,1022.0,1024.0,1021.0,1021.0,1012.0,1020.0,1021.0,1024.0,1021.0,1021.0,1012.0,1020.0,1020.0,1021.0,1024.0,1021.0,1021.0,1012.0,1020.0,1020.0,1021.0,1020.0,1024.0,1021.0,1021.0,1011.0,1019.0,1019.0,1020.0,1021.0,1022.0,1024.0,1021.0,1022.0,1012.0,1020.0,1020.0,1020.0,1021.0,1021.0,1024.0,1021.0,1022.0,1012.0,1020.0,1020.0,1020.0,1019.0,1021.0,1021.0,1024.0,1021.0,1021.0,1012.0,1019.0,1020.0,1021.0,1019.0,1022.0,1021.0,1024.0,1022.0,1023.0,1012.0,1020.0,1021.0,1021.0,1020.0,1021.0,1021.0,1024.0,1022.0,1022.0,1012.0,1020.0,1021.0,1022.0,1020.0,1021.0,1021.0,1024.0,1022.0,1022.0,1012.0,1020.0,1021.0,1021.0,1020.0,1022.0,1022.0,1024.0,1022.0,1021.0,1012.0,1020.0,1020.0,1021.0,1020.0,1022.0,1021.0,1024.0,1022.0,1022.0,1012.0,1020.0,1020.0,1021.0,1019.0,1022.0,1022.0,1025.0,1022.0,1024.0,1013.0,1021.0,1023.0,1024.0,1022.0,1022.0,1025.0,1022.0,1024.0,1012.0,1021.0,1021.0,1022.0,1022.0,1025.0,1022.0,1022.0,1013.0,1021.0,1022.0,1023.0,1026.0,1022.0,1024.0,1013.0,1021.0,1022.0,1022.0,1026.0,1022.0,1023.0,1013.0,1021.0,1022.0,1022.0,1025.0,1022.0,1024.0,1013.0,1022.0,1022.0,1025.0,1022.0,1022.0,1013.0,1023.0,1023.0,1027.0,1023.0,1024.0,1014.0,1024.0,1024.0,1028.0,1026.0,1027.0,1016.0,1022.0,1023.0,1027.0,1024.0,1024.0,1014.0,1024.0,1024.0,1029.0,1026.0,1025.0,1016.0,1025.0,1026.0,1031.0,1028.0,1029.0,1018.0,1025.0,1027.0,1033.0,1027.0,1028.0,1019.0,1028.0,1029.0,1036.0,1028.0,1029.0,1022.0,1032.0,1030.0,1039.0,1028.0,1029.0,1025.0,1033.0,1033.0,1046.0,1031.0,1030.0,1031.0,1030.0,1030.0,1044.0,1029.0,1026.0,1030.0,1032.0,1032.0,1054.0,1032.0,1027.0,1088.0,1030.0,1030.0,1051.0,1031.0,1027.0,2322,2258,1901,	00:29:35.440,-0.01025390625,0.07470703125,1.01953125,0.1220703125,0.48828125,0.18310546875,4.229736328125,0.6097412109375,-73.3172607421875,91.0,-674.0,-4020.0,-0.801544189453125,-0.03277587890625,0.01776123046875,0.596771240234375,4.228421703040461,0.6111588311084967,-77.52179996017853,-0.7791003211991218,-0.03210314018775014,0.01894051806574838,0.6257901682456446,1,	00:29:35.441,0.02685546875,0.0283203125,1.0234375,-0.48828125,0.18310546875,0.42724609375,1.5545654296875,-1.4886474609375,47.13134765625,-9.0,618.0,-1842.0,0.9163818359375,0.01763916015625,-0.0064697265625,0.399871826171875,1.5559601673903531,-1.4889041686348856,40.62686156437531,0.9375807364351088,0.01724247691950162,-0.007470355562361551,0.34725963405390414,1
1782117284.578668,0.056,1018.0,1024.0,1021.0,1020.0,1021.0,1024.0,1021.0,1021.0,1012.0,1020.0,1021.0,1024.0,1021.0,1021.0,1011.0,1020.0,1021.0,1021.0,1023.0,1022.0,1022.0,1011.0,1020.0,1021.0,1021.0,1021.0,1024.0,1022.0,1021.0,1012.0,1020.0,1020.0,1020.0,1021.0,1021.0,1024.0,1022.0,1021.0,1011.0,1020.0,1020.0,1020.0,1021.0,1021.0,1024.0,1021.0,1021.0,1011.0,1020.0,1020.0,1020.0,1018.0,1021.0,1021.0,1024.0,1021.0,1021.0,1011.0,1020.0,1020.0,1020.0,1018.0,1021.0,1022.0,1024.0,1022.0,1022.0,1011.0,1021.0,1021.0,1022.0,1021.0,1021.0,1022.0,1024.0,1021.0,1022.0,1012.0,1020.0,1021.0,1021.0,1020.0,1021.0,1021.0,1024.0,1022.0,1022.0,1012.0,1020.0,1021.0,1021.0,1020.0,1021.0,1022.0,1024.0,1021.0,1022.0,1012.0,1020.0,1021.0,1021.0,1019.0,1021.0,1021.0,1025.0,1022.0,1022.0,1011.0,1021.0,1020.0,1021.0,1019.0,1022.0,1022.0,1025.0,1022.0,1024.0,1013.0,1022.0,1023.0,1024.0,1022.0,1022.0,1025.0,1022.0,1023.0,1013.0,1021.0,1021.0,1022.0,1022.0,1025.0,1022.0,1022.0,1012.0,1020.0,1022.0,1021.0,1026.0,1023.0,1024.0,1013.0,1021.0,1022.0,1022.0,1025.0,1023.0,1023.0,1013.0,1021.0,1022.0,1022.0,1026.0,1022.0,1024.0,1013.0,1022.0,1022.0,1025.0,1022.0,1021.0,1012.0,1023.0,1022.0,1027.0,1023.0,1024.0,1014.0,1024.0,1024.0,1029.0,1025.0,1027.0,1016.0,1022.0,1023.0,1028.0,1024.0,1024.0,1015.0,1024.0,1024.0,1029.0,1025.0,1025.0,1016.0,1025.0,1027.0,1032.0,1028.0,1029.0,1018.0,1026.0,1027.0,1033.0,1027.0,1028.0,1019.0,1028.0,1029.0,1036.0,1028.0,1029.0,1022.0,1032.0,1030.0,1039.0,1028.0,1028.0,1024.0,1034.0,1034.0,1046.0,1031.0,1030.0,1031.0,1031.0,1031.0,1044.0,1029.0,1026.0,1030.0,1032.0,1032.0,1054.0,1031.0,1028.0,1088.0,1030.0,1030.0,1051.0,1031.0,1027.0,2322,2258,1901,	00:29:35.450,-0.01025390625,0.07470703125,1.02001953125,0.244140625,0.42724609375,0.1220703125,4.163818359375,0.5548095703125,-73.311767578125,91.0,-673.0,-4018.0,-0.80157470703125,-0.032012939453125,0.017822265625,0.596771240234375,4.163865109122711,0.5530167406904132,-77.52094945546081,-0.779136476255759,-0.031346987118643435,0.018983169640383348,0.6257821961647256,1,	00:29:35.451,0.02685546875,0.0283203125,1.021484375,-0.42724609375,0.18310546875,0.48828125,1.6314697265625,-1.527099609375,47.13134765625,-10.0,619.0,-1844.0,0.916351318359375,0.018402099609375,-0.00653076171875,0.39990234375,1.6330658698216676,-1.5290865426832652,40.62964898555635,0.9375544101615281,0.01799517887594171,-0.0075650641908375105,0.3472904711155787,1
1782117284.588761,0.066,1018.0,1024.0,1021.0,1020.0,1021.0,1024.0,1021.0,1021.0,1012.0,1020.0,1021.0,1024.0,1021.0,1021.0,1012.0,1020.0,1021.0,1021.0,1024.0,1022.0,1022.0,1011.0,1020.0,1020.0,1020.0,1021.0,1024.0,1021.0,1021.0,1011.0,1020.0,1020.0,1020.0,1021.0,1021.0,1024.0,1022.0,1021.0,1011.0,1020.0,1020.0,1021.0,1021.0,1021.0,1024.0,1022.0,1021.0,1011.0,1020.0,1020.0,1020.0,1019.0,1021.0,1022.0,1024.0,1021.0,1021.0,1011.0,1020.0,1020.0,1020.0,1018.0,1021.0,1021.0,1024.0,1022.0,1022.0,1011.0,1020.0,1022.0,1021.0,1020.0,1021.0,1021.0,1024.0,1021.0,1022.0,1012.0,1020.0,1021.0,1021.0,1020.0,1022.0,1021.0,1024.0,1021.0,1022.0,1012.0,1020.0,1021.0,1021.0,1020.0,1021.0,1021.0,1025.0,1022.0,1022.0,1012.0,1020.0,1020.0,1021.0,1019.0,1021.0,1021.0,1025.0,1022.0,1022.0,1012.0,1021.0,1021.0,1020.0,1019.0,1022.0,1022.0,1025.0,1022.0,1024.0,1013.0,1022.0,1023.0,1024.0,1022.0,1022.0,1026.0,1022.0,1023.0,1013.0,1021.0,1021.0,1022.0,1022.0,1025.0,1022.0,1023.0,1012.0,1021.0,1022.0,1022.0,1026.0,1023.0,1023.0,1013.0,1021.0,1022.0,1022.0,1026.0,1023.0,1023.0,1013.0,1021.0,1022.0,1022.0,1026.0,1023.0,1024.0,1013.0,1022.0,1022.0,1026.0,1022.0,1022.0,1012.0,1023.0,1022.0,1027.0,1023.0,1024.0,1014.0,1023.0,1024.0,1029.0,1026.0,1027.0,1016.0,1023.0,1023.0,1028.0,1024.0,1024.0,1015.0,1024.0,1025.0,1030.0,1026.0,1026.0,1016.0,1025.0,1027.0,1033.0,1028.0,1029.0,1018.0,1026.0,1027.0,1033.0,1027.0,1029.0,1019.0,1028.0,1029.0,1037.0,1028.0,1029.0,1022.0,1031.0,1030.0,1040.0,1028.0,1029.0,1025.0,1034.0,1034.0,1046.0,1031.0,1029.0,1032.0,1030.0,1030.0,1044.0,1030.0,1026.0,1030.0,1033.0,1031.0,1054.0,1032.0,1027.0,1089.0,1031.0,1030.0,1052.0,1032.0,1027.0,2322,2257,1901,	00:29:35.460,-0.009765625,0.07470703125,1.02001953125,0.1220703125,0.42724609375,0.1220703125,4.251708984375,0.538330078125,-73.311767578125,90.0,-673.0,-4018.0,-0.80157470703125,-0.032562255859375,0.018402099609375,0.59674072265625,4.254080550503634,0.5360420906947995,-77.51857631075738,-0.7791285056895152,-0.03186812530782272,0.01959061262266482,0.6257470751896939,1,	00:29:35.461,0.0283203125,0.02783203125,1.02099609375,-0.42724609375,0.18310546875,0.42724609375,1.56005859375,-1.5875244140625,47.1368408203125,-11.0,620.0,-1846.0,0.91632080078125,0.01800537109375,-0.007232666015625,0.39996337890625,1.5580060468600587,-1.585798638872144,40.63589642569587,0.9375384178597599,0.01755321105328894,-0.008255656744936748,0.3473405302443795,1
1782117284.598848,0.076,1018.0,1024.0,1021.0,1020.0,1021.0,1024.0,1021.0,1021.0,1012.0,1020.0,1021.0,1024.0,1021.0,1021.0,1011.0,1020.0,1020.0,1020.0,1024.0,1021.0,1021.0,1011.0,1020.0,1021.0,1020.0,1021.0,1024.0,1021.0,1022.0,1011.0,1020.0,1020.0,1021.0,1021.0,1021.0,1024.0,1022.0,1021.0,1011.0,1020.0,1021.0,1020.0,1021.0,1021.0,1025.0,1021.0,1021.0,1011.0,1020.0,1020.0,1020.0,1019.0,1021.0,1021.0,1024.0,1021.0,1021.0,1011.0,1020.0,1020.0,1020.0,1019.0,1021.0,1021.0,1024.0,1022.0,1022.0,1011.0,1020.0,1021.0,1021.0,1020.0,1022.0,1022.0,1024.0,1022.0,1022.0,1011.0,1021.0,1021.0,1022.0,1020.0,1021.0,1021.0,1025.0,1022.0,1022.0,1011.0,1021.0,1021.0,1021.0,1019.0,1022.0,1022.0,1024.0,1021.0,1022.0,1012.0,1020.0,1020.0,1021.0,1019.0,1021.0,1021.0,1025.0,1021.0,1021.0,1012.0,1020.0,1020.0,1021.0,1019.0,1022.0,1022.0,1026.0,1022.0,1024.0,1012.0,1022.0,1023.0,1024.0,1022.0,1022.0,1027.0,1022.0,1023.0,1012.0,1021.0,1021.0,1022.0,1022.0,1026.0,1022.0,1023.0,1012.0,1021.0,1022.0,1022.0,1027.0,1022.0,1024.0,1012.0,1021.0,1022.0,1022.0,1026.0,1023.0,1023.0,1012.0,1021.0,1022.0,1022.0,1026.0,1023.0,1024.0,1013.0,1022.0,1022.0,1025.0,1022.0,1021.0,1012.0,1023.0,1023.0,1027.0,1023.0,1025.0,1014.0,1024.0,1024.0,1029.0,1025.0,1027.0,1016.0,1023.0,1023.0,1028.0,1024.0,1024.0,1015.0,1024.0,1025.0,1030.0,1025.0,1026.0,1015.0,1025.0,1027.0,1033.0,1028.0,1030.0,1019.0,1026.0,1027.0,1034.0,1027.0,1029.0,1019.0,1028.0,1030.0,1037.0,1028.0,1030.0,1022.0,1031.0,1030.0,1040.0,1029.0,1029.0,1024.0,1033.0,1033.0,1047.0,1031.0,1030.0,1032.0,1031.0,1031.0,1044.0,1029.0,1027.0,1030.0,1032.0,1031.0,1055.0,1032.0,1028.0,1088.0,1031.0,1030.0,1052.0,1030.0,1027.0,2322,2257,1901,	00:29:35.471,-0.0087890625,0.07470703125,1.01953125,0.1220703125,0.48828125,0.1220703125,4.1802978515625,0.4888916015625,-73.311767578125,91.0,-673.0,-4020.0,-0.801605224609375,-0.03179931640625,0.018341064453125,0.596710205078125,4.179940871386791,0.4889849229229158,-77.51767134680121,-0.7791647095307827,-0.031107321420064,0.019505554905186715,0.6257429370785744,1,	00:29:35.472,0.02685546875,0.02880859375,1.0205078125,-0.42724609375,0.18310546875,0.48828125,1.6094970703125,-1.5106201171875,47.142333984375,-11.0,620.0,-1844.0,0.91632080078125,0.01812744140625,-0.0064697265625,0.399993896484375,1.6084816327644618,-1.5106593011427762,40.63934334605555,0.9375316491150822,0.017738880382083735,-0.0074872824343948235,0.34736677968984325,1
1782117284.608553,0.086,1018.0,1023.0,1021.0,1020.0,1021.0,1024.0,1021.0,1021.0,1011.0,1020.0,1021.0,1024.0,1022.0,1021.0,1011.0,1020.0,1020.0,1021.0,1024.0,1022.0,1022.0,1011.0,1020.0,1021.0,1020.0,1021.0,1024.0,1021.0,1021.0,1011.0,1020.0,1020.0,1020.0,1021.0,1021.0,1024.0,1021.0,1022.0,1011.0,1021.0,1020.0,1021.0,1021.0,1021.0,1025.0,1021.0,1021.0,1011.0,1019.0,1020.0,1020.0,1018.0,1021.0,1021.0,1024.0,1021.0,1021.0,1011.0,1020.0,1020.0,1020.0,1019.0,1021.0,1021.0,1025.0,1021.0,1022.0,1011.0,1021.0,1022.0,1021.0,1021.0,1021.0,1021.0,1024.0,1022.0,1022.0,1012.0,1020.0,1020.0,1021.0,1020.0,1022.0,1022.0,1025.0,1022.0,1022.0,1012.0,1020.0,1021.0,1021.0,1020.0,1021.0,1022.0,1025.0,1022.0,1022.0,1012.0,1020.0,1021.0,1021.0,1019.0,1021.0,1021.0,1025.0,1021.0,1022.0,1012.0,1021.0,1020.0,1021.0,1019.0,1023.0,1022.0,1025.0,1022.0,1023.0,1013.0,1021.0,1023.0,1024.0,1022.0,1022.0,1026.0,1022.0,1023.0,1012.0,1021.0,1022.0,1022.0,1022.0,1025.0,1022.0,1022.0,1012.0,1021.0,1022.0,1022.0,1026.0,1023.0,1024.0,1013.0,1021.0,1023.0,1022.0,1026.0,1023.0,1023.0,1013.0,1021.0,1023.0,1022.0,1027.0,1022.0,1023.0,1013.0,1022.0,1021.0,1025.0,1022.0,1021.0,1012.0,1023.0,1023.0,1027.0,1023.0,1024.0,1014.0,1024.0,1024.0,1030.0,1026.0,1027.0,1016.0,1022.0,1023.0,1027.0,1024.0,1024.0,1014.0,1024.0,1025.0,1030.0,1026.0,1025.0,1016.0,1025.0,1027.0,1032.0,1028.0,1029.0,1018.0,1025.0,1027.0,1033.0,1028.0,1028.0,1019.0,1028.0,1030.0,1037.0,1028.0,1028.0,1022.0,1032.0,1030.0,1040.0,1029.0,1028.0,1024.0,1033.0,1034.0,1047.0,1031.0,1029.0,1032.0,1031.0,1031.0,1044.0,1029.0,1026.0,1030.0,1032.0,1031.0,1054.0,1032.0,1027.0,1089.0,1031.0,1030.0,1052.0,1031.0,1027.0,2322,2257,1901,	00:29:35.481,-0.0107421875,0.07568359375,1.0185546875,0.1220703125,0.42724609375,0.1220703125,4.229736328125,0.5712890625,-73.3062744140625,90.0,-672.0,-4016.0,-0.80157470703125,-0.032562255859375,0.018035888671875,0.596710205078125,4.229019869329327,0.5712412387726096,-77.5156989203614,-0.7791429172465674,-0.03189034313621809,0.019213568466626696,0.6257396897320332,1,	00:29:35.482,0.02685546875,0.02880859375,1.01953125,-0.3662109375,0.18310546875,0.42724609375,1.69189453125,-1.4886474609375,47.142333984375,-9.0,621.0,-1845.0,0.916290283203125,0.01873779296875,-0.0059814453125,0.399993896484375,1.6939281743058188,-1.4878611239990591,40.641331775301396,0.9375155952629862,0.018369041125092713,-0.007041395683653504,0.34738668039183607,1
1782117284.619043,0.096,1018.0,1024.0,1021.0,1020.0,1021.0,1024.0,1021.0,1021.0,1011.0,1021.0,1021.0,1024.0,1022.0,1021.0,1011.0,1020.0,1021.0,1021.0,1024.0,1022.0,1021.0,1011.0,1020.0,1021.0,1021.0,1021.0,1025.0,1022.0,1021.0,1011.0,1020.0,1020.0,1020.0,1021.0,1021.0,1024.0,1021.0,1021.0,1011.0,1020.0,1021.0,1020.0,1021.0,1021.0,1024.0,1021.0,1021.0,1011.0,1020.0,1021.0,1020.0,1019.0,1021.0,1021.0,1024.0,1021.0,1021.0,1011.0,1020.0,1021.0,1020.0,1019.0,1021.0,1022.0,1024.0,1022.0,1022.0,1011.0,1021.0,1021.0,1022.0,1020.0,1021.0,1021.0,1025.0,1021.0,1022.0,1011.0,1020.0,1021.0,1021.0,1020.0,1022.0,1022.0,1024.0,1022.0,1021.0,1012.0,1020.0,1021.0,1021.0,1020.0,1022.0,1021.0,1025.0,1022.0,1021.0,1011.0,1021.0,1021.0,1021.0,1020.0,1022.0,1022.0,1025.0,1022.0,1021.0,1011.0,1021.0,1021.0,1021.0,1019.0,1022.0,1022.0,1026.0,1022.0,1024.0,1013.0,1021.0,1023.0,1024.0,1022.0,1022.0,1026.0,1023.0,1023.0,1012.0,1021.0,1022.0,1022.0,1021.0,1026.0,1022.0,1022.0,1012.0,1021.0,1022.0,1022.0,1026.0,1022.0,1024.0,1013.0,1021.0,1022.0,1022.0,1027.0,1023.0,1023.0,1013.0,1021.0,1022.0,1022.0,1027.0,1023.0,1024.0,1013.0,1022.0,1022.0,1026.0,1022.0,1020.0,1012.0,1023.0,1023.0,1027.0,1023.0,1024.0,1014.0,1024.0,1024.0,1030.0,1026.0,1026.0,1016.0,1022.0,1023.0,1028.0,1024.0,1024.0,1014.0,1024.0,1024.0,1029.0,1026.0,1025.0,1015.0,1025.0,1027.0,1033.0,1029.0,1029.0,1018.0,1026.0,1027.0,1034.0,1028.0,1028.0,1019.0,1028.0,1029.0,1037.0,1028.0,1029.0,1022.0,1032.0,1031.0,1040.0,1028.0,1029.0,1024.0,1034.0,1034.0,1047.0,1031.0,1029.0,1031.0,1031.0,1031.0,1044.0,1029.0,1026.0,1030.0,1033.0,1032.0,1055.0,1031.0,1027.0,1089.0,1031.0,1030.0,1052.0,1032.0,1027.0,2322,2257,1901,	00:29:35.491,-0.0107421875,0.07470703125,1.02001953125,0.1220703125,0.42724609375,0.244140625,4.1583251953125,0.6317138671875,-73.3062744140625,91.0,-674.0,-4019.0,-0.801605224609375,-0.032379150390625,0.017242431640625,0.59674072265625,4.157414827453746,0.6307696992297738,-77.51371237698868,-0.7791596212957591,-0.03172870879908515,0.01841712502936076,0.6257510552015433,1,	00:29:35.492,0.0263671875,0.0283203125,1.02099609375,-0.3662109375,0.244140625,0.48828125,1.5985107421875,-1.4776611328125,47.1533203125,-9.0,620.0,-1846.0,0.916290283203125,0.0179443359375,-0.0062255859375,0.400054931640625,1.5988194152486628,-1.4776547482277984,40.64864903487737,0.9375098465227175,0.01756046778226294,-0.00724508141376018,0.34743981700364573,1
1782117284.628586,0.106,1018.0,1024.0,1021.0,1020.0,1021.0,1024.0,1021.0,1021.0,1011.0,1020.0,1021.0,1024.0,1021.0,1021.0,1011.0,1020.0,1021.0,1021.0,1024.0,1021.0,1021.0,1011.0,1020.0,1021.0,1021.0,1021.0,1024.0,1022.0,1021.0,1011.0,1020.0,1020.0,1020.0,1021.0,1021.0,1024.0,1021.0,1021.0,1011.0,1020.0,1020.0,1020.0,1021.0,1021.0,1025.0,1022.0,1021.0,1011.0,1019.0,1020.0,1021.0,1019.0,1021.0,1020.0,1025.0,1021.0,1021.0,1011.0,1020.0,1020.0,1020.0,1019.0,1021.0,1021.0,1025.0,1021.0,1022.0,1011.0,1020.0,1021.0,1022.0,1021.0,1021.0,1021.0,1025.0,1022.0,1021.0,1011.0,1020.0,1021.0,1021.0,1020.0,1021.0,1022.0,1025.0,1021.0,1022.0,1011.0,1021.0,1021.0,1021.0,1020.0,1021.0,1021.0,1025.0,1021.0,1022.0,1012.0,1020.0,1021.0,1021.0,1019.0,1021.0,1021.0,1025.0,1021.0,1022.0,1012.0,1021.0,1020.0,1021.0,1019.0,1022.0,1022.0,1026.0,1022.0,1023.0,1012.0,1021.0,1023.0,1024.0,1022.0,1022.0,1026.0,1022.0,1024.0,1012.0,1021.0,1022.0,1022.0,1022.0,1026.0,1022.0,1023.0,1012.0,1020.0,1022.0,1022.0,1026.0,1022.0,1024.0,1013.0,1021.0,1022.0,1022.0,1027.0,1022.0,1022.0,1013.0,1021.0,1022.0,1022.0,1026.0,1022.0,1024.0,1013.0,1022.0,1022.0,1025.0,1022.0,1020.0,1012.0,1023.0,1023.0,1027.0,1023.0,1024.0,1013.0,1024.0,1024.0,1030.0,1026.0,1026.0,1016.0,1022.0,1023.0,1028.0,1024.0,1024.0,1014.0,1024.0,1024.0,1030.0,1026.0,1025.0,1015.0,1025.0,1027.0,1033.0,1029.0,1029.0,1018.0,1025.0,1027.0,1034.0,1027.0,1028.0,1019.0,1028.0,1030.0,1037.0,1028.0,1029.0,1022.0,1032.0,1031.0,1040.0,1029.0,1029.0,1025.0,1034.0,1034.0,1047.0,1032.0,1029.0,1031.0,1032.0,1030.0,1044.0,1029.0,1026.0,1030.0,1033.0,1032.0,1055.0,1032.0,1027.0,1089.0,1031.0,1031.0,1053.0,1032.0,1027.0,2322,2256,1901,	00:29:35.501,-0.0107421875,0.07470703125,1.01953125,0.1220703125,0.48828125,0.1220703125,4.229736328125,0.5767822265625,-73.3062744140625,92.0,-674.0,-4016.0,-0.801605224609375,-0.0325927734375,0.01800537109375,0.5966796875,4.228168118400451,0.5759499767710033,-77.51140942827907,-0.7791654677683334,-0.031910970415883755,0.01917569725014447,0.6257117199153633,1,	00:29:35.503,0.02685546875,0.02783203125,1.02099609375,-0.3662109375,0.244140625,0.48828125,1.5216064453125,-1.5325927734375,47.1588134765625,-10.0,619.0,-1846.0,0.916259765625,0.01751708984375,-0.006927490234375,0.400115966796875,1.5221399449499589,-1.5309780977845813,40.655515018486014,0.9374926937261618,0.017095120959255843,-0.007912861582043101,0.34749473761632244,1
1782117284.640277,0.117,1019.0,1024.0,1021.0,1020.0,1021.0,1024.0,1021.0,1021.0,1012.0,1020.0,1020.0,1025.0,1021.0,1020.0,1011.0,1020.0,1021.0,1021.0,1024.0,1021.0,1021.0,1011.0,1020.0,1021.0,1021.0,1021.0,1025.0,1021.0,1020.0,1011.0,1020.0,1021.0,1020.0,1021.0,1021.0,1025.0,1022.0,1022.0,1011.0,1020.0,1021.0,1021.0,1021.0,1022.0,1025.0,1021.0,1021.0,1011.0,1020.0,1020.0,1020.0,1019.0,1021.0,1021.0,1025.0,1021.0,1021.0,1011.0,1020.0,1020.0,1021.0,1019.0,1022.0,1021.0,1025.0,1022.0,1022.0,1011.0,1020.0,1022.0,1021.0,1020.0,1022.0,1022.0,1025.0,1021.0,1022.0,1011.0,1021.0,1021.0,1021.0,1020.0,1022.0,1021.0,1025.0,1022.0,1022.0,1011.0,1020.0,1022.0,1021.0,1019.0,1021.0,1021.0,1025.0,1022.0,1022.0,1011.0,1020.0,1020.0,1021.0,1019.0,1022.0,1021.0,1026.0,1022.0,1022.0,1011.0,1020.0,1021.0,1021.0,1019.0,1023.0,1022.0,1026.0,1022.0,1024.0,1013.0,1022.0,1023.0,1024.0,1022.0,1022.0,1026.0,1022.0,1023.0,1012.0,1021.0,1022.0,1022.0,1022.0,1026.0,1022.0,1022.0,1013.0,1021.0,1022.0,1022.0,1026.0,1022.0,1024.0,1013.0,1021.0,1022.0,1022.0,1027.0,1022.0,1023.0,1012.0,1021.0,1022.0,1022.0,1026.0,1023.0,1024.0,1013.0,1022.0,1022.0,1026.0,1022.0,1021.0,1012.0,1023.0,1023.0,1027.0,1023.0,1024.0,1013.0,1024.0,1024.0,1030.0,1026.0,1028.0,1016.0,1023.0,1023.0,1028.0,1024.0,1024.0,1014.0,1024.0,1024.0,1029.0,1027.0,1026.0,1015.0,1025.0,1027.0,1032.0,1029.0,1029.0,1018.0,1026.0,1027.0,1034.0,1028.0,1028.0,1019.0,1029.0,1030.0,1037.0,1029.0,1030.0,1022.0,1033.0,1031.0,1040.0,1028.0,1029.0,1024.0,1034.0,1034.0,1047.0,1032.0,1030.0,1031.0,1031.0,1031.0,1045.0,1029.0,1026.0,1030.0,1033.0,1032.0,1055.0,1032.0,1027.0,1089.0,1031.0,1031.0,1052.0,1032.0,1027.0,2322,2256,1901,	00:29:35.512,-0.0107421875,0.07568359375,1.01953125,0.244140625,0.48828125,0.1220703125,4.2791748046875,0.6591796875,-73.30078125,89.0,-676.0,-4020.0,-0.80157470703125,-0.03338623046875,0.0177001953125,0.5966796875,4.281311199941691,0.6569808721142222,-77.50928495265856,-0.7791426864605051,-0.03271490085429313,0.018914139081320776,0.6257065324415376,1,	00:29:35.513,0.02685546875,0.02734375,1.02197265625,-0.42724609375,0.244140625,0.48828125,1.549072265625,-1.4447021484375,47.164306640625,-11.0,620.0,-1843.0,0.916259765625,0.0174560546875,-0.006134033203125,0.400146484375,1.551771056417447,-1.4435514978619226,40.659576034217906,0.9374887995487148,0.01707292363547799,-0.007107054674936705,0.34752374850230655,1
1782117284.650323,0.127,1018.0,1024.0,1021.0,1020.0,1021.0,1024.0,1021.0,1021.0,1011.0,1020.0,1022.0,1024.0,1022.0,1021.0,1011.0,1020.0,1021.0,1021.0,1025.0,1021.0,1021.0,1011.0,1020.0,1021.0,1021.0,1021.0,1024.0,1021.0,1021.0,1010.0,1020.0,1021.0,1020.0,1021.0,1021.0,1024.0,1021.0,1021.0,1011.0,1020.0,1020.0,1021.0,1021.0,1021.0,1024.0,1021.0,1021.0,1011.0,1020.0,1020.0,1020.0,1019.0,1021.0,1021.0,1024.0,1021.0,1021.0,1010.0,1020.0,1020.0,1020.0,1018.0,1021.0,1022.0,1025.0,1022.0,1022.0,1011.0,1021.0,1021.0,1022.0,1020.0,1022.0,1021.0,1025.0,1022.0,1022.0,1011.0,1021.0,1021.0,1021.0,1020.0,1021.0,1022.0,1025.0,1022.0,1021.0,1011.0,1020.0,1021.0,1021.0,1020.0,1021.0,1021.0,1024.0,1022.0,1022.0,1011.0,1021.0,1021.0,1021.0,1020.0,1021.0,1021.0,1024.0,1022.0,1021.0,1011.0,1021.0,1021.0,1021.0,1019.0,1022.0,1022.0,1026.0,1023.0,1024.0,1012.0,1021.0,1023.0,1024.0,1022.0,1022.0,1026.0,1022.0,1023.0,1012.0,1021.0,1022.0,1022.0,1022.0,1026.0,1022.0,1022.0,1011.0,1021.0,1022.0,1022.0,1027.0,1023.0,1024.0,1013.0,1021.0,1023.0,1022.0,1027.0,1023.0,1023.0,1012.0,1021.0,1022.0,1022.0,1026.0,1023.0,1024.0,1013.0,1022.0,1022.0,1026.0,1022.0,1021.0,1012.0,1023.0,1023.0,1027.0,1024.0,1024.0,1013.0,1024.0,1024.0,1030.0,1026.0,1026.0,1016.0,1023.0,1023.0,1028.0,1024.0,1024.0,1014.0,1024.0,1024.0,1030.0,1026.0,1025.0,1015.0,1025.0,1027.0,1032.0,1029.0,1029.0,1018.0,1026.0,1027.0,1034.0,1028.0,1028.0,1019.0,1028.0,1030.0,1037.0,1029.0,1029.0,1021.0,1033.0,1031.0,1040.0,1029.0,1029.0,1024.0,1034.0,1034.0,1048.0,1032.0,1030.0,1031.0,1032.0,1031.0,1045.0,1030.0,1027.0,1030.0,1033.0,1032.0,1056.0,1033.0,1028.0,1089.0,1031.0,1031.0,1053.0,1032.0,1027.0,2322,2256,1901,	00:29:35.522,-0.0107421875,0.07470703125,1.01953125,0.244140625,0.48828125,0.18310546875,4.207763671875,0.615234375,-73.30078125,91.0,-678.0,-4017.0,-0.8016357421875,-0.032623291015625,0.017608642578125,0.5966796875,4.205612423639625,0.6142252294768483,-77.5079622431658,-0.7791815329549785,-0.03196706787224801,0.018791240012159097,0.6257005150808062,1,	00:29:35.523,0.0283203125,0.02685546875,1.021484375,-0.48828125,0.30517578125,0.48828125,1.5216064453125,-1.527099609375,47.1697998046875,-11.0,622.0,-1844.0,0.916229248046875,0.017486572265625,-0.006927490234375,0.400177001953125,1.5189908128957548,-1.5279877873463914,40.665265001892514,0.9374640400651433,0.01706096996828019,-0.007896492154283069,0.34757408174393317,1
1782117284.661319,0.138,1018.0,1024.0,1021.0,1020.0,1021.0,1024.0,1022.0,1021.0,1011.0,1020.0,1022.0,1024.0,1022.0,1021.0,1010.0,1020.0,1021.0,1021.0,1024.0,1022.0,1021.0,1011.0,1020.0,1020.0,1021.0,1022.0,1024.0,1022.0,1021.0,1010.0,1020.0,1020.0,1020.0,1021.0,1021.0,1024.0,1022.0,1021.0,1011.0,1020.0,1020.0,1020.0,1021.0,1021.0,1025.0,1022.0,1021.0,1011.0,1020.0,1020.0,1021.0,1019.0,1021.0,1021.0,1025.0,1021.0,1021.0,1011.0,1020.0,1020.0,1021.0,1019.0,1021.0,1021.0,1025.0,1022.0,1022.0,1011.0,1020.0,1021.0,1021.0,1021.0,1021.0,1021.0,1025.0,1022.0,1021.0,1011.0,1021.0,1021.0,1021.0,1020.0,1021.0,1022.0,1025.0,1022.0,1022.0,1011.0,1021.0,1021.0,1021.0,1019.0,1021.0,1021.0,1025.0,1023.0,1023.0,1011.0,1020.0,1021.0,1021.0,1019.0,1022.0,1022.0,1025.0,1022.0,1022.0,1011.0,1020.0,1021.0,1021.0,1019.0,1022.0,1022.0,1026.0,1023.0,1024.0,1013.0,1021.0,1023.0,1024.0,1022.0,1022.0,1026.0,1022.0,1023.0,1012.0,1021.0,1022.0,1022.0,1022.0,1026.0,1023.0,1022.0,1012.0,1021.0,1023.0,1022.0,1026.0,1023.0,1024.0,1012.0,1021.0,1022.0,1022.0,1027.0,1022.0,1023.0,1013.0,1021.0,1022.0,1022.0,1027.0,1023.0,1024.0,1012.0,1022.0,1022.0,1026.0,1022.0,1021.0,1012.0,1023.0,1023.0,1028.0,1023.0,1024.0,1014.0,1024.0,1025.0,1030.0,1026.0,1027.0,1016.0,1023.0,1024.0,1028.0,1024.0,1024.0,1014.0,1024.0,1025.0,1030.0,1026.0,1026.0,1016.0,1025.0,1027.0,1033.0,1028.0,1030.0,1018.0,1026.0,1027.0,1034.0,1028.0,1029.0,1019.0,1029.0,1030.0,1038.0,1028.0,1029.0,1021.0,1033.0,1031.0,1041.0,1029.0,1029.0,1025.0,1035.0,1034.0,1048.0,1032.0,1030.0,1031.0,1032.0,1031.0,1045.0,1030.0,1026.0,1030.0,1034.0,1032.0,1055.0,1033.0,1027.0,1089.0,1031.0,1030.0,1053.0,1032.0,1027.0,2322,2256,1902,	00:29:35.532,-0.0107421875,0.07421875,1.01953125,0.244140625,0.48828125,0.1220703125,4.119873046875,0.59326171875,-73.30078125,89.0,-674.0,-4020.0,-0.801666259765625,-0.03192138671875,0.017303466796875,0.5966796875,4.12023469536557,0.5935977033695682,-77.50731279896142,-0.7792134702517678,-0.03127404505036226,0.0184651795577129,0.6257054730688286,1,	00:29:35.533,0.02783203125,0.02734375,1.02099609375,-0.42724609375,0.30517578125,0.48828125,1.5545654296875,-1.6094970703125,47.1697998046875,-11.0,621.0,-1843.0,0.91619873046875,0.018035888671875,-0.0074462890625,0.400238037109375,1.5527839244994661,-1.6083436126753397,40.669186377477786,0.9374347744762925,0.017581208562234437,-0.008450857260769263,0.3476140499456713,1
1782117284.670330,0.147,1018.0,1024.0,1021.0,1020.0,1021.0,1024.0,1021.0,1021.0,1011.0,1021.0,1021.0,1025.0,1021.0,1021.0,1011.0,1020.0,1021.0,1021.0,1024.0,1022.0,1021.0,1011.0,1020.0,1021.0,1021.0,1021.0,1025.0,1022.0,1021.0,1011.0,1020.0,1020.0,1021.0,1021.0,1021.0,1025.0,1022.0,1021.0,1011.0,1020.0,1020.0,1021.0,1021.0,1021.0,1025.0,1021.0,1021.0,1010.0,1020.0,1020.0,1020.0,1018.0,1021.0,1021.0,1025.0,1021.0,1021.0,1010.0,1020.0,1020.0,1021.0,1019.0,1022.0,1021.0,1025.0,1022.0,1023.0,1011.0,1021.0,1021.0,1021.0,1020.0,1022.0,1022.0,1025.0,1022.0,1022.0,1012.0,1020.0,1021.0,1021.0,1020.0,1021.0,1022.0,1025.0,1022.0,1021.0,1011.0,1021.0,1021.0,1021.0,1020.0,1022.0,1022.0,1025.0,1022.0,1022.0,1011.0,1020.0,1021.0,1021.0,1019.0,1022.0,1021.0,1025.0,1022.0,1022.0,1011.0,1020.0,1020.0,1020.0,1020.0,1022.0,1022.0,1026.0,1022.0,1024.0,1012.0,1022.0,1023.0,1024.0,1022.0,1022.0,1027.0,1023.0,1023.0,1012.0,1021.0,1022.0,1022.0,1022.0,1026.0,1022.0,1022.0,1011.0,1021.0,1022.0,1022.0,1026.0,1023.0,1023.0,1013.0,1022.0,1022.0,1022.0,1027.0,1023.0,1023.0,1013.0,1021.0,1022.0,1023.0,1027.0,1023.0,1024.0,1012.0,1022.0,1022.0,1026.0,1022.0,1021.0,1012.0,1023.0,1023.0,1028.0,1023.0,1024.0,1013.0,1024.0,1025.0,1030.0,1026.0,1028.0,1015.0,1023.0,1023.0,1028.0,1025.0,1024.0,1014.0,1024.0,1025.0,1030.0,1026.0,1026.0,1015.0,1026.0,1027.0,1033.0,1029.0,1030.0,1018.0,1026.0,1028.0,1033.0,1028.0,1029.0,1019.0,1028.0,1030.0,1037.0,1029.0,1029.0,1021.0,1034.0,1031.0,1040.0,1030.0,1029.0,1024.0,1036.0,1034.0,1047.0,1032.0,1030.0,1031.0,1032.0,1031.0,1045.0,1030.0,1026.0,1030.0,1033.0,1032.0,1056.0,1032.0,1027.0,1088.0,1032.0,1031.0,1053.0,1032.0,1027.0,2322,2256,1901,	00:29:35.543,-0.01123046875,0.07568359375,1.01953125,0.30517578125,0.48828125,0.18310546875,4.2132568359375,0.6207275390625,-73.2952880859375,91.0,-672.0,-4020.0,-0.8016357421875,-0.03271484375,0.017578125,0.596649169921875,4.21122981462289,0.6234471376975014,-77.50420108866943,-0.7791983119127607,-0.03205620896555594,0.01875813484954182,0.6256760524073356,1,	00:29:35.544,0.02685546875,0.02783203125,1.021484375,-0.42724609375,0.30517578125,0.48828125,1.5545654296875,-1.51611328125,47.17529296875,-9.0,623.0,-1848.0,0.91619873046875,0.017730712890625,-0.006683349609375,0.4002685546875,1.5554335492099327,-1.5140528714990755,40.6739561335831,0.9374342893436679,0.017317459996338838,-0.007670626762351854,0.34764668879061716,1
1782117284.680331,0.157,1018.0,1024.0,1021.0,1020.0,1021.0,1024.0,1021.0,1021.0,1011.0,1020.0,1021.0,1025.0,1021.0,1021.0,1011.0,1020.0,1021.0,1021.0,1025.0,1021.0,1021.0,1011.0,1020.0,1021.0,1021.0,1021.0,1025.0,1022.0,1021.0,1010.0,1019.0,1020.0,1021.0,1021.0,1022.0,1024.0,1021.0,1021.0,1011.0,1019.0,1021.0,1020.0,1021.0,1021.0,1025.0,1021.0,1021.0,1011.0,1020.0,1020.0,1020.0,1018.0,1021.0,1021.0,1025.0,1022.0,1021.0,1011.0,1020.0,1020.0,1020.0,1018.0,1021.0,1021.0,1025.0,1022.0,1022.0,1012.0,1021.0,1021.0,1022.0,1020.0,1021.0,1021.0,1025.0,1021.0,1022.0,1011.0,1020.0,1021.0,1020.0,1020.0,1021.0,1022.0,1026.0,1021.0,1022.0,1011.0,1020.0,1022.0,1021.0,1020.0,1022.0,1021.0,1025.0,1022.0,1022.0,1011.0,1020.0,1021.0,1021.0,1019.0,1022.0,1021.0,1025.0,1022.0,1022.0,1011.0,1021.0,1020.0,1021.0,1019.0,1022.0,1022.0,1026.0,1022.0,1024.0,1012.0,1021.0,1023.0,1024.0,1023.0,1023.0,1027.0,1023.0,1024.0,1012.0,1021.0,1022.0,1022.0,1022.0,1026.0,1023.0,1022.0,1012.0,1020.0,1022.0,1022.0,1027.0,1023.0,1023.0,1012.0,1021.0,1022.0,1023.0,1027.0,1023.0,1023.0,1012.0,1021.0,1023.0,1023.0,1027.0,1023.0,1024.0,1013.0,1022.0,1022.0,1026.0,1022.0,1021.0,1012.0,1023.0,1023.0,1028.0,1023.0,1024.0,1013.0,1024.0,1025.0,1031.0,1026.0,1027.0,1016.0,1023.0,1023.0,1028.0,1025.0,1024.0,1014.0,1024.0,1025.0,1030.0,1026.0,1026.0,1015.0,1026.0,1028.0,1033.0,1029.0,1029.0,1017.0,1025.0,1028.0,1034.0,1028.0,1028.0,1018.0,1029.0,1030.0,1037.0,1029.0,1029.0,1021.0,1033.0,1031.0,1041.0,1029.0,1029.0,1024.0,1035.0,1034.0,1048.0,1032.0,1029.0,1031.0,1032.0,1031.0,1045.0,1030.0,1026.0,1029.0,1034.0,1032.0,1055.0,1032.0,1027.0,1088.0,1032.0,1031.0,1053.0,1032.0,1027.0,2322,2256,1901,	00:29:35.553,-0.01123046875,0.0751953125,1.02001953125,0.30517578125,0.48828125,0.18310546875,4.273681640625,0.6976318359375,-73.2952880859375,91.0,-677.0,-4015.0,-0.801605224609375,-0.033538818359375,0.01739501953125,0.596649169921875,4.274680813224613,0.6969692183280611,-77.50131872991491,-0.779178321611356,-0.03288934333221233,0.01860366056208103,0.6256623194981276,1,	00:29:35.554,0.02734375,0.0283203125,1.02197265625,-0.48828125,0.30517578125,0.48828125,1.6314697265625,-1.5545654296875,47.1807861328125,-11.0,621.0,-1846.0,0.916168212890625,0.018463134765625,-0.006744384765625,0.400299072265625,1.6302383397561777,-1.5561435631042109,40.676785125971605,0.9374077726756114,0.01805716632692764,-0.007787610137970385,0.3476779538595019,1
1782117284.691015,0.168,1019.0,1024.0,1021.0,1020.0,1021.0,1025.0,1021.0,1021.0,1011.0,1021.0,1021.0,1025.0,1021.0,1021.0,1011.0,1020.0,1020.0,1021.0,1025.0,1022.0,1022.0,1011.0,1020.0,1021.0,1021.0,1021.0,1025.0,1021.0,1021.0,1010.0,1020.0,1020.0,1020.0,1021.0,1021.0,1025.0,1021.0,1022.0,1011.0,1020.0,1021.0,1021.0,1022.0,1021.0,1025.0,1022.0,1021.0,1011.0,1020.0,1020.0,1020.0,1019.0,1021.0,1021.0,1025.0,1021.0,1021.0,1011.0,1020.0,1020.0,1020.0,1019.0,1022.0,1021.0,1025.0,1022.0,1022.0,1011.0,1021.0,1021.0,1021.0,1020.0,1022.0,1021.0,1025.0,1022.0,1022.0,1011.0,1021.0,1021.0,1021.0,1020.0,1021.0,1022.0,1025.0,1021.0,1022.0,1011.0,1020.0,1021.0,1021.0,1020.0,1022.0,1021.0,1026.0,1022.0,1022.0,1011.0,1020.0,1021.0,1021.0,1020.0,1022.0,1022.0,1026.0,1022.0,1022.0,1011.0,1020.0,1021.0,1021.0,1019.0,1022.0,1022.0,1027.0,1022.0,1024.0,1012.0,1022.0,1023.0,1024.0,1022.0,1022.0,1027.0,1022.0,1023.0,1012.0,1020.0,1022.0,1022.0,1022.0,1027.0,1022.0,1022.0,1011.0,1021.0,1022.0,1023.0,1028.0,1023.0,1024.0,1012.0,1021.0,1022.0,1022.0,1027.0,1023.0,1023.0,1012.0,1021.0,1022.0,1022.0,1027.0,1022.0,1024.0,1013.0,1022.0,1022.0,1026.0,1022.0,1021.0,1011.0,1023.0,1023.0,1028.0,1023.0,1024.0,1013.0,1024.0,1024.0,1031.0,1026.0,1027.0,1016.0,1022.0,1024.0,1029.0,1024.0,1024.0,1014.0,1024.0,1025.0,1030.0,1027.0,1026.0,1016.0,1025.0,1027.0,1033.0,1029.0,1029.0,1018.0,1026.0,1028.0,1034.0,1028.0,1029.0,1019.0,1029.0,1030.0,1038.0,1028.0,1030.0,1021.0,1033.0,1032.0,1041.0,1029.0,1029.0,1024.0,1035.0,1035.0,1048.0,1032.0,1030.0,1031.0,1032.0,1031.0,1045.0,1030.0,1026.0,1029.0,1034.0,1032.0,1055.0,1032.0,1028.0,1088.0,1031.0,1030.0,1054.0,1032.0,1027.0,2322,2255,1901,	00:29:35.563,-0.0107421875,0.0751953125,1.02001953125,0.30517578125,0.48828125,0.1220703125,4.229736328125,0.626220703125,-73.2952880859375,92.0,-675.0,-4016.0,-0.801666259765625,-0.032867431640625,0.017669677734375,0.59661865234375,4.229823654078504,0.6237257770661628,-77.50029162334366,-0.7792143790085633,-0.03218480666946444,0.018856664652015458,0.6256464784238378,1,	00:29:35.564,0.0263671875,0.02783203125,1.021484375,-0.42724609375,0.30517578125,0.48828125,1.5655517578125,-1.483154296875,47.186279296875,-9.0,622.0,-1844.0,0.916168212890625,0.0177001953125,-0.00640869140625,0.40032958984375,1.5649088904922042,-1.4848011785946416,40.68336853785365,0.9374086389010127,0.017306924596822957,-0.007401129027322321,0.3477222129284691,1
1782117284.701590,0.179,1018.0,1024.0,1021.0,1021.0,1021.0,1024.0,1022.0,1021.0,1011.0,1021.0,1021.0,1025.0,1021.0,1020.0,1011.0,1020.0,1021.0,1021.0,1025.0,1022.0,1021.0,1010.0,1020.0,1021.0,1021.0,1021.0,1024.0,1022.0,1021.0,1010.0,1020.0,1020.0,1020.0,1021.0,1022.0,1024.0,1022.0,1021.0,1010.0,1020.0,1020.0,1020.0,1021.0,1021.0,1025.0,1022.0,1021.0,1010.0,1020.0,1020.0,1020.0,1019.0,1022.0,1021.0,1025.0,1021.0,1021.0,1010.0,1020.0,1020.0,1020.0,1019.0,1022.0,1022.0,1025.0,1021.0,1021.0,1011.0,1020.0,1021.0,1021.0,1020.0,1021.0,1022.0,1025.0,1022.0,1022.0,1011.0,1020.0,1021.0,1022.0,1020.0,1021.0,1022.0,1025.0,1021.0,1022.0,1011.0,1021.0,1021.0,1021.0,1020.0,1022.0,1022.0,1026.0,1021.0,1022.0,1011.0,1020.0,1021.0,1021.0,1020.0,1022.0,1022.0,1025.0,1022.0,1022.0,1011.0,1020.0,1021.0,1021.0,1019.0,1022.0,1022.0,1027.0,1022.0,1024.0,1012.0,1021.0,1023.0,1024.0,1022.0,1022.0,1026.0,1022.0,1023.0,1012.0,1021.0,1022.0,1022.0,1022.0,1027.0,1023.0,1021.0,1011.0,1021.0,1023.0,1022.0,1027.0,1022.0,1023.0,1012.0,1022.0,1023.0,1022.0,1027.0,1023.0,1022.0,1012.0,1021.0,1022.0,1022.0,1027.0,1023.0,1023.0,1013.0,1022.0,1022.0,1027.0,1022.0,1021.0,1012.0,1023.0,1023.0,1028.0,1024.0,1024.0,1013.0,1024.0,1025.0,1030.0,1026.0,1027.0,1015.0,1023.0,1023.0,1029.0,1025.0,1023.0,1014.0,1024.0,1025.0,1030.0,1027.0,1025.0,1015.0,1025.0,1028.0,1033.0,1029.0,1030.0,1017.0,1026.0,1028.0,1034.0,1028.0,1028.0,1018.0,1029.0,1030.0,1037.0,1029.0,1029.0,1021.0,1033.0,1032.0,1040.0,1029.0,1029.0,1024.0,1035.0,1035.0,1047.0,1033.0,1029.0,1031.0,1032.0,1031.0,1045.0,1030.0,1026.0,1029.0,1034.0,1032.0,1055.0,1034.0,1028.0,1088.0,1032.0,1031.0,1053.0,1032.0,1027.0,2322,2255,1901,	00:29:35.573,-0.009765625,0.07421875,1.01953125,0.244140625,0.48828125,0.18310546875,4.1748046875,0.560302734375,-73.289794921875,91.0,-675.0,-4018.0,-0.80169677734375,-0.0321044921875,0.017822265625,0.59661865234375,4.172332153189515,0.5592972962347326,-77.4987255435022,-0.7792540512477725,-0.0314425211082034,0.018980595318230105,0.6256310641917164,1,	00:29:35.574,0.02734375,0.02685546875,1.0205078125,-0.42724609375,0.30517578125,0.48828125,1.4886474609375,-1.5435791015625,47.1917724609375,-10.0,621.0,-1843.0,0.916168212890625,0.017303466796875,-0.007110595703125,0.400390625,1.4910289902676799,-1.5417164492896547,40.69017155320927,0.9373905617567447,0.016875576709937216,-0.00808996469037113,0.34777679927130006,1
1782117284.711607,0.189,1018.0,1024.0,1021.0,1020.0,1021.0,1024.0,1021.0,1020.0,1011.0,1021.0,1021.0,1025.0,1021.0,1021.0,1011.0,1020.0,1021.0,1021.0,1024.0,1022.0,1021.0,1011.0,1020.0,1021.0,1021.0,1021.0,1024.0,1021.0,1021.0,1010.0,1020.0,1020.0,1020.0,1021.0,1022.0,1025.0,1022.0,1022.0,1011.0,1020.0,1020.0,1020.0,1021.0,1021.0,1025.0,1022.0,1021.0,1011.0,1020.0,1019.0,1020.0,1018.0,1021.0,1021.0,1025.0,1022.0,1021.0,1011.0,1020.0,1020.0,1020.0,1019.0,1022.0,1022.0,1025.0,1022.0,1022.0,1011.0,1020.0,1021.0,1021.0,1020.0,1021.0,1022.0,1025.0,1022.0,1022.0,1011.0,1020.0,1021.0,1022.0,1020.0,1022.0,1022.0,1025.0,1022.0,1022.0,1012.0,1021.0,1021.0,1021.0,1020.0,1021.0,1022.0,1025.0,1022.0,1022.0,1011.0,1020.0,1021.0,1020.0,1020.0,1022.0,1022.0,1025.0,1022.0,1022.0,1012.0,1021.0,1021.0,1021.0,1019.0,1022.0,1022.0,1026.0,1022.0,1024.0,1012.0,1021.0,1023.0,1024.0,1023.0,1023.0,1026.0,1023.0,1022.0,1011.0,1021.0,1022.0,1022.0,1022.0,1026.0,1023.0,1022.0,1012.0,1021.0,1022.0,1023.0,1026.0,1023.0,1024.0,1012.0,1021.0,1022.0,1022.0,1026.0,1023.0,1023.0,1013.0,1021.0,1022.0,1022.0,1027.0,1023.0,1024.0,1013.0,1022.0,1022.0,1026.0,1022.0,1021.0,1012.0,1022.0,1023.0,1028.0,1024.0,1024.0,1014.0,1023.0,1025.0,1030.0,1026.0,1027.0,1016.0,1022.0,1024.0,1027.0,1025.0,1024.0,1014.0,1024.0,1026.0,1029.0,1027.0,1025.0,1016.0,1026.0,1028.0,1032.0,1029.0,1029.0,1018.0,1026.0,1028.0,1033.0,1029.0,1028.0,1018.0,1028.0,1030.0,1036.0,1029.0,1029.0,1021.0,1033.0,1032.0,1041.0,1030.0,1029.0,1025.0,1034.0,1035.0,1047.0,1033.0,1030.0,1031.0,1032.0,1032.0,1044.0,1030.0,1026.0,1030.0,1035.0,1032.0,1055.0,1033.0,1027.0,1089.0,1033.0,1031.0,1052.0,1032.0,1028.0,2322,2255,1901,	00:29:35.583,-0.01025390625,0.07568359375,1.01953125,0.30517578125,0.48828125,0.1220703125,4.2626953125,0.582275390625,-73.289794921875,92.0,-672.0,-4021.0,-0.801666259765625,-0.03289794921875,0.01812744140625,0.596588134765625,4.264878026745393,0.5828541433484293,-77.49626036962744,-0.779236276135057,-0.03220081415837166,0.019324930546845382,0.6256040925234321,1,	00:29:35.585,0.02734375,0.02783203125,1.021484375,-0.42724609375,0.244140625,0.48828125,1.5765380859375,-1.527099609375,47.197265625,-11.0,620.0,-1846.0,0.9161376953125,0.0179443359375,-0.0067138671875,0.400421142578125,1.5775632246698676,-1.5277674526186038,40.6926817575467,0.9373720431986261,0.017541321951974546,-0.007712832444824329,0.34780233879243583,1
1782117284.721601,0.199,1018.0,1023.0,1021.0,1021.0,1021.0,1024.0,1021.0,1021.0,1011.0,1021.0,1022.0,1024.0,1022.0,1021.0,1011.0,1020.0,1021.0,1021.0,1024.0,1022.0,1021.0,1011.0,1020.0,1021.0,1021.0,1021.0,1024.0,1021.0,1021.0,1010.0,1020.0,1020.0,1020.0,1021.0,1022.0,1024.0,1022.0,1022.0,1010.0,1020.0,1021.0,1021.0,1021.0,1021.0,1024.0,1021.0,1021.0,1010.0,1020.0,1020.0,1020.0,1019.0,1021.0,1021.0,1024.0,1022.0,1021.0,1011.0,1020.0,1020.0,1020.0,1019.0,1022.0,1022.0,1024.0,1022.0,1022.0,1011.0,1021.0,1022.0,1021.0,1020.0,1021.0,1022.0,1024.0,1022.0,1023.0,1011.0,1021.0,1021.0,1022.0,1020.0,1021.0,1021.0,1024.0,1022.0,1022.0,1011.0,1021.0,1021.0,1021.0,1020.0,1022.0,1022.0,1025.0,1021.0,1021.0,1011.0,1021.0,1021.0,1021.0,1019.0,1022.0,1022.0,1025.0,1022.0,1022.0,1011.0,1021.0,1021.0,1021.0,1020.0,1022.0,1022.0,1026.0,1022.0,1025.0,1012.0,1022.0,1023.0,1024.0,1022.0,1022.0,1026.0,1023.0,1023.0,1012.0,1021.0,1022.0,1021.0,1022.0,1025.0,1023.0,1022.0,1012.0,1021.0,1022.0,1022.0,1026.0,1023.0,1024.0,1013.0,1021.0,1022.0,1023.0,1026.0,1023.0,1023.0,1012.0,1021.0,1022.0,1022.0,1026.0,1023.0,1024.0,1013.0,1021.0,1023.0,1025.0,1022.0,1021.0,1012.0,1023.0,1024.0,1027.0,1024.0,1024.0,1014.0,1023.0,1025.0,1029.0,1027.0,1027.0,1016.0,1022.0,1024.0,1027.0,1025.0,1024.0,1014.0,1024.0,1026.0,1029.0,1027.0,1025.0,1015.0,1025.0,1028.0,1032.0,1030.0,1029.0,1018.0,1025.0,1028.0,1033.0,1028.0,1028.0,1019.0,1028.0,1031.0,1036.0,1029.0,1030.0,1021.0,1032.0,1033.0,1041.0,1030.0,1029.0,1025.0,1034.0,1035.0,1048.0,1033.0,1030.0,1032.0,1031.0,1032.0,1045.0,1030.0,1026.0,1030.0,1033.0,1032.0,1056.0,1033.0,1028.0,1088.0,1030.0,1032.0,1053.0,1032.0,1027.0,2323,2255,1902,	00:29:35.594,-0.0107421875,0.0751953125,1.01953125,0.30517578125,0.42724609375,0.18310546875,4.185791015625,0.6207275390625,-73.289794921875,92.0,-675.0,-4016.0,-0.80169677734375,-0.03253173828125,0.017425537109375,0.596588134765625,4.183327956465776,0.621751762008995,-77.49500495143631,-0.7792567040470217,-0.03185872292943187,0.018614763992395977,0.625617695987402,1,	00:29:35.595,0.02587890625,0.02685546875,1.0205078125,-0.42724609375,0.244140625,0.48828125,1.5106201171875,-1.4556884765625,47.2027587890625,-10.0,621.0,-1847.0,0.9161376953125,0.017181396484375,-0.006378173828125,0.40045166015625,1.5108625570006238,-1.4582746601059124,40.69925230941773,0.9373723383912309,0.016785399782917317,-0.007345774456734276,0.34784678979503925,1
1782117284.731888,0.209,1018.0,1024.0,1021.0,1020.0,1022.0,1024.0,1022.0,1021.0,1011.0,1020.0,1022.0,1024.0,1022.0,1021.0,1011.0,1019.0,1020.0,1022.0,1024.0,1021.0,1022.0,1011.0,1020.0,1021.0,1021.0,1022.0,1025.0,1021.0,1021.0,1010.0,1020.0,1020.0,1020.0,1021.0,1021.0,1024.0,1021.0,1022.0,1011.0,1020.0,1020.0,1020.0,1021.0,1021.0,1024.0,1021.0,1021.0,1011.0,1020.0,1020.0,1020.0,1019.0,1021.0,1022.0,1024.0,1021.0,1021.0,1010.0,1020.0,1020.0,1020.0,1018.0,1022.0,1022.0,1025.0,1022.0,1022.0,1011.0,1020.0,1021.0,1022.0,1021.0,1021.0,1022.0,1025.0,1022.0,1022.0,1011.0,1021.0,1021.0,1021.0,1020.0,1021.0,1022.0,1024.0,1022.0,1021.0,1011.0,1020.0,1021.0,1021.0,1019.0,1021.0,1022.0,1025.0,1022.0,1022.0,1011.0,1020.0,1021.0,1021.0,1019.0,1021.0,1022.0,1024.0,1022.0,1022.0,1011.0,1020.0,1021.0,1021.0,1020.0,1021.0,1022.0,1026.0,1022.0,1024.0,1012.0,1021.0,1024.0,1024.0,1021.0,1022.0,1026.0,1022.0,1023.0,1013.0,1021.0,1022.0,1022.0,1022.0,1026.0,1023.0,1022.0,1012.0,1021.0,1022.0,1023.0,1027.0,1023.0,1024.0,1012.0,1021.0,1022.0,1023.0,1026.0,1022.0,1023.0,1013.0,1021.0,1022.0,1023.0,1026.0,1023.0,1024.0,1013.0,1021.0,1022.0,1026.0,1022.0,1021.0,1012.0,1023.0,1024.0,1027.0,1024.0,1024.0,1014.0,1023.0,1024.0,1030.0,1027.0,1027.0,1016.0,1022.0,1024.0,1028.0,1025.0,1024.0,1015.0,1023.0,1026.0,1030.0,1027.0,1026.0,1016.0,1025.0,1028.0,1032.0,1030.0,1029.0,1019.0,1025.0,1028.0,1033.0,1029.0,1028.0,1019.0,1027.0,1031.0,1037.0,1029.0,1029.0,1021.0,1032.0,1032.0,1040.0,1030.0,1029.0,1025.0,1034.0,1035.0,1048.0,1033.0,1030.0,1031.0,1031.0,1032.0,1045.0,1031.0,1027.0,1030.0,1033.0,1032.0,1055.0,1033.0,1028.0,1088.0,1031.0,1031.0,1052.0,1033.0,1028.0,2323,2255,1901,	00:29:35.604,-0.01025390625,0.07568359375,1.01953125,0.244140625,0.48828125,0.1220703125,4.2572021484375,0.5712890625,-73.2843017578125,93.0,-677.0,-4019.0,-0.80169677734375,-0.03277587890625,0.0181884765625,0.5965576171875,4.258755543550815,0.5712416304050277,-77.49267270842407,-0.7792603360116447,-0.03209641888964027,0.01936949092743573,0.6255781097790198,1,	00:29:35.605,0.0263671875,0.02734375,1.02001953125,-0.3662109375,0.244140625,0.48828125,1.5765380859375,-1.51611328125,47.208251953125,-10.0,622.0,-1847.0,0.916107177734375,0.01788330078125,-0.006622314453125,0.400482177734375,1.5755768998163961,-1.516813860065218,40.702422894433106,0.9373444253983377,0.01749250907973144,-0.007627760380670553,0.3478810968884781,1
1782117284.741909,0.219,1018.0,1024.0,1021.0,1020.0,1021.0,1024.0,1021.0,1021.0,1011.0,1020.0,1021.0,1024.0,1022.0,1021.0,1010.0,1020.0,1020.0,1021.0,1024.0,1021.0,1021.0,1011.0,1021.0,1021.0,1021.0,1022.0,1025.0,1022.0,1021.0,1011.0,1020.0,1020.0,1020.0,1021.0,1021.0,1025.0,1022.0,1022.0,1011.0,1020.0,1021.0,1020.0,1021.0,1021.0,1024.0,1021.0,1021.0,1011.0,1020.0,1020.0,1020.0,1019.0,1021.0,1022.0,1024.0,1022.0,1021.0,1011.0,1020.0,1020.0,1020.0,1019.0,1021.0,1022.0,1025.0,1022.0,1021.0,1011.0,1021.0,1021.0,1022.0,1020.0,1021.0,1022.0,1025.0,1022.0,1022.0,1011.0,1020.0,1021.0,1021.0,1020.0,1021.0,1022.0,1026.0,1022.0,1022.0,1011.0,1020.0,1021.0,1021.0,1020.0,1022.0,1022.0,1025.0,1021.0,1022.0,1011.0,1020.0,1021.0,1021.0,1019.0,1021.0,1021.0,1025.0,1022.0,1022.0,1011.0,1020.0,1020.0,1021.0,1019.0,1022.0,1023.0,1026.0,1022.0,1024.0,1012.0,1021.0,1024.0,1024.0,1021.0,1022.0,1026.0,1023.0,1023.0,1013.0,1021.0,1021.0,1022.0,1022.0,1026.0,1022.0,1022.0,1012.0,1020.0,1022.0,1022.0,1027.0,1023.0,1024.0,1013.0,1022.0,1022.0,1023.0,1026.0,1023.0,1023.0,1012.0,1021.0,1022.0,1023.0,1027.0,1023.0,1024.0,1013.0,1021.0,1022.0,1026.0,1022.0,1021.0,1012.0,1022.0,1023.0,1027.0,1024.0,1024.0,1014.0,1024.0,1025.0,1030.0,1027.0,1027.0,1016.0,1022.0,1024.0,1028.0,1025.0,1024.0,1015.0,1023.0,1026.0,1029.0,1027.0,1025.0,1015.0,1025.0,1028.0,1032.0,1030.0,1030.0,1018.0,1025.0,1028.0,1034.0,1029.0,1029.0,1018.0,1028.0,1031.0,1037.0,1029.0,1030.0,1021.0,1032.0,1032.0,1041.0,1030.0,1029.0,1025.0,1034.0,1036.0,1047.0,1033.0,1030.0,1031.0,1031.0,1032.0,1045.0,1031.0,1026.0,1029.0,1033.0,1033.0,1056.0,1034.0,1028.0,1088.0,1031.0,1032.0,1054.0,1033.0,1028.0,2323,2256,1902,	00:29:35.614,-0.0107421875,0.07470703125,1.01953125,0.18310546875,0.42724609375,0.18310546875,4.1748046875,0.615234375,-73.2843017578125,93.0,-674.0,-4016.0,-0.801727294921875,-0.032440185546875,0.0174560546875,0.5965576171875,4.177299965635726,0.6132025759887904,-77.49138961545387,-0.7792801316729495,-0.03177166701635631,0.01863900705428999,0.6255922193976059,1,	00:29:35.615,0.02734375,0.02734375,1.0205078125,-0.42724609375,0.244140625,0.48828125,1.4886474609375,-1.549072265625,47.2137451171875,-11.0,622.0,-1843.0,0.91607666015625,0.017303466796875,-0.0072021484375,0.400543212890625,1.4868961045490445,-1.550628547703762,40.70962978648927,0.9373307673269473,0.01687017855764243,-0.008172556045195453,0.34793625712966103,1
1782117284.753154,0.230,1018.0,1024.0,1021.0,1020.0,1021.0,1024.0,1021.0,1021.0,1011.0,1021.0,1022.0,1024.0,1021.0,1021.0,1011.0,1020.0,1021.0,1022.0,1025.0,1022.0,1021.0,1010.0,1020.0,1021.0,1021.0,1022.0,1025.0,1022.0,1021.0,1010.0,1020.0,1020.0,1020.0,1021.0,1021.0,1024.0,1022.0,1022.0,1011.0,1020.0,1020.0,1020.0,1021.0,1022.0,1024.0,1022.0,1021.0,1011.0,1020.0,1020.0,1020.0,1019.0,1021.0,1022.0,1025.0,1022.0,1021.0,1011.0,1020.0,1020.0,1020.0,1019.0,1021.0,1022.0,1025.0,1022.0,1022.0,1010.0,1020.0,1021.0,1021.0,1020.0,1021.0,1022.0,1025.0,1022.0,1022.0,1011.0,1020.0,1021.0,1021.0,1020.0,1022.0,1022.0,1025.0,1022.0,1022.0,1011.0,1020.0,1021.0,1021.0,1020.0,1022.0,1022.0,1025.0,1022.0,1022.0,1011.0,1021.0,1020.0,1021.0,1019.0,1021.0,1021.0,1025.0,1022.0,1022.0,1011.0,1021.0,1020.0,1021.0,1020.0,1022.0,1022.0,1027.0,1023.0,1024.0,1012.0,1021.0,1023.0,1024.0,1022.0,1022.0,1026.0,1022.0,1023.0,1012.0,1021.0,1021.0,1022.0,1022.0,1026.0,1022.0,1022.0,1012.0,1021.0,1022.0,1022.0,1026.0,1023.0,1024.0,1012.0,1021.0,1022.0,1022.0,1027.0,1023.0,1023.0,1012.0,1022.0,1022.0,1023.0,1027.0,1023.0,1024.0,1013.0,1021.0,1022.0,1026.0,1023.0,1022.0,1011.0,1023.0,1023.0,1028.0,1024.0,1024.0,1014.0,1023.0,1025.0,1030.0,1027.0,1027.0,1016.0,1022.0,1024.0,1028.0,1025.0,1024.0,1014.0,1023.0,1026.0,1029.0,1027.0,1025.0,1016.0,1024.0,1028.0,1033.0,1030.0,1030.0,1018.0,1025.0,1028.0,1034.0,1029.0,1029.0,1018.0,1027.0,1031.0,1037.0,1029.0,1030.0,1021.0,1032.0,1033.0,1040.0,1030.0,1030.0,1024.0,1034.0,1036.0,1048.0,1033.0,1031.0,1031.0,1031.0,1032.0,1045.0,1031.0,1026.0,1030.0,1033.0,1033.0,1055.0,1033.0,1028.0,1088.0,1031.0,1032.0,1053.0,1033.0,1028.0,2324,2256,1902,	00:29:35.624,-0.0107421875,0.07568359375,1.01904296875,0.18310546875,0.42724609375,0.18310546875,4.2681884765625,0.604248046875,-73.27880859375,91.0,-671.0,-4018.0,-0.80169677734375,-0.03302001953125,0.01800537109375,0.596527099609375,4.26951790509054,0.6032967767123762,-77.48829307981971,-0.7792735881141483,-0.032345253153276375,0.019208958024988204,0.6255537350202184,1,	00:29:35.626,0.02587890625,0.02880859375,1.0205078125,-0.3662109375,0.18310546875,0.48828125,1.5545654296875,-1.494140625,47.2137451171875,-10.0,622.0,-1846.0,0.91607666015625,0.017669677734375,-0.006500244140625,0.40057373046875,1.5561939620322642,-1.4935631204404312,40.71261682638867,0.9373198769247035,0.017264108538278537,-0.007494853687678646,0.347961529549514,1
1782117284.763157,0.240,1017.0,1024.0,1021.0,1020.0,1021.0,1024.0,1022.0,1021.0,1011.0,1020.0,1022.0,1024.0,1021.0,1021.0,1010.0,1019.0,1021.0,1021.0,1024.0,1021.0,1022.0,1010.0,1020.0,1021.0,1021.0,1021.0,1024.0,1022.0,1021.0,1010.0,1020.0,1020.0,1020.0,1020.0,1022.0,1025.0,1022.0,1021.0,1010.0,1020.0,1020.0,1021.0,1021.0,1022.0,1025.0,1022.0,1021.0,1010.0,1020.0,1020.0,1020.0,1018.0,1021.0,1022.0,1025.0,1022.0,1022.0,1010.0,1020.0,1021.0,1021.0,1019.0,1021.0,1022.0,1025.0,1021.0,1022.0,1011.0,1020.0,1021.0,1022.0,1020.0,1022.0,1022.0,1025.0,1022.0,1022.0,1011.0,1020.0,1021.0,1021.0,1020.0,1021.0,1021.0,1025.0,1022.0,1022.0,1011.0,1020.0,1021.0,1021.0,1020.0,1021.0,1022.0,1025.0,1022.0,1022.0,1011.0,1020.0,1020.0,1021.0,1020.0,1022.0,1022.0,1025.0,1022.0,1022.0,1011.0,1020.0,1020.0,1020.0,1019.0,1022.0,1023.0,1026.0,1022.0,1024.0,1012.0,1021.0,1023.0,1024.0,1022.0,1022.0,1026.0,1023.0,1023.0,1012.0,1021.0,1022.0,1022.0,1022.0,1026.0,1022.0,1022.0,1012.0,1021.0,1022.0,1023.0,1027.0,1022.0,1024.0,1013.0,1021.0,1022.0,1023.0,1027.0,1023.0,1023.0,1013.0,1021.0,1022.0,1023.0,1027.0,1023.0,1024.0,1013.0,1021.0,1022.0,1026.0,1022.0,1021.0,1012.0,1022.0,1023.0,1027.0,1024.0,1025.0,1014.0,1023.0,1025.0,1030.0,1027.0,1028.0,1016.0,1022.0,1024.0,1028.0,1025.0,1024.0,1014.0,1023.0,1026.0,1029.0,1027.0,1026.0,1015.0,1025.0,1029.0,1032.0,1029.0,1030.0,1017.0,1025.0,1029.0,1034.0,1029.0,1029.0,1018.0,1027.0,1031.0,1037.0,1029.0,1030.0,1021.0,1033.0,1033.0,1040.0,1031.0,1029.0,1025.0,1034.0,1037.0,1047.0,1033.0,1031.0,1031.0,1031.0,1032.0,1045.0,1031.0,1027.0,1030.0,1033.0,1033.0,1056.0,1034.0,1029.0,1089.0,1031.0,1032.0,1053.0,1033.0,1028.0,2324,2256,1902,	00:29:35.635,-0.01025390625,0.0751953125,1.01953125,0.18310546875,0.42724609375,0.1220703125,4.1912841796875,0.560302734375,-73.27880859375,91.0,-673.0,-4017.0,-0.8017578125,-0.03228759765625,0.01788330078125,0.596527099609375,4.191493922461447,0.5629132079487934,-77.48757101177556,-0.7793088359546111,-0.0315944139512499,0.019057540368562203,0.6255528285966316,1,	00:29:35.636,0.02734375,0.0283203125,1.0205078125,-0.30517578125,0.1220703125,0.42724609375,1.6094970703125,-1.5655517578125,47.21923828125,-10.0,620.0,-1845.0,0.916046142578125,0.018341064453125,-0.006866455078125,0.400604248046875,1.611194160497252,-1.5632479970426694,40.7153727355165,0.9372925365049513,0.017925569979549708,-0.007897481139237869,0.34799282283500904,1
1782117284.772575,0.250,1018.0,1024.0,1021.0,1019.0,1022.0,1024.0,1021.0,1021.0,1011.0,1020.0,1022.0,1024.0,1022.0,1021.0,1011.0,1020.0,1020.0,1022.0,1025.0,1022.0,1022.0,1011.0,1020.0,1021.0,1020.0,1021.0,1024.0,1022.0,1021.0,1010.0,1020.0,1020.0,1020.0,1021.0,1022.0,1025.0,1021.0,1021.0,1010.0,1020.0,1020.0,1020.0,1021.0,1021.0,1025.0,1021.0,1021.0,1010.0,1020.0,1020.0,1020.0,1019.0,1021.0,1021.0,1024.0,1022.0,1022.0,1010.0,1020.0,1021.0,1020.0,1019.0,1021.0,1022.0,1024.0,1022.0,1022.0,1011.0,1021.0,1021.0,1021.0,1021.0,1021.0,1021.0,1025.0,1022.0,1022.0,1011.0,1021.0,1021.0,1021.0,1019.0,1021.0,1022.0,1025.0,1022.0,1022.0,1011.0,1021.0,1021.0,1021.0,1020.0,1021.0,1022.0,1025.0,1022.0,1022.0,1011.0,1020.0,1021.0,1021.0,1020.0,1022.0,1021.0,1025.0,1022.0,1022.0,1011.0,1020.0,1021.0,1022.0,1019.0,1022.0,1022.0,1026.0,1022.0,1024.0,1012.0,1021.0,1023.0,1024.0,1022.0,1023.0,1026.0,1023.0,1024.0,1012.0,1021.0,1022.0,1022.0,1022.0,1026.0,1023.0,1022.0,1011.0,1021.0,1022.0,1023.0,1027.0,1023.0,1024.0,1012.0,1022.0,1022.0,1022.0,1026.0,1023.0,1023.0,1012.0,1021.0,1022.0,1023.0,1027.0,1023.0,1023.0,1013.0,1022.0,1022.0,1026.0,1022.0,1021.0,1012.0,1023.0,1024.0,1027.0,1024.0,1024.0,1014.0,1023.0,1025.0,1030.0,1027.0,1028.0,1016.0,1022.0,1024.0,1028.0,1025.0,1024.0,1014.0,1024.0,1026.0,1030.0,1027.0,1026.0,1015.0,1025.0,1029.0,1032.0,1029.0,1030.0,1018.0,1025.0,1029.0,1034.0,1029.0,1029.0,1018.0,1028.0,1032.0,1037.0,1029.0,1030.0,1021.0,1032.0,1033.0,1040.0,1030.0,1030.0,1024.0,1034.0,1036.0,1049.0,1034.0,1031.0,1031.0,1031.0,1032.0,1045.0,1031.0,1027.0,1030.0,1032.0,1033.0,1056.0,1034.0,1028.0,1088.0,1031.0,1033.0,1054.0,1034.0,1028.0,2324,2256,1902,	00:29:35.645,-0.01025390625,0.07568359375,1.01904296875,0.06103515625,0.42724609375,0.18310546875,4.2791748046875,0.5877685546875,-73.27880859375,93.0,-676.0,-4018.0,-0.801727294921875,-0.03302001953125,0.0181884765625,0.59649658203125,4.281520056121806,0.5862029316004373,-77.48453604363256,-0.7792947957942757,-0.032334239315503145,0.019389699137178352,0.6255223079820701,1,	00:29:35.646,0.02734375,0.02734375,1.0205078125,-0.30517578125,0.1220703125,0.48828125,1.5216064453125,-1.527099609375,47.2247314453125,-11.0,622.0,-1847.0,0.916046142578125,0.01751708984375,-0.00689697265625,0.400634765625,1.5223219687994194,-1.5296561610148547,40.72260142650532,0.9372892665552996,0.01709722815568966,-0.00789148515576564,0.34804344563812306,1
1782117284.783169,0.260,1017.0,1024.0,1021.0,1020.0,1022.0,1024.0,1021.0,1021.0,1011.0,1020.0,1022.0,1025.0,1021.0,1021.0,1010.0,1020.0,1021.0,1022.0,1024.0,1021.0,1022.0,1011.0,1020.0,1021.0,1021.0,1021.0,1024.0,1022.0,1021.0,1010.0,1020.0,1020.0,1020.0,1021.0,1022.0,1024.0,1022.0,1022.0,1010.0,1021.0,1021.0,1021.0,1021.0,1022.0,1024.0,1021.0,1021.0,1010.0,1020.0,1020.0,1020.0,1018.0,1021.0,1021.0,1024.0,1022.0,1021.0,1010.0,1020.0,1020.0,1021.0,1019.0,1021.0,1022.0,1025.0,1022.0,1022.0,1011.0,1020.0,1021.0,1022.0,1020.0,1022.0,1022.0,1025.0,1022.0,1022.0,1011.0,1020.0,1021.0,1021.0,1020.0,1021.0,1022.0,1025.0,1022.0,1022.0,1011.0,1020.0,1021.0,1021.0,1020.0,1021.0,1022.0,1025.0,1022.0,1022.0,1011.0,1020.0,1020.0,1022.0,1019.0,1021.0,1022.0,1025.0,1022.0,1022.0,1011.0,1020.0,1021.0,1021.0,1019.0,1022.0,1023.0,1026.0,1023.0,1024.0,1012.0,1021.0,1023.0,1024.0,1022.0,1023.0,1026.0,1023.0,1024.0,1011.0,1021.0,1021.0,1021.0,1022.0,1026.0,1022.0,1022.0,1011.0,1021.0,1022.0,1023.0,1027.0,1024.0,1024.0,1012.0,1021.0,1023.0,1022.0,1027.0,1023.0,1023.0,1012.0,1021.0,1022.0,1023.0,1027.0,1023.0,1024.0,1012.0,1021.0,1023.0,1026.0,1023.0,1021.0,1011.0,1022.0,1023.0,1027.0,1024.0,1024.0,1013.0,1023.0,1025.0,1029.0,1026.0,1028.0,1015.0,1022.0,1024.0,1027.0,1025.0,1024.0,1013.0,1023.0,1026.0,1030.0,1027.0,1025.0,1015.0,1025.0,1028.0,1032.0,1030.0,1030.0,1017.0,1025.0,1029.0,1034.0,1029.0,1029.0,1018.0,1027.0,1032.0,1037.0,1030.0,1030.0,1020.0,1032.0,1033.0,1041.0,1030.0,1030.0,1024.0,1034.0,1036.0,1048.0,1034.0,1031.0,1031.0,1031.0,1032.0,1045.0,1031.0,1027.0,1028.0,1033.0,1033.0,1056.0,1035.0,1028.0,1088.0,1031.0,1032.0,1054.0,1033.0,1028.0,2324,2256,1902,	00:29:35.655,-0.0107421875,0.0751953125,1.02001953125,0.06103515625,0.3662109375,0.18310546875,4.1912841796875,0.6097412109375,-73.27880859375,92.0,-677.0,-4020.0,-0.8017578125,-0.03253173828125,0.017547607421875,0.59649658203125,4.193178431312759,0.6108890630829178,-77.48336578638178,-0.7793200705726954,-0.031868336466200235,0.018739199025244485,0.6255345547236687,1,	00:29:35.656,0.02734375,0.02783203125,1.01953125,-0.18310546875,0.18310546875,0.48828125,1.6094970703125,-1.5435791015625,47.230224609375,-11.0,620.0,-1848.0,0.916015625,0.018280029296875,-0.006683349609375,0.400665283203125,1.6110501625056264,-1.5412603958422086,40.725102881681615,0.9372663820267948,0.017858343945534746,-0.007716530496636733,0.3480707741695931,1
1782117284.793684,0.271,1018.0,1024.0,1021.0,1020.0,1021.0,1024.0,1022.0,1021.0,1010.0,1020.0,1021.0,1024.0,1021.0,1021.0,1010.0,1020.0,1020.0,1022.0,1024.0,1022.0,1022.0,1010.0,1021.0,1020.0,1020.0,1021.0,1025.0,1022.0,1021.0,1010.0,1020.0,1020.0,1020.0,1021.0,1022.0,1025.0,1021.0,1022.0,1010.0,1020.0,1020.0,1021.0,1021.0,1022.0,1024.0,1022.0,1021.0,1010.0,1020.0,1021.0,1020.0,1018.0,1021.0,1022.0,1025.0,1021.0,1021.0,1010.0,1020.0,1020.0,1020.0,1019.0,1021.0,1022.0,1025.0,1022.0,1023.0,1011.0,1020.0,1022.0,1022.0,1021.0,1021.0,1022.0,1025.0,1022.0,1023.0,1011.0,1021.0,1021.0,1022.0,1020.0,1021.0,1022.0,1025.0,1022.0,1022.0,1011.0,1021.0,1021.0,1021.0,1020.0,1021.0,1022.0,1025.0,1022.0,1022.0,1010.0,1020.0,1021.0,1021.0,1020.0,1021.0,1022.0,1025.0,1022.0,1022.0,1011.0,1020.0,1020.0,1020.0,1019.0,1022.0,1022.0,1026.0,1022.0,1024.0,1012.0,1021.0,1023.0,1024.0,1022.0,1023.0,1026.0,1022.0,1023.0,1012.0,1021.0,1022.0,1022.0,1023.0,1026.0,1023.0,1023.0,1012.0,1020.0,1022.0,1023.0,1026.0,1023.0,1024.0,1012.0,1022.0,1021.0,1023.0,1026.0,1023.0,1023.0,1012.0,1022.0,1022.0,1023.0,1027.0,1023.0,1025.0,1012.0,1021.0,1023.0,1026.0,1023.0,1021.0,1011.0,1023.0,1024.0,1027.0,1024.0,1024.0,1013.0,1023.0,1025.0,1029.0,1026.0,1027.0,1015.0,1023.0,1024.0,1028.0,1025.0,1024.0,1014.0,1023.0,1026.0,1029.0,1027.0,1026.0,1015.0,1025.0,1029.0,1032.0,1030.0,1030.0,1018.0,1025.0,1029.0,1034.0,1030.0,1030.0,1018.0,1028.0,1031.0,1037.0,1030.0,1030.0,1020.0,1032.0,1033.0,1041.0,1031.0,1030.0,1024.0,1034.0,1036.0,1049.0,1034.0,1031.0,1031.0,1031.0,1032.0,1045.0,1032.0,1027.0,1029.0,1032.0,1033.0,1057.0,1035.0,1029.0,1088.0,1030.0,1032.0,1055.0,1035.0,1028.0,2325,2256,1903,	00:29:35.665,-0.0107421875,0.07666015625,1.0205078125,0.0,0.42724609375,0.18310546875,4.28466796875,0.604248046875,-73.2733154296875,92.0,-677.0,-4018.0,-0.8017578125,-0.03314208984375,0.01806640625,0.596466064453125,4.284251320866003,0.6066063091617834,-77.48025987745982,-0.779312479598525,-0.0324648549939739,0.01926459825033946,0.6254973761627396,1,	00:29:35.666,0.02685546875,0.02783203125,1.02099609375,-0.244140625,0.18310546875,0.42724609375,1.5325927734375,-1.4886474609375,47.2357177734375,-10.0,620.0,-1848.0,0.916015625,0.0174560546875,-0.00653076171875,0.400726318359375,1.5337165520040903,-1.4865921868642415,40.73140118256059,0.937267218358401,0.017060333315577752,-0.007503283068721666,0.34811321026507697,1
1782117284.804181,0.281,1018.0,1024.0,1021.0,1020.0,1021.0,1024.0,1022.0,1021.0,1011.0,1020.0,1022.0,1025.0,1022.0,1021.0,1011.0,1020.0,1020.0,1021.0,1024.0,1022.0,1022.0,1010.0,1020.0,1020.0,1021.0,1021.0,1024.0,1022.0,1021.0,1010.0,1020.0,1020.0,1020.0,1021.0,1021.0,1024.0,1022.0,1021.0,1011.0,1020.0,1020.0,1020.0,1021.0,1022.0,1025.0,1022.0,1021.0,1011.0,1020.0,1021.0,1020.0,1019.0,1021.0,1022.0,1025.0,1022.0,1021.0,1010.0,1020.0,1020.0,1020.0,1019.0,1021.0,1022.0,1025.0,1021.0,1022.0,1011.0,1021.0,1021.0,1021.0,1020.0,1021.0,1022.0,1025.0,1022.0,1022.0,1010.0,1021.0,1021.0,1021.0,1020.0,1021.0,1022.0,1025.0,1022.0,1022.0,1011.0,1021.0,1021.0,1021.0,1020.0,1021.0,1022.0,1025.0,1023.0,1022.0,1010.0,1020.0,1020.0,1021.0,1019.0,1022.0,1022.0,1025.0,1022.0,1022.0,1011.0,1020.0,1021.0,1021.0,1019.0,1022.0,1022.0,1026.0,1023.0,1024.0,1012.0,1021.0,1023.0,1024.0,1022.0,1023.0,1026.0,1023.0,1023.0,1012.0,1021.0,1022.0,1022.0,1022.0,1026.0,1023.0,1023.0,1011.0,1021.0,1022.0,1023.0,1026.0,1023.0,1024.0,1012.0,1022.0,1022.0,1023.0,1026.0,1023.0,1023.0,1012.0,1021.0,1022.0,1023.0,1027.0,1023.0,1024.0,1013.0,1022.0,1022.0,1026.0,1022.0,1022.0,1012.0,1022.0,1023.0,1027.0,1024.0,1025.0,1013.0,1024.0,1025.0,1029.0,1027.0,1028.0,1015.0,1022.0,1024.0,1028.0,1026.0,1024.0,1014.0,1023.0,1026.0,1030.0,1027.0,1026.0,1015.0,1024.0,1029.0,1033.0,1030.0,1031.0,1018.0,1025.0,1028.0,1034.0,1029.0,1029.0,1018.0,1027.0,1031.0,1037.0,1030.0,1031.0,1021.0,1032.0,1034.0,1041.0,1031.0,1031.0,1024.0,1034.0,1037.0,1048.0,1034.0,1031.0,1030.0,1031.0,1032.0,1045.0,1032.0,1027.0,1029.0,1032.0,1033.0,1057.0,1035.0,1029.0,1088.0,1031.0,1032.0,1054.0,1034.0,1028.0,2325,2256,1901,	00:29:35.676,-0.01123046875,0.076171875,1.01953125,0.0,0.3662109375,0.18310546875,4.24072265625,0.692138671875,-73.2733154296875,93.0,-675.0,-4018.0,-0.8017578125,-0.033294677734375,0.017242431640625,0.59649658203125,4.243007162817143,0.691954727032774,-77.47862781212642,-0.7793124796709135,-0.03265026550244431,0.018458368236885344,0.6255120365219387,1,	00:29:35.677,0.0263671875,0.02783203125,1.0205078125,-0.18310546875,0.18310546875,0.48828125,1.6204833984375,-1.461181640625,47.2357177734375,-12.0,621.0,-1847.0,0.915985107421875,0.01806640625,-0.00604248046875,0.400726318359375,1.620721894254667,-1.4627326295357308,40.734042943095346,0.9372495056406783,0.017699712821185085,-0.007043386697025155,0.3481385859771768,1
1782117284.814691,0.292,1018.0,1024.0,1021.0,1020.0,1021.0,1024.0,1022.0,1021.0,1010.0,1020.0,1022.0,1025.0,1022.0,1021.0,1010.0,1020.0,1021.0,1021.0,1024.0,1022.0,1021.0,1011.0,1020.0,1021.0,1021.0,1021.0,1024.0,1022.0,1021.0,1010.0,1020.0,1020.0,1020.0,1020.0,1022.0,1024.0,1022.0,1022.0,1010.0,1020.0,1020.0,1020.0,1020.0,1022.0,1024.0,1022.0,1021.0,1010.0,1020.0,1020.0,1021.0,1019.0,1021.0,1021.0,1024.0,1022.0,1021.0,1010.0,1020.0,1020.0,1020.0,1018.0,1021.0,1022.0,1024.0,1022.0,1023.0,1011.0,1021.0,1021.0,1021.0,1020.0,1021.0,1021.0,1025.0,1022.0,1023.0,1010.0,1021.0,1021.0,1021.0,1020.0,1021.0,1021.0,1025.0,1022.0,1022.0,1011.0,1020.0,1021.0,1021.0,1020.0,1021.0,1021.0,1026.0,1022.0,1022.0,1011.0,1020.0,1021.0,1021.0,1020.0,1021.0,1022.0,1025.0,1022.0,1022.0,1010.0,1020.0,1021.0,1021.0,1020.0,1022.0,1023.0,1025.0,1023.0,1024.0,1012.0,1021.0,1023.0,1024.0,1021.0,1022.0,1026.0,1023.0,1023.0,1012.0,1021.0,1022.0,1022.0,1022.0,1026.0,1023.0,1023.0,1012.0,1021.0,1022.0,1023.0,1027.0,1023.0,1024.0,1012.0,1021.0,1022.0,1022.0,1026.0,1023.0,1023.0,1012.0,1021.0,1022.0,1023.0,1027.0,1023.0,1024.0,1012.0,1021.0,1023.0,1026.0,1022.0,1022.0,1011.0,1022.0,1024.0,1028.0,1024.0,1025.0,1013.0,1023.0,1025.0,1029.0,1027.0,1028.0,1015.0,1022.0,1024.0,1027.0,1025.0,1024.0,1014.0,1024.0,1026.0,1029.0,1028.0,1026.0,1015.0,1025.0,1029.0,1032.0,1031.0,1032.0,1017.0,1025.0,1029.0,1033.0,1029.0,1030.0,1018.0,1028.0,1031.0,1037.0,1030.0,1031.0,1021.0,1032.0,1034.0,1041.0,1031.0,1030.0,1024.0,1035.0,1036.0,1048.0,1035.0,1032.0,1030.0,1031.0,1032.0,1046.0,1032.0,1028.0,1029.0,1033.0,1033.0,1056.0,1035.0,1029.0,1088.0,1031.0,1032.0,1054.0,1034.0,1029.0,2325,2256,1902,	00:29:35.686,-0.0107421875,0.0751953125,1.0205078125,-0.06103515625,0.3662109375,0.18310546875,4.2132568359375,0.6097412109375,-73.267822265625,92.0,-673.0,-4018.0,-0.801788330078125,-0.032684326171875,0.0177001953125,0.596466064453125,4.214609223325093,0.6081713200658367,-77.47684574196444,-0.7793503312926814,-0.032000329064140576,0.018872853414877017,0.6254860953352641,1,	00:29:35.687,0.02734375,0.02685546875,1.01953125,-0.1220703125,0.18310546875,0.42724609375,1.5435791015625,-1.5106201171875,47.2412109375,-9.0,623.0,-1846.0,0.915985107421875,0.017608642578125,-0.006683349609375,0.400787353515625,1.5426175059666194,-1.5111542320601559,40.740359689763615,0.9372350404729985,0.017208281696252138,-0.00767582136756966,0.3481887932099082,1
1782117284.825119,0.302,1018.0,1023.0,1021.0,1020.0,1021.0,1024.0,1022.0,1021.0,1010.0,1020.0,1022.0,1024.0,1022.0,1021.0,1010.0,1020.0,1020.0,1021.0,1024.0,1022.0,1022.0,1010.0,1021.0,1021.0,1021.0,1021.0,1024.0,1022.0,1021.0,1010.0,1021.0,1019.0,1020.0,1020.0,1022.0,1025.0,1022.0,1022.0,1010.0,1019.0,1020.0,1020.0,1021.0,1022.0,1024.0,1021.0,1022.0,1011.0,1020.0,1020.0,1020.0,1019.0,1021.0,1022.0,1025.0,1022.0,1022.0,1010.0,1020.0,1020.0,1020.0,1019.0,1021.0,1022.0,1025.0,1021.0,1022.0,1010.0,1021.0,1021.0,1021.0,1020.0,1021.0,1022.0,1025.0,1022.0,1022.0,1010.0,1020.0,1021.0,1021.0,1020.0,1021.0,1021.0,1025.0,1022.0,1022.0,1011.0,1021.0,1021.0,1022.0,1020.0,1021.0,1022.0,1025.0,1022.0,1022.0,1011.0,1021.0,1021.0,1021.0,1019.0,1022.0,1022.0,1025.0,1022.0,1022.0,1011.0,1020.0,1021.0,1021.0,1019.0,1022.0,1023.0,1026.0,1022.0,1024.0,1012.0,1022.0,1023.0,1024.0,1022.0,1023.0,1026.0,1022.0,1024.0,1012.0,1021.0,1022.0,1021.0,1023.0,1026.0,1023.0,1022.0,1011.0,1020.0,1022.0,1023.0,1027.0,1023.0,1024.0,1012.0,1021.0,1022.0,1023.0,1026.0,1023.0,1023.0,1012.0,1021.0,1022.0,1023.0,1026.0,1024.0,1024.0,1012.0,1021.0,1023.0,1025.0,1023.0,1022.0,1011.0,1023.0,1024.0,1027.0,1024.0,1025.0,1013.0,1024.0,1025.0,1029.0,1027.0,1028.0,1016.0,1023.0,1024.0,1028.0,1026.0,1025.0,1014.0,1023.0,1026.0,1029.0,1027.0,1026.0,1015.0,1025.0,1029.0,1032.0,1030.0,1031.0,1017.0,1025.0,1029.0,1033.0,1029.0,1030.0,1018.0,1028.0,1032.0,1037.0,1029.0,1031.0,1020.0,1032.0,1034.0,1041.0,1030.0,1031.0,1024.0,1034.0,1036.0,1048.0,1034.0,1032.0,1030.0,1032.0,1033.0,1046.0,1032.0,1028.0,1030.0,1033.0,1033.0,1056.0,1035.0,1029.0,1089.0,1031.0,1032.0,1054.0,1035.0,1029.0,2325,2256,1902,	00:29:35.696,-0.0107421875,0.07470703125,1.01953125,-0.06103515625,0.3662109375,0.18310546875,4.1253662109375,0.5877685546875,-73.267822265625,91.0,-676.0,-4018.0,-0.80181884765625,-0.031951904296875,0.017364501953125,0.596466064453125,4.125486747464793,0.5888428539447944,-77.47567496655591,-0.7793858599572324,-0.03128892142103531,0.018517561659808723,0.6254884368277392,1,	00:29:35.697,0.0263671875,0.02783203125,1.02001953125,-0.18310546875,0.18310546875,0.42724609375,1.593017578125,-1.4337158203125,47.2467041015625,-12.0,622.0,-1845.0,0.915985107421875,0.017730712890625,-0.005889892578125,0.40081787109375,1.5910441426008608,-1.432835829883855,40.74338612965586,0.937230020461713,0.017366795841824458,-0.006887573060035813,0.3482109195370935,1
1782117284.837138,0.314,1018.0,1024.0,1021.0,1019.0,1021.0,1024.0,1022.0,1022.0,1011.0,1020.0,1021.0,1024.0,1021.0,1021.0,1010.0,1020.0,1020.0,1022.0,1024.0,1022.0,1022.0,1011.0,1020.0,1021.0,1021.0,1022.0,1024.0,1022.0,1022.0,1010.0,1020.0,1020.0,1020.0,1020.0,1021.0,1025.0,1022.0,1022.0,1010.0,1020.0,1020.0,1021.0,1021.0,1022.0,1024.0,1022.0,1022.0,1010.0,1020.0,1020.0,1021.0,1019.0,1021.0,1022.0,1025.0,1022.0,1022.0,1010.0,1020.0,1020.0,1020.0,1019.0,1021.0,1022.0,1025.0,1022.0,1022.0,1011.0,1020.0,1022.0,1022.0,1020.0,1021.0,1022.0,1025.0,1023.0,1022.0,1011.0,1020.0,1021.0,1021.0,1020.0,1021.0,1022.0,1025.0,1022.0,1022.0,1011.0,1020.0,1022.0,1022.0,1020.0,1021.0,1022.0,1025.0,1023.0,1023.0,1011.0,1020.0,1021.0,1021.0,1019.0,1021.0,1022.0,1025.0,1022.0,1022.0,1011.0,1021.0,1021.0,1022.0,1019.0,1022.0,1022.0,1026.0,1023.0,1024.0,1012.0,1022.0,1024.0,1024.0,1022.0,1022.0,1026.0,1022.0,1024.0,1012.0,1021.0,1021.0,1022.0,1023.0,1026.0,1022.0,1023.0,1012.0,1021.0,1022.0,1023.0,1026.0,1023.0,1024.0,1012.0,1022.0,1022.0,1023.0,1026.0,1023.0,1024.0,1012.0,1022.0,1022.0,1023.0,1026.0,1023.0,1025.0,1013.0,1021.0,1022.0,1025.0,1023.0,1022.0,1011.0,1022.0,1024.0,1027.0,1024.0,1025.0,1013.0,1023.0,1025.0,1030.0,1027.0,1028.0,1015.0,1023.0,1025.0,1028.0,1025.0,1025.0,1013.0,1024.0,1026.0,1029.0,1028.0,1026.0,1015.0,1025.0,1029.0,1032.0,1030.0,1032.0,1018.0,1025.0,1030.0,1033.0,1029.0,1030.0,1018.0,1028.0,1032.0,1037.0,1030.0,1031.0,1021.0,1032.0,1034.0,1040.0,1031.0,1031.0,1024.0,1034.0,1037.0,1049.0,1034.0,1032.0,1031.0,1031.0,1033.0,1045.0,1032.0,1028.0,1030.0,1033.0,1034.0,1056.0,1035.0,1029.0,1090.0,1031.0,1032.0,1054.0,1035.0,1029.0,2325,2257,1901,	00:29:35.707,-0.009765625,0.0751953125,1.02001953125,-0.06103515625,0.3662109375,0.1220703125,4.207763671875,0.5548095703125,-73.267822265625,93.0,-674.0,-4017.0,-0.80181884765625,-0.0323486328125,0.018035888671875,0.596435546875,4.207994463459855,0.554111477173897,-77.47336491668203,-0.7793838792462481,-0.031660983928396294,0.01920356667608498,0.6254514960368013,1,	00:29:35.708,0.02685546875,0.02783203125,1.02099609375,-0.18310546875,0.18310546875,0.42724609375,1.5545654296875,-1.51611328125,47.252197265625,-10.0,621.0,-1848.0,0.91595458984375,0.017730712890625,-0.006683349609375,0.400848388671875,1.5548189607233673,-1.5161397659377098,40.74859274298343,0.9372074399185796,0.017323762081192032,-0.007678283923061366,0.3482572982503208,1
1782117284.845494,0.323,1017.0,1024.0,1021.0,1020.0,1022.0,1024.0,1022.0,1021.0,1011.0,1020.0,1021.0,1024.0,1021.0,1022.0,1010.0,1020.0,1020.0,1022.0,1024.0,1022.0,1022.0,1011.0,1020.0,1021.0,1020.0,1021.0,1024.0,1022.0,1021.0,1010.0,1020.0,1020.0,1020.0,1021.0,1021.0,1025.0,1022.0,1022.0,1010.0,1019.0,1020.0,1020.0,1020.0,1021.0,1025.0,1022.0,1021.0,1010.0,1020.0,1020.0,1020.0,1019.0,1021.0,1022.0,1024.0,1022.0,1022.0,1010.0,1020.0,1020.0,1020.0,1018.0,1021.0,1022.0,1025.0,1022.0,1022.0,1011.0,1020.0,1021.0,1022.0,1020.0,1021.0,1022.0,1025.0,1022.0,1022.0,1011.0,1021.0,1021.0,1021.0,1020.0,1021.0,1022.0,1025.0,1022.0,1022.0,1011.0,1020.0,1021.0,1022.0,1020.0,1021.0,1022.0,1025.0,1022.0,1022.0,1010.0,1021.0,1020.0,1021.0,1019.0,1021.0,1022.0,1025.0,1022.0,1022.0,1010.0,1020.0,1021.0,1021.0,1019.0,1022.0,1022.0,1026.0,1023.0,1024.0,1012.0,1021.0,1023.0,1024.0,1022.0,1023.0,1026.0,1023.0,1024.0,1012.0,1021.0,1021.0,1022.0,1023.0,1026.0,1022.0,1023.0,1012.0,1021.0,1022.0,1023.0,1026.0,1023.0,1024.0,1012.0,1022.0,1022.0,1023.0,1026.0,1023.0,1023.0,1012.0,1021.0,1022.0,1023.0,1026.0,1023.0,1024.0,1013.0,1022.0,1022.0,1025.0,1022.0,1022.0,1012.0,1022.0,1024.0,1027.0,1024.0,1025.0,1014.0,1023.0,1025.0,1029.0,1027.0,1028.0,1016.0,1022.0,1024.0,1027.0,1025.0,1025.0,1014.0,1023.0,1026.0,1030.0,1028.0,1027.0,1015.0,1024.0,1029.0,1032.0,1031.0,1032.0,1018.0,1025.0,1030.0,1034.0,1030.0,1030.0,1018.0,1027.0,1032.0,1037.0,1031.0,1031.0,1021.0,1032.0,1034.0,1041.0,1032.0,1031.0,1024.0,1034.0,1037.0,1048.0,1035.0,1032.0,1031.0,1031.0,1033.0,1045.0,1032.0,1027.0,1030.0,1033.0,1033.0,1056.0,1036.0,1029.0,1091.0,1031.0,1032.0,1054.0,1035.0,1029.0,2325,2257,1901,	00:29:35.717,-0.01025390625,0.0751953125,1.0185546875,-0.06103515625,0.42724609375,0.18310546875,4.2572021484375,0.6317138671875,-73.2623291015625,93.0,-677.0,-4019.0,-0.801788330078125,-0.033111572265625,0.017730712890625,0.596405029296875,4.2586045925423015,0.6341460815326736,-77.47069478496925,-0.7793653332146246,-0.0324422689672191,0.018934543814009754,0.6254427708576311,1,	00:29:35.718,0.02783203125,0.02783203125,1.02099609375,-0.18310546875,0.18310546875,0.42724609375,1.5655517578125,-1.60400390625,47.2576904296875,-10.0,622.0,-1846.0,0.915924072265625,0.01812744140625,-0.007354736328125,0.40087890625,1.5663547559648352,-1.6050582604539387,40.752549082488926,0.9371800690870299,0.01768836458678219,-0.008369944237830555,0.34829668947282655,1
1782117284.854490,0.332,1017.0,1023.0,1022.0,1020.0,1021.0,1024.0,1022.0,1021.0,1011.0,1020.0,1021.0,1024.0,1021.0,1022.0,1010.0,1020.0,1020.0,1022.0,1024.0,1022.0,1022.0,1010.0,1020.0,1021.0,1021.0,1022.0,1025.0,1022.0,1021.0,1010.0,1020.0,1020.0,1020.0,1020.0,1021.0,1024.0,1022.0,1022.0,1010.0,1020.0,1021.0,1021.0,1021.0,1022.0,1024.0,1022.0,1022.0,1010.0,1020.0,1020.0,1020.0,1018.0,1021.0,1021.0,1024.0,1022.0,1022.0,1010.0,1020.0,1020.0,1020.0,1019.0,1021.0,1022.0,1025.0,1023.0,1022.0,1010.0,1021.0,1021.0,1022.0,1020.0,1021.0,1022.0,1025.0,1022.0,1022.0,1011.0,1020.0,1021.0,1021.0,1020.0,1021.0,1022.0,1025.0,1023.0,1023.0,1010.0,1021.0,1021.0,1021.0,1019.0,1022.0,1022.0,1025.0,1022.0,1022.0,1011.0,1021.0,1021.0,1021.0,1019.0,1021.0,1022.0,1025.0,1022.0,1023.0,1011.0,1021.0,1020.0,1021.0,1020.0,1022.0,1023.0,1025.0,1023.0,1024.0,1012.0,1021.0,1023.0,1024.0,1022.0,1022.0,1027.0,1023.0,1024.0,1011.0,1021.0,1022.0,1021.0,1022.0,1026.0,1023.0,1023.0,1012.0,1021.0,1022.0,1023.0,1026.0,1023.0,1024.0,1012.0,1022.0,1022.0,1023.0,1026.0,1024.0,1024.0,1012.0,1021.0,1022.0,1023.0,1026.0,1023.0,1025.0,1012.0,1022.0,1023.0,1026.0,1023.0,1022.0,1011.0,1022.0,1024.0,1027.0,1024.0,1025.0,1013.0,1023.0,1025.0,1029.0,1027.0,1029.0,1015.0,1022.0,1025.0,1028.0,1025.0,1025.0,1014.0,1023.0,1026.0,1030.0,1028.0,1027.0,1015.0,1025.0,1029.0,1033.0,1031.0,1032.0,1018.0,1025.0,1029.0,1033.0,1030.0,1031.0,1018.0,1028.0,1032.0,1037.0,1030.0,1031.0,1021.0,1033.0,1034.0,1041.0,1031.0,1030.0,1024.0,1035.0,1037.0,1048.0,1035.0,1032.0,1031.0,1031.0,1033.0,1046.0,1033.0,1027.0,1030.0,1034.0,1034.0,1056.0,1036.0,1029.0,1090.0,1031.0,1033.0,1054.0,1035.0,1028.0,2325,2257,1902,	00:29:35.727,-0.01123046875,0.07568359375,1.01953125,-0.06103515625,0.3662109375,0.1220703125,4.1748046875,0.604248046875,-73.2623291015625,92.0,-674.0,-4013.0,-0.80181884765625,-0.032379150390625,0.017486572265625,0.596405029296875,4.1720859881723324,0.6064419335115947,-77.47013540579195,-0.7793991853038044,-0.03170277844579662,0.01865065260749771,0.625447037680967,1,	00:29:35.728,0.02685546875,0.02685546875,1.021484375,-0.1220703125,0.1220703125,0.42724609375,1.51611328125,-1.527099609375,47.26318359375,-11.0,618.0,-1847.0,0.915924072265625,0.0174560546875,-0.00689697265625,0.40093994140625,1.5175263433323747,-1.525603204721688,40.75815139921352,0.9371825670480193,0.01704814631886003,-0.007867607070988405,0.3483336008589355,1
1782117284.864956,0.342,1018.0,1024.0,1022.0,1020.0,1022.0,1024.0,1022.0,1021.0,1010.0,1020.0,1022.0,1025.0,1022.0,1022.0,1010.0,1020.0,1020.0,1022.0,1024.0,1022.0,1022.0,1011.0,1020.0,1020.0,1021.0,1022.0,1024.0,1022.0,1021.0,1010.0,1020.0,1020.0,1020.0,1021.0,1022.0,1024.0,1022.0,1021.0,1010.0,1020.0,1020.0,1020.0,1021.0,1022.0,1024.0,1022.0,1022.0,1010.0,1020.0,1020.0,1020.0,1018.0,1021.0,1021.0,1024.0,1022.0,1021.0,1010.0,1020.0,1020.0,1020.0,1019.0,1022.0,1021.0,1026.0,1022.0,1023.0,1011.0,1020.0,1021.0,1021.0,1020.0,1021.0,1022.0,1025.0,1022.0,1023.0,1010.0,1020.0,1022.0,1021.0,1020.0,1021.0,1022.0,1025.0,1022.0,1022.0,1011.0,1021.0,1021.0,1021.0,1020.0,1021.0,1022.0,1025.0,1022.0,1022.0,1011.0,1021.0,1020.0,1020.0,1019.0,1021.0,1022.0,1025.0,1022.0,1022.0,1011.0,1020.0,1021.0,1021.0,1019.0,1022.0,1022.0,1026.0,1023.0,1025.0,1012.0,1022.0,1023.0,1024.0,1022.0,1023.0,1026.0,1023.0,1024.0,1012.0,1021.0,1022.0,1022.0,1022.0,1025.0,1023.0,1023.0,1012.0,1020.0,1022.0,1023.0,1026.0,1024.0,1024.0,1012.0,1021.0,1022.0,1023.0,1026.0,1023.0,1024.0,1012.0,1021.0,1021.0,1023.0,1027.0,1023.0,1024.0,1012.0,1022.0,1023.0,1026.0,1023.0,1022.0,1011.0,1022.0,1024.0,1027.0,1024.0,1025.0,1013.0,1023.0,1026.0,1029.0,1028.0,1028.0,1015.0,1022.0,1024.0,1028.0,1025.0,1025.0,1014.0,1024.0,1027.0,1030.0,1028.0,1027.0,1015.0,1025.0,1029.0,1033.0,1031.0,1032.0,1017.0,1025.0,1029.0,1034.0,1029.0,1030.0,1018.0,1028.0,1032.0,1037.0,1030.0,1032.0,1021.0,1032.0,1034.0,1041.0,1032.0,1031.0,1024.0,1035.0,1036.0,1049.0,1035.0,1032.0,1031.0,1031.0,1033.0,1046.0,1033.0,1028.0,1030.0,1033.0,1033.0,1058.0,1036.0,1030.0,1091.0,1031.0,1033.0,1055.0,1035.0,1029.0,2325,2257,1902,	00:29:35.737,-0.01025390625,0.0751953125,1.01953125,-0.06103515625,0.3662109375,0.18310546875,4.2462158203125,0.560302734375,-73.2623291015625,92.0,-673.0,-4018.0,-0.801849365234375,-0.032623291015625,0.0181884765625,0.59637451171875,4.246877436445498,0.5580243833856106,-77.4672765147192,-0.7794054000562223,-0.03194781839184022,0.01938747451491427,0.6254044172334695,1,	00:29:35.738,0.02783203125,0.02880859375,1.0205078125,-0.1220703125,0.1220703125,0.42724609375,1.60400390625,-1.5545654296875,47.26318359375,-11.0,621.0,-1845.0,0.9158935546875,0.01824951171875,-0.0068359375,0.40093994140625,1.6023682175520835,-1.555684427317013,40.7601394835298,0.9371590582579429,0.01783350350754382,-0.007855443044864028,0.3483578012508128,1
1782117284.875652,0.353,1018.0,1024.0,1021.0,1020.0,1021.0,1024.0,1022.0,1021.0,1011.0,1020.0,1021.0,1024.0,1022.0,1022.0,1010.0,1019.0,1020.0,1021.0,1025.0,1022.0,1022.0,1011.0,1020.0,1021.0,1020.0,1021.0,1025.0,1022.0,1021.0,1011.0,1020.0,1020.0,1020.0,1021.0,1021.0,1025.0,1022.0,1021.0,1010.0,1020.0,1020.0,1021.0,1021.0,1021.0,1025.0,1022.0,1022.0,1010.0,1020.0,1020.0,1020.0,1019.0,1021.0,1022.0,1024.0,1021.0,1022.0,1010.0,1020.0,1020.0,1020.0,1018.0,1021.0,1022.0,1025.0,1022.0,1023.0,1011.0,1021.0,1021.0,1021.0,1020.0,1021.0,1022.0,1025.0,1022.0,1022.0,1011.0,1021.0,1021.0,1021.0,1020.0,1022.0,1022.0,1025.0,1022.0,1022.0,1011.0,1021.0,1021.0,1021.0,1019.0,1021.0,1022.0,1025.0,1022.0,1022.0,1011.0,1021.0,1021.0,1021.0,1020.0,1021.0,1022.0,1025.0,1022.0,1022.0,1010.0,1020.0,1021.0,1020.0,1019.0,1022.0,1023.0,1026.0,1023.0,1024.0,1012.0,1022.0,1023.0,1024.0,1022.0,1023.0,1026.0,1023.0,1024.0,1011.0,1021.0,1021.0,1022.0,1023.0,1026.0,1023.0,1023.0,1011.0,1021.0,1022.0,1023.0,1026.0,1023.0,1024.0,1012.0,1021.0,1022.0,1023.0,1026.0,1023.0,1023.0,1012.0,1021.0,1022.0,1023.0,1026.0,1024.0,1024.0,1012.0,1021.0,1023.0,1026.0,1023.0,1021.0,1011.0,1023.0,1024.0,1028.0,1024.0,1025.0,1013.0,1024.0,1025.0,1030.0,1027.0,1028.0,1015.0,1022.0,1025.0,1028.0,1026.0,1025.0,1014.0,1023.0,1027.0,1029.0,1028.0,1026.0,1015.0,1025.0,1030.0,1032.0,1031.0,1031.0,1018.0,1026.0,1029.0,1034.0,1030.0,1030.0,1019.0,1028.0,1033.0,1037.0,1030.0,1031.0,1021.0,1033.0,1034.0,1041.0,1031.0,1031.0,1025.0,1034.0,1037.0,1049.0,1036.0,1031.0,1031.0,1031.0,1033.0,1046.0,1033.0,1028.0,1030.0,1033.0,1034.0,1057.0,1036.0,1029.0,1091.0,1031.0,1033.0,1055.0,1035.0,1029.0,2325,2257,1902,	00:29:35.747,-0.0107421875,0.0751953125,1.01904296875,-0.1220703125,0.30517578125,0.1220703125,4.19677734375,0.63720703125,-73.2568359375,93.0,-676.0,-4019.0,-0.801849365234375,-0.03271484375,0.017364501953125,0.596405029296875,4.198414103769301,0.6394882178907109,-77.46632775888179,-0.7794048310718293,-0.03206274503046503,0.01856845275847316,0.6254240979088997,1,	00:29:35.749,0.02734375,0.0283203125,1.021484375,-0.1220703125,0.1220703125,0.42724609375,1.5545654296875,-1.4776611328125,47.2686767578125,-11.0,618.0,-1848.0,0.9158935546875,0.017578125,-0.006378173828125,0.4010009765625,1.5525971638460383,-1.4768125791506355,40.76572677472769,0.937161512892088,0.017187285915472104,-0.007360778632424895,0.3483944817223673,1
1782117284.886743,0.364,1018.0,1024.0,1022.0,1020.0,1022.0,1024.0,1021.0,1021.0,1010.0,1021.0,1021.0,1024.0,1022.0,1022.0,1010.0,1020.0,1021.0,1022.0,1025.0,1022.0,1022.0,1010.0,1020.0,1021.0,1020.0,1021.0,1025.0,1022.0,1022.0,1010.0,1020.0,1020.0,1020.0,1021.0,1021.0,1025.0,1022.0,1021.0,1010.0,1020.0,1020.0,1020.0,1021.0,1022.0,1025.0,1022.0,1022.0,1010.0,1021.0,1020.0,1021.0,1018.0,1021.0,1022.0,1024.0,1022.0,1022.0,1010.0,1020.0,1019.0,1020.0,1019.0,1021.0,1022.0,1026.0,1022.0,1022.0,1011.0,1021.0,1021.0,1022.0,1020.0,1021.0,1022.0,1025.0,1023.0,1023.0,1011.0,1020.0,1021.0,1021.0,1020.0,1021.0,1022.0,1025.0,1022.0,1022.0,1011.0,1021.0,1020.0,1021.0,1020.0,1022.0,1022.0,1025.0,1022.0,1022.0,1011.0,1020.0,1020.0,1021.0,1019.0,1022.0,1022.0,1025.0,1023.0,1022.0,1010.0,1020.0,1021.0,1021.0,1019.0,1022.0,1022.0,1026.0,1023.0,1024.0,1011.0,1021.0,1023.0,1024.0,1022.0,1022.0,1027.0,1023.0,1024.0,1012.0,1021.0,1022.0,1022.0,1022.0,1026.0,1023.0,1023.0,1011.0,1021.0,1022.0,1022.0,1026.0,1024.0,1024.0,1012.0,1022.0,1022.0,1022.0,1026.0,1023.0,1024.0,1012.0,1021.0,1022.0,1023.0,1026.0,1024.0,1025.0,1012.0,1021.0,1022.0,1026.0,1023.0,1021.0,1011.0,1022.0,1024.0,1027.0,1024.0,1025.0,1013.0,1023.0,1026.0,1030.0,1028.0,1028.0,1015.0,1022.0,1025.0,1028.0,1026.0,1025.0,1014.0,1024.0,1026.0,1029.0,1028.0,1027.0,1015.0,1025.0,1030.0,1033.0,1032.0,1032.0,1018.0,1025.0,1030.0,1033.0,1030.0,1030.0,1018.0,1028.0,1032.0,1037.0,1031.0,1031.0,1021.0,1033.0,1034.0,1040.0,1031.0,1031.0,1025.0,1035.0,1037.0,1049.0,1036.0,1032.0,1032.0,1031.0,1033.0,1046.0,1033.0,1028.0,1030.0,1034.0,1033.0,1057.0,1037.0,1029.0,1092.0,1031.0,1033.0,1055.0,1036.0,1028.0,2325,2256,1901,	00:29:35.758,-0.01123046875,0.0751953125,1.01904296875,-0.1220703125,0.3662109375,0.1220703125,4.2791748046875,0.604248046875,-73.2568359375,93.0,-673.0,-4017.0,-0.80181884765625,-0.033111572265625,0.018035888671875,0.596343994140625,4.28067333753378,0.6055616173117179,-77.46393503092321,-0.7794028447713656,-0.03243756460349346,0.01924755392963623,0.6253867136681294,1,	00:29:35.759,0.02734375,0.02880859375,1.0205078125,-0.1220703125,0.1220703125,0.42724609375,1.6204833984375,-1.5380859375,47.2686767578125,-11.0,621.0,-1846.0,0.915863037109375,0.018310546875,-0.006622314453125,0.401031494140625,1.619664825228499,-1.5366714755439115,40.76823420764921,0.9371346604383903,0.017917759502495655,-0.007646081051173213,0.3484237643215403,1
1782117284.895572,0.373,1017.0,1024.0,1022.0,1020.0,1022.0,1024.0,1022.0,1021.0,1010.0,1020.0,1021.0,1024.0,1022.0,1021.0,1010.0,1020.0,1021.0,1021.0,1024.0,1022.0,1022.0,1010.0,1020.0,1020.0,1021.0,1021.0,1024.0,1022.0,1022.0,1010.0,1020.0,1020.0,1020.0,1021.0,1021.0,1024.0,1022.0,1022.0,1011.0,1020.0,1020.0,1021.0,1021.0,1022.0,1024.0,1022.0,1021.0,1010.0,1020.0,1020.0,1020.0,1018.0,1021.0,1021.0,1025.0,1022.0,1021.0,1010.0,1020.0,1020.0,1020.0,1018.0,1022.0,1022.0,1025.0,1023.0,1022.0,1011.0,1020.0,1021.0,1022.0,1020.0,1021.0,1022.0,1025.0,1023.0,1023.0,1011.0,1020.0,1021.0,1021.0,1020.0,1021.0,1022.0,1025.0,1022.0,1022.0,1011.0,1020.0,1021.0,1022.0,1019.0,1021.0,1021.0,1025.0,1022.0,1022.0,1010.0,1021.0,1021.0,1021.0,1019.0,1021.0,1022.0,1025.0,1022.0,1022.0,1011.0,1021.0,1021.0,1021.0,1019.0,1022.0,1022.0,1026.0,1023.0,1024.0,1012.0,1021.0,1023.0,1024.0,1022.0,1022.0,1026.0,1023.0,1024.0,1012.0,1021.0,1021.0,1022.0,1023.0,1026.0,1023.0,1023.0,1011.0,1020.0,1022.0,1023.0,1027.0,1023.0,1024.0,1012.0,1021.0,1022.0,1023.0,1027.0,1023.0,1023.0,1012.0,1021.0,1022.0,1023.0,1026.0,1024.0,1024.0,1012.0,1022.0,1022.0,1026.0,1023.0,1022.0,1011.0,1023.0,1024.0,1028.0,1025.0,1025.0,1013.0,1023.0,1025.0,1029.0,1028.0,1028.0,1016.0,1022.0,1024.0,1028.0,1027.0,1025.0,1014.0,1023.0,1026.0,1029.0,1029.0,1027.0,1015.0,1025.0,1029.0,1033.0,1032.0,1031.0,1018.0,1025.0,1029.0,1034.0,1031.0,1030.0,1018.0,1027.0,1032.0,1037.0,1031.0,1030.0,1021.0,1033.0,1035.0,1042.0,1032.0,1030.0,1025.0,1034.0,1037.0,1049.0,1036.0,1032.0,1032.0,1032.0,1033.0,1046.0,1033.0,1027.0,1030.0,1033.0,1034.0,1058.0,1037.0,1029.0,1091.0,1031.0,1033.0,1055.0,1036.0,1028.0,2325,2256,1902,	00:29:35.768,-0.01025390625,0.07568359375,1.02001953125,-0.06103515625,0.30517578125,0.1220703125,4.207763671875,0.54931640625,-73.2568359375,92.0,-674.0,-4014.0,-0.8018798828125,-0.0323486328125,0.01806640625,0.596343994140625,4.20995707478885,0.5497423108905525,-77.46319644298615,-0.7794398536460353,-0.03165220320138352,0.019241195075199464,0.6253810270489691,1,	00:29:35.769,0.02685546875,0.02685546875,1.021484375,-0.18310546875,0.18310546875,0.42724609375,1.527099609375,-1.5106201171875,47.2796630859375,-12.0,622.0,-1845.0,0.915863037109375,0.01751708984375,-0.0067138671875,0.40106201171875,1.5293349392950197,-1.5107024068625845,40.77490806777933,0.937132077605631,0.017100597444050465,-0.007707329399635501,0.3484704230822691,1
1782117284.906432,0.384,1018.0,1024.0,1022.0,1020.0,1022.0,1025.0,1022.0,1021.0,1010.0,1021.0,1021.0,1024.0,1023.0,1021.0,1010.0,1020.0,1021.0,1021.0,1025.0,1023.0,1022.0,1010.0,1020.0,1021.0,1020.0,1021.0,1025.0,1022.0,1021.0,1010.0,1020.0,1020.0,1020.0,1021.0,1022.0,1025.0,1022.0,1022.0,1010.0,1020.0,1021.0,1021.0,1021.0,1022.0,1025.0,1022.0,1021.0,1010.0,1020.0,1020.0,1020.0,1018.0,1021.0,1021.0,1025.0,1023.0,1021.0,1010.0,1020.0,1020.0,1021.0,1019.0,1021.0,1022.0,1025.0,1023.0,1022.0,1011.0,1021.0,1021.0,1021.0,1020.0,1022.0,1022.0,1025.0,1023.0,1022.0,1010.0,1020.0,1021.0,1021.0,1020.0,1021.0,1022.0,1025.0,1022.0,1022.0,1011.0,1020.0,1021.0,1021.0,1020.0,1021.0,1022.0,1025.0,1022.0,1022.0,1011.0,1021.0,1020.0,1021.0,1019.0,1021.0,1022.0,1025.0,1023.0,1022.0,1011.0,1020.0,1020.0,1021.0,1019.0,1022.0,1023.0,1026.0,1023.0,1024.0,1011.0,1022.0,1023.0,1024.0,1022.0,1022.0,1026.0,1023.0,1023.0,1011.0,1021.0,1022.0,1022.0,1023.0,1026.0,1024.0,1023.0,1011.0,1021.0,1022.0,1023.0,1027.0,1024.0,1024.0,1012.0,1021.0,1022.0,1022.0,1027.0,1024.0,1023.0,1012.0,1022.0,1022.0,1023.0,1026.0,1024.0,1024.0,1012.0,1022.0,1022.0,1026.0,1023.0,1021.0,1011.0,1023.0,1023.0,1028.0,1025.0,1025.0,1013.0,1023.0,1025.0,1030.0,1028.0,1027.0,1015.0,1022.0,1024.0,1029.0,1026.0,1024.0,1014.0,1024.0,1027.0,1030.0,1029.0,1026.0,1015.0,1025.0,1030.0,1033.0,1032.0,1031.0,1017.0,1026.0,1029.0,1034.0,1031.0,1030.0,1018.0,1028.0,1032.0,1038.0,1032.0,1031.0,1021.0,1034.0,1034.0,1042.0,1032.0,1031.0,1025.0,1035.0,1037.0,1049.0,1036.0,1032.0,1031.0,1032.0,1033.0,1047.0,1034.0,1028.0,1031.0,1034.0,1033.0,1058.0,1037.0,1029.0,1091.0,1032.0,1032.0,1056.0,1036.0,1029.0,2325,2256,1902,	00:29:35.778,-0.0107421875,0.07568359375,1.01953125,-0.06103515625,0.30517578125,0.18310546875,4.2626953125,0.626220703125,-73.2513427734375,92.0,-676.0,-4014.0,-0.801849365234375,-0.033111572265625,0.017791748046875,0.596343994140625,4.260844308572758,0.6283702344908068,-77.46061745271417,-0.7794210869300191,-0.03242766283186231,0.01898321243695452,0.6253725718143258,1,	00:29:35.779,0.02734375,0.02734375,1.0205078125,-0.1220703125,0.18310546875,0.42724609375,1.549072265625,-1.5985107421875,47.2796630859375,-12.0,620.0,-1847.0,0.91583251953125,0.017974853515625,-0.007354736328125,0.401092529296875,1.5487972241171428,-1.598221200563199,40.77866612653377,0.9371044249595831,0.017525918005673963,-0.008363390883819277,0.34850852588158,1
1782117284.916444,0.394,1018.0,1025.0,1022.0,1020.0,1021.0,1025.0,1022.0,1021.0,1010.0,1021.0,1021.0,1024.0,1022.0,1021.0,1010.0,1020.0,1020.0,1022.0,1025.0,1022.0,1022.0,1010.0,1020.0,1021.0,1021.0,1021.0,1024.0,1022.0,1021.0,1010.0,1020.0,1020.0,1020.0,1021.0,1021.0,1025.0,1022.0,1021.0,1010.0,1020.0,1020.0,1020.0,1021.0,1021.0,1024.0,1022.0,1021.0,1010.0,1020.0,1020.0,1021.0,1019.0,1021.0,1021.0,1025.0,1022.0,1021.0,1010.0,1020.0,1020.0,1021.0,1019.0,1021.0,1022.0,1025.0,1023.0,1022.0,1010.0,1020.0,1021.0,1021.0,1020.0,1022.0,1022.0,1025.0,1022.0,1022.0,1011.0,1020.0,1022.0,1021.0,1020.0,1022.0,1021.0,1026.0,1022.0,1022.0,1010.0,1020.0,1021.0,1021.0,1020.0,1022.0,1022.0,1026.0,1023.0,1022.0,1010.0,1020.0,1021.0,1021.0,1019.0,1022.0,1021.0,1026.0,1022.0,1022.0,1010.0,1020.0,1020.0,1021.0,1019.0,1022.0,1022.0,1026.0,1023.0,1024.0,1012.0,1021.0,1023.0,1024.0,1022.0,1023.0,1026.0,1023.0,1024.0,1011.0,1021.0,1021.0,1022.0,1022.0,1026.0,1023.0,1022.0,1011.0,1021.0,1022.0,1023.0,1027.0,1024.0,1024.0,1012.0,1021.0,1022.0,1023.0,1027.0,1023.0,1023.0,1012.0,1021.0,1022.0,1023.0,1027.0,1024.0,1024.0,1012.0,1021.0,1022.0,1026.0,1023.0,1021.0,1011.0,1022.0,1024.0,1027.0,1025.0,1024.0,1013.0,1024.0,1026.0,1030.0,1028.0,1028.0,1015.0,1022.0,1024.0,1029.0,1026.0,1024.0,1013.0,1024.0,1026.0,1030.0,1028.0,1026.0,1015.0,1025.0,1029.0,1033.0,1031.0,1030.0,1017.0,1026.0,1029.0,1034.0,1030.0,1030.0,1018.0,1028.0,1032.0,1038.0,1031.0,1030.0,1021.0,1033.0,1034.0,1042.0,1032.0,1031.0,1025.0,1036.0,1037.0,1050.0,1035.0,1031.0,1032.0,1032.0,1033.0,1047.0,1033.0,1027.0,1030.0,1034.0,1034.0,1059.0,1036.0,1029.0,1091.0,1033.0,1033.0,1056.0,1035.0,1029.0,2325,2256,1901,	00:29:35.788,-0.0107421875,0.0751953125,1.02001953125,-0.1220703125,0.3662109375,0.18310546875,4.1802978515625,0.5877685546875,-73.2513427734375,91.0,-676.0,-4016.0,-0.8018798828125,-0.032318115234375,0.017669677734375,0.596343994140625,4.181086031988898,0.5850511969322808,-77.4593505488005,-0.7794605705376225,-0.031649070137140904,0.018842330973497634,0.6253675094695147,1,	00:29:35.790,0.02685546875,0.02783203125,1.0205078125,-0.1220703125,0.18310546875,0.42724609375,1.56005859375,-1.505126953125,47.28515625,-10.0,621.0,-1843.0,0.91583251953125,0.017730712890625,-0.006561279296875,0.401123046875,1.5607886761929637,-1.5058311367474277,40.7826260866966,0.9371046019522713,0.017343536811028726,-0.00757066840401755,0.3485352947847262,1
1782117284.926448,0.404,1018.0,1025.0,1022.0,1020.0,1022.0,1025.0,1022.0,1021.0,1010.0,1020.0,1022.0,1025.0,1022.0,1021.0,1010.0,1020.0,1021.0,1021.0,1025.0,1022.0,1022.0,1010.0,1021.0,1021.0,1020.0,1021.0,1025.0,1022.0,1021.0,1010.0,1020.0,1020.0,1020.0,1021.0,1021.0,1025.0,1022.0,1021.0,1010.0,1020.0,1020.0,1020.0,1021.0,1022.0,1025.0,1022.0,1021.0,1010.0,1020.0,1020.0,1020.0,1019.0,1021.0,1021.0,1025.0,1022.0,1021.0,1010.0,1020.0,1020.0,1021.0,1019.0,1022.0,1022.0,1025.0,1022.0,1022.0,1011.0,1021.0,1022.0,1022.0,1020.0,1022.0,1022.0,1025.0,1022.0,1022.0,1011.0,1020.0,1021.0,1021.0,1020.0,1022.0,1022.0,1026.0,1023.0,1022.0,1010.0,1020.0,1021.0,1021.0,1020.0,1021.0,1022.0,1025.0,1022.0,1022.0,1010.0,1020.0,1021.0,1021.0,1019.0,1021.0,1022.0,1025.0,1023.0,1021.0,1010.0,1021.0,1020.0,1021.0,1019.0,1022.0,1023.0,1026.0,1023.0,1024.0,1012.0,1022.0,1023.0,1024.0,1023.0,1023.0,1027.0,1022.0,1023.0,1012.0,1021.0,1021.0,1022.0,1022.0,1027.0,1022.0,1022.0,1011.0,1021.0,1022.0,1023.0,1027.0,1023.0,1024.0,1011.0,1021.0,1022.0,1023.0,1028.0,1024.0,1023.0,1012.0,1021.0,1022.0,1023.0,1027.0,1024.0,1024.0,1012.0,1022.0,1023.0,1027.0,1023.0,1021.0,1011.0,1023.0,1024.0,1028.0,1024.0,1024.0,1012.0,1024.0,1026.0,1030.0,1028.0,1028.0,1015.0,1022.0,1024.0,1028.0,1026.0,1025.0,1014.0,1024.0,1027.0,1030.0,1028.0,1026.0,1014.0,1025.0,1030.0,1033.0,1031.0,1031.0,1017.0,1026.0,1030.0,1034.0,1030.0,1030.0,1018.0,1028.0,1032.0,1038.0,1031.0,1032.0,1021.0,1034.0,1034.0,1042.0,1032.0,1030.0,1024.0,1035.0,1037.0,1050.0,1035.0,1031.0,1032.0,1032.0,1033.0,1046.0,1032.0,1028.0,1031.0,1034.0,1034.0,1058.0,1036.0,1030.0,1092.0,1032.0,1033.0,1056.0,1035.0,1029.0,2325,2256,1902,	00:29:35.799,-0.0107421875,0.0751953125,1.01953125,-0.06103515625,0.42724609375,0.18310546875,4.2626953125,0.626220703125,-73.2513427734375,88.0,-675.0,-4020.0,-0.8018798828125,-0.033111572265625,0.017791748046875,0.5963134765625,4.263652098877472,0.6272252209023961,-77.45633340722081,-0.7794439465592896,-0.03244122557499703,0.019005113484659737,0.6253427114124754,1,	00:29:35.800,0.02685546875,0.02685546875,1.02001953125,-0.1220703125,0.18310546875,0.48828125,1.4666748046875,-1.505126953125,47.2906494140625,-11.0,621.0,-1848.0,0.915802001953125,0.016998291015625,-0.00689697265625,0.40118408203125,1.4678169860733243,-1.5072687464559127,40.78996762313957,0.9370958231665284,0.0165881015047211,-0.007864138754950236,0.34858916852644517,1
1782117284.937446,0.415,1018.0,1024.0,1022.0,1020.0,1021.0,1025.0,1022.0,1021.0,1010.0,1021.0,1022.0,1024.0,1022.0,1021.0,1010.0,1020.0,1021.0,1021.0,1025.0,1022.0,1021.0,1010.0,1020.0,1020.0,1021.0,1022.0,1025.0,1022.0,1021.0,1010.0,1020.0,1020.0,1020.0,1021.0,1022.0,1025.0,1022.0,1021.0,1010.0,1020.0,1021.0,1021.0,1021.0,1022.0,1025.0,1022.0,1022.0,1010.0,1020.0,1020.0,1020.0,1019.0,1021.0,1021.0,1025.0,1022.0,1022.0,1010.0,1020.0,1020.0,1020.0,1018.0,1022.0,1021.0,1025.0,1022.0,1022.0,1011.0,1021.0,1021.0,1021.0,1020.0,1022.0,1022.0,1026.0,1022.0,1023.0,1011.0,1021.0,1021.0,1022.0,1020.0,1022.0,1021.0,1026.0,1022.0,1022.0,1011.0,1020.0,1021.0,1021.0,1020.0,1021.0,1022.0,1026.0,1022.0,1022.0,1011.0,1020.0,1020.0,1021.0,1019.0,1022.0,1022.0,1025.0,1022.0,1022.0,1011.0,1020.0,1021.0,1021.0,1019.0,1023.0,1022.0,1026.0,1023.0,1024.0,1012.0,1022.0,1023.0,1024.0,1022.0,1022.0,1027.0,1023.0,1024.0,1012.0,1021.0,1021.0,1022.0,1023.0,1027.0,1023.0,1023.0,1012.0,1020.0,1023.0,1023.0,1027.0,1023.0,1024.0,1012.0,1021.0,1022.0,1023.0,1027.0,1023.0,1023.0,1012.0,1021.0,1022.0,1022.0,1027.0,1024.0,1025.0,1012.0,1022.0,1022.0,1026.0,1023.0,1022.0,1012.0,1023.0,1023.0,1028.0,1024.0,1024.0,1013.0,1024.0,1025.0,1030.0,1027.0,1028.0,1015.0,1023.0,1024.0,1029.0,1026.0,1024.0,1014.0,1024.0,1027.0,1030.0,1028.0,1026.0,1016.0,1026.0,1030.0,1033.0,1031.0,1031.0,1018.0,1026.0,1029.0,1033.0,1030.0,1030.0,1018.0,1028.0,1032.0,1037.0,1030.0,1031.0,1022.0,1034.0,1034.0,1041.0,1032.0,1031.0,1025.0,1036.0,1037.0,1049.0,1035.0,1032.0,1032.0,1033.0,1033.0,1046.0,1033.0,1028.0,1031.0,1035.0,1034.0,1057.0,1036.0,1030.0,1091.0,1033.0,1032.0,1055.0,1035.0,1029.0,2325,2256,1902,	00:29:35.809,-0.0107421875,0.0751953125,1.01904296875,-0.1220703125,0.3662109375,0.1220703125,4.1802978515625,0.5877685546875,-73.245849609375,88.0,-676.0,-4019.0,-0.801910400390625,-0.0323486328125,0.017669677734375,0.5963134765625,4.183104178160222,0.5852966850702725,-77.45568274321222,-0.7794799717110943,-0.03166474019246233,0.01885066089137438,0.6253422826850701,1,	00:29:35.810,0.02783203125,0.02783203125,1.02099609375,-0.1220703125,0.244140625,0.42724609375,1.5435791015625,-1.549072265625,47.296142578125,-12.0,621.0,-1846.0,0.915802001953125,0.017791748046875,-0.006988525390625,0.401214599609375,1.546004634755748,-1.5504761127161955,40.792181388984915,0.9370710647814173,0.017358959943341194,-0.007979332414959581,0.3486155709564874,1
1782117284.947732,0.425,1018.0,1024.0,1022.0,1020.0,1021.0,1024.0,1022.0,1021.0,1010.0,1020.0,1022.0,1024.0,1021.0,1021.0,1010.0,1020.0,1021.0,1022.0,1025.0,1022.0,1022.0,1010.0,1020.0,1021.0,1021.0,1021.0,1025.0,1022.0,1021.0,1010.0,1020.0,1019.0,1020.0,1021.0,1022.0,1024.0,1022.0,1022.0,1010.0,1020.0,1021.0,1021.0,1021.0,1021.0,1025.0,1022.0,1022.0,1010.0,1020.0,1020.0,1020.0,1019.0,1021.0,1022.0,1024.0,1022.0,1021.0,1011.0,1020.0,1020.0,1020.0,1019.0,1022.0,1022.0,1024.0,1022.0,1023.0,1011.0,1021.0,1021.0,1021.0,1020.0,1022.0,1022.0,1024.0,1022.0,1023.0,1011.0,1020.0,1021.0,1021.0,1020.0,1021.0,1022.0,1025.0,1022.0,1022.0,1011.0,1020.0,1021.0,1021.0,1020.0,1022.0,1022.0,1025.0,1022.0,1023.0,1011.0,1020.0,1021.0,1020.0,1019.0,1021.0,1022.0,1025.0,1022.0,1022.0,1011.0,1020.0,1021.0,1021.0,1019.0,1023.0,1022.0,1026.0,1023.0,1024.0,1012.0,1022.0,1023.0,1024.0,1022.0,1022.0,1026.0,1023.0,1024.0,1012.0,1021.0,1022.0,1022.0,1023.0,1026.0,1023.0,1023.0,1012.0,1021.0,1022.0,1023.0,1027.0,1024.0,1024.0,1012.0,1021.0,1023.0,1023.0,1026.0,1023.0,1024.0,1012.0,1021.0,1022.0,1023.0,1026.0,1024.0,1025.0,1013.0,1022.0,1022.0,1026.0,1023.0,1022.0,1011.0,1023.0,1024.0,1027.0,1025.0,1025.0,1013.0,1024.0,1026.0,1029.0,1028.0,1027.0,1016.0,1023.0,1025.0,1028.0,1026.0,1025.0,1014.0,1024.0,1027.0,1030.0,1028.0,1026.0,1015.0,1026.0,1030.0,1033.0,1031.0,1031.0,1018.0,1026.0,1029.0,1033.0,1029.0,1030.0,1019.0,1029.0,1032.0,1036.0,1031.0,1031.0,1022.0,1034.0,1035.0,1041.0,1032.0,1031.0,1025.0,1036.0,1037.0,1049.0,1035.0,1032.0,1032.0,1032.0,1034.0,1046.0,1033.0,1028.0,1031.0,1034.0,1034.0,1057.0,1035.0,1030.0,1091.0,1032.0,1033.0,1055.0,1036.0,1029.0,2324,2256,1902,	00:29:35.819,-0.0107421875,0.076171875,1.02001953125,-0.1220703125,0.3662109375,0.18310546875,4.273681640625,0.604248046875,-73.245849609375,90.0,-674.0,-4022.0,-0.8018798828125,-0.033050537109375,0.01800537109375,0.596282958984375,4.271769472839068,0.6056381651852473,-77.45265573000782,-0.7794668979975219,-0.03237931133318449,0.019195252945053,0.6253115042825335,1,	00:29:35.820,0.02685546875,0.02880859375,1.02099609375,-0.1220703125,0.18310546875,0.42724609375,1.6204833984375,-1.4996337890625,47.296142578125,-10.0,618.0,-1845.0,0.915771484375,0.018218994140625,-0.006317138671875,0.401214599609375,1.6221928975231799,-1.4997989348650664,40.794439264715386,0.9370601448149336,0.017828111466671636,-0.00733272946068305,0.34863544644743766,1
1782117284.957731,0.435,1018.0,1024.0,1022.0,1020.0,1021.0,1024.0,1021.0,1021.0,1010.0,1021.0,1021.0,1024.0,1022.0,1021.0,1010.0,1020.0,1021.0,1022.0,1024.0,1021.0,1022.0,1010.0,1020.0,1020.0,1021.0,1022.0,1024.0,1022.0,1021.0,1010.0,1020.0,1020.0,1020.0,1021.0,1021.0,1024.0,1021.0,1022.0,1010.0,1020.0,1020.0,1021.0,1021.0,1022.0,1024.0,1022.0,1022.0,1010.0,1020.0,1020.0,1020.0,1019.0,1021.0,1022.0,1025.0,1022.0,1022.0,1010.0,1020.0,1020.0,1020.0,1018.0,1022.0,1022.0,1025.0,1022.0,1022.0,1011.0,1020.0,1021.0,1022.0,1020.0,1022.0,1022.0,1025.0,1022.0,1022.0,1011.0,1021.0,1021.0,1021.0,1020.0,1022.0,1022.0,1025.0,1022.0,1022.0,1011.0,1020.0,1021.0,1021.0,1020.0,1022.0,1022.0,1025.0,1023.0,1022.0,1010.0,1020.0,1021.0,1021.0,1019.0,1022.0,1022.0,1025.0,1022.0,1021.0,1011.0,1020.0,1020.0,1021.0,1019.0,1023.0,1023.0,1026.0,1024.0,1024.0,1012.0,1021.0,1024.0,1024.0,1022.0,1023.0,1026.0,1023.0,1024.0,1012.0,1021.0,1021.0,1023.0,1023.0,1026.0,1023.0,1023.0,1012.0,1021.0,1023.0,1023.0,1026.0,1024.0,1024.0,1012.0,1022.0,1023.0,1023.0,1026.0,1024.0,1023.0,1013.0,1021.0,1022.0,1023.0,1027.0,1024.0,1025.0,1013.0,1022.0,1023.0,1026.0,1023.0,1021.0,1011.0,1023.0,1023.0,1027.0,1024.0,1025.0,1013.0,1024.0,1025.0,1030.0,1028.0,1028.0,1015.0,1023.0,1024.0,1028.0,1026.0,1025.0,1014.0,1024.0,1026.0,1030.0,1028.0,1026.0,1015.0,1026.0,1029.0,1032.0,1031.0,1031.0,1018.0,1026.0,1029.0,1034.0,1030.0,1030.0,1018.0,1029.0,1032.0,1037.0,1031.0,1031.0,1021.0,1034.0,1034.0,1041.0,1032.0,1030.0,1025.0,1036.0,1037.0,1049.0,1036.0,1032.0,1033.0,1032.0,1033.0,1046.0,1033.0,1028.0,1031.0,1035.0,1034.0,1057.0,1036.0,1029.0,1091.0,1033.0,1033.0,1055.0,1035.0,1029.0,2324,2256,1901,	00:29:35.829,-0.009765625,0.07421875,1.01904296875,-0.1220703125,0.3662109375,0.1220703125,4.1912841796875,0.5657958984375,-73.245849609375,91.0,-673.0,-4018.0,-0.80194091796875,-0.03228759765625,0.017852783203125,0.596282958984375,4.190314102771141,0.5653359290568122,-77.45198508460982,-0.7795028217983743,-0.03160551954090612,0.019024804623330883,0.6253115213651236,1,	00:29:35.830,0.02734375,0.02783203125,1.02099609375,-0.1220703125,0.18310546875,0.42724609375,1.5380859375,-1.5435791015625,47.3016357421875,-12.0,621.0,-1845.0,0.915771484375,0.0177001953125,-0.006927490234375,0.401275634765625,1.5407028324653604,-1.5426139364542253,40.80089177134233,0.9370465544425768,0.01729231203518474,-0.007929845756197595,0.3486858877242608,1
1782117284.967732,0.445,1018.0,1024.0,1022.0,1020.0,1021.0,1024.0,1022.0,1021.0,1010.0,1022.0,1022.0,1024.0,1022.0,1021.0,1010.0,1020.0,1021.0,1022.0,1025.0,1022.0,1022.0,1010.0,1020.0,1021.0,1021.0,1021.0,1024.0,1022.0,1021.0,1010.0,1020.0,1021.0,1020.0,1021.0,1022.0,1025.0,1022.0,1021.0,1011.0,1020.0,1020.0,1021.0,1021.0,1022.0,1025.0,1022.0,1021.0,1010.0,1020.0,1020.0,1020.0,1018.0,1021.0,1022.0,1024.0,1022.0,1021.0,1010.0,1020.0,1020.0,1021.0,1019.0,1022.0,1022.0,1025.0,1022.0,1022.0,1011.0,1020.0,1021.0,1022.0,1020.0,1021.0,1022.0,1025.0,1022.0,1022.0,1010.0,1021.0,1021.0,1022.0,1020.0,1022.0,1022.0,1025.0,1022.0,1022.0,1011.0,1020.0,1021.0,1022.0,1019.0,1021.0,1022.0,1025.0,1022.0,1022.0,1011.0,1020.0,1020.0,1021.0,1019.0,1022.0,1022.0,1025.0,1023.0,1022.0,1011.0,1021.0,1020.0,1021.0,1019.0,1023.0,1022.0,1026.0,1023.0,1024.0,1012.0,1021.0,1023.0,1024.0,1022.0,1023.0,1026.0,1023.0,1024.0,1012.0,1021.0,1022.0,1022.0,1022.0,1026.0,1023.0,1022.0,1012.0,1021.0,1022.0,1023.0,1027.0,1024.0,1024.0,1012.0,1021.0,1022.0,1022.0,1027.0,1023.0,1023.0,1013.0,1021.0,1022.0,1023.0,1027.0,1024.0,1024.0,1013.0,1022.0,1022.0,1026.0,1023.0,1021.0,1012.0,1023.0,1024.0,1028.0,1024.0,1024.0,1013.0,1024.0,1026.0,1030.0,1028.0,1027.0,1015.0,1022.0,1024.0,1028.0,1026.0,1024.0,1014.0,1024.0,1026.0,1030.0,1028.0,1026.0,1015.0,1026.0,1029.0,1033.0,1031.0,1032.0,1018.0,1026.0,1029.0,1034.0,1030.0,1030.0,1018.0,1029.0,1032.0,1037.0,1031.0,1031.0,1021.0,1034.0,1034.0,1041.0,1032.0,1031.0,1025.0,1036.0,1037.0,1049.0,1035.0,1032.0,1033.0,1033.0,1033.0,1046.0,1033.0,1028.0,1031.0,1036.0,1033.0,1056.0,1036.0,1029.0,1091.0,1033.0,1033.0,1055.0,1036.0,1029.0,2324,2256,1902,	00:29:35.840,-0.01025390625,0.07568359375,1.01904296875,-0.1220703125,0.3662109375,0.18310546875,4.2791748046875,0.582275390625,-73.2403564453125,88.0,-673.0,-4016.0,-0.801910400390625,-0.032989501953125,0.0181884765625,0.59625244140625,4.2792812088977525,0.5839652504072704,-77.44898723220261,-0.7794899745225627,-0.0323128191707257,0.019382677018636583,0.625280395636746,1,	00:29:35.841,0.0263671875,0.02783203125,1.02099609375,-0.1220703125,0.18310546875,0.42724609375,1.5655517578125,-1.4556884765625,47.30712890625,-11.0,617.0,-1847.0,0.915771484375,0.017608642578125,-0.006134033203125,0.40130615234375,1.56773847134024,-1.4537361406726839,40.804470701147416,0.9370447596052404,0.01724343028351092,-0.007120164616673122,0.3487106047487608,1
1782117284.978739,0.456,1018.0,1024.0,1022.0,1020.0,1022.0,1024.0,1022.0,1021.0,1010.0,1021.0,1021.0,1024.0,1022.0,1021.0,1011.0,1020.0,1021.0,1021.0,1024.0,1022.0,1022.0,1010.0,1020.0,1021.0,1021.0,1022.0,1025.0,1022.0,1021.0,1010.0,1020.0,1020.0,1020.0,1021.0,1022.0,1024.0,1023.0,1021.0,1010.0,1020.0,1021.0,1021.0,1021.0,1022.0,1024.0,1022.0,1021.0,1011.0,1020.0,1020.0,1020.0,1019.0,1022.0,1021.0,1024.0,1022.0,1022.0,1010.0,1020.0,1020.0,1020.0,1019.0,1022.0,1022.0,1025.0,1022.0,1022.0,1012.0,1020.0,1021.0,1022.0,1020.0,1021.0,1022.0,1025.0,1023.0,1022.0,1011.0,1020.0,1021.0,1022.0,1020.0,1021.0,1021.0,1025.0,1023.0,1022.0,1012.0,1020.0,1021.0,1021.0,1020.0,1022.0,1022.0,1024.0,1023.0,1022.0,1011.0,1021.0,1021.0,1021.0,1019.0,1022.0,1022.0,1025.0,1023.0,1022.0,1011.0,1021.0,1021.0,1021.0,1019.0,1023.0,1022.0,1026.0,1023.0,1024.0,1013.0,1022.0,1023.0,1024.0,1022.0,1023.0,1026.0,1024.0,1023.0,1012.0,1021.0,1021.0,1022.0,1022.0,1026.0,1023.0,1022.0,1012.0,1020.0,1022.0,1022.0,1026.0,1024.0,1023.0,1013.0,1022.0,1022.0,1023.0,1026.0,1024.0,1024.0,1013.0,1021.0,1023.0,1023.0,1026.0,1024.0,1024.0,1013.0,1022.0,1022.0,1025.0,1023.0,1020.0,1012.0,1023.0,1023.0,1027.0,1024.0,1025.0,1014.0,1023.0,1025.0,1030.0,1028.0,1028.0,1017.0,1023.0,1024.0,1028.0,1026.0,1025.0,1015.0,1024.0,1026.0,1030.0,1028.0,1026.0,1016.0,1026.0,1029.0,1032.0,1030.0,1031.0,1018.0,1026.0,1029.0,1034.0,1030.0,1030.0,1019.0,1028.0,1031.0,1037.0,1030.0,1030.0,1022.0,1033.0,1033.0,1040.0,1032.0,1030.0,1026.0,1036.0,1036.0,1048.0,1035.0,1032.0,1033.0,1032.0,1032.0,1046.0,1033.0,1027.0,1032.0,1034.0,1033.0,1057.0,1036.0,1030.0,1092.0,1032.0,1032.0,1055.0,1035.0,1029.0,2324,2255,1902,	00:29:35.850,-0.01025390625,0.0751953125,1.01806640625,-0.1220703125,0.3662109375,0.18310546875,4.185791015625,0.5712890625,-73.2403564453125,88.0,-675.0,-4020.0,-0.80194091796875,-0.032318115234375,0.017791748046875,0.59625244140625,4.187721715094757,0.5735709783948194,-77.44780042765524,-0.7795244502882394,-0.03163349447305184,0.018953468328227842,0.6252853104532141,1,	00:29:35.851,0.02734375,0.02783203125,1.02099609375,-0.06103515625,0.18310546875,0.42724609375,1.56005859375,-1.5435791015625,47.3126220703125,-10.0,624.0,-1846.0,0.915740966796875,0.01788330078125,-0.006866455078125,0.401336669921875,1.559846594821806,-1.5433887942770272,40.80898109071016,0.9370189180026607,0.017451767128609155,-0.007876699009834386,0.34875340964916796,1
1782117284.988267,0.465,1018.0,1024.0,1022.0,1020.0,1021.0,1024.0,1021.0,1021.0,1011.0,1020.0,1021.0,1024.0,1022.0,1021.0,1010.0,1020.0,1021.0,1021.0,1024.0,1022.0,1021.0,1011.0,1020.0,1021.0,1021.0,1021.0,1025.0,1022.0,1021.0,1011.0,1020.0,1020.0,1020.0,1021.0,1021.0,1024.0,1022.0,1021.0,1011.0,1020.0,1020.0,1021.0,1022.0,1021.0,1024.0,1022.0,1021.0,1010.0,1021.0,1020.0,1020.0,1019.0,1022.0,1021.0,1024.0,1022.0,1022.0,1010.0,1020.0,1020.0,1020.0,1019.0,1022.0,1021.0,1025.0,1022.0,1023.0,1011.0,1020.0,1021.0,1022.0,1021.0,1022.0,1021.0,1025.0,1022.0,1022.0,1011.0,1020.0,1021.0,1021.0,1020.0,1022.0,1022.0,1025.0,1022.0,1022.0,1011.0,1021.0,1021.0,1022.0,1020.0,1022.0,1022.0,1025.0,1022.0,1022.0,1012.0,1020.0,1021.0,1021.0,1019.0,1022.0,1022.0,1025.0,1022.0,1022.0,1012.0,1020.0,1021.0,1021.0,1020.0,1022.0,1022.0,1026.0,1023.0,1024.0,1012.0,1022.0,1023.0,1024.0,1022.0,1022.0,1026.0,1023.0,1024.0,1013.0,1021.0,1021.0,1022.0,1022.0,1026.0,1023.0,1023.0,1012.0,1021.0,1022.0,1022.0,1026.0,1023.0,1024.0,1013.0,1021.0,1023.0,1022.0,1026.0,1023.0,1024.0,1013.0,1021.0,1022.0,1022.0,1026.0,1024.0,1024.0,1013.0,1022.0,1023.0,1026.0,1023.0,1021.0,1011.0,1023.0,1023.0,1027.0,1024.0,1025.0,1014.0,1024.0,1025.0,1029.0,1027.0,1028.0,1016.0,1023.0,1024.0,1027.0,1025.0,1025.0,1015.0,1024.0,1026.0,1029.0,1028.0,1027.0,1015.0,1026.0,1029.0,1032.0,1030.0,1031.0,1018.0,1025.0,1028.0,1034.0,1029.0,1030.0,1019.0,1029.0,1031.0,1037.0,1030.0,1030.0,1022.0,1034.0,1033.0,1041.0,1031.0,1030.0,1025.0,1036.0,1036.0,1049.0,1034.0,1032.0,1032.0,1032.0,1032.0,1046.0,1032.0,1028.0,1031.0,1035.0,1033.0,1058.0,1034.0,1030.0,1091.0,1033.0,1032.0,1055.0,1035.0,1029.0,2324,2255,1901,	00:29:35.860,-0.01025390625,0.07470703125,1.0205078125,-0.18310546875,0.3662109375,0.1220703125,4.1143798828125,0.63720703125,-73.2403564453125,90.0,-673.0,-4017.0,-0.801971435546875,-0.032135009765625,0.0169677734375,0.596282958984375,4.111138869410272,0.6299637975492993,-77.44710156132835,-0.7795361737095703,-0.03142021311777539,0.01815164439418956,0.6253052389766642,1,	00:29:35.861,0.02734375,0.02783203125,1.02099609375,-0.06103515625,0.18310546875,0.48828125,1.5765380859375,-1.4501953125,47.318115234375,-10.0,619.0,-1846.0,0.91571044921875,0.017669677734375,-0.006072998046875,0.4013671875,1.5740678326447965,-1.4512678941293606,40.81352219020194,0.9370166174568322,0.017288242290503526,-0.007079352241914839,0.3487848306049107,1
1782117284.998739,0.476,1018.0,1024.0,1021.0,1020.0,1021.0,1024.0,1022.0,1022.0,1011.0,1021.0,1021.0,1025.0,1022.0,1021.0,1011.0,1020.0,1021.0,1021.0,1024.0,1022.0,1022.0,1011.0,1020.0,1020.0,1021.0,1021.0,1024.0,1022.0,1021.0,1011.0,1020.0,1020.0,1020.0,1021.0,1022.0,1024.0,1022.0,1022.0,1011.0,1020.0,1021.0,1020.0,1021.0,1021.0,1024.0,1022.0,1021.0,1011.0,1020.0,1020.0,1021.0,1018.0,1021.0,1022.0,1024.0,1022.0,1022.0,1011.0,1020.0,1020.0,1020.0,1018.0,1022.0,1021.0,1024.0,1022.0,1023.0,1011.0,1020.0,1021.0,1022.0,1020.0,1022.0,1022.0,1025.0,1022.0,1023.0,1012.0,1020.0,1021.0,1021.0,1020.0,1022.0,1021.0,1025.0,1022.0,1023.0,1011.0,1020.0,1021.0,1021.0,1020.0,1022.0,1021.0,1025.0,1022.0,1022.0,1012.0,1020.0,1020.0,1021.0,1019.0,1022.0,1022.0,1025.0,1022.0,1022.0,1011.0,1020.0,1021.0,1021.0,1019.0,1022.0,1022.0,1026.0,1022.0,1025.0,1013.0,1021.0,1024.0,1023.0,1022.0,1022.0,1026.0,1023.0,1024.0,1013.0,1021.0,1021.0,1022.0,1022.0,1026.0,1023.0,1022.0,1012.0,1021.0,1022.0,1022.0,1026.0,1023.0,1024.0,1013.0,1022.0,1022.0,1022.0,1026.0,1023.0,1024.0,1012.0,1022.0,1022.0,1022.0,1027.0,1023.0,1024.0,1013.0,1022.0,1022.0,1026.0,1023.0,1021.0,1012.0,1023.0,1023.0,1027.0,1024.0,1025.0,1014.0,1024.0,1024.0,1029.0,1027.0,1028.0,1016.0,1022.0,1024.0,1028.0,1026.0,1025.0,1015.0,1024.0,1026.0,1029.0,1028.0,1026.0,1015.0,1026.0,1029.0,1033.0,1030.0,1031.0,1018.0,1026.0,1028.0,1034.0,1030.0,1029.0,1019.0,1029.0,1031.0,1037.0,1030.0,1031.0,1022.0,1034.0,1033.0,1041.0,1031.0,1030.0,1025.0,1036.0,1036.0,1049.0,1034.0,1032.0,1032.0,1033.0,1031.0,1046.0,1032.0,1027.0,1031.0,1035.0,1033.0,1057.0,1035.0,1029.0,1092.0,1033.0,1031.0,1055.0,1034.0,1029.0,2323,2255,1902,	00:29:35.870,-0.009765625,0.07421875,1.01904296875,-0.1220703125,0.3662109375,0.18310546875,4.1583251953125,0.560302734375,-73.23486328125,89.0,-674.0,-4018.0,-0.801971435546875,-0.03204345703125,0.017730712890625,0.596221923828125,4.160481909140367,0.5570539215364192,-77.44448831272975,-0.7795538480439989,-0.03135865010616955,0.01891631665129756,0.6252636292218353,1,	00:29:35.871,0.02587890625,0.02783203125,1.02099609375,-0.1220703125,0.18310546875,0.42724609375,1.483154296875,-1.4501953125,47.3236083984375,-10.0,619.0,-1846.0,0.91571044921875,0.01690673828125,-0.00640869140625,0.40142822265625,1.481072785512166,-1.4505879867349714,40.82016583339122,0.9370102134182132,0.016526173916266436,-0.007355882444231717,0.34883325030608897,1
1782117285.008574,0.486,1018.0,1023.0,1022.0,1020.0,1021.0,1024.0,1022.0,1021.0,1011.0,1021.0,1021.0,1025.0,1022.0,1021.0,1011.0,1020.0,1020.0,1021.0,1025.0,1023.0,1022.0,1010.0,1020.0,1021.0,1021.0,1021.0,1024.0,1022.0,1021.0,1010.0,1019.0,1021.0,1020.0,1021.0,1021.0,1024.0,1022.0,1022.0,1011.0,1020.0,1020.0,1020.0,1021.0,1021.0,1024.0,1023.0,1022.0,1010.0,1020.0,1021.0,1020.0,1019.0,1021.0,1021.0,1025.0,1022.0,1021.0,1011.0,1020.0,1020.0,1020.0,1019.0,1021.0,1021.0,1025.0,1022.0,1023.0,1011.0,1020.0,1021.0,1021.0,1020.0,1022.0,1021.0,1025.0,1022.0,1023.0,1011.0,1020.0,1021.0,1022.0,1020.0,1021.0,1021.0,1025.0,1022.0,1023.0,1012.0,1021.0,1021.0,1021.0,1020.0,1022.0,1022.0,1025.0,1022.0,1022.0,1011.0,1020.0,1021.0,1021.0,1019.0,1022.0,1021.0,1025.0,1022.0,1022.0,1011.0,1020.0,1020.0,1021.0,1019.0,1022.0,1023.0,1026.0,1023.0,1024.0,1012.0,1022.0,1024.0,1024.0,1023.0,1022.0,1026.0,1023.0,1024.0,1012.0,1021.0,1022.0,1022.0,1022.0,1026.0,1023.0,1022.0,1012.0,1021.0,1023.0,1022.0,1026.0,1023.0,1024.0,1012.0,1021.0,1022.0,1022.0,1026.0,1023.0,1023.0,1012.0,1022.0,1023.0,1022.0,1026.0,1024.0,1024.0,1013.0,1022.0,1022.0,1025.0,1023.0,1021.0,1012.0,1023.0,1023.0,1027.0,1024.0,1025.0,1014.0,1024.0,1025.0,1029.0,1028.0,1028.0,1016.0,1023.0,1023.0,1028.0,1026.0,1024.0,1014.0,1024.0,1026.0,1030.0,1029.0,1026.0,1016.0,1026.0,1028.0,1033.0,1031.0,1031.0,1018.0,1026.0,1028.0,1034.0,1030.0,1030.0,1018.0,1029.0,1031.0,1038.0,1030.0,1031.0,1022.0,1033.0,1033.0,1042.0,1031.0,1030.0,1025.0,1036.0,1036.0,1050.0,1034.0,1031.0,1032.0,1033.0,1032.0,1047.0,1032.0,1027.0,1031.0,1035.0,1032.0,1058.0,1035.0,1029.0,1091.0,1033.0,1032.0,1055.0,1035.0,1028.0,2323,2255,1901,	00:29:35.881,-0.009765625,0.0751953125,1.01904296875,-0.1220703125,0.3662109375,0.1220703125,4.2462158203125,0.5438232421875,-73.23486328125,90.0,-673.0,-4016.0,-0.801971435546875,-0.0325927734375,0.018280029296875,0.59619140625,4.249591335947822,0.5462729926937494,-77.44213546192984,-0.7795445998444943,-0.031906444205503315,0.01947523759427413,0.6252302862082857,1,	00:29:35.882,0.0263671875,0.02783203125,1.02099609375,-0.1220703125,0.18310546875,0.42724609375,1.5655517578125,-1.4776611328125,47.3236083984375,-11.0,617.0,-1849.0,0.915679931640625,0.0177001953125,-0.00634765625,0.40142822265625,1.5662267090106272,-1.4791986304893303,40.82227488398565,0.9369870724688251,0.017309618914341372,-0.0073303157863537,0.3488579504466155,1
1782117285.019010,0.496,1018.0,1024.0,1022.0,1020.0,1021.0,1025.0,1022.0,1021.0,1011.0,1020.0,1021.0,1024.0,1022.0,1021.0,1011.0,1020.0,1021.0,1021.0,1025.0,1022.0,1021.0,1011.0,1021.0,1021.0,1021.0,1021.0,1024.0,1022.0,1021.0,1010.0,1020.0,1020.0,1020.0,1021.0,1021.0,1024.0,1022.0,1021.0,1010.0,1020.0,1020.0,1021.0,1021.0,1021.0,1025.0,1023.0,1021.0,1010.0,1020.0,1020.0,1020.0,1019.0,1021.0,1021.0,1024.0,1022.0,1022.0,1011.0,1020.0,1020.0,1020.0,1019.0,1022.0,1021.0,1024.0,1022.0,1022.0,1011.0,1021.0,1021.0,1021.0,1020.0,1021.0,1021.0,1024.0,1022.0,1023.0,1011.0,1021.0,1021.0,1021.0,1020.0,1021.0,1022.0,1025.0,1022.0,1022.0,1011.0,1021.0,1021.0,1021.0,1020.0,1022.0,1021.0,1025.0,1023.0,1022.0,1011.0,1021.0,1020.0,1021.0,1019.0,1022.0,1022.0,1025.0,1022.0,1022.0,1011.0,1020.0,1021.0,1021.0,1019.0,1022.0,1022.0,1026.0,1023.0,1024.0,1012.0,1021.0,1023.0,1024.0,1023.0,1022.0,1026.0,1023.0,1023.0,1012.0,1021.0,1022.0,1022.0,1022.0,1026.0,1023.0,1023.0,1012.0,1021.0,1022.0,1022.0,1026.0,1023.0,1024.0,1013.0,1022.0,1023.0,1021.0,1026.0,1024.0,1023.0,1012.0,1021.0,1023.0,1022.0,1026.0,1024.0,1024.0,1012.0,1022.0,1022.0,1025.0,1023.0,1022.0,1012.0,1023.0,1023.0,1026.0,1024.0,1025.0,1014.0,1024.0,1025.0,1029.0,1028.0,1027.0,1016.0,1023.0,1024.0,1028.0,1026.0,1025.0,1014.0,1024.0,1026.0,1029.0,1029.0,1026.0,1015.0,1026.0,1028.0,1033.0,1031.0,1031.0,1018.0,1026.0,1028.0,1034.0,1030.0,1030.0,1019.0,1028.0,1031.0,1037.0,1030.0,1030.0,1022.0,1034.0,1032.0,1040.0,1031.0,1030.0,1025.0,1036.0,1036.0,1049.0,1035.0,1031.0,1032.0,1033.0,1032.0,1046.0,1032.0,1028.0,1031.0,1034.0,1032.0,1057.0,1036.0,1029.0,1090.0,1033.0,1032.0,1055.0,1035.0,1028.0,2323,2255,1902,	00:29:35.891,-0.009765625,0.0751953125,1.02001953125,-0.06103515625,0.42724609375,0.1220703125,4.1583251953125,0.5548095703125,-73.23486328125,90.0,-673.0,-4021.0,-0.802001953125,-0.031982421875,0.01776123046875,0.596221923828125,4.15758634188146,0.5525604981133986,-77.4414779140713,-0.7795721037847927,-0.03131494177653874,0.01893027139130263,0.6252426362998096,1,	00:29:35.892,0.02587890625,0.0283203125,1.0205078125,-0.1220703125,0.18310546875,0.42724609375,1.6259765625,-1.40625,47.3291015625,-12.0,619.0,-1845.0,0.915679931640625,0.017913818359375,-0.00555419921875,0.401458740234375,1.6247877505507966,-1.4080655956452508,40.82508749439781,0.9369799389549937,0.01757226984690467,-0.00656989024984629,0.34887912788017134,1
1782117285.029540,0.507,1018.0,1024.0,1022.0,1020.0,1022.0,1024.0,1022.0,1021.0,1011.0,1021.0,1021.0,1024.0,1022.0,1021.0,1010.0,1020.0,1021.0,1021.0,1024.0,1022.0,1022.0,1011.0,1020.0,1021.0,1021.0,1021.0,1024.0,1022.0,1021.0,1010.0,1020.0,1020.0,1020.0,1021.0,1021.0,1024.0,1022.0,1022.0,1011.0,1020.0,1020.0,1020.0,1021.0,1021.0,1024.0,1022.0,1022.0,1011.0,1020.0,1020.0,1021.0,1019.0,1021.0,1021.0,1024.0,1022.0,1021.0,1010.0,1020.0,1021.0,1021.0,1018.0,1021.0,1021.0,1024.0,1023.0,1022.0,1011.0,1021.0,1021.0,1021.0,1020.0,1021.0,1021.0,1025.0,1022.0,1022.0,1011.0,1020.0,1022.0,1021.0,1020.0,1022.0,1021.0,1024.0,1022.0,1022.0,1011.0,1021.0,1021.0,1021.0,1020.0,1022.0,1021.0,1025.0,1022.0,1022.0,1011.0,1020.0,1020.0,1021.0,1019.0,1022.0,1021.0,1025.0,1022.0,1022.0,1011.0,1020.0,1020.0,1021.0,1019.0,1022.0,1022.0,1026.0,1023.0,1024.0,1012.0,1021.0,1023.0,1024.0,1023.0,1022.0,1026.0,1023.0,1023.0,1013.0,1021.0,1022.0,1022.0,1021.0,1025.0,1022.0,1022.0,1012.0,1021.0,1022.0,1022.0,1026.0,1023.0,1024.0,1013.0,1021.0,1022.0,1022.0,1026.0,1023.0,1023.0,1013.0,1021.0,1022.0,1022.0,1026.0,1024.0,1024.0,1013.0,1022.0,1022.0,1025.0,1022.0,1021.0,1011.0,1023.0,1023.0,1027.0,1025.0,1025.0,1013.0,1024.0,1024.0,1029.0,1028.0,1027.0,1016.0,1023.0,1023.0,1027.0,1026.0,1024.0,1015.0,1024.0,1025.0,1029.0,1028.0,1026.0,1016.0,1026.0,1028.0,1033.0,1031.0,1030.0,1019.0,1026.0,1028.0,1033.0,1030.0,1030.0,1019.0,1029.0,1031.0,1037.0,1030.0,1030.0,1022.0,1034.0,1032.0,1040.0,1030.0,1030.0,1025.0,1036.0,1035.0,1049.0,1034.0,1031.0,1033.0,1033.0,1032.0,1046.0,1031.0,1028.0,1031.0,1035.0,1032.0,1056.0,1035.0,1029.0,1090.0,1033.0,1031.0,1054.0,1034.0,1029.0,2323,2255,1902,	00:29:35.901,-0.0107421875,0.0751953125,1.01953125,-0.06103515625,0.42724609375,0.18310546875,4.229736328125,0.615234375,-73.2293701171875,90.0,-676.0,-4014.0,-0.801971435546875,-0.032806396484375,0.0177001953125,0.59619140625,4.227879531810627,0.6145408393073254,-77.43862032900515,-0.7795537119071573,-0.03213163546958363,0.01889123720443243,0.6252253109165593,1,	00:29:35.902,0.02734375,0.02783203125,1.0205078125,-0.06103515625,0.1220703125,0.42724609375,1.58203125,-1.4886474609375,47.3345947265625,-11.0,617.0,-1846.0,0.9156494140625,0.01788330078125,-0.00634765625,0.401519775390625,1.583349888799509,-1.4890999881691376,40.83042406208616,0.9369581989067818,0.01748026850418004,-0.007357914962205968,0.34892640313078954,1
