Unix_Time_s,IMU1_RefTime,ax_g,ay_g,az_g,gx_dps,gy_dps,gz_dps,mx_uT,my_uT,mz_uT,temp_C,qw,qx,qy,qz
1782115902.408076,405760,-1.005859,-0.047852,-0.005859,2.378049,1.097561,0.853659,0.268750,30.987501,8.256250,0.0,1.000000,0.000000,0.000000,0.000000
1782115902.418076,405770,-1.009277,-0.046387,-0.002930,2.560976,0.243902,0.853659,0.268750,30.987501,8.256250,0.0,1.000000,0.000000,0.000000,0.000000
1782115902.428076,405780,-1.017090,-0.036621,-0.004395,2.987805,-1.219512,1.036585,0.162500,30.931250,8.293750,0.0,1.000000,0.000000,0.000000,0.000000
1782115902.438076,405790,-1.020996,-0.041992,-0.005859,3.719512,-2.743902,1.829268,0.162500,30.931250,8.293750,0.0,1.000000,0.000000,0.000000,0.000000
1782115902.448076,405800,-1.005859,-0.035645,-0.011719,3.902439,-3.963415,1.646341,0.337500,31.137501,8.368751,0.0,1.000000,0.000000,0.000000,0.000000
1782115902.458076,405810,-1.003418,-0.027344,-0.011719,4.939024,-3.902439,2.012195,0.337500,31.137501,8.368751,0.0,1.000000,0.000000,0.000000,0.000000
1782115902.468076,405820,-1.005859,-0.040527,-0.008789,5.548780,-4.268293,2.378049,0.237500,30.912500,8.475000,0.0,1.000000,0.000000,0.000000,0.000000
1782115902.479076,405831,-1.003906,-0.051758,-0.018555,4.756098,-4.146341,1.829268,0.237500,30.912500,8.475000,0.0,1.000000,0.000000,0.000000,0.000000
1782115902.488076,405840,-1.000977,-0.059570,-0.030273,3.292683,-3.109756,1.219512,0.556250,31.250000,8.543750,0.0,1.000000,0.000000,0.000000,0.000000
1782115902.498076,405850,-1.004395,-0.062500,-0.044922,1.829268,-2.134146,0.914634,0.556250,31.250000,8.543750,0.0,1.000000,0.000000,0.000000,0.000000
1782115902.508076,405860,-1.005859,-0.068359,-0.049805,1.097561,-1.768293,0.792683,0.325000,30.943750,8.468750,0.0,1.000000,0.000000,0.000000,0.000000
1782115902.518076,405870,-0.995117,-0.062988,-0.059082,-0.121951,-0.792683,0.548781,0.325000,30.943750,8.468750,0.0,1.000000,0.000000,0.000000,0.000000
1782115902.528076,405880,-0.997559,-0.060547,-0.057129,-0.487805,-0.060976,0.548781,0.418750,31.018751,8.550000,0.0,1.000000,0.000000,0.000000,0.000000
1782115902.538076,405890,-1.005859,-0.057617,-0.052246,-0.548781,-0.182927,0.548781,0.418750,31.018751,8.550000,0.0,1.000000,0.000000,0.000000,0.000000
1782115902.548076,405900,-1.001953,-0.059082,-0.046875,-0.548781,-0.365854,0.304878,0.331250,30.881250,8.500000,0.0,1.000000,0.000000,0.000000,0.000000
1782115902.558076,405910,-1.013672,-0.064941,-0.045898,-0.121951,-0.365854,0.670732,0.331250,30.881250,8.500000,0.0,1.000000,0.000000,0.000000,0.000000
1782115902.569076,405921,-1.006836,-0.060547,-0.053711,-0.243902,-0.731707,1.158537,0.418750,30.956251,8.500000,0.0,1.000000,0.000000,0.000000,0.000000
1782115902.579076,405931,-1.002930,-0.044434,-0.054199,0.243902,-0.853659,1.707317,0.418750,30.956251,8.500000,0.0,1.000000,0.000000,0.000000,0.000000
1782115902.588076,405940,-1.000000,-0.036621,-0.049805,0.914634,-1.524390,1.707317,0.293750,30.781250,8.531250,0.0,1.000000,0.000000,0.000000,0.000000
1782115902.598076,405950,-1.000000,-0.036621,-0.049805,0.914634,-1.524390,1.707317,0.293750,30.781250,8.531250,0.0,1.000000,0.000000,0.000000,0.000000
1782115902.608076,405960,-0.999512,-0.032227,-0.045898,0.914634,-1.402439,1.524390,0.268750,30.743750,8.500000,0.0,1.000000,0.000000,0.000000,0.000000
1782115902.618076,405970,-0.998047,-0.031250,-0.044922,0.182927,-0.975610,1.341463,0.268750,30.743750,8.500000,0.0,1.000000,0.000000,0.000000,0.000000
1782115902.629076,405981,-1.001953,-0.035156,-0.049805,-1.463415,-0.304878,0.731707,0.193750,30.656250,8.512500,0.0,1.000000,0.000000,0.000000,0.000000
1782115902.638076,405990,-1.002930,-0.042480,-0.053711,-2.743902,0.731707,0.731707,0.193750,30.656250,8.512500,0.0,1.000000,0.000000,0.000000,0.000000
1782115902.648076,406000,-1.007324,-0.041016,-0.049316,-2.987805,1.585366,1.158537,0.293750,30.762501,8.493751,0.0,1.000000,0.000000,0.000000,0.000000
1782115902.659076,406011,-1.011719,-0.039551,-0.041992,-2.134146,0.914634,1.036585,0.168750,30.700001,8.425000,0.0,1.000000,0.000000,0.000000,0.000000
1782115902.668076,406020,-1.010742,-0.042480,-0.033691,-1.646341,0.365854,1.158537,0.168750,30.700001,8.425000,0.0,1.000000,0.000000,0.000000,0.000000
1782115902.678076,406030,-1.005371,-0.041504,-0.030762,-2.073171,-0.304878,0.731707,0.212500,30.731251,8.418750,0.0,1.000000,0.000000,0.000000,0.000000
1782115902.688076,406040,-1.000488,-0.044922,-0.035156,-3.048780,-0.243902,0.670732,0.212500,30.731251,8.418750,0.0,1.000000,0.000000,0.000000,0.000000
1782115902.698076,406050,-0.997559,-0.048340,-0.038086,-4.146341,0.426829,0.731707,0.175000,30.650000,8.381250,0.0,1.000000,0.000000,0.000000,0.000000
1782115902.708076,406060,-0.998535,-0.053223,-0.037598,-4.939024,1.707317,1.219512,0.175000,30.650000,8.381250,0.0,1.000000,0.000000,0.000000,0.000000
1782115902.718076,406070,-1.009766,-0.059570,-0.027832,-4.085366,1.341463,1.829268,0.368750,30.918751,8.456250,0.0,1.000000,0.000000,0.000000,0.000000
1782115902.728076,406080,-1.013672,-0.066406,-0.027344,-2.987805,-0.182927,1.707317,0.368750,30.918751,8.456250,0.0,1.000000,0.000000,0.000000,0.000000
1782115902.738076,406090,-1.007324,-0.067871,-0.026367,-2.012195,-1.341463,1.158537,0.218750,30.725000,8.381250,0.0,1.000000,0.000000,0.000000,0.000000
1782115902.748076,406100,-1.000977,-0.060059,-0.032715,-2.439024,-1.341463,0.670732,0.218750,30.725000,8.381250,0.0,1.000000,0.000000,0.000000,0.000000
1782115902.758076,406110,-0.998535,-0.054688,-0.028809,-2.500000,-1.341463,0.853659,0.168750,30.725000,8.425000,0.0,1.000000,0.000000,0.000000,0.000000
1782115902.768076,406120,-0.994141,-0.062988,-0.033203,-2.682927,-1.036585,0.914634,0.168750,30.725000,8.425000,0.0,1.000000,0.000000,0.000000,0.000000
1782115902.778076,406130,-0.999512,-0.064453,-0.033691,-2.621951,-0.243902,1.158537,0.218750,30.693750,8.406250,0.0,1.000000,0.000000,0.000000,0.000000
1782115902.789076,406141,-1.004883,-0.068848,-0.033691,-2.560976,-0.609756,1.036585,0.218750,30.693750,8.406250,0.0,1.000000,0.000000,0.000000,0.000000
1782115902.799076,406151,-1.003418,-0.069824,-0.035156,-3.109756,-0.670732,0.243902,0.187500,30.750000,8.412500,0.0,1.000000,0.000000,0.000000,0.000000
1782115902.808076,406160,-1.007812,-0.069824,-0.037109,-3.353659,-0.121951,-0.304878,0.187500,30.750000,8.412500,0.0,1.000000,0.000000,0.000000,0.000000
1782115902.818076,406170,-1.011230,-0.072754,-0.036621,-3.414634,-0.304878,0.121951,0.100000,30.662500,8.443750,0.0,1.000000,0.000000,0.000000,0.000000
1782115902.828076,406180,-1.005371,-0.070801,-0.033203,-2.987805,-1.036585,0.182927,0.100000,30.662500,8.443750,0.0,1.000000,0.000000,0.000000,0.000000
1782115902.839076,406191,-1.003906,-0.072266,-0.022949,-1.097561,-1.829268,0.365854,0.043750,30.625000,8.437500,0.0,1.000000,0.000000,0.000000,0.000000
1782115902.849076,406201,-0.996094,-0.065918,-0.016113,0.000000,-2.804878,0.121951,0.043750,30.625000,8.437500,0.0,1.000000,0.000000,0.000000,0.000000
1782115902.859076,406211,-0.997070,-0.072266,-0.016602,0.243902,-2.682927,-0.487805,0.000000,30.581251,8.412500,0.0,1.000000,0.000000,0.000000,0.000000
1782115902.869076,406221,-0.998535,-0.076660,-0.020508,-0.975610,-1.951220,-1.524390,0.000000,30.581251,8.412500,0.0,1.000000,0.000000,0.000000,0.000000
1782115902.879076,406231,-1.000977,-0.073730,-0.036621,-3.841464,-0.304878,-2.073171,-0.037500,30.612501,8.500000,0.0,1.000000,0.000000,0.000000,0.000000
1782115902.888076,406240,-1.000000,-0.067383,-0.039551,-5.609756,0.853659,-1.829268,-0.037500,30.612501,8.500000,0.0,1.000000,0.000000,0.000000,0.000000
1782115902.898076,406250,-1.002930,-0.060547,-0.031250,-6.036585,0.365854,-1.951220,-0.062500,30.581251,8.381250,0.0,1.000000,0.000000,0.000000,0.000000
1782115902.908076,406260,-1.002441,-0.059570,-0.028809,-5.182927,-0.243902,-1.829268,-0.062500,30.581251,8.381250,0.0,1.000000,0.000000,0.000000,0.000000
1782115902.919076,406271,-0.999023,-0.058594,-0.034180,-5.243903,-1.341463,-2.682927,-0.200000,30.512501,8.406250,0.0,1.000000,0.000000,0.000000,0.000000
1782115902.928076,406280,-1.000488,-0.039551,-0.049805,-5.914634,-1.707317,-3.048780,-0.200000,30.512501,8.406250,0.0,1.000000,0.000000,0.000000,0.000000
1782115902.938076,406290,-1.005859,-0.017090,-0.060059,-8.048780,-2.195122,-3.231707,-0.231250,30.518751,8.362500,0.0,1.000000,0.000000,0.000000,0.000000
1782115902.948076,406300,-0.997070,0.001953,-0.070312,-11.646341,-2.378049,-3.109756,-0.231250,30.518751,8.362500,0.0,1.000000,0.000000,0.000000,0.000000
1782115902.958076,406310,-0.985840,0.019531,-0.076660,-15.121951,-2.378049,-2.743902,-0.418750,30.412500,8.368751,0.0,1.000000,0.000000,0.000000,0.000000
1782115902.968076,406320,-0.987305,0.018555,-0.071289,-16.707317,-2.195122,-2.134146,-0.506250,30.462500,8.418750,0.0,1.000000,0.000000,0.000000,0.000000
1782115902.979076,406331,-0.996094,0.019531,-0.061035,-17.804878,-2.926829,-1.707317,-0.506250,30.462500,8.418750,0.0,1.000000,0.000000,0.000000,0.000000
1782115902.989076,406341,-1.003906,0.014648,-0.056152,-19.207317,-4.207317,-1.646341,-0.700000,30.312500,8.256250,0.0,1.000000,0.000000,0.000000,0.000000
1782115902.999076,406351,-1.004883,0.000000,-0.048340,-20.304878,-4.573171,-1.829268,-0.700000,30.312500,8.256250,0.0,1.000000,0.000000,0.000000,0.000000
1782115903.008076,406360,-1.004395,-0.018555,-0.046387,-21.951220,-4.451220,-1.890244,-0.706250,30.443750,8.231250,0.0,1.000000,0.000000,0.000000,0.000000
1782115903.018076,406370,-1.005371,-0.023438,-0.037109,-23.719513,-4.634146,-1.768293,-0.706250,30.443750,8.231250,0.0,1.000000,0.000000,0.000000,0.000000
1782115903.029076,406381,-1.010254,-0.034668,-0.012695,-24.268293,-6.341464,-2.256098,-0.968750,30.325001,8.206250,0.0,1.000000,0.000000,0.000000,0.000000
1782115903.039076,406391,-1.008789,-0.048340,0.009277,-24.695122,-7.439024,-2.500000,-0.968750,30.325001,8.206250,0.0,1.000000,0.000000,0.000000,0.000000
1782115903.049076,406401,-1.015137,-0.066406,0.020996,-23.597561,-8.353659,-2.012195,-1.175000,30.287500,8.156250,0.0,1.000000,0.000000,0.000000,0.000000
1782115903.058076,406410,-1.010254,-0.085449,0.024902,-22.560976,-8.780488,-2.195122,-1.175000,30.287500,8.156250,0.0,1.000000,0.000000,0.000000,0.000000
1782115903.068076,406420,-1.008301,-0.092773,0.026367,-21.768293,-7.926829,-2.195122,-1.268750,30.381250,8.256250,0.0,1.000000,0.000000,0.000000,0.000000
1782115903.078076,406430,-1.008789,-0.096191,0.028320,-21.219513,-7.012195,-2.439024,-1.268750,30.381250,8.256250,0.0,1.000000,0.000000,0.000000,0.000000
1782115903.088076,406440,-1.012695,-0.096191,0.025391,-21.036587,-5.792683,-2.012195,-1.468750,30.243750,8.237500,0.0,1.000000,0.000000,0.000000,0.000000
1782115903.098076,406450,-1.015137,-0.102051,0.029297,-19.329269,-5.487805,-1.585366,-1.468750,30.243750,8.237500,0.0,1.000000,0.000000,0.000000,0.000000
1782115903.108076,406460,-1.015625,-0.102539,0.037598,-17.256098,-5.914634,-1.097561,-1.706250,30.200001,8.243751,0.0,1.000000,0.000000,0.000000,0.000000
1782115903.118076,406470,-1.012207,-0.102539,0.032715,-14.817074,-6.463415,-0.609756,-1.706250,30.200001,8.243751,0.0,1.000000,0.000000,0.000000,0.000000
1782115903.128076,406480,-1.011719,-0.102539,0.032227,-11.585366,-5.853659,-0.121951,-1.843750,30.225000,8.256250,0.0,1.000000,0.000000,0.000000,0.000000
1782115903.138076,406490,-1.015625,-0.117188,0.028809,-7.804878,-4.756098,0.365854,-1.843750,30.225000,8.256250,0.0,1.000000,0.000000,0.000000,0.000000
1782115903.148076,406500,-1.036621,-0.124023,0.034180,-2.500000,-3.658537,0.121951,-1.937500,30.187500,8.306251,0.0,1.000000,0.000000,0.000000,0.000000
1782115903.158076,406510,-1.044434,-0.122070,0.049316,2.317073,-4.329268,-0.731707,-1.937500,30.187500,8.306251,0.0,1.000000,0.000000,0.000000,0.000000
1782115903.168076,406520,-1.045410,-0.127441,0.063965,6.829268,-5.365854,-0.914634,-1.912500,30.218750,8.343750,0.0,1.000000,0.000000,0.000000,0.000000
1782115903.178076,406530,-1.047852,-0.139160,0.053711,11.219512,-6.829268,-0.914634,-1.912500,30.218750,8.343750,0.0,1.000000,0.000000,0.000000,0.000000
1782115903.188076,406540,-1.045898,-0.143066,0.027832,14.817074,-8.353659,-0.670732,-1.893750,30.250000,8.462501,0.0,1.000000,0.000000,0.000000,0.000000
1782115903.199076,406551,-1.033203,-0.123535,-0.004883,16.036585,-9.573171,-0.670732,-1.893750,30.250000,8.462501,0.0,1.000000,0.000000,0.000000,0.000000
1782115903.208076,406560,-1.020508,-0.072754,-0.025879,15.548780,-10.914635,0.792683,-1.706250,30.425001,8.606250,0.0,1.000000,0.000000,0.000000,0.000000
1782115903.218076,406570,-0.991211,-0.029785,-0.040527,13.780488,-13.170732,1.646341,-1.706250,30.425001,8.606250,0.0,1.000000,0.000000,0.000000,0.000000
1782115903.228076,406580,-0.959961,-0.003418,-0.053223,11.402439,-12.560976,2.317073,-1.743750,30.218750,8.718750,0.0,1.000000,0.000000,0.000000,0.000000
1782115903.238076,406590,-0.943359,-0.004883,-0.069336,9.634147,-9.939025,2.987805,-1.743750,30.218750,8.718750,0.0,1.000000,0.000000,0.000000,0.000000
1782115903.249076,406601,-0.952148,-0.018066,-0.071777,7.378049,-6.707317,4.085366,-1.556250,30.206251,8.850000,0.0,1.000000,0.000000,0.000000,0.000000
1782115903.261076,406613,-0.967773,-0.045410,-0.087402,4.573171,-3.536585,4.634146,-1.593750,29.893751,8.831250,0.0,1.000000,0.000000,0.000000,0.000000
1782115903.269076,406621,-0.976074,-0.088379,-0.073242,4.146341,-1.402439,3.841464,-1.593750,29.893751,8.831250,0.0,1.000000,0.000000,0.000000,0.000000
1782115903.279076,406631,-0.977051,-0.118164,-0.054688,3.963415,-0.365854,1.463415,-1.375000,29.868750,8.956250,0.0,1.000000,0.000000,0.000000,0.000000
1782115903.288076,406640,-0.975098,-0.139648,-0.042480,2.073171,0.000000,-0.731707,-1.375000,29.868750,8.956250,0.0,1.000000,0.000000,0.000000,0.000000
1782115903.298076,406650,-0.952148,-0.151367,-0.035156,0.548781,-0.182927,-2.865854,-1.381250,29.593750,8.862500,0.0,1.000000,0.000000,0.000000,0.000000
1782115903.310076,406662,-0.933105,-0.155273,-0.043457,-1.524390,1.951220,-4.024390,-1.381250,29.593750,8.862500,0.0,1.000000,0.000000,0.000000,0.000000
1782115903.320076,406672,-0.935059,-0.147949,-0.051270,-4.817073,4.939024,-4.146341,-1.412500,29.425001,8.868751,0.0,1.000000,0.000000,0.000000,0.000000
1782115903.329076,406681,-0.956543,-0.136719,-0.056641,-7.804878,7.560976,-3.597561,-1.412500,29.425001,8.868751,0.0,1.000000,0.000000,0.000000,0.000000
1782115903.338076,406690,-0.982910,-0.130859,-0.056641,-9.024390,9.329268,-2.621951,-1.193750,29.587500,8.806251,0.0,1.000000,0.000000,0.000000,0.000000
1782115903.348076,406700,-1.014648,-0.114258,-0.054688,-8.414635,9.268292,-1.036585,-1.193750,29.587500,8.806251,0.0,1.000000,0.000000,0.000000,0.000000
1782115903.359076,406711,-1.041504,-0.095703,-0.046875,-6.524390,8.292683,0.792683,-1.418750,29.437500,8.537500,0.0,1.000000,0.000000,0.000000,0.000000
1782115903.368076,406720,-1.074219,-0.078125,-0.023926,-4.512195,7.012195,2.317073,-1.418750,29.437500,8.537500,0.0,1.000000,0.000000,0.000000,0.000000
1782115903.379076,406731,-1.086914,-0.075684,0.017090,-2.865854,3.353659,3.536585,-1.406250,29.525000,8.462501,0.0,1.000000,0.000000,0.000000,0.000000
1782115903.389076,406741,-1.076660,-0.068359,0.056152,-2.256098,0.060976,4.329268,-1.406250,29.525000,8.462501,0.0,1.000000,0.000000,0.000000,0.000000
1782115903.400076,406752,-1.057617,-0.074707,0.076172,-2.012195,-2.804878,3.841464,-1.375000,29.618750,8.362500,0.0,1.000000,0.000000,0.000000,0.000000
1782115903.408076,406760,-1.036133,-0.077148,0.082031,-1.768293,-5.182927,2.134146,-1.375000,29.618750,8.362500,0.0,1.000000,0.000000,0.000000,0.000000
1782115903.418076,406770,-1.011230,-0.081055,0.062500,-2.621951,-5.731708,-0.121951,-1.425000,29.650000,8.275001,0.0,1.000000,0.000000,0.000000,0.000000
1782115903.428076,406780,-0.987793,-0.078613,0.033691,-4.512195,-4.451220,-2.012195,-1.425000,29.650000,8.275001,0.0,1.000000,0.000000,0.000000,0.000000
1782115903.438076,406790,-0.975098,-0.073242,0.014648,-7.865854,-1.463415,-3.536585,-1.525000,29.625000,8.287500,0.0,1.000000,0.000000,0.000000,0.000000
1782115903.448076,406800,-0.983398,-0.073730,0.007324,-12.378049,1.951220,-4.634146,-1.525000,29.625000,8.287500,0.0,1.000000,0.000000,0.000000,0.000000
1782115903.458076,406810,-0.983398,-0.073730,0.007324,-12.378049,1.951220,-4.634146,-1.637500,29.681250,8.281250,0.0,1.000000,0.000000,0.000000,0.000000
1782115903.468076,406820,-0.994629,-0.084473,0.006836,-15.548780,3.841464,-5.853659,-1.637500,29.681250,8.281250,0.0,1.000000,0.000000,0.000000,0.000000
1782115903.480076,406832,-1.015137,-0.129395,-0.002930,-15.487805,3.536585,-7.134147,-1.718750,29.893751,8.137500,0.0,1.000000,0.000000,0.000000,0.000000
1782115903.488076,406840,-1.015137,-0.129395,-0.002930,-15.487805,3.536585,-7.134147,-1.718750,29.893751,8.137500,0.0,1.000000,0.000000,0.000000,0.000000
1782115903.498076,406850,-1.012695,-0.136230,-0.013184,-12.560976,1.097561,-6.341464,-1.493750,30.362501,8.156250,0.0,1.000000,0.000000,0.000000,0.000000
1782115903.508076,406860,-0.998047,-0.133789,-0.025879,-10.670732,-0.731707,-4.756098,-1.493750,30.362501,8.156250,0.0,1.000000,0.000000,0.000000,0.000000
1782115903.520076,406872,-0.976562,-0.111328,-0.035645,-6.402439,-5.548780,1.768293,-1.687500,30.281250,8.218750,0.0,1.000000,0.000000,0.000000,0.000000
1782115903.528076,406880,-0.976562,-0.111328,-0.035645,-6.402439,-5.548780,1.768293,-1.687500,30.281250,8.218750,0.0,1.000000,0.000000,0.000000,0.000000
1782115903.538076,406890,-0.955566,-0.125977,-0.038086,-4.939024,-7.073171,4.207317,-1.568750,30.325001,8.212501,0.0,1.000000,0.000000,0.000000,0.000000
1782115903.549076,406901,-0.959961,-0.111328,-0.031250,-6.219512,-5.304878,4.939024,-1.618750,30.212500,8.212501,0.0,1.000000,0.000000,0.000000,0.000000
1782115903.560076,406912,-0.975098,-0.119141,-0.018066,-9.085366,-2.621951,4.695122,-1.618750,30.212500,8.212501,0.0,1.000000,0.000000,0.000000,0.000000
1782115903.568076,406920,-0.990234,-0.156738,-0.020508,-7.682927,-3.231707,5.853659,-1.518750,30.181250,8.287500,0.0,1.000000,0.000000,0.000000,0.000000
1782115903.578076,406930,-1.007812,-0.139648,-0.004883,-2.378049,-3.658537,6.524390,-1.518750,30.181250,8.287500,0.0,1.000000,0.000000,0.000000,0.000000
1782115903.589076,406941,-1.020020,-0.126465,0.015625,3.719512,-4.878049,5.304878,-1.612500,29.800001,8.350000,0.0,1.000000,0.000000,0.000000,0.000000
1782115903.600076,406952,-1.014160,-0.165039,0.023438,10.243902,-6.768293,3.231707,-1.612500,29.800001,8.350000,0.0,1.000000,0.000000,0.000000,0.000000
1782115903.608076,406960,-0.988281,-0.171875,0.023926,14.146341,-7.865854,1.097561,-1.600000,29.612501,8.431251,0.0,1.000000,0.000000,0.000000,0.000000
1782115903.618076,406970,-0.961914,-0.186035,-0.007812,15.060976,-5.304878,-0.670732,-1.600000,29.612501,8.431251,0.0,1.000000,0.000000,0.000000,0.000000
1782115903.629076,406981,-0.944824,-0.197754,-0.044922,16.036585,-1.524390,-1.036585,-1.581250,29.487501,8.537500,0.0,1.000000,0.000000,0.000000,0.000000
1782115903.641076,406993,-0.943848,-0.183105,-0.093262,22.804878,3.841464,-1.097561,-1.581250,29.487501,8.537500,0.0,1.000000,0.000000,0.000000,0.000000
1782115903.648076,407000,-0.943848,-0.183105,-0.093262,22.804878,3.841464,-1.097561,-1.375000,29.643751,8.518750,0.0,1.000000,0.000000,0.000000,0.000000
1782115903.658076,407010,-0.954590,-0.140625,-0.109863,26.158537,5.548780,0.182927,-1.375000,29.643751,8.518750,0.0,1.000000,0.000000,0.000000,0.000000
1782115903.668076,407020,-0.965820,-0.122559,-0.107910,29.878050,6.585366,1.280488,-0.937500,29.993750,8.568750,0.0,1.000000,0.000000,0.000000,0.000000
1782115903.680076,407032,-0.948242,-0.100098,-0.103027,34.085365,7.134147,1.219512,-0.937500,29.993750,8.568750,0.0,1.000000,0.000000,0.000000,0.000000
1782115903.688076,407040,-0.921875,-0.077148,-0.096680,36.158539,9.573171,1.341463,-0.325000,30.437500,8.587501,0.0,1.000000,0.000000,0.000000,0.000000
1782115903.698076,407050,-0.924805,-0.031738,-0.088867,34.634148,12.865854,2.987805,-0.325000,30.437500,8.587501,0.0,1.000000,0.000000,0.000000,0.000000
1782115903.708076,407060,-0.982422,0.012695,-0.077637,31.341465,16.402439,7.560976,-0.187500,30.400000,8.437500,0.0,1.000000,0.000000,0.000000,0.000000
1782115903.721076,407073,-1.069824,0.051758,-0.041504,29.695122,18.109756,12.317074,-0.187500,30.400000,8.437500,0.0,1.000000,0.000000,0.000000,0.000000
1782115903.728076,407080,-1.128418,0.088867,0.011230,29.085367,15.182927,14.390244,0.331250,30.662500,8.237500,0.0,1.000000,0.000000,0.000000,0.000000
1782115903.739076,407091,-1.132324,0.113281,0.065430,28.475611,10.182927,13.658537,0.331250,30.662500,8.237500,0.0,1.000000,0.000000,0.000000,0.000000
1782115903.748076,407100,-1.102051,0.132812,0.121582,27.926830,6.402439,12.012196,0.625000,30.618750,8.143750,0.0,1.000000,0.000000,0.000000,0.000000
1782115903.760076,407112,-1.076660,0.149902,0.144531,25.426830,3.048780,10.243902,0.625000,30.618750,8.143750,0.0,1.000000,0.000000,0.000000,0.000000
1782115903.768076,407120,-1.045898,0.155762,0.128906,21.951220,0.365854,9.512196,0.850000,30.550001,7.931250,0.0,1.000000,0.000000,0.000000,0.000000
1782115903.778076,407130,-1.007812,0.156738,0.104980,18.536585,0.182927,9.390244,0.850000,30.550001,7.931250,0.0,1.000000,0.000000,0.000000,0.000000
1782115903.789076,407141,-0.992188,0.145020,0.089355,11.707317,2.865854,9.329268,0.825000,30.256250,7.862500,0.0,1.000000,0.000000,0.000000,0.000000
1782115903.801076,407153,-0.990723,0.129883,0.075684,2.256098,6.829268,8.536586,1.281250,30.450001,7.843750,0.0,1.000000,0.000000,0.000000,0.000000
1782115903.808076,407160,-0.999512,0.102539,0.062012,-8.048780,9.817074,6.646342,1.281250,30.450001,7.843750,0.0,1.000000,0.000000,0.000000,0.000000
1782115903.818076,407170,-1.010254,0.069336,0.051758,-16.280489,10.731708,4.817073,1.281250,30.450001,7.843750,0.0,1.000000,0.000000,0.000000,0.000000
1782115903.828076,407180,-1.000000,0.026367,0.050781,-22.012196,9.756098,2.743902,1.012500,30.312500,7.681250,0.0,1.000000,0.000000,0.000000,0.000000
1782115903.839076,407191,-0.995117,-0.031250,0.051270,-24.939026,9.207317,0.609756,1.100000,30.568750,7.650000,0.0,1.000000,0.000000,0.000000,0.000000
1782115903.848076,407200,-0.999023,-0.101074,0.043945,-26.402439,9.573171,-1.219512,1.100000,30.568750,7.650000,0.0,1.000000,0.000000,0.000000,0.000000
1782115903.858076,407210,-1.005371,-0.153320,0.032715,-27.073172,9.756098,-2.012195,1.100000,30.568750,7.650000,0.0,1.000000,0.000000,0.000000,0.000000
1782115903.868076,407220,-1.011719,-0.189941,0.018555,-26.646341,7.865854,-2.317073,1.156250,30.925001,7.550000,0.0,1.000000,0.000000,0.000000,0.000000
1782115903.881076,407233,-1.016113,-0.217285,0.006836,-23.780489,4.817073,-1.768293,1.187500,31.143751,7.637500,0.0,1.000000,0.000000,0.000000,0.000000
1782115903.888076,407240,-1.012695,-0.227539,-0.004883,-18.109756,2.560976,-0.731707,1.187500,31.143751,7.637500,0.0,1.000000,0.000000,0.000000,0.000000
1782115903.898076,407250,-1.019531,-0.230469,-0.013672,-9.085366,0.731707,0.243902,1.250000,31.412500,7.743750,0.0,1.000000,0.000000,0.000000,0.000000
1782115903.908076,407260,-1.019043,-0.220703,-0.013184,0.609756,-2.073171,0.792683,1.250000,31.412500,7.743750,0.0,1.000000,0.000000,0.000000,0.000000
1782115903.919076,407271,-1.021484,-0.185547,-0.014648,8.170732,-4.512195,1.585366,1.318750,31.381250,7.856250,0.0,1.000000,0.000000,0.000000,0.000000
1782115903.929076,407281,-1.020508,-0.131348,-0.015625,13.475610,-7.134147,2.560976,1.318750,31.381250,7.856250,0.0,1.000000,0.000000,0.000000,0.000000
1782115903.938076,407290,-1.013672,-0.073730,-0.012695,17.500000,-9.695122,3.475610,1.450000,31.375000,8.162500,0.0,1.000000,0.000000,0.000000,0.000000
1782115903.948076,407300,-1.006836,-0.017090,-0.000977,19.451220,-11.280488,5.000000,1.450000,31.375000,8.162500,0.0,1.000000,0.000000,0.000000,0.000000
1782115903.961076,407313,-1.020020,0.015137,-0.013184,22.926830,-13.780488,6.524390,1.562500,31.225000,8.443750,0.0,1.000000,0.000000,0.000000,0.000000
1782115903.969076,407321,-1.019531,0.035645,-0.005371,25.304878,-17.134148,7.073171,1.562500,31.225000,8.443750,0.0,1.000000,0.000000,0.000000,0.000000
1782115903.978076,407330,-1.000977,0.053223,0.000000,23.597561,-18.841463,6.402439,1.637500,30.968750,8.625000,0.0,1.000000,0.000000,0.000000,0.000000
1782115903.989076,407341,-0.989746,0.072754,-0.009766,18.414635,-18.292683,5.426829,1.637500,30.968750,8.625000,0.0,1.000000,0.000000,0.000000,0.000000
1782115904.000076,407352,-0.976562,0.084961,-0.023926,10.853659,-16.280489,4.329268,1.593750,30.631250,8.793750,0.0,1.000000,0.000000,0.000000,0.000000
1782115904.008076,407360,-0.964844,0.077637,-0.035156,2.134146,-12.195122,3.170732,1.593750,30.631250,8.793750,0.0,1.000000,0.000000,0.000000,0.000000
1782115904.019076,407371,-0.974609,0.048828,-0.048340,-5.487805,-7.926829,2.926829,1.781250,30.743750,9.018750,0.0,1.000000,0.000000,0.000000,0.000000
1782115904.029076,407381,-0.986816,0.020020,-0.049805,-11.097561,-4.878049,2.682927,1.781250,30.743750,9.018750,0.0,1.000000,0.000000,0.000000,0.000000
1782115904.041076,407393,-0.993164,-0.017090,-0.049805,-15.487805,-2.439024,2.073171,1.675000,30.743750,9.012500,0.0,1.000000,0.000000,0.000000,0.000000
1782115904.048076,407400,-1.011719,-0.048828,-0.043457,-18.414635,-0.060976,1.097561,1.675000,30.743750,9.012500,0.0,1.000000,0.000000,0.000000,0.000000
1782115904.058076,407410,-1.021973,-0.061523,-0.038086,-19.817074,0.487805,0.304878,1.518750,30.793751,8.937500,0.0,1.000000,0.000000,0.000000,0.000000
1782115904.068076,407420,-1.025391,-0.071777,-0.028809,-19.329269,0.000000,-0.365854,1.518750,30.793751,8.937500,0.0,1.000000,0.000000,0.000000,0.000000
1782115904.081076,407433,-1.020996,-0.084473,-0.018555,-17.317074,-1.768293,-0.548781,1.400000,30.881250,8.962501,0.0,1.000000,0.000000,0.000000,0.000000
1782115904.088076,407440,-1.008301,-0.093262,-0.013672,-14.512196,-2.621951,-0.121951,1.400000,30.881250,8.962501,0.0,1.000000,0.000000,0.000000,0.000000
1782115904.098076,407450,-0.998535,-0.109863,-0.009766,-11.890244,-2.926829,0.304878,1.456250,31.000000,9.006250,0.0,1.000000,0.000000,0.000000,0.000000
1782115904.108076,407460,-0.994629,-0.119141,-0.009766,-8.963415,-2.560976,0.670732,1.456250,31.000000,9.006250,0.0,1.000000,0.000000,0.000000,0.000000
1782115904.120076,407472,-0.997559,-0.116211,-0.009766,-5.731708,-2.317073,1.219512,1.500000,31.062500,9.068750,0.0,1.000000,0.000000,0.000000,0.000000
1782115904.128076,407480,-0.999512,-0.105469,-0.008301,-3.231707,-1.890244,2.012195,1.500000,31.062500,9.068750,0.0,1.000000,0.000000,0.000000,0.000000
1782115904.138076,407490,-1.001953,-0.095703,0.000000,-0.609756,-1.707317,2.926829,1.325000,30.800001,9.125000,0.0,1.000000,0.000000,0.000000,0.000000
1782115904.149076,407501,-1.007324,-0.090332,0.012207,1.524390,-2.012195,3.475610,1.187500,30.556250,9.225000,0.0,1.000000,0.000000,0.000000,0.000000
1782115904.160076,407512,-1.019531,-0.086426,0.026367,2.865854,-3.048780,3.658537,1.187500,30.556250,9.225000,0.0,1.000000,0.000000,0.000000,0.000000
1782115904.168076,407520,-1.015625,-0.092773,0.026855,2.926829,-4.329268,3.048780,1.300000,30.593750,9.243751,0.0,1.000000,0.000000,0.000000,0.000000
1782115904.179076,407531,-1.008789,-0.084961,0.022461,3.170732,-5.487805,2.317073,1.300000,30.593750,9.243751,0.0,1.000000,0.000000,0.000000,0.000000
1782115904.188076,407540,-1.006348,-0.071777,0.027344,3.902439,-6.463415,2.012195,1.356250,30.568750,9.325000,0.0,1.000000,0.000000,0.000000,0.000000
1782115904.201076,407553,-1.004395,-0.062988,0.033203,5.304878,-7.804878,1.951220,1.356250,30.568750,9.325000,0.0,1.000000,0.000000,0.000000,0.000000
1782115904.209076,407561,-1.003418,-0.055176,0.037598,6.341464,-8.353659,2.073171,1.856250,31.125000,9.525001,0.0,1.000000,0.000000,0.000000,0.000000
1782115904.219076,407571,-0.997559,-0.053711,0.039551,6.402439,-8.475610,1.707317,1.856250,31.125000,9.525001,0.0,1.000000,0.000000,0.000000,0.000000
1782115904.229076,407581,-0.986816,-0.053223,0.029785,5.182927,-7.621952,0.792683,1.650000,30.800001,9.537500,0.0,1.000000,0.000000,0.000000,0.000000
1782115904.238076,407590,-0.990723,-0.053223,0.016602,3.353659,-5.975610,0.243902,1.650000,30.800001,9.537500,0.0,1.000000,0.000000,0.000000,0.000000
1782115904.248076,407600,-1.001465,-0.058105,0.004883,2.378049,-5.548780,-0.121951,1.500000,30.618750,9.618751,0.0,1.000000,0.000000,0.000000,0.000000
1782115904.258076,407610,-0.998047,-0.068359,-0.000488,2.560976,-4.695122,-0.304878,1.500000,30.618750,9.618751,0.0,1.000000,0.000000,0.000000,0.000000
1782115904.268076,407620,-1.000977,-0.070801,-0.001465,2.865854,-3.353659,-0.487805,1.450000,30.562500,9.675000,0.0,1.000000,0.000000,0.000000,0.000000
1782115904.278076,407630,-1.003418,-0.067383,-0.001465,2.500000,-3.048780,-0.914634,1.450000,30.562500,9.675000,0.0,1.000000,0.000000,0.000000,0.000000
1782115904.288076,407640,-1.004395,-0.061523,-0.003906,2.439024,-2.500000,-1.646341,1.431250,30.468750,9.731250,0.0,1.000000,0.000000,0.000000,0.000000
1782115904.299076,407651,-0.997559,-0.064453,-0.007324,2.317073,-2.012195,-2.195122,1.431250,30.468750,9.731250,0.0,1.000000,0.000000,0.000000,0.000000
1782115904.309076,407661,-0.990723,-0.062988,-0.016113,2.256098,-0.670732,-2.134146,1.687500,30.800001,9.931251,0.0,1.000000,0.000000,0.000000,0.000000
1782115904.321076,407673,-0.986328,-0.057617,-0.020508,2.317073,0.853659,-1.829268,1.687500,30.800001,9.931251,0.0,1.000000,0.000000,0.000000,0.000000
1782115904.328076,407680,-0.986328,-0.057617,-0.020508,2.317073,0.853659,-1.829268,1.412500,30.512501,9.843750,0.0,1.000000,0.000000,0.000000,0.000000
1782115904.338076,407690,-1.002930,-0.052246,-0.012695,3.170732,1.036585,-1.524390,1.412500,30.512501,9.843750,0.0,1.000000,0.000000,0.000000,0.000000
1782115904.350076,407702,-1.011230,-0.049316,-0.012207,4.451220,0.121951,-0.975610,1.556250,30.662500,9.925000,0.0,1.000000,0.000000,0.000000,0.000000
1782115904.359076,407711,-1.016113,-0.047363,-0.001953,5.243903,-1.524390,-1.097561,1.556250,30.662500,9.925000,0.0,1.000000,0.000000,0.000000,0.000000
1782115904.368076,407720,-1.008301,-0.051270,0.004883,6.219512,-1.890244,-1.097561,1.443750,30.556250,9.918750,0.0,1.000000,0.000000,0.000000,0.000000
1782115904.378076,407730,-1.010254,-0.055664,0.006348,7.012195,-1.951220,-1.036585,1.443750,30.556250,9.918750,0.0,1.000000,0.000000,0.000000,0.000000
1782115904.389076,407741,-1.006348,-0.047852,0.004395,7.560976,-2.195122,-0.792683,1.387500,30.450001,9.987500,0.0,1.000000,0.000000,0.000000,0.000000
1782115904.399076,407751,-1.001953,-0.032227,0.000977,7.256098,-2.256098,-0.670732,1.387500,30.450001,9.987500,0.0,1.000000,0.000000,0.000000,0.000000
1782115904.409076,407761,-1.006348,-0.015625,0.002930,6.402439,-2.682927,-0.792683,1.443750,30.412500,9.987500,0.0,1.000000,0.000000,0.000000,0.000000
1782115904.419076,407771,-1.008789,-0.009277,0.007324,5.487805,-2.987805,-0.731707,1.418750,30.412500,9.987500,0.0,1.000000,0.000000,0.000000,0.000000
1782115904.429076,407781,-1.002930,-0.004395,0.007812,3.292683,-3.414634,-1.036585,1.418750,30.412500,9.987500,0.0,1.000000,0.000000,0.000000,0.000000
1782115904.440076,407792,-1.000977,-0.008301,0.003906,0.975610,-2.987805,-1.768293,1.418750,30.412500,9.987500,0.0,1.000000,0.000000,0.000000,0.000000
1782115904.448076,407800,-1.012207,-0.012207,0.001953,-1.219512,-3.231707,-2.621951,1.406250,30.356251,10.087501,0.0,1.000000,0.000000,0.000000,0.000000
1782115904.458076,407810,-1.032227,-0.012207,-0.002441,-3.963415,-4.390244,-3.414634,1.400000,30.443750,10.193750,0.0,1.000000,0.000000,0.000000,0.000000
1782115904.468076,407820,-1.023438,-0.010742,-0.008789,-6.829268,-6.707317,-4.024390,1.400000,30.443750,10.193750,0.0,1.000000,0.000000,0.000000,0.000000
1782115904.478076,407830,-1.004883,0.000488,-0.017578,-8.170732,-7.500000,-4.268293,1.200000,30.268751,10.193750,0.0,1.000000,0.000000,0.000000,0.000000
1782115904.488076,407840,-0.990723,0.013672,-0.021484,-9.207317,-6.707317,-3.963415,1.200000,30.268751,10.193750,0.0,1.000000,0.000000,0.000000,0.000000
1782115904.498076,407850,-0.994141,0.017578,-0.020508,-10.000000,-6.463415,-3.109756,1.162500,30.312500,10.218750,0.0,1.000000,0.000000,0.000000,0.000000
1782115904.508076,407860,-0.984863,0.002930,-0.029297,-11.341464,-6.341464,-2.073171,1.162500,30.312500,10.218750,0.0,1.000000,0.000000,0.000000,0.000000
1782115904.518076,407870,-0.974609,-0.013672,-0.029785,-11.402439,-5.487805,-0.365854,1.212500,30.468750,10.350000,0.0,1.000000,0.000000,0.000000,0.000000
1782115904.528076,407880,-0.980469,-0.038574,-0.026367,-10.060976,-4.817073,0.731707,1.212500,30.468750,10.350000,0.0,1.000000,0.000000,0.000000,0.000000
1782115904.538076,407890,-0.997070,-0.062500,-0.019531,-7.682927,-3.597561,1.524390,1.006250,30.318750,10.412500,0.0,1.000000,0.000000,0.000000,0.000000
1782115904.548076,407900,-1.011230,-0.087402,-0.013672,-6.463415,-3.231707,1.707317,1.006250,30.318750,10.412500,0.0,1.000000,0.000000,0.000000,0.000000
1782115904.559076,407911,-1.014160,-0.104492,-0.015625,-6.097561,-2.439024,0.670732,0.893750,30.212500,10.462501,0.0,1.000000,0.000000,0.000000,0.000000
1782115904.568076,407920,-1.008301,-0.095215,-0.021484,-6.341464,-0.975610,-0.731707,0.893750,30.212500,10.462501,0.0,1.000000,0.000000,0.000000,0.000000
1782115904.579076,407931,-1.005371,-0.087402,-0.013672,-6.280488,1.097561,-1.463415,0.906250,30.437500,10.512500,0.0,1.000000,0.000000,0.000000,0.000000
1782115904.589076,407941,-1.004883,-0.069336,0.003418,-5.670732,2.804878,-1.219512,0.906250,30.437500,10.512500,0.0,1.000000,0.000000,0.000000,0.000000
1782115904.598076,407950,-0.997559,-0.064453,0.020508,-4.817073,3.292683,-0.548781,0.775000,30.406250,10.518750,0.0,1.000000,0.000000,0.000000,0.000000
1782115904.608076,407960,-0.992676,-0.066406,0.044434,-3.475610,3.841464,0.182927,0.775000,30.406250,10.518750,0.0,1.000000,0.000000,0.000000,0.000000
1782115904.619076,407971,-0.994141,-0.072754,0.060547,-2.134146,4.146341,0.731707,0.775000,30.475000,10.450000,0.0,1.000000,0.000000,0.000000,0.000000
1782115904.629076,407981,-1.005371,-0.083008,0.062012,-0.487805,4.085366,1.585366,0.775000,30.475000,10.450000,0.0,1.000000,0.000000,0.000000,0.000000
1782115904.638076,407990,-1.009766,-0.091797,0.055664,1.036585,3.658537,2.012195,0.718750,30.412500,10.443750,0.0,1.000000,0.000000,0.000000,0.000000
1782115904.648076,408000,-1.007324,-0.105469,0.053223,2.073171,2.682927,1.524390,0.718750,30.412500,10.443750,0.0,1.000000,0.000000,0.000000,0.000000
1782115904.658076,408010,-1.009277,-0.113770,0.045898,2.439024,2.073171,0.426829,0.712500,30.406250,10.500000,0.0,1.000000,0.000000,0.000000,0.000000
1782115904.668076,408020,-1.006836,-0.113770,0.039551,1.829268,2.073171,-1.280488,0.712500,30.406250,10.500000,0.0,1.000000,0.000000,0.000000,0.000000
1782115904.678076,408030,-1.007812,-0.106934,0.035156,1.158537,2.865854,-2.804878,0.687500,30.400000,10.443750,0.0,1.000000,0.000000,0.000000,0.000000
1782115904.688076,408040,-0.996582,-0.096680,0.035645,0.975610,2.865854,-3.353659,0.687500,30.400000,10.443750,0.0,1.000000,0.000000,0.000000,0.000000
1782115904.698076,408050,-1.005371,-0.085938,0.041504,1.768293,2.926829,-2.804878,0.618750,30.481251,10.487500,0.0,1.000000,0.000000,0.000000,0.000000
1782115904.708076,408060,-1.004395,-0.083008,0.045410,2.865854,1.707317,-2.012195,0.618750,30.481251,10.487500,0.0,1.000000,0.000000,0.000000,0.000000
1782115904.719076,408071,-1.013184,-0.077148,0.049805,4.390244,0.000000,-1.219512,0.643750,30.425001,10.475000,0.0,1.000000,0.000000,0.000000,0.000000
1782115904.728076,408080,-1.017578,-0.061035,0.052734,5.914634,-2.012195,-0.426829,0.643750,30.425001,10.475000,0.0,1.000000,0.000000,0.000000,0.000000
1782115904.738076,408090,-1.010742,-0.046875,0.055176,6.829268,-3.963415,-0.121951,0.675000,30.512501,10.443750,0.0,1.000000,0.000000,0.000000,0.000000
1782115904.748076,408100,-1.005371,-0.043945,0.045898,7.317073,-5.365854,0.121951,0.675000,30.512501,10.443750,0.0,1.000000,0.000000,0.000000,0.000000
1782115904.758076,408110,-1.003906,-0.037598,0.032715,7.317073,-5.609756,0.243902,0.625000,30.412500,10.568750,0.0,1.000000,0.000000,0.000000,0.000000
1782115904.768076,408120,-1.005859,-0.029785,0.025391,6.524390,-5.853659,0.060976,0.743750,30.437500,10.712501,0.0,1.000000,0.000000,0.000000,0.000000
1782115904.778076,408130,-1.005859,-0.018555,0.034180,4.573171,-6.646342,-0.243902,0.743750,30.437500,10.712501,0.0,1.000000,0.000000,0.000000,0.000000
1782115904.788076,408140,-1.009277,-0.029785,0.041504,3.353659,-7.378049,-0.121951,0.637500,30.243750,10.731250,0.0,1.000000,0.000000,0.000000,0.000000
1782115904.798076,408150,-1.001465,-0.034668,0.044434,1.585366,-7.804878,-0.548781,0.637500,30.243750,10.731250,0.0,1.000000,0.000000,0.000000,0.000000
1782115904.808076,408160,-0.989746,-0.041992,0.053223,0.304878,-8.048780,-0.731707,0.700000,30.287500,10.837501,0.0,1.000000,0.000000,0.000000,0.000000
1782115904.818076,408170,-0.988281,-0.052246,0.051758,0.060976,-8.048780,-0.792683,0.700000,30.287500,10.837501,0.0,1.000000,0.000000,0.000000,0.000000
1782115904.828076,408180,-0.990234,-0.066895,0.043945,-0.182927,-7.317073,-0.853659,0.837500,30.437500,11.043750,0.0,1.000000,0.000000,0.000000,0.000000
1782115904.838076,408190,-1.001953,-0.078613,0.036133,-0.731707,-6.402439,-0.731707,0.837500,30.437500,11.043750,0.0,1.000000,0.000000,0.000000,0.000000
1782115904.848076,408200,-1.010254,-0.090332,0.027344,-1.707317,-5.365854,-1.463415,0.668750,30.231251,11.043750,0.0,1.000000,0.000000,0.000000,0.000000
1782115904.858076,408210,-1.017090,-0.095703,0.014160,-3.536585,-3.536585,-2.926829,0.668750,30.231251,11.043750,0.0,1.000000,0.000000,0.000000,0.000000
1782115904.868076,408220,-1.017090,-0.101074,0.003906,-4.695122,-2.865854,-3.902439,0.543750,30.143751,11.150001,0.0,1.000000,0.000000,0.000000,0.000000
1782115904.878076,408230,-1.011719,-0.099609,-0.003906,-4.146341,-3.536585,-4.573171,0.543750,30.143751,11.150001,0.0,1.000000,0.000000,0.000000,0.000000
1782115904.889076,408241,-0.999512,-0.097656,-0.005371,-2.439024,-4.024390,-4.329268,0.506250,30.118750,11.243751,0.0,1.000000,0.000000,0.000000,0.000000
1782115904.898076,408250,-0.990723,-0.083008,-0.010742,-1.646341,-5.670732,-4.146341,0.506250,30.118750,11.243751,0.0,1.000000,0.000000,0.000000,0.000000
1782115904.908076,408260,-0.982422,-0.059082,-0.012207,0.670732,-4.512195,-3.597561,0.393750,30.068750,11.293750,0.0,1.000000,0.000000,0.000000,0.000000
1782115904.918076,408270,-0.979980,-0.039551,-0.006836,1.829268,-3.902439,-1.951220,0.393750,30.068750,11.293750,0.0,1.000000,0.000000,0.000000,0.000000
1782115904.928076,408280,-0.995117,-0.056641,0.000000,3.414634,-3.597561,-0.731707,0.356250,29.993750,11.412500,0.0,1.000000,0.000000,0.000000,0.000000
1782115904.939076,408291,-1.008301,-0.053223,0.015137,5.609756,-4.329268,-0.182927,0.356250,29.993750,11.412500,0.0,1.000000,0.000000,0.000000,0.000000
1782115904.948076,408300,-1.012695,-0.063477,0.019531,7.256098,-5.304878,0.243902,0.300000,29.718750,11.487500,0.0,1.000000,0.000000,0.000000,0.000000
1782115904.958076,408310,-1.016602,-0.069824,0.024414,8.536586,-6.158537,0.670732,0.300000,29.718750,11.487500,0.0,1.000000,0.000000,0.000000,0.000000
1782115904.969076,408321,-1.016113,-0.059082,0.035156,7.378049,-5.975610,0.243902,0.268750,29.562500,11.575000,0.0,1.000000,0.000000,0.000000,0.000000
1782115904.978076,408330,-1.007812,-0.061523,0.044434,5.609756,-5.609756,-0.792683,0.268750,29.562500,11.575000,0.0,1.000000,0.000000,0.000000,0.000000
1782115904.988076,408340,-0.991211,-0.066406,0.047363,4.512195,-4.329268,-2.073171,0.368750,29.656250,11.618751,0.0,1.000000,0.000000,0.000000,0.000000
1782115904.999076,408351,-0.984863,-0.069824,0.050781,3.231707,-2.134146,-2.012195,0.368750,29.656250,11.618751,0.0,1.000000,0.000000,0.000000,0.000000
1782115905.009076,408361,-0.992188,-0.075195,0.065918,3.963415,-0.548781,-1.768293,0.268750,29.568750,11.693750,0.0,1.000000,0.000000,0.000000,0.000000
1782115905.019076,408371,-1.001465,-0.085938,0.076172,5.365854,-0.914634,-1.280488,0.268750,29.568750,11.693750,0.0,1.000000,0.000000,0.000000,0.000000
1782115905.028076,408380,-0.992188,-0.085449,0.072266,5.121951,-0.975610,-1.890244,0.250000,29.675001,11.762500,0.0,1.000000,0.000000,0.000000,0.000000
1782115905.038076,408390,-0.995605,-0.063477,0.075684,4.268293,-0.365854,-1.829268,0.250000,29.675001,11.762500,0.0,1.000000,0.000000,0.000000,0.000000
1782115905.048076,408400,-0.988770,-0.058594,0.070801,4.268293,-0.975610,-0.670732,0.293750,29.700001,11.750000,0.0,1.000000,0.000000,0.000000,0.000000
1782115905.058076,408410,-0.988770,-0.063965,0.069824,6.158537,-1.524390,0.548781,0.368750,29.762501,11.812500,0.0,1.000000,0.000000,0.000000,0.000000
1782115905.068076,408420,-0.993164,-0.084473,0.082520,10.853659,-2.865854,2.256098,0.368750,29.762501,11.812500,0.0,1.000000,0.000000,0.000000,0.000000
1782115905.078076,408430,-0.999512,-0.112793,0.092285,15.548780,-4.695122,3.780488,0.456250,29.725000,11.893750,0.0,1.000000,0.000000,0.000000,0.000000
1782115905.088076,408440,-1.014160,-0.126465,0.101562,18.109756,-7.378049,4.512195,0.456250,29.725000,11.893750,0.0,1.000000,0.000000,0.000000,0.000000
1782115905.098076,408450,-1.015625,-0.133789,0.092773,19.146341,-7.682927,4.024390,0.618750,29.725000,12.081250,0.0,1.000000,0.000000,0.000000,0.000000
1782115905.108076,408460,-1.007324,-0.134766,0.090332,18.719513,-8.170732,3.658537,0.618750,29.725000,12.081250,0.0,1.000000,0.000000,0.000000,0.000000
1782115905.118076,408470,-0.998535,-0.127441,0.086426,18.414635,-7.621952,2.804878,0.775000,29.706251,12.262500,0.0,1.000000,0.000000,0.000000,0.000000
1782115905.128076,408480,-0.998047,-0.118652,0.079590,18.048780,-6.646342,2.439024,0.775000,29.706251,12.262500,0.0,1.000000,0.000000,0.000000,0.000000
1782115905.139076,408491,-0.999512,-0.104492,0.085449,17.804878,-6.036585,1.829268,0.881250,29.581251,12.387500,0.0,1.000000,0.000000,0.000000,0.000000
1782115905.148076,408500,-0.999512,-0.104492,0.085449,17.804878,-6.036585,1.829268,0.881250,29.581251,12.387500,0.0,1.000000,0.000000,0.000000,0.000000
1782115905.158076,408510,-1.003906,-0.093262,0.084961,17.804878,-5.975610,1.463415,1.018750,29.581251,12.512500,0.0,1.000000,0.000000,0.000000,0.000000
1782115905.168076,408520,-1.000977,-0.090820,0.082520,17.256098,-5.731708,0.975610,1.018750,29.581251,12.512500,0.0,1.000000,0.000000,0.000000,0.000000
1782115905.178076,408530,-0.995117,-0.091797,0.081055,15.609756,-5.000000,0.000000,1.131250,29.587500,12.600000,0.0,1.000000,0.000000,0.000000,0.000000
1782115905.188076,408540,-0.991211,-0.095215,0.072754,13.658537,-3.597561,-0.487805,1.131250,29.587500,12.600000,0.0,1.000000,0.000000,0.000000,0.000000
1782115905.198076,408550,-0.994629,-0.107422,0.061523,11.402439,-1.646341,-1.341463,1.137500,29.518751,12.668750,0.0,1.000000,0.000000,0.000000,0.000000
1782115905.208076,408560,-1.001953,-0.116699,0.049316,10.060976,-0.060976,-2.012195,1.137500,29.518751,12.668750,0.0,1.000000,0.000000,0.000000,0.000000
1782115905.219076,408571,-1.004883,-0.112793,0.028320,9.939025,0.975610,-2.743902,1.150000,29.481251,12.750000,0.0,1.000000,0.000000,0.000000,0.000000
1782115905.228076,408580,-1.000000,-0.088867,0.011230,8.536586,2.621951,-2.865854,1.150000,29.481251,12.750000,0.0,1.000000,0.000000,0.000000,0.000000
1782115905.239076,408591,-0.996094,-0.061035,-0.002441,6.463415,3.658537,-2.317073,1.181250,29.437500,12.631250,0.0,1.000000,0.000000,0.000000,0.000000
1782115905.249076,408601,-0.988770,-0.055664,-0.000977,6.402439,4.268293,-0.975610,1.181250,29.437500,12.631250,0.0,1.000000,0.000000,0.000000,0.000000
1782115905.259076,408611,-0.993164,-0.065430,0.006348,6.097561,5.182927,-0.060976,1.281250,29.525000,12.631250,0.0,1.000000,0.000000,0.000000,0.000000
1782115905.269076,408621,-0.997559,-0.052734,0.033203,7.256098,5.792683,0.304878,1.281250,29.525000,12.631250,0.0,1.000000,0.000000,0.000000,0.000000
1782115905.278076,408630,-1.006836,-0.037109,0.074219,7.987805,4.634146,0.792683,1.312500,29.518751,12.581250,0.0,1.000000,0.000000,0.000000,0.000000
1782115905.288076,408640,-1.005371,-0.056152,0.085449,6.219512,3.414634,0.365854,1.312500,29.518751,12.581250,0.0,1.000000,0.000000,0.000000,0.000000
1782115905.298076,408650,-1.001953,-0.060547,0.094727,3.780488,3.414634,-0.853659,1.356250,29.493750,12.531250,0.0,1.000000,0.000000,0.000000,0.000000
1782115905.309076,408661,-1.005371,-0.079590,0.093262,2.926829,2.865854,-1.585366,1.356250,29.493750,12.531250,0.0,1.000000,0.000000,0.000000,0.000000
1782115905.318076,408670,-1.022949,-0.083984,0.084961,1.768293,2.195122,-1.707317,1.256250,29.437500,12.506250,0.0,1.000000,0.000000,0.000000,0.000000
1782115905.329076,408681,-1.015625,-0.083008,0.083984,0.853659,0.243902,-2.073171,1.256250,29.437500,12.506250,0.0,1.000000,0.000000,0.000000,0.000000
1782115905.338076,408690,-1.007812,-0.084473,0.071289,0.243902,-1.829268,-1.890244,1.500000,29.656250,12.550000,0.0,1.000000,0.000000,0.000000,0.000000
1782115905.349076,408701,-0.996094,-0.065430,0.052246,-0.426829,-2.560976,-1.158537,1.168750,29.343750,12.481250,0.0,1.000000,0.000000,0.000000,0.000000
1782115905.358076,408710,-0.976562,-0.047363,0.041016,-1.646341,-2.865854,-0.121951,1.168750,29.343750,12.481250,0.0,1.000000,0.000000,0.000000,0.000000
1782115905.369076,408721,-0.957520,-0.045410,0.035645,-1.890244,-2.256098,0.731707,1.287500,29.512501,12.568750,0.0,1.000000,0.000000,0.000000,0.000000
1782115905.378076,408730,-0.972168,-0.052734,0.038574,-0.670732,-0.426829,2.134146,1.287500,29.512501,12.568750,0.0,1.000000,0.000000,0.000000,0.000000
1782115905.388076,408740,-0.994629,-0.075684,0.043945,1.219512,-0.121951,3.536585,1.250000,29.493750,12.531250,0.0,1.000000,0.000000,0.000000,0.000000
1782115905.398076,408750,-1.012207,-0.105957,0.044434,3.536585,-0.914634,3.780488,1.250000,29.493750,12.531250,0.0,1.000000,0.000000,0.000000,0.000000
1782115905.410076,408762,-1.026855,-0.124023,0.040039,6.097561,-1.646341,3.536585,1.343750,29.450001,12.587501,0.0,1.000000,0.000000,0.000000,0.000000
1782115905.418076,408770,-1.029785,-0.134277,0.030762,8.414635,-2.560976,2.560976,1.343750,29.450001,12.587501,0.0,1.000000,0.000000,0.000000,0.000000
1782115905.428076,408780,-1.024902,-0.132324,0.022949,11.524390,-2.682927,1.585366,1.362500,29.450001,12.662500,0.0,1.000000,0.000000,0.000000,0.000000
1782115905.438076,408790,-1.014648,-0.113770,0.027344,13.414635,-3.109756,0.487805,1.362500,29.450001,12.662500,0.0,1.000000,0.000000,0.000000,0.000000
1782115905.448076,408800,-0.992188,-0.102539,0.024414,13.841464,-2.195122,-0.060976,1.456250,29.375000,12.712501,0.0,1.000000,0.000000,0.000000,0.000000
1782115905.458076,408810,-0.991699,-0.085938,0.036133,14.146341,-1.585366,-0.182927,1.456250,29.375000,12.712501,0.0,1.000000,0.000000,0.000000,0.000000
1782115905.468076,408820,-0.998047,-0.082031,0.055664,16.036585,-2.317073,0.243902,1.556250,29.368750,12.750000,0.0,1.000000,0.000000,0.000000,0.000000
1782115905.479076,408831,-1.000000,-0.080566,0.073242,17.500000,-3.231707,0.853659,1.556250,29.368750,12.750000,0.0,1.000000,0.000000,0.000000,0.000000
1782115905.488076,408840,-1.005859,-0.083496,0.092285,20.060976,-5.304878,1.951220,1.600000,29.343750,12.812500,0.0,1.000000,0.000000,0.000000,0.000000
1782115905.498076,408850,-1.018066,-0.084961,0.104980,22.743902,-7.865854,3.597561,1.600000,29.343750,12.812500,0.0,1.000000,0.000000,0.000000,0.000000
1782115905.508076,408860,-1.015625,-0.083984,0.114258,25.365854,-9.939025,4.939024,1.887500,29.325001,12.968750,0.0,1.000000,0.000000,0.000000,0.000000
1782115905.518076,408870,-1.013184,-0.078125,0.122559,27.012196,-12.804878,5.426829,1.887500,29.325001,12.968750,0.0,1.000000,0.000000,0.000000,0.000000
1782115905.532076,408884,-1.009277,-0.066406,0.120117,26.402439,-14.573171,5.426829,2.012500,29.131250,13.081250,0.0,1.000000,0.000000,0.000000,0.000000
1782115905.538076,408890,-1.006348,-0.062988,0.121582,24.756098,-15.792684,5.853659,2.012500,29.131250,13.081250,0.0,1.000000,0.000000,0.000000,0.000000
1782115905.548076,408900,-0.986816,-0.059082,0.117676,22.560976,-16.036585,5.670732,2.250000,29.168751,13.381250,0.0,1.000000,0.000000,0.000000,0.000000
1782115905.558076,408910,-0.983398,-0.058105,0.110840,20.304878,-15.487805,5.670732,2.250000,29.168751,13.381250,0.0,1.000000,0.000000,0.000000,0.000000
1782115905.569076,408921,-0.988770,-0.054688,0.107910,18.475611,-15.304878,5.243903,2.312500,28.962500,13.550000,0.0,1.000000,0.000000,0.000000,0.000000
1782115905.578076,408930,-0.987793,-0.053711,0.103516,17.134148,-15.365854,4.146341,2.312500,28.962500,13.550000,0.0,1.000000,0.000000,0.000000,0.000000
1782115905.588076,408940,-0.998535,-0.064453,0.092773,15.365854,-14.329268,3.414634,2.443750,28.831251,13.693750,0.0,1.000000,0.000000,0.000000,0.000000
1782115905.598076,408950,-1.008789,-0.077637,0.083008,13.536586,-13.475610,2.926829,2.443750,28.831251,13.693750,0.0,1.000000,0.000000,0.000000,0.000000
1782115905.611076,408963,-1.007812,-0.094238,0.075195,11.036586,-12.621951,2.682927,2.531250,28.743750,13.912500,0.0,1.000000,0.000000,0.000000,0.000000
1782115905.618076,408970,-0.984863,-0.098145,0.053223,8.109756,-10.914635,1.829268,2.531250,28.743750,13.912500,0.0,1.000000,0.000000,0.000000,0.000000
1782115905.629076,408981,-0.980469,-0.074219,0.036133,4.329268,-8.475610,1.280488,2.687500,28.750000,13.968750,0.0,1.000000,0.000000,0.000000,0.000000
1782115905.638076,408990,-0.990723,-0.039551,0.028809,1.158537,-6.585366,2.378049,2.687500,28.750000,13.968750,0.0,1.000000,0.000000,0.000000,0.000000
1782115905.650076,409002,-1.000000,-0.027832,0.042480,0.121951,-7.012195,3.658537,2.618750,28.600000,14.031250,0.0,1.000000,0.000000,0.000000,0.000000
1782115905.658076,409010,-0.984375,-0.031738,0.059082,-0.487805,-7.804878,3.353659,2.612500,28.525000,14.093750,0.0,1.000000,0.000000,0.000000,0.000000
1782115905.668076,409020,-0.972168,-0.036621,0.072754,-0.914634,-5.243903,3.048780,2.612500,28.525000,14.093750,0.0,1.000000,0.000000,0.000000,0.000000
1782115905.679076,409031,-0.993652,-0.041992,0.078125,-2.743902,-3.109756,3.292683,2.525000,28.300001,14.106250,0.0,1.000000,0.000000,0.000000,0.000000
1782115905.691076,409043,-1.001953,-0.046875,0.080078,-3.963415,-1.768293,3.719512,2.525000,28.300001,14.106250,0.0,1.000000,0.000000,0.000000,0.000000
1782115905.698076,409050,-0.993652,-0.055176,0.080566,-5.731708,-0.304878,3.841464,2.500000,28.306250,14.206250,0.0,1.000000,0.000000,0.000000,0.000000
1782115905.708076,409060,-0.989746,-0.053711,0.087402,-5.609756,1.707317,3.902439,2.500000,28.306250,14.206250,0.0,1.000000,0.000000,0.000000,0.000000
1782115905.718076,409070,-0.989258,-0.056152,0.099121,-6.097561,2.865854,3.963415,2.312500,28.143751,14.112500,0.0,1.000000,0.000000,0.000000,0.000000
1782115905.730076,409082,-0.983887,-0.051270,0.106934,-7.560976,4.024390,3.536585,2.312500,28.143751,14.112500,0.0,1.000000,0.000000,0.000000,0.000000
1782115905.738076,409090,-0.984863,-0.044922,0.108398,-8.841464,5.000000,3.231707,2.350000,28.268751,14.062500,0.0,1.000000,0.000000,0.000000,0.000000
1782115905.748076,409100,-0.998535,-0.041016,0.117676,-9.207317,4.878049,4.329268,2.350000,28.268751,14.062500,0.0,1.000000,0.000000,0.000000,0.000000
1782115905.759076,409111,-0.998535,-0.041016,0.127930,-8.780488,2.987805,5.914634,2.281250,28.325001,13.962501,0.0,1.000000,0.000000,0.000000,0.000000
1782115905.770076,409122,-1.002930,-0.039551,0.145508,-8.597561,0.365854,6.707317,2.281250,28.325001,13.962501,0.0,1.000000,0.000000,0.000000,0.000000
1782115905.778076,409130,-0.997070,-0.041016,0.139160,-9.329268,-1.402439,7.134147,2.250000,28.506250,13.975000,0.0,1.000000,0.000000,0.000000,0.000000
1782115905.788076,409140,-0.988770,-0.037109,0.131836,-10.182927,-1.036585,7.682927,2.250000,28.506250,13.975000,0.0,1.000000,0.000000,0.000000,0.000000
1782115905.798076,409150,-0.987793,-0.042969,0.128906,-10.365854,-0.365854,8.353659,2.118750,28.362501,13.881250,0.0,1.000000,0.000000,0.000000,0.000000
1782115905.810076,409162,-0.988770,-0.055176,0.126953,-10.060976,0.426829,8.658537,2.118750,28.362501,13.881250,0.0,1.000000,0.000000,0.000000,0.000000
1782115905.819076,409171,-0.984375,-0.065430,0.125977,-9.939025,1.890244,8.597561,2.125000,28.462500,13.887500,0.0,1.000000,0.000000,0.000000,0.000000
1782115905.828076,409180,-0.986328,-0.059082,0.122559,-10.853659,3.902439,8.536586,2.125000,28.462500,13.887500,0.0,1.000000,0.000000,0.000000,0.000000
1782115905.839076,409191,-0.992188,-0.052246,0.127930,-12.439025,4.939024,7.987805,1.981250,28.406250,13.812500,0.0,1.000000,0.000000,0.000000,0.000000
1782115905.850076,409202,-0.990234,-0.041016,0.139648,-13.902439,6.158537,7.073171,1.981250,28.406250,13.812500,0.0,1.000000,0.000000,0.000000,0.000000
1782115905.858076,409210,-0.987793,-0.054199,0.152344,-13.963415,8.170732,6.158537,2.000000,28.587500,13.693750,0.0,1.000000,0.000000,0.000000,0.000000
1782115905.868076,409220,-0.991699,-0.075195,0.163086,-12.682927,9.878049,5.182927,2.000000,28.587500,13.693750,0.0,1.000000,0.000000,0.000000,0.000000
1782115905.878076,409230,-0.997559,-0.092285,0.156738,-12.256098,11.585366,4.207317,1.793750,28.656250,13.637500,0.0,1.000000,0.000000,0.000000,0.000000
1782115905.889076,409241,-1.001465,-0.094727,0.148438,-11.585366,12.743903,3.475610,1.793750,28.656250,13.637500,0.0,1.000000,0.000000,0.000000,0.000000
1782115905.898076,409250,-0.998047,-0.092773,0.125977,-11.036586,13.536586,2.439024,1.706250,28.806250,13.468750,0.0,1.000000,0.000000,0.000000,0.000000
1782115905.908076,409260,-0.990723,-0.081055,0.107422,-11.097561,15.243903,1.341463,1.706250,28.806250,13.468750,0.0,1.000000,0.000000,0.000000,0.000000
1782115905.918076,409270,-0.991211,-0.075195,0.093750,-11.158537,17.560976,0.853659,1.625000,29.012501,13.243751,0.0,1.000000,0.000000,0.000000,0.000000
1782115905.929076,409281,-0.987793,-0.066895,0.078613,-10.853659,19.695122,0.853659,1.625000,29.012501,13.243751,0.0,1.000000,0.000000,0.000000,0.000000
1782115905.938076,409290,-0.986328,-0.053223,0.075684,-10.121951,21.524391,1.280488,1.525000,29.106251,13.075000,0.0,1.000000,0.000000,0.000000,0.000000
1782115905.948076,409300,-0.995605,-0.046875,0.079590,-10.060976,22.621952,1.951220,1.525000,29.106251,13.075000,0.0,1.000000,0.000000,0.000000,0.000000
1782115905.958076,409310,-1.004395,-0.044434,0.083496,-9.817074,22.560976,2.500000,1.562500,29.337500,12.806251,0.0,1.000000,0.000000,0.000000,0.000000
1782115905.968076,409320,-1.005371,-0.041016,0.086914,-9.207317,21.768293,2.560976,1.462500,29.481251,12.456250,0.0,1.000000,0.000000,0.000000,0.000000
1782115905.979076,409331,-1.001953,-0.034180,0.086914,-9.451220,21.341463,2.439024,1.462500,29.481251,12.456250,0.0,1.000000,0.000000,0.000000,0.000000
1782115905.988076,409340,-1.001953,-0.034180,0.086914,-9.451220,21.341463,2.439024,1.656250,29.831251,12.275001,0.0,1.000000,0.000000,0.000000,0.000000
1782115905.998076,409350,-1.003906,-0.021973,0.086914,-10.304878,20.731709,2.500000,1.656250,29.831251,12.275001,0.0,1.000000,0.000000,0.000000,0.000000
1782115906.010076,409362,-1.003906,-0.014160,0.087891,-11.219512,19.390244,2.621951,1.325000,29.656250,11.987500,0.0,1.000000,0.000000,0.000000,0.000000
1782115906.018076,409370,-1.002930,-0.015137,0.089844,-11.707317,18.353659,2.987805,1.325000,29.656250,11.987500,0.0,1.000000,0.000000,0.000000,0.000000
1782115906.028076,409380,-1.007812,-0.018555,0.096191,-12.256098,16.890244,3.109756,1.256250,29.725000,11.775001,0.0,1.000000,0.000000,0.000000,0.000000
1782115906.038076,409390,-1.013184,-0.029297,0.099609,-13.475610,15.182927,2.865854,1.256250,29.725000,11.775001,0.0,1.000000,0.000000,0.000000,0.000000
1782115906.051076,409403,-1.011719,-0.043945,0.097656,-13.658537,13.780488,2.317073,1.112500,29.806250,11.593750,0.0,1.000000,0.000000,0.000000,0.000000
1782115906.059076,409411,-1.012695,-0.067871,0.081055,-11.768293,9.024390,1.280488,1.112500,29.806250,11.593750,0.0,1.000000,0.000000,0.000000,0.000000
1782115906.068076,409420,-1.012695,-0.067871,0.081055,-11.768293,9.024390,1.280488,1.012500,29.725000,11.400001,0.0,1.000000,0.000000,0.000000,0.000000
1782115906.079076,409431,-1.005859,-0.066895,0.067383,-11.402439,7.378049,1.280488,1.012500,29.725000,11.400001,0.0,1.000000,0.000000,0.000000,0.000000
1782115906.088076,409440,-1.004395,-0.060547,0.055664,-12.682927,6.585366,1.768293,0.868750,29.806250,11.312500,0.0,1.000000,0.000000,0.000000,0.000000
1782115906.099076,409451,-0.996094,-0.060547,0.037598,-15.060976,6.890244,1.646341,0.868750,29.806250,11.312500,0.0,1.000000,0.000000,0.000000,0.000000
1782115906.108076,409460,-0.992188,-0.052734,0.017090,-17.378050,8.475610,1.341463,0.818750,29.925001,11.175000,0.0,1.000000,0.000000,0.000000,0.000000
1782115906.118076,409470,-0.991699,-0.048828,-0.000977,-18.536585,10.731708,1.097561,0.818750,29.925001,11.175000,0.0,1.000000,0.000000,0.000000,0.000000
1782115906.128076,409480,-0.996094,-0.054688,-0.003418,-17.317074,12.682927,1.097561,0.681250,29.975000,10.943750,0.0,1.000000,0.000000,0.000000,0.000000
1782115906.138076,409490,-1.002930,-0.058105,-0.005859,-14.939025,13.536586,1.524390,0.681250,29.975000,10.943750,0.0,1.000000,0.000000,0.000000,0.000000
1782115906.148076,409500,-1.006836,-0.056152,0.000000,-11.707317,12.439025,2.439024,0.631250,30.062500,10.787500,0.0,1.000000,0.000000,0.000000,0.000000
1782115906.158076,409510,-1.011719,-0.039551,0.008789,-9.329268,10.182927,2.500000,0.631250,30.062500,10.787500,0.0,1.000000,0.000000,0.000000,0.000000
1782115906.168076,409520,-1.005371,-0.035156,0.012695,-8.231708,8.414635,2.073171,0.518750,30.000000,10.593750,0.0,1.000000,0.000000,0.000000,0.000000
1782115906.178076,409530,-1.000000,-0.029297,0.018066,-7.926829,7.378049,1.829268,0.518750,30.000000,10.593750,0.0,1.000000,0.000000,0.000000,0.000000
1782115906.188076,409540,-0.997559,-0.032715,0.021484,-7.560976,6.402439,1.829268,0.487500,30.075001,10.487500,0.0,1.000000,0.000000,0.000000,0.000000
1782115906.198076,409550,-0.993652,-0.033691,0.017578,-7.621952,6.280488,1.341463,0.487500,30.075001,10.487500,0.0,1.000000,0.000000,0.000000,0.000000
1782115906.208076,409560,-0.998047,-0.036133,0.012207,-8.109756,6.585366,0.914634,0.262500,30.006250,10.368751,0.0,1.000000,0.000000,0.000000,0.000000
1782115906.219076,409571,-1.000977,-0.032715,-0.000977,-8.658537,6.890244,0.121951,0.262500,30.006250,10.368751,0.0,1.000000,0.000000,0.000000,0.000000
1782115906.228076,409580,-1.007812,-0.023926,-0.010742,-9.146341,7.926829,-0.487805,0.287500,30.112501,10.312500,0.0,1.000000,0.000000,0.000000,0.000000
1782115906.238076,409590,-1.016113,-0.022949,-0.015137,-8.841464,8.536586,-1.280488,0.287500,30.112501,10.312500,0.0,1.000000,0.000000,0.000000,0.000000
1782115906.249076,409601,-1.015137,-0.027344,-0.018066,-7.073171,8.597561,-1.951220,0.175000,30.131250,10.131250,0.0,1.000000,0.000000,0.000000,0.000000
1782115906.258076,409610,-1.015625,-0.028809,-0.022949,-3.963415,8.963415,-1.951220,0.175000,30.131250,10.131250,0.0,1.000000,0.000000,0.000000,0.000000
1782115906.268076,409620,-1.021973,-0.028809,-0.016602,0.487805,8.109756,-1.829268,0.175000,30.287500,10.050000,0.0,1.000000,0.000000,0.000000,0.000000
1782115906.278076,409630,-1.021484,-0.044922,-0.021973,5.243903,6.646342,-1.402439,0.250000,30.425001,10.018750,0.0,1.000000,0.000000,0.000000,0.000000
1782115906.288076,409640,-1.012695,-0.055664,-0.028320,7.378049,5.853659,-1.463415,0.250000,30.425001,10.018750,0.0,1.000000,0.000000,0.000000,0.000000
1782115906.298076,409650,-0.996582,-0.056152,-0.035156,6.707317,6.585366,-1.829268,0.237500,30.362501,9.925000,0.0,1.000000,0.000000,0.000000,0.000000
1782115906.308076,409660,-0.984375,-0.041016,-0.041504,4.756098,7.378049,-1.585366,0.237500,30.362501,9.925000,0.0,1.000000,0.000000,0.000000,0.000000
1782115906.318076,409670,-0.993652,-0.041016,-0.058105,3.353659,8.475610,-0.609756,0.256250,30.400000,9.843750,0.0,1.000000,0.000000,0.000000,0.000000
1782115906.328076,409680,-0.991699,-0.022461,-0.061523,2.317073,8.597561,0.609756,0.256250,30.400000,9.843750,0.0,1.000000,0.000000,0.000000,0.000000
1782115906.338076,409690,-1.005371,-0.020508,-0.061035,1.890244,9.451220,0.731707,0.268750,30.450001,9.725000,0.0,1.000000,0.000000,0.000000,0.000000
1782115906.348076,409700,-1.002441,-0.012207,-0.050781,0.426829,9.878049,0.853659,0.268750,30.450001,9.725000,0.0,1.000000,0.000000,0.000000,0.000000
1782115906.358076,409710,-1.005371,-0.006348,-0.044434,-1.341463,9.695122,1.097561,0.331250,30.393751,9.525001,0.0,1.000000,0.000000,0.000000,0.000000
1782115906.368076,409720,-1.006836,-0.005371,-0.041504,-2.804878,9.390244,1.585366,0.331250,30.393751,9.525001,0.0,1.000000,0.000000,0.000000,0.000000
1782115906.378076,409730,-1.004883,-0.007812,-0.031250,-3.841464,8.719512,2.195122,0.268750,30.456251,9.337501,0.0,1.000000,0.000000,0.000000,0.000000
1782115906.388076,409740,-1.009766,-0.005371,-0.021973,-5.487805,7.926829,2.500000,0.268750,30.456251,9.337501,0.0,1.000000,0.000000,0.000000,0.000000
1782115906.398076,409750,-1.008789,-0.002930,-0.014648,-6.280488,6.829268,2.682927,0.231250,30.343750,9.293750,0.0,1.000000,0.000000,0.000000,0.000000
1782115906.409076,409761,-1.008301,-0.010254,-0.003906,-6.829268,5.548780,1.951220,0.231250,30.343750,9.293750,0.0,1.000000,0.000000,0.000000,0.000000
1782115906.418076,409770,-1.004395,-0.023926,0.004395,-7.256098,4.756098,0.731707,0.237500,30.362501,9.062500,0.0,1.000000,0.000000,0.000000,0.000000
1782115906.429076,409781,-1.004883,-0.039062,0.004883,-7.195122,4.756098,-0.182927,0.237500,30.362501,9.062500,0.0,1.000000,0.000000,0.000000,0.000000
1782115906.438076,409790,-1.003418,-0.044922,-0.003418,-6.646342,5.426829,-0.731707,0.112500,30.431250,8.981250,0.0,1.000000,0.000000,0.000000,0.000000
1782115906.451076,409803,-1.012207,-0.047363,-0.004395,-5.365854,5.426829,-0.548781,0.112500,30.431250,8.981250,0.0,1.000000,0.000000,0.000000,0.000000
1782115906.460076,409812,-1.021484,-0.051270,-0.007812,-3.475610,4.695122,0.304878,0.062500,30.531250,8.900001,0.0,1.000000,0.000000,0.000000,0.000000
1782115906.468076,409820,-1.020996,-0.055664,-0.012207,-1.097561,2.804878,0.304878,0.062500,30.531250,8.900001,0.0,1.000000,0.000000,0.000000,0.000000
1782115906.479076,409831,-1.018066,-0.059570,-0.021484,0.365854,1.463415,-0.121951,0.056250,30.668751,8.887500,0.0,1.000000,0.000000,0.000000,0.000000
1782115906.488076,409840,-1.013184,-0.057617,-0.036621,1.524390,0.670732,-0.426829,0.056250,30.668751,8.887500,0.0,1.000000,0.000000,0.000000,0.000000
1782115906.499076,409851,-1.005859,-0.054199,-0.044922,2.743902,-0.060976,-0.792683,0.037500,30.731251,8.856250,0.0,1.000000,0.000000,0.000000,0.000000
1782115906.508076,409860,-1.000488,-0.054688,-0.056152,3.414634,-0.487805,-0.914634,0.037500,30.731251,8.856250,0.0,1.000000,0.000000,0.000000,0.000000
1782115906.518076,409870,-1.001953,-0.048828,-0.065430,4.268293,0.121951,-0.304878,0.418750,31.100000,8.950000,0.0,1.000000,0.000000,0.000000,0.000000
1782115906.529076,409881,-1.009277,-0.048340,-0.062500,4.817073,0.365854,0.548781,0.418750,31.100000,8.950000,0.0,1.000000,0.000000,0.000000,0.000000
1782115906.539076,409891,-1.011230,-0.045898,-0.059082,4.695122,0.548781,0.914634,0.112500,30.893751,8.906250,0.0,1.000000,0.000000,0.000000,0.000000
1782115906.548076,409900,-1.008301,-0.037598,-0.062500,3.475610,1.402439,1.097561,0.112500,30.893751,8.906250,0.0,1.000000,0.000000,0.000000,0.000000
1782115906.558076,409910,-1.009277,-0.028809,-0.070312,2.256098,2.012195,1.463415,0.562500,31.212500,9.012500,0.0,1.000000,0.000000,0.000000,0.000000
1782115906.569076,409921,-1.009766,-0.020020,-0.081055,0.487805,2.256098,2.073171,0.187500,30.762501,8.881250,0.0,1.000000,0.000000,0.000000,0.000000
1782115906.578076,409930,-1.004883,-0.010742,-0.084473,-0.670732,2.256098,2.560976,0.187500,30.762501,8.881250,0.0,1.000000,0.000000,0.000000,0.000000
1782115906.588076,409940,-1.002930,-0.006836,-0.083984,-1.829268,2.012195,2.378049,0.218750,30.768751,8.812500,0.0,1.000000,0.000000,0.000000,0.000000
1782115906.598076,409950,-1.000977,-0.010742,-0.085938,-3.414634,2.378049,1.768293,0.218750,30.768751,8.812500,0.0,1.000000,0.000000,0.000000,0.000000
1782115906.608076,409960,-1.004883,-0.006348,-0.081055,-5.853659,3.780488,0.853659,0.381250,30.862501,8.743751,0.0,1.000000,0.000000,0.000000,0.000000
1782115906.618076,409970,-1.020996,-0.006348,-0.078613,-8.475610,4.329268,0.365854,0.381250,30.862501,8.743751,0.0,1.000000,0.000000,0.000000,0.000000
1782115906.628076,409980,-1.029785,-0.011719,-0.075195,-11.036586,3.658537,0.365854,0.268750,30.756250,8.687500,0.0,1.000000,0.000000,0.000000,0.000000
1782115906.638076,409990,-1.020996,-0.009766,-0.069824,-12.926829,2.134146,0.975610,0.268750,30.756250,8.687500,0.0,1.000000,0.000000,0.000000,0.000000
1782115906.648076,410000,-1.016602,0.000977,-0.065430,-14.207317,-0.670732,1.707317,0.106250,30.656250,8.543750,0.0,1.000000,0.000000,0.000000,0.000000
1782115906.659076,410011,-1.010254,0.006348,-0.070801,-15.365854,-2.439024,2.500000,0.106250,30.656250,8.543750,0.0,1.000000,0.000000,0.000000,0.000000
1782115906.668076,410020,-1.016113,0.000977,-0.080566,-16.280489,-3.109756,2.560976,0.218750,30.918751,8.575000,0.0,1.000000,0.000000,0.000000,0.000000
1782115906.678076,410030,-0.996582,-0.005859,-0.084473,-17.865854,-3.658537,2.621951,0.218750,30.918751,8.575000,0.0,1.000000,0.000000,0.000000,0.000000
1782115906.688076,410040,-0.991699,-0.021484,-0.094727,-18.597561,-3.292683,2.804878,0.050000,30.943750,8.500000,0.0,1.000000,0.000000,0.000000,0.000000
1782115906.698076,410050,-0.994629,-0.033203,-0.102539,-19.634148,-2.500000,3.414634,0.050000,30.943750,8.500000,0.0,1.000000,0.000000,0.000000,0.000000
1782115906.708076,410060,-1.002930,-0.050293,-0.100586,-19.573172,-3.048780,3.658537,-0.018750,31.006250,8.462501,0.0,1.000000,0.000000,0.000000,0.000000
1782115906.718076,410070,-1.000000,-0.070801,-0.095703,-19.146341,-3.536585,2.743902,-0.018750,31.006250,8.462501,0.0,1.000000,0.000000,0.000000,0.000000
1782115906.728076,410080,-0.992188,-0.078613,-0.092285,-19.329269,-2.439024,1.707317,-0.137500,31.025000,8.350000,0.0,1.000000,0.000000,0.000000,0.000000
1782115906.738076,410090,-0.991699,-0.079102,-0.089844,-19.817074,-0.792683,0.670732,-0.137500,31.025000,8.350000,0.0,1.000000,0.000000,0.000000,0.000000
1782115906.748076,410100,-0.996582,-0.071777,-0.087891,-20.304878,0.853659,0.487805,-0.331250,31.031250,8.318750,0.0,1.000000,0.000000,0.000000,0.000000
1782115906.758076,410110,-1.003418,-0.066895,-0.083984,-20.304878,1.524390,1.097561,-0.331250,31.031250,8.318750,0.0,1.000000,0.000000,0.000000,0.000000
1782115906.768076,410120,-1.003418,-0.058105,-0.073242,-19.878050,1.524390,1.158537,-0.375000,31.081251,8.193750,0.0,1.000000,0.000000,0.000000,0.000000
1782115906.778076,410130,-1.010254,-0.042969,-0.062988,-18.902439,1.280488,1.707317,-0.375000,31.081251,8.193750,0.0,1.000000,0.000000,0.000000,0.000000
1782115906.788076,410140,-1.011230,-0.033203,-0.052246,-18.292683,0.853659,1.890244,-0.425000,31.112501,8.175000,0.0,1.000000,0.000000,0.000000,0.000000
1782115906.798076,410150,-1.007324,-0.026855,-0.046875,-18.109756,0.365854,1.585366,-0.425000,31.112501,8.175000,0.0,1.000000,0.000000,0.000000,0.000000
1782115906.808076,410160,-1.006836,-0.024902,-0.045410,-17.743902,0.000000,1.585366,-0.631250,30.925001,8.087501,0.0,1.000000,0.000000,0.000000,0.000000
1782115906.818076,410170,-1.006836,-0.024414,-0.042969,-17.073172,-0.853659,1.646341,-0.631250,30.925001,8.087501,0.0,1.000000,0.000000,0.000000,0.000000
1782115906.828076,410180,-1.006348,-0.025391,-0.034668,-16.036585,-2.317073,1.707317,-0.706250,30.975000,8.087501,0.0,1.000000,0.000000,0.000000,0.000000
1782115906.838076,410190,-1.006348,-0.025391,-0.034668,-16.036585,-2.317073,1.707317,-0.706250,30.975000,8.087501,0.0,1.000000,0.000000,0.000000,0.000000
1782115906.848076,410200,-1.002930,-0.031738,-0.024414,-15.060976,-3.231707,1.707317,-0.900000,30.875000,8.025001,0.0,1.000000,0.000000,0.000000,0.000000
1782115906.858076,410210,-1.003418,-0.042969,-0.015625,-14.207317,-4.207317,1.219512,-0.893750,31.031250,8.050000,0.0,1.000000,0.000000,0.000000,0.000000
1782115906.868076,410220,-0.996582,-0.048340,-0.020020,-14.817074,-4.146341,0.121951,-0.893750,31.031250,8.050000,0.0,1.000000,0.000000,0.000000,0.000000
1782115906.879076,410231,-1.000488,-0.049805,-0.018555,-15.243903,-3.292683,-0.121951,-1.112500,30.875000,7.962500,0.0,1.000000,0.000000,0.000000,0.000000
1782115906.888076,410240,-1.001953,-0.056152,-0.010742,-14.573171,-3.475610,0.000000,-1.112500,30.875000,7.962500,0.0,1.000000,0.000000,0.000000,0.000000
1782115906.898076,410250,-1.009766,-0.059570,0.001953,-13.719513,-4.146341,0.426829,-1.018750,31.056250,8.062500,0.0,1.000000,0.000000,0.000000,0.000000
1782115906.908076,410260,-1.011230,-0.062012,0.010742,-12.500000,-5.182927,0.487805,-1.018750,31.056250,8.062500,0.0,1.000000,0.000000,0.000000,0.000000
1782115906.918076,410270,-1.012695,-0.061035,0.018066,-11.219512,-6.768293,0.000000,-1.256250,30.893751,8.062500,0.0,1.000000,0.000000,0.000000,0.000000
1782115906.928076,410280,-1.016602,-0.056152,0.016602,-9.695122,-7.987805,-0.182927,-1.256250,30.893751,8.062500,0.0,1.000000,0.000000,0.000000,0.000000
1782115906.938076,410290,-1.012207,-0.051270,0.006348,-8.597561,-9.146341,-0.121951,-1.243750,30.968750,8.168750,0.0,1.000000,0.000000,0.000000,0.000000
1782115906.948076,410300,-1.002930,-0.042480,-0.004883,-7.865854,-9.573171,0.060976,-1.243750,30.968750,8.168750,0.0,1.000000,0.000000,0.000000,0.000000
1782115906.958076,410310,-0.997559,-0.040527,-0.005859,-6.585366,-9.939025,-0.182927,-1.275000,30.937500,8.237500,0.0,1.000000,0.000000,0.000000,0.000000
1782115906.968076,410320,-0.991699,-0.048828,-0.008789,-5.731708,-9.207317,-0.548781,-1.275000,30.937500,8.237500,0.0,1.000000,0.000000,0.000000,0.000000
1782115906.979076,410331,-0.986328,-0.047363,-0.008789,-5.487805,-7.682927,-1.036585,-1.331250,30.937500,8.300000,0.0,1.000000,0.000000,0.000000,0.000000
1782115906.989076,410341,-1.000000,-0.042480,-0.002441,-4.878049,-6.219512,-1.036585,-1.331250,30.937500,8.300000,0.0,1.000000,0.000000,0.000000,0.000000
1782115906.998076,410350,-1.008301,-0.043457,0.000977,-4.390244,-5.670732,-0.609756,-1.443750,30.912500,8.406250,0.0,1.000000,0.000000,0.000000,0.000000
1782115907.009076,410361,-1.015137,-0.045410,0.002441,-4.146341,-5.792683,-0.304878,-1.443750,30.912500,8.406250,0.0,1.000000,0.000000,0.000000,0.000000
1782115907.019076,410371,-1.007812,-0.042480,0.002441,-3.475610,-6.890244,-0.182927,-1.518750,30.856251,8.462501,0.0,1.000000,0.000000,0.000000,0.000000
1782115907.029076,410381,-1.013672,-0.034668,0.006348,-3.048780,-7.682927,0.000000,-1.518750,30.856251,8.462501,0.0,1.000000,0.000000,0.000000,0.000000
1782115907.039076,410391,-1.003418,-0.036621,0.006836,-2.987805,-8.597561,-0.731707,-1.456250,30.887501,8.425000,0.0,1.000000,0.000000,0.000000,0.000000
1782115907.049076,410401,-0.991211,-0.038086,-0.004395,-3.658537,-7.743903,-2.012195,-1.456250,30.887501,8.425000,0.0,1.000000,0.000000,0.000000,0.000000
1782115907.058076,410410,-0.991211,-0.040039,-0.009277,-3.536585,-5.487805,-2.560976,-1.581250,30.768751,8.568750,0.0,1.000000,0.000000,0.000000,0.000000
1782115907.069076,410421,-0.997070,-0.054199,-0.007812,-3.170732,-4.146341,-2.378049,-1.581250,30.768751,8.568750,0.0,1.000000,0.000000,0.000000,0.000000
1782115907.078076,410430,-1.004395,-0.062500,0.003906,-1.829268,-3.414634,-2.134146,-1.568750,30.762501,8.625000,0.0,1.000000,0.000000,0.000000,0.000000
1782115907.088076,410440,-1.006836,-0.063965,0.014160,-0.365854,-3.597561,-1.890244,-1.568750,30.762501,8.625000,0.0,1.000000,0.000000,0.000000,0.000000
1782115907.098076,410450,-1.008301,-0.066895,0.015137,0.792683,-4.512195,-1.951220,-1.718750,30.600000,8.656250,0.0,1.000000,0.000000,0.000000,0.000000
1782115907.108076,410460,-1.006836,-0.070312,0.013184,1.585366,-4.695122,-2.073171,-1.718750,30.600000,8.656250,0.0,1.000000,0.000000,0.000000,0.000000
1782115907.118076,410470,-0.994629,-0.072754,0.004883,1.951220,-4.573171,-2.256098,-1.675000,30.637501,8.687500,0.0,1.000000,0.000000,0.000000,0.000000
1782115907.128076,410480,-0.990723,-0.058594,-0.003906,1.890244,-3.780488,-2.134146,-1.675000,30.637501,8.687500,0.0,1.000000,0.000000,0.000000,0.000000
1782115907.139076,410491,-0.995605,-0.051758,0.000977,2.743902,-3.597561,-1.341463,-1.706250,30.581251,8.725000,0.0,1.000000,0.000000,0.000000,0.000000
1782115907.148076,410500,-1.000488,-0.048340,0.006348,3.597561,-3.841464,-1.097561,-1.706250,30.581251,8.725000,0.0,1.000000,0.000000,0.000000,0.000000
1782115907.158076,410510,-1.005859,-0.041016,0.013184,3.353659,-4.451220,-1.097561,-1.450000,30.806250,8.806251,0.0,1.000000,0.000000,0.000000,0.000000
1782115907.168076,410520,-1.001465,-0.037598,0.020020,2.926829,-4.695122,-1.280488,-1.387500,30.800001,8.893750,0.0,1.000000,0.000000,0.000000,0.000000
1782115907.178076,410530,-0.996094,-0.039551,0.023926,2.073171,-3.658537,-1.707317,-1.387500,30.800001,8.893750,0.0,1.000000,0.000000,0.000000,0.000000
1782115907.188076,410540,-0.998047,-0.035156,0.024902,1.585366,-3.292683,-1.219512,-1.600000,30.600000,8.843750,0.0,1.000000,0.000000,0.000000,0.000000
1782115907.198076,410550,-1.004395,-0.038086,0.033691,2.134146,-3.536585,-0.548781,-1.600000,30.600000,8.843750,0.0,1.000000,0.000000,0.000000,0.000000
1782115907.208076,410560,-1.004883,-0.044434,0.038086,3.170732,-4.268293,0.121951,-1.712500,30.481251,8.893750,0.0,1.000000,0.000000,0.000000,0.000000
1782115907.218076,410570,-1.006836,-0.048828,0.041992,3.353659,-4.634146,0.365854,-1.712500,30.481251,8.893750,0.0,1.000000,0.000000,0.000000,0.000000
1782115907.228076,410580,-1.004883,-0.051270,0.037109,2.560976,-4.756098,-0.304878,-1.662500,30.431250,8.943750,0.0,1.000000,0.000000,0.000000,0.000000
1782115907.238076,410590,-0.999512,-0.048340,0.032227,1.036585,-4.390244,-1.402439,-1.662500,30.431250,8.943750,0.0,1.000000,0.000000,0.000000,0.000000
1782115907.248076,410600,-0.992676,-0.064941,0.027344,0.121951,-4.329268,-2.621951,-1.531250,30.612501,9.043750,0.0,1.000000,0.000000,0.000000,0.000000
1782115907.260076,410612,-0.985840,-0.081543,0.020020,-0.426829,-3.902439,-3.231707,-1.531250,30.612501,9.043750,0.0,1.000000,0.000000,0.000000,0.000000
1782115907.268076,410620,-0.987793,-0.099121,0.016113,0.426829,-3.780488,-3.353659,-1.687500,30.406250,9.006250,0.0,1.000000,0.000000,0.000000,0.000000
1782115907.278076,410630,-0.997559,-0.091797,0.023926,1.158537,-3.536585,-3.414634,-1.687500,30.406250,9.006250,0.0,1.000000,0.000000,0.000000,0.000000
1782115907.288076,410640,-1.003906,-0.092773,0.030762,0.304878,-3.109756,-3.780488,-1.443750,30.650000,9.112500,0.0,1.000000,0.000000,0.000000,0.000000
1782115907.300076,410652,-1.004883,-0.102539,0.023926,0.426829,-3.109756,-3.719512,-1.443750,30.650000,9.112500,0.0,1.000000,0.000000,0.000000,0.000000
1782115907.308076,410660,-1.006348,-0.098145,0.020508,2.439024,-3.292683,-3.048780,-1.606250,30.506250,9.112500,0.0,1.000000,0.000000,0.000000,0.000000
1782115907.318076,410670,-1.012695,-0.087402,0.025879,5.060976,-3.841464,-2.012195,-1.606250,30.506250,9.112500,0.0,1.000000,0.000000,0.000000,0.000000
1782115907.328076,410680,-1.016602,-0.093262,0.028320,7.134147,-5.304878,-1.036585,-1.500000,30.562500,9.187500,0.0,1.000000,0.000000,0.000000,0.000000
1782115907.339076,410691,-1.008789,-0.082520,0.023926,8.414635,-6.951220,-0.670732,-1.500000,30.562500,9.187500,0.0,1.000000,0.000000,0.000000,0.000000
1782115907.348076,410700,-1.003418,-0.060059,0.021973,8.414635,-7.439024,-0.670732,-1.606250,30.343750,9.300000,0.0,1.000000,0.000000,0.000000,0.000000
1782115907.358076,410710,-0.993652,-0.043457,0.013184,6.646342,-6.463415,-0.548781,-1.606250,30.343750,9.300000,0.0,1.000000,0.000000,0.000000,0.000000
1782115907.369076,410721,-0.984863,-0.040527,0.012695,5.182927,-5.060976,-0.304878,-1.668750,30.243750,9.375000,0.0,1.000000,0.000000,0.000000,0.000000
1782115907.379076,410731,-0.980469,-0.042480,0.015625,3.902439,-3.536585,-0.426829,-1.668750,30.243750,9.375000,0.0,1.000000,0.000000,0.000000,0.000000
1782115907.388076,410740,-0.987793,-0.046875,0.018555,3.292683,-1.890244,-0.121951,-1.675000,30.200001,9.387500,0.0,1.000000,0.000000,0.000000,0.000000
1782115907.398076,410750,-0.998535,-0.059570,0.021973,2.682927,-1.524390,-0.426829,-1.675000,30.200001,9.387500,0.0,1.000000,0.000000,0.000000,0.000000
1782115907.408076,410760,-0.992676,-0.061035,0.025391,1.402439,-0.670732,-1.402439,-1.681250,30.193750,9.456250,0.0,1.000000,0.000000,0.000000,0.000000
1782115907.418076,410770,-0.991699,-0.056152,0.029297,-0.426829,1.036585,-2.195122,-1.681250,30.193750,9.456250,0.0,1.000000,0.000000,0.000000,0.000000
1782115907.429076,410781,-0.997559,-0.077637,0.024902,-1.951220,2.682927,-2.804878,-1.650000,30.193750,9.456250,0.0,1.000000,0.000000,0.000000,0.000000
1782115907.439076,410791,-1.005371,-0.088379,0.018066,-2.134146,3.475610,-2.804878,-1.662500,30.250000,9.368751,0.0,1.000000,0.000000,0.000000,0.000000
1782115907.448076,410800,-1.008301,-0.093262,0.018555,-0.609756,3.658537,-2.682927,-1.662500,30.250000,9.368751,0.0,1.000000,0.000000,0.000000,0.000000
1782115907.460076,410812,-1.012207,-0.096191,0.035645,1.402439,2.926829,-2.378049,-1.706250,30.293751,9.312500,0.0,1.000000,0.000000,0.000000,0.000000
1782115907.468076,410820,-1.007324,-0.101562,0.048828,2.073171,2.012195,-3.109756,-1.706250,30.293751,9.312500,0.0,1.000000,0.000000,0.000000,0.000000
1782115907.478076,410830,-0.999512,-0.105957,0.048828,2.439024,1.829268,-4.268293,-1.618750,30.368750,9.268750,0.0,1.000000,0.000000,0.000000,0.000000
1782115907.488076,410840,-0.998047,-0.101562,0.049805,4.329268,1.585366,-4.573171,-1.618750,30.368750,9.268750,0.0,1.000000,0.000000,0.000000,0.000000
1782115907.498076,410850,-1.006836,-0.092285,0.049805,6.524390,1.158537,-4.146341,-1.331250,30.718750,9.431251,0.0,1.000000,0.000000,0.000000,0.000000
1782115907.508076,410860,-1.007812,-0.091309,0.048828,8.963415,0.000000,-2.926829,-1.331250,30.718750,9.431251,0.0,1.000000,0.000000,0.000000,0.000000
1782115907.518076,410870,-0.998535,-0.089355,0.041504,10.426829,-0.792683,-2.621951,-1.662500,30.356251,9.393750,0.0,1.000000,0.000000,0.000000,0.000000
1782115907.528076,410880,-0.989258,-0.079590,0.034180,10.243902,-0.670732,-2.743902,-1.662500,30.356251,9.393750,0.0,1.000000,0.000000,0.000000,0.000000
1782115907.539076,410891,-0.984863,-0.076172,0.023438,9.207317,0.609756,-3.109756,-1.593750,30.250000,9.387500,0.0,1.000000,0.000000,0.000000,0.000000
1782115907.548076,410900,-0.992188,-0.071289,0.020020,9.695122,1.768293,-2.865854,-1.593750,30.250000,9.387500,0.0,1.000000,0.000000,0.000000,0.000000
1782115907.558076,410910,-0.999512,-0.065430,0.019531,10.731708,2.256098,-2.378049,-1.518750,30.350000,9.481250,0.0,1.000000,0.000000,0.000000,0.000000
1782115907.568076,410920,-1.011719,-0.064453,0.028320,11.951220,1.951220,-1.402439,-1.518750,30.350000,9.481250,0.0,1.000000,0.000000,0.000000,0.000000
1782115907.580076,410932,-1.017578,-0.062500,0.037109,12.439025,1.158537,-0.853659,-1.468750,30.331251,9.456250,0.0,1.000000,0.000000,0.000000,0.000000
1782115907.588076,410940,-1.020508,-0.060059,0.043945,12.195122,-0.060976,-0.182927,-1.468750,30.331251,9.456250,0.0,1.000000,0.000000,0.000000,0.000000
1782115907.598076,410950,-1.009277,-0.060547,0.038574,11.097561,-0.304878,-0.487805,-1.412500,30.356251,9.412500,0.0,1.000000,0.000000,0.000000,0.000000
1782115907.609076,410961,-1.002930,-0.053223,0.023438,10.426829,0.792683,-0.792683,-1.412500,30.356251,9.412500,0.0,1.000000,0.000000,0.000000,0.000000
1782115907.620076,410972,-1.002930,-0.046875,0.018066,10.182927,1.402439,-0.975610,-1.268750,30.431250,9.431251,0.0,1.000000,0.000000,0.000000,0.000000
1782115907.630076,410982,-1.002930,-0.045898,0.014160,9.817074,1.463415,-0.914634,-1.268750,30.431250,9.431251,0.0,1.000000,0.000000,0.000000,0.000000
1782115907.639076,410991,-1.001465,-0.046387,0.020020,9.939025,1.036585,-0.853659,-1.193750,30.475000,9.468750,0.0,1.000000,0.000000,0.000000,0.000000
1782115907.648076,411000,-0.999512,-0.050781,0.021973,9.695122,0.975610,-0.792683,-1.193750,30.475000,9.468750,0.0,1.000000,0.000000,0.000000,0.000000
1782115907.661076,411013,-1.000000,-0.062012,0.022949,8.292683,0.853659,-1.463415,-1.231250,30.300001,9.518750,0.0,1.000000,0.000000,0.000000,0.000000
1782115907.668076,411020,-1.001465,-0.064941,0.022461,6.829268,1.402439,-2.195122,-1.231250,30.300001,9.518750,0.0,1.000000,0.000000,0.000000,0.000000
1782115907.679076,411031,-1.005371,-0.065430,0.014648,5.670732,2.439024,-2.317073,-0.925000,30.525000,9.518750,0.0,1.000000,0.000000,0.000000,0.000000
1782115907.688076,411040,-1.007812,-0.069336,0.010254,5.304878,2.743902,-1.524390,-0.925000,30.525000,9.518750,0.0,1.000000,0.000000,0.000000,0.000000
1782115907.701076,411053,-1.005859,-0.072266,0.011230,5.609756,2.621951,-0.487805,-1.193750,30.212500,9.437500,0.0,1.000000,0.000000,0.000000,0.000000
1782115907.708076,411060,-1.003418,-0.069824,0.007324,5.853659,2.073171,0.121951,-1.193750,30.212500,9.437500,0.0,1.000000,0.000000,0.000000,0.000000
1782115907.718076,411070,-1.003418,-0.069824,0.007324,5.853659,2.073171,0.121951,-1.037500,30.206251,9.481250,0.0,1.000000,0.000000,0.000000,0.000000
1782115907.728076,411080,-1.000977,-0.067383,0.007812,6.036585,1.646341,0.243902,-1.037500,30.206251,9.481250,0.0,1.000000,0.000000,0.000000,0.000000
1782115907.740076,411092,-1.006836,-0.067871,0.005371,5.975610,1.707317,0.304878,-1.062500,30.143751,9.400001,0.0,1.000000,0.000000,0.000000,0.000000
1782115907.748076,411100,-1.008789,-0.068359,-0.001953,5.487805,2.134146,0.060976,-1.062500,30.143751,9.400001,0.0,1.000000,0.000000,0.000000,0.000000
1782115907.758076,411110,-1.008301,-0.065430,-0.010742,4.939024,2.743902,0.304878,-0.893750,30.250000,9.443750,0.0,1.000000,0.000000,0.000000,0.000000
1782115907.768076,411120,-1.015137,-0.062500,-0.009277,4.878049,2.743902,1.219512,-0.931250,30.187500,9.362500,0.0,1.000000,0.000000,0.000000,0.000000
1782115907.778076,411130,-1.012695,-0.061035,-0.000488,4.512195,1.951220,1.402439,-0.931250,30.187500,9.362500,0.0,1.000000,0.000000,0.000000,0.000000
1782115907.788076,411140,-1.011719,-0.058105,0.005371,3.475610,1.402439,1.158537,-0.825000,30.300001,9.350000,0.0,1.000000,0.000000,0.000000,0.000000
1782115907.799076,411151,-1.006836,-0.052246,0.000000,1.341463,1.158537,0.548781,-0.825000,30.300001,9.350000,0.0,1.000000,0.000000,0.000000,0.000000
1782115907.809076,411161,-0.995605,-0.050293,-0.002930,-0.548781,1.707317,0.426829,-0.906250,30.225000,9.287500,0.0,1.000000,0.000000,0.000000,0.000000
1782115907.821076,411173,-0.995605,-0.045410,0.000000,-1.829268,2.195122,0.670732,-0.906250,30.225000,9.287500,0.0,1.000000,0.000000,0.000000,0.000000
1782115907.829076,411181,-0.997559,-0.047363,0.003418,-1.707317,2.012195,1.524390,-0.806250,30.312500,9.237500,0.0,1.000000,0.000000,0.000000,0.000000
1782115907.838076,411190,-1.004395,-0.052734,0.008789,-1.463415,1.646341,2.317073,-0.806250,30.312500,9.237500,0.0,1.000000,0.000000,0.000000,0.000000
1782115907.848076,411200,-1.010742,-0.061523,0.015625,-1.036585,0.182927,2.560976,-0.800000,30.306250,9.281250,0.0,1.000000,0.000000,0.000000,0.000000
1782115907.861076,411213,-1.001465,-0.073730,0.016113,-2.621951,-0.243902,1.646341,-0.800000,30.306250,9.281250,0.0,1.000000,0.000000,0.000000,0.000000
1782115907.868076,411220,-0.996582,-0.083008,0.010254,-4.695122,0.243902,0.914634,-0.862500,30.300001,9.237500,0.0,1.000000,0.000000,0.000000,0.000000
1782115907.878076,411230,-0.986328,-0.088867,0.003418,-5.975610,1.219512,0.731707,-0.862500,30.300001,9.237500,0.0,1.000000,0.000000,0.000000,0.000000
1782115907.888076,411240,-0.989258,-0.097168,-0.005371,-6.890244,2.256098,0.792683,-0.643750,30.568750,9.268750,0.0,1.000000,0.000000,0.000000,0.000000
1782115907.898076,411250,-0.997070,-0.095703,-0.007812,-6.585366,2.439024,0.731707,-0.643750,30.568750,9.268750,0.0,1.000000,0.000000,0.000000,0.000000
1782115907.908076,411260,-1.005371,-0.105469,-0.007324,-6.097561,2.195122,0.426829,-0.868750,30.356251,9.156250,0.0,1.000000,0.000000,0.000000,0.000000
1782115907.918076,411270,-1.008789,-0.117676,-0.009766,-5.548780,2.012195,0.000000,-0.868750,30.356251,9.156250,0.0,1.000000,0.000000,0.000000,0.000000
1782115907.928076,411280,-1.009277,-0.118164,-0.001953,-3.780488,1.341463,-0.243902,-0.962500,30.343750,9.087501,0.0,1.000000,0.000000,0.000000,0.000000
1782115907.938076,411290,-1.012207,-0.121582,-0.000977,-1.646341,0.182927,-0.121951,-0.962500,30.343750,9.087501,0.0,1.000000,0.000000,0.000000,0.000000
1782115907.948076,411300,-1.010254,-0.112793,-0.000977,1.158537,-0.853659,0.304878,-0.925000,30.400000,9.112500,0.0,1.000000,0.000000,0.000000,0.000000
1782115907.958076,411310,-1.005371,-0.106445,-0.000977,3.475610,-1.768293,1.219512,-0.925000,30.400000,9.112500,0.0,1.000000,0.000000,0.000000,0.000000
1782115907.968076,411320,-1.002441,-0.101074,-0.008301,4.695122,-2.012195,1.585366,-0.906250,30.387501,9.131250,0.0,1.000000,0.000000,0.000000,0.000000
1782115907.980076,411332,-0.999512,-0.094727,-0.015137,5.243903,-2.012195,1.646341,-0.906250,30.400000,9.175000,0.0,1.000000,0.000000,0.000000,0.000000
1782115907.989076,411341,-0.989746,-0.088379,-0.033691,4.146341,-0.609756,1.280488,-0.906250,30.400000,9.175000,0.0,1.000000,0.000000,0.000000,0.000000
1782115907.998076,411350,-0.984375,-0.074219,-0.044434,3.109756,1.707317,0.853659,-0.906250,30.400000,9.175000,0.0,1.000000,0.000000,0.000000,0.000000
1782115908.008076,411360,-0.986816,-0.061035,-0.044434,1.707317,4.085366,1.158537,-0.850000,30.418751,9.156250,0.0,1.000000,0.000000,0.000000,0.000000
1782115908.021076,411373,-0.989746,-0.053711,-0.033691,0.853659,5.000000,1.585366,-0.887500,30.375000,9.100000,0.0,1.000000,0.000000,0.000000,0.000000
1782115908.028076,411380,-1.002930,-0.057617,-0.020020,0.365854,5.060976,1.829268,-0.887500,30.375000,9.100000,0.0,1.000000,0.000000,0.000000,0.000000
1782115908.038076,411390,-1.001953,-0.058105,-0.008789,-0.060976,4.329268,1.402439,-0.887500,30.375000,9.100000,0.0,1.000000,0.000000,0.000000,0.000000
1782115908.048076,411400,-1.002441,-0.064453,0.001953,-1.402439,3.902439,0.548781,-0.893750,30.450001,9.037500,0.0,1.000000,0.000000,0.000000,0.000000
1782115908.059076,411411,-0.999512,-0.071777,0.001953,-2.804878,4.268293,-0.121951,-0.900000,30.431250,8.875000,0.0,1.000000,0.000000,0.000000,0.000000
1782115908.069076,411421,-1.004883,-0.072754,0.002441,-3.231707,4.451220,0.000000,-0.900000,30.431250,8.875000,0.0,1.000000,0.000000,0.000000,0.000000
1782115908.078076,411430,-1.017578,-0.080078,0.014648,-2.743902,3.780488,0.975610,-0.818750,30.493750,8.856250,0.0,1.000000,0.000000,0.000000,0.000000
1782115908.088076,411440,-1.018066,-0.088379,0.022461,-2.134146,2.012195,1.036585,-0.818750,30.493750,8.856250,0.0,1.000000,0.000000,0.000000,0.000000
1782115908.102076,411454,-1.013184,-0.100098,0.032227,-0.853659,0.121951,0.670732,-0.918750,30.506250,8.812500,0.0,1.000000,0.000000,0.000000,0.000000
1782115908.108076,411460,-1.003906,-0.106445,0.032715,0.487805,-1.402439,-0.121951,-0.918750,30.506250,8.812500,0.0,1.000000,0.000000,0.000000,0.000000
1782115908.118076,411470,-0.985352,-0.114258,0.021484,1.219512,-2.012195,-0.914634,-0.856250,30.525000,8.900001,0.0,1.000000,0.000000,0.000000,0.000000
1782115908.128076,411480,-0.968750,-0.122559,0.008301,2.560976,-2.012195,-1.768293,-0.856250,30.525000,8.900001,0.0,1.000000,0.000000,0.000000,0.000000
1782115908.138076,411490,-0.962891,-0.126953,-0.004883,3.597561,-0.670732,-2.378049,-0.931250,30.406250,8.968750,0.0,1.000000,0.000000,0.000000,0.000000
1782115908.149076,411501,-0.965332,-0.145020,-0.014648,4.268293,0.365854,-3.231707,-0.931250,30.406250,8.968750,0.0,1.000000,0.000000,0.000000,0.000000
1782115908.158076,411510,-0.979004,-0.149414,-0.025391,4.268293,1.646341,-4.756098,-0.787500,30.531250,9.012500,0.0,1.000000,0.000000,0.000000,0.000000
1782115908.168076,411520,-1.000000,-0.148926,-0.038086,3.292683,3.170732,-6.158537,-0.787500,30.531250,9.012500,0.0,1.000000,0.000000,0.000000,0.000000
1782115908.181076,411533,-1.026367,-0.126953,-0.048828,2.682927,5.000000,-6.036585,-0.950000,30.600000,8.975000,0.0,1.000000,0.000000,0.000000,0.000000
1782115908.189076,411541,-1.047852,-0.088379,-0.055664,3.109756,5.304878,-4.512195,-0.950000,30.600000,8.975000,0.0,1.000000,0.000000,0.000000,0.000000
1782115908.198076,411550,-1.051758,-0.048340,-0.049316,5.792683,3.780488,-1.707317,-0.837500,30.725000,8.975000,0.0,1.000000,0.000000,0.000000,0.000000
1782115908.209076,411561,-1.044434,-0.014160,-0.036621,9.207317,1.951220,0.914634,-0.837500,30.725000,8.975000,0.0,1.000000,0.000000,0.000000,0.000000
1782115908.219076,411571,-1.025391,0.006348,-0.036133,11.463415,0.121951,2.926829,-0.825000,30.762501,8.962501,0.0,1.000000,0.000000,0.000000,0.000000
1782115908.228076,411580,-1.013184,0.028320,-0.031738,13.170732,-1.829268,4.451220,-0.825000,30.762501,8.962501,0.0,1.000000,0.000000,0.000000,0.000000
1782115908.239076,411591,-0.999023,0.035645,-0.033203,14.329268,-3.414634,5.000000,-0.687500,30.868750,8.975000,0.0,1.000000,0.000000,0.000000,0.000000
1782115908.249076,411601,-0.992188,0.039062,-0.027344,14.207317,-3.902439,5.304878,-0.687500,30.868750,8.975000,0.0,1.000000,0.000000,0.000000,0.000000
1782115908.260076,411612,-0.993164,0.041016,-0.014648,11.524390,-3.719512,5.304878,-0.706250,30.693750,8.956250,0.0,1.000000,0.000000,0.000000,0.000000
1782115908.269076,411621,-0.999023,0.033691,0.002441,7.012195,-3.841464,4.207317,-0.706250,30.693750,8.956250,0.0,1.000000,0.000000,0.000000,0.000000
1782115908.279076,411631,-0.999512,0.008789,0.012207,1.158537,-3.597561,2.256098,-0.593750,30.731251,9.018750,0.0,1.000000,0.000000,0.000000,0.000000
1782115908.288076,411640,-0.998535,-0.026855,0.010254,-5.365854,-2.012195,-0.304878,-0.593750,30.731251,9.018750,0.0,1.000000,0.000000,0.000000,0.000000
1782115908.298076,411650,-0.992676,-0.053711,-0.001953,-12.012196,1.280488,-2.195122,-0.768750,30.462500,8.931251,0.0,1.000000,0.000000,0.000000,0.000000
1782115908.308076,411660,-0.991211,-0.085449,-0.009766,-16.890244,4.146341,-2.987805,-0.768750,30.462500,8.931251,0.0,1.000000,0.000000,0.000000,0.000000
1782115908.318076,411670,-0.988770,-0.102051,-0.014160,-17.987804,5.914634,-2.682927,-0.856250,30.393751,8.843750,0.0,1.000000,0.000000,0.000000,0.000000
1782115908.328076,411680,-0.994629,-0.114746,-0.005859,-14.939025,6.219512,-1.280488,-0.856250,30.393751,8.843750,0.0,1.000000,0.000000,0.000000,0.000000
1782115908.339076,411691,-1.005371,-0.119629,-0.001953,-10.609756,5.121951,0.121951,-1.025000,30.262501,8.718750,0.0,1.000000,0.000000,0.000000,0.000000
1782115908.348076,411700,-1.022461,-0.110352,-0.004883,-7.378049,3.658537,1.036585,-1.025000,30.262501,8.718750,0.0,1.000000,0.000000,0.000000,0.000000
1782115908.358076,411710,-1.029297,-0.093750,-0.006836,-5.426829,2.012195,1.768293,-0.912500,30.437500,8.737500,0.0,1.000000,0.000000,0.000000,0.000000
1782115908.368076,411720,-1.030273,-0.086426,-0.003906,-3.292683,-0.121951,2.621951,-0.887500,30.600000,8.743751,0.0,1.000000,0.000000,0.000000,0.000000
1782115908.378076,411730,-1.024902,-0.075684,0.000000,-0.853659,-1.951220,3.902439,-0.887500,30.600000,8.743751,0.0,1.000000,0.000000,0.000000,0.000000
1782115908.388076,411740,-1.025879,-0.064453,0.005371,0.609756,-2.926829,5.243903,-0.925000,30.631250,8.812500,0.0,1.000000,0.000000,0.000000,0.000000
1782115908.399076,411751,-1.026855,-0.049316,0.018066,1.036585,-3.841464,5.548780,-0.925000,30.631250,8.812500,0.0,1.000000,0.000000,0.000000,0.000000
1782115908.408076,411760,-1.027832,-0.039062,0.024414,0.182927,-4.390244,5.365854,-0.612500,30.850000,8.900001,0.0,1.000000,0.000000,0.000000,0.000000
1782115908.418076,411770,-1.019043,-0.034180,0.031738,-2.317073,-4.634146,5.548780,-0.612500,30.850000,8.900001,0.0,1.000000,0.000000,0.000000,0.000000
1782115908.428076,411780,-0.999023,-0.030762,0.029297,-5.792683,-4.695122,4.939024,-0.612500,30.806250,8.925000,0.0,1.000000,0.000000,0.000000,0.000000
1782115908.438076,411790,-0.986816,-0.033203,0.014648,-9.451220,-3.902439,4.756098,-0.612500,30.806250,8.925000,0.0,1.000000,0.000000,0.000000,0.000000
1782115908.449076,411801,-0.986816,-0.031250,-0.000488,-12.439025,-2.439024,4.573171,-0.718750,30.637501,8.912500,0.0,1.000000,0.000000,0.000000,0.000000
1782115908.459076,411811,-1.001465,-0.033691,-0.008301,-16.158537,-1.036585,3.902439,-0.718750,30.637501,8.912500,0.0,1.000000,0.000000,0.000000,0.000000
1782115908.468076,411820,-1.017090,-0.040039,-0.008301,-20.060976,0.182927,3.353659,-0.918750,30.418751,8.875000,0.0,1.000000,0.000000,0.000000,0.000000
1782115908.478076,411830,-1.029785,-0.057129,-0.011230,-24.207317,0.121951,2.682927,-0.918750,30.418751,8.875000,0.0,1.000000,0.000000,0.000000,0.000000
1782115908.489076,411841,-1.022949,-0.069336,-0.015137,-27.500000,0.121951,2.378049,-1.062500,30.337500,8.737500,0.0,1.000000,0.000000,0.000000,0.000000
1782115908.499076,411851,-1.009277,-0.081543,-0.013672,-27.865854,0.000000,2.682927,-1.062500,30.337500,8.737500,0.0,1.000000,0.000000,0.000000,0.000000
1782115908.509076,411861,-1.005859,-0.096680,-0.020996,-27.073172,0.060976,3.170732,-1.300000,30.187500,8.637500,0.0,1.000000,0.000000,0.000000,0.000000
1782115908.518076,411870,-0.993652,-0.105957,-0.045410,-26.219513,0.365854,2.743902,-1.300000,30.187500,8.637500,0.0,1.000000,0.000000,0.000000,0.000000
1782115908.528076,411880,-0.991699,-0.101562,-0.065918,-26.097561,0.304878,1.890244,-1.343750,30.275000,8.450000,0.0,1.000000,0.000000,0.000000,0.000000
1782115908.538076,411890,-0.982910,-0.102539,-0.082520,-27.073172,0.121951,1.097561,-1.343750,30.275000,8.450000,0.0,1.000000,0.000000,0.000000,0.000000
1782115908.548076,411900,-0.963867,-0.099121,-0.096680,-29.451220,0.853659,-0.182927,-1.487500,30.237501,8.387500,0.0,1.000000,0.000000,0.000000,0.000000
1782115908.558076,411910,-0.963867,-0.099121,-0.096680,-29.451220,0.853659,-0.182927,-1.487500,30.237501,8.387500,0.0,1.000000,0.000000,0.000000,0.000000
1782115908.568076,411920,-0.946777,-0.092285,-0.105469,-31.524391,2.439024,-1.829268,-1.656250,30.281250,8.300000,0.0,1.000000,0.000000,0.000000,0.000000
1782115908.578076,411930,-0.932129,-0.102051,-0.114746,-33.658539,5.304878,-2.987805,-1.656250,30.281250,8.300000,0.0,1.000000,0.000000,0.000000,0.000000
1782115908.588076,411940,-0.918945,-0.137207,-0.120605,-32.682926,9.268292,-3.658537,-1.862500,30.387501,8.150001,0.0,1.000000,0.000000,0.000000,0.000000
1782115908.598076,411950,-0.916992,-0.174316,-0.124023,-28.048780,13.414635,-4.939024,-1.862500,30.387501,8.150001,0.0,1.000000,0.000000,0.000000,0.000000
1782115908.608076,411960,-0.924316,-0.208496,-0.116211,-22.804878,17.743902,-6.524390,-2.012500,30.512501,7.881250,0.0,1.000000,0.000000,0.000000,0.000000
1782115908.618076,411970,-0.939941,-0.238281,-0.104980,-17.560976,21.280489,-7.682927,-2.012500,30.512501,7.881250,0.0,1.000000,0.000000,0.000000,0.000000
1782115908.628076,411980,-0.943359,-0.268066,-0.096191,-10.853659,22.926830,-8.231708,-2.187500,30.712500,7.631250,0.0,1.000000,0.000000,0.000000,0.000000
1782115908.638076,411990,-0.921387,-0.282227,-0.091797,-3.048780,22.682928,-9.207317,-2.156250,31.056250,7.425000,0.0,1.000000,0.000000,0.000000,0.000000
1782115908.648076,412000,-0.881836,-0.275391,-0.090820,4.451220,22.621952,-10.426829,-2.156250,31.056250,7.425000,0.0,1.000000,0.000000,0.000000,0.000000
1782115908.659076,412011,-0.865723,-0.248535,-0.088867,9.573171,25.243902,-10.975610,-2.200000,31.237501,7.181250,0.0,1.000000,0.000000,0.000000,0.000000
1782115908.668076,412020,-0.951660,-0.191406,-0.084473,12.926829,30.060976,-7.865854,-2.200000,31.237501,7.181250,0.0,1.000000,0.000000,0.000000,0.000000
1782115908.678076,412030,-1.091797,-0.153320,-0.062988,16.524391,33.048782,-1.585366,-1.900000,31.731251,6.962500,0.0,1.000000,0.000000,0.000000,0.000000
1782115908.688076,412040,-1.210938,-0.128906,-0.007812,21.890244,30.121952,3.475610,-1.900000,31.731251,6.962500,0.0,1.000000,0.000000,0.000000,0.000000
1782115908.698076,412050,-1.252441,-0.105957,0.067383,31.402439,22.743902,5.304878,-1.850000,31.737501,6.662500,0.0,1.000000,0.000000,0.000000,0.000000
1782115908.708076,412060,-1.226562,-0.045898,0.158203,41.097561,9.817074,4.573171,-1.850000,31.737501,6.662500,0.0,1.000000,0.000000,0.000000,0.000000
1782115908.719076,412071,-1.145020,0.043457,0.230469,48.048782,-3.292683,3.902439,-1.518750,31.943750,6.800000,0.0,1.000000,0.000000,0.000000,0.000000
1782115908.728076,412080,-1.068848,0.120117,0.232910,47.865856,-12.804878,3.475610,-1.518750,31.943750,6.800000,0.0,1.000000,0.000000,0.000000,0.000000
1782115908.738076,412090,-0.996582,0.167969,0.178223,44.207317,-17.134148,3.597561,-1.418750,31.812500,6.962500,0.0,1.000000,0.000000,0.000000,0.000000
1782115908.748076,412100,-0.942871,0.191895,0.129883,39.085365,-17.500000,3.719512,-1.418750,31.812500,6.962500,0.0,1.000000,0.000000,0.000000,0.000000
1782115908.759076,412111,-0.933594,0.174805,0.093262,31.951220,-14.146341,3.902439,-1.306250,31.593750,7.175000,0.0,1.000000,0.000000,0.000000,0.000000
1782115908.768076,412120,-0.961426,0.150391,0.076660,24.085367,-12.378049,5.121951,-1.306250,31.593750,7.175000,0.0,1.000000,0.000000,0.000000,0.000000
1782115908.778076,412130,-1.003418,0.115723,0.067383,13.719513,-13.292684,6.158537,-1.256250,31.300001,7.443750,0.0,1.000000,0.000000,0.000000,0.000000
1782115908.788076,412140,-1.025879,0.071289,0.055664,0.548781,-15.548780,5.060976,-1.256250,31.300001,7.443750,0.0,1.000000,0.000000,0.000000,0.000000
1782115908.798076,412150,-1.010742,0.022949,0.029785,-14.573171,-13.902439,1.768293,-1.193750,31.250000,7.600000,0.0,1.000000,0.000000,0.000000,0.000000
1782115908.808076,412160,-0.998047,-0.028809,-0.003418,-28.048780,-11.585366,-1.036585,-1.193750,31.250000,7.600000,0.0,1.000000,0.000000,0.000000,0.000000
1782115908.818076,412170,-0.982422,-0.087891,-0.055176,-36.524391,-8.170732,-2.621951,-1.275000,31.143751,7.625000,0.0,1.000000,0.000000,0.000000,0.000000
1782115908.828076,412180,-0.976562,-0.140625,-0.096680,-38.292683,-3.658537,-2.926829,-1.275000,31.143751,7.625000,0.0,1.000000,0.000000,0.000000,0.000000
1782115908.839076,412191,-0.990723,-0.188965,-0.120117,-32.560978,-0.975610,-1.585366,-1.418750,31.106251,7.637500,0.0,1.000000,0.000000,0.000000,0.000000
1782115908.848076,412200,-1.011230,-0.219238,-0.119141,-21.280489,-1.036585,0.060976,-1.418750,31.106251,7.637500,0.0,1.000000,0.000000,0.000000,0.000000
1782115908.858076,412210,-1.025879,-0.241211,-0.105469,-8.414635,-3.414634,1.951220,-1.418750,31.131250,7.593750,0.0,1.000000,0.000000,0.000000,0.000000
1782115908.868076,412220,-1.020020,-0.247559,-0.095703,4.390244,-6.158537,2.804878,-1.418750,31.131250,7.593750,0.0,1.000000,0.000000,0.000000,0.000000
1782115908.878076,412230,-1.008789,-0.247559,-0.084473,14.756098,-7.865854,2.804878,-1.237500,31.237501,7.693750,0.0,1.000000,0.000000,0.000000,0.000000
1782115908.889076,412241,-1.001953,-0.216797,-0.080566,21.646341,-7.560976,3.109756,-1.237500,31.237501,7.693750,0.0,1.000000,0.000000,0.000000,0.000000
1782115908.899076,412251,-0.997559,-0.181152,-0.066406,25.365854,-6.951220,3.536585,-1.162500,31.181250,7.875000,0.0,1.000000,0.000000,0.000000,0.000000
1782115908.909076,412261,-0.992188,-0.152344,-0.057617,27.987806,-6.158537,3.414634,-1.162500,31.181250,7.875000,0.0,1.000000,0.000000,0.000000,0.000000
1782115908.918076,412270,-0.989258,-0.115234,-0.054199,29.634148,-6.036585,2.926829,-0.818750,31.387501,8.187500,0.0,1.000000,0.000000,0.000000,0.000000
1782115908.928076,412280,-0.976562,-0.077148,-0.052734,30.060976,-4.390244,2.500000,-0.818750,31.387501,8.187500,0.0,1.000000,0.000000,0.000000,0.000000
1782115908.938076,412290,-0.980469,-0.041504,-0.049316,28.963415,-2.195122,2.256098,-0.918750,30.906250,8.331250,0.0,1.000000,0.000000,0.000000,0.000000
1782115908.949076,412301,-0.979980,-0.006836,-0.040039,25.914635,0.121951,1.951220,-0.843750,30.812500,8.350000,0.0,1.000000,0.000000,0.000000,0.000000
1782115908.958076,412310,-0.992188,0.011719,-0.022949,21.158537,2.378049,2.195122,-0.843750,30.812500,8.350000,0.0,1.000000,0.000000,0.000000,0.000000
1782115908.968076,412320,-1.005371,0.010742,0.000000,16.219513,3.170732,2.317073,-0.806250,30.681250,8.362500,0.0,1.000000,0.000000,0.000000,0.000000
1782115908.979076,412331,-1.010742,-0.008301,0.012207,10.426829,3.780488,1.829268,-0.806250,30.681250,8.362500,0.0,1.000000,0.000000,0.000000,0.000000
1782115908.988076,412340,-1.011230,-0.031250,0.003418,5.426829,4.512195,1.219512,-0.656250,30.775000,8.275001,0.0,1.000000,0.000000,0.000000,0.000000
1782115908.998076,412350,-1.012695,-0.049316,-0.007812,2.865854,4.878049,1.036585,-0.656250,30.775000,8.275001,0.0,1.000000,0.000000,0.000000,0.000000
1782115909.008076,412360,-1.009766,-0.063965,-0.015625,2.560976,3.963415,0.731707,-0.450000,31.025000,8.231250,0.0,1.000000,0.000000,0.000000,0.000000
1782115909.018076,412370,-1.004883,-0.070312,-0.024902,2.743902,3.048780,0.609756,-0.450000,31.025000,8.231250,0.0,1.000000,0.000000,0.000000,0.000000
1782115909.028076,412380,-1.008789,-0.077637,-0.030273,2.560976,1.768293,0.548781,-0.456250,31.031250,8.056251,0.0,1.000000,0.000000,0.000000,0.000000
1782115909.038076,412390,-1.008301,-0.079102,-0.031250,1.951220,0.731707,0.426829,-0.456250,31.031250,8.056251,0.0,1.000000,0.000000,0.000000,0.000000
1782115909.048076,412400,-0.998535,-0.085938,-0.034668,1.219512,0.426829,0.182927,-0.562500,30.950001,8.043750,0.0,1.000000,0.000000,0.000000,0.000000
1782115909.058076,412410,-0.997070,-0.106934,-0.032715,1.585366,0.182927,0.243902,-0.562500,30.950001,8.043750,0.0,1.000000,0.000000,0.000000,0.000000
1782115909.068076,412420,-0.995605,-0.131348,-0.035156,3.292683,0.243902,0.731707,-0.543750,30.962500,8.093750,0.0,1.000000,0.000000,0.000000,0.000000
1782115909.079076,412431,-1.000977,-0.140137,-0.036133,5.487805,-0.060976,1.829268,-0.543750,30.962500,8.093750,0.0,1.000000,0.000000,0.000000,0.000000
1782115909.088076,412440,-1.006836,-0.129883,-0.029785,7.378049,-0.731707,2.621951,-0.412500,31.031250,8.150001,0.0,1.000000,0.000000,0.000000,0.000000
1782115909.098076,412450,-1.009766,-0.123047,-0.020996,8.963415,-1.341463,2.743902,-0.412500,31.031250,8.150001,0.0,1.000000,0.000000,0.000000,0.000000
1782115909.109076,412461,-1.006348,-0.112793,-0.020508,8.841464,-0.975610,2.439024,-0.375000,31.056250,8.212501,0.0,1.000000,0.000000,0.000000,0.000000
1782115909.118076,412470,-0.995117,-0.103516,-0.027344,7.500000,-0.548781,1.585366,-0.375000,31.056250,8.212501,0.0,1.000000,0.000000,0.000000,0.000000
1782115909.128076,412480,-0.988770,-0.092285,-0.036621,5.487805,0.609756,0.975610,-0.350000,30.993750,8.225000,0.0,1.000000,0.000000,0.000000,0.000000
1782115909.138076,412490,-0.996582,-0.079590,-0.040039,4.146341,2.012195,1.646341,-0.350000,30.993750,8.225000,0.0,1.000000,0.000000,0.000000,0.000000
1782115909.148076,412500,-0.997070,-0.080566,-0.026855,4.146341,1.402439,1.951220,-0.406250,30.968750,8.193750,0.0,1.000000,0.000000,0.000000,0.000000
1782115909.158076,412510,-0.998535,-0.079102,-0.022949,3.780488,0.548781,1.402439,-0.406250,30.968750,8.193750,0.0,1.000000,0.000000,0.000000,0.000000
1782115909.169076,412521,-0.997070,-0.077637,-0.018555,3.902439,0.670732,0.792683,-0.393750,30.918751,8.118751,0.0,1.000000,0.000000,0.000000,0.000000
1782115909.178076,412530,-0.995117,-0.078125,-0.012207,4.207317,0.975610,0.182927,-0.393750,30.918751,8.118751,0.0,1.000000,0.000000,0.000000,0.000000
1782115909.188076,412540,-1.000488,-0.085938,-0.017578,4.329268,0.853659,-0.243902,-0.462500,30.950001,8.137500,0.0,1.000000,0.000000,0.000000,0.000000
1782115909.200076,412552,-1.000977,-0.097168,-0.018066,4.512195,1.036585,0.000000,-0.206250,31.200001,8.143750,0.0,1.000000,0.000000,0.000000,0.000000
1782115909.208076,412560,-0.997559,-0.102051,-0.017090,4.268293,0.426829,0.304878,-0.206250,31.200001,8.143750,0.0,1.000000,0.000000,0.000000,0.000000
1782115909.218076,412570,-1.003906,-0.101074,-0.014648,4.329268,0.000000,0.487805,-0.206250,31.200001,8.143750,0.0,1.000000,0.000000,0.000000,0.000000
1782115909.229076,412581,-1.006348,-0.100586,-0.007812,4.878049,-0.975610,0.487805,-0.400000,30.937500,8.106250,0.0,1.000000,0.000000,0.000000,0.000000
1782115909.238076,412590,-1.000000,-0.098633,-0.008789,5.121951,-1.341463,0.243902,-0.400000,30.937500,8.106250,0.0,1.000000,0.000000,0.000000,0.000000
1782115909.248076,412600,-0.998047,-0.093750,-0.017090,5.487805,-0.914634,0.182927,-0.218750,31.100000,8.187500,0.0,1.000000,0.000000,0.000000,0.000000
1782115909.258076,412610,-1.001953,-0.087402,-0.024414,6.036585,-0.670732,0.609756,-0.293750,30.981251,8.150001,0.0,1.000000,0.000000,0.000000,0.000000
1782115909.269076,412621,-1.010254,-0.078613,-0.028809,6.463415,-0.548781,1.890244,-0.293750,30.981251,8.150001,0.0,1.000000,0.000000,0.000000,0.000000
1782115909.278076,412630,-1.009766,-0.066895,-0.025879,6.158537,-1.280488,2.439024,-0.131250,31.087500,8.237500,0.0,1.000000,0.000000,0.000000,0.000000
1782115909.288076,412640,-1.014160,-0.056152,-0.020020,6.158537,-2.012195,3.170732,-0.131250,31.087500,8.237500,0.0,1.000000,0.000000,0.000000,0.000000
1782115909.298076,412650,-1.013672,-0.052246,-0.020508,5.792683,-2.804878,3.414634,-0.175000,31.056250,8.293750,0.0,1.000000,0.000000,0.000000,0.000000
1782115909.308076,412660,-1.005859,-0.049316,-0.020996,5.853659,-3.109756,3.597561,-0.175000,31.056250,8.293750,0.0,1.000000,0.000000,0.000000,0.000000
1782115909.318076,412670,-1.001953,-0.048828,-0.023438,5.792683,-3.353659,3.780488,-0.043750,31.137501,8.362500,0.0,1.000000,0.000000,0.000000,0.000000
1782115909.328076,412680,-1.006348,-0.058594,-0.022461,5.487805,-3.475610,4.207317,-0.043750,31.137501,8.362500,0.0,1.000000,0.000000,0.000000,0.000000
1782115909.338076,412690,-1.000488,-0.068848,-0.020020,4.878049,-3.963415,4.085366,-0.043750,31.043751,8.368751,0.0,1.000000,0.000000,0.000000,0.000000
1782115909.348076,412700,-0.999023,-0.077637,-0.018555,3.963415,-4.146341,3.292683,-0.043750,31.043751,8.368751,0.0,1.000000,0.000000,0.000000,0.000000
1782115909.358076,412710,-0.996094,-0.086914,-0.019043,2.317073,-3.780488,2.439024,0.043750,31.006250,8.387500,0.0,1.000000,0.000000,0.000000,0.000000
1782115909.368076,412720,-0.992676,-0.097168,-0.032715,0.121951,-2.621951,1.585366,0.043750,31.006250,8.387500,0.0,1.000000,0.000000,0.000000,0.000000
1782115909.378076,412730,-0.993164,-0.090332,-0.046387,-1.829268,-1.158537,1.097561,0.050000,31.025000,8.475000,0.0,1.000000,0.000000,0.000000,0.000000
1782115909.389076,412741,-0.997070,-0.093750,-0.044434,-2.134146,-0.426829,1.341463,0.050000,31.025000,8.475000,0.0,1.000000,0.000000,0.000000,0.000000
1782115909.399076,412751,-1.000488,-0.098145,-0.033691,-1.951220,-0.792683,1.219512,0.062500,31.000000,8.475000,0.0,1.000000,0.000000,0.000000,0.000000
1782115909.409076,412761,-1.013184,-0.099609,-0.029785,-1.341463,-1.341463,1.463415,0.062500,31.000000,8.475000,0.0,1.000000,0.000000,0.000000,0.000000
1782115909.419076,412771,-1.013184,-0.099609,-0.029785,-1.341463,-1.341463,1.463415,0.000000,30.937500,8.456250,0.0,1.000000,0.000000,0.000000,0.000000
1782115909.430076,412782,-1.007324,-0.096191,-0.033691,-1.219512,-2.012195,1.524390,0.000000,30.937500,8.456250,0.0,1.000000,0.000000,0.000000,0.000000
1782115909.439076,412791,-1.003418,-0.087891,-0.036621,-0.121951,-2.682927,1.707317,0.112500,31.018751,8.468750,0.0,1.000000,0.000000,0.000000,0.000000
1782115909.448076,412800,-1.000977,-0.074707,-0.039551,1.402439,-3.048780,2.439024,0.112500,31.018751,8.468750,0.0,1.000000,0.000000,0.000000,0.000000
1782115909.458076,412810,-1.003906,-0.067383,-0.034668,2.682927,-3.597561,3.414634,-0.018750,30.937500,8.475000,0.0,1.000000,0.000000,0.000000,0.000000
1782115909.469076,412821,-1.000977,-0.054199,-0.032715,3.536585,-3.963415,4.146341,-0.018750,30.937500,8.475000,0.0,1.000000,0.000000,0.000000,0.000000
1782115909.478076,412830,-1.001465,-0.053711,-0.020996,3.658537,-3.780488,4.329268,0.212500,31.081251,8.581250,0.0,1.000000,0.000000,0.000000,0.000000
1782115909.488076,412840,-0.997070,-0.056152,-0.018555,1.768293,-3.475610,3.414634,0.212500,31.081251,8.581250,0.0,1.000000,0.000000,0.000000,0.000000
1782115909.499076,412851,-0.997070,-0.055664,-0.017090,-0.304878,-2.317073,2.500000,0.025000,30.850000,8.475000,0.0,1.000000,0.000000,0.000000,0.000000
1782115909.510076,412862,-0.998535,-0.059570,-0.015137,-2.378049,-1.219512,2.256098,0.018750,30.881250,8.587501,0.0,1.000000,0.000000,0.000000,0.000000
1782115909.518076,412870,-0.997559,-0.057129,-0.018066,-4.390244,-0.121951,2.073171,0.018750,30.881250,8.587501,0.0,1.000000,0.000000,0.000000,0.000000
1782115909.528076,412880,-1.002930,-0.060547,-0.012695,-5.000000,0.121951,2.317073,0.018750,30.881250,8.587501,0.0,1.000000,0.000000,0.000000,0.000000
1782115909.538076,412890,-1.000488,-0.060547,-0.011230,-5.060976,-0.121951,2.073171,-0.037500,30.812500,8.468750,0.0,1.000000,0.000000,0.000000,0.000000
1782115909.549076,412901,-0.996582,-0.060547,-0.010742,-5.548780,0.670732,1.707317,-0.056250,30.825001,8.406250,0.0,1.000000,0.000000,0.000000,0.000000
1782115909.558076,412910,-0.994629,-0.058105,-0.011719,-6.402439,1.463415,0.975610,-0.056250,30.825001,8.406250,0.0,1.000000,0.000000,0.000000,0.000000
1782115909.568076,412920,-0.994141,-0.057129,-0.016113,-7.500000,2.500000,0.853659,-0.125000,30.781250,8.412500,0.0,1.000000,0.000000,0.000000,0.000000
1782115909.579076,412931,-1.000488,-0.058594,-0.013184,-7.621952,2.682927,1.219512,-0.125000,30.781250,8.412500,0.0,1.000000,0.000000,0.000000,0.000000
1782115909.590076,412942,-1.005371,-0.055176,-0.006836,-7.378049,2.195122,1.951220,-0.137500,30.868750,8.337501,0.0,1.000000,0.000000,0.000000,0.000000
1782115909.598076,412950,-1.012695,-0.056152,0.000977,-6.646342,1.158537,2.560976,-0.137500,30.868750,8.337501,0.0,1.000000,0.000000,0.000000,0.000000
1782115909.608076,412960,-1.013672,-0.058594,0.008301,-5.548780,-0.426829,2.621951,-0.081250,30.937500,8.362500,0.0,1.000000,0.000000,0.000000,0.000000
1782115909.618076,412970,-1.009277,-0.059082,0.011230,-4.817073,-1.219512,2.317073,-0.081250,30.937500,8.362500,0.0,1.000000,0.000000,0.000000,0.000000
1782115909.630076,412982,-1.003418,-0.059082,0.003906,-4.695122,-0.853659,2.134146,-0.137500,30.900000,8.375000,0.0,1.000000,0.000000,0.000000,0.000000
1782115909.638076,412990,-0.999023,-0.063965,0.003906,-4.878049,-0.426829,2.317073,-0.137500,30.900000,8.375000,0.0,1.000000,0.000000,0.000000,0.000000
1782115909.648076,413000,-0.994141,-0.065918,0.002441,-5.731708,0.365854,2.256098,-0.162500,30.900000,8.393750,0.0,1.000000,0.000000,0.000000,0.000000
1782115909.658076,413010,-1.000000,-0.065918,0.006348,-5.243903,0.731707,2.073171,-0.162500,30.900000,8.393750,0.0,1.000000,0.000000,0.000000,0.000000
1782115909.670076,413022,-1.000977,-0.078613,0.009277,-4.878049,0.975610,1.341463,-0.225000,30.956251,8.293750,0.0,1.000000,0.000000,0.000000,0.000000
1782115909.678076,413030,-0.996582,-0.084473,0.003418,-4.939024,1.768293,0.548781,-0.225000,30.956251,8.293750,0.0,1.000000,0.000000,0.000000,0.000000
1782115909.688076,413040,-0.999512,-0.094238,0.001465,-4.207317,1.707317,0.000000,-0.281250,30.950001,8.300000,0.0,1.000000,0.000000,0.000000,0.000000
1782115909.698076,413050,-1.001953,-0.099121,-0.003906,-3.353659,1.280488,0.121951,-0.281250,30.950001,8.300000,0.0,1.000000,0.000000,0.000000,0.000000
1782115909.711076,413063,-0.995117,-0.091309,-0.002930,-2.073171,0.853659,0.548781,-0.275000,30.956251,8.243751,0.0,1.000000,0.000000,0.000000,0.000000
1782115909.718076,413070,-0.992676,-0.091797,0.002930,0.000000,0.060976,0.670732,-0.275000,30.956251,8.243751,0.0,1.000000,0.000000,0.000000,0.000000
1782115909.728076,413080,-0.985352,-0.102539,0.003906,1.829268,-0.670732,-0.487805,-0.031250,31.275000,8.318750,0.0,1.000000,0.000000,0.000000,0.000000
1782115909.738076,413090,-0.982422,-0.122559,0.000488,2.804878,0.000000,-2.500000,-0.031250,31.275000,8.318750,0.0,1.000000,0.000000,0.000000,0.000000
1782115909.750076,413102,-0.985352,-0.139160,-0.008789,3.902439,0.914634,-4.756098,-0.375000,30.968750,8.306251,0.0,1.000000,0.000000,0.000000,0.000000
1782115909.759076,413111,-1.000977,-0.152344,-0.015137,5.670732,1.646341,-5.975610,-0.375000,30.968750,8.306251,0.0,1.000000,0.000000,0.000000,0.000000
1782115909.768076,413120,-1.017090,-0.148926,-0.012207,7.317073,0.731707,-6.219512,-0.393750,30.981251,8.306251,0.0,1.000000,0.000000,0.000000,0.000000
1782115909.778076,413130,-1.019531,-0.132324,-0.009766,9.146341,-0.914634,-6.036585,-0.393750,30.981251,8.306251,0.0,1.000000,0.000000,0.000000,0.000000
1782115909.790076,413142,-1.011719,-0.109863,-0.004883,11.341464,-2.439024,-6.097561,-0.443750,30.925001,8.356250,0.0,1.000000,0.000000,0.000000,0.000000
1782115909.798076,413150,-1.003906,-0.080566,-0.015625,12.378049,-2.012195,-5.731708,-0.443750,30.925001,8.356250,0.0,1.000000,0.000000,0.000000,0.000000
1782115909.808076,413160,-1.017090,-0.048828,-0.029297,12.865854,-0.670732,-4.390244,-0.318750,31.100000,8.468750,0.0,1.000000,0.000000,0.000000,0.000000
1782115909.818076,413170,-1.024902,-0.010254,-0.038574,12.134147,0.609756,-2.195122,-0.318750,31.100000,8.468750,0.0,1.000000,0.000000,0.000000,0.000000
1782115909.831076,413183,-1.024414,0.028320,-0.030762,12.317074,0.060976,0.365854,-0.225000,31.268751,8.575000,0.0,1.000000,0.000000,0.000000,0.000000
1782115909.839076,413191,-1.021973,0.053711,-0.014648,13.536586,-2.195122,3.109756,-0.256250,31.168751,8.512500,0.0,1.000000,0.000000,0.000000,0.000000
1782115909.848076,413200,-1.015625,0.065430,-0.001953,15.304878,-5.000000,5.304878,-0.256250,31.168751,8.512500,0.0,1.000000,0.000000,0.000000,0.000000
1782115909.858076,413210,-1.007812,0.068848,-0.001465,15.548780,-7.073171,6.829268,-0.193750,31.193750,8.618751,0.0,1.000000,0.000000,0.000000,0.000000
1782115909.871076,413223,-0.993164,0.068359,-0.005859,12.500000,-8.170732,6.524390,-0.193750,31.193750,8.618751,0.0,1.000000,0.000000,0.000000,0.000000
1782115909.878076,413230,-0.986328,0.046387,-0.018555,7.195122,-7.012195,5.426829,-0.100000,31.243750,8.750000,0.0,1.000000,0.000000,0.000000,0.000000
1782115909.888076,413240,-0.980469,0.029785,-0.029297,1.341463,-4.939024,3.902439,-0.100000,31.243750,8.750000,0.0,1.000000,0.000000,0.000000,0.000000
1782115909.898076,413250,-0.985352,0.003418,-0.039551,-4.756098,-1.158537,2.621951,-0.175000,31.106251,8.700000,0.0,1.000000,0.000000,0.000000,0.000000
1782115909.910076,413262,-0.992188,-0.031250,-0.038574,-10.182927,2.317073,0.609756,-0.175000,31.106251,8.700000,0.0,1.000000,0.000000,0.000000,0.000000
1782115909.918076,413270,-1.000488,-0.067871,-0.034180,-14.573171,5.182927,-1.280488,-0.200000,31.100000,8.600000,0.0,1.000000,0.000000,0.000000,0.000000
1782115909.929076,413281,-1.007812,-0.107910,-0.031250,-16.829269,7.560976,-2.621951,-0.200000,31.100000,8.600000,0.0,1.000000,0.000000,0.000000,0.000000
1782115909.938076,413290,-1.011230,-0.139160,-0.028320,-15.792684,8.536586,-3.353659,-0.362500,31.050001,8.437500,0.0,1.000000,0.000000,0.000000,0.000000
1782115909.952076,413304,-1.015137,-0.143066,-0.021973,-11.829268,8.475610,-2.682927,-0.362500,31.050001,8.437500,0.0,1.000000,0.000000,0.000000,0.000000
1782115909.959076,413311,-1.022461,-0.138672,-0.010254,-6.768293,7.317073,-0.731707,-0.287500,31.162500,8.437500,0.0,1.000000,0.000000,0.000000,0.000000
1782115909.968076,413320,-1.029785,-0.123047,0.000000,-2.317073,4.634146,1.158537,-0.287500,31.162500,8.437500,0.0,1.000000,0.000000,0.000000,0.000000
1782115909.979076,413331,-1.025879,-0.105957,0.003906,0.548781,2.134146,2.621951,-0.250000,31.168751,8.400001,0.0,1.000000,0.000000,0.000000,0.000000
1782115909.989076,413341,-1.017090,-0.081055,0.000488,2.134146,0.304878,3.780488,-0.250000,31.168751,8.400001,0.0,1.000000,0.000000,0.000000,0.000000
1782115909.999076,413351,-1.004883,-0.064453,-0.010254,2.500000,-0.304878,4.878049,-0.162500,31.225000,8.393750,0.0,1.000000,0.000000,0.000000,0.000000
1782115910.008076,413360,-1.000000,-0.051758,-0.015625,2.865854,-0.304878,5.792683,-0.162500,31.225000,8.393750,0.0,1.000000,0.000000,0.000000,0.000000
1782115910.019076,413371,-1.001953,-0.038086,-0.009766,3.292683,-0.792683,6.646342,-0.131250,31.125000,8.487500,0.0,1.000000,0.000000,0.000000,0.000000
1782115910.028076,413380,-1.006836,-0.032715,0.003906,3.353659,-1.951220,6.768293,-0.131250,31.125000,8.487500,0.0,1.000000,0.000000,0.000000,0.000000
1782115910.039076,413391,-0.997070,-0.041016,0.017090,2.560976,-3.048780,5.426829,-0.112500,31.050001,8.550000,0.0,1.000000,0.000000,0.000000,0.000000
1782115910.048076,413400,-0.997070,-0.043945,0.016602,-0.304878,-2.804878,4.268293,-0.112500,31.050001,8.550000,0.0,1.000000,0.000000,0.000000,0.000000
1782115910.058076,413410,-0.994629,-0.046875,0.011230,-4.451220,-2.073171,2.926829,-0.093750,30.943750,8.462501,0.0,1.000000,0.000000,0.000000,0.000000
1782115910.068076,413420,-0.990234,-0.055664,-0.001465,-8.780488,-0.914634,1.646341,-0.093750,30.943750,8.462501,0.0,1.000000,0.000000,0.000000,0.000000
1782115910.078076,413430,-0.991699,-0.063965,-0.009277,-12.256098,-0.060976,0.731707,-0.243750,30.806250,8.462501,0.0,1.000000,0.000000,0.000000,0.000000
1782115910.088076,413440,-0.992188,-0.073242,-0.014160,-14.207317,0.548781,0.792683,-0.243750,30.806250,8.462501,0.0,1.000000,0.000000,0.000000,0.000000
1782115910.098076,413450,-0.989258,-0.089355,-0.017578,-14.512196,1.219512,0.975610,-0.375000,30.731251,8.443750,0.0,1.000000,0.000000,0.000000,0.000000
1782115910.108076,413460,-0.994629,-0.110352,-0.022949,-13.841464,1.341463,1.097561,-0.375000,30.731251,8.443750,0.0,1.000000,0.000000,0.000000,0.000000
1782115910.118076,413470,-0.992676,-0.126953,-0.034668,-12.560976,1.646341,0.914634,-0.500000,30.637501,8.275001,0.0,1.000000,0.000000,0.000000,0.000000
1782115910.128076,413480,-0.997070,-0.143066,-0.045898,-10.365854,2.073171,0.670732,-0.500000,30.637501,8.275001,0.0,1.000000,0.000000,0.000000,0.000000
1782115910.138076,413490,-1.001465,-0.149414,-0.054688,-7.317073,2.560976,0.426829,-0.500000,30.675001,8.243751,0.0,1.000000,0.000000,0.000000,0.000000
1782115910.149076,413501,-1.008301,-0.151855,-0.053223,-3.902439,2.073171,0.060976,-0.500000,30.718750,8.225000,0.0,1.000000,0.000000,0.000000,0.000000
1782115910.159076,413511,-1.005371,-0.147461,-0.047852,-0.365854,0.670732,-0.792683,-0.500000,30.718750,8.225000,0.0,1.000000,0.000000,0.000000,0.000000
1782115910.168076,413520,-0.995605,-0.137207,-0.042480,2.500000,-0.304878,-1.829268,-0.393750,30.931250,8.212501,0.0,1.000000,0.000000,0.000000,0.000000
1782115910.179076,413531,-0.986328,-0.131348,-0.034180,5.670732,-0.853659,-2.560976,-0.393750,30.931250,8.212501,0.0,1.000000,0.000000,0.000000,0.000000
1782115910.188076,413540,-0.979492,-0.129883,-0.037598,7.865854,-0.609756,-3.109756,-0.400000,30.950001,8.281250,0.0,1.000000,0.000000,0.000000,0.000000
1782115910.199076,413551,-0.976562,-0.113770,-0.040527,9.329268,0.731707,-3.231707,-0.400000,30.950001,8.281250,0.0,1.000000,0.000000,0.000000,0.000000
1782115910.208076,413560,-0.989746,-0.105469,-0.040527,9.756098,1.829268,-2.743902,-0.231250,31.106251,8.337501,0.0,1.000000,0.000000,0.000000,0.000000
1782115910.218076,413570,-1.009277,-0.090332,-0.041504,8.902439,3.109756,-2.073171,-0.231250,31.106251,8.337501,0.0,1.000000,0.000000,0.000000,0.000000
1782115910.228076,413580,-1.023438,-0.070801,-0.034668,7.621952,2.743902,-1.402439,-0.400000,30.956251,8.381250,0.0,1.000000,0.000000,0.000000,0.000000
1782115910.238076,413590,-1.020508,-0.056641,-0.027832,6.768293,1.951220,-1.219512,-0.400000,30.956251,8.381250,0.0,1.000000,0.000000,0.000000,0.000000
1782115910.248076,413600,-1.020508,-0.056641,-0.027832,6.768293,1.951220,-1.219512,-0.325000,31.043751,8.337501,0.0,1.000000,0.000000,0.000000,0.000000
1782115910.258076,413610,-1.013672,-0.042969,-0.024414,6.768293,1.402439,-0.548781,-0.325000,31.043751,8.337501,0.0,1.000000,0.000000,0.000000,0.000000
1782115910.268076,413620,-1.007324,-0.023438,-0.027832,6.890244,1.219512,0.243902,-0.406250,31.075001,8.393750,0.0,1.000000,0.000000,0.000000,0.000000
1782115910.278076,413630,-1.011719,0.001465,-0.024414,7.195122,1.097561,1.463415,-0.406250,31.075001,8.393750,0.0,1.000000,0.000000,0.000000,0.000000
