Unix_Time_s,EMG_t_s,sample_idx,fs,gain,flags,emg_valid,ch1_raw_uV,ch1_filt_uV,ch1_env_uV,ch2_raw_uV,ch2_filt_uV,ch2_env_uV
1782115902.408076,0.000000,356720,1000,12,0,1,353.440,-0.692,3.653,471.238,0.167,0.902
1782115902.409076,0.001000,356721,1000,12,0,1,355.530,-0.317,3.651,470.205,-0.736,0.902
1782115902.410076,0.002000,356722,1000,12,0,1,355.482,1.112,3.655,470.853,-0.296,0.903
1782115902.411076,0.003000,356723,1000,12,0,1,354.905,-0.442,3.561,472.439,1.393,0.909
1782115902.412076,0.004000,356724,1000,12,0,1,353.921,-0.693,3.441,471.814,0.917,0.895
1782115902.413076,0.005000,356725,1000,12,0,1,354.041,-0.835,3.392,470.109,-0.799,0.887
1782115902.414076,0.006000,356726,1000,12,0,1,356.995,1.746,3.375,470.061,-0.991,0.898
1782115902.415076,0.007000,356727,1000,12,0,1,354.329,0.478,3.368,471.454,0.446,0.875
1782115902.416076,0.008000,356728,1000,12,0,1,354.041,-1.459,3.361,470.925,0.253,0.861
1782115902.417076,0.009000,356729,1000,12,0,1,354.329,0.210,3.359,471.790,0.454,0.858
1782115902.418076,0.010000,356730,1000,12,0,1,356.323,0.783,3.356,471.165,0.443,0.856
1782115902.419076,0.011000,356731,1000,12,0,1,357.283,2.437,3.373,470.589,-0.680,0.854
1782115902.420076,0.012000,356732,1000,12,0,1,357.163,1.231,3.374,471.021,-0.049,0.852
1782115902.421076,0.013000,356733,1000,12,0,1,356.683,0.683,3.342,471.790,0.521,0.852
1782115902.422076,0.014000,356734,1000,12,0,1,356.947,0.228,3.337,472.463,1.092,0.865
1782115902.423076,0.015000,356735,1000,12,0,1,356.275,-0.410,3.334,471.862,0.556,0.868
1782115902.424076,0.016000,356736,1000,12,0,1,354.761,-2.012,3.340,469.700,-1.445,0.888
1782115902.425076,0.017000,356737,1000,12,0,1,357.548,-0.229,3.335,470.757,-0.843,0.862
1782115902.426076,0.018000,356738,1000,12,0,1,357.644,0.875,3.329,471.550,0.573,0.861
1782115902.427076,0.019000,356739,1000,12,0,1,359.806,1.186,3.326,471.358,0.169,0.842
1782115902.428076,0.020000,356740,1000,12,0,1,357.884,0.770,3.301,471.910,0.640,0.834
1782115902.429076,0.021000,356741,1000,12,0,1,353.993,-3.939,3.282,471.093,0.150,0.827
1782115902.430076,0.022000,356742,1000,12,0,1,354.281,-3.229,3.192,470.037,-1.041,0.804
1782115902.431076,0.023000,356743,1000,12,0,1,355.338,-1.555,3.027,471.862,0.514,0.787
1782115902.432076,0.024000,356744,1000,12,0,1,357.332,0.275,2.974,471.189,0.540,0.787
1782115902.433076,0.025000,356745,1000,12,0,1,353.320,-1.917,2.789,470.589,-0.626,0.790
1782115902.434076,0.026000,356746,1000,12,0,1,351.326,-4.766,2.387,468.859,-1.511,0.818
1782115902.435076,0.027000,356747,1000,12,0,1,351.687,-2.757,2.052,470.181,-0.985,0.819
1782115902.436076,0.028000,356748,1000,12,0,1,353.536,-1.151,2.020,473.327,2.405,0.887
1782115902.437076,0.029000,356749,1000,12,0,1,353.897,0.294,1.906,474.480,3.188,0.995
1782115902.438076,0.030000,356750,1000,12,0,1,353.152,-0.630,1.720,470.973,0.002,0.994
1782115902.439076,0.031000,356751,1000,12,0,1,348.876,-3.568,1.775,469.844,-1.983,1.003
1782115902.440076,0.032000,356752,1000,12,0,1,349.717,-3.558,1.836,470.949,-0.491,0.947
1782115902.441076,0.033000,356753,1000,12,0,1,351.879,-0.114,1.826,471.238,-0.104,0.941
1782115902.442076,0.034000,356754,1000,12,0,1,352.527,0.369,1.768,472.583,0.798,0.944
1782115902.443076,0.035000,356755,1000,12,0,1,353.176,0.975,1.762,474.240,2.382,1.003
1782115902.444076,0.036000,356756,1000,12,0,1,354.041,1.674,1.701,472.871,1.017,1.007
1782115902.445076,0.037000,356757,1000,12,0,1,356.851,3.511,1.675,471.790,-0.483,1.009
1782115902.446076,0.038000,356758,1000,12,0,1,354.689,2.278,1.691,470.709,-1.213,1.013
1782115902.447076,0.039000,356759,1000,12,0,1,349.597,-3.232,1.746,471.790,-0.533,1.014
1782115902.448076,0.040000,356760,1000,12,0,1,350.293,-2.580,1.783,472.054,0.326,1.015
1782115902.449076,0.041000,356761,1000,12,0,1,351.543,-0.324,1.778,471.598,-0.351,1.014
1782115902.450076,0.042000,356762,1000,12,0,1,350.822,-0.614,1.780,473.712,1.298,1.026
1782115902.451076,0.043000,356763,1000,12,0,1,351.086,-0.139,1.780,473.039,1.266,1.040
1782115902.452076,0.044000,356764,1000,12,0,1,348.564,-1.371,1.789,473.688,0.703,1.044
1782115902.453076,0.045000,356765,1000,12,0,1,347.123,-2.767,1.818,472.535,0.462,1.046
1782115902.454076,0.046000,356766,1000,12,0,1,350.173,0.617,1.819,470.253,-2.307,1.072
1782115902.455076,0.047000,356767,1000,12,0,1,356.203,6.108,2.011,470.061,-2.193,1.103
1782115902.456076,0.048000,356768,1000,12,0,1,358.052,7.941,2.299,471.526,-0.733,1.107
1782115902.457076,0.049000,356769,1000,12,0,1,358.292,6.471,2.470,471.430,-0.350,1.107
1782115902.458076,0.050000,356770,1000,12,0,1,354.593,2.897,2.502,472.270,0.006,1.107
1782115902.459076,0.051000,356771,1000,12,0,1,349.813,-2.592,2.528,472.126,0.270,1.103
1782115902.460076,0.052000,356772,1000,12,0,1,347.555,-4.503,2.602,473.904,1.145,1.114
1782115902.461076,0.053000,356773,1000,12,0,1,347.699,-3.930,2.660,471.622,-0.034,1.096
1782115902.462076,0.054000,356774,1000,12,0,1,343.760,-6.021,2.792,472.150,-0.941,1.097
1782115902.463076,0.055000,356775,1000,12,0,1,344.096,-6.028,2.917,471.502,-0.265,1.092
1782115902.464076,0.056000,356776,1000,12,0,1,347.051,-1.662,2.916,471.718,-0.946,1.091
1782115902.465076,0.057000,356777,1000,12,0,1,349.573,0.872,2.917,471.622,-0.236,1.089
1782115902.466076,0.058000,356778,1000,12,0,1,351.398,2.738,2.936,471.382,-0.695,1.093
1782115902.467076,0.059000,356779,1000,12,0,1,349.933,1.615,2.944,473.183,0.861,1.098
1782115902.468076,0.060000,356780,1000,12,0,1,347.435,-1.082,2.946,473.279,1.466,1.116
1782115902.469076,0.061000,356781,1000,12,0,1,344.913,-2.718,2.951,474.288,1.445,1.130
1782115902.470076,0.062000,356782,1000,12,0,1,342.967,-4.075,3.002,472.391,0.595,1.133
1782115902.471076,0.063000,356783,1000,12,0,1,343.568,-2.651,3.024,470.012,-2.454,1.183
1782115902.472076,0.064000,356784,1000,12,0,1,344.264,-0.988,3.027,471.478,-0.805,1.178
1782115902.473076,0.065000,356785,1000,12,0,1,344.528,-0.136,3.026,471.718,-0.050,1.176
1782115902.474076,0.066000,356786,1000,12,0,1,345.561,1.159,3.017,472.150,0.018,1.158
1782115902.475076,0.067000,356787,1000,12,0,1,345.273,1.475,3.024,471.286,-0.257,1.152
1782115902.476076,0.068000,356788,1000,12,0,1,345.561,1.502,3.029,470.397,-1.423,1.167
1782115902.477076,0.069000,356789,1000,12,0,1,344.649,1.242,3.030,471.622,-0.171,1.167
1782115902.478076,0.070000,356790,1000,12,0,1,345.561,1.465,3.035,471.238,-0.106,1.164
1782115902.479076,0.071000,356791,1000,12,0,1,346.210,2.579,3.005,471.862,-0.040,1.163
1782115902.480076,0.072000,356792,1000,12,0,1,346.714,2.432,2.990,472.342,0.795,1.160
1782115902.481076,0.073000,356793,1000,12,0,1,347.483,2.982,3.012,471.574,-0.142,1.157
1782115902.482076,0.074000,356794,1000,12,0,1,342.895,-0.735,3.014,471.406,-0.371,1.156
1782115902.483076,0.075000,356795,1000,12,0,1,344.528,-0.924,3.004,472.198,0.322,1.154
1782115902.484076,0.076000,356796,1000,12,0,1,348.564,4.003,2.982,471.790,0.174,1.134
1782115902.485076,0.077000,356797,1000,12,0,1,348.396,3.263,2.992,472.006,0.057,1.125
1782115902.486076,0.078000,356798,1000,12,0,1,347.459,1.896,3.000,473.471,1.403,1.091
1782115902.487076,0.079000,356799,1000,12,0,1,346.570,0.814,3.001,472.102,0.499,0.996
1782115902.488076,0.080000,356800,1000,12,0,1,348.492,1.885,3.012,471.478,-0.698,1.001
1782115902.489076,0.081000,356801,1000,12,0,1,349.381,3.085,3.001,471.718,-0.022,0.961
1782115902.490076,0.082000,356802,1000,12,0,1,350.558,3.083,2.991,471.574,-0.215,0.959
1782115902.491076,0.083000,356803,1000,12,0,1,350.366,3.054,3.022,471.862,0.138,0.959
1782115902.492076,0.084000,356804,1000,12,0,1,350.197,1.865,3.033,471.430,-0.067,0.952
1782115902.493076,0.085000,356805,1000,12,0,1,351.567,2.792,3.055,472.775,0.745,0.897
1782115902.494076,0.086000,356806,1000,12,0,1,352.167,2.925,3.074,471.430,0.259,0.886
1782115902.495076,0.087000,356807,1000,12,0,1,353.680,3.328,3.070,472.463,0.073,0.883
1782115902.496076,0.088000,356808,1000,12,0,1,353.488,2.956,3.082,470.709,-0.269,0.867
1782115902.497076,0.089000,356809,1000,12,0,1,353.608,1.757,3.058,469.316,-2.515,0.934
1782115902.498076,0.090000,356810,1000,12,0,1,353.824,1.686,3.045,471.550,-0.056,0.933
1782115902.499076,0.091000,356811,1000,12,0,1,353.849,0.809,3.047,473.399,1.790,0.966
1782115902.500076,0.092000,356812,1000,12,0,1,353.849,0.387,3.046,473.399,1.551,0.973
1782115902.501076,0.093000,356813,1000,12,0,1,353.752,-0.278,3.046,473.303,1.109,0.969
1782115902.502076,0.094000,356814,1000,12,0,1,352.720,-1.449,3.047,473.279,0.756,0.970
1782115902.503076,0.095000,356815,1000,12,0,1,352.936,-1.796,3.032,474.000,1.150,0.982
1782115902.504076,0.096000,356816,1000,12,0,1,351.326,-2.815,3.057,473.447,0.604,0.930
1782115902.505076,0.097000,356817,1000,12,0,1,351.158,-3.525,2.975,470.781,-1.767,0.911
1782115902.506076,0.098000,356818,1000,12,0,1,351.879,-2.285,2.773,471.334,-1.772,0.939
1782115902.507076,0.099000,356819,1000,12,0,1,353.704,-0.875,2.621,471.093,-0.899,0.947
1782115902.508076,0.100000,356820,1000,12,0,1,353.776,-0.360,2.589,472.679,-0.150,0.947
1782115902.509076,0.101000,356821,1000,12,0,1,354.521,-0.329,2.564,473.039,1.138,0.960
1782115902.510076,0.102000,356822,1000,12,0,1,357.139,1.871,2.497,473.375,0.687,0.951
1782115902.511076,0.103000,356823,1000,12,0,1,358.196,2.670,2.464,471.069,-0.637,0.955
1782115902.512076,0.104000,356824,1000,12,0,1,357.644,1.420,2.321,471.550,-1.152,0.960
1782115902.513076,0.105000,356825,1000,12,0,1,357.356,0.679,2.161,472.631,0.688,0.964
1782115902.514076,0.106000,356826,1000,12,0,1,356.371,-0.490,2.149,472.895,0.586,0.958
1782115902.515076,0.107000,356827,1000,12,0,1,356.371,-0.872,2.149,471.646,-0.344,0.959
1782115902.516076,0.108000,356828,1000,12,0,1,355.242,-1.601,2.126,471.790,-0.616,0.958
1782115902.517076,0.109000,356829,1000,12,0,1,358.364,0.287,2.114,472.463,0.189,0.950
1782115902.518076,0.110000,356830,1000,12,0,1,360.190,2.678,2.142,470.589,-1.178,0.942
1782115902.519076,0.111000,356831,1000,12,0,1,359.421,1.017,2.112,471.502,-1.110,0.933
1782115902.520076,0.112000,356832,1000,12,0,1,358.412,-0.240,2.032,471.430,-0.113,0.930
1782115902.521076,0.113000,356833,1000,12,0,1,359.806,0.274,1.998,472.294,-0.212,0.863
1782115902.522076,0.114000,356834,1000,12,0,1,359.085,-0.083,1.993,471.069,-0.299,0.856
1782115902.523076,0.115000,356835,1000,12,0,1,359.181,-0.944,1.998,470.733,-1.445,0.880
1782115902.524076,0.116000,356836,1000,12,0,1,360.478,0.223,1.991,472.126,0.393,0.882
1782115902.525076,0.117000,356837,1000,12,0,1,360.238,-0.168,1.980,472.367,0.666,0.886
1782115902.526076,0.118000,356838,1000,12,0,1,359.133,-1.585,1.981,473.592,1.404,0.886
1782115902.527076,0.119000,356839,1000,12,0,1,358.268,-2.363,2.002,473.952,1.996,0.929
1782115902.528076,0.120000,356840,1000,12,0,1,357.860,-2.780,2.029,471.021,-0.772,0.936
1782115902.529076,0.121000,356841,1000,12,0,1,357.332,-2.839,2.036,472.318,-0.317,0.937
1782115902.530076,0.122000,356842,1000,12,0,1,354.305,-4.977,2.127,473.111,1.293,0.948
1782115902.531076,0.123000,356843,1000,12,0,1,355.098,-4.409,2.176,472.583,0.335,0.949
1782115902.532076,0.124000,356844,1000,12,0,1,356.971,-1.472,2.183,472.294,0.174,0.948
1782115902.533076,0.125000,356845,1000,12,0,1,355.794,-2.060,2.199,474.841,1.932,0.985
1782115902.534076,0.126000,356846,1000,12,0,1,358.533,-0.105,2.125,473.111,1.148,0.998
1782115902.535076,0.127000,356847,1000,12,0,1,361.151,3.093,2.120,471.069,-1.724,1.027
1782115902.536076,0.128000,356848,1000,12,0,1,359.854,1.495,2.113,473.111,0.137,1.008
1782115902.537076,0.129000,356849,1000,12,0,1,358.364,-0.262,2.111,473.303,0.838,1.013
1782115902.538076,0.130000,356850,1000,12,0,1,360.863,1.377,2.103,471.598,-1.141,1.021
1782115902.539076,0.131000,356851,1000,12,0,1,362.520,3.201,2.106,472.559,-0.464,1.023
1782115902.540076,0.132000,356852,1000,12,0,1,360.118,0.636,2.062,473.063,0.287,1.023
1782115902.541076,0.133000,356853,1000,12,0,1,357.404,-2.280,2.042,470.661,-1.715,1.051
1782115902.542076,0.134000,356854,1000,12,0,1,359.373,-0.846,2.029,470.661,-2.198,1.096
1782115902.543076,0.135000,356855,1000,12,0,1,359.469,0.152,1.990,472.150,-0.198,1.092
1782115902.544076,0.136000,356856,1000,12,0,1,359.878,-0.227,1.947,471.262,-0.756,1.096
1782115902.545076,0.137000,356857,1000,12,0,1,359.662,0.120,1.889,469.676,-2.119,1.136
1782115902.546076,0.138000,356858,1000,12,0,1,357.812,-1.711,1.858,469.508,-2.047,1.172
1782115902.547076,0.139000,356859,1000,12,0,1,357.524,-2.009,1.863,470.517,-0.738,1.122
1782115902.548076,0.140000,356860,1000,12,0,1,358.388,-0.800,1.851,472.318,1.070,1.132
1782115902.549076,0.141000,356861,1000,12,0,1,358.412,-0.574,1.850,473.423,2.191,1.146
1782115902.550076,0.142000,356862,1000,12,0,1,360.766,1.238,1.857,471.742,0.742,1.130
1782115902.551076,0.143000,356863,1000,12,0,1,361.823,2.520,1.891,471.021,-0.436,1.120
1782115902.552076,0.144000,356864,1000,12,0,1,359.493,0.135,1.880,471.622,0.385,1.116
1782115902.553076,0.145000,356865,1000,12,0,1,358.436,-1.367,1.872,472.150,0.816,1.111
1782115902.554076,0.146000,356866,1000,12,0,1,355.362,-3.242,1.886,470.157,-0.597,1.111
1782115902.555076,0.147000,356867,1000,12,0,1,355.794,-3.496,1.885,470.277,-1.063,1.092
1782115902.556076,0.148000,356868,1000,12,0,1,354.161,-3.053,1.907,472.222,1.159,1.076
1782115902.557076,0.149000,356869,1000,12,0,1,353.368,-4.226,1.994,471.622,0.807,1.074
1782115902.558076,0.150000,356870,1000,12,0,1,352.047,-3.717,2.062,472.367,0.805,1.080
1782115902.559076,0.151000,356871,1000,12,0,1,350.101,-5.059,2.182,473.183,1.843,1.100
1782115902.560076,0.152000,356872,1000,12,0,1,348.060,-5.545,2.303,473.183,1.306,1.111
1782115902.561076,0.153000,356873,1000,12,0,1,347.291,-5.244,2.390,469.820,-1.299,1.122
1782115902.562076,0.154000,356874,1000,12,0,1,344.625,-5.860,2.522,471.838,-0.795,1.116
1782115902.563076,0.155000,356875,1000,12,0,1,340.109,-8.424,2.787,470.757,0.027,1.112
1782115902.564076,0.156000,356876,1000,12,0,1,339.436,-7.786,2.996,470.685,-1.442,1.127
1782115902.565076,0.157000,356877,1000,12,0,1,345.706,-0.606,2.995,470.661,-0.264,1.127
1782115902.566076,0.158000,356878,1000,12,0,1,353.584,7.507,3.169,470.109,-1.166,1.135
1782115902.567076,0.159000,356879,1000,12,0,1,360.358,13.107,3.671,472.535,0.979,1.144
1782115902.568076,0.160000,356880,1000,12,0,1,363.337,14.495,4.188,471.406,0.846,1.138
1782115902.569076,0.161000,356881,1000,12,0,1,354.449,5.851,4.266,472.294,0.311,1.128
1782115902.570076,0.162000,356882,1000,12,0,1,349.765,-1.433,4.271,473.520,2.326,1.175
1782115902.571076,0.163000,356883,1000,12,0,1,350.317,0.167,4.271,471.982,0.332,1.175
1782115902.572076,0.164000,356884,1000,12,0,1,355.458,3.831,4.305,472.246,0.293,1.175
1782115902.573076,0.165000,356885,1000,12,0,1,355.770,5.425,4.371,470.733,-0.624,1.161
1782115902.574076,0.166000,356886,1000,12,0,1,354.833,2.869,4.390,471.862,-0.393,1.161
1782115902.575076,0.167000,356887,1000,12,0,1,357.428,4.881,4.443,471.670,0.423,1.158
1782115902.576076,0.168000,356888,1000,12,0,1,357.884,5.172,4.498,471.814,-0.270,1.142
1782115902.577076,0.169000,356889,1000,12,0,1,357.620,3.683,4.515,473.087,1.223,1.120
1782115902.578076,0.170000,356890,1000,12,0,1,358.821,4.282,4.539,473.399,1.267,1.129
1782115902.579076,0.171000,356891,1000,12,0,1,356.779,2.046,4.530,471.934,-0.097,1.128
1782115902.580076,0.172000,356892,1000,12,0,1,354.737,-0.608,4.476,470.253,-1.780,1.141
1782115902.581076,0.173000,356893,1000,12,0,1,354.041,-1.365,4.437,470.517,-1.596,1.162
1782115902.582076,0.174000,356894,1000,12,0,1,354.041,-1.372,4.436,471.958,0.049,1.162
1782115902.583076,0.175000,356895,1000,12,0,1,355.362,-0.400,4.427,471.141,-0.389,1.131
1782115902.584076,0.176000,356896,1000,12,0,1,355.050,-0.381,4.427,473.423,0.946,1.127
1782115902.585076,0.177000,356897,1000,12,0,1,352.840,-2.690,4.422,473.592,1.883,1.132
1782115902.586076,0.178000,356898,1000,12,0,1,352.359,-3.243,4.441,471.790,-0.466,1.134
1782115902.587076,0.179000,356899,1000,12,0,1,347.651,-6.258,4.528,468.355,-3.063,1.208
1782115902.588076,0.180000,356900,1000,12,0,1,349.477,-5.637,4.593,470.781,-1.682,1.221
1782115902.589076,0.181000,356901,1000,12,0,1,345.898,-5.600,4.639,472.342,1.208,1.231
1782115902.590076,0.182000,356902,1000,12,0,1,347.603,-5.791,4.710,471.622,0.022,1.230
1782115902.591076,0.183000,356903,1000,12,0,1,349.164,-1.313,4.702,470.421,-0.805,1.211
1782115902.592076,0.184000,356904,1000,12,0,1,350.101,-1.227,4.704,470.061,-1.186,1.183
1782115902.593076,0.185000,356905,1000,12,0,1,348.372,-1.233,4.707,469.148,-1.568,1.203
1782115902.594076,0.186000,356906,1000,12,0,1,346.955,-2.741,4.723,470.325,-0.590,1.201
1782115902.595076,0.187000,356907,1000,12,0,1,348.204,-0.944,4.725,471.189,0.705,1.167
1782115902.596076,0.188000,356908,1000,12,0,1,350.390,1.751,4.725,472.342,1.469,1.150
1782115902.597076,0.189000,356909,1000,12,0,1,356.299,6.284,4.800,469.820,-0.267,1.146
1782115902.598076,0.190000,356910,1000,12,0,1,356.635,7.661,4.919,471.502,0.053,1.136
1782115902.599076,0.191000,356911,1000,12,0,1,354.161,3.340,4.941,468.715,-0.735,1.098
1782115902.600076,0.192000,356912,1000,12,0,1,355.026,3.819,4.967,470.373,-1.076,1.103
1782115902.601076,0.193000,356913,1000,12,0,1,354.545,3.022,4.973,470.301,0.822,1.107
1782115902.602076,0.194000,356914,1000,12,0,1,353.296,1.361,4.977,468.499,-1.730,1.133
1782115902.603076,0.195000,356915,1000,12,0,1,353.776,1.319,4.976,469.916,-0.216,1.127
1782115902.604076,0.196000,356916,1000,12,0,1,351.567,-0.281,4.955,471.310,1.479,1.143
1782115902.605076,0.197000,356917,1000,12,0,1,348.108,-3.688,4.958,471.045,0.980,1.142
1782115902.606076,0.198000,356918,1000,12,0,1,346.690,-4.569,4.982,470.277,0.417,1.132
1782115902.607076,0.199000,356919,1000,12,0,1,346.258,-4.129,4.980,471.406,0.815,1.132
1782115902.608076,0.200000,356920,1000,12,0,1,344.288,-4.912,5.001,471.430,1.470,1.145
1782115902.609076,0.201000,356921,1000,12,0,1,341.766,-6.319,5.029,471.814,0.957,1.123
1782115902.610076,0.202000,356922,1000,12,0,1,340.517,-6.398,5.049,470.973,0.756,1.113
1782115902.611076,0.203000,356923,1000,12,0,1,338.980,-6.215,5.071,470.685,-0.237,1.098
1782115902.612076,0.204000,356924,1000,12,0,1,341.406,-3.512,5.028,470.757,0.252,1.093
1782115902.613076,0.205000,356925,1000,12,0,1,340.709,-1.914,4.892,470.613,-0.088,1.093
1782115902.614076,0.206000,356926,1000,12,0,1,339.676,-2.994,4.785,470.637,0.021,1.074
1782115902.615076,0.207000,356927,1000,12,0,1,338.715,-2.319,4.796,468.427,-1.567,1.096
1782115902.616076,0.208000,356928,1000,12,0,1,342.487,0.790,4.678,470.373,-0.606,1.087
1782115902.617076,0.209000,356929,1000,12,0,1,344.024,3.824,4.329,471.117,1.294,1.094
1782115902.618076,0.210000,356930,1000,12,0,1,341.598,1.311,3.818,472.943,1.735,1.114
1782115902.619076,0.211000,356931,1000,12,0,1,338.643,-1.029,3.730,470.421,0.613,1.117
1782115902.620076,0.212000,356932,1000,12,0,1,339.124,-0.431,3.725,469.436,-1.786,1.097
1782115902.621076,0.213000,356933,1000,12,0,1,333.647,-3.307,3.754,469.916,-0.408,1.097
1782115902.622076,0.214000,356934,1000,12,0,1,326.537,-9.238,3.938,470.373,-0.306,1.097
1782115902.623076,0.215000,356935,1000,12,0,1,321.829,-11.105,4.169,468.667,-1.273,1.109
1782115902.624076,0.216000,356936,1000,12,0,1,326.225,-5.710,4.227,468.908,-1.486,1.127
1782115902.625076,0.217000,356937,1000,12,0,1,326.633,-1.480,4.176,471.069,0.816,1.131
1782115902.626076,0.218000,356938,1000,12,0,1,317.866,-7.724,4.254,471.742,1.654,1.155
1782115902.627076,0.219000,356939,1000,12,0,1,309.290,-13.582,4.638,471.406,0.903,1.149
1782115902.628076,0.220000,356940,1000,12,0,1,312.653,-8.572,4.756,469.700,-0.376,1.136
1782115902.629076,0.221000,356941,1000,12,0,1,325.312,5.281,4.805,471.862,0.594,1.139
1782115902.630076,0.222000,356942,1000,12,0,1,339.052,18.367,5.462,471.622,1.554,1.132
1782115902.631076,0.223000,356943,1000,12,0,1,340.997,19.690,6.128,471.358,0.092,1.110
1782115902.632076,0.224000,356944,1000,12,0,1,341.766,16.396,6.549,472.751,1.704,1.135
1782115902.633076,0.225000,356945,1000,12,0,1,350.726,21.319,7.209,472.078,0.948,1.142
1782115902.634076,0.226000,356946,1000,12,0,1,361.655,27.934,8.220,471.622,0.088,1.134
1782115902.635076,0.227000,356947,1000,12,0,1,382.553,39.737,9.950,470.733,-0.455,1.104
1782115902.636076,0.228000,356948,1000,12,0,1,384.595,39.054,11.371,469.772,-1.546,1.124
1782115902.637076,0.229000,356949,1000,12,0,1,366.700,14.604,11.523,470.901,-0.427,1.039
1782115902.638076,0.230000,356950,1000,12,0,1,341.045,-11.140,11.603,470.469,-0.358,1.012
1782115902.639076,0.231000,356951,1000,12,0,1,316.785,-33.378,12.502,471.117,-0.217,0.998
1782115902.640076,0.232000,356952,1000,12,0,1,303.669,-41.167,13.766,471.958,0.882,1.006
1782115902.641076,0.233000,356953,1000,12,0,1,300.955,-36.847,14.718,470.229,-0.640,1.004
1782115902.642076,0.234000,356954,1000,12,0,1,301.580,-29.157,15.284,470.133,-1.193,1.004
1782115902.643076,0.235000,356955,1000,12,0,1,295.622,-26.886,15.749,472.463,1.077,0.991
1782115902.644076,0.236000,356956,1000,12,0,1,286.663,-29.577,16.290,472.511,1.305,1.004
1782115902.645076,0.237000,356957,1000,12,0,1,285.486,-24.870,16.665,471.838,0.192,1.000
1782115902.646076,0.238000,356958,1000,12,0,1,304.798,-4.322,16.675,470.853,-0.626,0.982
1782115902.647076,0.239000,356959,1000,12,0,1,337.707,27.657,17.104,471.742,-0.242,0.982
1782115902.648076,0.240000,356960,1000,12,0,1,362.928,48.189,18.380,470.901,-0.365,0.983
1782115902.649076,0.241000,356961,1000,12,0,1,366.339,45.496,19.468,471.021,-0.866,0.985
1782115902.650076,0.242000,356962,1000,12,0,1,358.460,29.537,19.904,470.925,-0.334,0.975
1782115902.651076,0.243000,356963,1000,12,0,1,352.840,17.518,20.053,470.421,-0.964,0.977
1782115902.652076,0.244000,356964,1000,12,0,1,340.229,3.349,20.057,472.727,0.936,0.955
1782115902.653076,0.245000,356965,1000,12,0,1,327.258,-11.426,20.121,469.172,-1.021,0.966
1782115902.654076,0.246000,356966,1000,12,0,1,326.465,-12.010,20.193,469.172,-2.570,1.010
1782115902.655076,0.247000,356967,1000,12,0,1,332.302,-4.790,20.198,470.637,0.337,1.002
1782115902.656076,0.248000,356968,1000,12,0,1,342.511,5.114,20.200,469.028,-1.296,1.017
1782115902.657076,0.249000,356969,1000,12,0,1,373.618,29.953,20.631,468.715,-1.479,1.032
1782115902.658076,0.250000,356970,1000,12,0,1,401.650,53.815,21.979,469.172,-0.635,1.015
1782115902.659076,0.251000,356971,1000,12,0,1,391.513,39.753,22.669,470.133,0.213,1.006
1782115902.660076,0.252000,356972,1000,12,0,1,377.101,15.981,22.764,472.463,2.321,1.053
1782115902.661076,0.253000,356973,1000,12,0,1,381.977,15.302,22.849,471.574,1.717,1.080
1782115902.662076,0.254000,356974,1000,12,0,1,384.427,14.912,22.941,470.469,0.012,1.079
1782115902.663076,0.255000,356975,1000,12,0,1,373.666,1.849,22.941,469.172,-0.900,1.087
1782115902.664076,0.256000,356976,1000,12,0,1,363.553,-10.948,22.989,468.307,-1.795,1.116
1782115902.665076,0.257000,356977,1000,12,0,1,357.235,-17.087,23.114,469.028,-0.936,1.102
1782115902.666076,0.258000,356978,1000,12,0,1,356.203,-18.490,23.261,468.139,-1.094,1.109
1782115902.667076,0.259000,356979,1000,12,0,1,349.597,-22.099,23.464,469.676,-0.232,1.095
1782115902.668076,0.260000,356980,1000,12,0,1,345.513,-26.143,23.752,470.445,1.363,1.084
1782115902.669076,0.261000,356981,1000,12,0,1,351.422,-19.198,23.907,469.964,0.438,1.082
1782115902.670076,0.262000,356982,1000,12,0,1,359.229,-10.669,23.954,470.757,1.156,1.065
1782115902.671076,0.263000,356983,1000,12,0,1,358.509,-10.340,23.994,471.478,1.757,1.092
1782115902.672076,0.264000,356984,1000,12,0,1,355.410,-13.732,24.037,470.901,1.139,1.103
1782115902.673076,0.265000,356985,1000,12,0,1,361.583,-8.760,24.018,473.231,2.492,1.144
1782115902.674076,0.266000,356986,1000,12,0,1,355.794,-10.390,24.049,471.334,1.563,1.146
1782115902.675076,0.267000,356987,1000,12,0,1,341.045,-23.765,24.282,469.004,-1.646,1.164
1782115902.676076,0.268000,356988,1000,12,0,1,340.013,-22.566,24.466,469.796,-0.650,1.143
1782115902.677076,0.269000,356989,1000,12,0,1,348.396,-10.677,24.437,469.820,-0.257,1.137
1782115902.678076,0.270000,356990,1000,12,0,1,358.004,0.835,24.408,468.787,-1.195,1.148
1782115902.679076,0.271000,356991,1000,12,0,1,359.445,4.824,24.406,470.037,-0.157,1.145
1782115902.680076,0.272000,356992,1000,12,0,1,355.482,1.468,24.268,470.373,0.568,1.127
1782115902.681076,0.273000,356993,1000,12,0,1,354.785,1.502,24.109,470.421,0.302,1.128
1782115902.682076,0.274000,356994,1000,12,0,1,354.569,2.669,24.000,470.709,0.550,1.104
1782115902.683076,0.275000,356995,1000,12,0,1,349.068,-0.895,23.810,472.342,1.641,1.120
1782115902.684076,0.276000,356996,1000,12,0,1,348.564,-1.639,23.481,469.868,-0.066,1.120
1782115902.685076,0.277000,356997,1000,12,0,1,346.402,-1.148,22.799,470.037,-1.114,1.130
1782115902.686076,0.278000,356998,1000,12,0,1,346.979,-1.377,22.121,470.685,0.331,1.109
1782115902.687076,0.279000,356999,1000,12,0,1,348.660,1.481,22.026,470.613,-0.180,1.108
1782115902.688076,0.280000,357000,1000,12,0,1,343.784,-2.564,21.972,468.932,-1.264,1.121
1782115902.689076,0.281000,357001,1000,12,0,1,339.196,-7.230,21.483,471.502,0.245,1.121
1782115902.690076,0.282000,357002,1000,12,0,1,333.623,-10.543,20.733,470.877,0.924,1.122
1782115902.691076,0.283000,357003,1000,12,0,1,325.912,-16.209,20.198,468.595,-1.900,1.150
1782115902.692076,0.284000,357004,1000,12,0,1,328.555,-12.645,19.854,466.578,-3.097,1.219
1782115902.693076,0.285000,357005,1000,12,0,1,333.311,-4.928,19.499,468.835,-1.291,1.223
1782115902.694076,0.286000,357006,1000,12,0,1,335.401,-1.784,19.046,470.733,1.401,1.225
1782115902.695076,0.287000,357007,1000,12,0,1,339.124,2.430,18.722,470.037,0.713,1.229
1782115902.696076,0.288000,357008,1000,12,0,1,341.670,5.785,18.730,470.877,0.962,1.233
1782115902.697076,0.289000,357009,1000,12,0,1,341.118,5.617,18.334,470.421,1.097,1.243
1782115902.698076,0.290000,357010,1000,12,0,1,337.202,2.938,17.025,469.484,-0.401,1.243
1782115902.699076,0.291000,357011,1000,12,0,1,339.628,4.632,15.776,467.731,-1.385,1.252
1782115902.700076,0.292000,357012,1000,12,0,1,343.207,9.733,15.276,468.715,-1.125,1.261
1782115902.701076,0.293000,357013,1000,12,0,1,336.914,5.071,15.090,469.172,0.283,1.255
1782115902.702076,0.294000,357014,1000,12,0,1,322.165,-6.997,15.115,468.811,-0.464,1.249
1782115902.703076,0.295000,357015,1000,12,0,1,316.304,-11.520,15.117,468.691,-0.275,1.242
1782115902.704076,0.296000,357016,1000,12,0,1,318.826,-5.500,15.041,469.388,0.194,1.188
1782115902.705076,0.297000,357017,1000,12,0,1,331.149,6.579,15.055,470.181,1.013,1.195
1782115902.706076,0.298000,357018,1000,12,0,1,340.589,17.023,15.229,469.460,0.437,1.183
1782115902.707076,0.299000,357019,1000,12,0,1,352.431,23.932,15.014,468.739,-0.512,1.166
1782115902.708076,0.300000,357020,1000,12,0,1,361.751,29.915,13.616,468.595,-0.427,1.164
1782115902.709076,0.301000,357021,1000,12,0,1,370.663,31.311,13.168,467.803,-0.997,1.173
1782115902.710076,0.302000,357022,1000,12,0,1,374.819,29.841,13.642,467.202,-1.345,1.142
1782115902.711076,0.303000,357023,1000,12,0,1,376.140,23.778,13.883,467.442,-0.912,1.123
1782115902.712076,0.304000,357024,1000,12,0,1,370.735,14.000,13.864,468.619,0.375,1.124
1782115902.713076,0.305000,357025,1000,12,0,1,364.898,3.383,13.870,468.523,0.628,1.120
1782115902.714076,0.306000,357026,1000,12,0,1,364.778,0.097,13.783,469.316,0.985,1.100
1782115902.715076,0.307000,357027,1000,12,0,1,364.922,-0.869,13.570,467.634,0.101,1.092
1782115902.716076,0.308000,357028,1000,12,0,1,361.799,-4.903,13.334,468.187,-0.257,1.082
1782115902.717076,0.309000,357029,1000,12,0,1,359.589,-7.201,13.002,468.619,0.960,1.090
1782115902.718076,0.310000,357030,1000,12,0,1,357.932,-8.201,12.519,468.139,0.122,1.073
1782115902.719076,0.311000,357031,1000,12,0,1,354.305,-10.010,12.303,467.130,-0.514,1.074
1782115902.720076,0.312000,357032,1000,12,0,1,350.918,-11.944,12.327,467.298,-0.558,1.064
1782115902.721076,0.313000,357033,1000,12,0,1,349.405,-11.255,12.343,468.787,0.902,1.042
1782115902.722076,0.314000,357034,1000,12,0,1,345.129,-12.645,12.319,467.586,0.270,1.031
1782115902.723076,0.315000,357035,1000,12,0,1,344.408,-12.116,12.376,470.541,1.692,0.998
1782115902.724076,0.316000,357036,1000,12,0,1,345.802,-8.430,12.346,467.971,1.033,0.984
1782115902.725076,0.317000,357037,1000,12,0,1,348.972,-4.918,11.900,468.019,-1.067,0.968
1782115902.726076,0.318000,357038,1000,12,0,1,349.765,-3.041,11.473,467.875,0.435,0.965
1782115902.727076,0.319000,357039,1000,12,0,1,348.468,-4.661,11.392,468.259,-0.340,0.966
1782115902.728076,0.320000,357040,1000,12,0,1,344.048,-8.201,11.450,469.628,1.473,0.973
1782115902.729076,0.321000,357041,1000,12,0,1,341.838,-10.629,11.528,466.938,-0.688,0.978
1782115902.730076,0.322000,357042,1000,12,0,1,344.168,-7.866,11.580,467.058,-1.476,0.997
1782115902.731076,0.323000,357043,1000,12,0,1,347.723,-3.984,11.592,467.394,0.006,0.996
1782115902.732076,0.324000,357044,1000,12,0,1,354.737,1.758,11.588,467.658,-0.366,0.994
1782115902.733076,0.325000,357045,1000,12,0,1,354.257,2.578,11.593,468.523,0.976,0.976
1782115902.734076,0.326000,357046,1000,12,0,1,353.176,-0.419,11.591,469.124,1.164,0.990
1782115902.735076,0.327000,357047,1000,12,0,1,359.133,4.978,11.611,467.899,0.379,0.979
1782115902.736076,0.328000,357048,1000,12,0,1,358.292,5.310,11.634,466.842,-1.001,0.988
1782115902.737076,0.329000,357049,1000,12,0,1,350.702,-1.840,11.635,468.019,0.115,0.988
1782115902.738076,0.330000,357050,1000,12,0,1,347.987,-3.906,11.642,465.737,-1.168,0.986
1782115902.739076,0.331000,357051,1000,12,0,1,349.116,-0.999,11.598,467.202,-0.920,0.994
1782115902.740076,0.332000,357052,1000,12,0,1,352.359,3.133,11.510,465.761,-0.511,0.988
1782115902.741076,0.333000,357053,1000,12,0,1,347.483,1.150,11.281,466.626,-1.142,0.964
1782115902.742076,0.334000,357054,1000,12,0,1,344.480,-2.243,11.143,469.340,2.323,0.919
1782115902.743076,0.335000,357055,1000,12,0,1,341.574,-2.393,11.126,468.499,1.352,0.921
1782115902.744076,0.336000,357056,1000,12,0,1,334.752,-7.502,11.174,469.724,1.581,0.927
1782115902.745076,0.337000,357057,1000,12,0,1,329.299,-11.015,11.277,469.916,2.210,0.973
1782115902.746076,0.338000,357058,1000,12,0,1,326.945,-11.133,11.357,466.481,-1.328,0.982
1782115902.747076,0.339000,357059,1000,12,0,1,327.186,-9.243,11.404,465.521,-2.456,1.030
1782115902.748076,0.340000,357060,1000,12,0,1,328.891,-6.006,11.428,465.232,-2.059,1.069
1782115902.749076,0.341000,357061,1000,12,0,1,334.800,-0.610,11.410,466.938,-0.581,1.054
1782115902.750076,0.342000,357062,1000,12,0,1,338.067,3.383,11.336,467.418,0.619,1.045
1782115902.751076,0.343000,357063,1000,12,0,1,340.445,3.907,11.327,470.061,2.209,1.090
1782115902.752076,0.344000,357064,1000,12,0,1,344.793,7.053,11.328,467.707,1.201,1.101
1782115902.753076,0.345000,357065,1000,12,0,1,347.051,8.023,11.267,468.139,-0.135,1.101
1782115902.754076,0.346000,357066,1000,12,0,1,351.687,10.121,11.331,470.061,2.488,1.155
1782115902.755076,0.347000,357067,1000,12,0,1,351.374,9.775,11.377,468.667,0.891,1.153
1782115902.756076,0.348000,357068,1000,12,0,1,349.333,5.860,11.150,468.691,0.261,1.152
1782115902.757076,0.349000,357069,1000,12,0,1,344.120,2.002,10.628,468.595,0.570,1.153
1782115902.758076,0.350000,357070,1000,12,0,1,341.190,-1.182,9.751,469.268,0.458,1.153
1782115902.759076,0.351000,357071,1000,12,0,1,342.078,1.321,8.690,466.866,-0.846,1.151
1782115902.760076,0.352000,357072,1000,12,0,1,339.316,0.704,7.597,466.914,-1.959,1.168
1782115902.761076,0.353000,357073,1000,12,0,1,339.796,1.321,6.815,468.283,0.267,1.162
1782115902.762076,0.354000,357074,1000,12,0,1,344.288,6.771,6.591,468.115,-0.157,1.161
1782115902.763076,0.355000,357075,1000,12,0,1,340.973,4.870,6.610,468.787,0.348,1.158
1782115902.764076,0.356000,357076,1000,12,0,1,339.796,2.278,6.617,468.835,0.518,1.152
1782115902.765076,0.357000,357077,1000,12,0,1,343.712,5.754,6.666,467.154,-1.081,1.162
1782115902.766076,0.358000,357078,1000,12,0,1,342.006,4.022,6.654,467.995,-0.664,1.165
1782115902.767076,0.359000,357079,1000,12,0,1,342.102,1.545,6.579,468.187,0.064,1.158
1782115902.768076,0.360000,357080,1000,12,0,1,338.163,-1.696,6.481,467.514,-0.743,1.162
1782115902.769076,0.361000,357081,1000,12,0,1,330.572,-10.147,6.485,467.875,-0.401,1.161
1782115902.770076,0.362000,357082,1000,12,0,1,325.648,-14.263,6.578,468.715,0.477,1.161
1782115902.771076,0.363000,357083,1000,12,0,1,326.969,-12.632,6.628,468.523,0.356,1.155
1782115902.772076,0.364000,357084,1000,12,0,1,327.330,-10.076,6.539,469.388,0.818,1.160
1782115902.773076,0.365000,357085,1000,12,0,1,326.681,-9.773,6.460,468.715,0.523,1.137
1782115902.774076,0.366000,357086,1000,12,0,1,320.868,-12.284,6.583,468.139,-0.446,1.130
1782115902.775076,0.367000,357087,1000,12,0,1,310.900,-18.807,7.066,470.301,1.324,1.135
1782115902.776076,0.368000,357088,1000,12,0,1,307.465,-18.864,7.540,469.460,1.099,1.144
1782115902.777076,0.369000,357089,1000,12,0,1,310.443,-11.300,7.680,467.034,-1.680,1.167
1782115902.778076,0.370000,357090,1000,12,0,1,314.815,-3.393,7.607,467.346,-1.374,1.165
1782115902.779076,0.371000,357091,1000,12,0,1,311.476,-1.845,7.461,468.835,0.205,1.161
1782115902.780076,0.372000,357092,1000,12,0,1,310.539,-1.453,7.381,467.322,-0.674,1.146
1782115902.781076,0.373000,357093,1000,12,0,1,324.687,12.764,7.577,467.634,-1.027,1.155
1782115902.782076,0.374000,357094,1000,12,0,1,335.833,24.840,8.348,467.779,-0.145,1.154
1782115902.783076,0.375000,357095,1000,12,0,1,339.292,25.516,9.087,468.859,0.290,1.147
1782115902.784076,0.376000,357096,1000,12,0,1,341.238,24.300,9.715,466.337,-1.037,1.145
1782115902.785076,0.377000,357097,1000,12,0,1,340.277,20.195,10.102,466.650,-1.822,1.172
1782115902.786076,0.378000,357098,1000,12,0,1,337.178,13.958,10.266,467.130,-0.213,1.164
1782115902.787076,0.379000,357099,1000,12,0,1,328.603,4.282,10.280,466.073,-1.366,1.180
1782115902.788076,0.380000,357100,1000,12,0,1,318.730,-6.639,10.308,466.313,-1.018,1.177
1782115902.789076,0.381000,357101,1000,12,0,1,318.898,-7.504,10.362,467.370,0.252,1.170
1782115902.790076,0.382000,357102,1000,12,0,1,330.548,2.783,10.360,469.268,1.727,1.193
1782115902.791076,0.383000,357103,1000,12,0,1,358.701,24.964,10.943,468.139,1.263,1.196
1782115902.792076,0.384000,357104,1000,12,0,1,373.738,37.439,12.153,465.953,-1.376,1.166
1782115902.793076,0.385000,357105,1000,12,0,1,368.909,25.665,12.679,467.538,0.038,1.150
1782115902.794076,0.386000,357106,1000,12,0,1,350.798,4.930,12.654,468.019,1.003,1.137
1782115902.795076,0.387000,357107,1000,12,0,1,337.587,-11.561,12.663,468.259,0.800,1.099
1782115902.796076,0.388000,357108,1000,12,0,1,340.181,-9.607,12.638,467.779,0.631,1.087
1782115902.797076,0.389000,357109,1000,12,0,1,347.699,-1.334,12.572,466.794,-0.482,1.032
1782115902.798076,0.390000,357110,1000,12,0,1,357.500,6.651,12.578,465.593,-1.307,1.007
1782115902.799076,0.391000,357111,1000,12,0,1,361.727,10.742,12.670,465.112,-1.645,1.030
1782115902.800076,0.392000,357112,1000,12,0,1,355.410,3.297,12.669,466.986,0.138,1.027
1782115902.801076,0.393000,357113,1000,12,0,1,353.368,-0.864,12.658,467.226,0.973,0.988
1782115902.802076,0.394000,357114,1000,12,0,1,360.262,4.306,12.633,468.787,1.613,0.999
1782115902.803076,0.395000,357115,1000,12,0,1,359.565,4.046,12.595,468.211,1.732,1.029
1782115902.804076,0.396000,357116,1000,12,0,1,345.874,-9.339,12.583,468.427,0.825,0.974
1782115902.805076,0.397000,357117,1000,12,0,1,331.269,-22.809,12.916,467.707,0.726,0.971
1782115902.806076,0.398000,357118,1000,12,0,1,328.267,-24.430,13.344,466.794,-0.721,0.976
1782115902.807076,0.399000,357119,1000,12,0,1,327.714,-20.946,13.666,468.523,0.736,0.978
1782115902.808076,0.400000,357120,1000,12,0,1,332.470,-15.534,13.841,466.554,-0.310,0.977
1782115902.809076,0.401000,357121,1000,12,0,1,334.920,-10.044,13.912,465.977,-1.809,1.002
1782115902.810076,0.402000,357122,1000,12,0,1,340.277,-5.961,13.937,465.857,-0.906,0.972
1782115902.811076,0.403000,357123,1000,12,0,1,347.507,1.491,13.938,466.722,-0.620,0.975
1782115902.812076,0.404000,357124,1000,12,0,1,356.491,7.804,13.948,466.938,0.328,0.976
1782115902.813076,0.405000,357125,1000,12,0,1,359.109,9.531,13.996,465.521,-1.083,0.987
1782115902.814076,0.406000,357126,1000,12,0,1,357.332,5.224,14.012,469.124,1.555,1.008
1782115902.815076,0.407000,357127,1000,12,0,1,353.873,0.908,13.989,466.457,0.773,1.003
1782115902.816076,0.408000,357128,1000,12,0,1,351.687,-1.866,13.980,467.058,-0.817,1.005
1782115902.817076,0.409000,357129,1000,12,0,1,348.324,-4.178,13.991,467.779,1.500,1.027
1782115902.818076,0.410000,357130,1000,12,0,1,345.633,-5.747,14.012,468.139,0.632,1.025
1782115902.819076,0.411000,357131,1000,12,0,1,346.546,-3.692,13.948,469.340,2.065,1.065
1782115902.820076,0.412000,357132,1000,12,0,1,345.730,-2.005,13.805,468.019,0.735,1.068
1782115902.821076,0.413000,357133,1000,12,0,1,343.159,-3.285,13.697,467.562,-0.325,1.067
1782115902.822076,0.414000,357134,1000,12,0,1,340.445,-3.816,13.633,466.337,-0.830,1.068
1782115902.823076,0.415000,357135,1000,12,0,1,341.070,-2.469,13.567,467.923,-0.290,1.066
1782115902.824076,0.416000,357136,1000,12,0,1,343.231,1.041,13.456,469.028,1.631,1.089
1782115902.825076,0.417000,357137,1000,12,0,1,344.384,2.300,13.195,468.739,0.624,1.076
1782115902.826076,0.418000,357138,1000,12,0,1,347.411,4.390,12.937,467.346,-0.336,1.066
1782115902.827076,0.419000,357139,1000,12,0,1,347.867,4.479,12.854,466.241,-1.712,1.067
1782115902.828076,0.420000,357140,1000,12,0,1,352.095,5.587,12.869,466.842,-0.978,1.058
1782115902.829076,0.421000,357141,1000,12,0,1,352.359,5.544,12.890,467.346,-0.235,1.058
1782115902.830076,0.422000,357142,1000,12,0,1,344.721,-3.382,12.898,467.034,-0.480,1.056
1782115902.831076,0.423000,357143,1000,12,0,1,340.781,-8.512,12.827,466.505,-0.824,1.053
1782115902.832076,0.424000,357144,1000,12,0,1,336.482,-11.123,12.437,466.385,-0.926,1.060
1782115902.833076,0.425000,357145,1000,12,0,1,330.933,-15.364,12.098,466.890,-0.277,1.060
1782115902.834076,0.426000,357146,1000,12,0,1,325.720,-17.396,11.858,467.755,0.499,1.053
1782115902.835076,0.427000,357147,1000,12,0,1,323.534,-16.778,11.751,467.178,0.231,1.021
1782115902.836076,0.428000,357148,1000,12,0,1,328.291,-9.393,11.660,468.932,1.120,1.033
1782115902.837076,0.429000,357149,1000,12,0,1,332.374,-2.028,11.648,466.674,0.099,1.015
1782115902.838076,0.430000,357150,1000,12,0,1,333.671,1.024,11.611,465.809,-1.879,1.039
1782115902.839076,0.431000,357151,1000,12,0,1,327.402,-1.729,11.565,466.698,-0.217,1.039
1782115902.840076,0.432000,357152,1000,12,0,1,317.025,-9.329,11.633,466.121,-0.708,1.015
1782115902.841076,0.433000,357153,1000,12,0,1,315.488,-8.535,11.150,466.385,-0.521,1.002
1782115902.842076,0.434000,357154,1000,12,0,1,318.658,-1.819,9.816,464.896,-1.184,0.997
1782115902.843076,0.435000,357155,1000,12,0,1,324.351,4.949,9.147,465.785,-1.007,1.007
1782115902.844076,0.436000,357156,1000,12,0,1,330.212,11.557,9.266,465.040,-0.423,0.999
1782115902.845076,0.437000,357157,1000,12,0,1,338.547,17.594,9.454,465.545,-0.786,0.998
1782115902.846076,0.438000,357158,1000,12,0,1,350.822,26.260,10.066,466.217,0.732,1.000
1782115902.847076,0.439000,357159,1000,12,0,1,349.837,23.473,10.597,464.848,-0.638,1.001
1782115902.848076,0.440000,357160,1000,12,0,1,345.273,13.414,10.725,465.352,-0.336,0.985
1782115902.849076,0.441000,357161,1000,12,0,1,344.985,10.241,10.715,465.857,0.604,0.961
1782115902.850076,0.442000,357162,1000,12,0,1,346.282,8.307,10.769,467.034,1.237,0.977
1782115902.851076,0.443000,357163,1000,12,0,1,341.814,3.007,10.777,468.571,2.753,1.043
1782115902.852076,0.444000,357164,1000,12,0,1,335.929,-4.449,10.778,467.346,1.478,1.039
1782115902.853076,0.445000,357165,1000,12,0,1,339.748,-2.285,10.767,466.770,0.352,1.011
1782115902.854076,0.446000,357166,1000,12,0,1,356.347,11.627,10.812,467.226,0.784,1.010
1782115902.855076,0.447000,357167,1000,12,0,1,364.586,19.143,10.669,465.593,-0.501,1.007
1782115902.856076,0.448000,357168,1000,12,0,1,359.085,11.182,10.217,464.199,-1.983,1.040
1782115902.857076,0.449000,357169,1000,12,0,1,348.924,-0.213,9.778,464.392,-1.462,1.056
1782115902.858076,0.450000,357170,1000,12,0,1,333.599,-13.414,9.715,465.425,-0.298,1.056
1782115902.859076,0.451000,357171,1000,12,0,1,322.718,-22.456,10.122,468.019,1.989,1.062
1782115902.860076,0.452000,357172,1000,12,0,1,315.415,-24.191,10.651,467.322,1.829,1.086
1782115902.861076,0.453000,357173,1000,12,0,1,311.164,-24.083,11.180,464.103,-1.524,1.103
1782115902.862076,0.454000,357174,1000,12,0,1,312.725,-17.927,11.411,464.896,-1.161,1.114
1782115902.863076,0.455000,357175,1000,12,0,1,308.930,-16.002,11.555,464.464,-0.560,1.107
1782115902.864076,0.456000,357176,1000,12,0,1,314.887,-9.743,11.613,465.905,-0.011,1.085
1782115902.865076,0.457000,357177,1000,12,0,1,336.049,11.281,11.722,465.905,0.959,1.088
1782115902.866076,0.458000,357178,1000,12,0,1,361.007,32.152,12.570,466.433,0.540,1.084
1782115902.867076,0.459000,357179,1000,12,0,1,385.820,48.708,14.321,466.746,1.279,1.079
1782115902.868076,0.460000,357180,1000,12,0,1,379.358,38.669,15.308,467.586,1.377,1.092
1782115902.869076,0.461000,357181,1000,12,0,1,352.599,4.874,15.315,467.034,1.096,1.064
1782115902.870076,0.462000,357182,1000,12,0,1,333.359,-16.522,15.490,466.674,0.193,1.059
1782115902.871076,0.463000,357183,1000,12,0,1,326.513,-22.843,15.816,466.409,0.031,1.058
1782115902.872076,0.464000,357184,1000,12,0,1,322.742,-22.876,16.135,468.307,1.276,1.067
1782115902.873076,0.465000,357185,1000,12,0,1,324.087,-19.073,16.355,468.547,1.800,1.096
1782115902.874076,0.466000,357186,1000,12,0,1,341.574,-1.669,16.356,466.289,-0.544,1.074
1782115902.875076,0.467000,357187,1000,12,0,1,372.224,26.605,16.780,466.818,-0.654,1.075
1782115902.876076,0.468000,357188,1000,12,0,1,371.696,28.181,17.235,465.593,-0.820,1.080
1782115902.877076,0.469000,357189,1000,12,0,1,353.296,5.478,17.241,466.217,-1.132,1.065
1782115902.878076,0.470000,357190,1000,12,0,1,343.087,-5.143,17.238,466.409,0.091,1.056
1782115902.879076,0.471000,357191,1000,12,0,1,332.446,-12.748,17.315,467.514,0.322,1.056
1782115902.880076,0.472000,357192,1000,12,0,1,322.502,-20.016,17.538,466.457,0.215,1.054
1782115902.881076,0.473000,357193,1000,12,0,1,318.995,-19.512,17.713,465.136,-1.622,1.073
1782115902.882076,0.474000,357194,1000,12,0,1,316.616,-17.627,17.818,466.650,-0.135,1.065
1782115902.883076,0.475000,357195,1000,12,0,1,319.331,-12.418,17.772,465.256,-0.658,1.068
1782115902.884076,0.476000,357196,1000,12,0,1,323.198,-5.909,17.621,466.025,-0.890,1.073
1782115902.885076,0.477000,357197,1000,12,0,1,329.203,0.070,17.460,465.737,-0.020,1.073
1782115902.886076,0.478000,357198,1000,12,0,1,335.977,6.341,17.433,464.992,-1.394,1.079
1782115902.887076,0.479000,357199,1000,12,0,1,337.034,6.584,17.455,467.202,0.775,1.085
1782115902.888076,0.480000,357200,1000,12,0,1,337.923,4.793,17.468,466.962,0.944,1.060
1782115902.889076,0.481000,357201,1000,12,0,1,342.967,7.536,17.499,466.073,-0.412,1.061
1782115902.890076,0.482000,357202,1000,12,0,1,348.036,10.152,17.508,465.425,-0.728,1.061
1782115902.891076,0.483000,357203,1000,12,0,1,352.599,11.784,17.546,466.385,-0.205,1.059
1782115902.892076,0.484000,357204,1000,12,0,1,354.065,11.035,17.613,467.418,1.120,1.058
1782115902.893076,0.485000,357205,1000,12,0,1,355.890,9.914,17.655,465.545,-0.480,1.050
1782115902.894076,0.486000,357206,1000,12,0,1,363.865,14.577,17.699,464.944,-1.394,1.067
1782115902.895076,0.487000,357207,1000,12,0,1,369.006,17.948,17.707,465.064,-0.732,1.066
1782115902.896076,0.488000,357208,1000,12,0,1,374.771,19.282,17.526,465.497,-0.367,1.063
1782115902.897076,0.489000,357209,1000,12,0,1,373.425,16.887,17.374,464.464,-0.710,1.063
1782115902.898076,0.490000,357210,1000,12,0,1,369.774,9.674,17.324,464.872,-0.685,1.067
1782115902.899076,0.491000,357211,1000,12,0,1,361.007,1.618,17.265,464.464,-0.266,1.064
1782115902.900076,0.492000,357212,1000,12,0,1,359.493,-2.587,17.229,466.001,0.548,1.052
1782115902.901076,0.493000,357213,1000,12,0,1,364.105,2.356,17.227,465.016,0.614,0.982
1782115902.902076,0.494000,357214,1000,12,0,1,372.465,8.000,17.252,464.920,-0.353,0.960
1782115902.903076,0.495000,357215,1000,12,0,1,365.499,2.443,17.253,466.770,1.645,0.987
1782115902.904076,0.496000,357216,1000,12,0,1,356.899,-9.483,17.227,465.184,0.497,0.983
1782115902.905076,0.497000,357217,1000,12,0,1,353.200,-12.701,17.107,465.040,-0.497,0.983
1782115902.906076,0.498000,357218,1000,12,0,1,351.326,-14.732,17.161,464.704,-0.050,0.942
1782115902.907076,0.499000,357219,1000,12,0,1,343.664,-20.256,17.398,466.554,0.717,0.925
1782115902.908076,0.500000,357220,1000,12,0,1,341.238,-22.732,17.591,464.944,0.433,0.926
1782115902.909076,0.501000,357221,1000,12,0,1,342.271,-19.359,17.517,465.304,-0.649,0.887
1782115902.910076,0.502000,357222,1000,12,0,1,336.289,-21.905,17.457,465.112,0.329,0.850
1782115902.911076,0.503000,357223,1000,12,0,1,332.951,-23.844,17.450,464.632,-0.783,0.829
1782115902.912076,0.504000,357224,1000,12,0,1,333.647,-19.095,17.475,465.352,0.199,0.813
1782115902.913076,0.505000,357225,1000,12,0,1,332.374,-16.987,17.494,465.352,0.346,0.811
1782115902.914076,0.506000,357226,1000,12,0,1,322.790,-20.513,17.679,465.977,0.608,0.816
1782115902.915076,0.507000,357227,1000,12,0,1,313.206,-25.547,17.974,465.401,0.561,0.808
1782115902.916076,0.508000,357228,1000,12,0,1,311.500,-21.149,17.644,466.337,0.654,0.810
1782115902.917076,0.509000,357229,1000,12,0,1,311.284,-14.762,16.378,466.674,1.577,0.820
1782115902.918076,0.510000,357230,1000,12,0,1,299.250,-18.123,15.649,466.842,1.004,0.809
1782115902.919076,0.511000,357231,1000,12,0,1,288.873,-22.708,15.960,464.776,-0.300,0.796
1782115902.920076,0.512000,357232,1000,12,0,1,286.062,-17.702,15.986,465.184,-0.852,0.804
1782115902.921076,0.513000,357233,1000,12,0,1,290.194,-8.030,15.697,466.385,0.942,0.815
1782115902.922076,0.514000,357234,1000,12,0,1,299.538,5.370,15.379,465.352,-0.118,0.795
1782115902.923076,0.515000,357235,1000,12,0,1,314.887,20.978,15.428,464.656,-0.950,0.765
1782115902.924076,0.516000,357236,1000,12,0,1,332.518,36.192,16.253,464.872,-0.582,0.766
1782115902.925076,0.517000,357237,1000,12,0,1,335.112,36.832,16.648,465.857,0.173,0.760
1782115902.926076,0.518000,357238,1000,12,0,1,325.528,22.749,16.481,466.265,0.768,0.759
1782115902.927076,0.519000,357239,1000,12,0,1,320.532,13.789,16.578,466.313,0.440,0.745
1782115902.928076,0.520000,357240,1000,12,0,1,328.915,17.461,16.745,466.097,0.289,0.746
1782115902.929076,0.521000,357241,1000,12,0,1,348.852,31.759,17.243,467.995,1.370,0.769
1782115902.930076,0.522000,357242,1000,12,0,1,357.043,36.135,17.760,466.626,0.793,0.777
1782115902.931076,0.523000,357243,1000,12,0,1,344.841,19.727,17.764,466.457,-0.528,0.746
1782115902.932076,0.524000,357244,1000,12,0,1,335.232,5.222,17.604,465.016,-0.905,0.757
1782115902.933076,0.525000,357245,1000,12,0,1,331.533,0.949,17.517,465.304,-1.450,0.778
1782115902.934076,0.526000,357246,1000,12,0,1,333.383,1.398,17.498,466.914,0.655,0.774
1782115902.935076,0.527000,357247,1000,12,0,1,342.631,9.513,17.550,466.842,0.594,0.778
1782115902.936076,0.528000,357248,1000,12,0,1,351.687,17.162,17.694,466.385,-0.025,0.753
1782115902.937076,0.529000,357249,1000,12,0,1,373.930,32.100,18.243,466.073,-0.171,0.745
1782115902.938076,0.530000,357250,1000,12,0,1,378.061,35.796,18.921,464.680,-1.350,0.758
1782115902.939076,0.531000,357251,1000,12,0,1,385.388,31.045,19.394,464.752,-1.292,0.777
1782115902.940076,0.532000,357252,1000,12,0,1,399.248,39.213,20.120,466.650,0.534,0.774
1782115902.941076,0.533000,357253,1000,12,0,1,390.048,24.935,20.359,465.713,0.274,0.774
1782115902.942076,0.534000,357254,1000,12,0,1,354.137,-12.474,20.375,466.409,0.026,0.758
1782115902.943076,0.535000,357255,1000,12,0,1,325.048,-42.453,21.195,465.977,0.439,0.758
1782115902.944076,0.536000,357256,1000,12,0,1,309.050,-52.672,22.371,466.097,-0.275,0.732
1782115902.945076,0.537000,357257,1000,12,0,1,308.714,-48.179,23.248,465.401,-0.277,0.726
1782115902.946076,0.538000,357258,1000,12,0,1,314.599,-35.775,23.635,463.839,-1.966,0.776
1782115902.947076,0.539000,357259,1000,12,0,1,324.351,-22.876,23.736,463.239,-2.247,0.832
1782115902.948076,0.540000,357260,1000,12,0,1,320.388,-20.939,23.880,463.575,-1.615,0.858
1782115902.949076,0.541000,357261,1000,12,0,1,323.462,-18.928,24.029,466.025,0.548,0.860
1782115902.950076,0.542000,357262,1000,12,0,1,339.388,-2.098,24.028,467.346,2.230,0.913
1782115902.951076,0.543000,357263,1000,12,0,1,349.549,8.147,24.053,466.313,0.911,0.918
1782115902.952076,0.544000,357264,1000,12,0,1,351.639,8.119,24.054,466.193,0.493,0.919
1782115902.953076,0.545000,357265,1000,12,0,1,354.761,8.858,24.084,464.944,-0.384,0.891
1782115902.954076,0.546000,357266,1000,12,0,1,358.436,10.300,24.091,466.025,0.037,0.888
1782115902.955076,0.547000,357267,1000,12,0,1,364.946,14.080,24.106,464.392,-0.416,0.887
1782115902.956076,0.548000,357268,1000,12,0,1,366.435,14.305,24.101,465.352,-0.589,0.891
1782115902.957076,0.549000,357269,1000,12,0,1,351.831,1.085,23.931,465.064,0.413,0.887
1782115902.958076,0.550000,357270,1000,12,0,1,325.120,-22.261,23.922,465.737,0.129,0.886
1782115902.959076,0.551000,357271,1000,12,0,1,313.422,-30.887,24.163,465.545,0.756,0.887
1782115902.960076,0.552000,357272,1000,12,0,1,316.520,-21.297,24.152,464.824,-0.332,0.887
1782115902.961076,0.553000,357273,1000,12,0,1,325.432,-8.116,23.943,463.431,-1.207,0.897
1782115902.962076,0.554000,357274,1000,12,0,1,331.269,1.530,23.791,463.719,-1.100,0.910
1782115902.963076,0.555000,357275,1000,12,0,1,337.563,7.809,23.695,464.031,-0.345,0.910
1782115902.964076,0.556000,357276,1000,12,0,1,338.427,9.697,23.557,463.935,-0.338,0.907
1782115902.965076,0.557000,357277,1000,12,0,1,339.796,8.533,23.309,463.143,-0.910,0.912
1782115902.966076,0.558000,357278,1000,12,0,1,328.315,-0.591,23.117,462.374,-1.406,0.929
1782115902.967076,0.559000,357279,1000,12,0,1,327.306,-6.122,23.039,463.311,-0.635,0.907
1782115902.968076,0.560000,357280,1000,12,0,1,327.282,-3.215,22.900,463.455,0.122,0.896
1782115902.969076,0.561000,357281,1000,12,0,1,317.842,-12.288,22.740,462.422,-0.953,0.905
1782115902.970076,0.562000,357282,1000,12,0,1,303.886,-23.158,22.838,463.383,-0.084,0.897
1782115902.971076,0.563000,357283,1000,12,0,1,294.277,-29.221,23.181,462.614,-0.190,0.887
1782115902.972076,0.564000,357284,1000,12,0,1,289.377,-28.719,23.522,462.590,-0.596,0.891
1782115902.973076,0.565000,357285,1000,12,0,1,292.956,-20.511,23.514,462.998,0.292,0.882
1782115902.974076,0.566000,357286,1000,12,0,1,300.018,-8.812,22.984,463.791,0.837,0.886
1782115902.975076,0.567000,357287,1000,12,0,1,317.265,8.967,22.422,464.704,1.804,0.921
1782115902.976076,0.568000,357288,1000,12,0,1,347.171,36.011,22.767,464.224,1.363,0.935
1782115902.977076,0.569000,357289,1000,12,0,1,369.246,54.649,23.963,463.383,0.374,0.935
1782115902.978076,0.570000,357290,1000,12,0,1,377.461,55.047,25.075,463.791,0.679,0.939
1782115902.979076,0.571000,357291,1000,12,0,1,377.149,47.560,25.570,463.383,0.535,0.922
1782115902.980076,0.572000,357292,1000,12,0,1,377.725,39.491,25.669,461.437,-1.102,0.928
1782115902.981076,0.573000,357293,1000,12,0,1,372.585,29.905,25.865,462.734,-0.312,0.926
1782115902.982076,0.574000,357294,1000,12,0,1,371.816,21.603,26.034,463.575,1.245,0.934
1782115902.983076,0.575000,357295,1000,12,0,1,356.995,7.667,26.057,463.887,1.023,0.922
1782115902.984076,0.576000,357296,1000,12,0,1,324.183,-24.282,26.281,465.016,2.019,0.961
1782115902.985076,0.577000,357297,1000,12,0,1,306.216,-40.652,26.869,464.512,1.463,0.980
1782115902.986076,0.578000,357298,1000,12,0,1,302.036,-38.071,27.295,464.320,0.708,0.985
1782115902.987076,0.579000,357299,1000,12,0,1,301.315,-33.512,27.329,462.110,-0.889,0.992
1782115902.988076,0.580000,357300,1000,12,0,1,299.610,-29.005,27.168,462.206,-1.589,0.999
1782115902.989076,0.581000,357301,1000,12,0,1,301.916,-23.758,27.020,464.632,1.091,0.995
1782115902.990076,0.582000,357302,1000,12,0,1,315.295,-9.031,26.476,462.902,-0.104,0.992
1782115902.991076,0.583000,357303,1000,12,0,1,325.336,2.425,26.242,463.671,-0.393,0.993
1782115902.992076,0.584000,357304,1000,12,0,1,335.857,9.506,26.218,463.383,0.326,0.994
1782115902.993076,0.585000,357305,1000,12,0,1,350.486,20.301,25.682,465.473,1.028,1.002
1782115902.994076,0.586000,357306,1000,12,0,1,358.533,24.117,24.813,465.401,1.971,1.040
1782115902.995076,0.587000,357307,1000,12,0,1,337.514,3.956,23.866,465.545,0.848,1.046
1782115902.996076,0.588000,357308,1000,12,0,1,308.762,-25.623,23.603,461.990,-1.319,1.025
1782115902.997076,0.589000,357309,1000,12,0,1,299.970,-31.447,23.800,463.431,-1.526,0.998
1782115902.998076,0.590000,357310,1000,12,0,1,324.591,-6.616,23.633,462.734,-0.267,0.973
1782115902.999076,0.591000,357311,1000,12,0,1,351.615,23.471,23.715,462.206,-1.747,1.001
1782115903.000076,0.592000,357312,1000,12,0,1,349.357,22.627,23.928,462.878,-0.332,0.951
1782115903.001076,0.593000,357313,1000,12,0,1,340.565,10.696,23.948,463.263,0.037,0.942
1782115903.002076,0.594000,357314,1000,12,0,1,345.706,14.045,24.003,464.031,0.631,0.944
1782115903.003076,0.595000,357315,1000,12,0,1,334.560,6.751,23.989,464.224,1.064,0.954
1782115903.004076,0.596000,357316,1000,12,0,1,318.058,-10.153,23.988,463.527,0.035,0.954
1782115903.005076,0.597000,357317,1000,12,0,1,314.118,-11.927,23.964,463.407,0.002,0.952
1782115903.006076,0.598000,357318,1000,12,0,1,327.498,0.924,23.879,463.647,-0.024,0.949
1782115903.007076,0.599000,357319,1000,12,0,1,338.715,13.259,23.952,462.710,-0.531,0.950
1782115903.008076,0.600000,357320,1000,12,0,1,341.550,13.355,23.819,461.389,-1.951,0.989
1782115903.009076,0.601000,357321,1000,12,0,1,340.037,9.028,23.450,462.398,-0.949,0.992
1782115903.010076,0.602000,357322,1000,12,0,1,329.588,-2.251,23.258,463.335,0.250,0.992
1782115903.011076,0.603000,357323,1000,12,0,1,320.748,-13.333,23.306,461.821,-0.874,0.985
1782115903.012076,0.604000,357324,1000,12,0,1,318.874,-14.640,23.397,461.149,-1.708,1.002
1782115903.013076,0.605000,357325,1000,12,0,1,316.136,-16.042,23.481,463.191,0.306,1.002
1782115903.014076,0.606000,357326,1000,12,0,1,318.490,-13.441,23.518,462.278,0.193,1.001
1782115903.015076,0.607000,357327,1000,12,0,1,320.460,-9.212,23.523,461.557,-0.992,1.002
1782115903.016076,0.608000,357328,1000,12,0,1,326.657,-3.628,23.528,462.086,-0.039,0.982
1782115903.017076,0.609000,357329,1000,12,0,1,332.062,3.309,23.517,461.389,-0.440,0.980
1782115903.018076,0.610000,357330,1000,12,0,1,332.758,4.101,23.520,462.110,0.051,0.980
1782115903.019076,0.611000,357331,1000,12,0,1,328.891,1.571,23.457,462.398,0.823,0.978
1782115903.020076,0.612000,357332,1000,12,0,1,317.385,-6.802,23.247,463.671,1.480,1.000
1782115903.021076,0.613000,357333,1000,12,0,1,309.771,-12.300,22.943,464.776,2.708,1.070
1782115903.022076,0.614000,357334,1000,12,0,1,311.500,-6.937,22.601,462.734,0.721,1.072
1782115903.023076,0.615000,357335,1000,12,0,1,310.755,-3.305,22.419,461.509,-0.903,1.079
1782115903.024076,0.616000,357336,1000,12,0,1,299.610,-9.427,22.424,463.263,0.655,1.076
1782115903.025076,0.617000,357337,1000,12,0,1,286.783,-18.088,22.534,464.536,1.961,1.082
1782115903.026076,0.618000,357338,1000,12,0,1,278.472,-20.895,22.149,461.990,-0.224,1.065
1782115903.027076,0.619000,357339,1000,12,0,1,276.478,-18.161,20.915,460.332,-2.290,1.112
1782115903.028076,0.620000,357340,1000,12,0,1,282.291,-8.928,19.454,460.909,-1.364,1.124
1782115903.029076,0.621000,357341,1000,12,0,1,302.276,10.090,18.310,461.942,-0.248,1.122
1782115903.030076,0.622000,357342,1000,12,0,1,337.803,39.977,18.331,463.215,0.960,1.120
1782115903.031076,0.623000,357343,1000,12,0,1,355.674,53.378,19.368,462.662,0.648,1.122
1782115903.032076,0.624000,357344,1000,12,0,1,358.220,44.733,20.144,460.620,-1.342,1.125
1782115903.033076,0.625000,357345,1000,12,0,1,358.509,36.067,20.752,460.813,-1.311,1.131
1782115903.034076,0.626000,357346,1000,12,0,1,367.156,33.626,21.011,460.933,-0.612,1.097
1782115903.035076,0.627000,357347,1000,12,0,1,376.668,35.400,20.820,461.581,-0.176,1.078
1782115903.036076,0.628000,357348,1000,12,0,1,380.680,30.966,20.583,462.038,0.606,1.077
1782115903.037076,0.629000,357349,1000,12,0,1,371.191,17.021,20.174,460.620,-0.551,1.072
1782115903.038076,0.630000,357350,1000,12,0,1,364.249,4.171,19.762,458.122,-2.607,1.111
1782115903.039076,0.631000,357351,1000,12,0,1,349.092,-8.658,19.512,459.588,-1.430,1.119
1782115903.040076,0.632000,357352,1000,12,0,1,323.751,-30.822,19.952,462.470,1.871,1.150
1782115903.041076,0.633000,357353,1000,12,0,1,303.717,-44.612,20.923,460.572,0.624,1.152
1782115903.042076,0.634000,357354,1000,12,0,1,306.047,-36.765,21.518,458.699,-1.656,1.175
1782115903.043076,0.635000,357355,1000,12,0,1,337.442,-3.551,21.331,458.747,-1.118,1.176
1782115903.044076,0.636000,357356,1000,12,0,1,355.482,19.549,21.237,458.819,-0.794,1.148
1782115903.045076,0.637000,357357,1000,12,0,1,353.128,14.053,21.323,459.467,-0.004,1.142
1782115903.046076,0.638000,357358,1000,12,0,1,345.850,5.157,21.025,459.179,0.094,1.127
1782115903.047076,0.639000,357359,1000,12,0,1,330.957,-10.057,20.599,460.548,0.953,1.114
1782115903.048076,0.640000,357360,1000,12,0,1,310.900,-28.474,20.968,461.509,2.205,1.156
1782115903.049076,0.641000,357361,1000,12,0,1,293.629,-42.186,21.546,459.876,0.552,1.132
1782115903.050076,0.642000,357362,1000,12,0,1,291.923,-40.985,22.081,456.609,-2.306,1.177
1782115903.051076,0.643000,357363,1000,12,0,1,298.121,-29.573,22.423,458.579,-1.068,1.187
1782115903.052076,0.644000,357364,1000,12,0,1,306.047,-19.312,22.501,457.546,-0.375,1.185
1782115903.053076,0.645000,357365,1000,12,0,1,302.156,-17.927,22.623,458.627,-0.536,1.178
1782115903.054076,0.646000,357366,1000,12,0,1,296.103,-22.316,22.797,457.065,-0.290,1.178
1782115903.055076,0.647000,357367,1000,12,0,1,306.360,-10.663,22.785,457.522,-1.003,1.187
1782115903.056076,0.648000,357368,1000,12,0,1,302.781,-6.821,22.805,458.747,1.218,1.199
1782115903.057076,0.649000,357369,1000,12,0,1,312.149,-0.755,22.728,457.426,0.015,1.197
1782115903.058076,0.650000,357370,1000,12,0,1,335.136,24.562,22.914,457.378,-0.270,1.165
1782115903.059076,0.651000,357371,1000,12,0,1,332.758,24.592,23.141,457.426,0.399,1.159
1782115903.060076,0.652000,357372,1000,12,0,1,328.867,17.085,23.265,457.570,0.220,1.159
1782115903.061076,0.653000,357373,1000,12,0,1,342.847,28.872,23.545,458.314,1.265,1.166
1782115903.062076,0.654000,357374,1000,12,0,1,357.932,41.141,24.165,458.915,1.536,1.161
1782115903.063076,0.655000,357375,1000,12,0,1,353.921,35.642,24.580,457.714,0.766,1.165
1782115903.064076,0.656000,357376,1000,12,0,1,331.197,11.430,24.560,460.140,1.898,1.196
1782115903.065076,0.657000,357377,1000,12,0,1,308.978,-10.724,24.572,459.828,2.614,1.244
1782115903.066076,0.658000,357378,1000,12,0,1,308.978,-11.431,24.620,459.828,1.197,1.255
1782115903.067076,0.659000,357379,1000,12,0,1,308.978,-6.641,24.634,459.828,1.662,1.275
1782115903.068076,0.660000,357380,1000,12,0,1,288.344,-22.574,24.833,456.945,-1.166,1.286
1782115903.069076,0.661000,357381,1000,12,0,1,292.596,-21.481,25.017,457.594,-1.188,1.292
1782115903.070076,0.662000,357382,1000,12,0,1,299.922,-7.705,25.022,456.609,-0.862,1.280
1782115903.071076,0.663000,357383,1000,12,0,1,309.843,-1.995,24.963,455.216,-2.650,1.278
1782115903.072076,0.664000,357384,1000,12,0,1,319.763,8.375,24.972,456.729,-0.718,1.278
1782115903.073076,0.665000,357385,1000,12,0,1,317.145,3.623,24.973,457.618,0.449,1.273
1782115903.074076,0.666000,357386,1000,12,0,1,303.525,-9.948,24.977,455.288,-1.201,1.281
1782115903.075076,0.667000,357387,1000,12,0,1,296.751,-17.434,24.968,454.135,-2.492,1.299
1782115903.076076,0.668000,357388,1000,12,0,1,304.342,-9.423,24.828,454.952,-1.151,1.309
1782115903.077076,0.669000,357389,1000,12,0,1,318.490,5.496,24.707,457.954,1.537,1.287
1782115903.078076,0.670000,357390,1000,12,0,1,313.662,4.178,24.682,456.249,0.945,1.279
1782115903.079076,0.671000,357391,1000,12,0,1,304.798,-4.771,24.650,455.768,-0.604,1.282
1782115903.080076,0.672000,357392,1000,12,0,1,311.788,2.638,23.996,455.528,0.049,1.275
1782115903.081076,0.673000,357393,1000,12,0,1,338.715,27.233,23.101,455.408,-0.435,1.273
1782115903.082076,0.674000,357394,1000,12,0,1,378.037,59.945,23.780,455.744,0.209,1.259
1782115903.083076,0.675000,357395,1000,12,0,1,368.453,52.239,24.373,455.768,0.301,1.246
1782115903.084076,0.676000,357396,1000,12,0,1,332.542,8.729,23.936,456.681,0.925,1.250
1782115903.085076,0.677000,357397,1000,12,0,1,313.374,-10.934,23.458,454.976,0.024,1.249
1782115903.086076,0.678000,357398,1000,12,0,1,313.374,-10.944,23.098,454.976,-0.786,1.251
1782115903.087076,0.679000,357399,1000,12,0,1,293.605,-21.870,23.179,456.345,1.160,1.260
1782115903.088076,0.680000,357400,1000,12,0,1,295.791,-23.978,23.418,457.185,1.614,1.226
1782115903.089076,0.681000,357401,1000,12,0,1,303.357,-8.891,23.420,454.423,-0.293,1.210
1782115903.090076,0.682000,357402,1000,12,0,1,307.993,-6.500,23.029,454.471,-1.173,1.192
1782115903.091076,0.683000,357403,1000,12,0,1,302.973,-8.365,22.180,455.408,0.620,1.192
1782115903.092076,0.684000,357404,1000,12,0,1,291.803,-19.503,21.737,454.663,-0.126,1.169
1782115903.093076,0.685000,357405,1000,12,0,1,286.879,-23.518,21.985,453.726,-0.820,1.164
1782115903.094076,0.686000,357406,1000,12,0,1,294.950,-14.632,21.908,451.733,-2.121,1.197
1782115903.095076,0.687000,357407,1000,12,0,1,312.413,1.427,21.819,454.207,-0.408,1.198
1782115903.096076,0.688000,357408,1000,12,0,1,328.939,16.743,21.935,453.414,0.517,1.200
1782115903.097076,0.689000,357409,1000,12,0,1,335.641,19.839,22.068,453.102,-0.907,1.200
1782115903.098076,0.690000,357410,1000,12,0,1,332.158,14.409,21.793,454.952,1.505,1.178
1782115903.099076,0.691000,357411,1000,12,0,1,331.101,9.318,21.001,454.928,1.388,1.192
1782115903.100076,0.692000,357412,1000,12,0,1,334.392,11.870,20.255,454.087,0.455,1.148
1782115903.101076,0.693000,357413,1000,12,0,1,325.936,4.949,19.831,453.534,-0.082,1.138
1782115903.102076,0.694000,357414,1000,12,0,1,308.930,-9.685,19.690,455.192,1.044,1.146
1782115903.103076,0.695000,357415,1000,12,0,1,297.880,-17.292,19.679,454.855,1.340,1.159
1782115903.104076,0.696000,357416,1000,12,0,1,294.469,-15.415,19.546,453.654,-0.378,1.160
1782115903.105076,0.697000,357417,1000,12,0,1,298.433,-7.552,19.517,453.054,-0.607,1.154
1782115903.106076,0.698000,357418,1000,12,0,1,341.238,28.781,19.913,452.525,-1.055,1.151
1782115903.107076,0.699000,357419,1000,12,0,1,341.238,37.891,20.622,452.525,-0.777,1.156
1782115903.108076,0.700000,357420,1000,12,0,1,348.516,27.445,20.694,450.772,-1.759,1.182
1782115903.109076,0.701000,357421,1000,12,0,1,349.477,31.527,20.881,453.078,-0.214,1.181
1782115903.110076,0.702000,357422,1000,12,0,1,340.253,11.608,20.806,454.495,2.232,1.222
1782115903.111076,0.703000,357423,1000,12,0,1,331.990,1.347,20.402,452.405,0.030,1.209
1782115903.112076,0.704000,357424,1000,12,0,1,322.622,-11.100,19.618,452.333,-0.287,1.190
1782115903.113076,0.705000,357425,1000,12,0,1,309.074,-24.452,19.272,452.742,0.512,1.187
1782115903.114076,0.706000,357426,1000,12,0,1,290.914,-38.597,19.965,453.847,1.202,1.169
1782115903.115076,0.707000,357427,1000,12,0,1,281.258,-45.993,20.943,452.790,0.777,1.115
1782115903.116076,0.708000,357428,1000,12,0,1,281.258,-38.559,21.581,452.790,0.006,1.102
1782115903.117076,0.709000,357429,1000,12,0,1,275.901,-37.048,22.188,453.438,1.030,1.086
1782115903.118076,0.710000,357430,1000,12,0,1,291.131,-19.859,22.136,453.967,1.122,1.085
1782115903.119076,0.711000,357431,1000,12,0,1,300.186,-2.920,21.930,454.639,1.646,1.097
1782115903.120076,0.712000,357432,1000,12,0,1,325.024,16.578,22.028,454.183,1.088,1.101
1782115903.121076,0.713000,357433,1000,12,0,1,381.304,65.370,23.888,452.357,-0.720,1.040
1782115903.122076,0.714000,357434,1000,12,0,1,428.841,102.252,27.899,451.661,-1.496,1.057
1782115903.123076,0.715000,357435,1000,12,0,1,428.481,90.491,30.689,451.084,-1.613,1.079
1782115903.124076,0.716000,357436,1000,12,0,1,387.069,39.424,31.160,453.342,0.170,1.066
1782115903.125076,0.717000,357437,1000,12,0,1,302.660,-40.327,31.582,452.670,0.542,1.009
1782115903.126076,0.718000,357438,1000,12,0,1,302.660,-53.191,32.438,452.670,-0.312,0.997
1782115903.127076,0.719000,357439,1000,12,0,1,291.611,-37.694,32.864,454.615,1.784,1.005
1782115903.128076,0.720000,357440,1000,12,0,1,291.827,-44.332,33.451,452.694,0.394,0.998
1782115903.129076,0.721000,357441,1000,12,0,1,305.375,-17.011,33.531,452.646,-0.559,0.997
1782115903.130076,0.722000,357442,1000,12,0,1,318.010,-5.969,33.539,451.565,-0.502,1.000
1782115903.131076,0.723000,357443,1000,12,0,1,326.537,4.665,33.324,452.261,-0.729,1.003
1782115903.132076,0.724000,357444,1000,12,0,1,329.636,6.180,32.239,450.460,-0.994,1.012
1782115903.133076,0.725000,357445,1000,12,0,1,335.521,6.892,31.397,450.652,-1.790,1.043
1782115903.134076,0.726000,357446,1000,12,0,1,342.295,11.809,31.417,450.484,-0.646,1.038
1782115903.135076,0.727000,357447,1000,12,0,1,344.240,7.702,31.398,450.700,-0.908,1.046
1782115903.136076,0.728000,357448,1000,12,0,1,345.249,6.180,31.372,450.916,-0.089,1.041
1782115903.137076,0.729000,357449,1000,12,0,1,340.949,-1.826,31.220,451.685,0.418,1.029
1782115903.138076,0.730000,357450,1000,12,0,1,336.842,-6.863,31.050,450.724,-0.047,1.004
1782115903.139076,0.731000,357451,1000,12,0,1,333.239,-11.010,31.064,452.213,0.689,1.007
1782115903.140076,0.732000,357452,1000,12,0,1,326.273,-14.976,31.122,450.484,0.050,0.994
1782115903.141076,0.733000,357453,1000,12,0,1,316.785,-21.259,31.245,450.532,-0.879,0.998
1782115903.142076,0.734000,357454,1000,12,0,1,301.051,-29.295,31.398,452.309,1.300,1.014
1782115903.143076,0.735000,357455,1000,12,0,1,289.401,-34.615,31.602,450.892,0.273,1.008
1782115903.144076,0.736000,357456,1000,12,0,1,276.982,-35.542,31.933,450.243,-0.875,0.971
1782115903.145076,0.737000,357457,1000,12,0,1,265.789,-37.274,32.364,450.964,0.282,0.970
1782115903.146076,0.738000,357458,1000,12,0,1,263.026,-30.054,32.556,451.733,0.793,0.973
1782115903.147076,0.739000,357459,1000,12,0,1,269.776,-15.611,32.510,450.700,0.352,0.966
1782115903.148076,0.740000,357460,1000,12,0,1,279.817,0.186,32.446,451.324,0.251,0.943
1782115903.149076,0.741000,357461,1000,12,0,1,298.337,18.739,32.527,449.619,-0.275,0.923
1782115903.150076,0.742000,357462,1000,12,0,1,325.768,42.163,33.027,448.994,-1.576,0.948
1782115903.151076,0.743000,357463,1000,12,0,1,362.688,68.279,34.402,449.859,-0.024,0.948
1782115903.152076,0.744000,357464,1000,12,0,1,369.318,68.227,35.704,450.051,0.209,0.937
1782115903.153076,0.745000,357465,1000,12,0,1,341.670,30.786,35.885,448.922,-0.514,0.920
1782115903.154076,0.746000,357466,1000,12,0,1,325.576,4.677,35.825,450.412,0.447,0.921
1782115903.155076,0.747000,357467,1000,12,0,1,326.033,1.595,35.809,448.106,-0.561,0.920
1782115903.156076,0.748000,357468,1000,12,0,1,340.661,9.898,35.605,450.099,-0.119,0.908
1782115903.157076,0.749000,357469,1000,12,0,1,349.116,17.070,35.282,451.156,2.189,0.953
1782115903.158076,0.750000,357470,1000,12,0,1,351.182,13.397,35.119,448.802,-0.535,0.923
1782115903.159076,0.751000,357471,1000,12,0,1,345.633,7.094,34.849,449.307,-0.445,0.925
1782115903.160076,0.752000,357472,1000,12,0,1,328.675,-9.379,34.836,448.802,-0.133,0.870
1782115903.161076,0.753000,357473,1000,12,0,1,321.108,-16.743,34.916,448.562,-0.925,0.879
1782115903.162076,0.754000,357474,1000,12,0,1,318.322,-14.309,34.939,450.219,0.979,0.889
1782115903.163076,0.755000,357475,1000,12,0,1,320.988,-9.768,34.795,450.460,1.197,0.902
1782115903.164076,0.756000,357476,1000,12,0,1,327.858,0.470,34.364,449.715,0.464,0.889
1782115903.165076,0.757000,357477,1000,12,0,1,329.636,4.000,33.748,449.643,0.179,0.882
1782115903.166076,0.758000,357478,1000,12,0,1,338.908,10.935,33.340,449.955,0.596,0.886
1782115903.167076,0.759000,357479,1000,12,0,1,345.153,17.017,33.014,448.994,-0.127,0.874
1782115903.168076,0.760000,357480,1000,12,0,1,337.322,7.391,32.911,447.865,-1.142,0.875
1782115903.169076,0.761000,357481,1000,12,0,1,335.353,0.932,32.908,449.066,-0.072,0.843
1782115903.170076,0.762000,357482,1000,12,0,1,333.023,-1.863,32.826,449.955,1.194,0.846
1782115903.171076,0.763000,357483,1000,12,0,1,327.906,-9.502,31.526,450.580,1.470,0.865
1782115903.172076,0.764000,357484,1000,12,0,1,314.142,-21.299,28.175,449.283,0.581,0.843
1782115903.173076,0.765000,357485,1000,12,0,1,302.564,-32.814,25.526,448.490,-0.628,0.816
1782115903.174076,0.766000,357486,1000,12,0,1,294.782,-36.024,25.426,449.403,0.343,0.818
1782115903.175076,0.767000,357487,1000,12,0,1,291.083,-35.852,25.291,452.069,2.461,0.885
1782115903.176076,0.768000,357488,1000,12,0,1,297.208,-26.060,24.426,449.307,0.653,0.889
1782115903.177076,0.769000,357489,1000,12,0,1,313.662,-7.382,23.860,447.649,-2.076,0.902
1782115903.178076,0.770000,357490,1000,12,0,1,318.946,1.968,23.024,450.340,0.647,0.904
1782115903.179076,0.771000,357491,1000,12,0,1,321.565,3.861,22.904,451.829,2.188,0.953
1782115903.180076,0.772000,357492,1000,12,0,1,327.258,10.465,22.936,448.466,-0.777,0.956
1782115903.181076,0.773000,357493,1000,12,0,1,326.729,11.338,22.983,446.280,-3.291,1.059
1782115903.182076,0.774000,357494,1000,12,0,1,319.763,5.634,22.980,447.721,-1.676,1.076
1782115903.183076,0.775000,357495,1000,12,0,1,319.739,5.865,22.974,448.058,-0.592,1.049
1782115903.184076,0.776000,357496,1000,12,0,1,324.063,11.559,22.972,448.274,-0.609,1.048
1782115903.185076,0.777000,357497,1000,12,0,1,314.262,5.572,22.960,446.376,-1.479,1.061
1782115903.186076,0.778000,357498,1000,12,0,1,308.161,-1.569,22.944,446.809,-1.671,1.087
1782115903.187076,0.779000,357499,1000,12,0,1,323.871,12.811,23.014,447.217,-0.173,1.086
1782115903.188076,0.780000,357500,1000,12,0,1,339.004,27.088,23.310,447.721,-0.048,1.086
1782115903.189076,0.781000,357501,1000,12,0,1,332.878,19.512,23.422,446.520,-0.354,1.083
1782115903.190076,0.782000,357502,1000,12,0,1,316.448,0.297,23.326,446.016,-1.152,1.095
1782115903.191076,0.783000,357503,1000,12,0,1,313.710,-5.944,23.146,445.055,-1.243,1.102
1782115903.192076,0.784000,357504,1000,12,0,1,319.427,-0.921,22.773,446.016,-0.583,1.089
1782115903.193076,0.785000,357505,1000,12,0,1,320.844,-0.746,22.241,446.640,0.697,1.093
1782115903.194076,0.786000,357506,1000,12,0,1,320.652,-2.888,21.669,447.289,1.051,1.096
1782115903.195076,0.787000,357507,1000,12,0,1,320.988,-3.865,21.025,446.208,0.444,1.097
1782115903.196076,0.788000,357508,1000,12,0,1,323.006,-3.287,20.597,445.776,-0.302,1.093
1782115903.197076,0.789000,357509,1000,12,0,1,323.390,-2.974,20.482,444.839,-0.686,1.096
1782115903.198076,0.790000,357510,1000,12,0,1,318.946,-6.747,20.504,445.607,-0.233,1.096
1782115903.199076,0.791000,357511,1000,12,0,1,315.752,-9.163,20.374,446.424,0.960,1.103
1782115903.200076,0.792000,357512,1000,12,0,1,314.695,-7.909,19.514,447.121,1.404,1.099
1782115903.201076,0.793000,357513,1000,12,0,1,310.467,-8.695,17.002,447.097,1.404,1.116
1782115903.202076,0.794000,357514,1000,12,0,1,307.176,-9.124,14.058,444.575,-0.672,1.120
1782115903.203076,0.795000,357515,1000,12,0,1,303.573,-8.277,13.418,444.671,-1.178,1.130
1782115903.204076,0.796000,357516,1000,12,0,1,296.319,-10.887,13.489,445.391,0.351,1.129
1782115903.205076,0.797000,357517,1000,12,0,1,291.755,-11.563,13.586,445.920,0.546,1.129
1782115903.206076,0.798000,357518,1000,12,0,1,287.383,-10.691,13.598,445.776,0.843,1.135
1782115903.207076,0.799000,357519,1000,12,0,1,287.720,-7.721,13.427,445.175,0.107,1.092
1782115903.208076,0.800000,357520,1000,12,0,1,298.889,4.492,13.308,443.422,-1.062,1.100
1782115903.209076,0.801000,357521,1000,12,0,1,326.921,28.164,13.855,441.980,-2.301,1.145
1782115903.210076,0.802000,357522,1000,12,0,1,339.508,39.453,14.877,444.983,0.361,1.146
1782115903.211076,0.803000,357523,1000,12,0,1,334.320,26.984,15.175,445.968,2.257,1.183
1782115903.212076,0.804000,357524,1000,12,0,1,317.577,7.474,15.077,445.607,1.208,1.187
1782115903.213076,0.805000,357525,1000,12,0,1,303.117,-10.575,15.087,444.046,0.204,1.175
1782115903.214076,0.806000,357526,1000,12,0,1,300.835,-13.614,15.210,443.446,-0.861,1.180
1782115903.215076,0.807000,357527,1000,12,0,1,304.246,-9.470,15.258,442.197,-1.279,1.193
1782115903.216076,0.808000,357528,1000,12,0,1,305.207,-7.554,15.217,444.094,-0.143,1.191
1782115903.217076,0.809000,357529,1000,12,0,1,306.816,-5.399,15.045,443.590,0.569,1.193
1782115903.218076,0.810000,357530,1000,12,0,1,312.533,0.220,15.009,442.677,-0.948,1.190
1782115903.219076,0.811000,357531,1000,12,0,1,318.562,6.825,15.039,442.557,-0.540,1.192
1782115903.220076,0.812000,357532,1000,12,0,1,319.907,8.227,15.082,442.245,-0.699,1.184
1782115903.221076,0.813000,357533,1000,12,0,1,322.117,9.597,15.083,442.533,-0.338,1.167
1782115903.222076,0.814000,357534,1000,12,0,1,321.973,9.896,14.845,440.707,-1.244,1.177
1782115903.223076,0.815000,357535,1000,12,0,1,309.554,-0.043,14.101,440.491,-1.837,1.202
1782115903.224076,0.816000,357536,1000,12,0,1,303.765,-6.478,13.181,443.133,1.179,1.213
1782115903.225076,0.817000,357537,1000,12,0,1,305.495,-1.849,12.169,442.149,0.863,1.168
1782115903.226076,0.818000,357538,1000,12,0,1,303.237,-2.063,11.601,441.860,0.048,1.164
1782115903.227076,0.819000,357539,1000,12,0,1,293.965,-8.453,11.616,442.845,1.326,1.142
1782115903.228076,0.820000,357540,1000,12,0,1,290.314,-11.471,11.725,443.205,1.582,1.160
1782115903.229076,0.821000,357541,1000,12,0,1,289.665,-9.283,11.786,442.052,0.659,1.122
1782115903.230076,0.822000,357542,1000,12,0,1,283.660,-12.693,11.830,441.164,-0.347,1.118
1782115903.231076,0.823000,357543,1000,12,0,1,272.779,-20.492,12.073,442.124,0.526,1.019
1782115903.232076,0.824000,357544,1000,12,0,1,259.976,-28.841,12.719,440.443,-0.311,0.992
1782115903.233076,0.825000,357545,1000,12,0,1,251.064,-33.087,13.527,441.668,-0.067,0.989
1782115903.234076,0.826000,357546,1000,12,0,1,249.695,-29.031,14.041,443.037,2.073,1.028
1782115903.235076,0.827000,357547,1000,12,0,1,264.756,-12.116,14.124,443.229,1.642,1.033
1782115903.236076,0.828000,357548,1000,12,0,1,288.128,12.759,14.237,440.947,-0.028,1.005
1782115903.237076,0.829000,357549,1000,12,0,1,300.739,24.903,14.553,441.452,-0.459,1.007
1782115903.238076,0.830000,357550,1000,12,0,1,302.564,24.079,14.447,442.965,1.515,1.030
1782115903.239076,0.831000,357551,1000,12,0,1,307.753,24.868,14.611,442.437,0.899,1.036
1782115903.240076,0.832000,357552,1000,12,0,1,317.938,31.191,15.262,440.203,-1.119,1.035
1782115903.241076,0.833000,357553,1000,12,0,1,331.077,38.837,16.198,442.197,0.103,1.021
1782115903.242076,0.834000,357554,1000,12,0,1,336.770,40.308,17.172,442.365,1.184,1.031
1782115903.243076,0.835000,357555,1000,12,0,1,332.566,31.242,17.731,441.908,0.089,1.026
1782115903.244076,0.836000,357556,1000,12,0,1,318.034,14.860,17.850,441.812,0.256,1.016
1782115903.245076,0.837000,357557,1000,12,0,1,313.758,6.357,17.864,441.716,0.067,1.014
1782115903.246076,0.838000,357558,1000,12,0,1,313.206,6.795,17.884,441.164,-0.327,1.014
1782115903.247076,0.839000,357559,1000,12,0,1,313.686,5.290,17.895,441.548,-0.039,1.010
1782115903.248076,0.840000,357560,1000,12,0,1,313.638,4.977,17.883,442.004,0.496,1.012
1782115903.249076,0.841000,357561,1000,12,0,1,312.893,2.494,17.840,441.500,0.169,1.003
1782115903.250076,0.842000,357562,1000,12,0,1,314.359,1.797,17.807,443.878,1.645,1.010
1782115903.251076,0.843000,357563,1000,12,0,1,315.896,1.441,17.765,443.638,2.184,1.037
1782115903.252076,0.844000,357564,1000,12,0,1,315.704,-1.452,17.719,441.860,-0.347,1.034
1782115903.253076,0.845000,357565,1000,12,0,1,329.107,5.865,17.700,441.332,-0.672,1.025
1782115903.254076,0.846000,357566,1000,12,0,1,351.759,22.335,17.914,443.109,0.569,1.027
1782115903.255076,0.847000,357567,1000,12,0,1,364.225,28.094,18.276,445.079,2.514,1.084
1782115903.256076,0.848000,357568,1000,12,0,1,359.133,16.193,18.357,441.596,-0.344,1.079
1782115903.257076,0.849000,357569,1000,12,0,1,339.028,-7.464,18.355,441.692,-1.591,1.102
1782115903.258076,0.850000,357570,1000,12,0,1,316.400,-31.080,18.863,443.566,1.037,1.101
1782115903.259076,0.851000,357571,1000,12,0,1,295.118,-47.341,19.616,445.199,1.832,1.084
1782115903.260076,0.852000,357572,1000,12,0,1,279.577,-55.895,20.399,442.677,0.183,1.083
1782115903.261076,0.853000,357573,1000,12,0,1,268.167,-56.376,21.567,443.806,-0.315,1.035
1782115903.262076,0.854000,357574,1000,12,0,1,268.887,-46.913,22.539,441.812,-0.590,1.025
1782115903.263076,0.855000,357575,1000,12,0,1,265.356,-37.215,23.097,441.524,-2.207,1.071
1782115903.264076,0.856000,357576,1000,12,0,1,261.729,-32.787,23.479,441.068,-1.314,1.080
1782115903.265076,0.857000,357577,1000,12,0,1,279.024,-10.575,23.489,443.446,-0.016,1.065
1782115903.266076,0.858000,357578,1000,12,0,1,294.974,11.620,23.522,444.839,2.105,1.105
1782115903.267076,0.859000,357579,1000,12,0,1,311.452,25.408,23.783,444.454,1.183,1.115
1782115903.268076,0.860000,357580,1000,12,0,1,344.144,51.364,24.867,444.623,0.947,1.115
1782115903.269076,0.861000,357581,1000,12,0,1,377.461,74.611,26.996,444.743,1.049,1.122
1782115903.270076,0.862000,357582,1000,12,0,1,395.044,78.958,29.191,447.337,2.410,1.169
1782115903.271076,0.863000,357583,1000,12,0,1,393.675,63.618,30.516,444.887,1.174,1.179
1782115903.272076,0.864000,357584,1000,12,0,1,389.231,44.203,31.118,444.887,-0.829,1.172
1782115903.273076,0.865000,357585,1000,12,0,1,382.313,27.287,31.356,446.640,1.695,1.168
1782115903.274076,0.866000,357586,1000,12,0,1,354.689,-3.978,31.348,443.926,-1.040,1.165
1782115903.275076,0.867000,357587,1000,12,0,1,329.299,-33.093,31.694,443.854,-1.770,1.185
1782115903.276076,0.868000,357588,1000,12,0,1,323.991,-36.888,32.120,444.479,-0.528,1.188
1782115903.277076,0.869000,357589,1000,12,0,1,328.170,-29.158,32.361,444.887,-0.516,1.175
1782115903.278076,0.870000,357590,1000,12,0,1,343.856,-12.909,32.372,444.406,-0.519,1.156
1782115903.279076,0.871000,357591,1000,12,0,1,346.234,-5.345,32.354,444.767,-0.669,1.156
1782115903.280076,0.872000,357592,1000,12,0,1,336.410,-14.478,32.369,444.310,-0.555,1.158
1782115903.281076,0.873000,357593,1000,12,0,1,341.886,-9.473,32.267,443.734,-1.387,1.172
1782115903.282076,0.874000,357594,1000,12,0,1,355.602,5.117,32.016,444.094,-0.845,1.177
1782115903.283076,0.875000,357595,1000,12,0,1,360.742,9.870,31.703,445.535,0.375,1.178
1782115903.284076,0.876000,357596,1000,12,0,1,356.082,4.190,31.442,444.358,-0.249,1.142
1782115903.285076,0.877000,357597,1000,12,0,1,347.963,-5.056,31.403,444.551,-0.754,1.123
1782115903.286076,0.878000,357598,1000,12,0,1,342.319,-11.011,31.390,444.599,-0.160,1.123
1782115903.287076,0.879000,357599,1000,12,0,1,340.877,-12.448,31.242,443.446,-1.328,1.137
1782115903.288076,0.880000,357600,1000,12,0,1,342.631,-10.590,31.091,445.944,0.482,1.119
1782115903.289076,0.881000,357601,1000,12,0,1,338.307,-13.270,30.949,445.559,1.085,1.122
1782115903.290076,0.882000,357602,1000,12,0,1,332.374,-18.878,30.749,444.815,-0.608,1.114
1782115903.291076,0.883000,357603,1000,12,0,1,330.813,-19.037,30.374,444.887,-0.051,1.114
1782115903.292076,0.884000,357604,1000,12,0,1,331.461,-16.628,29.927,446.496,0.831,1.108
1782115903.293076,0.885000,357605,1000,12,0,1,336.482,-10.964,29.640,445.415,0.541,1.110
1782115903.294076,0.886000,357606,1000,12,0,1,344.480,-2.377,29.567,447.481,1.111,1.121
1782115903.295076,0.887000,357607,1000,12,0,1,351.014,3.858,29.558,447.481,2.077,1.158
1782115903.296076,0.888000,357608,1000,12,0,1,344.336,-0.722,29.543,445.487,-0.628,1.161
1782115903.297076,0.889000,357609,1000,12,0,1,344.408,-3.164,29.537,445.295,-0.846,1.167
1782115903.298076,0.890000,357610,1000,12,0,1,342.655,-1.019,29.529,446.160,0.029,1.165
1782115903.299076,0.891000,357611,1000,12,0,1,336.313,-6.511,29.541,445.535,-0.390,1.166
1782115903.300076,0.892000,357612,1000,12,0,1,326.057,-12.152,29.590,446.256,-0.039,1.143
1782115903.301076,0.893000,357613,1000,12,0,1,312.917,-20.545,29.731,446.881,0.697,1.104
1782115903.302076,0.894000,357614,1000,12,0,1,310.299,-19.312,29.856,444.286,-1.368,1.120
1782115903.303076,0.895000,357615,1000,12,0,1,319.379,-5.995,29.856,445.055,-1.520,1.137
1782115903.304076,0.896000,357616,1000,12,0,1,337.875,12.553,29.742,445.415,-0.085,1.134
1782115903.305076,0.897000,357617,1000,12,0,1,349.525,24.957,29.686,444.334,-1.508,1.098
1782115903.306076,0.898000,357618,1000,12,0,1,353.416,24.625,29.802,445.199,-0.582,1.100
1782115903.307076,0.899000,357619,1000,12,0,1,342.198,13.259,29.842,446.208,0.483,1.079
1782115903.308076,0.900000,357620,1000,12,0,1,329.852,-2.695,29.519,446.472,0.634,1.072
1782115903.309076,0.901000,357621,1000,12,0,1,329.059,-4.317,28.756,445.872,0.069,1.041
1782115903.310076,0.902000,357622,1000,12,0,1,330.909,-2.371,27.650,445.800,-0.295,1.041
1782115903.311076,0.903000,357623,1000,12,0,1,334.152,-0.359,26.476,445.848,-0.083,1.040
1782115903.312076,0.904000,357624,1000,12,0,1,335.353,0.963,25.632,447.577,1.039,1.047
1782115903.313076,0.905000,357625,1000,12,0,1,333.671,-1.572,25.086,449.115,2.579,1.064
1782115903.314076,0.906000,357626,1000,12,0,1,325.792,-7.545,24.677,447.769,1.111,1.059
1782115903.315076,0.907000,357627,1000,12,0,1,331.725,-4.336,24.639,447.697,0.324,1.060
1782115903.316076,0.908000,357628,1000,12,0,1,356.251,18.397,24.722,447.769,0.610,1.021
1782115903.317076,0.909000,357629,1000,12,0,1,355.602,20.365,24.628,447.601,0.086,1.008
1782115903.318076,0.910000,357630,1000,12,0,1,332.398,-3.846,23.539,450.508,2.251,1.048
1782115903.319076,0.911000,357631,1000,12,0,1,306.792,-25.384,21.346,449.787,2.121,1.080
1782115903.320076,0.912000,357632,1000,12,0,1,290.482,-36.411,18.907,449.139,0.281,1.026
1782115903.321076,0.913000,357633,1000,12,0,1,298.241,-24.128,16.975,450.243,1.358,1.030
1782115903.322076,0.914000,357634,1000,12,0,1,321.180,2.852,15.788,449.619,0.590,1.027
1782115903.323076,0.915000,357635,1000,12,0,1,334.152,18.306,15.526,445.415,-3.038,1.087
1782115903.324076,0.916000,357636,1000,12,0,1,346.114,26.172,15.951,447.457,-2.243,1.123
1782115903.325076,0.917000,357637,1000,12,0,1,349.981,28.424,15.770,449.090,0.663,1.099
1782115903.326076,0.918000,357638,1000,12,0,1,355.242,26.319,15.341,449.379,0.128,1.096
1782115903.327076,0.919000,357639,1000,12,0,1,364.418,30.112,15.378,449.475,0.389,1.095
1782115903.328076,0.920000,357640,1000,12,0,1,355.386,18.311,15.487,448.298,-0.862,1.100
1782115903.329076,0.921000,357641,1000,12,0,1,338.139,-3.336,15.476,448.970,-0.746,1.101
1782115903.330076,0.922000,357642,1000,12,0,1,340.445,-5.253,15.358,450.484,0.873,1.105
1782115903.331076,0.923000,357643,1000,12,0,1,345.273,-0.007,15.299,450.147,0.322,1.088
1782115903.332076,0.924000,357644,1000,12,0,1,337.875,-7.250,15.316,449.979,-0.136,1.082
1782115903.333076,0.925000,357645,1000,12,0,1,327.210,-17.313,15.448,450.003,-0.258,1.081
1782115903.334076,0.926000,357646,1000,12,0,1,321.853,-20.599,15.709,450.123,-0.249,1.081
1782115903.335076,0.927000,357647,1000,12,0,1,326.777,-14.177,15.820,449.787,-0.574,1.079
1782115903.336076,0.928000,357648,1000,12,0,1,336.626,-2.243,15.747,451.685,0.708,1.083
1782115903.337076,0.929000,357649,1000,12,0,1,346.450,7.426,15.683,448.178,-1.394,1.085
1782115903.338076,0.930000,357650,1000,12,0,1,343.592,6.538,15.639,449.859,-1.600,1.106
1782115903.339076,0.931000,357651,1000,12,0,1,334.752,-2.835,15.531,450.724,0.981,1.104
1782115903.340076,0.932000,357652,1000,12,0,1,324.591,-10.252,15.368,448.970,-1.415,1.119
1782115903.341076,0.933000,357653,1000,12,0,1,316.328,-16.079,15.301,451.012,0.291,1.119
1782115903.342076,0.934000,357654,1000,12,0,1,306.360,-20.710,15.400,451.781,1.557,1.135
1782115903.343076,0.935000,357655,1000,12,0,1,306.240,-18.577,15.545,452.742,1.475,1.151
1782115903.344076,0.936000,357656,1000,12,0,1,327.666,2.885,15.547,452.862,1.905,1.172
1782115903.345076,0.937000,357657,1000,12,0,1,362.664,34.380,16.280,451.180,-0.313,1.135
1782115903.346076,0.938000,357658,1000,12,0,1,386.757,52.668,17.903,450.796,-0.845,1.138
1782115903.347076,0.939000,357659,1000,12,0,1,390.384,47.778,19.130,451.901,-0.049,1.132
1782115903.348076,0.940000,357660,1000,12,0,1,385.628,33.147,19.696,452.525,0.598,1.135
1782115903.349076,0.941000,357661,1000,12,0,1,381.280,21.061,19.898,453.630,1.068,1.144
1782115903.350076,0.942000,357662,1000,12,0,1,364.033,1.324,19.825,454.303,1.555,1.165
1782115903.351076,0.943000,357663,1000,12,0,1,345.177,-19.996,19.814,453.438,0.389,1.162
1782115903.352076,0.944000,357664,1000,12,0,1,332.278,-30.317,20.088,452.670,-0.717,1.150
1782115903.353076,0.945000,357665,1000,12,0,1,334.704,-26.675,20.421,452.045,-1.270,1.144
1782115903.354076,0.946000,357666,1000,12,0,1,344.841,-12.880,20.425,453.102,-0.628,1.147
1782115903.355076,0.947000,357667,1000,12,0,1,356.515,-0.639,20.118,455.264,1.406,1.145
1782115903.356076,0.948000,357668,1000,12,0,1,367.348,9.765,19.862,454.495,0.790,1.147
1782115903.357076,0.949000,357669,1000,12,0,1,370.975,12.488,19.852,453.847,-0.471,1.147
1782115903.358076,0.950000,357670,1000,12,0,1,359.421,1.357,19.850,454.663,0.247,1.144
1782115903.359076,0.951000,357671,1000,12,0,1,347.243,-11.471,19.907,453.606,-0.545,1.147
1782115903.360076,0.952000,357672,1000,12,0,1,331.221,-22.870,20.165,454.423,-0.443,1.148
1782115903.361076,0.953000,357673,1000,12,0,1,313.614,-35.820,20.791,455.936,1.238,1.161
1782115903.362076,0.954000,357674,1000,12,0,1,313.061,-32.659,21.298,456.321,1.193,1.164
1782115903.363076,0.955000,357675,1000,12,0,1,315.896,-22.488,21.533,455.024,-0.057,1.105
1782115903.364076,0.956000,357676,1000,12,0,1,318.538,-16.947,21.639,454.567,-1.013,1.103
1782115903.365076,0.957000,357677,1000,12,0,1,313.614,-15.843,21.746,455.048,-0.502,1.105
1782115903.366076,0.958000,357678,1000,12,0,1,299.298,-25.662,21.893,453.726,-1.505,1.122
1782115903.367076,0.959000,357679,1000,12,0,1,280.417,-37.123,22.329,452.213,-3.022,1.200
1782115903.368076,0.960000,357680,1000,12,0,1,256.325,-51.003,23.459,454.543,-1.034,1.167
1782115903.369076,0.961000,357681,1000,12,0,1,254.139,-46.815,24.109,453.606,-0.860,1.134
1782115903.370076,0.962000,357682,1000,12,0,1,273.067,-19.221,23.709,453.654,-1.699,1.158
1782115903.371076,0.963000,357683,1000,12,0,1,291.395,4.307,23.470,453.246,-1.153,1.154
1782115903.372076,0.964000,357684,1000,12,0,1,302.660,17.841,23.602,455.096,-0.249,1.151
1782115903.373076,0.965000,357685,1000,12,0,1,311.164,25.509,23.735,454.375,0.137,1.068
1782115903.374076,0.966000,357686,1000,12,0,1,324.591,35.473,23.976,453.943,-1.127,1.033
1782115903.375076,0.967000,357687,1000,12,0,1,356.371,58.438,25.039,456.417,1.238,1.043
1782115903.376076,0.968000,357688,1000,12,0,1,391.945,84.268,27.480,459.467,3.795,1.173
1782115903.377076,0.969000,357689,1000,12,0,1,400.569,82.868,29.569,456.537,1.355,1.187
1782115903.378076,0.970000,357690,1000,12,0,1,395.933,63.949,30.813,455.432,-0.981,1.189
1782115903.379076,0.971000,357691,1000,12,0,1,383.202,43.015,31.404,455.744,-0.172,1.185
1782115903.380076,0.972000,357692,1000,12,0,1,384.883,32.294,31.726,454.375,-1.351,1.194
1782115903.381076,0.973000,357693,1000,12,0,1,391.777,34.004,32.088,453.414,-2.248,1.234
1782115903.382076,0.974000,357694,1000,12,0,1,384.811,21.431,32.215,453.847,-1.454,1.251
1782115903.383076,0.975000,357695,1000,12,0,1,394.155,20.228,32.249,455.768,0.259,1.251
1782115903.384076,0.976000,357696,1000,12,0,1,406.598,28.353,32.366,454.447,-0.098,1.251
1782115903.385076,0.977000,357697,1000,12,0,1,399.127,15.087,32.374,454.375,-1.059,1.257
1782115903.386076,0.978000,357698,1000,12,0,1,382.265,-6.175,32.385,454.303,-0.258,1.254
1782115903.387076,0.979000,357699,1000,12,0,1,360.478,-28.391,32.616,455.864,0.409,1.239
1782115903.388076,0.980000,357700,1000,12,0,1,339.556,-47.220,33.279,457.209,2.102,1.254
1782115903.389076,0.981000,357701,1000,12,0,1,323.751,-57.620,34.260,457.666,1.850,1.274
1782115903.390076,0.982000,357702,1000,12,0,1,314.959,-59.845,35.260,457.474,1.435,1.274
1782115903.391076,0.983000,357703,1000,12,0,1,324.255,-46.278,35.790,456.609,0.275,1.274
1782115903.392076,0.984000,357704,1000,12,0,1,340.253,-25.151,35.847,455.384,-1.057,1.264
1782115903.393076,0.985000,357705,1000,12,0,1,347.483,-15.126,35.815,454.759,-1.621,1.267
1782115903.394076,0.986000,357706,1000,12,0,1,354.401,-8.810,35.834,455.312,-1.135,1.249
1782115903.395076,0.987000,357707,1000,12,0,1,349.693,-10.339,35.533,455.624,-0.470,1.250
1782115903.396076,0.988000,357708,1000,12,0,1,329.179,-27.601,34.962,456.537,0.112,1.244
1782115903.397076,0.989000,357709,1000,12,0,1,323.270,-31.941,34.599,458.194,1.697,1.267
1782115903.398076,0.990000,357710,1000,12,0,1,336.554,-14.722,34.343,455.624,-0.261,1.265
1782115903.399076,0.991000,357711,1000,12,0,1,350.149,2.059,34.215,455.048,-1.642,1.277
1782115903.400076,0.992000,357712,1000,12,0,1,360.622,12.820,34.262,456.633,0.386,1.259
1782115903.401076,0.993000,357713,1000,12,0,1,385.796,32.582,34.455,453.726,-1.654,1.280
1782115903.402076,0.994000,357714,1000,12,0,1,400.136,45.583,34.790,454.039,-2.163,1.312
1782115903.403076,0.995000,357715,1000,12,0,1,381.472,24.825,34.762,455.936,0.582,1.302
1782115903.404076,0.996000,357716,1000,12,0,1,363.385,2.282,34.716,455.096,-0.163,1.299
1782115903.405076,0.997000,357717,1000,12,0,1,362.448,0.749,34.716,455.576,-0.017,1.284
1782115903.406076,0.998000,357718,1000,12,0,1,370.111,7.554,34.705,454.399,-0.495,1.281
1782115903.407076,0.999000,357719,1000,12,0,1,377.869,14.187,34.718,454.928,-0.711,1.283
1782115903.408076,1.000000,357720,1000,12,0,1,379.863,14.031,34.774,455.144,0.226,1.283
1782115903.409076,1.001000,357721,1000,12,0,1,380.031,10.790,34.770,455.864,0.267,1.281
1782115903.410076,1.002000,357722,1000,12,0,1,393.627,17.698,34.709,455.528,0.430,1.281
1782115903.411076,1.003000,357723,1000,12,0,1,401.385,22.542,34.485,457.426,1.257,1.282
1782115903.412076,1.004000,357724,1000,12,0,1,397.422,12.491,34.220,456.249,0.996,1.278
1782115903.413076,1.005000,357725,1000,12,0,1,375.539,-9.561,34.099,456.008,-0.382,1.279
1782115903.414076,1.006000,357726,1000,12,0,1,352.816,-33.662,34.346,456.681,0.703,1.275
1782115903.415076,1.007000,357727,1000,12,0,1,345.754,-38.245,34.697,458.675,1.899,1.301
1782115903.416076,1.008000,357728,1000,12,0,1,351.903,-28.929,34.749,457.306,1.167,1.294
1782115903.417076,1.009000,357729,1000,12,0,1,362.208,-15.835,34.423,457.258,0.087,1.222
1782115903.418076,1.010000,357730,1000,12,0,1,368.933,-6.879,33.673,457.906,1.044,1.222
1782115903.419076,1.011000,357731,1000,12,0,1,365.619,-8.016,33.035,458.002,0.860,1.222
1782115903.420076,1.012000,357732,1000,12,0,1,359.517,-12.432,32.970,457.882,0.598,1.201
1782115903.421076,1.013000,357733,1000,12,0,1,355.482,-13.762,33.021,456.249,-0.656,1.193
1782115903.422076,1.014000,357734,1000,12,0,1,351.398,-13.924,32.984,452.501,-3.920,1.315
1782115903.423076,1.015000,357735,1000,12,0,1,344.024,-16.619,32.870,454.303,-2.576,1.365
1782115903.424076,1.016000,357736,1000,12,0,1,339.100,-17.275,32.577,454.663,-0.763,1.360
1782115903.425076,1.017000,357737,1000,12,0,1,338.427,-13.312,31.567,457.185,0.608,1.351
1782115903.426076,1.018000,357738,1000,12,0,1,334.296,-11.861,29.279,456.321,1.073,1.249
1782115903.427076,1.019000,357739,1000,12,0,1,331.461,-11.333,26.879,456.705,0.015,1.235
1782115903.428076,1.020000,357740,1000,12,0,1,327.906,-9.807,25.350,455.864,0.154,1.227
1782115903.429076,1.021000,357741,1000,12,0,1,323.655,-10.653,24.656,457.185,0.218,1.227
1782115903.430076,1.022000,357742,1000,12,0,1,317.481,-12.080,24.289,453.895,-1.465,1.230
1782115903.431076,1.023000,357743,1000,12,0,1,312.485,-13.616,23.886,453.943,-2.840,1.254
1782115903.432076,1.024000,357744,1000,12,0,1,309.699,-12.218,23.756,456.465,0.493,1.239
1782115903.433076,1.025000,357745,1000,12,0,1,304.078,-13.101,23.656,457.978,1.670,1.261
1782115903.434076,1.026000,357746,1000,12,0,1,305.687,-9.531,23.352,455.720,-0.123,1.261
1782115903.435076,1.027000,357747,1000,12,0,1,321.132,6.854,23.275,455.792,-0.775,1.257
1782115903.436076,1.028000,357748,1000,12,0,1,332.590,19.460,23.421,456.633,0.455,1.258
1782115903.437076,1.029000,357749,1000,12,0,1,323.582,12.045,23.137,454.783,-0.859,1.262
1782115903.438076,1.030000,357750,1000,12,0,1,298.913,-9.919,22.196,453.414,-2.352,1.271
1782115903.439076,1.031000,357751,1000,12,0,1,294.037,-14.790,20.752,454.207,-1.016,1.252
1782115903.440076,1.032000,357752,1000,12,0,1,303.741,-0.068,18.948,454.279,-0.554,1.238
1782115903.441076,1.033000,357753,1000,12,0,1,323.871,19.078,17.985,454.183,-0.331,1.238
1782115903.442076,1.034000,357754,1000,12,0,1,337.803,34.191,18.281,455.816,1.027,1.238
1782115903.443076,1.035000,357755,1000,12,0,1,343.760,36.016,18.856,455.672,1.484,1.234
1782115903.444076,1.036000,357756,1000,12,0,1,365.090,48.847,20.043,456.777,1.624,1.245
1782115903.445076,1.037000,357757,1000,12,0,1,388.558,65.309,22.020,455.960,1.514,1.262
1782115903.446076,1.038000,357758,1000,12,0,1,388.174,57.219,23.133,456.008,0.504,1.264
1782115903.447076,1.039000,357759,1000,12,0,1,373.137,33.921,23.190,454.759,0.017,1.241
1782115903.448076,1.040000,357760,1000,12,0,1,365.354,18.365,23.241,454.231,-1.179,1.251
1782115903.449076,1.041000,357761,1000,12,0,1,357.139,7.961,23.267,454.495,-0.518,1.232
1782115903.450076,1.042000,357762,1000,12,0,1,351.567,-1.623,23.197,455.288,0.025,1.230
1782115903.451076,1.043000,357763,1000,12,0,1,343.928,-8.474,22.767,453.534,-1.075,1.218
1782115903.452076,1.044000,357764,1000,12,0,1,340.445,-13.821,21.922,453.991,-1.248,1.192
1782115903.453076,1.045000,357765,1000,12,0,1,337.971,-14.449,21.735,453.606,-0.719,1.193
1782115903.454076,1.046000,357766,1000,12,0,1,339.628,-13.707,21.819,455.120,0.067,1.193
1782115903.455076,1.047000,357767,1000,12,0,1,345.081,-8.001,21.848,455.696,1.306,1.207
1782115903.456076,1.048000,357768,1000,12,0,1,343.592,-8.587,21.856,457.570,2.210,1.245
1782115903.457076,1.049000,357769,1000,12,0,1,337.779,-14.579,21.861,457.738,2.744,1.300
1782115903.458076,1.050000,357770,1000,12,0,1,333.527,-17.548,21.912,456.489,0.989,1.307
1782115903.459076,1.051000,357771,1000,12,0,1,335.281,-15.455,21.968,455.456,-0.087,1.307
1782115903.460076,1.052000,357772,1000,12,0,1,341.310,-8.152,21.855,454.471,-0.838,1.311
1782115903.461076,1.053000,357773,1000,12,0,1,345.730,-3.274,21.626,454.663,-0.796,1.304
1782115903.462076,1.054000,357774,1000,12,0,1,351.206,1.456,21.555,452.718,-1.652,1.317
1782115903.463076,1.055000,357775,1000,12,0,1,352.287,2.960,21.517,454.063,-1.220,1.327
1782115903.464076,1.056000,357776,1000,12,0,1,351.350,1.058,20.984,455.672,1.382,1.338
1782115903.465076,1.057000,357777,1000,12,0,1,350.029,0.117,20.275,454.231,-0.182,1.311
1782115903.466076,1.058000,357778,1000,12,0,1,348.011,-1.577,19.859,456.273,1.070,1.309
1782115903.467076,1.059000,357779,1000,12,0,1,347.843,-1.357,19.733,455.624,1.293,1.322
1782115903.468076,1.060000,357780,1000,12,0,1,347.051,-0.959,19.710,455.480,-0.030,1.313
1782115903.469076,1.061000,357781,1000,12,0,1,348.084,-0.010,19.677,454.976,0.148,1.308
1782115903.470076,1.062000,357782,1000,12,0,1,348.084,1.102,19.599,455.696,-0.057,1.305
1782115903.471076,1.063000,357783,1000,12,0,1,347.915,0.536,19.502,453.606,-1.047,1.310
1782115903.472076,1.064000,357784,1000,12,0,1,348.084,0.927,19.403,452.646,-2.724,1.248
1782115903.473076,1.065000,357785,1000,12,0,1,346.642,-0.588,19.261,452.285,-2.120,1.231
1782115903.474076,1.066000,357786,1000,12,0,1,343.400,-3.644,19.112,454.783,-0.244,1.227
1782115903.475076,1.067000,357787,1000,12,0,1,340.709,-6.222,19.039,454.063,0.286,1.224
1782115903.476076,1.068000,357788,1000,12,0,1,342.030,-5.177,18.979,454.543,-0.201,1.215
1782115903.477076,1.069000,357789,1000,12,0,1,353.200,3.901,18.920,455.360,1.216,1.227
1782115903.478076,1.070000,357790,1000,12,0,1,362.688,12.350,18.949,454.879,0.613,1.230
1782115903.479076,1.071000,357791,1000,12,0,1,359.037,7.356,18.918,454.639,0.273,1.230
1782115903.480076,1.072000,357792,1000,12,0,1,351.879,-2.000,18.843,455.096,0.811,1.218
1782115903.481076,1.073000,357793,1000,12,0,1,347.147,-6.819,18.769,456.705,1.910,1.181
1782115903.482076,1.074000,357794,1000,12,0,1,337.106,-14.351,18.799,455.048,1.040,1.188
1782115903.483076,1.075000,357795,1000,12,0,1,341.670,-11.218,18.775,455.240,0.027,1.165
1782115903.484076,1.076000,357796,1000,12,0,1,352.984,2.654,18.730,453.294,-0.528,1.167
1782115903.485076,1.077000,357797,1000,12,0,1,361.487,10.031,18.759,453.678,-1.360,1.178
1782115903.486076,1.078000,357798,1000,12,0,1,362.208,10.987,18.621,454.327,0.358,1.177
1782115903.487076,1.079000,357799,1000,12,0,1,363.072,9.231,18.589,453.799,-0.544,1.173
1782115903.488076,1.080000,357800,1000,12,0,1,364.946,10.170,18.591,453.823,-0.381,1.126
1782115903.489076,1.081000,357801,1000,12,0,1,364.538,8.443,18.512,453.799,-0.314,1.118
1782115903.490076,1.082000,357802,1000,12,0,1,364.898,6.880,18.537,453.246,-0.825,1.121
1782115903.491076,1.083000,357803,1000,12,0,1,353.608,-2.236,18.343,454.183,-0.057,1.120
1782115903.492076,1.084000,357804,1000,12,0,1,340.997,-15.444,17.828,453.967,0.030,1.111
1782115903.493076,1.085000,357805,1000,12,0,1,332.374,-20.312,17.325,451.781,-1.827,1.121
1782115903.494076,1.086000,357806,1000,12,0,1,332.158,-19.109,16.116,452.381,-1.634,1.121
1782115903.495076,1.087000,357807,1000,12,0,1,347.579,-3.360,13.216,452.766,-0.364,1.102
1782115903.496076,1.088000,357808,1000,12,0,1,362.904,12.157,10.589,453.654,0.042,1.100
1782115903.497076,1.089000,357809,1000,12,0,1,365.378,12.997,9.617,453.702,0.722,1.104
1782115903.498076,1.090000,357810,1000,12,0,1,362.616,7.243,9.317,453.847,0.427,1.093
1782115903.499076,1.091000,357811,1000,12,0,1,353.921,-1.946,9.252,452.694,-0.082,1.091
1782115903.500076,1.092000,357812,1000,12,0,1,336.986,-17.327,9.569,452.261,-0.799,1.097
1782115903.501076,1.093000,357813,1000,12,0,1,320.700,-30.529,10.429,453.486,0.603,1.090
1782115903.502076,1.094000,357814,1000,12,0,1,307.849,-37.004,11.503,456.297,2.970,1.154
1782115903.503076,1.095000,357815,1000,12,0,1,308.642,-31.592,12.170,454.735,2.054,1.186
1782115903.504076,1.096000,357816,1000,12,0,1,313.950,-18.841,12.307,454.255,0.464,1.188
1782115903.505076,1.097000,357817,1000,12,0,1,328.507,-2.864,12.261,455.840,2.074,1.209
1782115903.506076,1.098000,357818,1000,12,0,1,353.921,22.562,12.611,454.807,1.164,1.180
1782115903.507076,1.099000,357819,1000,12,0,1,372.248,38.762,13.596,453.366,-0.685,1.119
1782115903.508076,1.100000,357820,1000,12,0,1,371.143,34.487,14.229,453.823,-0.269,1.110
1782115903.509076,1.101000,357821,1000,12,0,1,361.343,20.325,14.351,453.342,-0.511,1.113
1782115903.510076,1.102000,357822,1000,12,0,1,352.239,8.777,14.359,454.255,-0.031,1.106
1782115903.511076,1.103000,357823,1000,12,0,1,351.879,5.891,14.375,454.567,0.572,1.104
1782115903.512076,1.104000,357824,1000,12,0,1,352.071,6.114,14.400,454.447,0.111,1.079
1782115903.513076,1.105000,357825,1000,12,0,1,350.582,3.486,14.402,453.823,-0.368,1.066
1782115903.514076,1.106000,357826,1000,12,0,1,353.032,4.418,14.415,452.742,-1.383,1.066
1782115903.515076,1.107000,357827,1000,12,0,1,353.945,5.079,14.433,454.375,-0.208,1.066
1782115903.516076,1.108000,357828,1000,12,0,1,351.494,1.468,14.433,454.447,0.565,1.058
1782115903.517076,1.109000,357829,1000,12,0,1,350.317,-0.566,14.432,454.495,-0.048,1.043
1782115903.518076,1.110000,357830,1000,12,0,1,350.125,-1.348,14.432,453.775,-0.177,1.043
1782115903.519076,1.111000,357831,1000,12,0,1,350.197,-1.724,14.434,454.279,-0.278,1.043
1782115903.520076,1.112000,357832,1000,12,0,1,347.099,-4.405,14.447,453.895,0.012,1.043
1782115903.521076,1.113000,357833,1000,12,0,1,341.045,-9.708,14.512,453.847,-0.451,1.035
1782115903.522076,1.114000,357834,1000,12,0,1,333.263,-15.437,14.674,454.615,0.495,0.963
1782115903.523076,1.115000,357835,1000,12,0,1,326.297,-19.662,14.935,453.054,-0.593,0.919
1782115903.524076,1.116000,357836,1000,12,0,1,335.905,-10.248,14.997,451.204,-2.435,0.981
1782115903.525076,1.117000,357837,1000,12,0,1,356.251,10.549,15.045,452.694,-0.941,0.989
1782115903.526076,1.118000,357838,1000,12,0,1,354.425,11.202,15.110,452.766,-0.136,0.989
1782115903.527076,1.119000,357839,1000,12,0,1,338.163,-5.886,15.123,453.246,-0.056,0.974
1782115903.528076,1.120000,357840,1000,12,0,1,336.602,-8.456,15.070,453.534,0.592,0.973
1782115903.529076,1.121000,357841,1000,12,0,1,340.805,-1.865,15.036,453.847,0.576,0.976
1782115903.530076,1.122000,357842,1000,12,0,1,345.009,2.174,15.036,453.823,0.633,0.973
1782115903.531076,1.123000,357843,1000,12,0,1,343.303,2.301,15.009,454.976,1.243,0.951
1782115903.532076,1.124000,357844,1000,12,0,1,334.176,-5.645,14.893,454.399,0.971,0.950
1782115903.533076,1.125000,357845,1000,12,0,1,329.419,-9.482,14.868,454.495,0.367,0.951
1782115903.534076,1.126000,357846,1000,12,0,1,326.585,-9.184,14.920,455.048,0.978,0.959
1782115903.535076,1.127000,357847,1000,12,0,1,335.953,-0.921,14.853,454.207,0.127,0.939
1782115903.536076,1.128000,357848,1000,12,0,1,354.545,17.236,14.972,454.663,0.088,0.938
1782115903.537076,1.129000,357849,1000,12,0,1,350.606,14.999,15.065,454.015,-0.006,0.935
1782115903.538076,1.130000,357850,1000,12,0,1,342.919,3.116,15.002,455.624,0.619,0.937
1782115903.539076,1.131000,357851,1000,12,0,1,326.513,-9.031,15.009,454.303,0.474,0.939
1782115903.540076,1.132000,357852,1000,12,0,1,336.482,-5.526,14.998,454.783,-0.349,0.933
1782115903.541076,1.133000,357853,1000,12,0,1,366.171,24.313,15.384,453.582,-0.219,0.933
1782115903.542076,1.134000,357854,1000,12,0,1,376.140,31.679,15.873,453.943,-0.899,0.942
1782115903.543076,1.135000,357855,1000,12,0,1,361.895,14.579,15.747,455.024,0.849,0.914
1782115903.544076,1.136000,357856,1000,12,0,1,345.489,-4.573,15.527,453.438,-0.565,0.887
1782115903.545076,1.137000,357857,1000,12,0,1,333.143,-15.948,15.682,455.384,0.426,0.888
1782115903.546076,1.138000,357858,1000,12,0,1,320.676,-24.376,15.965,455.408,1.463,0.912
1782115903.547076,1.139000,357859,1000,12,0,1,306.216,-33.305,16.543,456.657,1.181,0.921
1782115903.548076,1.140000,357860,1000,12,0,1,304.198,-30.681,17.072,455.936,1.424,0.941
1782115903.549076,1.141000,357861,1000,12,0,1,326.345,-6.932,17.098,455.744,-0.097,0.941
1782115903.550076,1.142000,357862,1000,12,0,1,335.977,8.970,16.969,454.639,-0.390,0.936
1782115903.551076,1.143000,357863,1000,12,0,1,339.724,9.433,16.464,453.967,-1.701,0.963
1782115903.552076,1.144000,357864,1000,12,0,1,346.931,16.319,15.780,456.153,0.334,0.867
1782115903.553076,1.145000,357865,1000,12,0,1,357.139,22.061,15.453,455.264,0.118,0.818
1782115903.554076,1.146000,357866,1000,12,0,1,372.056,31.760,15.870,455.096,-0.943,0.826
1782115903.555076,1.147000,357867,1000,12,0,1,374.530,30.585,16.444,455.648,0.147,0.772
1782115903.556076,1.148000,357868,1000,12,0,1,380.199,26.826,16.572,455.888,-0.051,0.754
1782115903.557076,1.149000,357869,1000,12,0,1,380.319,24.036,16.004,456.008,0.276,0.749
1782115903.558076,1.150000,357870,1000,12,0,1,362.424,2.952,15.248,455.912,-0.031,0.748
1782115903.559076,1.151000,357871,1000,12,0,1,338.379,-20.783,15.261,454.783,-0.815,0.754
1782115903.560076,1.152000,357872,1000,12,0,1,321.397,-35.135,16.001,456.969,0.534,0.757
1782115903.561076,1.153000,357873,1000,12,0,1,310.323,-39.713,16.938,455.624,0.415,0.755
1782115903.562076,1.154000,357874,1000,12,0,1,304.534,-38.671,17.778,455.984,-0.521,0.759
1782115903.563076,1.155000,357875,1000,12,0,1,304.366,-31.817,18.332,456.657,0.936,0.768
1782115903.564076,1.156000,357876,1000,12,0,1,313.710,-17.790,18.493,456.897,0.556,0.747
1782115903.565076,1.157000,357877,1000,12,0,1,322.381,-4.364,18.489,457.306,0.953,0.759
1782115903.566076,1.158000,357878,1000,12,0,1,338.379,10.279,18.545,456.369,0.065,0.755
1782115903.567076,1.159000,357879,1000,12,0,1,357.259,27.628,18.952,454.375,-1.907,0.801
1782115903.568076,1.160000,357880,1000,12,0,1,372.441,37.225,19.669,456.056,-0.696,0.807
1782115903.569076,1.161000,357881,1000,12,0,1,380.007,38.570,20.410,457.882,1.368,0.829
1782115903.570076,1.162000,357882,1000,12,0,1,385.916,35.912,21.023,455.528,-0.581,0.833
1782115903.571076,1.163000,357883,1000,12,0,1,386.300,29.839,21.398,455.480,-1.516,0.858
1782115903.572076,1.164000,357884,1000,12,0,1,380.752,18.089,21.440,452.694,-2.678,0.935
1782115903.573076,1.165000,357885,1000,12,0,1,375.323,7.756,21.287,454.615,-2.272,0.985
1782115903.574076,1.166000,357886,1000,12,0,1,368.141,-1.252,21.238,455.120,0.130,0.923
1782115903.575076,1.167000,357887,1000,12,0,1,359.397,-10.858,21.241,456.369,0.018,0.914
1782115903.576076,1.168000,357888,1000,12,0,1,359.205,-11.613,21.246,456.849,1.411,0.935
1782115903.577076,1.169000,357889,1000,12,0,1,359.253,-9.439,21.271,455.888,-0.034,0.935
1782115903.578076,1.170000,357890,1000,12,0,1,356.058,-11.309,21.298,457.161,0.838,0.939
1782115903.579076,1.171000,357891,1000,12,0,1,345.249,-18.154,21.451,458.819,2.493,0.999
1782115903.580076,1.172000,357892,1000,12,0,1,321.252,-35.527,22.029,458.194,1.584,1.020
1782115903.581076,1.173000,357893,1000,12,0,1,299.490,-50.467,23.154,456.177,-0.326,1.006
1782115903.582076,1.174000,357894,1000,12,0,1,310.203,-35.804,23.688,455.768,-1.184,1.011
1782115903.583076,1.175000,357895,1000,12,0,1,345.826,2.991,23.653,456.465,-0.109,1.009
1782115903.584076,1.176000,357896,1000,12,0,1,371.888,29.535,23.984,455.384,-0.932,1.008
1782115903.585076,1.177000,357897,1000,12,0,1,371.071,26.513,24.275,454.423,-1.752,1.038
1782115903.586076,1.178000,357898,1000,12,0,1,363.048,13.030,24.223,455.768,-0.521,1.041
1782115903.587076,1.179000,357899,1000,12,0,1,352.359,1.024,24.130,456.465,0.611,1.044
1782115903.588076,1.180000,357900,1000,12,0,1,347.123,-6.862,24.146,457.330,0.983,1.050
1782115903.589076,1.181000,357901,1000,12,0,1,326.561,-21.463,24.302,456.801,0.783,1.054
1782115903.590076,1.182000,357902,1000,12,0,1,329.492,-22.876,24.504,455.216,-0.999,1.062
1782115903.591076,1.183000,357903,1000,12,0,1,341.670,-4.339,24.269,456.321,-0.281,1.062
1782115903.592076,1.184000,357904,1000,12,0,1,352.960,4.863,23.862,456.537,0.413,1.056
1782115903.593076,1.185000,357905,1000,12,0,1,358.605,11.864,23.832,454.303,-1.709,1.077
1782115903.594076,1.186000,357906,1000,12,0,1,372.032,20.030,23.991,455.216,-1.239,1.088
1782115903.595076,1.187000,357907,1000,12,0,1,394.179,37.377,24.463,456.225,0.333,1.087
1782115903.596076,1.188000,357908,1000,12,0,1,394.564,35.952,24.747,454.135,-1.406,1.086
1782115903.597076,1.189000,357909,1000,12,0,1,382.817,17.585,24.421,453.847,-1.939,1.107
1782115903.598076,1.190000,357910,1000,12,0,1,386.445,16.150,24.141,454.471,-0.718,1.094
1782115903.599076,1.191000,357911,1000,12,0,1,382.745,12.148,24.182,456.465,0.868,1.100
1782115903.600076,1.192000,357912,1000,12,0,1,369.294,-2.721,24.152,456.105,1.224,1.113
1782115903.601076,1.193000,357913,1000,12,0,1,359.061,-12.878,24.184,457.378,1.404,1.104
1782115903.602076,1.194000,357914,1000,12,0,1,354.713,-15.591,24.174,458.290,2.720,1.168
1782115903.603076,1.195000,357915,1000,12,0,1,351.879,-16.158,24.081,456.729,0.862,1.175
1782115903.604076,1.196000,357916,1000,12,0,1,348.300,-17.092,23.781,458.435,1.615,1.189
1782115903.605076,1.197000,357917,1000,12,0,1,348.852,-15.453,23.486,457.978,1.875,1.218
1782115903.606076,1.198000,357918,1000,12,0,1,345.898,-14.986,23.275,456.657,-0.282,1.219
1782115903.607076,1.199000,357919,1000,12,0,1,341.358,-18.374,23.171,457.570,0.602,1.221
1782115903.608076,1.200000,357920,1000,12,0,1,347.051,-12.334,23.233,454.759,-1.431,1.238
1782115903.609076,1.201000,357921,1000,12,0,1,354.521,-3.667,23.052,455.192,-1.954,1.263
1782115903.610076,1.202000,357922,1000,12,0,1,349.116,-7.170,22.533,455.984,-0.118,1.261
1782115903.611076,1.203000,357923,1000,12,0,1,342.247,-14.106,21.913,456.225,-0.370,1.261
1782115903.612076,1.204000,357924,1000,12,0,1,336.866,-16.481,21.347,456.393,0.125,1.259
1782115903.613076,1.205000,357925,1000,12,0,1,337.707,-14.248,20.965,456.897,0.276,1.252
1782115903.614076,1.206000,357926,1000,12,0,1,344.721,-4.862,20.825,455.960,-0.302,1.250
1782115903.615076,1.207000,357927,1000,12,0,1,351.615,3.507,20.821,455.144,-1.318,1.257
1782115903.616076,1.208000,357928,1000,12,0,1,356.827,9.090,20.810,456.008,-0.513,1.259
1782115903.617076,1.209000,357929,1000,12,0,1,354.209,8.114,20.472,456.801,0.450,1.232
1782115903.618076,1.210000,357930,1000,12,0,1,354.953,7.342,19.811,457.306,0.664,1.231
1782115903.619076,1.211000,357931,1000,12,0,1,356.539,10.460,19.103,455.528,-0.572,1.219
1782115903.620076,1.212000,357932,1000,12,0,1,350.774,5.614,18.432,456.201,-0.749,1.220
1782115903.621076,1.213000,357933,1000,12,0,1,337.971,-4.600,17.955,455.552,-0.310,1.202
1782115903.622076,1.214000,357934,1000,12,0,1,322.478,-16.435,17.923,456.825,-0.073,1.141
1782115903.623076,1.215000,357935,1000,12,0,1,313.085,-21.693,18.150,458.843,2.384,1.146
1782115903.624076,1.216000,357936,1000,12,0,1,314.815,-15.883,18.288,456.705,0.433,1.147
1782115903.625076,1.217000,357937,1000,12,0,1,334.296,3.681,18.231,455.888,-0.995,1.156
1782115903.626076,1.218000,357938,1000,12,0,1,367.540,33.709,18.772,458.507,1.491,1.158
1782115903.627076,1.219000,357939,1000,12,0,1,401.457,59.333,20.519,456.657,0.426,1.159
1782115903.628076,1.220000,357940,1000,12,0,1,425.694,71.564,22.823,455.336,-1.588,1.175
1782115903.629076,1.221000,357941,1000,12,0,1,434.582,66.718,24.563,453.847,-2.106,1.160
1782115903.630076,1.222000,357942,1000,12,0,1,420.098,41.637,24.754,455.000,-1.495,1.157
1782115903.631076,1.223000,357943,1000,12,0,1,384.067,-0.431,23.703,456.753,0.870,1.163
1782115903.632076,1.224000,357944,1000,12,0,1,362.952,-27.083,23.470,455.648,-0.025,1.151
1782115903.633076,1.225000,357945,1000,12,0,1,353.728,-32.472,23.911,455.048,-0.922,1.158
1782115903.634076,1.226000,357946,1000,12,0,1,352.696,-31.563,23.963,454.015,-1.299,1.165
1782115903.635076,1.227000,357947,1000,12,0,1,354.377,-24.390,23.918,455.336,-0.631,1.142
1782115903.636076,1.228000,357948,1000,12,0,1,354.065,-20.730,24.026,455.936,0.764,1.145
1782115903.637076,1.229000,357949,1000,12,0,1,358.292,-13.671,24.104,453.991,-1.219,1.154
1782115903.638076,1.230000,357950,1000,12,0,1,362.784,-5.723,24.098,455.408,-0.289,1.147
1782115903.639076,1.231000,357951,1000,12,0,1,365.066,-2.097,23.908,454.952,0.193,1.142
1782115903.640076,1.232000,357952,1000,12,0,1,363.433,-1.628,23.689,454.039,-1.180,1.145
1782115903.641076,1.233000,357953,1000,12,0,1,363.048,-2.279,23.683,453.462,-1.098,1.155
1782115903.642076,1.234000,357954,1000,12,0,1,352.407,-8.919,23.707,454.135,-0.641,1.157
1782115903.643076,1.235000,357955,1000,12,0,1,339.412,-20.936,23.832,454.855,0.545,1.134
1782115903.644076,1.236000,357956,1000,12,0,1,335.977,-21.460,23.857,454.687,0.414,1.122
1782115903.645076,1.237000,357957,1000,12,0,1,342.054,-13.646,23.344,452.718,-1.021,1.130
1782115903.646076,1.238000,357958,1000,12,0,1,348.372,-5.347,22.796,454.928,0.380,1.114
1782115903.647076,1.239000,357959,1000,12,0,1,349.525,-3.465,22.665,454.735,1.413,1.098
1782115903.648076,1.240000,357960,1000,12,0,1,348.900,-4.306,22.558,453.366,-0.520,1.096
1782115903.649076,1.241000,357961,1000,12,0,1,350.846,-2.641,22.496,452.742,-0.647,1.093
1782115903.650076,1.242000,357962,1000,12,0,1,350.870,-2.067,22.494,452.742,-0.593,1.082
1782115903.651076,1.243000,357963,1000,12,0,1,349.357,-3.235,22.425,450.940,-1.602,1.088
1782115903.652076,1.244000,357964,1000,12,0,1,345.441,-5.500,22.330,452.141,-0.872,1.025
1782115903.653076,1.245000,357965,1000,12,0,1,341.790,-7.381,22.237,451.853,-0.047,1.018
1782115903.654076,1.246000,357966,1000,12,0,1,339.796,-6.660,22.125,452.333,-0.148,0.992
1782115903.655076,1.247000,357967,1000,12,0,1,337.154,-5.805,22.033,451.469,-0.131,0.956
1782115903.656076,1.248000,357968,1000,12,0,1,334.272,-5.323,21.943,450.652,-1.171,0.969
1782115903.657076,1.249000,357969,1000,12,0,1,332.758,-3.283,21.794,452.213,0.364,0.967
1782115903.658076,1.250000,357970,1000,12,0,1,331.437,-1.156,21.725,452.766,1.345,0.964
1782115903.659076,1.251000,357971,1000,12,0,1,326.153,-2.331,21.721,451.228,-0.203,0.925
1782115903.660076,1.252000,357972,1000,12,0,1,323.150,-3.039,21.701,452.934,0.953,0.934
1782115903.661076,1.253000,357973,1000,12,0,1,322.934,-0.136,21.610,453.414,1.941,0.972
1782115903.662076,1.254000,357974,1000,12,0,1,321.445,0.637,21.484,453.174,1.198,0.987
1782115903.663076,1.255000,357975,1000,12,0,1,317.986,-0.818,21.389,452.766,0.917,0.994
1782115903.664076,1.256000,357976,1000,12,0,1,316.352,-1.485,21.379,451.925,0.079,0.994
1782115903.665076,1.257000,357977,1000,12,0,1,315.079,-1.330,21.374,452.958,0.757,0.982
1782115903.666076,1.258000,357978,1000,12,0,1,313.950,-1.829,21.337,451.829,0.440,0.981
1782115903.667076,1.259000,357979,1000,12,0,1,309.578,-4.502,21.316,452.405,0.143,0.979
1782115903.668076,1.260000,357980,1000,12,0,1,306.456,-7.015,21.314,453.294,1.656,1.002
1782115903.669076,1.261000,357981,1000,12,0,1,310.323,-2.653,21.266,452.501,0.631,1.003
1782115903.670076,1.262000,357982,1000,12,0,1,316.136,4.012,21.258,449.715,-1.531,1.021
1782115903.671076,1.263000,357983,1000,12,0,1,319.091,7.090,21.272,448.682,-2.705,1.089
1782115903.672076,1.264000,357984,1000,12,0,1,317.193,5.908,21.161,452.405,0.796,1.095
1782115903.673076,1.265000,357985,1000,12,0,1,321.084,8.227,20.970,449.595,-0.228,1.042
1782115903.674076,1.266000,357986,1000,12,0,1,317.505,7.821,20.879,449.042,-2.293,1.090
1782115903.675076,1.267000,357987,1000,12,0,1,311.692,1.681,20.873,450.676,0.494,1.083
1782115903.676076,1.268000,357988,1000,12,0,1,310.131,2.518,20.325,450.724,0.220,1.063
1782115903.677076,1.269000,357989,1000,12,0,1,307.441,2.336,18.515,448.442,-1.325,1.077
1782115903.678076,1.270000,357990,1000,12,0,1,305.471,2.358,15.508,448.874,-1.492,1.075
1782115903.679076,1.271000,357991,1000,12,0,1,308.642,6.870,12.345,448.898,-0.525,1.035
1782115903.680076,1.272000,357992,1000,12,0,1,309.434,9.500,10.933,450.412,0.368,1.015
1782115903.681076,1.273000,357993,1000,12,0,1,304.870,6.070,10.967,449.739,0.583,1.011
1782115903.682076,1.274000,357994,1000,12,0,1,310.371,9.242,10.359,449.595,-0.162,1.011
1782115903.683076,1.275000,357995,1000,12,0,1,316.448,15.759,9.549,449.475,0.239,1.003
1782115903.684076,1.276000,357996,1000,12,0,1,316.761,13.399,8.652,448.202,-0.780,0.992
1782115903.685076,1.277000,357997,1000,12,0,1,316.761,10.873,8.082,448.202,-0.819,0.995
1782115903.686076,1.278000,357998,1000,12,0,1,312.173,4.820,7.563,447.217,-0.843,0.996
1782115903.687076,1.279000,357999,1000,12,0,1,314.887,3.350,7.327,446.256,-1.783,1.013
1782115903.688076,1.280000,358000,1000,12,0,1,317.217,5.268,7.320,446.664,-0.721,1.017
1782115903.689076,1.281000,358001,1000,12,0,1,320.099,4.407,7.340,447.649,0.386,1.018
1782115903.690076,1.282000,358002,1000,12,0,1,322.886,5.896,7.384,448.994,1.886,1.039
1782115903.691076,1.283000,358003,1000,12,0,1,322.261,3.336,7.392,447.721,1.042,1.038
1782115903.692076,1.284000,358004,1000,12,0,1,322.453,1.921,7.289,448.562,1.093,1.046
1782115903.693076,1.285000,358005,1000,12,0,1,318.658,-1.160,6.662,447.673,1.090,1.054
1782115903.694076,1.286000,358006,1000,12,0,1,315.824,-4.498,5.965,447.745,0.276,1.053
1782115903.695076,1.287000,358007,1000,12,0,1,312.653,-5.212,5.692,448.490,1.423,1.063
1782115903.696076,1.288000,358008,1000,12,0,1,310.467,-6.224,5.710,447.313,0.237,1.062
1782115903.697076,1.289000,358009,1000,12,0,1,311.740,-2.839,5.703,447.697,0.167,1.043
1782115903.698076,1.290000,358010,1000,12,0,1,306.576,-4.478,5.705,447.121,0.186,1.041
1782115903.699076,1.291000,358011,1000,12,0,1,299.418,-9.554,5.851,447.817,0.152,1.037
1782115903.700076,1.292000,358012,1000,12,0,1,300.859,-6.393,5.913,449.066,1.721,1.062
1782115903.701076,1.293000,358013,1000,12,0,1,307.056,1.399,5.899,447.697,0.389,1.039
1782115903.702076,1.294000,358014,1000,12,0,1,314.935,8.734,5.977,446.208,-1.128,1.044
1782115903.703076,1.295000,358015,1000,12,0,1,322.453,14.456,6.230,447.097,-0.346,1.045
1782115903.704076,1.296000,358016,1000,12,0,1,319.931,10.803,6.345,448.394,1.157,1.058
1782115903.705076,1.297000,358017,1000,12,0,1,313.013,1.130,6.293,446.208,-0.385,1.059
1782115903.706076,1.298000,358018,1000,12,0,1,307.176,-5.572,6.298,445.800,-1.309,1.062
1782115903.707076,1.299000,358019,1000,12,0,1,297.952,-13.855,6.579,447.962,1.142,1.073
1782115903.708076,1.300000,358020,1000,12,0,1,296.151,-16.150,6.962,446.136,0.096,1.056
1782115903.709076,1.301000,358021,1000,12,0,1,299.802,-10.547,7.113,446.448,-0.431,1.057
1782115903.710076,1.302000,358022,1000,12,0,1,304.414,-5.524,7.143,447.145,1.036,1.059
1782115903.711076,1.303000,358023,1000,12,0,1,308.329,-0.806,7.143,444.166,-1.545,1.046
1782115903.712076,1.304000,358024,1000,12,0,1,310.635,1.615,7.147,445.800,-0.745,1.037
1782115903.713076,1.305000,358025,1000,12,0,1,312.533,3.541,7.163,445.559,0.419,1.031
1782115903.714076,1.306000,358026,1000,12,0,1,306.648,-0.154,7.160,444.262,-1.465,1.052
1782115903.715076,1.307000,358027,1000,12,0,1,303.285,-3.657,7.176,446.448,0.685,1.051
1782115903.716076,1.308000,358028,1000,12,0,1,302.324,-1.660,7.175,446.905,1.510,1.070
1782115903.717076,1.309000,358029,1000,12,0,1,277.054,-18.815,7.626,444.310,-0.967,1.079
1782115903.718076,1.310000,358030,1000,12,0,1,250.295,-40.698,9.503,444.214,-1.408,1.072
1782115903.719076,1.311000,358031,1000,12,0,1,243.546,-38.855,10.971,445.439,0.151,1.068
1782115903.720076,1.312000,358032,1000,12,0,1,257.406,-19.001,11.281,446.088,0.794,1.052
1782115903.721076,1.313000,358033,1000,12,0,1,308.161,28.445,11.935,444.454,-0.398,0.982
1782115903.722076,1.314000,358034,1000,12,0,1,364.826,79.999,16.424,442.653,-2.105,1.020
1782115903.723076,1.315000,358035,1000,12,0,1,399.896,100.392,21.678,445.535,0.315,1.020
1782115903.724076,1.316000,358036,1000,12,0,1,415.149,97.560,25.673,446.232,2.025,1.009
1782115903.725076,1.317000,358037,1000,12,0,1,412.147,76.612,27.864,443.494,-0.789,1.012
1782115903.726076,1.318000,358038,1000,12,0,1,387.309,38.866,28.399,443.277,-1.076,1.023
1782115903.727076,1.319000,358039,1000,12,0,1,353.704,-3.596,28.402,445.632,1.310,1.023
1782115903.728076,1.320000,358040,1000,12,0,1,330.260,-30.629,28.728,444.551,0.996,1.011
1782115903.729076,1.321000,358041,1000,12,0,1,331.461,-31.063,29.046,443.205,-0.733,1.013
1782115903.730076,1.322000,358042,1000,12,0,1,340.589,-19.398,29.144,443.205,-0.355,1.013
1782115903.731076,1.323000,358043,1000,12,0,1,346.690,-12.713,29.187,441.524,-1.405,1.029
1782115903.732076,1.324000,358044,1000,12,0,1,351.783,-7.520,29.177,440.779,-2.109,1.071
1782115903.733076,1.325000,358045,1000,12,0,1,354.929,-4.334,29.098,443.566,0.644,1.075
1782115903.734076,1.326000,358046,1000,12,0,1,356.587,-3.376,29.040,442.341,0.501,1.071
1782115903.735076,1.327000,358047,1000,12,0,1,353.368,-5.844,29.011,443.157,0.167,1.065
1782115903.736076,1.328000,358048,1000,12,0,1,348.444,-10.980,29.045,442.773,0.874,1.066
1782115903.737076,1.329000,358049,1000,12,0,1,332.398,-22.503,29.215,441.548,-0.882,1.043
1782115903.738076,1.330000,358050,1000,12,0,1,321.877,-32.178,29.558,441.908,-0.292,1.039
1782115903.739076,1.331000,358051,1000,12,0,1,322.550,-27.042,29.798,443.374,1.024,1.048
1782115903.740076,1.332000,358052,1000,12,0,1,330.140,-17.600,29.890,443.157,1.071,1.024
1782115903.741076,1.333000,358053,1000,12,0,1,343.808,-3.677,29.891,443.638,1.072,1.025
1782115903.742076,1.334000,358054,1000,12,0,1,354.209,6.002,29.901,442.893,0.704,1.018
1782115903.743076,1.335000,358055,1000,12,0,1,357.812,6.764,29.916,441.596,-0.656,1.011
1782115903.744076,1.336000,358056,1000,12,0,1,361.703,6.784,29.925,441.764,-0.466,1.012
1782115903.745076,1.337000,358057,1000,12,0,1,360.334,3.268,29.919,443.133,1.016,1.002
1782115903.746076,1.338000,358058,1000,12,0,1,356.563,-3.225,29.910,444.599,2.290,1.053
1782115903.747076,1.339000,358059,1000,12,0,1,351.422,-8.727,29.933,445.319,2.891,1.129
1782115903.748076,1.340000,358060,1000,12,0,1,353.296,-8.403,29.950,442.028,0.050,1.129
1782115903.749076,1.341000,358061,1000,12,0,1,358.581,-2.446,29.921,440.803,-1.766,1.156
1782115903.750076,1.342000,358062,1000,12,0,1,363.601,2.016,29.909,442.629,0.332,1.131
1782115903.751076,1.343000,358063,1000,12,0,1,365.811,4.328,29.914,441.860,0.169,1.130
1782115903.752076,1.344000,358064,1000,12,0,1,364.418,2.980,29.892,439.867,-1.806,1.147
1782115903.753076,1.345000,358065,1000,12,0,1,358.773,-1.641,29.823,441.740,-0.257,1.147
1782115903.754076,1.346000,358066,1000,12,0,1,352.816,-6.259,29.797,444.022,2.242,1.178
1782115903.755076,1.347000,358067,1000,12,0,1,350.486,-6.998,29.813,444.022,2.028,1.212
1782115903.756076,1.348000,358068,1000,12,0,1,347.747,-6.899,29.818,443.446,1.028,1.206
1782115903.757076,1.349000,358069,1000,12,0,1,347.051,-6.480,29.768,443.157,0.509,1.198
1782115903.758076,1.350000,358070,1000,12,0,1,344.577,-6.241,29.693,443.205,0.283,1.198
1782115903.759076,1.351000,358071,1000,12,0,1,339.965,-9.592,29.687,441.692,-0.890,1.203
1782115903.760076,1.352000,358072,1000,12,0,1,337.346,-10.720,29.715,441.596,-1.429,1.211
1782115903.761076,1.353000,358073,1000,12,0,1,332.734,-13.038,29.772,442.317,-0.311,1.192
1782115903.762076,1.354000,358074,1000,12,0,1,327.017,-16.942,29.868,442.965,0.177,1.188
1782115903.763076,1.355000,358075,1000,12,0,1,319.499,-21.083,30.012,442.677,0.160,1.186
1782115903.764076,1.356000,358076,1000,12,0,1,318.898,-20.255,30.148,441.020,-1.260,1.182
