Unix_Time_s,EMG_t_s,sample_idx,fs,gain,flags,emg_valid,ch1_raw_uV,ch1_filt_uV,ch1_env_uV,ch2_raw_uV,ch2_filt_uV,ch2_env_uV
1782115902.408076,0.000000,356760,1000,12,0,1,737.963,25.034,27.409,425.670,-3.653,12.736
1782115902.409076,0.001000,356761,1000,12,0,1,737.963,16.038,27.468,425.670,3.170,12.735
1782115902.410076,0.002000,356762,1000,12,0,1,736.666,14.403,27.541,431.603,1.165,12.735
1782115902.411076,0.003000,356763,1000,12,0,1,733.711,4.474,27.539,436.600,7.361,12.777
1782115902.412076,0.004000,356764,1000,12,0,1,735.945,3.597,27.528,440.971,3.544,12.787
1782115902.413076,0.005000,356765,1000,12,0,1,739.693,2.589,27.530,447.169,5.824,12.813
1782115902.414076,0.006000,356766,1000,12,0,1,739.981,0.136,27.509,453.823,5.504,12.835
1782115902.415076,0.007000,356767,1000,12,0,1,732.655,-8.542,27.536,455.096,2.681,12.778
1782115902.416076,0.008000,356768,1000,12,0,1,728.139,-14.702,27.462,455.000,-1.869,12.347
1782115902.417076,0.009000,356769,1000,12,0,1,727.034,-13.866,27.316,455.336,-3.781,11.931
1782115902.418076,0.010000,356770,1000,12,0,1,719.779,-17.557,27.418,456.489,-2.991,11.893
1782115902.419076,0.011000,356771,1000,12,0,1,712.621,-20.590,27.285,457.594,-1.318,11.805
1782115902.420076,0.012000,356772,1000,12,0,1,706.616,-20.287,26.538,459.347,2.683,11.348
1782115902.421076,0.013000,356773,1000,12,0,1,699.650,-20.002,26.219,462.230,7.473,11.000
1782115902.422076,0.014000,356774,1000,12,0,1,689.585,-21.531,26.379,463.695,12.265,11.132
1782115902.423076,0.015000,356775,1000,12,0,1,698.617,-9.136,25.501,449.523,3.912,11.021
1782115902.424076,0.016000,356776,1000,12,0,1,697.921,0.671,24.624,439.770,-3.606,10.978
1782115902.425076,0.017000,356777,1000,12,0,1,672.987,-17.221,24.489,438.762,0.609,10.977
1782115902.426076,0.018000,356778,1000,12,0,1,688.841,-4.759,24.105,430.378,-2.262,10.981
1782115902.427076,0.019000,356779,1000,12,0,1,737.170,43.652,24.442,417.095,-11.699,11.071
1782115902.428076,0.020000,356780,1000,12,0,1,736.642,45.441,25.234,417.864,-9.963,11.158
1782115902.429076,0.021000,356781,1000,12,0,1,712.573,13.260,25.302,430.306,2.703,11.088
1782115902.430076,0.022000,356782,1000,12,0,1,687.832,-10.940,25.343,442.893,12.596,11.221
1782115902.431076,0.023000,356783,1000,12,0,1,674.380,-25.873,25.397,449.763,14.388,11.320
1782115902.432076,0.024000,356784,1000,12,0,1,675.197,-22.473,24.675,454.687,12.083,11.153
1782115902.433076,0.025000,356785,1000,12,0,1,689.201,-8.750,23.827,456.465,7.243,10.910
1782115902.434076,0.026000,356786,1000,12,0,1,715.888,15.064,23.651,455.096,-0.325,10.708
1782115902.435076,0.027000,356787,1000,12,0,1,727.034,25.842,23.825,454.639,-5.937,10.623
1782115902.436076,0.028000,356788,1000,12,0,1,718.771,13.727,23.819,454.207,-9.057,10.623
1782115902.437076,0.029000,356789,1000,12,0,1,707.961,1.646,23.788,452.838,-11.622,10.728
1782115902.438076,0.030000,356790,1000,12,0,1,706.064,-1.353,23.788,450.003,-13.123,10.882
1782115902.439076,0.031000,356791,1000,12,0,1,731.694,20.111,23.916,446.568,-13.738,10.992
1782115902.440076,0.032000,356792,1000,12,0,1,766.211,51.325,24.937,442.581,-12.758,11.042
1782115902.441076,0.033000,356793,1000,12,0,1,768.926,51.671,25.966,441.236,-8.943,11.012
1782115902.442076,0.034000,356794,1000,12,0,1,747.980,25.611,26.115,443.205,-1.208,10.874
1782115902.443076,0.035000,356795,1000,12,0,1,728.571,4.065,26.009,443.758,5.000,10.750
1782115902.444076,0.036000,356796,1000,12,0,1,721.365,-3.661,25.976,436.600,3.822,10.672
1782115902.445076,0.037000,356797,1000,12,0,1,730.493,4.476,25.871,427.400,-0.943,10.602
1782115902.446076,0.038000,356798,1000,12,0,1,735.105,10.501,25.805,423.797,-0.813,10.582
1782115902.447076,0.039000,356799,1000,12,0,1,729.292,3.155,25.776,422.115,0.915,10.578
1782115902.448076,0.040000,356800,1000,12,0,1,731.742,1.815,25.691,422.428,2.014,10.579
1782115902.449076,0.041000,356801,1000,12,0,1,739.621,6.925,25.354,428.265,6.474,10.470
1782115902.450076,0.042000,356802,1000,12,0,1,736.594,1.655,24.066,436.912,11.753,10.217
1782115902.451076,0.043000,356803,1000,12,0,1,722.013,-14.819,22.398,445.007,14.436,9.992
1782115902.452076,0.044000,356804,1000,12,0,1,704.863,-31.987,21.872,451.685,14.230,10.030
1782115902.453076,0.045000,356805,1000,12,0,1,700.491,-36.354,22.278,455.336,10.873,10.145
1782115902.454076,0.046000,356806,1000,12,0,1,691.603,-38.859,22.829,457.666,6.124,9.884
1782115902.455076,0.047000,356807,1000,12,0,1,675.245,-49.903,23.437,458.651,1.667,9.275
1782115902.456076,0.048000,356808,1000,12,0,1,673.203,-46.757,23.676,457.954,-2.996,8.470
1782115902.457076,0.049000,356809,1000,12,0,1,682.235,-30.519,23.194,448.322,-12.359,7.824
1782115902.458076,0.050000,356810,1000,12,0,1,704.310,-6.360,22.940,439.987,-20.322,8.320
1782115902.459076,0.051000,356811,1000,12,0,1,733.904,24.008,23.079,434.390,-20.787,8.812
1782115902.460076,0.052000,356812,1000,12,0,1,751.607,40.060,23.677,432.804,-17.370,9.147
1782115902.461076,0.053000,356813,1000,12,0,1,742.047,30.063,24.047,436.119,-7.851,9.155
1782115902.462076,0.054000,356814,1000,12,0,1,723.094,8.878,24.074,437.873,0.305,9.141
1782115902.463076,0.055000,356815,1000,12,0,1,715.312,1.235,24.072,434.005,2.349,9.110
1782115902.464076,0.056000,356816,1000,12,0,1,721.917,8.149,24.100,425.838,-0.018,9.077
1782115902.465076,0.057000,356817,1000,12,0,1,720.884,10.603,24.116,418.872,-2.334,9.075
1782115902.466076,0.058000,356818,1000,12,0,1,714.927,4.446,24.035,413.372,-2.894,9.080
1782115902.467076,0.059000,356819,1000,12,0,1,716.681,5.874,23.969,414.573,0.061,9.065
1782115902.468076,0.060000,356820,1000,12,0,1,724.752,12.700,23.907,422.476,8.500,9.134
1782115902.469076,0.061000,356821,1000,12,0,1,734.312,19.110,23.883,431.075,14.813,9.369
1782115902.470076,0.062000,356822,1000,12,0,1,738.660,19.927,23.877,438.858,17.782,9.694
1782115902.471076,0.063000,356823,1000,12,0,1,736.138,12.690,23.776,444.190,16.962,9.930
1782115902.472076,0.064000,356824,1000,12,0,1,731.117,3.600,23.586,454.567,18.168,10.109
1782115902.473076,0.065000,356825,1000,12,0,1,728.883,-2.647,23.554,462.518,18.949,10.444
1782115902.474076,0.066000,356826,1000,12,0,1,727.754,-5.894,23.568,460.020,9.324,10.514
1782115902.475076,0.067000,356827,1000,12,0,1,733.663,-3.863,23.448,461.269,2.835,10.522
1782115902.476076,0.068000,356828,1000,12,0,1,739.621,0.811,23.439,460.380,-0.726,10.517
1782115902.477076,0.069000,356829,1000,12,0,1,736.738,-3.276,22.616,457.810,-6.331,10.425
1782115902.478076,0.070000,356830,1000,12,0,1,732.606,-8.514,21.717,455.288,-8.112,10.393
1782115902.479076,0.071000,356831,1000,12,0,1,728.379,-11.292,21.695,450.532,-10.588,10.493
1782115902.480076,0.072000,356832,1000,12,0,1,715.167,-20.140,21.827,450.796,-7.725,10.398
1782115902.481076,0.073000,356833,1000,12,0,1,704.070,-27.325,21.862,452.622,-1.141,10.198
1782115902.482076,0.074000,356834,1000,12,0,1,694.101,-29.252,22.022,452.333,2.487,10.060
1782115902.483076,0.075000,356835,1000,12,0,1,680.241,-34.282,22.515,449.139,3.773,10.022
1782115902.484076,0.076000,356836,1000,12,0,1,682.523,-26.513,22.726,440.635,-0.202,10.022
1782115902.485076,0.077000,356837,1000,12,0,1,724.295,14.588,22.524,420.218,-13.660,10.172
1782115902.486076,0.078000,356838,1000,12,0,1,746.587,42.185,23.220,410.729,-20.575,10.502
1782115902.487076,0.079000,356839,1000,12,0,1,732.486,24.866,23.484,414.309,-11.881,10.508
1782115902.488076,0.080000,356840,1000,12,0,1,713.870,3.764,23.489,425.646,-0.207,10.343
1782115902.489076,0.081000,356841,1000,12,0,1,690.907,-16.475,23.432,441.164,13.305,10.332
1782115902.490076,0.082000,356842,1000,12,0,1,673.852,-31.749,22.728,450.075,18.092,10.490
1782115902.491076,0.083000,356843,1000,12,0,1,685.262,-19.556,21.698,453.462,14.362,10.609
1782115902.492076,0.084000,356844,1000,12,0,1,690.546,-8.054,21.424,457.906,11.271,10.727
1782115902.493076,0.085000,356845,1000,12,0,1,713.270,7.688,21.444,463.335,9.069,10.780
1782115902.494076,0.086000,356846,1000,12,0,1,737.074,31.468,21.894,461.797,2.487,10.773
1782115902.495076,0.087000,356847,1000,12,0,1,735.969,25.806,22.187,467.370,0.244,10.772
1782115902.496076,0.088000,356848,1000,12,0,1,724.800,10.160,22.184,474.120,4.393,10.789
1782115902.497076,0.089000,356849,1000,12,0,1,742.743,18.880,22.340,468.835,-2.464,10.794
1782115902.498076,0.090000,356850,1000,12,0,1,767.364,39.963,23.042,454.087,-15.637,11.014
1782115902.499076,0.091000,356851,1000,12,0,1,760.158,30.313,23.417,444.647,-22.307,11.421
1782115902.500076,0.092000,356852,1000,12,0,1,753.192,14.809,23.509,442.149,-18.624,11.602
1782115902.501076,0.093000,356853,1000,12,0,1,754.465,14.913,23.511,445.367,-9.615,11.502
1782115902.502076,0.094000,356854,1000,12,0,1,764.338,19.015,23.228,439.410,-6.779,11.365
1782115902.503076,0.095000,356855,1000,12,0,1,759.750,16.509,22.771,430.715,-9.820,11.345
1782115902.504076,0.096000,356856,1000,12,0,1,741.662,-3.494,22.104,428.144,-6.212,11.346
1782115902.505076,0.097000,356857,1000,12,0,1,721.509,-20.217,21.141,425.598,-2.821,11.351
1782115902.506076,0.098000,356858,1000,12,0,1,710.604,-28.535,20.482,422.115,-2.610,11.349
1782115902.507076,0.099000,356859,1000,12,0,1,725.208,-13.422,20.112,417.191,-4.109,11.229
1782115902.508076,0.100000,356860,1000,12,0,1,732.751,-0.516,20.092,418.752,-2.990,10.863
1782115902.509076,0.101000,356861,1000,12,0,1,735.369,-1.273,19.804,423.316,1.693,10.460
1782115902.510076,0.102000,356862,1000,12,0,1,735.417,-0.622,18.976,429.538,4.248,10.186
1782115902.511076,0.103000,356863,1000,12,0,1,726.361,-10.981,18.559,437.561,7.997,10.188
1782115902.512076,0.104000,356864,1000,12,0,1,722.614,-16.539,18.664,443.614,8.557,10.259
1782115902.513076,0.105000,356865,1000,12,0,1,715.288,-21.516,18.909,457.810,14.122,10.447
1782115902.514076,0.106000,356866,1000,12,0,1,717.714,-21.487,19.117,462.134,14.659,10.650
1782115902.515076,0.107000,356867,1000,12,0,1,725.448,-11.649,19.129,460.933,5.993,10.679
1782115902.516076,0.108000,356868,1000,12,0,1,733.663,-5.126,19.133,456.369,-0.365,10.671
1782115902.517076,0.109000,356869,1000,12,0,1,745.554,5.248,19.129,448.010,-9.662,10.758
1782115902.518076,0.110000,356870,1000,12,0,1,740.990,2.481,19.048,445.511,-11.053,10.805
1782115902.519076,0.111000,356871,1000,12,0,1,721.004,-15.989,18.990,448.394,-4.861,10.622
1782115902.520076,0.112000,356872,1000,12,0,1,715.672,-20.194,18.996,449.355,0.298,10.320
1782115902.521076,0.113000,356873,1000,12,0,1,710.051,-17.776,19.077,448.874,3.947,10.053
1782115902.522076,0.114000,356874,1000,12,0,1,714.447,-11.554,19.140,446.256,5.766,9.753
1782115902.523076,0.115000,356875,1000,12,0,1,709.619,-6.647,19.160,445.439,8.236,9.450
1782115902.524076,0.116000,356876,1000,12,0,1,696.960,-15.131,19.261,442.509,9.144,9.446
1782115902.525076,0.117000,356877,1000,12,0,1,706.160,-3.727,19.260,432.877,2.997,9.447
1782115902.526076,0.118000,356878,1000,12,0,1,717.089,12.559,19.342,427.472,-1.454,9.449
1782115902.527076,0.119000,356879,1000,12,0,1,709.715,7.686,19.367,428.937,1.096,9.408
1782115902.528076,0.120000,356880,1000,12,0,1,714.951,9.724,19.378,427.976,0.313,9.338
1782115902.529076,0.121000,356881,1000,12,0,1,739.332,30.257,19.780,428.673,-1.557,9.219
1782115902.530076,0.122000,356882,1000,12,0,1,750.694,38.614,20.322,433.093,-0.288,9.154
1782115902.531076,0.123000,356883,1000,12,0,1,737.170,20.256,20.156,440.443,2.155,9.158
1782115902.532076,0.124000,356884,1000,12,0,1,713.486,-6.472,19.748,448.874,5.039,9.179
1782115902.533076,0.125000,356885,1000,12,0,1,704.190,-18.978,19.331,457.570,7.216,9.220
1782115902.534076,0.126000,356886,1000,12,0,1,718.146,-6.960,18.989,458.891,3.936,9.237
1782115902.535076,0.127000,356887,1000,12,0,1,730.228,5.417,18.892,458.314,-1.946,9.037
1782115902.536076,0.128000,356888,1000,12,0,1,722.013,-2.273,17.928,458.891,-3.765,8.572
1782115902.537076,0.129000,356889,1000,12,0,1,714.159,-11.847,17.660,459.323,-4.388,8.429
1782115902.538076,0.130000,356890,1000,12,0,1,715.384,-9.208,17.700,463.071,-0.922,8.430
1782115902.539076,0.131000,356891,1000,12,0,1,702.388,-16.037,17.692,472.895,8.900,8.313
1782115902.540076,0.132000,356892,1000,12,0,1,703.133,-15.943,17.260,476.402,14.542,8.172
1782115902.541076,0.133000,356893,1000,12,0,1,690.979,-16.191,17.190,476.834,14.993,8.195
1782115902.542076,0.134000,356894,1000,12,0,1,654.179,-43.926,18.243,479.405,18.277,8.444
1782115902.543076,0.135000,356895,1000,12,0,1,657.638,-37.317,18.960,466.529,9.769,8.459
1782115902.544076,0.136000,356896,1000,12,0,1,700.587,11.495,18.502,443.518,-10.224,8.575
1782115902.545076,0.137000,356897,1000,12,0,1,717.065,33.962,18.763,428.024,-21.056,9.077
1782115902.546076,0.138000,356898,1000,12,0,1,733.928,42.104,19.633,415.630,-26.512,9.801
1782115902.547076,0.139000,356899,1000,12,0,1,750.598,54.978,20.947,413.732,-24.781,10.403
1782115902.548076,0.140000,356900,1000,12,0,1,740.389,39.406,20.926,420.506,-14.323,10.365
1782115902.549076,0.141000,356901,1000,12,0,1,718.434,11.605,20.548,422.307,-10.526,9.985
1782115902.550076,0.142000,356902,1000,12,0,1,713.006,0.717,20.441,425.742,-9.083,9.717
1782115902.551076,0.143000,356903,1000,12,0,1,729.340,11.638,20.398,425.070,-9.894,9.722
1782115902.552076,0.144000,356904,1000,12,0,1,732.414,14.519,20.324,430.498,-9.447,9.767
1782115902.553076,0.145000,356905,1000,12,0,1,710.459,-9.112,20.231,448.178,3.704,9.682
1782115902.554076,0.146000,356906,1000,12,0,1,713.558,-12.493,20.302,456.585,9.052,9.726
1782115902.555076,0.147000,356907,1000,12,0,1,741.662,13.203,20.186,458.675,5.371,9.748
1782115902.556076,0.148000,356908,1000,12,0,1,756.627,25.688,20.109,460.452,4.152,9.759
1782115902.557076,0.149000,356909,1000,12,0,1,757.156,20.555,20.229,460.452,2.185,9.746
1782115902.558076,0.150000,356910,1000,12,0,1,756.123,14.659,20.335,465.112,5.474,9.768
1782115902.559076,0.151000,356911,1000,12,0,1,756.411,11.008,20.394,468.787,10.399,9.875
1782115902.560076,0.152000,356912,1000,12,0,1,753.072,6.117,20.412,466.385,9.768,9.953
1782115902.561076,0.153000,356913,1000,12,0,1,740.029,-6.254,20.372,466.578,11.257,10.016
1782115902.562076,0.154000,356914,1000,12,0,1,720.404,-22.883,20.495,471.069,17.703,10.253
1782115902.563076,0.155000,356915,1000,12,0,1,728.043,-16.945,20.409,460.668,12.464,10.210
1782115902.564076,0.156000,356916,1000,12,0,1,740.221,0.673,20.181,444.767,-1.211,9.998
1782115902.565076,0.157000,356917,1000,12,0,1,740.918,1.228,20.115,438.906,-3.834,9.977
1782115902.566076,0.158000,356918,1000,12,0,1,738.972,-0.616,20.102,438.545,-1.040,9.978
1782115902.567076,0.159000,356919,1000,12,0,1,756.627,11.205,20.151,434.486,-2.544,9.891
1782115902.568076,0.160000,356920,1000,12,0,1,759.317,15.618,20.268,433.069,-4.518,9.787
1782115902.569076,0.161000,356921,1000,12,0,1,756.027,5.000,20.154,437.032,-2.000,9.767
1782115902.570076,0.162000,356922,1000,12,0,1,753.048,0.311,19.951,443.806,1.352,9.769
1782115902.571076,0.163000,356923,1000,12,0,1,751.343,-5.521,19.807,450.340,3.112,9.763
1782115902.572076,0.164000,356924,1000,12,0,1,748.460,-9.768,19.788,457.330,3.855,9.744
1782115902.573076,0.165000,356925,1000,12,0,1,749.277,-11.386,19.831,462.278,2.810,9.682
1782115902.574076,0.166000,356926,1000,12,0,1,745.097,-14.838,19.827,465.160,-0.199,9.596
1782115902.575076,0.167000,356927,1000,12,0,1,739.572,-20.222,20.025,467.538,-2.633,9.594
1782115902.576076,0.168000,356928,1000,12,0,1,732.510,-24.515,20.245,468.043,-4.903,9.616
1782115902.577076,0.169000,356929,1000,12,0,1,728.091,-25.829,20.543,468.523,-6.122,9.654
1782115902.578076,0.170000,356930,1000,12,0,1,720.572,-27.474,20.862,471.790,-2.957,9.663
1782115902.579076,0.171000,356931,1000,12,0,1,717.666,-25.889,20.744,472.559,-0.153,9.661
1782115902.580076,0.172000,356932,1000,12,0,1,729.099,-11.219,20.075,470.349,0.244,9.661
1782115902.581076,0.173000,356933,1000,12,0,1,736.017,1.369,19.871,468.499,1.844,9.659
1782115902.582076,0.174000,356934,1000,12,0,1,747.235,10.851,19.909,462.518,1.140,9.634
1782115902.583076,0.175000,356935,1000,12,0,1,755.186,20.802,19.945,450.820,-4.844,9.605
1782115902.584076,0.176000,356936,1000,12,0,1,761.768,23.144,20.188,441.044,-9.134,9.675
1782115902.585076,0.177000,356937,1000,12,0,1,760.398,21.428,20.400,434.918,-9.349,9.761
1782115902.586076,0.178000,356938,1000,12,0,1,753.961,11.428,20.461,434.846,-5.671,9.779
1782115902.587076,0.179000,356939,1000,12,0,1,748.364,4.469,20.402,437.849,0.056,9.760
1782115902.588076,0.180000,356940,1000,12,0,1,750.550,3.732,20.368,439.770,2.270,9.764
1782115902.589076,0.181000,356941,1000,12,0,1,755.546,7.054,20.266,448.970,7.616,9.742
1782115902.590076,0.182000,356942,1000,12,0,1,754.754,4.705,20.151,453.174,9.454,9.616
1782115902.591076,0.183000,356943,1000,12,0,1,744.977,-5.910,20.038,459.035,7.352,9.437
1782115902.592076,0.184000,356944,1000,12,0,1,734.120,-16.745,19.197,464.872,7.852,9.144
1782115902.593076,0.185000,356945,1000,12,0,1,730.781,-19.617,18.665,471.189,6.024,9.079
1782115902.594076,0.186000,356946,1000,12,0,1,730.685,-16.959,18.748,472.006,2.129,8.968
1782115902.595076,0.187000,356947,1000,12,0,1,728.091,-17.005,18.281,472.943,-3.031,8.470
1782115902.596076,0.188000,356948,1000,12,0,1,731.261,-12.483,17.374,471.238,-6.401,7.649
1782115902.597076,0.189000,356949,1000,12,0,1,732.943,-7.459,15.573,467.298,-11.207,6.981
1782115902.598076,0.190000,356950,1000,12,0,1,736.089,-3.722,14.551,459.467,-16.016,7.054
1782115902.599076,0.191000,356951,1000,12,0,1,737.699,0.371,14.459,453.150,-18.326,7.366
1782115902.600076,0.192000,356952,1000,12,0,1,731.381,-3.476,14.467,452.285,-13.530,7.502
1782115902.601076,0.193000,356953,1000,12,0,1,726.001,-7.173,14.408,452.381,-6.386,7.425
1782115902.602076,0.194000,356954,1000,12,0,1,720.380,-8.617,14.313,451.204,-1.435,7.307
1782115902.603076,0.195000,356955,1000,12,0,1,710.267,-14.263,14.397,451.565,4.411,7.315
1782115902.604076,0.196000,356956,1000,12,0,1,702.148,-17.721,14.506,455.168,11.427,7.381
1782115902.605076,0.197000,356957,1000,12,0,1,706.352,-10.527,14.463,457.017,16.136,7.688
1782115902.606076,0.198000,356958,1000,12,0,1,726.145,9.963,14.070,453.390,13.361,7.895
1782115902.607076,0.199000,356959,1000,12,0,1,747.956,30.517,14.427,452.117,10.565,8.029
1782115902.608076,0.200000,356960,1000,12,0,1,748.820,30.176,14.901,462.686,16.583,8.329
1782115902.609076,0.201000,356961,1000,12,0,1,751.967,25.096,15.239,472.126,21.873,8.762
1782115902.610076,0.202000,356962,1000,12,0,1,759.029,28.207,15.728,479.693,20.776,9.138
1782115902.611076,0.203000,356963,1000,12,0,1,743.704,11.559,15.788,487.836,20.169,9.439
1782115902.612076,0.204000,356964,1000,12,0,1,728.643,-7.920,15.494,498.093,19.711,9.519
1782115902.613076,0.205000,356965,1000,12,0,1,718.867,-15.370,15.461,513.154,23.316,9.918
1782115902.614076,0.206000,356966,1000,12,0,1,715.888,-18.017,15.669,524.131,24.230,10.492
1782115902.615076,0.207000,356967,1000,12,0,1,714.135,-15.415,15.819,535.181,23.228,10.981
1782115902.616076,0.208000,356968,1000,12,0,1,720.764,-8.706,15.867,532.851,15.122,11.186
1782115902.617076,0.209000,356969,1000,12,0,1,739.789,10.182,15.853,508.373,-12.162,11.312
1782115902.618076,0.210000,356970,1000,12,0,1,746.995,18.545,15.916,486.491,-34.194,12.286
1782115902.619076,0.211000,356971,1000,12,0,1,729.772,2.477,15.904,493.817,-25.874,12.816
1782115902.620076,0.212000,356972,1000,12,0,1,718.242,-10.379,15.971,509.502,-4.439,12.830
1782115902.621076,0.213000,356973,1000,12,0,1,725.448,-2.499,15.956,513.322,3.243,12.830
1782115902.622076,0.214000,356974,1000,12,0,1,735.921,9.165,15.949,498.333,-5.824,12.845
1782115902.623076,0.215000,356975,1000,12,0,1,758.885,26.495,16.304,465.136,-30.583,13.548
1782115902.624076,0.216000,356976,1000,12,0,1,782.281,45.693,17.412,442.773,-45.979,15.028
1782115902.625076,0.217000,356977,1000,12,0,1,779.327,37.855,17.990,441.428,-37.691,15.941
1782115902.626076,0.218000,356978,1000,12,0,1,748.148,4.263,17.664,456.201,-17.423,16.115
1782115902.627076,0.219000,356979,1000,12,0,1,719.131,-26.676,17.689,461.341,-5.500,16.111
1782115902.628076,0.220000,356980,1000,12,0,1,727.034,-21.049,17.512,437.609,-23.708,16.450
1782115902.629076,0.221000,356981,1000,12,0,1,736.330,-6.236,17.147,423.196,-38.377,17.323
1782115902.630076,0.222000,356982,1000,12,0,1,741.230,-3.639,17.081,430.883,-27.991,17.769
1782115902.631076,0.223000,356983,1000,12,0,1,756.147,9.062,17.128,439.602,-17.531,17.939
1782115902.632076,0.224000,356984,1000,12,0,1,763.353,14.811,17.188,460.452,-1.472,17.940
1782115902.633076,0.225000,356985,1000,12,0,1,764.001,10.953,17.005,478.131,14.220,18.039
1782115902.634076,0.226000,356986,1000,12,0,1,758.669,4.108,16.697,480.870,11.842,18.071
1782115902.635076,0.227000,356987,1000,12,0,1,754.754,-3.110,16.425,476.066,3.578,18.029
1782115902.636076,0.228000,356988,1000,12,0,1,748.508,-8.155,16.386,474.793,-0.584,18.012
1782115902.637076,0.229000,356989,1000,12,0,1,738.732,-17.128,16.552,474.648,0.073,18.012
1782115902.638076,0.230000,356990,1000,12,0,1,740.317,-15.243,16.684,466.433,-4.424,18.020
1782115902.639076,0.231000,356991,1000,12,0,1,750.550,-3.641,16.662,450.243,-14.503,18.104
1782115902.640076,0.232000,356992,1000,12,0,1,747.499,-3.467,16.656,445.271,-13.800,18.160
1782115902.641076,0.233000,356993,1000,12,0,1,731.261,-17.114,16.810,448.058,-2.255,18.133
1782115902.642076,0.234000,356994,1000,12,0,1,721.053,-24.807,17.008,448.322,5.654,18.116
1782115902.643076,0.235000,356995,1000,12,0,1,723.671,-18.618,16.986,446.256,9.829,18.150
1782115902.644076,0.236000,356996,1000,12,0,1,739.693,-1.684,16.817,443.085,11.872,18.225
1782115902.645076,0.237000,356997,1000,12,0,1,753.144,13.225,16.749,437.633,10.409,18.279
1782115902.646076,0.238000,356998,1000,12,0,1,760.446,17.684,16.842,432.973,8.089,18.292
1782115902.647076,0.239000,356999,1000,12,0,1,762.632,17.423,16.989,430.787,6.764,18.249
1782115902.648076,0.240000,357000,1000,12,0,1,761.720,12.878,17.078,430.571,5.978,18.127
1782115902.649076,0.241000,357001,1000,12,0,1,752.760,3.069,17.084,435.567,7.643,17.974
1782115902.650076,0.242000,357002,1000,12,0,1,737.266,-12.403,17.166,449.979,16.036,18.015
1782115902.651076,0.243000,357003,1000,12,0,1,725.568,-22.611,17.432,462.542,22.181,18.263
1782115902.652076,0.244000,357004,1000,12,0,1,710.628,-31.345,17.946,475.994,25.071,18.603
1782115902.653076,0.245000,357005,1000,12,0,1,691.315,-43.635,18.869,491.007,29.846,19.066
1782115902.654076,0.246000,357006,1000,12,0,1,670.921,-53.369,20.168,505.347,32.641,19.550
1782115902.655076,0.247000,357007,1000,12,0,1,684.517,-36.439,20.763,504.530,24.470,19.722
1782115902.656076,0.248000,357008,1000,12,0,1,702.316,-7.426,20.741,490.838,4.435,19.642
1782115902.657076,0.249000,357009,1000,12,0,1,698.978,-5.715,20.303,488.388,-3.112,19.590
1782115902.658076,0.250000,357010,1000,12,0,1,708.706,3.335,19.855,488.172,-1.692,19.450
1782115902.659076,0.251000,357011,1000,12,0,1,760.062,47.309,20.650,472.583,-12.803,19.288
1782115902.660076,0.252000,357012,1000,12,0,1,780.864,68.994,22.488,462.254,-19.534,19.262
1782115902.661076,0.253000,357013,1000,12,0,1,777.309,52.343,23.618,459.011,-14.741,19.163
1782115902.662076,0.254000,357014,1000,12,0,1,775.123,42.402,24.342,455.048,-11.203,19.026
1782115902.663076,0.255000,357015,1000,12,0,1,778.222,36.103,24.776,453.654,-6.177,18.758
1782115902.664076,0.256000,357016,1000,12,0,1,775.243,27.988,24.961,453.222,-0.865,18.443
1782115902.665076,0.257000,357017,1000,12,0,1,751.391,3.147,24.869,455.816,4.243,18.158
1782115902.666076,0.258000,357018,1000,12,0,1,734.672,-17.428,24.961,466.145,14.069,18.141
1782115902.667076,0.259000,357019,1000,12,0,1,742.911,-8.997,24.952,471.742,18.329,18.244
1782115902.668076,0.260000,357020,1000,12,0,1,742.551,-5.503,24.826,485.794,23.518,17.903
1782115902.669076,0.261000,357021,1000,12,0,1,729.748,-16.205,24.929,504.578,33.932,18.171
1782115902.670076,0.262000,357022,1000,12,0,1,736.378,-11.388,24.938,505.707,26.118,18.532
1782115902.671076,0.263000,357023,1000,12,0,1,751.463,5.746,24.948,500.831,9.421,18.574
1782115902.672076,0.264000,357024,1000,12,0,1,758.573,11.183,24.965,504.338,2.919,18.560
1782115902.673076,0.265000,357025,1000,12,0,1,764.122,13.470,24.755,513.946,3.397,18.056
1782115902.674076,0.266000,357026,1000,12,0,1,769.959,15.285,23.995,517.862,1.186,16.845
1782115902.675076,0.267000,357027,1000,12,0,1,782.930,21.411,23.585,517.117,-5.561,15.999
1782115902.676076,0.268000,357028,1000,12,0,1,767.172,7.525,23.601,524.828,-3.084,15.814
1782115902.677076,0.269000,357029,1000,12,0,1,713.606,-42.816,24.072,553.652,18.467,16.009
1782115902.678076,0.270000,357030,1000,12,0,1,683.460,-70.676,25.894,548.944,18.037,15.860
1782115902.679076,0.271000,357031,1000,12,0,1,696.864,-50.120,26.832,512.913,-18.251,15.125
1782115902.680076,0.272000,357032,1000,12,0,1,749.229,1.832,26.828,471.189,-50.439,16.247
1782115902.681076,0.273000,357033,1000,12,0,1,810.121,59.094,28.071,430.378,-76.389,19.353
1782115902.682076,0.274000,357034,1000,12,0,1,811.755,59.243,29.219,419.641,-73.492,21.966
1782115902.683076,0.275000,357035,1000,12,0,1,771.520,11.299,29.222,432.973,-43.280,22.714
1782115902.684076,0.276000,357036,1000,12,0,1,736.330,-25.291,29.434,452.285,-13.718,22.735
1782115902.685076,0.277000,357037,1000,12,0,1,729.003,-32.284,29.783,470.349,10.505,22.778
1782115902.686076,0.278000,357038,1000,12,0,1,745.409,-13.137,29.819,478.107,19.599,22.946
1782115902.687076,0.279000,357039,1000,12,0,1,768.517,10.525,29.757,472.270,13.113,23.021
1782115902.688076,0.280000,357040,1000,12,0,1,775.483,18.211,29.791,465.425,2.361,23.015
1782115902.689076,0.281000,357041,1000,12,0,1,763.017,5.234,29.795,470.589,2.375,22.925
1782115902.690076,0.282000,357042,1000,12,0,1,748.412,-9.873,29.824,475.561,3.708,22.848
1782115902.691076,0.283000,357043,1000,12,0,1,734.744,-20.034,29.860,482.551,3.346,22.851
1782115902.692076,0.284000,357044,1000,12,0,1,736.546,-18.043,29.763,484.113,1.135,22.837
1782115902.693076,0.285000,357045,1000,12,0,1,750.262,-1.855,29.648,482.743,-5.862,22.810
1782115902.694076,0.286000,357046,1000,12,0,1,757.252,5.939,29.659,477.219,-12.278,22.815
1782115902.695076,0.287000,357047,1000,12,0,1,764.914,10.584,29.637,474.937,-15.949,22.878
1782115902.696076,0.288000,357048,1000,12,0,1,770.415,14.309,29.601,473.568,-14.061,22.936
1782115902.697076,0.289000,357049,1000,12,0,1,760.110,3.355,29.502,478.516,-7.253,22.939
1782115902.698076,0.290000,357050,1000,12,0,1,746.466,-11.778,29.493,487.331,5.648,22.937
1782115902.699076,0.291000,357051,1000,12,0,1,758.405,-3.914,29.495,471.189,-0.958,22.912
1782115902.700076,0.292000,357052,1000,12,0,1,780.384,17.079,29.542,444.575,-20.876,22.990
1782115902.701076,0.293000,357053,1000,12,0,1,800.297,30.681,29.687,427.952,-26.251,23.076
1782115902.702076,0.294000,357054,1000,12,0,1,797.078,25.568,29.576,428.144,-16.768,22.925
1782115902.703076,0.295000,357055,1000,12,0,1,771.016,-3.236,28.929,427.088,-5.545,22.547
1782115902.704076,0.296000,357056,1000,12,0,1,756.459,-20.082,28.071,419.497,-5.446,22.082
1782115902.705076,0.297000,357057,1000,12,0,1,746.514,-24.708,27.814,419.233,-0.860,21.810
1782115902.706076,0.298000,357058,1000,12,0,1,732.871,-33.412,28.193,426.967,9.516,21.842
1782115902.707076,0.299000,357059,1000,12,0,1,726.842,-33.448,28.576,429.922,13.336,21.919
1782115902.708076,0.300000,357060,1000,12,0,1,720.668,-31.230,28.911,439.482,17.608,22.059
1782115902.709076,0.301000,357061,1000,12,0,1,711.012,-32.958,28.510,454.567,26.814,22.309
1782115902.710076,0.302000,357062,1000,12,0,1,716.993,-22.696,26.980,459.780,25.188,22.422
1782115902.711076,0.303000,357063,1000,12,0,1,727.370,-5.838,25.957,460.620,16.697,22.450
1782115902.712076,0.304000,357064,1000,12,0,1,730.421,0.127,25.255,462.782,11.358,22.451
1782115902.713076,0.305000,357065,1000,12,0,1,734.648,4.865,24.743,465.184,7.010,22.456
1782115902.714076,0.306000,357066,1000,12,0,1,722.085,-2.782,24.428,472.871,8.567,22.488
1782115902.715076,0.307000,357067,1000,12,0,1,694.750,-26.446,24.709,476.066,9.204,22.518
1782115902.716076,0.308000,357068,1000,12,0,1,687.448,-31.201,24.978,473.880,4.852,22.440
1782115902.717076,0.309000,357069,1000,12,0,1,743.344,17.797,25.072,458.146,-6.889,22.311
1782115902.718076,0.310000,357070,1000,12,0,1,769.022,51.293,26.089,451.901,-12.194,22.129
1782115902.719076,0.311000,357071,1000,12,0,1,732.799,12.097,26.044,461.509,2.691,21.606
1782115902.720076,0.312000,357072,1000,12,0,1,737.459,4.955,26.004,455.816,5.605,21.303
1782115902.721076,0.313000,357073,1000,12,0,1,782.065,45.887,26.789,438.593,-5.758,21.277
1782115902.722076,0.314000,357074,1000,12,0,1,790.160,51.951,27.733,432.084,-6.318,21.292
1782115902.723076,0.315000,357075,1000,12,0,1,786.557,37.098,28.161,428.817,-2.165,21.288
1782115902.724076,0.316000,357076,1000,12,0,1,778.150,25.679,28.312,424.421,-1.491,21.289
1782115902.725076,0.317000,357077,1000,12,0,1,769.094,11.268,28.194,424.469,1.177,21.275
1782115902.726076,0.318000,357078,1000,12,0,1,766.235,6.790,28.191,428.265,5.774,21.286
1782115902.727076,0.319000,357079,1000,12,0,1,765.275,5.053,27.542,428.961,5.593,21.140
1782115902.728076,0.320000,357080,1000,12,0,1,751.703,-5.775,25.677,438.377,9.011,21.024
1782115902.729076,0.321000,357081,1000,12,0,1,733.111,-21.854,24.872,451.901,16.819,21.000
1782115902.730076,0.322000,357082,1000,12,0,1,738.227,-17.122,24.989,456.969,14.596,19.859
1782115902.731076,0.323000,357083,1000,12,0,1,751.775,0.283,23.550,455.624,5.398,16.681
1782115902.732076,0.324000,357084,1000,12,0,1,754.874,3.395,22.014,462.014,2.937,13.055
1782115902.733076,0.325000,357085,1000,12,0,1,743.031,-6.494,21.975,475.633,9.413,11.607
1782115902.734076,0.326000,357086,1000,12,0,1,727.658,-21.698,21.898,488.460,15.491,11.652
1782115902.735076,0.327000,357087,1000,12,0,1,720.764,-26.510,21.743,496.027,17.209,11.810
1782115902.736076,0.328000,357088,1000,12,0,1,728.451,-18.334,21.818,495.570,13.159,11.630
1782115902.737076,0.329000,357089,1000,12,0,1,727.418,-14.627,21.865,498.741,12.172,11.610
1782115902.738076,0.330000,357090,1000,12,0,1,704.646,-32.470,22.193,506.572,18.888,11.909
1782115902.739076,0.331000,357091,1000,12,0,1,723.046,-20.057,22.362,493.240,9.695,11.983
1782115902.740076,0.332000,357092,1000,12,0,1,751.463,13.992,22.405,473.399,-8.253,12.028
1782115902.741076,0.333000,357093,1000,12,0,1,746.587,9.183,22.263,467.274,-9.619,12.095
1782115902.742076,0.334000,357094,1000,12,0,1,756.555,11.852,22.180,455.216,-12.493,12.223
1782115902.743076,0.335000,357095,1000,12,0,1,764.722,21.808,22.392,444.575,-18.156,12.462
1782115902.744076,0.336000,357096,1000,12,0,1,777.381,26.168,22.680,434.726,-19.601,12.648
1782115902.745076,0.337000,357097,1000,12,0,1,776.973,27.387,22.960,431.483,-19.465,12.746
1782115902.746076,0.338000,357098,1000,12,0,1,762.873,9.414,22.909,439.266,-9.139,12.656
1782115902.747076,0.339000,357099,1000,12,0,1,735.513,-12.896,22.977,450.412,1.153,12.615
1782115902.748076,0.340000,357100,1000,12,0,1,699.002,-42.618,23.696,461.053,7.539,12.635
1782115902.749076,0.341000,357101,1000,12,0,1,701.980,-37.508,24.276,474.000,12.903,12.765
1782115902.750076,0.342000,357102,1000,12,0,1,726.601,-3.947,24.162,486.587,16.357,12.633
1782115902.751076,0.343000,357103,1000,12,0,1,734.696,8.099,23.797,495.330,15.227,12.266
1782115902.752076,0.344000,357104,1000,12,0,1,753.480,22.444,23.733,503.906,12.917,12.172
1782115902.753076,0.345000,357105,1000,12,0,1,773.610,39.895,24.391,507.076,8.370,12.204
1782115902.754076,0.346000,357106,1000,12,0,1,782.569,41.221,24.916,502.536,-2.401,12.185
1782115902.755076,0.347000,357107,1000,12,0,1,781.657,32.884,25.104,486.010,-19.071,12.479
1782115902.756076,0.348000,357108,1000,12,0,1,762.993,9.928,24.696,464.632,-37.582,13.497
1782115902.757076,0.349000,357109,1000,12,0,1,721.725,-30.300,24.614,457.089,-39.490,14.484
1782115902.758076,0.350000,357110,1000,12,0,1,682.043,-65.923,25.948,461.245,-26.276,14.745
1782115902.759076,0.351000,357111,1000,12,0,1,645.988,-88.417,28.424,469.316,-9.963,14.318
1782115902.760076,0.352000,357112,1000,12,0,1,650.552,-77.029,30.270,467.466,-1.845,13.870
1782115902.761076,0.353000,357113,1000,12,0,1,736.978,7.102,30.275,444.454,-13.822,13.807
1782115902.762076,0.354000,357114,1000,12,0,1,771.328,55.362,31.271,433.837,-18.679,13.965
1782115902.763076,0.355000,357115,1000,12,0,1,741.662,18.764,31.376,434.126,-8.104,13.977
1782115902.764076,0.356000,357116,1000,12,0,1,727.562,1.377,31.374,435.110,-1.710,13.927
1782115902.765076,0.357000,357117,1000,12,0,1,734.960,8.039,31.171,445.776,10.339,13.943
1782115902.766076,0.358000,357118,1000,12,0,1,719.395,-0.497,30.858,471.502,31.722,14.631
1782115902.767076,0.359000,357119,1000,12,0,1,719.395,-4.396,30.761,471.502,31.110,15.247
1782115902.768076,0.360000,357120,1000,12,0,1,683.965,-22.300,30.059,543.492,70.753,18.155
1782115902.769076,0.361000,357121,1000,12,0,1,690.811,-24.550,30.211,554.181,86.879,21.918
1782115902.770076,0.362000,357122,1000,12,0,1,685.262,-8.660,30.228,555.022,49.178,22.982
1782115902.771076,0.363000,357123,1000,12,0,1,741.734,27.323,29.775,531.601,25.746,23.254
1782115902.772076,0.364000,357124,1000,12,0,1,832.989,116.048,33.195,486.371,-34.428,23.742
1782115902.773076,0.365000,357125,1000,12,0,1,856.649,125.982,37.307,469.796,-53.344,24.909
1782115902.774076,0.366000,357126,1000,12,0,1,828.185,78.079,38.737,484.401,-38.001,25.482
1782115902.775076,0.367000,357127,1000,12,0,1,812.691,44.343,39.209,496.844,-22.135,25.673
1782115902.776076,0.368000,357128,1000,12,0,1,815.718,32.782,39.470,508.422,-7.871,25.684
1782115902.777076,0.369000,357129,1000,12,0,1,800.225,13.883,39.512,524.467,7.090,25.691
1782115902.778076,0.370000,357130,1000,12,0,1,785.572,-12.198,39.542,527.974,16.115,25.761
1782115902.779076,0.371000,357131,1000,12,0,1,753.144,-37.028,39.767,542.891,24.275,25.879
1782115902.780076,0.372000,357132,1000,12,0,1,725.088,-66.745,40.800,565.999,48.114,26.679
1782115902.781076,0.373000,357133,1000,12,0,1,725.520,-58.099,41.619,567.921,46.023,27.451
1782115902.782076,0.374000,357134,1000,12,0,1,744.833,-34.931,41.909,555.670,30.440,27.783
1782115902.783076,0.375000,357135,1000,12,0,1,747.355,-22.797,42.022,552.163,20.177,27.898
1782115902.784076,0.376000,357136,1000,12,0,1,750.622,-19.962,42.005,543.372,10.865,27.854
1782115902.785076,0.377000,357137,1000,12,0,1,745.602,-17.580,41.911,519.759,-14.174,27.820
1782115902.786076,0.378000,357138,1000,12,0,1,716.849,-38.856,42.190,503.065,-32.641,28.139
1782115902.787076,0.379000,357139,1000,12,0,1,741.350,-20.975,42.244,451.805,-70.591,29.808
1782115902.788076,0.380000,357140,1000,12,0,1,763.713,13.165,42.035,395.620,-120.045,34.199
1782115902.789076,0.381000,357141,1000,12,0,1,724.175,-20.760,42.042,389.159,-115.173,37.855
1782115902.790076,0.382000,357142,1000,12,0,1,651.777,-80.308,43.504,421.779,-72.180,39.190
1782115902.791076,0.383000,357143,1000,12,0,1,597.826,-119.260,46.641,449.763,-34.619,39.471
1782115902.792076,0.384000,357144,1000,12,0,1,600.901,-99.738,48.698,446.472,-30.660,39.669
1782115902.793076,0.385000,357145,1000,12,0,1,643.586,-41.168,48.948,433.165,-40.506,39.998
1782115902.794076,0.386000,357146,1000,12,0,1,707.937,26.395,48.950,411.306,-51.186,40.553
1782115902.795076,0.387000,357147,1000,12,0,1,772.889,86.998,50.324,389.687,-62.316,41.408
1782115902.796076,0.388000,357148,1000,12,0,1,752.544,69.934,51.269,402.226,-40.782,41.788
1782115902.797076,0.389000,357149,1000,12,0,1,726.265,25.823,51.367,418.560,-9.503,41.809
1782115902.798076,0.390000,357150,1000,12,0,1,718.242,18.963,51.082,427.568,7.332,41.809
1782115902.799076,0.391000,357151,1000,12,0,1,737.819,27.728,50.957,431.555,20.300,41.867
1782115902.800076,0.392000,357152,1000,12,0,1,828.185,98.586,52.827,404.220,6.379,41.813
1782115902.801076,0.393000,357153,1000,12,0,1,879.685,142.835,56.546,375.515,-14.110,41.805
1782115902.802076,0.394000,357154,1000,12,0,1,833.421,81.810,57.630,383.106,1.854,41.766
1782115902.803076,0.395000,357155,1000,12,0,1,769.550,5.568,57.359,396.773,26.220,41.914
1782115902.804076,0.396000,357156,1000,12,0,1,747.643,-22.651,57.152,402.202,35.654,42.215
1782115902.805076,0.397000,357157,1000,12,0,1,744.617,-20.751,57.038,402.442,37.991,42.470
1782115902.806076,0.398000,357158,1000,12,0,1,757.324,-9.282,57.035,403.571,37.171,42.462
1782115902.807076,0.399000,357159,1000,12,0,1,764.554,2.815,56.876,409.913,39.568,42.464
1782115902.808076,0.400000,357160,1000,12,0,1,761.551,-1.256,56.107,417.335,41.265,42.701
1782115902.809076,0.401000,357161,1000,12,0,1,769.598,4.026,54.698,422.379,38.678,43.027
1782115902.810076,0.402000,357162,1000,12,0,1,759.966,-1.894,53.603,431.243,37.595,43.354
1782115902.811076,0.403000,357163,1000,12,0,1,749.589,-16.620,53.645,445.752,41.180,43.700
1782115902.812076,0.404000,357164,1000,12,0,1,750.502,-14.695,53.112,453.462,39.435,43.975
1782115902.813076,0.405000,357165,1000,12,0,1,746.154,-18.542,53.110,457.282,32.107,44.194
1782115902.814076,0.406000,357166,1000,12,0,1,734.264,-28.714,53.265,461.821,27.922,44.369
1782115902.815076,0.407000,357167,1000,12,0,1,727.682,-34.624,53.477,466.217,24.678,44.482
1782115902.816076,0.408000,357168,1000,12,0,1,718.314,-38.795,53.758,466.193,19.998,44.346
1782115902.817076,0.409000,357169,1000,12,0,1,709.258,-44.066,54.114,467.634,16.856,44.191
1782115902.818076,0.410000,357170,1000,12,0,1,712.357,-36.969,54.275,467.707,15.889,43.102
1782115902.819076,0.411000,357171,1000,12,0,1,757.708,3.448,54.166,456.008,5.980,41.322
1782115902.820076,0.412000,357172,1000,12,0,1,779.735,31.493,54.335,448.082,-1.558,40.733
1782115902.821076,0.413000,357173,1000,12,0,1,782.545,25.267,54.315,439.242,-4.560,40.576
1782115902.822076,0.414000,357174,1000,12,0,1,784.299,24.652,51.893,423.821,-14.729,40.336
1782115902.823076,0.415000,357175,1000,12,0,1,771.160,10.558,48.762,415.173,-18.532,39.711
1782115902.824076,0.416000,357176,1000,12,0,1,749.949,-9.798,47.515,417.383,-12.066,39.383
1782115902.825076,0.417000,357177,1000,12,0,1,734.456,-20.959,47.193,421.755,-4.638,39.264
1782115902.826076,0.418000,357178,1000,12,0,1,729.580,-21.059,47.059,425.022,-1.160,39.248
1782115902.827076,0.419000,357179,1000,12,0,1,725.040,-17.052,47.080,426.967,-0.864,39.235
1782115902.828076,0.420000,357180,1000,12,0,1,729.460,-9.816,47.069,428.144,-2.890,39.171
1782115902.829076,0.421000,357181,1000,12,0,1,721.149,-8.164,46.791,434.198,-2.290,39.022
1782115902.830076,0.422000,357182,1000,12,0,1,702.869,-22.483,45.939,444.118,1.900,38.425
1782115902.831076,0.423000,357183,1000,12,0,1,701.836,-19.532,45.283,455.072,5.602,37.878
1782115902.832076,0.424000,357184,1000,12,0,1,700.275,-14.091,45.056,462.974,6.785,37.645
1782115902.833076,0.425000,357185,1000,12,0,1,680.169,-27.197,45.105,476.546,11.106,37.569
1782115902.834076,0.426000,357186,1000,12,0,1,672.074,-32.850,45.256,483.152,13.109,37.584
1782115902.835076,0.427000,357187,1000,12,0,1,681.322,-18.866,45.266,481.566,5.732,37.539
1782115902.836076,0.428000,357188,1000,12,0,1,709.763,7.612,44.944,481.975,2.851,37.256
1782115902.837076,0.429000,357189,1000,12,0,1,722.085,22.474,44.959,485.001,4.551,35.900
1782115902.838076,0.430000,357190,1000,12,0,1,757.084,42.344,45.318,473.808,-2.845,31.634
1782115902.839076,0.431000,357191,1000,12,0,1,785.308,66.916,46.202,469.916,-6.857,27.136
1782115902.840076,0.432000,357192,1000,12,0,1,761.960,37.748,45.101,482.239,8.164,25.170
1782115902.841076,0.433000,357193,1000,12,0,1,730.060,-1.204,41.829,494.057,21.853,24.882
1782115902.842076,0.434000,357194,1000,12,0,1,722.902,-9.433,39.402,501.792,28.265,24.825
1782115902.843076,0.435000,357195,1000,12,0,1,735.537,2.937,38.972,503.858,28.590,24.491
1782115902.844076,0.436000,357196,1000,12,0,1,743.896,14.980,38.850,507.485,26.522,23.695
1782115902.845076,0.437000,357197,1000,12,0,1,739.164,11.183,36.885,516.781,29.461,22.387
1782115902.846076,0.438000,357198,1000,12,0,1,735.897,8.999,35.557,523.723,28.418,22.001
1782115902.847076,0.439000,357199,1000,12,0,1,738.996,12.715,35.415,523.867,19.785,22.138
1782115902.848076,0.440000,357200,1000,12,0,1,734.864,11.692,35.352,516.372,3.898,22.120
1782115902.849076,0.441000,357201,1000,12,0,1,743.152,15.881,35.205,490.166,-25.423,22.226
1782115902.850076,0.442000,357202,1000,12,0,1,760.927,31.874,32.639,451.180,-64.384,24.002
1782115902.851076,0.443000,357203,1000,12,0,1,741.854,15.240,25.728,431.988,-82.031,26.583
1782115902.852076,0.444000,357204,1000,12,0,1,715.456,-15.926,23.090,443.758,-66.039,28.175
1782115902.853076,0.445000,357205,1000,12,0,1,700.755,-27.880,23.411,471.502,-35.013,28.365
1782115902.854076,0.446000,357206,1000,12,0,1,693.261,-33.662,23.674,485.674,-16.508,28.011
1782115902.855076,0.447000,357207,1000,12,0,1,679.184,-40.986,24.196,497.396,-7.188,27.510
1782115902.856076,0.448000,357208,1000,12,0,1,648.606,-62.731,25.738,512.793,7.793,27.025
1782115902.857076,0.449000,357209,1000,12,0,1,641.088,-66.102,27.380,523.555,16.918,26.548
1782115902.858076,0.450000,357210,1000,12,0,1,649.663,-46.383,28.154,529.368,20.928,26.067
1782115902.859076,0.451000,357211,1000,12,0,1,623.985,-56.479,29.260,526.749,18.291,25.618
1782115902.860076,0.452000,357212,1000,12,0,1,617.956,-58.591,30.409,498.045,-4.697,25.069
1782115902.861076,0.453000,357213,1000,12,0,1,631.335,-31.219,30.638,452.501,-41.762,25.088
1782115902.862076,0.454000,357214,1000,12,0,1,618.917,-29.799,30.857,420.938,-62.142,25.991
1782115902.863076,0.455000,357215,1000,12,0,1,560.907,-66.686,32.159,426.727,-45.874,26.401
1782115902.864076,0.456000,357216,1000,12,0,1,497.564,-108.790,35.418,434.606,-23.013,26.306
1782115902.865076,0.457000,357217,1000,12,0,1,470.829,-109.582,38.348,445.295,-7.962,26.098
1782115902.866076,0.458000,357218,1000,12,0,1,504.818,-55.372,38.753,461.701,11.987,25.999
1782115902.867076,0.459000,357219,1000,12,0,1,543.252,6.281,38.259,484.593,30.444,26.245
1782115902.868076,0.460000,357220,1000,12,0,1,550.938,27.055,38.093,510.896,48.837,27.046
1782115902.869076,0.461000,357221,1000,12,0,1,587.546,59.850,39.019,516.324,46.572,27.823
1782115902.870076,0.462000,357222,1000,12,0,1,667.150,130.440,42.930,482.215,7.469,27.842
1782115902.871076,0.463000,357223,1000,12,0,1,736.138,181.842,49.915,456.729,-26.379,28.084
1782115902.872076,0.464000,357224,1000,12,0,1,768.878,188.760,56.497,445.439,-35.580,28.455
1782115902.873076,0.465000,357225,1000,12,0,1,778.006,166.749,61.203,438.834,-39.957,28.892
1782115902.874076,0.466000,357226,1000,12,0,1,829.938,175.046,66.006,418.152,-50.569,29.715
1782115902.875076,0.467000,357227,1000,12,0,1,823.020,151.617,69.338,425.598,-42.441,30.308
1782115902.876076,0.468000,357228,1000,12,0,1,774.402,69.723,69.972,444.406,-12.945,30.363
1782115902.877076,0.469000,357229,1000,12,0,1,719.251,5.159,69.934,458.915,4.600,30.369
1782115902.878076,0.470000,357230,1000,12,0,1,685.550,-39.074,70.138,465.184,15.878,30.450
1782115902.879076,0.471000,357231,1000,12,0,1,698.017,-30.155,70.258,455.432,11.327,30.490
1782115902.880076,0.472000,357232,1000,12,0,1,714.567,-10.436,70.202,436.768,-2.044,30.490
1782115902.881076,0.473000,357233,1000,12,0,1,697.008,-24.777,70.235,431.315,-2.429,30.482
1782115902.882076,0.474000,357234,1000,12,0,1,678.656,-41.838,70.456,431.675,4.857,30.474
1782115902.883076,0.475000,357235,1000,12,0,1,682.740,-35.966,70.534,425.959,5.811,30.445
1782115902.884076,0.476000,357236,1000,12,0,1,681.947,-28.809,70.499,426.439,8.140,30.410
1782115902.885076,0.477000,357237,1000,12,0,1,662.130,-43.121,70.712,424.541,11.183,30.441
1782115902.886076,0.478000,357238,1000,12,0,1,642.649,-55.788,71.142,430.258,14.016,30.502
1782115902.887076,0.479000,357239,1000,12,0,1,618.124,-69.044,71.739,439.122,22.598,30.663
1782115902.888076,0.480000,357240,1000,12,0,1,594.944,-80.979,72.400,448.610,25.759,30.876
1782115902.889076,0.481000,357241,1000,12,0,1,593.190,-72.896,72.515,456.177,27.692,31.108
1782115902.890076,0.482000,357242,1000,12,0,1,597.010,-56.218,72.754,463.095,25.841,31.301
1782115902.891076,0.483000,357243,1000,12,0,1,609.380,-38.464,72.957,475.729,28.588,31.409
1782115902.892076,0.484000,357244,1000,12,0,1,606.594,-30.033,73.069,486.731,30.810,31.457
1782115902.893076,0.485000,357245,1000,12,0,1,611.879,-25.011,73.153,493.961,27.919,31.445
1782115902.894076,0.486000,357246,1000,12,0,1,636.019,1.801,73.123,496.916,23.210,31.392
1782115902.895076,0.487000,357247,1000,12,0,1,628.693,1.702,73.106,506.380,22.982,31.284
1782115902.896076,0.488000,357248,1000,12,0,1,595.809,-27.316,73.197,512.481,24.698,31.221
1782115902.897076,0.489000,357249,1000,12,0,1,563.957,-48.858,73.500,507.533,15.331,31.170
1782115902.898076,0.490000,357250,1000,12,0,1,513.898,-78.401,74.314,504.915,9.300,31.193
1782115902.899076,0.491000,357251,1000,12,0,1,476.426,-97.294,75.543,505.539,9.220,31.013
1782115902.900076,0.492000,357252,1000,12,0,1,492.592,-63.361,75.939,497.732,3.226,29.650
1782115902.901076,0.493000,357253,1000,12,0,1,533.883,-4.199,75.911,488.917,-4.538,27.293
1782115902.902076,0.494000,357254,1000,12,0,1,557.832,31.681,76.010,478.588,-10.672,25.690
1782115902.903076,0.495000,357255,1000,12,0,1,586.561,59.390,76.371,472.607,-14.295,25.289
1782115902.904076,0.496000,357256,1000,12,0,1,656.845,116.710,77.989,463.623,-17.806,25.307
1782115902.905076,0.497000,357257,1000,12,0,1,761.720,196.690,82.598,445.223,-30.941,25.662
1782115902.906076,0.498000,357258,1000,12,0,1,799.864,214.461,87.542,431.507,-40.603,26.274
1782115902.907076,0.499000,357259,1000,12,0,1,772.889,153.785,89.717,434.774,-34.227,26.609
1782115902.908076,0.500000,357260,1000,12,0,1,771.328,116.451,90.980,438.714,-26.043,26.699
1782115902.909076,0.501000,357261,1000,12,0,1,776.012,99.275,91.710,435.807,-27.134,26.849
1782115902.910076,0.502000,357262,1000,12,0,1,765.899,65.833,91.808,443.422,-21.542,27.013
1782115902.911076,0.503000,357263,1000,12,0,1,748.724,32.627,91.818,460.644,-5.940,26.373
1782115902.912076,0.504000,357264,1000,12,0,1,743.944,11.395,91.735,475.225,5.003,24.876
1782115902.913076,0.505000,357265,1000,12,0,1,755.138,11.297,91.263,487.163,11.665,24.071
1782115902.914076,0.506000,357266,1000,12,0,1,762.032,9.297,89.966,497.204,16.212,23.960
1782115902.915076,0.507000,357267,1000,12,0,1,747.619,-10.220,88.633,508.734,21.524,24.127
1782115902.916076,0.508000,357268,1000,12,0,1,737.867,-27.279,88.371,508.998,19.577,24.226
1782115902.917076,0.509000,357269,1000,12,0,1,738.347,-28.485,88.458,503.281,10.594,23.887
1782115902.918076,0.510000,357270,1000,12,0,1,732.294,-33.859,88.505,500.423,7.693,22.893
1782115902.919076,0.511000,357271,1000,12,0,1,715.840,-47.842,88.359,491.943,2.547,21.928
1782115902.920076,0.512000,357272,1000,12,0,1,676.206,-77.048,87.096,473.231,-10.396,21.952
1782115902.921076,0.513000,357273,1000,12,0,1,644.787,-101.073,84.432,445.391,-28.618,22.008
1782115902.922076,0.514000,357274,1000,12,0,1,619.781,-107.446,81.529,425.502,-39.218,22.131
1782115902.923076,0.515000,357275,1000,12,0,1,586.273,-121.485,79.913,421.010,-32.622,21.889
1782115902.924076,0.516000,357276,1000,12,0,1,549.737,-134.413,78.324,426.511,-18.307,20.849
1782115902.925076,0.517000,357277,1000,12,0,1,512.529,-144.544,78.056,418.560,-15.628,20.088
1782115902.926076,0.518000,357278,1000,12,0,1,475.321,-151.624,80.345,418.656,-14.293,20.107
1782115902.927076,0.519000,357279,1000,12,0,1,467.755,-133.687,82.536,431.075,0.954,20.097
1782115902.928076,0.520000,357280,1000,12,0,1,517.694,-66.424,82.885,448.658,15.091,20.084
1782115902.929076,0.521000,357281,1000,12,0,1,606.378,30.085,82.884,463.863,25.240,20.336
1782115902.930076,0.522000,357282,1000,12,0,1,672.603,96.162,83.979,483.248,33.655,20.884
1782115902.931076,0.523000,357283,1000,12,0,1,676.830,94.811,84.971,505.491,43.923,21.785
1782115902.932076,0.524000,357284,1000,12,0,1,658.671,63.625,85.241,517.982,44.292,22.657
1782115902.933076,0.525000,357285,1000,12,0,1,665.397,58.482,85.490,511.592,27.543,22.975
1782115902.934076,0.526000,357286,1000,12,0,1,676.734,63.802,85.868,499.077,6.490,22.965
1782115902.935076,0.527000,357287,1000,12,0,1,691.051,67.349,86.179,493.457,-4.185,22.918
1782115902.936076,0.528000,357288,1000,12,0,1,676.854,52.987,86.144,506.068,4.137,22.839
1782115902.937076,0.529000,357289,1000,12,0,1,638.974,12.689,85.608,516.492,15.126,22.716
1782115902.938076,0.530000,357290,1000,12,0,1,616.587,-7.972,84.846,507.389,7.755,22.448
1782115902.939076,0.531000,357291,1000,12,0,1,606.978,-10.044,84.229,484.113,-11.239,22.161
1782115902.940076,0.532000,357292,1000,12,0,1,595.545,-12.848,83.873,468.139,-21.972,22.078
1782115902.941076,0.533000,357293,1000,12,0,1,511.977,-68.010,84.247,470.517,-13.425,21.787
1782115902.942076,0.534000,357294,1000,12,0,1,442.221,-126.276,86.014,470.493,-4.444,21.356
1782115902.943076,0.535000,357295,1000,12,0,1,462.590,-86.172,86.801,444.935,-19.855,21.175
1782115902.944076,0.536000,357296,1000,12,0,1,557.664,14.775,86.826,417.888,-39.928,21.668
1782115902.945076,0.537000,357297,1000,12,0,1,679.833,129.112,88.725,413.132,-37.598,22.073
1782115902.946076,0.538000,357298,1000,12,0,1,721.245,161.193,91.525,438.233,-10.504,21.845
1782115902.947076,0.539000,357299,1000,12,0,1,689.465,104.105,92.444,474.000,23.976,22.000
1782115902.948076,0.540000,357300,1000,12,0,1,616.467,21.417,91.826,499.053,41.683,22.738
1782115902.949076,0.541000,357301,1000,12,0,1,566.455,-41.715,90.981,500.495,34.176,23.210
1782115902.950076,0.542000,357302,1000,12,0,1,566.480,-41.532,90.729,494.562,15.967,23.315
1782115902.951076,0.543000,357303,1000,12,0,1,655.164,29.610,90.824,478.300,-5.846,23.321
1782115902.952076,0.544000,357304,1000,12,0,1,807.527,159.037,93.460,459.900,-29.269,23.637
1782115902.953076,0.545000,357305,1000,12,0,1,886.339,214.749,97.911,479.020,-17.962,23.687
1782115902.954076,0.546000,357306,1000,12,0,1,877.763,168.123,99.395,507.413,10.415,23.599
1782115902.955076,0.547000,357307,1000,12,0,1,814.613,82.071,96.127,520.408,18.729,23.340
1782115902.956076,0.548000,357308,1000,12,0,1,742.263,-7.679,91.223,521.297,17.257,22.754
1782115902.957076,0.549000,357309,1000,12,0,1,718.266,-38.828,88.763,509.815,5.678,22.248
1782115902.958076,0.550000,357310,1000,12,0,1,729.724,-25.852,87.298,497.804,-4.704,21.951
1782115902.959076,0.551000,357311,1000,12,0,1,751.222,-4.200,86.164,490.934,-6.586,21.633
1782115902.960076,0.552000,357312,1000,12,0,1,742.143,-7.135,85.665,486.154,-5.227,21.430
1782115902.961076,0.553000,357313,1000,12,0,1,702.677,-43.077,85.758,471.165,-10.648,21.467
1782115902.962076,0.554000,357314,1000,12,0,1,713.510,-38.252,85.913,440.996,-29.881,21.867
1782115902.963076,0.555000,357315,1000,12,0,1,723.190,-18.502,85.938,422.596,-39.654,22.514
1782115902.964076,0.556000,357316,1000,12,0,1,713.942,-31.239,86.041,425.358,-27.539,22.733
1782115902.965076,0.557000,357317,1000,12,0,1,702.388,-41.303,86.227,434.750,-11.188,22.584
1782115902.966076,0.558000,357318,1000,12,0,1,661.025,-75.374,86.798,442.989,-0.265,22.414
1782115902.967076,0.559000,357319,1000,12,0,1,634.290,-101.764,87.891,450.724,6.241,22.381
1782115902.968076,0.560000,357320,1000,12,0,1,633.497,-92.870,88.738,461.725,12.160,22.421
1782115902.969076,0.561000,357321,1000,12,0,1,632.128,-85.927,89.310,480.750,22.404,22.641
1782115902.970076,0.562000,357322,1000,12,0,1,620.070,-86.748,89.488,504.386,34.707,23.120
1782115902.971076,0.563000,357323,1000,12,0,1,553.989,-128.538,90.189,536.406,50.323,23.849
1782115902.972076,0.564000,357324,1000,12,0,1,521.849,-150.441,91.411,546.350,49.187,24.216
1782115902.973076,0.565000,357325,1000,12,0,1,579.018,-77.781,90.453,527.302,18.391,23.915
1782115902.974076,0.566000,357326,1000,12,0,1,621.247,-13.300,88.453,515.556,-3.406,23.779
1782115902.975076,0.567000,357327,1000,12,0,1,561.868,-47.108,86.316,526.917,2.056,23.678
1782115902.976076,0.568000,357328,1000,12,0,1,474.961,-113.655,85.141,543.732,16.138,23.701
1782115902.977076,0.569000,357329,1000,12,0,1,423.076,-133.053,85.121,554.613,24.311,23.949
1782115902.978076,0.570000,357330,1000,12,0,1,402.082,-116.753,86.198,550.097,19.918,24.020
1782115902.979076,0.571000,357331,1000,12,0,1,412.699,-73.483,86.717,517.189,-7.067,23.774
1782115902.980076,0.572000,357332,1000,12,0,1,434.510,-20.987,85.696,472.967,-42.990,24.073
1782115902.981076,0.573000,357333,1000,12,0,1,418.128,-7.762,84.647,440.515,-61.912,24.851
1782115902.982076,0.574000,357334,1000,12,0,1,331.894,-59.010,84.581,440.275,-50.660,25.093
1782115902.983076,0.575000,357335,1000,12,0,1,191.613,-155.880,87.014,447.913,-27.767,25.098
1782115902.984076,0.576000,357336,1000,12,0,1,90.534,-212.858,91.631,414.020,-43.748,25.833
1782115902.985076,0.577000,357337,1000,12,0,1,91.255,-167.143,94.150,374.314,-73.468,27.838
1782115902.986076,0.578000,357338,1000,12,0,1,119.191,-89.010,94.692,377.028,-61.643,29.165
1782115902.987076,0.579000,357339,1000,12,0,1,89.285,-73.499,95.244,431.964,-6.298,29.100
1782115902.988076,0.580000,357340,1000,12,0,1,7.278,-112.740,96.562,494.177,52.803,30.023
1782115902.989076,0.581000,357341,1000,12,0,1,-86.763,-159.386,99.148,534.988,78.668,31.979
1782115902.990076,0.582000,357342,1000,12,0,1,-107.228,-141.573,101.133,559.321,82.528,33.900
1782115902.991076,0.583000,357343,1000,12,0,1,34.926,16.921,100.703,554.013,60.280,34.904
1782115902.992076,0.584000,357344,1000,12,0,1,213.304,209.805,103.453,553.220,36.847,35.285
1782115902.993076,0.585000,357345,1000,12,0,1,370.183,336.795,113.237,573.301,41.022,35.648
1782115902.994076,0.586000,357346,1000,12,0,1,485.362,411.906,127.325,597.490,49.820,35.896
1782115902.995076,0.587000,357347,1000,12,0,1,535.565,407.665,138.571,613.224,52.723,36.275
1782115902.996076,0.588000,357348,1000,12,0,1,598.523,399.529,147.901,605.705,37.218,36.625
1782115902.997076,0.589000,357349,1000,12,0,1,670.753,409.607,158.157,581.420,8.411,36.487
1782115902.998076,0.590000,357350,1000,12,0,1,710.267,383.370,167.164,566.071,-7.834,36.025
1782115902.999076,0.591000,357351,1000,12,0,1,720.692,332.542,173.553,537.439,-25.650,35.883
1782115903.000076,0.592000,357352,1000,12,0,1,689.706,251.796,177.072,519.831,-37.892,36.210
1782115903.001076,0.593000,357353,1000,12,0,1,666.357,179.065,178.824,506.692,-35.575,36.549
1782115903.002076,0.594000,357354,1000,12,0,1,640.583,124.212,178.272,499.582,-33.950,36.630
1782115903.003076,0.595000,357355,1000,12,0,1,561.651,30.137,175.717,499.438,-23.753,36.696
1782115903.004076,0.596000,357356,1000,12,0,1,555.382,-8.609,174.106,500.807,-16.623,36.741
1782115903.005076,0.597000,357357,1000,12,0,1,672.291,79.478,174.082,487.764,-23.174,36.792
1782115903.006076,0.598000,357358,1000,12,0,1,761.720,143.024,175.249,482.071,-29.876,36.953
1782115903.007076,0.599000,357359,1000,12,0,1,805.966,136.048,176.217,471.766,-35.868,37.291
1782115903.008076,0.600000,357360,1000,12,0,1,760.999,61.078,176.391,467.226,-43.068,37.779
1782115903.009076,0.601000,357361,1000,12,0,1,597.778,-120.439,177.210,492.112,-23.892,37.919
1782115903.010076,0.602000,357362,1000,12,0,1,412.003,-304.384,182.361,527.518,5.548,37.920
1782115903.011076,0.603000,357363,1000,12,0,1,285.053,-404.487,191.025,562.132,26.900,38.080
1782115903.012076,0.604000,357364,1000,12,0,1,211.046,-429.983,200.397,579.691,34.122,38.152
1782115903.013076,0.605000,357365,1000,12,0,1,158.657,-421.866,209.073,587.690,27.151,37.932
1782115903.014076,0.606000,357366,1000,12,0,1,140.137,-382.491,215.912,597.034,26.315,37.915
1782115903.015076,0.607000,357367,1000,12,0,1,214.264,-265.117,219.065,595.328,18.715,37.974
1782115903.016076,0.608000,357368,1000,12,0,1,379.623,-74.168,219.057,589.635,9.149,37.996
1782115903.017076,0.609000,357369,1000,12,0,1,575.968,122.467,219.269,580.123,2.162,37.987
1782115903.018076,0.610000,357370,1000,12,0,1,756.363,273.664,222.270,561.099,-10.250,37.976
1782115903.019076,0.611000,357371,1000,12,0,1,887.300,356.251,227.585,539.648,-21.780,37.968
1782115903.020076,0.612000,357372,1000,12,0,1,948.264,358.479,232.840,516.877,-30.511,37.896
1782115903.021076,0.613000,357373,1000,12,0,1,1002.599,339.583,237.045,485.626,-43.996,37.738
1782115903.022076,0.614000,357374,1000,12,0,1,1061.738,332.529,240.726,455.912,-56.320,37.937
1782115903.023076,0.615000,357375,1000,12,0,1,1062.338,276.982,243.644,452.093,-46.247,38.409
1782115903.024076,0.616000,357376,1000,12,0,1,995.273,162.803,244.723,477.363,-11.604,38.441
1782115903.025076,0.617000,357377,1000,12,0,1,900.631,37.366,244.689,497.684,15.033,38.499
1782115903.026076,0.618000,357378,1000,12,0,1,816.078,-61.672,244.316,508.157,21.827,38.555
1782115903.027076,0.619000,357379,1000,12,0,1,779.399,-103.973,244.034,510.728,18.883,38.494
1782115903.028076,0.620000,357380,1000,12,0,1,782.257,-98.894,243.876,502.657,3.269,38.393
1782115903.029076,0.621000,357381,1000,12,0,1,795.060,-84.711,243.949,496.459,-11.755,38.416
1782115903.030076,0.622000,357382,1000,12,0,1,781.416,-94.298,244.295,501.408,-14.861,37.990
1782115903.031076,0.623000,357383,1000,12,0,1,759.606,-118.568,244.867,523.675,-2.705,36.970
1782115903.032076,0.624000,357384,1000,12,0,1,745.458,-131.284,245.428,540.489,8.426,36.288
1782115903.033076,0.625000,357385,1000,12,0,1,752.400,-127.235,245.098,555.910,13.274,36.124
1782115903.034076,0.626000,357386,1000,12,0,1,769.238,-110.956,243.748,559.009,13.633,35.643
1782115903.035076,0.627000,357387,1000,12,0,1,773.081,-107.808,243.077,562.252,10.578,34.127
1782115903.036076,0.628000,357388,1000,12,0,1,760.639,-119.695,243.341,574.719,21.904,33.140
1782115903.037076,0.629000,357389,1000,12,0,1,737.771,-136.612,243.885,591.605,37.260,33.545
1782115903.038076,0.630000,357390,1000,12,0,1,701.139,-159.038,244.401,607.819,52.195,33.526
1782115903.039076,0.631000,357391,1000,12,0,1,679.473,-164.410,244.467,609.044,54.335,32.546
1782115903.040076,0.632000,357392,1000,12,0,1,672.002,-146.407,244.524,584.975,33.080,30.739
1782115903.041076,0.633000,357393,1000,12,0,1,652.618,-134.873,245.255,562.660,12.276,29.585
1782115903.042076,0.634000,357394,1000,12,0,1,570.875,-169.622,244.633,554.229,7.859,29.143
1782115903.043076,0.635000,357395,1000,12,0,1,426.463,-255.351,242.653,545.125,4.008,28.566
1782115903.044076,0.636000,357396,1000,12,0,1,318.106,-301.937,239.396,525.885,-10.886,27.726
1782115903.045076,0.637000,357397,1000,12,0,1,242.032,-293.298,236.024,511.712,-23.734,26.915
1782115903.046076,0.638000,357398,1000,12,0,1,161.395,-288.393,232.762,530.809,-10.033,26.433
1782115903.047076,0.639000,357399,1000,12,0,1,115.491,-255.222,228.310,570.155,21.988,26.589
1782115903.048076,0.640000,357400,1000,12,0,1,86.090,-203.098,223.631,611.518,46.834,27.379
1782115903.049076,0.641000,357401,1000,12,0,1,-2.066,-206.141,220.565,654.900,66.812,28.735
1782115903.050076,0.642000,357402,1000,12,0,1,-17.799,-172.853,219.040,669.168,60.245,29.489
1782115903.051076,0.643000,357403,1000,12,0,1,122.722,2.892,217.572,660.304,27.193,29.310
1782115903.052076,0.644000,357404,1000,12,0,1,445.656,301.632,221.017,638.325,-9.470,28.945
1782115903.053076,0.645000,357405,1000,12,0,1,666.838,506.303,232.287,632.632,-29.943,29.060
1782115903.054076,0.646000,357406,1000,12,0,1,665.517,442.981,240.584,636.404,-29.234,29.258
1782115903.055076,0.647000,357407,1000,12,0,1,672.170,361.985,245.713,613.752,-47.108,29.827
1782115903.056076,0.648000,357408,1000,12,0,1,820.882,420.714,252.003,550.962,-94.471,32.409
1782115903.057076,0.649000,357409,1000,12,0,1,999.212,511.523,261.474,483.248,-140.044,37.641
1782115903.058076,0.650000,357410,1000,12,0,1,1092.124,513.235,271.224,454.207,-141.521,42.194
1782115903.059076,0.651000,357411,1000,12,0,1,1076.438,410.007,276.829,447.553,-112.490,44.966
1782115903.060076,0.652000,357412,1000,12,0,1,1026.067,282.384,276.362,433.717,-92.045,46.806
1782115903.061076,0.653000,357413,1000,12,0,1,953.525,162.659,271.354,417.503,-77.449,47.920
1782115903.062076,0.654000,357414,1000,12,0,1,891.647,66.994,264.622,405.829,-61.626,48.466
1782115903.063076,0.655000,357415,1000,12,0,1,880.430,35.213,257.857,406.670,-39.481,48.635
1782115903.064076,0.656000,357416,1000,12,0,1,916.941,56.393,252.246,448.034,9.378,48.511
1782115903.065076,0.657000,357417,1000,12,0,1,933.347,64.536,249.611,510.247,72.437,49.510
1782115903.066076,0.658000,357418,1000,12,0,1,902.817,23.674,249.413,561.459,111.082,51.926
1782115903.067076,0.659000,357419,1000,12,0,1,911.200,6.513,248.813,588.482,118.221,54.551
1782115903.068076,0.660000,357420,1000,12,0,1,921.433,7.412,245.786,608.179,109.486,56.687
1782115903.069076,0.661000,357421,1000,12,0,1,878.292,-50.717,240.674,633.737,105.206,58.526
1782115903.070076,0.662000,357422,1000,12,0,1,836.664,-110.460,235.792,652.786,96.134,59.929
1782115903.071076,0.663000,357423,1000,12,0,1,802.627,-152.363,231.853,640.968,62.418,60.255
1782115903.072076,0.664000,357424,1000,12,0,1,733.327,-218.584,229.129,615.746,18.235,59.782
1782115903.073076,0.665000,357425,1000,12,0,1,658.118,-287.661,229.392,603.832,-5.203,59.428
1782115903.074076,0.666000,357426,1000,12,0,1,641.592,-295.317,232.023,591.101,-18.341,59.462
1782115903.075076,0.667000,357427,1000,12,0,1,663.115,-254.817,234.745,586.417,-23.132,59.514
1782115903.076076,0.668000,357428,1000,12,0,1,727.995,-184.461,236.029,585.528,-15.790,59.476
1782115903.077076,0.669000,357429,1000,12,0,1,747.427,-140.389,236.406,592.013,-4.092,59.419
1782115903.078076,0.670000,357430,1000,12,0,1,727.298,-150.851,236.954,603.664,15.343,59.456
1782115903.079076,0.671000,357431,1000,12,0,1,735.681,-126.326,237.325,608.083,25.723,59.544
1782115903.080076,0.672000,357432,1000,12,0,1,736.234,-97.295,237.349,593.287,18.062,59.562
1782115903.081076,0.673000,357433,1000,12,0,1,712.789,-92.232,237.115,553.628,-12.198,59.586
1782115903.082076,0.674000,357434,1000,12,0,1,716.200,-62.275,236.551,502.801,-51.911,60.025
1782115903.083076,0.675000,357435,1000,12,0,1,734.816,-12.716,235.872,460.284,-80.228,61.059
1782115903.084076,0.676000,357436,1000,12,0,1,701.019,-8.201,235.353,484.689,-54.418,61.512
1782115903.085076,0.677000,357437,1000,12,0,1,647.213,-34.281,234.908,553.749,16.794,61.539
1782115903.086076,0.678000,357438,1000,12,0,1,644.306,-12.766,234.305,606.930,60.246,62.049
1782115903.087076,0.679000,357439,1000,12,0,1,689.249,49.471,233.612,642.481,74.514,62.716
1782115903.088076,0.680000,357440,1000,12,0,1,732.462,101.266,232.967,651.056,62.326,62.901
1782115903.089076,0.681000,357441,1000,12,0,1,738.876,105.581,232.284,649.567,35.109,62.627
1782115903.090076,0.682000,357442,1000,12,0,1,763.569,107.434,231.858,636.476,6.589,62.459
1782115903.091076,0.683000,357443,1000,12,0,1,780.888,108.610,231.582,627.324,-18.803,62.492
1782115903.092076,0.684000,357444,1000,12,0,1,747.139,54.641,230.466,635.539,-19.388,62.542
1782115903.093076,0.685000,357445,1000,12,0,1,661.313,-40.939,227.693,681.010,12.289,62.563
1782115903.094076,0.686000,357446,1000,12,0,1,600.349,-113.320,224.226,743.055,63.702,63.190
1782115903.095076,0.687000,357447,1000,12,0,1,626.843,-93.664,220.754,770.919,81.848,64.154
1782115903.096076,0.688000,357448,1000,12,0,1,666.670,-47.828,217.059,776.949,72.731,64.957
1782115903.097076,0.689000,357449,1000,12,0,1,651.465,-56.651,214.187,807.263,85.539,66.001
1782115903.098076,0.690000,357450,1000,12,0,1,636.019,-69.808,212.482,859.195,119.423,67.805
1782115903.099076,0.691000,357451,1000,12,0,1,653.290,-43.664,210.563,871.902,120.015,69.255
1782115903.100076,0.692000,357452,1000,12,0,1,677.527,-6.286,209.141,840.435,72.382,69.487
1782115903.101076,0.693000,357453,1000,12,0,1,651.657,-8.735,209.145,879.517,78.976,70.274
1782115903.102076,0.694000,357454,1000,12,0,1,557.184,-70.577,204.991,985.328,155.571,73.625
1782115903.103076,0.695000,357455,1000,12,0,1,505.419,-97.356,192.573,1008.172,155.943,76.741
1782115903.104076,0.696000,357456,1000,12,0,1,530.040,-37.493,182.175,925.036,44.805,76.891
1782115903.105076,0.697000,357457,1000,12,0,1,605.297,57.792,175.025,789.247,-101.187,77.927
1782115903.106076,0.698000,357458,1000,12,0,1,677.575,142.647,165.833,679.401,-211.978,82.418
1782115903.107076,0.699000,357459,1000,12,0,1,703.109,166.322,151.066,675.653,-211.952,85.434
1782115903.108076,0.700000,357460,1000,12,0,1,709.523,156.361,134.319,726.337,-147.174,85.625
1782115903.109076,0.701000,357461,1000,12,0,1,771.328,183.625,123.911,686.727,-159.743,87.114
1782115903.110076,0.702000,357462,1000,12,0,1,809.953,198.075,120.598,610.509,-223.453,91.750
1782115903.111076,0.703000,357463,1000,12,0,1,815.982,159.660,120.517,558.769,-245.365,97.479
1782115903.112076,0.704000,357464,1000,12,0,1,800.801,109.378,121.136,518.126,-249.358,103.295
1782115903.113076,0.705000,357465,1000,12,0,1,725.737,11.710,121.045,562.084,-184.228,106.384
1782115903.114076,0.706000,357466,1000,12,0,1,650.744,-85.164,121.381,658.743,-60.453,106.718
1782115903.115076,0.707000,357467,1000,12,0,1,630.687,-112.416,122.077,756.411,42.330,106.394
1782115903.116076,0.708000,357468,1000,12,0,1,614.929,-120.775,123.221,846.128,126.037,106.727
1782115903.117076,0.709000,357469,1000,12,0,1,619.373,-113.786,124.264,884.898,154.606,107.653
1782115903.118076,0.710000,357470,1000,12,0,1,723.238,-21.005,124.295,802.795,76.369,107.080
1782115903.119076,0.711000,357471,1000,12,0,1,875.698,120.060,125.244,648.342,-68.371,106.481
1782115903.120076,0.712000,357472,1000,12,0,1,866.546,117.491,125.372,597.826,-112.297,106.797
1782115903.121076,0.713000,357473,1000,12,0,1,760.206,-2.774,123.507,644.186,-39.855,106.580
1782115903.122076,0.714000,357474,1000,12,0,1,663.907,-85.563,120.186,692.180,25.408,106.610
1782115903.123076,0.715000,357475,1000,12,0,1,605.393,-122.430,114.410,683.772,34.000,106.716
1782115903.124076,0.716000,357476,1000,12,0,1,574.022,-118.932,107.834,643.178,-0.119,106.684
1782115903.125076,0.717000,357477,1000,12,0,1,590.044,-77.546,102.225,587.930,-40.365,106.787
1782115903.126076,0.718000,357478,1000,12,0,1,622.904,-18.188,98.873,619.517,-17.051,106.791
1782115903.127076,0.719000,357479,1000,12,0,1,623.000,2.061,96.860,765.395,113.824,107.995
1782115903.128076,0.720000,357480,1000,12,0,1,623.889,6.747,94.486,907.525,229.729,112.756
1782115903.129076,0.721000,357481,1000,12,0,1,651.945,34.755,92.912,931.329,220.536,116.933
1782115903.130076,0.722000,357482,1000,12,0,1,700.419,70.106,92.421,831.908,91.604,117.621
1782115903.131076,0.723000,357483,1000,12,0,1,765.491,111.712,92.850,683.172,-72.204,118.050
1782115903.132076,0.724000,357484,1000,12,0,1,811.971,128.714,94.206,572.196,-178.647,120.500
1782115903.133076,0.725000,357485,1000,12,0,1,889.269,154.045,96.676,497.372,-224.212,124.085
1782115903.134076,0.726000,357486,1000,12,0,1,964.646,184.983,100.146,428.265,-249.541,128.776
1782115903.135076,0.727000,357487,1000,12,0,1,905.243,98.313,100.990,444.815,-202.925,131.913
1782115903.136076,0.728000,357488,1000,12,0,1,766.043,-66.853,101.416,544.260,-70.318,132.013
1782115903.137076,0.729000,357489,1000,12,0,1,723.118,-127.940,102.779,611.254,23.914,131.635
1782115903.138076,0.730000,357490,1000,12,0,1,726.337,-109.376,102.945,667.847,80.507,131.832
1782115903.139076,0.731000,357491,1000,12,0,1,752.832,-79.213,102.471,711.324,125.809,132.935
1782115903.140076,0.732000,357492,1000,12,0,1,746.178,-60.565,101.700,728.859,132.869,134.253
1782115903.141076,0.733000,357493,1000,12,0,1,721.557,-72.870,101.060,696.888,99.524,134.962
1782115903.142076,0.734000,357494,1000,12,0,1,777.789,-12.787,100.780,609.404,15.218,134.952
1782115903.143076,0.735000,357495,1000,12,0,1,831.283,58.867,100.958,533.355,-54.915,135.164
1782115903.144076,0.736000,357496,1000,12,0,1,818.937,51.270,99.941,518.991,-58.180,135.114
1782115903.145076,0.737000,357497,1000,12,0,1,768.926,9.491,99.068,544.621,-20.700,134.649
1782115903.146076,0.738000,357498,1000,12,0,1,731.502,-24.632,98.899,575.679,17.047,134.277
1782115903.147076,0.739000,357499,1000,12,0,1,745.794,-8.294,98.580,599.100,38.929,133.845
1782115903.148076,0.740000,357500,1000,12,0,1,778.702,25.462,98.151,650.312,74.215,133.189
1782115903.149076,0.741000,357501,1000,12,0,1,808.824,45.329,98.166,697.776,107.786,132.980
1782115903.150076,0.742000,357502,1000,12,0,1,857.370,71.271,98.678,698.257,90.863,133.206
1782115903.151076,0.743000,357503,1000,12,0,1,894.938,85.749,99.413,644.066,26.082,132.789
1782115903.152076,0.744000,357504,1000,12,0,1,867.362,38.633,99.061,617.932,-16.879,130.975
1782115903.153076,0.745000,357505,1000,12,0,1,775.123,-65.064,98.530,652.618,9.333,129.112
1782115903.154076,0.746000,357506,1000,12,0,1,654.059,-180.351,101.640,694.534,45.582,129.117
1782115903.155076,0.747000,357507,1000,12,0,1,614.953,-215.058,105.777,666.886,21.429,128.357
1782115903.156076,0.748000,357508,1000,12,0,1,690.186,-127.400,105.387,604.744,-40.580,124.940
1782115903.157076,0.749000,357509,1000,12,0,1,760.639,-38.306,102.872,556.943,-76.678,121.774
1782115903.158076,0.750000,357510,1000,12,0,1,779.783,-12.459,100.482,552.139,-68.920,120.378
1782115903.159076,0.751000,357511,1000,12,0,1,797.462,5.587,97.072,547.623,-49.881,118.449
1782115903.160076,0.752000,357512,1000,12,0,1,807.863,22.486,92.997,524.491,-53.533,114.407
1782115903.161076,0.753000,357513,1000,12,0,1,822.035,36.484,90.362,521.393,-42.744,109.185
1782115903.162076,0.754000,357514,1000,12,0,1,787.494,19.594,89.071,605.681,38.081,103.474
1782115903.163076,0.755000,357515,1000,12,0,1,722.878,-34.063,89.186,725.737,150.314,102.371
1782115903.164076,0.756000,357516,1000,12,0,1,697.873,-44.151,88.589,848.146,236.994,107.378
1782115903.165076,0.757000,357517,1000,12,0,1,716.417,-9.909,87.162,997.242,325.665,116.685
1782115903.166076,0.758000,357518,1000,12,0,1,760.687,41.216,85.671,986.745,283.522,122.088
1782115903.167076,0.759000,357519,1000,12,0,1,765.275,56.528,84.525,962.652,175.881,122.662
1782115903.168076,0.760000,357520,1000,12,0,1,771.136,49.651,84.764,886.843,84.450,122.768
1782115903.169076,0.761000,357521,1000,12,0,1,860.781,114.155,84.601,714.471,-106.718,123.314
1782115903.170076,0.762000,357522,1000,12,0,1,950.474,180.053,86.773,607.002,-216.537,126.063
1782115903.171076,0.763000,357523,1000,12,0,1,940.073,142.401,89.078,672.579,-152.211,127.763
1782115903.172076,0.764000,357524,1000,12,0,1,837.793,18.054,88.290,821.603,-0.978,127.713
1782115903.173076,0.765000,357525,1000,12,0,1,730.709,-102.658,87.784,912.233,85.740,128.197
1782115903.174076,0.766000,357526,1000,12,0,1,648.174,-175.174,89.649,918.839,72.666,128.608
1782115903.175076,0.767000,357527,1000,12,0,1,619.085,-191.155,92.991,844.879,-4.701,128.483
1782115903.176076,0.768000,357528,1000,12,0,1,711.564,-96.140,93.945,640.775,-183.407,131.053
1782115903.177076,0.769000,357529,1000,12,0,1,815.214,21.816,93.995,478.516,-322.719,137.836
1782115903.178076,0.770000,357530,1000,12,0,1,798.615,16.125,94.018,485.650,-277.138,139.568
1782115903.179076,0.771000,357531,1000,12,0,1,711.468,-63.242,94.314,603.688,-123.492,137.155
1782115903.180076,0.772000,357532,1000,12,0,1,643.682,-113.902,95.165,704.550,2.911,136.543
1782115903.181076,0.773000,357533,1000,12,0,1,594.656,-129.737,95.621,772.361,69.222,136.512
1782115903.182076,0.774000,357534,1000,12,0,1,588.603,-107.914,95.105,780.648,76.615,134.591
1782115903.183076,0.775000,357535,1000,12,0,1,623.721,-43.456,92.780,738.612,26.576,130.856
1782115903.184076,0.776000,357536,1000,12,0,1,684.253,32.549,89.135,698.329,-19.592,126.038
1782115903.185076,0.777000,357537,1000,12,0,1,766.836,115.500,89.546,630.735,-73.443,123.166
1782115903.186076,0.778000,357538,1000,12,0,1,817.640,161.550,91.930,510.151,-169.407,125.080
1782115903.187076,0.779000,357539,1000,12,0,1,806.926,137.053,92.192,443.518,-213.814,128.638
1782115903.188076,0.780000,357540,1000,12,0,1,742.071,63.588,91.329,491.343,-141.656,129.690
1782115903.189076,0.781000,357541,1000,12,0,1,644.811,-34.193,90.768,589.179,-22.671,128.504
1782115903.190076,0.782000,357542,1000,12,0,1,582.189,-94.226,91.340,658.262,55.773,127.367
1782115903.191076,0.783000,357543,1000,12,0,1,571.980,-92.820,91.702,656.269,59.712,126.869
1782115903.192076,0.784000,357544,1000,12,0,1,642.625,-25.993,91.757,640.848,37.283,126.960
1782115903.193076,0.785000,357545,1000,12,0,1,712.357,48.599,91.637,648.462,44.054,126.875
1782115903.194076,0.786000,357546,1000,12,0,1,709.354,40.860,91.532,663.427,57.304,126.867
1782115903.195076,0.787000,357547,1000,12,0,1,693.693,12.447,91.539,661.361,56.782,127.087
1782115903.196076,0.788000,357548,1000,12,0,1,717.041,24.635,91.539,606.906,12.758,127.077
1782115903.197076,0.789000,357549,1000,12,0,1,749.229,49.672,91.801,566.624,-25.709,127.010
1782115903.198076,0.790000,357550,1000,12,0,1,741.182,40.063,91.905,585.888,1.201,126.576
1782115903.199076,0.791000,357551,1000,12,0,1,716.753,10.333,91.693,611.879,36.674,125.761
1782115903.200076,0.792000,357552,1000,12,0,1,693.116,-7.802,91.144,638.542,60.967,125.400
1782115903.201076,0.793000,357553,1000,12,0,1,669.985,-22.717,90.391,665.373,83.298,125.898
1782115903.202076,0.794000,357554,1000,12,0,1,624.033,-47.875,90.479,679.281,87.299,126.480
1782115903.203076,0.795000,357555,1000,12,0,1,584.447,-70.773,90.565,690.402,83.882,127.028
1782115903.204076,0.796000,357556,1000,12,0,1,606.834,-35.154,87.041,669.696,56.381,127.114
1782115903.205076,0.797000,357557,1000,12,0,1,643.129,18.781,81.598,653.819,24.256,127.125
1782115903.206076,0.798000,357558,1000,12,0,1,618.628,10.726,79.599,673.011,31.792,127.075
1782115903.207076,0.799000,357559,1000,12,0,1,578.826,-23.410,79.483,692.708,41.682,126.748
1782115903.208076,0.800000,357560,1000,12,0,1,625.354,15.260,79.493,664.628,10.582,126.382
1782115903.209076,0.801000,357561,1000,12,0,1,697.825,87.091,80.437,624.393,-36.286,126.289
1782115903.210076,0.802000,357562,1000,12,0,1,750.694,118.914,82.115,605.033,-53.807,126.291
1782115903.211076,0.803000,357563,1000,12,0,1,776.372,122.159,83.754,616.034,-41.189,126.281
1782115903.212076,0.804000,357564,1000,12,0,1,748.388,74.011,84.360,637.821,-14.851,126.184
1782115903.213076,0.805000,357565,1000,12,0,1,705.751,10.221,84.234,659.440,6.969,124.384
1782115903.214076,0.806000,357566,1000,12,0,1,655.764,-43.420,84.227,670.777,18.524,119.812
1782115903.215076,0.807000,357567,1000,12,0,1,595.977,-99.391,85.380,660.088,9.628,110.615
1782115903.216076,0.808000,357568,1000,12,0,1,543.203,-136.289,87.334,651.657,-0.815,103.092
1782115903.217076,0.809000,357569,1000,12,0,1,525.308,-135.996,89.069,650.888,1.620,100.046
1782115903.218076,0.810000,357570,1000,12,0,1,539.648,-98.197,89.871,640.535,-4.653,99.333
1782115903.219076,0.811000,357571,1000,12,0,1,557.832,-57.499,88.783,628.093,-13.422,98.198
1782115903.220076,0.812000,357572,1000,12,0,1,520.792,-62.834,85.516,643.346,0.220,93.301
1782115903.221076,0.813000,357573,1000,12,0,1,471.910,-89.866,84.077,685.622,38.760,90.950
1782115903.222076,0.814000,357574,1000,12,0,1,465.304,-70.983,84.635,713.102,60.997,91.358
1782115903.223076,0.815000,357575,1000,12,0,1,529.007,5.297,83.384,709.234,47.882,90.802
1782115903.224076,0.816000,357576,1000,12,0,1,620.718,104.046,80.967,704.166,29.735,90.317
1782115903.225076,0.817000,357577,1000,12,0,1,678.320,156.093,79.449,695.302,14.082,90.336
1782115903.226076,0.818000,357578,1000,12,0,1,663.835,132.823,80.500,623.000,-49.511,86.815
1782115903.227076,0.819000,357579,1000,12,0,1,618.244,72.454,81.090,547.960,-121.470,75.823
1782115903.228076,0.820000,357580,1000,12,0,1,595.569,37.212,81.229,547.143,-112.636,66.833
1782115903.229076,0.821000,357581,1000,12,0,1,620.574,48.205,81.022,559.586,-79.067,65.473
1782115903.230076,0.822000,357582,1000,12,0,1,690.690,97.230,80.587,597.322,-38.915,65.703
1782115903.231076,0.823000,357583,1000,12,0,1,721.077,114.431,80.122,703.902,59.213,65.507
1782115903.232076,0.824000,357584,1000,12,0,1,695.495,66.539,79.216,781.080,130.525,67.190
1782115903.233076,0.825000,357585,1000,12,0,1,672.194,24.111,79.051,784.035,115.198,69.034
1782115903.234076,0.826000,357586,1000,12,0,1,717.978,43.423,79.155,752.568,66.769,69.622
1782115903.235076,0.827000,357587,1000,12,0,1,754.705,72.150,78.121,730.108,29.751,68.971
1782115903.236076,0.828000,357588,1000,12,0,1,785.332,74.915,75.453,680.866,-14.834,64.711
1782115903.237076,0.829000,357589,1000,12,0,1,838.466,103.933,74.387,599.220,-86.611,58.508
1782115903.238076,0.830000,357590,1000,12,0,1,835.415,88.142,74.886,541.450,-128.438,57.895
1782115903.239076,0.831000,357591,1000,12,0,1,768.613,8.865,74.741,558.264,-96.994,59.411
1782115903.240076,0.832000,357592,1000,12,0,1,737.699,-33.861,73.699,626.964,-15.608,58.926
1782115903.241076,0.833000,357593,1000,12,0,1,717.209,-45.441,72.805,670.369,37.654,58.561
1782115903.242076,0.834000,357594,1000,12,0,1,697.993,-60.228,73.209,679.929,43.508,58.647
1782115903.243076,0.835000,357595,1000,12,0,1,705.871,-46.819,73.186,586.489,-29.800,58.467
1782115903.244076,0.836000,357596,1000,12,0,1,677.023,-56.816,73.398,472.318,-137.971,61.102
1782115903.245076,0.837000,357597,1000,12,0,1,591.701,-123.507,75.427,469.628,-128.229,63.228
1782115903.246076,0.838000,357598,1000,12,0,1,531.938,-164.981,78.877,521.321,-55.348,63.685
1782115903.247076,0.839000,357599,1000,12,0,1,470.277,-188.128,82.946,562.180,-4.895,63.585
1782115903.248076,0.840000,357600,1000,12,0,1,403.163,-220.116,88.414,583.846,20.804,63.653
1782115903.249076,0.841000,357601,1000,12,0,1,325.720,-248.015,95.106,616.587,44.316,63.750
1782115903.250076,0.842000,357602,1000,12,0,1,255.796,-270.114,102.484,671.330,86.924,64.349
1782115903.251076,0.843000,357603,1000,12,0,1,366.411,-148.011,104.551,696.335,100.979,64.854
1782115903.252076,0.844000,357604,1000,12,0,1,552.259,62.831,104.709,697.632,83.969,64.766
1782115903.253076,0.845000,357605,1000,12,0,1,629.101,139.614,106.083,710.724,78.904,64.641
1782115903.254076,0.846000,357606,1000,12,0,1,714.999,184.433,109.130,711.708,69.724,64.900
1782115903.255076,0.847000,357607,1000,12,0,1,704.070,171.071,111.748,731.766,69.656,65.554
1782115903.256076,0.848000,357608,1000,12,0,1,659.464,87.215,112.416,752.640,81.755,66.414
1782115903.257076,0.849000,357609,1000,12,0,1,710.700,113.175,113.501,735.057,55.826,66.621
1782115903.258076,0.850000,357610,1000,12,0,1,715.888,116.995,114.681,725.953,33.622,66.774
1782115903.259076,0.851000,357611,1000,12,0,1,611.831,13.972,114.034,712.429,20.581,66.640
1782115903.260076,0.852000,357612,1000,12,0,1,545.654,-53.724,113.043,604.024,-67.778,66.894
1782115903.261076,0.853000,357613,1000,12,0,1,599.244,2.053,111.716,458.819,-191.510,71.934
1782115903.262076,0.854000,357614,1000,12,0,1,587.089,24.978,111.280,391.489,-228.645,78.839
1782115903.263076,0.855000,357615,1000,12,0,1,537.775,-22.350,111.316,401.578,-180.345,82.856
1782115903.264076,0.856000,357616,1000,12,0,1,606.186,41.844,111.304,421.803,-123.321,84.631
1782115903.265076,0.857000,357617,1000,12,0,1,618.028,77.362,110.953,468.379,-60.544,85.052
1782115903.266076,0.858000,357618,1000,12,0,1,571.140,21.855,109.310,513.754,0.091,85.052
1782115903.267076,0.859000,357619,1000,12,0,1,562.300,10.819,107.616,518.991,11.007,85.066
1782115903.268076,0.860000,357620,1000,12,0,1,596.673,35.317,106.833,521.705,9.194,85.073
1782115903.269076,0.861000,357621,1000,12,0,1,636.596,64.582,106.914,530.953,16.932,85.086
1782115903.270076,0.862000,357622,1000,12,0,1,606.066,29.755,106.627,540.153,20.639,85.136
1782115903.271076,0.863000,357623,1000,12,0,1,590.452,-11.485,105.879,551.010,27.078,85.046
1782115903.272076,0.864000,357624,1000,12,0,1,648.078,27.419,105.474,565.110,34.851,84.750
1782115903.273076,0.865000,357625,1000,12,0,1,686.030,52.214,105.729,585.240,48.662,84.759
1782115903.274076,0.866000,357626,1000,12,0,1,663.019,15.211,104.722,603.231,60.867,85.091
1782115903.275076,0.867000,357627,1000,12,0,1,641.736,-22.646,102.419,592.926,50.491,85.367
1782115903.276076,0.868000,357628,1000,12,0,1,649.735,-22.098,100.731,572.701,28.333,85.174
1782115903.277076,0.869000,357629,1000,12,0,1,646.612,-22.954,100.261,560.426,20.204,83.473
1782115903.278076,0.870000,357630,1000,12,0,1,629.966,-36.726,100.257,559.225,23.621,82.007
1782115903.279076,0.871000,357631,1000,12,0,1,595.160,-56.899,100.348,555.910,28.153,81.338
1782115903.280076,0.872000,357632,1000,12,0,1,562.516,-74.822,99.963,539.000,19.333,81.198
1782115903.281076,0.873000,357633,1000,12,0,1,540.345,-73.429,99.190,542.002,22.835,80.829
1782115903.282076,0.874000,357634,1000,12,0,1,544.332,-51.228,99.008,571.884,52.450,79.042
1782115903.283076,0.875000,357635,1000,12,0,1,556.751,-17.422,98.980,604.913,78.490,78.138
1782115903.284076,0.876000,357636,1000,12,0,1,585.936,19.201,98.826,643.226,99.850,78.840
1782115903.285076,0.877000,357637,1000,12,0,1,610.437,51.265,98.565,690.570,122.382,80.608
1782115903.286076,0.878000,357638,1000,12,0,1,611.110,51.047,98.260,705.944,114.813,82.200
1782115903.287076,0.879000,357639,1000,12,0,1,632.056,58.338,97.504,648.822,40.888,81.488
1782115903.288076,0.880000,357640,1000,12,0,1,691.771,98.735,97.707,557.832,-61.846,79.917
1782115903.289076,0.881000,357641,1000,12,0,1,708.922,101.265,98.743,528.935,-100.753,80.010
1782115903.290076,0.882000,357642,1000,12,0,1,658.311,33.178,98.738,550.386,-75.125,80.682
1782115903.291076,0.883000,357643,1000,12,0,1,608.660,-34.067,98.646,576.832,-47.130,80.782
1782115903.292076,0.884000,357644,1000,12,0,1,581.973,-65.332,98.711,595.617,-27.580,80.642
1782115903.293076,0.885000,357645,1000,12,0,1,571.932,-76.961,99.088,611.494,-13.636,80.555
1782115903.294076,0.886000,357646,1000,12,0,1,580.628,-66.414,99.208,623.120,-2.752,78.157
1782115903.295076,0.887000,357647,1000,12,0,1,575.079,-62.808,98.061,651.176,18.978,76.071
1782115903.296076,0.888000,357648,1000,12,0,1,586.513,-51.005,95.518,677.767,43.497,75.917
1782115903.297076,0.889000,357649,1000,12,0,1,592.758,-31.314,91.845,688.024,48.308,76.221
1782115903.298076,0.890000,357650,1000,12,0,1,583.150,-32.686,86.532,713.390,61.673,76.662
1782115903.299076,0.891000,357651,1000,12,0,1,561.387,-38.448,79.291,708.442,57.498,76.837
1782115903.300076,0.892000,357652,1000,12,0,1,533.043,-49.438,69.834,636.308,-10.759,75.862
1782115903.301076,0.893000,357653,1000,12,0,1,570.563,-7.973,66.632,508.325,-118.283,76.361
1782115903.302076,0.894000,357654,1000,12,0,1,619.637,57.173,66.530,457.642,-159.949,78.750
1782115903.303076,0.895000,357655,1000,12,0,1,606.354,51.920,63.956,506.812,-88.717,78.959
1782115903.304076,0.896000,357656,1000,12,0,1,558.673,10.247,58.414,568.017,-13.067,78.362
1782115903.305076,0.897000,357657,1000,12,0,1,547.383,-1.768,53.169,621.607,38.106,77.927
1782115903.306076,0.898000,357658,1000,12,0,1,558.937,16.249,51.769,656.077,64.945,77.610
1782115903.307076,0.899000,357659,1000,12,0,1,565.687,22.761,49.338,665.517,58.287,77.646
1782115903.308076,0.900000,357660,1000,12,0,1,596.025,42.121,46.861,681.010,52.825,77.860
1782115903.309076,0.901000,357661,1000,12,0,1,622.207,60.622,47.598,710.628,60.195,78.270
1782115903.310076,0.902000,357662,1000,12,0,1,648.174,64.824,47.874,664.196,12.026,77.699
1782115903.311076,0.903000,357663,1000,12,0,1,692.228,85.179,49.365,537.583,-112.042,74.530
1782115903.312076,0.904000,357664,1000,12,0,1,671.210,54.156,49.831,484.929,-163.940,71.040
1782115903.313076,0.905000,357665,1000,12,0,1,568.473,-54.016,50.314,525.236,-105.919,67.975
1782115903.314076,0.906000,357666,1000,12,0,1,501.888,-124.801,52.990,580.556,-35.553,65.891
1782115903.315076,0.907000,357667,1000,12,0,1,493.385,-118.537,54.491,617.187,10.106,65.348
1782115903.316076,0.908000,357668,1000,12,0,1,521.681,-78.457,55.523,599.196,5.277,65.353
1782115903.317076,0.909000,357669,1000,12,0,1,554.757,-30.351,55.668,524.059,-53.034,65.763
1782115903.318076,0.910000,357670,1000,12,0,1,586.561,6.968,55.452,460.068,-98.625,67.213
1782115903.319076,0.911000,357671,1000,12,0,1,607.795,34.189,54.908,469.532,-71.340,67.924
1782115903.320076,0.912000,357672,1000,12,0,1,622.640,48.650,55.177,524.035,1.719,67.862
1782115903.321076,0.913000,357673,1000,12,0,1,607.195,39.637,55.438,558.937,48.934,68.106
1782115903.322076,0.914000,357674,1000,12,0,1,594.464,24.381,55.409,565.759,57.711,68.416
1782115903.323076,0.915000,357675,1000,12,0,1,603.784,34.901,55.136,519.159,20.493,68.131
1782115903.324076,0.916000,357676,1000,12,0,1,622.856,51.627,55.576,442.965,-48.832,67.937
1782115903.325076,0.917000,357677,1000,12,0,1,579.859,18.865,55.548,439.314,-53.062,67.976
1782115903.326076,0.918000,357678,1000,12,0,1,532.130,-33.392,55.660,442.245,-30.170,67.992
1782115903.327076,0.919000,357679,1000,12,0,1,542.603,-23.016,55.661,410.585,-52.670,68.339
1782115903.328076,0.920000,357680,1000,12,0,1,583.222,16.215,55.465,422.355,-40.168,68.493
1782115903.329076,0.921000,357681,1000,12,0,1,574.791,11.450,54.903,478.035,17.017,68.420
1782115903.330076,0.922000,357682,1000,12,0,1,554.061,-18.704,53.938,531.409,64.723,68.975
1782115903.331076,0.923000,357683,1000,12,0,1,544.693,-29.333,53.091,562.636,85.229,69.946
1782115903.332076,0.924000,357684,1000,12,0,1,504.674,-61.126,53.300,567.080,77.155,70.402
1782115903.333076,0.925000,357685,1000,12,0,1,462.110,-98.872,55.049,582.597,74.659,70.319
1782115903.334076,0.926000,357686,1000,12,0,1,468.667,-84.357,56.261,612.119,90.541,70.066
1782115903.335076,0.927000,357687,1000,12,0,1,499.726,-42.650,56.117,642.889,104.952,69.498
1782115903.336076,0.928000,357688,1000,12,0,1,529.992,-5.769,55.657,645.459,97.358,68.963
1782115903.337076,0.929000,357689,1000,12,0,1,545.846,14.814,55.082,636.284,73.914,69.511
1782115903.338076,0.930000,357690,1000,12,0,1,528.479,5.775,53.289,630.110,59.853,69.476
1782115903.339076,0.931000,357691,1000,12,0,1,514.187,-6.050,51.336,581.853,17.035,68.042
1782115903.340076,0.932000,357692,1000,12,0,1,539.600,22.098,51.216,527.974,-36.007,67.400
1782115903.341076,0.933000,357693,1000,12,0,1,558.913,49.092,51.460,522.113,-36.102,67.264
1782115903.342076,0.934000,357694,1000,12,0,1,518.078,19.895,50.701,585.384,22.599,67.227
1782115903.343076,0.935000,357695,1000,12,0,1,472.270,-21.553,49.613,651.417,86.162,68.295
1782115903.344076,0.936000,357696,1000,12,0,1,463.551,-20.138,48.799,728.019,132.663,70.824
1782115903.345076,0.937000,357697,1000,12,0,1,490.334,11.955,48.014,781.248,160.281,74.314
1782115903.346076,0.938000,357698,1000,12,0,1,528.479,51.983,48.035,781.368,125.186,76.146
1782115903.347076,0.939000,357699,1000,12,0,1,554.445,72.685,48.922,759.510,69.191,76.467
1782115903.348076,0.940000,357700,1000,12,0,1,628.069,118.219,51.493,670.441,-28.953,76.079
1782115903.349076,0.941000,357701,1000,12,0,1,782.185,229.275,60.608,482.047,-204.778,80.997
1782115903.350076,0.942000,357702,1000,12,0,1,852.398,267.246,71.083,392.113,-290.216,90.789
1782115903.351076,0.943000,357703,1000,12,0,1,799.192,167.513,74.919,417.575,-229.218,94.941
1782115903.352076,0.944000,357704,1000,12,0,1,728.787,57.070,74.917,455.888,-159.379,94.921
1782115903.353076,0.945000,357705,1000,12,0,1,657.470,-30.413,74.680,486.563,-105.226,95.258
1782115903.354076,0.946000,357706,1000,12,0,1,595.665,-99.093,75.970,508.422,-63.839,95.667
1782115903.355076,0.947000,357707,1000,12,0,1,593.166,-103.029,77.354,507.749,-47.407,95.750
1782115903.356076,0.948000,357708,1000,12,0,1,631.527,-59.569,77.778,488.725,-48.731,95.558
1782115903.357076,0.949000,357709,1000,12,0,1,564.270,-95.434,78.874,506.740,-24.548,95.265
1782115903.358076,0.950000,357710,1000,12,0,1,422.860,-212.444,84.192,546.494,27.739,95.052
1782115903.359076,0.951000,357711,1000,12,0,1,292.668,-293.522,93.477,583.054,64.301,95.106
1782115903.360076,0.952000,357712,1000,12,0,1,189.571,-333.691,104.311,595.208,78.174,95.731
1782115903.361076,0.953000,357713,1000,12,0,1,126.012,-327.026,113.467,598.379,72.761,94.970
1782115903.362076,0.954000,357714,1000,12,0,1,215.441,-196.970,116.585,587.954,60.299,92.491
1782115903.363076,0.955000,357715,1000,12,0,1,589.924,161.582,118.557,583.390,46.290,91.504
1782115903.364076,0.956000,357716,1000,12,0,1,589.924,241.817,122.122,583.390,42.391,91.562
1782115903.365076,0.957000,357717,1000,12,0,1,650.336,179.949,123.614,624.009,64.826,92.009
1782115903.366076,0.958000,357718,1000,12,0,1,699.914,258.913,128.445,661.625,93.113,92.943
1782115903.367076,0.959000,357719,1000,12,0,1,689.826,172.171,130.662,674.188,85.331,93.423
1782115903.368076,0.960000,357720,1000,12,0,1,728.619,180.808,133.136,644.379,44.808,92.593
1782115903.369076,0.961000,357721,1000,12,0,1,754.153,166.947,135.127,625.955,6.978,92.047
1782115903.370076,0.962000,357722,1000,12,0,1,701.332,87.882,135.523,646.228,14.871,92.071
1782115903.371076,0.963000,357723,1000,12,0,1,585.720,-32.597,135.485,709.186,57.691,92.172
1782115903.372076,0.964000,357724,1000,12,0,1,518.871,-114.878,136.412,721.989,64.676,92.265
1782115903.373076,0.965000,357725,1000,12,0,1,574.046,-53.243,136.531,673.828,4.340,92.221
1782115903.374076,0.966000,357726,1000,12,0,1,644.931,19.093,136.362,662.154,-22.748,92.018
1782115903.375076,0.967000,357727,1000,12,0,1,709.306,77.758,136.779,575.247,-81.998,92.442
1782115903.376076,0.968000,357728,1000,12,0,1,732.630,90.633,137.297,467.899,-181.296,95.837
1782115903.377076,0.969000,357729,1000,12,0,1,743.584,84.580,137.779,408.207,-203.483,99.786
1782115903.378076,0.970000,357730,1000,12,0,1,698.905,38.095,137.865,420.794,-165.606,102.340
1782115903.379076,0.971000,357731,1000,12,0,1,662.466,-11.930,137.866,489.061,-69.548,102.784
1782115903.380076,0.972000,357732,1000,12,0,1,651.777,-21.178,137.873,516.661,-16.036,102.401
1782115903.381076,0.973000,357733,1000,12,0,1,657.037,-19.010,137.837,504.386,-18.330,101.722
1782115903.382076,0.974000,357734,1000,12,0,1,653.458,-20.901,137.597,531.073,8.579,101.142
1782115903.383076,0.975000,357735,1000,12,0,1,648.318,-29.751,136.949,549.809,34.860,100.710
1782115903.384076,0.976000,357736,1000,12,0,1,646.516,-34.443,136.516,535.012,20.117,99.933
1782115903.385076,0.977000,357737,1000,12,0,1,642.865,-39.967,136.499,539.769,17.207,98.855
1782115903.386076,0.978000,357738,1000,12,0,1,606.186,-71.791,136.874,570.683,42.761,98.078
1782115903.387076,0.979000,357739,1000,12,0,1,587.618,-92.949,137.488,588.555,53.770,97.816
1782115903.388076,0.980000,357740,1000,12,0,1,583.414,-87.859,138.046,577.217,36.458,97.585
1782115903.389076,0.981000,357741,1000,12,0,1,581.661,-83.508,138.547,571.980,20.084,97.597
1782115903.390076,0.982000,357742,1000,12,0,1,543.828,-102.286,139.265,571.956,17.654,97.496
1782115903.391076,0.983000,357743,1000,12,0,1,531.794,-108.623,139.938,538.976,-11.116,97.374
1782115903.392076,0.984000,357744,1000,12,0,1,566.383,-60.325,140.170,506.980,-41.055,97.495
1782115903.393076,0.985000,357745,1000,12,0,1,552.884,-49.167,140.309,525.356,-20.597,96.774
1782115903.394076,0.986000,357746,1000,12,0,1,517.982,-72.679,140.656,544.429,9.445,94.948
1782115903.395076,0.987000,357747,1000,12,0,1,525.476,-49.850,140.822,546.422,14.304,92.225
1782115903.396076,0.988000,357748,1000,12,0,1,608.348,32.929,140.707,566.359,32.358,90.625
1782115903.397076,0.989000,357749,1000,12,0,1,627.564,74.390,140.725,591.869,56.900,90.454
1782115903.398076,0.990000,357750,1000,12,0,1,643.153,70.926,140.088,585.816,50.442,90.642
1782115903.399076,0.991000,357751,1000,12,0,1,640.343,77.636,136.726,600.949,51.506,86.200
1782115903.400076,0.992000,357752,1000,12,0,1,586.873,22.622,131.437,642.529,82.872,76.702
1782115903.401076,0.993000,357753,1000,12,0,1,534.844,-24.769,129.332,667.126,93.660,70.766
1782115903.402076,0.994000,357754,1000,12,0,1,427.856,-100.412,129.859,699.194,100.110,68.559
1782115903.403076,0.995000,357755,1000,12,0,1,346.234,-167.038,131.920,718.074,100.436,68.415
1782115903.404076,0.996000,357756,1000,12,0,1,391.561,-102.156,131.966,691.387,55.436,68.268
1782115903.405076,0.997000,357757,1000,12,0,1,513.202,27.657,131.218,663.427,8.429,67.949
1782115903.406076,0.998000,357758,1000,12,0,1,694.149,185.018,133.536,618.028,-38.245,67.814
1782115903.407076,0.999000,357759,1000,12,0,1,763.737,242.374,137.203,612.311,-57.130,68.205
1782115903.408076,1.000000,357760,1000,12,0,1,700.082,143.412,135.400,680.121,1.555,68.093
1782115903.409076,1.001000,357761,1000,12,0,1,651.705,60.733,129.166,763.113,70.812,68.222
1782115903.410076,1.002000,357762,1000,12,0,1,596.770,0.971,120.237,820.690,105.970,68.968
1782115903.411076,1.003000,357763,1000,12,0,1,602.030,-16.969,111.012,797.198,69.737,68.906
1782115903.412076,1.004000,357764,1000,12,0,1,698.497,66.259,107.869,707.265,-31.249,68.519
1782115903.413076,1.005000,357765,1000,12,0,1,798.591,145.740,107.416,630.543,-108.092,69.897
1782115903.414076,1.006000,357766,1000,12,0,1,813.292,143.806,103.838,605.969,-123.499,71.796
1782115903.415076,1.007000,357767,1000,12,0,1,779.855,83.933,101.369,584.087,-121.051,73.238
1782115903.416076,1.008000,357768,1000,12,0,1,726.001,21.107,94.572,583.967,-108.295,73.654
1782115903.417076,1.009000,357769,1000,12,0,1,683.676,-27.961,91.469,607.603,-66.765,73.269
1782115903.418076,1.010000,357770,1000,12,0,1,657.350,-48.162,88.086,623.192,-38.621,73.199
1782115903.419076,1.011000,357771,1000,12,0,1,630.831,-63.754,85.341,620.574,-31.416,73.327
1782115903.420076,1.012000,357772,1000,12,0,1,611.038,-72.777,85.056,617.740,-29.287,73.414
1782115903.421076,1.013000,357773,1000,12,0,1,615.265,-58.862,85.338,640.823,-7.421,72.967
1782115903.422076,1.014000,357774,1000,12,0,1,607.147,-53.169,84.114,671.138,22.405,72.460
1782115903.423076,1.015000,357775,1000,12,0,1,603.567,-53.121,84.112,687.664,32.124,72.600
1782115903.424076,1.016000,357776,1000,12,0,1,586.753,-58.347,84.473,715.528,45.663,72.816
1782115903.425076,1.017000,357777,1000,12,0,1,549.425,-87.078,84.655,734.888,54.419,72.297
1782115903.426076,1.018000,357778,1000,12,0,1,576.256,-66.045,84.198,732.703,38.860,67.821
1782115903.427076,1.019000,357779,1000,12,0,1,591.485,-35.353,83.494,742.383,31.994,61.580
1782115903.428076,1.020000,357780,1000,12,0,1,521.032,-93.703,84.367,830.251,89.492,58.342
1782115903.429076,1.021000,357781,1000,12,0,1,441.212,-159.756,87.324,940.073,173.117,62.501
1782115903.430076,1.022000,357782,1000,12,0,1,382.962,-188.951,91.272,997.795,194.832,68.268
1782115903.431076,1.023000,357783,1000,12,0,1,418.440,-139.412,93.338,989.964,152.172,71.532
1782115903.432076,1.024000,357784,1000,12,0,1,516.613,-20.114,93.335,926.357,63.554,72.084
1782115903.433076,1.025000,357785,1000,12,0,1,636.932,95.404,94.211,814.037,-54.288,72.324
1782115903.434076,1.026000,357786,1000,12,0,1,705.271,161.064,96.803,763.089,-113.158,74.019
1782115903.435076,1.027000,357787,1000,12,0,1,699.074,139.472,98.630,779.975,-84.673,74.942
1782115903.436076,1.028000,357788,1000,12,0,1,676.254,100.512,99.131,810.650,-46.370,74.985
1782115903.437076,1.029000,357789,1000,12,0,1,688.505,96.881,99.206,782.906,-56.235,75.021
1782115903.438076,1.030000,357790,1000,12,0,1,726.890,121.203,99.906,670.969,-144.361,77.578
1782115903.439076,1.031000,357791,1000,12,0,1,774.811,150.179,101.454,506.812,-268.682,86.337
1782115903.440076,1.032000,357792,1000,12,0,1,780.456,141.534,102.392,421.275,-317.178,97.262
1782115903.441076,1.033000,357793,1000,12,0,1,682.451,43.261,101.418,450.580,-242.526,103.120
1782115903.442076,1.034000,357794,1000,12,0,1,622.784,-35.613,101.184,441.404,-191.112,106.445
1782115903.443076,1.035000,357795,1000,12,0,1,606.570,-39.297,101.098,419.881,-182.657,109.496
1782115903.444076,1.036000,357796,1000,12,0,1,591.125,-51.956,100.842,447.577,-123.032,110.862
1782115903.445076,1.037000,357797,1000,12,0,1,580.123,-54.858,100.894,511.400,-42.598,111.007
1782115903.446076,1.038000,357798,1000,12,0,1,552.427,-72.476,101.306,581.516,36.061,111.030
1782115903.447076,1.039000,357799,1000,12,0,1,521.177,-96.074,101.671,612.311,68.932,111.166
1782115903.448076,1.040000,357800,1000,12,0,1,564.750,-57.625,101.502,628.693,74.524,111.436
1782115903.449076,1.041000,357801,1000,12,0,1,635.323,13.754,100.925,613.032,60.564,111.527
1782115903.450076,1.042000,357802,1000,12,0,1,713.702,71.420,101.379,566.431,14.354,110.928
1782115903.451076,1.043000,357803,1000,12,0,1,732.054,80.292,101.953,534.916,-10.150,110.144
1782115903.452076,1.044000,357804,1000,12,0,1,690.402,20.749,101.002,536.406,1.862,109.231
1782115903.453076,1.045000,357805,1000,12,0,1,628.213,-45.774,98.414,554.229,32.818,108.403
1782115903.454076,1.046000,357806,1000,12,0,1,552.427,-110.442,98.592,599.412,80.854,108.722
1782115903.455076,1.047000,357807,1000,12,0,1,493.529,-151.359,100.813,641.136,126.507,110.178
1782115903.456076,1.048000,357808,1000,12,0,1,447.649,-161.749,100.010,651.657,133.747,111.658
1782115903.457076,1.049000,357809,1000,12,0,1,396.605,-172.937,97.084,635.275,112.757,112.502
1782115903.458076,1.050000,357810,1000,12,0,1,392.161,-142.692,97.062,592.206,69.490,112.930
1782115903.459076,1.051000,357811,1000,12,0,1,479.044,-34.057,96.802,572.244,42.091,112.642
1782115903.460076,1.052000,357812,1000,12,0,1,527.134,47.332,97.033,589.683,56.125,111.923
1782115903.461076,1.053000,357813,1000,12,0,1,494.586,27.658,97.082,622.376,78.324,112.036
1782115903.462076,1.054000,357814,1000,12,0,1,564.630,78.633,97.266,635.059,80.772,112.530
1782115903.463076,1.055000,357815,1000,12,0,1,670.321,182.261,98.490,626.123,55.156,111.760
1782115903.464076,1.056000,357816,1000,12,0,1,666.598,165.851,99.181,634.578,42.482,110.550
1782115903.465076,1.057000,357817,1000,12,0,1,653.675,118.533,99.885,639.454,33.947,109.322
1782115903.466076,1.058000,357818,1000,12,0,1,690.378,126.923,101.441,592.806,-18.630,108.276
1782115903.467076,1.059000,357819,1000,12,0,1,619.517,56.663,101.680,564.342,-60.295,108.200
1782115903.468076,1.060000,357820,1000,12,0,1,527.110,-57.082,101.772,575.223,-49.895,108.292
1782115903.469076,1.061000,357821,1000,12,0,1,518.078,-68.417,101.833,642.337,3.779,108.202
1782115903.470076,1.062000,357822,1000,12,0,1,507.028,-66.222,101.743,701.428,60.083,108.456
1782115903.471076,1.063000,357823,1000,12,0,1,462.710,-98.118,102.347,679.377,35.050,108.564
1782115903.472076,1.064000,357824,1000,12,0,1,540.489,-34.432,102.187,569.722,-64.172,108.897
1782115903.473076,1.065000,357825,1000,12,0,1,601.069,47.238,102.129,526.701,-108.865,109.886
1782115903.474076,1.066000,357826,1000,12,0,1,531.097,-14.184,101.815,577.049,-42.443,109.860
1782115903.475076,1.067000,357827,1000,12,0,1,483.512,-64.716,101.481,648.414,37.209,109.717
1782115903.476076,1.068000,357828,1000,12,0,1,452.405,-69.346,101.525,685.262,77.839,110.130
1782115903.477076,1.069000,357829,1000,12,0,1,418.608,-86.103,102.130,666.718,60.370,110.368
1782115903.478076,1.070000,357830,1000,12,0,1,461.749,-32.496,101.371,609.308,4.410,109.642
1782115903.479076,1.071000,357831,1000,12,0,1,530.232,48.860,99.062,561.771,-38.837,107.015
1782115903.480076,1.072000,357832,1000,12,0,1,553.941,77.136,96.012,559.706,-38.072,103.547
1782115903.481076,1.073000,357833,1000,12,0,1,567.152,80.537,94.654,569.290,-18.982,101.321
1782115903.482076,1.074000,357834,1000,12,0,1,593.503,95.614,95.572,588.122,-3.999,100.923
1782115903.483076,1.075000,357835,1000,12,0,1,605.225,95.414,95.573,594.295,4.022,100.633
1782115903.484076,1.076000,357836,1000,12,0,1,576.184,57.576,93.175,592.734,-6.296,99.356
1782115903.485076,1.077000,357837,1000,12,0,1,538.015,8.589,91.071,623.841,11.583,98.645
1782115903.486076,1.078000,357838,1000,12,0,1,453.991,-62.664,90.391,680.890,52.253,98.704
1782115903.487076,1.079000,357839,1000,12,0,1,401.073,-116.068,90.842,736.402,85.608,99.125
1782115903.488076,1.080000,357840,1000,12,0,1,422.668,-82.223,89.964,786.076,106.774,98.168
1782115903.489076,1.081000,357841,1000,12,0,1,476.690,-21.597,87.475,892.344,164.360,93.453
1782115903.490076,1.082000,357842,1000,12,0,1,473.423,-9.785,85.165,874.617,140.318,84.352
1782115903.491076,1.083000,357843,1000,12,0,1,461.749,-25.351,85.021,768.830,2.616,77.065
1782115903.492076,1.084000,357844,1000,12,0,1,357.572,-93.599,85.898,680.650,-84.280,73.148
1782115903.493076,1.085000,357845,1000,12,0,1,258.318,-180.801,89.450,705.583,-70.507,69.158
1782115903.494076,1.086000,357846,1000,12,0,1,307.777,-113.732,90.587,768.637,6.606,66.940
1782115903.495076,1.087000,357847,1000,12,0,1,440.971,35.140,90.391,819.033,51.078,67.058
1782115903.496076,1.088000,357848,1000,12,0,1,561.075,150.817,92.306,861.285,83.985,67.911
1782115903.497076,1.089000,357849,1000,12,0,1,608.708,187.909,95.089,813.916,43.053,67.483
1782115903.498076,1.090000,357850,1000,12,0,1,699.602,226.478,100.007,593.311,-148.278,69.875
1782115903.499076,1.091000,357851,1000,12,0,1,820.018,307.688,109.046,388.198,-326.293,83.298
1782115903.500076,1.092000,357852,1000,12,0,1,792.658,249.325,114.159,400.449,-284.652,92.493
1782115903.501076,1.093000,357853,1000,12,0,1,761.047,156.482,115.729,456.177,-166.805,95.443
1782115903.502076,1.094000,357854,1000,12,0,1,779.423,142.116,117.424,429.225,-155.775,97.952
1782115903.503076,1.095000,357855,1000,12,0,1,765.827,100.459,118.103,444.406,-124.292,99.408
1782115903.504076,1.096000,357856,1000,12,0,1,704.406,21.707,117.106,537.895,-22.505,98.800
1782115903.505076,1.097000,357857,1000,12,0,1,662.106,-38.164,115.260,623.192,63.670,97.583
1782115903.506076,1.098000,357858,1000,12,0,1,649.015,-54.581,113.230,669.024,93.484,96.641
1782115903.507076,1.099000,357859,1000,12,0,1,662.370,-47.055,110.758,667.847,77.107,95.938
1782115903.508076,1.100000,357860,1000,12,0,1,705.007,-13.284,108.920,621.703,19.558,95.473
1782115903.509076,1.101000,357861,1000,12,0,1,731.165,7.447,108.819,581.829,-28.252,95.371
1782115903.510076,1.102000,357862,1000,12,0,1,651.753,-63.694,108.985,688.216,49.405,95.297
1782115903.511076,1.103000,357863,1000,12,0,1,543.780,-169.044,111.508,888.068,225.799,99.892
1782115903.512076,1.104000,357864,1000,12,0,1,546.254,-164.222,113.357,1020.806,322.517,109.217
1782115903.513076,1.105000,357865,1000,12,0,1,597.466,-93.985,111.185,1124.648,358.296,120.146
1782115903.514076,1.106000,357866,1000,12,0,1,583.102,-89.776,109.422,1264.136,420.381,133.915
1782115903.515076,1.107000,357867,1000,12,0,1,627.444,-58.339,108.444,1221.691,340.963,142.251
1782115903.516076,1.108000,357868,1000,12,0,1,773.322,73.351,107.450,955.398,47.136,142.383
1782115903.517076,1.109000,357869,1000,12,0,1,779.231,89.306,107.893,795.156,-143.634,143.572
1782115903.518076,1.110000,357870,1000,12,0,1,787.013,49.730,107.820,567.512,-293.349,149.279
1782115903.519076,1.111000,357871,1000,12,0,1,853.695,101.016,108.331,247.509,-544.739,167.984
1782115903.520076,1.112000,357872,1000,12,0,1,826.960,64.605,108.312,142.130,-574.501,186.407
1782115903.521076,1.113000,357873,1000,12,0,1,647.093,-101.271,108.370,327.738,-323.030,191.859
1782115903.522076,1.114000,357874,1000,12,0,1,479.116,-255.559,114.134,569.914,-28.156,191.685
1782115903.523076,1.115000,357875,1000,12,0,1,426.367,-270.305,120.180,706.520,118.087,191.795
1782115903.524076,1.116000,357876,1000,12,0,1,439.770,-208.600,123.731,724.944,121.341,192.467
1782115903.525076,1.117000,357877,1000,12,0,1,533.163,-92.511,124.084,617.956,8.260,192.399
1782115903.526076,1.118000,357878,1000,12,0,1,640.872,39.219,123.820,469.916,-146.589,193.199
1782115903.527076,1.119000,357879,1000,12,0,1,656.413,65.032,123.563,397.686,-209.981,195.281
1782115903.528076,1.120000,357880,1000,12,0,1,658.647,55.775,123.729,425.814,-168.415,196.728
1782115903.529076,1.121000,357881,1000,12,0,1,610.317,19.026,123.565,529.896,-55.197,196.806
1782115903.530076,1.122000,357882,1000,12,0,1,509.647,-74.612,123.534,699.482,100.301,197.243
1782115903.531076,1.123000,357883,1000,12,0,1,513.274,-76.150,123.478,849.947,231.623,199.926
1782115903.532076,1.124000,357884,1000,12,0,1,624.273,35.503,122.838,862.967,225.912,202.462
1782115903.533076,1.125000,357885,1000,12,0,1,668.567,85.731,122.695,772.409,115.876,203.123
1782115903.534076,1.126000,357886,1000,12,0,1,620.238,30.816,122.503,654.539,0.637,203.121
1782115903.535076,1.127000,357887,1000,12,0,1,614.305,6.653,122.500,511.784,-109.936,203.709
1782115903.536076,1.128000,357888,1000,12,0,1,702.244,76.949,122.663,318.298,-239.261,206.368
1782115903.537076,1.129000,357889,1000,12,0,1,705.223,86.821,122.178,251.809,-259.352,209.252
1782115903.538076,1.130000,357890,1000,12,0,1,592.662,-26.927,121.683,334.344,-114.112,209.329
1782115903.539076,1.131000,357891,1000,12,0,1,502.008,-112.231,122.676,445.824,38.295,208.105
1782115903.540076,1.132000,357892,1000,12,0,1,494.009,-104.207,123.550,493.072,112.087,207.763
1782115903.541076,1.133000,357893,1000,12,0,1,527.638,-49.916,123.700,478.780,102.641,208.269
1782115903.542076,1.134000,357894,1000,12,0,1,565.759,2.880,122.990,427.256,53.199,208.063
1782115903.543076,1.135000,357895,1000,12,0,1,591.965,37.098,120.417,392.450,11.781,207.831
1782115903.544076,1.136000,357896,1000,12,0,1,558.913,19.281,119.369,415.990,22.531,207.853
1782115903.545076,1.137000,357897,1000,12,0,1,525.236,-14.074,119.282,435.158,36.237,207.791
1782115903.546076,1.138000,357898,1000,12,0,1,513.994,-12.833,117.374,439.362,20.472,207.472
1782115903.547076,1.139000,357899,1000,12,0,1,504.410,-13.787,114.343,450.604,15.355,207.394
1782115903.548076,1.140000,357900,1000,12,0,1,519.039,3.408,109.766,450.724,1.957,206.331
1782115903.549076,1.141000,357901,1000,12,0,1,524.563,16.756,100.801,462.134,-1.566,201.105
1782115903.550076,1.142000,357902,1000,12,0,1,503.906,-1.860,94.433,483.800,12.984,197.043
1782115903.551076,1.143000,357903,1000,12,0,1,476.930,-24.610,91.870,513.322,34.559,195.687
1782115903.552076,1.144000,357904,1000,12,0,1,456.153,-40.249,89.825,539.889,59.121,194.623
1782115903.553076,1.145000,357905,1000,12,0,1,411.474,-68.007,89.214,556.103,74.008,194.110
1782115903.554076,1.146000,357906,1000,12,0,1,337.875,-120.600,90.778,583.678,98.255,194.580
1782115903.555076,1.147000,357907,1000,12,0,1,335.881,-112.173,91.995,602.414,120.107,195.113
1782115903.556076,1.148000,357908,1000,12,0,1,394.924,-33.283,91.792,594.464,113.900,195.330
1782115903.557076,1.149000,357909,1000,12,0,1,393.603,-9.939,91.561,601.862,116.417,195.719
1782115903.558076,1.150000,357910,1000,12,0,1,452.453,34.095,91.669,600.541,118.163,196.411
1782115903.559076,1.151000,357911,1000,12,0,1,533.091,122.028,93.273,580.291,93.448,196.815
1782115903.560076,1.152000,357912,1000,12,0,1,591.245,159.144,95.526,562.612,70.028,196.940
1782115903.561076,1.153000,357913,1000,12,0,1,665.108,205.454,96.943,553.989,52.440,194.475
1782115903.562076,1.154000,357914,1000,12,0,1,713.798,226.317,99.413,557.111,41.529,189.142
1782115903.563076,1.155000,357915,1000,12,0,1,680.289,169.467,101.394,577.121,40.930,182.320
1782115903.564076,1.156000,357916,1000,12,0,1,629.366,91.637,101.427,610.365,46.706,172.482
1782115903.565076,1.157000,357917,1000,12,0,1,632.969,72.006,101.602,639.334,44.853,165.726
1782115903.566076,1.158000,357918,1000,12,0,1,674.549,96.575,101.990,653.026,24.742,165.629
1782115903.567076,1.159000,357919,1000,12,0,1,669.840,82.095,101.869,659.560,-1.852,164.379
1782115903.568076,1.160000,357920,1000,12,0,1,611.782,14.450,101.646,668.519,-22.581,159.090
1782115903.569076,1.161000,357921,1000,12,0,1,552.668,-49.852,100.884,680.241,-34.399,139.278
1782115903.570076,1.162000,357922,1000,12,0,1,558.240,-51.267,100.731,678.368,-50.135,113.347
1782115903.571076,1.163000,357923,1000,12,0,1,577.169,-26.886,99.780,667.943,-68.203,104.181
1782115903.572076,1.164000,357924,1000,12,0,1,551.587,-48.003,93.252,662.010,-72.770,104.612
1782115903.573076,1.165000,357925,1000,12,0,1,523.507,-77.145,85.753,660.544,-65.146,103.681
1782115903.574076,1.166000,357926,1000,12,0,1,533.307,-66.900,81.073,657.230,-53.280,102.528
1782115903.575076,1.167000,357927,1000,12,0,1,584.063,-21.805,80.070,646.901,-43.954,102.710
1782115903.576076,1.168000,357928,1000,12,0,1,631.527,21.130,79.934,646.420,-26.779,100.667
1782115903.577076,1.169000,357929,1000,12,0,1,640.775,20.964,79.458,669.504,11.174,96.200
1782115903.578076,1.170000,357930,1000,12,0,1,639.262,6.322,79.071,711.204,60.044,93.591
1782115903.579076,1.171000,357931,1000,12,0,1,647.717,4.083,79.027,755.907,102.588,94.387
1782115903.580076,1.172000,357932,1000,12,0,1,646.108,-2.109,78.320,791.457,125.078,94.977
1782115903.581076,1.173000,357933,1000,12,0,1,632.440,-19.097,77.623,821.171,130.754,91.047
1782115903.582076,1.174000,357934,1000,12,0,1,610.629,-37.628,77.643,825.951,109.900,86.662
1782115903.583076,1.175000,357935,1000,12,0,1,602.703,-42.840,76.929,789.151,47.390,85.362
1782115903.584076,1.176000,357936,1000,12,0,1,605.561,-31.429,76.934,747.403,-21.127,85.415
1782115903.585076,1.177000,357937,1000,12,0,1,648.342,7.778,76.937,664.628,-107.366,85.349
1782115903.586076,1.178000,357938,1000,12,0,1,693.981,55.696,76.569,574.094,-201.940,83.398
1782115903.587076,1.179000,357939,1000,12,0,1,672.819,37.375,75.763,564.558,-210.245,80.585
1782115903.588076,1.180000,357940,1000,12,0,1,608.540,-26.016,75.757,623.985,-144.086,81.540
1782115903.589076,1.181000,357941,1000,12,0,1,573.830,-58.660,74.538,670.513,-88.486,82.317
1782115903.590076,1.182000,357942,1000,12,0,1,574.478,-50.018,73.409,692.228,-65.464,81.305
1782115903.591076,1.183000,357943,1000,12,0,1,579.114,-36.783,73.253,699.074,-53.986,80.362
1782115903.592076,1.184000,357944,1000,12,0,1,577.913,-33.219,73.403,696.359,-49.229,80.311
1782115903.593076,1.185000,357945,1000,12,0,1,567.032,-38.448,73.417,683.460,-48.281,80.584
1782115903.594076,1.186000,357946,1000,12,0,1,560.186,-43.860,73.628,677.527,-39.064,80.710
1782115903.595076,1.187000,357947,1000,12,0,1,554.541,-44.085,73.864,680.578,-16.847,80.582
1782115903.596076,1.188000,357948,1000,12,0,1,544.909,-49.605,74.174,685.286,6.648,80.536
1782115903.597076,1.189000,357949,1000,12,0,1,527.014,-59.237,74.621,686.679,24.982,80.584
1782115903.598076,1.190000,357950,1000,12,0,1,525.308,-56.967,75.053,682.043,35.097,80.736
1782115903.599076,1.191000,357951,1000,12,0,1,559.441,-20.304,75.070,666.694,32.203,80.864
1782115903.600076,1.192000,357952,1000,12,0,1,626.891,42.205,75.307,683.172,48.060,81.129
1782115903.601076,1.193000,357953,1000,12,0,1,639.334,60.065,75.704,704.190,71.713,81.614
1782115903.602076,1.194000,357954,1000,12,0,1,574.142,-2.583,75.491,716.080,72.299,81.826
1782115903.603076,1.195000,357955,1000,12,0,1,543.300,-36.887,75.057,736.930,75.418,81.852
1782115903.604076,1.196000,357956,1000,12,0,1,544.092,-21.430,73.157,749.517,68.677,81.246
1782115903.605076,1.197000,357957,1000,12,0,1,545.846,-10.678,71.432,750.910,45.290,79.709
1782115903.606076,1.198000,357958,1000,12,0,1,570.803,19.345,71.329,745.193,17.769,78.104
1782115903.607076,1.199000,357959,1000,12,0,1,581.829,39.382,71.532,745.145,-5.415,76.353
1782115903.608076,1.200000,357960,1000,12,0,1,556.703,19.996,71.426,741.542,-23.210,74.574
1782115903.609076,1.201000,357961,1000,12,0,1,530.473,-2.728,69.311,729.268,-46.759,73.691
1782115903.610076,1.202000,357962,1000,12,0,1,532.058,1.141,65.555,716.128,-63.508,73.573
1782115903.611076,1.203000,357963,1000,12,0,1,554.061,24.163,58.863,699.866,-75.379,73.971
1782115903.612076,1.204000,357964,1000,12,0,1,568.785,37.682,49.688,697.752,-70.772,74.413
1782115903.613076,1.205000,357965,1000,12,0,1,587.882,46.223,44.014,704.550,-49.630,74.519
1782115903.614076,1.206000,357966,1000,12,0,1,597.058,48.126,42.610,707.985,-31.155,74.356
1782115903.615076,1.207000,357967,1000,12,0,1,590.284,30.058,41.593,707.505,-15.024,74.116
1782115903.616076,1.208000,357968,1000,12,0,1,575.920,7.710,39.302,706.760,-0.189,74.033
1782115903.617076,1.209000,357969,1000,12,0,1,572.485,-4.643,37.554,708.033,15.398,74.065
1782115903.618076,1.210000,357970,1000,12,0,1,568.089,-10.870,37.530,713.558,31.499,74.130
1782115903.619076,1.211000,357971,1000,12,0,1,569.482,-14.126,36.916,723.575,47.341,74.272
1782115903.620076,1.212000,357972,1000,12,0,1,576.400,-7.582,36.213,727.010,53.313,74.317
1782115903.621076,1.213000,357973,1000,12,0,1,575.992,-6.716,36.025,728.163,49.724,74.023
1782115903.622076,1.214000,357974,1000,12,0,1,572.389,-9.033,35.403,735.537,48.102,73.619
1782115903.623076,1.215000,357975,1000,12,0,1,574.382,-4.180,33.685,738.948,40.163,73.261
1782115903.624076,1.216000,357976,1000,12,0,1,579.523,4.205,32.334,744.016,28.335,72.982
1782115903.625076,1.217000,357977,1000,12,0,1,582.717,11.309,32.227,750.166,17.876,72.761
1782115903.626076,1.218000,357978,1000,12,0,1,586.585,16.847,32.176,755.354,4.792,72.665
1782115903.627076,1.219000,357979,1000,12,0,1,590.812,22.881,32.202,764.242,-4.078,72.651
1782115903.628076,1.220000,357980,1000,12,0,1,594.223,25.769,32.396,770.727,-12.085,72.173
1782115903.629076,1.221000,357981,1000,12,0,1,596.289,26.484,32.606,774.859,-20.567,70.759
1782115903.630076,1.222000,357982,1000,12,0,1,595.761,23.050,32.767,780.023,-23.688,68.595
1782115903.631076,1.223000,357983,1000,12,0,1,597.418,19.820,32.776,785.548,-22.520,66.132
1782115903.632076,1.224000,357984,1000,12,0,1,603.255,19.518,32.459,790.160,-18.069,64.331
1782115903.633076,1.225000,357985,1000,12,0,1,615.866,23.095,32.055,794.027,-11.195,64.000
1782115903.634076,1.226000,357986,1000,12,0,1,627.012,25.184,31.945,802.747,1.828,63.931
1782115903.635076,1.227000,357987,1000,12,0,1,631.552,19.007,32.039,815.886,20.396,62.168
1782115903.636076,1.228000,357988,1000,12,0,1,632.536,9.624,31.085,834.022,41.498,55.532
1782115903.637076,1.229000,357989,1000,12,0,1,611.230,-15.079,30.707,841.012,52.717,47.490
1782115903.638076,1.230000,357990,1000,12,0,1,569.026,-57.102,31.537,821.939,37.587,43.224
1782115903.639076,1.231000,357991,1000,12,0,1,575.367,-56.473,31.457,799.504,15.870,41.434
1782115903.640076,1.232000,357992,1000,12,0,1,633.497,0.478,30.651,817.784,27.975,40.580
1782115903.641076,1.233000,357993,1000,12,0,1,655.236,26.214,30.433,837.409,46.473,40.393
1782115903.642076,1.234000,357994,1000,12,0,1,644.811,9.870,30.101,831.932,31.499,40.037
1782115903.643076,1.235000,357995,1000,12,0,1,603.952,-23.586,29.793,825.951,12.048,39.488
1782115903.644076,1.236000,357996,1000,12,0,1,562.780,-60.371,30.365,821.171,-4.620,39.105
1782115903.645076,1.237000,357997,1000,12,0,1,569.242,-47.039,30.454,826.287,-15.664,39.095
1782115903.646076,1.238000,357998,1000,12,0,1,589.395,-14.435,29.705,848.242,-9.902,39.109
1782115903.647076,1.239000,357999,1000,12,0,1,574.887,-16.463,28.594,877.211,0.910,38.949
1782115903.648076,1.240000,358000,1000,12,0,1,560.186,-26.234,27.686,890.470,-0.876,38.632
1782115903.649076,1.241000,358001,1000,12,0,1,565.014,-14.709,27.615,868.996,-32.156,38.631
1782115903.650076,1.242000,358002,1000,12,0,1,570.683,-3.068,26.965,841.180,-67.063,39.193
1782115903.651076,1.243000,358003,1000,12,0,1,547.119,-17.817,25.716,833.277,-74.182,39.285
1782115903.652076,1.244000,358004,1000,12,0,1,509.478,-49.006,26.631,809.473,-83.227,39.715
1782115903.653076,1.245000,358005,1000,12,0,1,519.759,-39.411,26.703,799.600,-83.987,40.058
1782115903.654076,1.246000,358006,1000,12,0,1,589.299,26.162,26.788,832.965,-38.014,39.232
1782115903.655076,1.247000,358007,1000,12,0,1,617.716,56.704,27.921,846.753,-4.674,38.712
1782115903.656076,1.248000,358008,1000,12,0,1,617.716,41.001,28.386,846.753,3.360,38.633
1782115903.657076,1.249000,358009,1000,12,0,1,661.001,63.784,29.259,843.678,13.042,38.669
1782115903.658076,1.250000,358010,1000,12,0,1,678.248,74.034,30.947,835.535,12.973,38.574
1782115903.659076,1.251000,358011,1000,12,0,1,687.664,59.392,32.064,835.055,18.297,38.091
1782115903.660076,1.252000,358012,1000,12,0,1,685.694,49.816,32.829,848.050,32.199,37.296
1782115903.661076,1.253000,358013,1000,12,0,1,676.566,26.338,32.862,861.189,43.085,36.255
1782115903.662076,1.254000,358014,1000,12,0,1,662.514,9.793,32.457,873.175,45.853,35.445
1782115903.663076,1.255000,358015,1000,12,0,1,643.250,-10.913,31.829,892.224,49.898,35.452
1782115903.664076,1.256000,358016,1000,12,0,1,572.004,-63.643,32.369,884.417,31.996,35.467
1782115903.665076,1.257000,358017,1000,12,0,1,500.255,-122.118,36.441,827.536,-31.966,35.691
1782115903.666076,1.258000,358018,1000,12,0,1,541.666,-74.570,37.921,805.365,-68.726,36.991
1782115903.667076,1.259000,358019,1000,12,0,1,633.089,31.246,38.172,848.458,-34.184,37.242
1782115903.668076,1.260000,358020,1000,12,0,1,655.716,60.571,39.091,876.610,-7.673,36.990
1782115903.669076,1.261000,358021,1000,12,0,1,626.483,28.190,39.243,866.810,-23.678,36.533
1782115903.670076,1.262000,358022,1000,12,0,1,604.985,1.077,39.229,869.260,-29.129,35.983
1782115903.671076,1.263000,358023,1000,12,0,1,594.007,-9.439,39.240,867.819,-26.861,35.493
1782115903.672076,1.264000,358024,1000,12,0,1,563.453,-35.145,39.533,861.958,-31.052,35.111
1782115903.673076,1.265000,358025,1000,12,0,1,563.453,-40.425,39.939,861.958,-23.696,34.810
1782115903.674076,1.266000,358026,1000,12,0,1,481.350,-91.411,41.975,835.631,-33.570,34.903
1782115903.675076,1.267000,358027,1000,12,0,1,473.375,-115.420,45.009,829.578,-32.880,35.121
1782115903.676076,1.268000,358028,1000,12,0,1,510.343,-50.971,45.520,850.428,2.840,35.116
1782115903.677076,1.269000,358029,1000,12,0,1,543.732,-20.678,45.499,856.986,21.452,35.242
1782115903.678076,1.270000,358030,1000,12,0,1,588.747,25.295,45.494,852.998,24.627,35.373
1782115903.679076,1.271000,358031,1000,12,0,1,619.757,51.947,45.931,822.083,6.283,35.264
1782115903.680076,1.272000,358032,1000,12,0,1,632.224,54.756,46.465,797.030,-15.484,35.173
1782115903.681076,1.273000,358033,1000,12,0,1,649.183,62.270,47.209,803.732,-3.942,35.033
1782115903.682076,1.274000,358034,1000,12,0,1,675.894,75.016,48.307,816.126,10.829,34.973
1782115903.683076,1.275000,358035,1000,12,0,1,691.579,83.636,49.627,810.049,4.977,34.944
1782115903.684076,1.276000,358036,1000,12,0,1,696.624,74.427,50.606,805.990,-5.871,34.953
1782115903.685076,1.277000,358037,1000,12,0,1,708.274,75.625,51.653,808.176,-8.603,34.855
1782115903.686076,1.278000,358038,1000,12,0,1,702.100,62.158,52.378,814.397,-10.120,34.387
1782115903.687076,1.279000,358039,1000,12,0,1,677.959,32.570,52.537,822.204,-9.417,33.596
1782115903.688076,1.280000,358040,1000,12,0,1,663.619,12.225,51.942,828.857,-9.695,33.201
1782115903.689076,1.281000,358041,1000,12,0,1,635.059,-10.802,51.347,836.544,-8.469,33.147
1782115903.690076,1.282000,358042,1000,12,0,1,614.617,-33.367,51.563,836.592,-10.149,32.941
1782115903.691076,1.283000,358043,1000,12,0,1,612.791,-30.733,51.613,844.543,-6.498,32.292
1782115903.692076,1.284000,358044,1000,12,0,1,579.835,-52.752,52.131,845.816,-0.289,31.983
1782115903.693076,1.285000,358045,1000,12,0,1,545.053,-83.739,53.355,841.540,-2.180,31.939
1782115903.694076,1.286000,358046,1000,12,0,1,506.524,-104.987,54.720,817.928,-12.577,31.982
1782115903.695076,1.287000,358047,1000,12,0,1,474.120,-124.956,57.117,777.813,-38.371,32.363
1782115903.696076,1.288000,358048,1000,12,0,1,537.775,-63.866,57.790,779.255,-27.158,32.560
1782115903.697076,1.289000,358049,1000,12,0,1,618.244,25.243,57.854,816.367,23.128,32.724
1782115903.698076,1.290000,358050,1000,12,0,1,621.367,27.546,57.866,845.672,59.266,33.780
1782115903.699076,1.291000,358051,1000,12,0,1,587.690,-11.722,57.852,829.218,50.791,34.235
1782115903.700076,1.292000,358052,1000,12,0,1,558.745,-39.893,58.125,802.603,21.500,33.035
1782115903.701076,1.293000,358053,1000,12,0,1,547.359,-46.787,58.446,799.672,17.750,31.425
1782115903.702076,1.294000,358054,1000,12,0,1,568.641,-21.522,58.113,822.996,34.298,29.539
1782115903.703076,1.295000,358055,1000,12,0,1,566.888,-8.315,57.858,823.621,33.421,27.455
1782115903.704076,1.296000,358056,1000,12,0,1,570.587,-3.850,57.742,808.176,6.941,26.942
1782115903.705076,1.297000,358057,1000,12,0,1,610.966,39.043,57.448,816.198,2.415,26.936
1782115903.706076,1.298000,358058,1000,12,0,1,628.189,62.665,57.838,823.765,3.093,26.935
1782115903.707076,1.299000,358059,1000,12,0,1,637.461,64.768,57.860,814.997,-14.495,26.950
1782115903.708076,1.300000,358060,1000,12,0,1,650.744,75.224,57.890,797.150,-36.119,27.369
1782115903.709076,1.301000,358061,1000,12,0,1,662.874,77.945,58.329,774.691,-58.231,28.463
1782115903.710076,1.302000,358062,1000,12,0,1,649.543,61.844,58.558,770.199,-60.456,29.369
1782115903.711076,1.303000,358063,1000,12,0,1,632.801,34.368,58.642,773.514,-47.985,29.520
1782115903.712076,1.304000,358064,1000,12,0,1,596.337,0.934,58.625,777.429,-35.522,29.234
1782115903.713076,1.305000,358065,1000,12,0,1,549.257,-46.154,58.968,771.736,-27.874,28.642
1782115903.714076,1.306000,358066,1000,12,0,1,533.451,-59.917,58.889,764.482,-23.629,28.479
1782115903.715076,1.307000,358067,1000,12,0,1,544.885,-43.781,56.640,761.744,-12.386,28.173
1782115903.716076,1.308000,358068,1000,12,0,1,554.301,-30.849,55.820,770.871,7.278,26.463
1782115903.717076,1.309000,358069,1000,12,0,1,573.253,-15.220,55.686,775.435,24.106,26.240
1782115903.718076,1.310000,358070,1000,12,0,1,533.043,-41.859,55.341,751.679,13.134,26.283
1782115903.719076,1.311000,358071,1000,12,0,1,535.012,-53.946,55.722,739.068,4.432,26.077
1782115903.720076,1.312000,358072,1000,12,0,1,607.795,17.995,55.780,750.118,21.663,25.931
1782115903.721076,1.313000,358073,1000,12,0,1,615.265,32.804,55.957,773.658,43.490,26.378
