Unix_Time_s,IMU1_RefTime,ax_g,ay_g,az_g,gx_dps,gy_dps,gz_dps,mx_uT,my_uT,mz_uT,temp_C,qw,qx,qy,qz
1782115902.408076,401819,0.975098,0.055176,-0.117188,-0.426829,1.402439,1.402439,7.587500,-31.675001,19.125000,0.0,1.000000,0.000000,0.000000,0.000000
1782115902.420076,401831,0.977051,0.053711,-0.113770,-0.487805,0.853659,1.219512,7.587500,-31.675001,19.125000,0.0,1.000000,0.000000,0.000000,0.000000
1782115902.429076,401840,0.978516,0.053711,-0.108398,-0.914634,0.182927,1.280488,7.575000,-31.675001,19.187500,0.0,1.000000,0.000000,0.000000,0.000000
1782115902.438076,401849,0.979980,0.056641,-0.102539,-1.524390,-0.548781,1.341463,7.575000,-31.675001,19.187500,0.0,1.000000,0.000000,0.000000,0.000000
1782115902.448076,401859,0.982910,0.056152,-0.100586,-2.560976,-1.219512,1.402439,7.518750,-31.668751,19.131250,0.0,1.000000,0.000000,0.000000,0.000000
1782115902.462076,401873,0.994141,0.055176,-0.098633,-5.060976,-1.829268,1.158537,7.518750,-31.668751,19.131250,0.0,1.000000,0.000000,0.000000,0.000000
1782115902.468076,401879,0.994141,0.055176,-0.098633,-5.060976,-1.829268,1.158537,7.525000,-31.675001,19.168751,0.0,1.000000,0.000000,0.000000,0.000000
1782115902.480076,401891,0.999023,0.054688,-0.101562,-6.280488,-1.524390,1.097561,7.525000,-31.675001,19.168751,0.0,1.000000,0.000000,0.000000,0.000000
1782115902.488076,401899,1.004395,0.050781,-0.104980,-7.134147,-1.341463,1.097561,7.450000,-31.693750,19.162500,0.0,1.000000,0.000000,0.000000,0.000000
1782115902.500076,401911,1.012207,0.046387,-0.104492,-7.378049,-0.853659,1.158537,7.450000,-31.693750,19.162500,0.0,1.000000,0.000000,0.000000,0.000000
1782115902.508076,401919,1.013672,0.042480,-0.102051,-7.195122,0.000000,1.097561,7.368750,-31.743750,19.218750,0.0,1.000000,0.000000,0.000000,0.000000
1782115902.518076,401929,1.013184,0.040527,-0.101562,-6.463415,0.609756,1.097561,7.368750,-31.743750,19.218750,0.0,1.000000,0.000000,0.000000,0.000000
1782115902.529076,401940,1.010742,0.037598,-0.104004,-5.426829,1.097561,0.914634,7.312500,-31.700001,19.231251,0.0,1.000000,0.000000,0.000000,0.000000
1782115902.538076,401949,1.009766,0.032715,-0.105957,-3.719512,1.585366,0.609756,7.312500,-31.700001,19.231251,0.0,1.000000,0.000000,0.000000,0.000000
1782115902.549076,401960,1.009277,0.029785,-0.109375,-1.646341,2.195122,0.060976,7.306250,-31.693750,19.237501,0.0,1.000000,0.000000,0.000000,0.000000
1782115902.559076,401970,1.008789,0.028320,-0.108887,0.304878,2.804878,-0.365854,7.306250,-31.693750,19.237501,0.0,1.000000,0.000000,0.000000,0.000000
1782115902.568076,401979,1.006836,0.025879,-0.107910,1.707317,3.353659,-0.853659,7.481250,-31.400000,19.200001,0.0,1.000000,0.000000,0.000000,0.000000
1782115902.579076,401990,1.004883,0.022949,-0.107910,2.621951,3.902439,-1.219512,7.481250,-31.400000,19.200001,0.0,1.000000,0.000000,0.000000,0.000000
1782115902.589076,402000,1.002441,0.020996,-0.106934,3.414634,4.146341,-1.402439,7.400000,-31.612501,19.412500,0.0,1.000000,0.000000,0.000000,0.000000
1782115902.599076,402010,1.004883,0.018066,-0.105957,3.719512,4.085366,-1.524390,7.400000,-31.612501,19.412500,0.0,1.000000,0.000000,0.000000,0.000000
1782115902.608076,402019,1.004883,0.018555,-0.106445,3.780488,4.329268,-1.524390,7.431250,-31.562500,19.456251,0.0,1.000000,0.000000,0.000000,0.000000
1782115902.619076,402030,1.004883,0.018066,-0.109375,3.719512,4.512195,-1.280488,7.431250,-31.562500,19.456251,0.0,1.000000,0.000000,0.000000,0.000000
1782115902.628076,402039,1.003418,0.019531,-0.109375,3.719512,4.573171,-1.036585,7.643750,-31.312500,19.337500,0.0,1.000000,0.000000,0.000000,0.000000
1782115902.638076,402049,1.003906,0.025879,-0.109375,3.292683,4.939024,-0.670732,7.643750,-31.312500,19.337500,0.0,1.000000,0.000000,0.000000,0.000000
1782115902.648076,402059,0.997070,0.025879,-0.107910,2.804878,5.121951,-0.365854,7.512500,-31.456251,19.525000,0.0,1.000000,0.000000,0.000000,0.000000
1782115902.658076,402069,0.993164,0.024414,-0.108398,2.621951,4.939024,-0.121951,7.512500,-31.456251,19.525000,0.0,1.000000,0.000000,0.000000,0.000000
1782115902.668076,402079,0.988281,0.027832,-0.106934,2.500000,4.451220,0.121951,7.518750,-31.412500,19.562500,0.0,1.000000,0.000000,0.000000,0.000000
1782115902.678076,402089,0.985352,0.027344,-0.107422,2.621951,3.963415,0.182927,7.518750,-31.412500,19.562500,0.0,1.000000,0.000000,0.000000,0.000000
1782115902.688076,402099,0.980957,0.035645,-0.101562,2.378049,3.658537,0.182927,7.531250,-31.506250,19.600000,0.0,1.000000,0.000000,0.000000,0.000000
1782115902.698076,402109,0.980469,0.036133,-0.099121,1.951220,3.231707,0.243902,7.531250,-31.506250,19.600000,0.0,1.000000,0.000000,0.000000,0.000000
1782115902.708076,402119,0.984375,0.040039,-0.096680,1.524390,3.109756,0.182927,7.543750,-31.443750,19.687500,0.0,1.000000,0.000000,0.000000,0.000000
1782115902.719076,402130,0.986328,0.041504,-0.096191,1.158537,2.987805,0.060976,7.543750,-31.443750,19.687500,0.0,1.000000,0.000000,0.000000,0.000000
1782115902.728076,402139,0.992188,0.041016,-0.098145,1.036585,2.865854,-0.060976,7.562500,-31.400000,19.775000,0.0,1.000000,0.000000,0.000000,0.000000
1782115902.738076,402149,0.992676,0.042480,-0.099121,1.158537,3.048780,0.060976,7.562500,-31.400000,19.775000,0.0,1.000000,0.000000,0.000000,0.000000
1782115902.748076,402159,0.990723,0.043457,-0.102051,1.158537,3.292683,0.121951,7.531250,-31.381250,19.762501,0.0,1.000000,0.000000,0.000000,0.000000
1782115902.758076,402169,0.988281,0.048828,-0.102051,1.036585,3.231707,0.304878,7.531250,-31.381250,19.762501,0.0,1.000000,0.000000,0.000000,0.000000
1782115902.768076,402179,0.986816,0.051270,-0.102539,0.853659,3.109756,0.304878,7.593750,-31.362501,19.787500,0.0,1.000000,0.000000,0.000000,0.000000
1782115902.778076,402189,0.985352,0.057129,-0.104492,0.548781,2.804878,0.243902,7.593750,-31.362501,19.787500,0.0,1.000000,0.000000,0.000000,0.000000
1782115902.788076,402199,0.988770,0.058105,-0.104980,0.304878,2.682927,0.060976,7.543750,-31.387501,19.862501,0.0,1.000000,0.000000,0.000000,0.000000
1782115902.799076,402210,0.990234,0.054688,-0.102539,0.670732,2.378049,-0.243902,7.543750,-31.387501,19.862501,0.0,1.000000,0.000000,0.000000,0.000000
1782115902.808076,402219,0.987793,0.050293,-0.101562,0.792683,1.829268,-0.182927,7.581250,-31.318750,19.856251,0.0,1.000000,0.000000,0.000000,0.000000
1782115902.819076,402230,0.991699,0.047363,-0.097656,0.975610,1.158537,-0.243902,7.581250,-31.318750,19.856251,0.0,1.000000,0.000000,0.000000,0.000000
1782115902.829076,402240,0.997070,0.040527,-0.095703,1.219512,0.670732,-0.304878,7.600000,-31.318750,19.812500,0.0,1.000000,0.000000,0.000000,0.000000
1782115902.838076,402249,1.001953,0.038574,-0.093262,1.585366,0.304878,-0.487805,7.600000,-31.318750,19.812500,0.0,1.000000,0.000000,0.000000,0.000000
1782115902.848076,402259,1.004395,0.037598,-0.090332,2.073171,0.365854,-0.731707,7.550000,-31.300001,19.906250,0.0,1.000000,0.000000,0.000000,0.000000
1782115902.858076,402269,1.004395,0.038086,-0.089844,2.317073,0.243902,-0.792683,7.550000,-31.300001,19.906250,0.0,1.000000,0.000000,0.000000,0.000000
1782115902.868076,402279,1.004883,0.040527,-0.088379,2.378049,0.000000,-0.975610,7.587500,-31.300001,19.850000,0.0,1.000000,0.000000,0.000000,0.000000
1782115902.878076,402289,1.005371,0.041016,-0.084473,2.012195,-0.609756,-1.097561,7.587500,-31.300001,19.850000,0.0,1.000000,0.000000,0.000000,0.000000
1782115902.889076,402300,1.007324,0.039551,-0.083984,2.073171,-0.914634,-1.219512,7.575000,-31.325001,19.862501,0.0,1.000000,0.000000,0.000000,0.000000
1782115902.898076,402309,1.004883,0.033203,-0.082520,2.682927,-1.036585,-1.219512,7.575000,-31.325001,19.862501,0.0,1.000000,0.000000,0.000000,0.000000
1782115902.908076,402319,1.000000,0.029297,-0.077637,3.780488,-0.914634,-1.219512,7.700000,-31.212500,19.756250,0.0,1.000000,0.000000,0.000000,0.000000
1782115902.918076,402329,0.992676,0.027344,-0.075684,5.000000,-0.487805,-1.280488,7.700000,-31.212500,19.756250,0.0,1.000000,0.000000,0.000000,0.000000
1782115902.928076,402339,0.989258,0.026367,-0.072754,5.975610,-0.243902,-1.402439,7.631250,-31.362501,19.850000,0.0,1.000000,0.000000,0.000000,0.000000
1782115902.939076,402350,0.993164,0.028809,-0.073730,6.585366,-0.121951,-1.768293,7.631250,-31.362501,19.850000,0.0,1.000000,0.000000,0.000000,0.000000
1782115902.948076,402359,1.001953,0.034180,-0.077637,6.768293,0.487805,-2.195122,7.781250,-31.275000,19.818750,0.0,1.000000,0.000000,0.000000,0.000000
1782115902.958076,402369,1.005371,0.038574,-0.080566,6.585366,1.524390,-2.500000,7.781250,-31.275000,19.818750,0.0,1.000000,0.000000,0.000000,0.000000
1782115902.968076,402379,1.004395,0.041504,-0.084473,6.341464,2.621951,-2.743902,7.768750,-31.312500,19.881250,0.0,1.000000,0.000000,0.000000,0.000000
1782115902.978076,402389,1.004395,0.040527,-0.090332,6.646342,3.597561,-3.170732,7.768750,-31.312500,19.881250,0.0,1.000000,0.000000,0.000000,0.000000
1782115902.988076,402399,1.003418,0.039551,-0.093750,7.195122,4.207317,-3.597561,7.906250,-31.287500,19.775000,0.0,1.000000,0.000000,0.000000,0.000000
1782115902.998076,402409,1.010742,0.040039,-0.091309,7.560976,4.451220,-3.780488,7.906250,-31.287500,19.775000,0.0,1.000000,0.000000,0.000000,0.000000
1782115903.008076,402419,1.015625,0.037598,-0.088379,7.743903,5.060976,-3.780488,8.025001,-31.131250,19.800001,0.0,1.000000,0.000000,0.000000,0.000000
1782115903.018076,402429,1.017090,0.037598,-0.080566,7.865854,5.792683,-3.780488,8.025001,-31.131250,19.800001,0.0,1.000000,0.000000,0.000000,0.000000
1782115903.028076,402439,1.014648,0.042480,-0.071777,7.500000,6.463415,-3.658537,8.125000,-31.181250,19.887501,0.0,1.000000,0.000000,0.000000,0.000000
1782115903.038076,402449,1.007812,0.040527,-0.066895,6.707317,6.463415,-3.231707,8.125000,-31.181250,19.887501,0.0,1.000000,0.000000,0.000000,0.000000
1782115903.048076,402459,1.002441,0.041992,-0.064453,5.853659,6.097561,-2.743902,8.156250,-31.175001,19.956251,0.0,1.000000,0.000000,0.000000,0.000000
1782115903.058076,402469,0.997559,0.043945,-0.063477,4.756098,5.304878,-2.378049,8.156250,-31.175001,19.956251,0.0,1.000000,0.000000,0.000000,0.000000
1782115903.069076,402480,0.998535,0.045410,-0.065918,3.658537,4.695122,-2.256098,8.256250,-31.118750,20.100000,0.0,1.000000,0.000000,0.000000,0.000000
1782115903.078076,402489,0.997070,0.051270,-0.065918,2.682927,4.329268,-2.317073,8.256250,-31.118750,20.100000,0.0,1.000000,0.000000,0.000000,0.000000
1782115903.089076,402500,0.996094,0.054199,-0.071777,1.951220,3.902439,-2.804878,8.287500,-31.018751,20.087500,0.0,1.000000,0.000000,0.000000,0.000000
1782115903.099076,402510,0.998535,0.057129,-0.073730,1.341463,3.963415,-3.597561,8.287500,-31.018751,20.087500,0.0,1.000000,0.000000,0.000000,0.000000
1782115903.108076,402519,1.003418,0.052734,-0.079590,0.609756,3.658537,-4.207317,8.300000,-31.050001,20.212500,0.0,1.000000,0.000000,0.000000,0.000000
1782115903.118076,402529,1.012207,0.047363,-0.085449,0.121951,3.231707,-4.451220,8.300000,-31.050001,20.212500,0.0,1.000000,0.000000,0.000000,0.000000
1782115903.128076,402539,1.023926,0.041504,-0.088867,-0.304878,3.109756,-4.268293,8.343750,-31.025000,20.212500,0.0,1.000000,0.000000,0.000000,0.000000
1782115903.138076,402549,1.029785,0.042480,-0.088867,0.304878,3.292683,-4.268293,8.343750,-31.025000,20.212500,0.0,1.000000,0.000000,0.000000,0.000000
1782115903.148076,402559,1.038086,0.045410,-0.085449,0.243902,3.536585,-4.024390,8.325000,-31.025000,20.306250,0.0,1.000000,0.000000,0.000000,0.000000
1782115903.158076,402569,1.040039,0.045410,-0.084473,0.182927,4.329268,-3.658537,8.325000,-31.025000,20.306250,0.0,1.000000,0.000000,0.000000,0.000000
1782115903.168076,402579,1.033691,0.050293,-0.084961,0.000000,5.121951,-2.926829,8.356250,-31.031250,20.312500,0.0,1.000000,0.000000,0.000000,0.000000
1782115903.178076,402589,1.033691,0.052734,-0.088379,-0.365854,5.487805,-2.317073,8.356250,-31.031250,20.312500,0.0,1.000000,0.000000,0.000000,0.000000
1782115903.188076,402599,1.033691,0.054199,-0.091797,-0.975610,6.341464,-1.585366,8.362500,-30.975000,20.362501,0.0,1.000000,0.000000,0.000000,0.000000
1782115903.198076,402609,1.032715,0.058594,-0.096191,-1.036585,7.317073,-0.914634,8.362500,-30.975000,20.362501,0.0,1.000000,0.000000,0.000000,0.000000
1782115903.209076,402620,1.024414,0.064941,-0.097168,-0.914634,8.719512,-0.182927,8.343750,-30.887501,20.393751,0.0,1.000000,0.000000,0.000000,0.000000
1782115903.218076,402629,1.025391,0.078125,-0.094727,-1.158537,9.268292,0.243902,8.343750,-30.887501,20.393751,0.0,1.000000,0.000000,0.000000,0.000000
1782115903.229076,402640,1.023926,0.090820,-0.095703,-1.829268,10.548780,0.426829,8.306251,-30.850000,20.512501,0.0,1.000000,0.000000,0.000000,0.000000
1782115903.239076,402650,1.001953,0.103516,-0.089355,-2.987805,12.378049,1.463415,8.306251,-30.850000,20.512501,0.0,1.000000,0.000000,0.000000,0.000000
1782115903.249076,402660,0.976562,0.115234,-0.082520,-4.756098,12.500000,2.804878,8.350000,-30.700001,20.587500,0.0,1.000000,0.000000,0.000000,0.000000
1782115903.258076,402669,0.962402,0.119141,-0.075684,-6.585366,11.463415,3.780488,8.350000,-30.700001,20.587500,0.0,1.000000,0.000000,0.000000,0.000000
1782115903.270076,402681,0.948242,0.118652,-0.066895,-8.536586,10.304878,4.878049,8.231250,-30.681250,20.825001,0.0,1.000000,0.000000,0.000000,0.000000
1782115903.278076,402689,0.936035,0.112305,-0.059570,-10.000000,8.780488,5.914634,8.231250,-30.681250,20.825001,0.0,1.000000,0.000000,0.000000,0.000000
1782115903.288076,402699,0.930664,0.099121,-0.059082,-11.036586,7.195122,6.402439,8.143750,-30.506250,20.987501,0.0,1.000000,0.000000,0.000000,0.000000
1782115903.298076,402709,0.931152,0.085449,-0.062012,-11.585366,5.853659,6.524390,8.143750,-30.506250,20.987501,0.0,1.000000,0.000000,0.000000,0.000000
1782115903.311076,402722,0.937988,0.072754,-0.065430,-11.890244,4.451220,6.402439,8.081250,-30.562500,21.087500,0.0,1.000000,0.000000,0.000000,0.000000
1782115903.318076,402729,0.942383,0.062988,-0.067383,-11.524390,3.719512,6.097561,8.081250,-30.562500,21.087500,0.0,1.000000,0.000000,0.000000,0.000000
1782115903.328076,402739,0.944824,0.054199,-0.066406,-10.609756,2.682927,5.731708,8.037500,-30.350000,21.131250,0.0,1.000000,0.000000,0.000000,0.000000
1782115903.338076,402749,0.951660,0.035645,-0.065430,-8.902439,1.219512,5.121951,8.037500,-30.350000,21.131250,0.0,1.000000,0.000000,0.000000,0.000000
1782115903.350076,402761,0.964355,0.030273,-0.051758,-6.158537,0.121951,4.329268,7.875000,-30.500000,21.281250,0.0,1.000000,0.000000,0.000000,0.000000
1782115903.358076,402769,0.975586,0.009766,-0.048828,-2.804878,-0.853659,3.170732,7.875000,-30.500000,21.281250,0.0,1.000000,0.000000,0.000000,0.000000
1782115903.368076,402779,0.990723,0.000000,-0.035156,1.158537,-1.524390,1.707317,7.900000,-30.393751,21.193750,0.0,1.000000,0.000000,0.000000,0.000000
1782115903.378076,402789,1.005371,-0.016113,-0.027832,5.731708,-2.317073,0.182927,7.900000,-30.393751,21.193750,0.0,1.000000,0.000000,0.000000,0.000000
1782115903.389076,402800,1.020508,-0.034180,-0.020996,9.390244,-3.353659,-0.914634,7.843750,-30.493750,21.212500,0.0,1.000000,0.000000,0.000000,0.000000
1782115903.398076,402809,1.034180,-0.045898,-0.016113,13.841464,-3.292683,-2.012195,7.843750,-30.493750,21.212500,0.0,1.000000,0.000000,0.000000,0.000000
1782115903.408076,402819,1.049316,-0.042969,-0.010742,17.987804,-3.353659,-2.804878,8.000000,-30.368750,21.118750,0.0,1.000000,0.000000,0.000000,0.000000
1782115903.418076,402829,1.063477,-0.037109,-0.013672,21.097561,-3.231707,-2.926829,8.000000,-30.368750,21.118750,0.0,1.000000,0.000000,0.000000,0.000000
1782115903.429076,402840,1.072266,-0.020020,-0.014160,23.048780,-2.317073,-2.926829,8.143750,-30.512501,20.950001,0.0,1.000000,0.000000,0.000000,0.000000
1782115903.438076,402849,1.080078,-0.004395,-0.016113,24.268293,-0.731707,-2.317073,8.143750,-30.512501,20.950001,0.0,1.000000,0.000000,0.000000,0.000000
1782115903.448076,402859,1.081543,0.012695,-0.017090,25.548780,1.646341,-1.463415,8.337501,-30.337500,20.787500,0.0,1.000000,0.000000,0.000000,0.000000
1782115903.458076,402869,1.074707,0.040527,-0.010742,25.731709,4.878049,-0.548781,8.337501,-30.337500,20.787500,0.0,1.000000,0.000000,0.000000,0.000000
1782115903.468076,402879,1.057617,0.068359,-0.011230,24.695122,8.780488,0.060976,8.456250,-30.450001,20.693750,0.0,1.000000,0.000000,0.000000,0.000000
1782115903.480076,402891,1.041504,0.089355,-0.021973,24.634148,12.256098,-0.121951,8.700000,-30.112501,20.562500,0.0,1.000000,0.000000,0.000000,0.000000
1782115903.488076,402899,1.026855,0.107910,-0.028809,25.975611,15.365854,-0.731707,8.700000,-30.112501,20.562500,0.0,1.000000,0.000000,0.000000,0.000000
1782115903.499076,402910,1.013184,0.116211,-0.038086,28.170732,17.865854,-1.463415,8.768750,-30.118750,20.750000,0.0,1.000000,0.000000,0.000000,0.000000
1782115903.509076,402920,1.015625,0.135742,-0.040527,30.365854,19.268293,-2.378049,8.768750,-30.118750,20.750000,0.0,1.000000,0.000000,0.000000,0.000000
1782115903.518076,402929,1.023926,0.166016,-0.034180,30.853659,20.060976,-3.170732,8.768750,-30.118750,20.750000,0.0,1.000000,0.000000,0.000000,0.000000
1782115903.528076,402939,1.026855,0.172852,-0.031250,30.060976,21.036587,-3.719512,8.925000,-30.056250,20.887501,0.0,1.000000,0.000000,0.000000,0.000000
1782115903.538076,402949,1.031250,0.207520,-0.002930,26.829269,21.829269,-3.902439,8.925000,-30.056250,20.887501,0.0,1.000000,0.000000,0.000000,0.000000
1782115903.548076,402959,1.035156,0.183105,-0.013672,21.890244,21.585367,-4.573171,9.100000,-29.956251,21.012501,0.0,1.000000,0.000000,0.000000,0.000000
1782115903.558076,402969,1.042969,0.161621,-0.018555,17.926830,22.012196,-5.365854,9.100000,-29.956251,21.012501,0.0,1.000000,0.000000,0.000000,0.000000
1782115903.569076,402980,1.049805,0.154297,-0.016602,11.341464,20.914635,-5.060976,9.412500,-29.693750,21.237501,0.0,1.000000,0.000000,0.000000,0.000000
1782115903.578076,402989,1.049316,0.120605,-0.034180,2.804878,19.085367,-2.987805,9.412500,-29.693750,21.237501,0.0,1.000000,0.000000,0.000000,0.000000
1782115903.590076,403001,1.048340,0.111328,-0.063477,-3.109756,21.707317,-0.914634,9.525001,-29.525000,21.531250,0.0,1.000000,0.000000,0.000000,0.000000
1782115903.598076,403009,1.028809,0.148438,-0.081543,-6.646342,27.926830,0.243902,9.525001,-29.525000,21.531250,0.0,1.000000,0.000000,0.000000,0.000000
1782115903.608076,403019,1.002930,0.145508,-0.091797,-8.536586,31.768293,0.304878,9.918750,-28.743750,21.618750,0.0,1.000000,0.000000,0.000000,0.000000
1782115903.618076,403029,0.989258,0.138184,-0.076660,-7.621952,31.524391,-0.487805,9.918750,-28.743750,21.618750,0.0,1.000000,0.000000,0.000000,0.000000
1782115903.630076,403041,0.974609,0.131836,-0.024414,-8.841464,30.731709,-0.975610,9.656250,-29.043751,22.306250,0.0,1.000000,0.000000,0.000000,0.000000
1782115903.638076,403049,0.974609,0.131836,-0.024414,-8.841464,30.731709,-0.975610,9.656250,-29.043751,22.306250,0.0,1.000000,0.000000,0.000000,0.000000
1782115903.648076,403059,0.956055,0.131348,0.003418,-8.780488,30.365854,-0.243902,9.743751,-28.706251,22.681250,0.0,1.000000,0.000000,0.000000,0.000000
1782115903.658076,403069,0.937500,0.105957,0.015625,-9.817074,28.353659,1.463415,9.743751,-28.706251,22.681250,0.0,1.000000,0.000000,0.000000,0.000000
1782115903.670076,403081,0.927246,0.098145,0.064941,-13.048780,22.926830,3.109756,9.587501,-28.643751,23.106251,0.0,1.000000,0.000000,0.000000,0.000000
1782115903.678076,403089,0.927246,0.098145,0.064941,-13.048780,22.926830,3.109756,9.587501,-28.643751,23.106251,0.0,1.000000,0.000000,0.000000,0.000000
1782115903.688076,403099,0.908691,0.066895,0.084473,-19.634148,19.329269,3.780488,9.562500,-28.393751,23.331251,0.0,1.000000,0.000000,0.000000,0.000000
1782115903.698076,403109,0.896484,0.050781,0.088379,-23.780489,18.109756,4.024390,9.431251,-28.262501,23.681250,0.0,1.000000,0.000000,0.000000,0.000000
1782115903.709076,403120,0.894043,0.026367,0.080566,-27.378050,16.402439,3.719512,9.431251,-28.262501,23.681250,0.0,1.000000,0.000000,0.000000,0.000000
1782115903.718076,403129,0.911133,0.009277,0.066406,-30.121952,15.487805,2.500000,9.368751,-28.056250,24.037500,0.0,1.000000,0.000000,0.000000,0.000000
1782115903.728076,403139,0.932617,-0.009277,0.055176,-31.524391,15.243903,1.097561,9.368751,-28.056250,24.037500,0.0,1.000000,0.000000,0.000000,0.000000
1782115903.739076,403150,0.946289,-0.020020,0.054199,-31.280489,14.878049,0.121951,9.206250,-27.987501,24.418751,0.0,1.000000,0.000000,0.000000,0.000000
1782115903.750076,403161,0.957520,-0.029785,0.056152,-29.939026,13.902439,-0.365854,9.206250,-27.987501,24.418751,0.0,1.000000,0.000000,0.000000,0.000000
1782115903.758076,403169,0.962402,-0.043945,0.057617,-28.231709,12.682927,0.365854,9.181251,-27.737501,24.750000,0.0,1.000000,0.000000,0.000000,0.000000
1782115903.768076,403179,0.959473,-0.058594,0.059570,-26.341463,11.036586,1.768293,9.181251,-27.737501,24.750000,0.0,1.000000,0.000000,0.000000,0.000000
1782115903.778076,403189,0.953125,-0.071777,0.056641,-24.695122,8.658537,3.414634,9.187500,-27.643751,25.100000,0.0,1.000000,0.000000,0.000000,0.000000
1782115903.790076,403201,0.943359,-0.069336,0.056152,-23.170732,5.792683,5.243903,9.187500,-27.643751,25.100000,0.0,1.000000,0.000000,0.000000,0.000000
1782115903.798076,403209,0.936523,-0.078613,0.053223,-21.951220,2.804878,6.646342,9.068750,-27.487501,25.350000,0.0,1.000000,0.000000,0.000000,0.000000
1782115903.808076,403219,0.931641,-0.073730,0.055176,-20.365854,0.060976,7.195122,9.068750,-27.487501,25.350000,0.0,1.000000,0.000000,0.000000,0.000000
1782115903.818076,403229,0.936523,-0.074707,0.054688,-18.414635,-2.378049,6.463415,8.756250,-27.543751,25.412500,0.0,1.000000,0.000000,0.000000,0.000000
1782115903.829076,403240,0.949219,-0.073242,0.058105,-15.914635,-3.719512,5.426829,8.756250,-27.543751,25.412500,0.0,1.000000,0.000000,0.000000,0.000000
1782115903.838076,403249,0.965820,-0.071777,0.063965,-13.475610,-4.512195,4.634146,8.406250,-27.612501,25.418751,0.0,1.000000,0.000000,0.000000,0.000000
1782115903.848076,403259,0.981445,-0.070312,0.068359,-11.036586,-5.060976,4.207317,8.406250,-27.612501,25.418751,0.0,1.000000,0.000000,0.000000,0.000000
1782115903.858076,403269,0.994141,-0.071289,0.063965,-8.536586,-5.548780,4.146341,8.131250,-27.768751,25.393751,0.0,1.000000,0.000000,0.000000,0.000000
1782115903.870076,403281,1.000977,-0.076660,0.060059,-5.975610,-6.341464,4.390244,8.131250,-27.768751,25.393751,0.0,1.000000,0.000000,0.000000,0.000000
1782115903.878076,403289,1.003906,-0.079590,0.058594,-2.926829,-7.073171,4.817073,7.875000,-27.875000,25.281250,0.0,1.000000,0.000000,0.000000,0.000000
1782115903.889076,403300,0.997559,-0.082031,0.054688,0.609756,-7.378049,5.243903,7.875000,-27.875000,25.281250,0.0,1.000000,0.000000,0.000000,0.000000
1782115903.898076,403309,0.988281,-0.080078,0.051758,4.573171,-8.048780,5.304878,7.718750,-27.968750,25.162500,0.0,1.000000,0.000000,0.000000,0.000000
1782115903.911076,403322,0.983398,-0.070312,0.045898,8.536586,-8.353659,5.121951,7.718750,-27.968750,25.162500,0.0,1.000000,0.000000,0.000000,0.000000
1782115903.918076,403329,0.982910,-0.060059,0.040039,12.865854,-8.414635,4.512195,7.650000,-28.031250,25.000000,0.0,1.000000,0.000000,0.000000,0.000000
1782115903.928076,403339,0.991211,-0.045410,0.037598,17.317074,-8.170732,3.780488,7.650000,-28.031250,25.000000,0.0,1.000000,0.000000,0.000000,0.000000
1782115903.939076,403350,1.003418,-0.026855,0.037109,21.463415,-7.439024,2.743902,7.762500,-28.106251,24.912500,0.0,1.000000,0.000000,0.000000,0.000000
1782115903.951076,403362,1.012695,0.001465,0.046875,24.817074,-6.158537,1.341463,7.762500,-28.106251,24.912500,0.0,1.000000,0.000000,0.000000,0.000000
1782115903.959076,403370,1.025391,0.025391,0.061523,25.975611,-5.914634,0.975610,8.043750,-28.043751,24.700001,0.0,1.000000,0.000000,0.000000,0.000000
1782115903.968076,403379,1.032227,0.049316,0.063477,26.402439,-3.536585,0.304878,8.043750,-28.043751,24.700001,0.0,1.000000,0.000000,0.000000,0.000000
1782115903.978076,403389,1.032227,0.066895,0.066406,25.243902,-1.280488,-0.365854,8.287500,-28.075001,24.606251,0.0,1.000000,0.000000,0.000000,0.000000
1782115903.988076,403399,1.029785,0.087402,0.074707,22.621952,0.670732,-0.365854,8.287500,-28.075001,24.606251,0.0,1.000000,0.000000,0.000000,0.000000
1782115903.998076,403409,1.031738,0.108887,0.079590,17.926830,2.195122,0.243902,8.581250,-27.993750,24.512501,0.0,1.000000,0.000000,0.000000,0.000000
1782115904.008076,403419,1.034668,0.119141,0.079590,12.926829,3.170732,0.975610,8.581250,-27.993750,24.512501,0.0,1.000000,0.000000,0.000000,0.000000
1782115904.018076,403429,1.037109,0.140625,0.086914,7.804878,4.512195,1.768293,8.587501,-28.012501,24.593750,0.0,1.000000,0.000000,0.000000,0.000000
1782115904.028076,403439,1.041504,0.157715,0.093750,2.073171,5.609756,2.560976,8.587501,-28.012501,24.593750,0.0,1.000000,0.000000,0.000000,0.000000
1782115904.038076,403449,1.041992,0.153809,0.090332,-3.414634,6.463415,3.231707,8.625000,-27.856251,24.512501,0.0,1.000000,0.000000,0.000000,0.000000
1782115904.048076,403459,1.035156,0.139160,0.087402,-7.621952,7.073171,4.268293,8.625000,-27.856251,24.512501,0.0,1.000000,0.000000,0.000000,0.000000
1782115904.058076,403469,1.022461,0.110352,0.073242,-10.426829,6.951220,5.121951,8.400001,-27.950001,24.650000,0.0,1.000000,0.000000,0.000000,0.000000
1782115904.068076,403479,1.013184,0.079590,0.062988,-10.731708,7.012195,5.426829,8.400001,-27.950001,24.650000,0.0,1.000000,0.000000,0.000000,0.000000
1782115904.078076,403489,1.000000,0.056152,0.058594,-10.182927,7.073171,5.243903,8.243751,-27.850000,24.681250,0.0,1.000000,0.000000,0.000000,0.000000
1782115904.088076,403499,0.994629,0.038574,0.052734,-9.634147,6.768293,4.512195,8.243751,-27.850000,24.681250,0.0,1.000000,0.000000,0.000000,0.000000
1782115904.098076,403509,0.997070,0.022461,0.045410,-9.146341,6.463415,3.475610,8.037500,-27.931250,24.868750,0.0,1.000000,0.000000,0.000000,0.000000
1782115904.109076,403520,1.004395,0.000000,0.036133,-8.475610,6.524390,2.256098,8.037500,-27.931250,24.868750,0.0,1.000000,0.000000,0.000000,0.000000
1782115904.119076,403530,1.010254,-0.018066,0.029785,-7.134147,6.829268,1.219512,7.893750,-27.856251,25.043751,0.0,1.000000,0.000000,0.000000,0.000000
1782115904.129076,403540,1.010254,-0.030273,0.027832,-4.817073,7.195122,0.121951,7.893750,-27.856251,25.043751,0.0,1.000000,0.000000,0.000000,0.000000
1782115904.139076,403550,1.004883,-0.037109,0.027344,-1.646341,7.317073,-0.914634,7.993750,-27.593750,25.043751,0.0,1.000000,0.000000,0.000000,0.000000
1782115904.148076,403559,1.003906,-0.036621,0.029785,1.646341,6.951220,-1.890244,7.993750,-27.593750,25.043751,0.0,1.000000,0.000000,0.000000,0.000000
1782115904.159076,403570,1.004883,-0.029785,0.035645,4.390244,6.646342,-2.743902,8.012500,-27.650000,25.262501,0.0,1.000000,0.000000,0.000000,0.000000
1782115904.168076,403579,1.006836,-0.016602,0.042969,6.402439,6.341464,-3.170732,8.012500,-27.650000,25.262501,0.0,1.000000,0.000000,0.000000,0.000000
1782115904.178076,403589,0.994629,-0.000488,0.053223,7.378049,5.792683,-2.804878,8.068750,-27.650000,25.312500,0.0,1.000000,0.000000,0.000000,0.000000
1782115904.188076,403599,0.982422,0.012207,0.060059,7.500000,4.390244,-2.012195,8.068750,-27.650000,25.312500,0.0,1.000000,0.000000,0.000000,0.000000
1782115904.198076,403609,0.970215,0.021484,0.064941,7.134147,2.804878,-1.402439,8.143750,-27.631250,25.331251,0.0,1.000000,0.000000,0.000000,0.000000
1782115904.209076,403620,0.967285,0.033203,0.068359,6.524390,1.341463,-1.097561,8.143750,-27.631250,25.331251,0.0,1.000000,0.000000,0.000000,0.000000
1782115904.218076,403629,0.970215,0.044922,0.070312,5.609756,0.182927,-1.036585,8.206250,-27.550001,25.312500,0.0,1.000000,0.000000,0.000000,0.000000
1782115904.228076,403639,0.975586,0.054199,0.071777,4.573171,-0.670732,-1.097561,8.206250,-27.550001,25.312500,0.0,1.000000,0.000000,0.000000,0.000000
1782115904.238076,403649,0.984375,0.062012,0.074707,3.170732,-1.463415,-1.097561,8.262500,-27.531250,25.243750,0.0,1.000000,0.000000,0.000000,0.000000
1782115904.248076,403659,0.993164,0.060547,0.081055,1.524390,-1.768293,-0.914634,8.262500,-27.531250,25.243750,0.0,1.000000,0.000000,0.000000,0.000000
1782115904.258076,403669,1.000977,0.051270,0.084473,-0.060976,-1.585366,-0.670732,8.243751,-27.575001,25.281250,0.0,1.000000,0.000000,0.000000,0.000000
1782115904.268076,403679,1.002930,0.040527,0.085938,-1.341463,-1.036585,-0.365854,8.243751,-27.575001,25.281250,0.0,1.000000,0.000000,0.000000,0.000000
1782115904.278076,403689,1.003418,0.030273,0.085449,-2.317073,-1.036585,-0.060976,8.256250,-27.581251,25.256250,0.0,1.000000,0.000000,0.000000,0.000000
1782115904.288076,403699,1.006348,0.017578,0.083008,-2.804878,-1.280488,0.243902,8.256250,-27.581251,25.256250,0.0,1.000000,0.000000,0.000000,0.000000
1782115904.299076,403710,1.009766,0.003906,0.077148,-2.256098,-1.158537,0.548781,8.218750,-27.600000,25.237501,0.0,1.000000,0.000000,0.000000,0.000000
1782115904.308076,403719,1.003906,-0.003418,0.074219,-0.792683,-0.487805,0.609756,8.218750,-27.600000,25.237501,0.0,1.000000,0.000000,0.000000,0.000000
1782115904.320076,403731,0.996094,-0.003418,0.069824,1.158537,0.060976,0.426829,8.175000,-27.575001,25.237501,0.0,1.000000,0.000000,0.000000,0.000000
1782115904.329076,403740,0.991211,0.002441,0.067871,2.743902,0.609756,-0.121951,8.175000,-27.575001,25.237501,0.0,1.000000,0.000000,0.000000,0.000000
1782115904.338076,403749,0.990723,0.009277,0.065430,4.085366,1.097561,-1.036585,8.193750,-27.631250,25.256250,0.0,1.000000,0.000000,0.000000,0.000000
1782115904.349076,403760,0.997559,0.014160,0.064453,5.121951,1.646341,-2.012195,8.193750,-27.631250,25.256250,0.0,1.000000,0.000000,0.000000,0.000000
1782115904.359076,403770,1.003906,0.010254,0.065918,6.158537,2.500000,-2.804878,8.268750,-27.556250,25.275000,0.0,1.000000,0.000000,0.000000,0.000000
1782115904.368076,403779,1.012695,0.003906,0.067871,7.012195,3.109756,-3.292683,8.268750,-27.556250,25.275000,0.0,1.000000,0.000000,0.000000,0.000000
1782115904.379076,403790,1.019043,-0.003906,0.067871,7.621952,3.902439,-3.414634,8.400001,-27.481251,25.212500,0.0,1.000000,0.000000,0.000000,0.000000
1782115904.388076,403799,1.019531,-0.010254,0.069336,8.109756,4.573171,-3.048780,8.400001,-27.481251,25.212500,0.0,1.000000,0.000000,0.000000,0.000000
1782115904.398076,403809,1.016113,-0.007324,0.071289,7.621952,5.243903,-2.500000,8.506250,-27.293751,25.187500,0.0,1.000000,0.000000,0.000000,0.000000
1782115904.408076,403819,1.013672,-0.000488,0.068848,6.768293,5.609756,-2.073171,8.506250,-27.293751,25.187500,0.0,1.000000,0.000000,0.000000,0.000000
1782115904.418076,403829,1.012207,0.007324,0.069824,5.670732,5.243903,-1.829268,8.487500,-27.337500,25.268751,0.0,1.000000,0.000000,0.000000,0.000000
1782115904.428076,403839,1.014160,0.008301,0.069824,4.939024,4.573171,-1.829268,8.487500,-27.337500,25.268751,0.0,1.000000,0.000000,0.000000,0.000000
1782115904.438076,403849,1.016113,0.005859,0.075684,4.573171,4.085366,-1.951220,8.575000,-27.312500,25.362501,0.0,1.000000,0.000000,0.000000,0.000000
1782115904.448076,403859,1.016602,0.000000,0.076660,4.817073,4.085366,-2.195122,8.575000,-27.312500,25.362501,0.0,1.000000,0.000000,0.000000,0.000000
1782115904.458076,403869,1.015625,-0.007812,0.080078,5.182927,4.085366,-2.560976,8.775001,-27.150000,25.256250,0.0,1.000000,0.000000,0.000000,0.000000
1782115904.468076,403879,1.011230,-0.017578,0.079102,6.219512,4.146341,-3.231707,8.775001,-27.150000,25.256250,0.0,1.000000,0.000000,0.000000,0.000000
1782115904.478076,403889,1.003906,-0.028809,0.080566,7.378049,4.268293,-3.658537,8.800000,-27.156250,25.356251,0.0,1.000000,0.000000,0.000000,0.000000
1782115904.488076,403899,0.993652,-0.037598,0.078613,8.536586,4.512195,-3.719512,8.800000,-27.156250,25.356251,0.0,1.000000,0.000000,0.000000,0.000000
1782115904.498076,403909,0.980469,-0.039062,0.076660,9.573171,5.121951,-3.170732,8.837501,-27.162500,25.362501,0.0,1.000000,0.000000,0.000000,0.000000
1782115904.508076,403919,0.969238,-0.031250,0.071777,10.304878,5.670732,-2.378049,8.837501,-27.162500,25.362501,0.0,1.000000,0.000000,0.000000,0.000000
1782115904.519076,403930,0.966309,-0.007812,0.058594,11.402439,7.134147,-1.524390,8.937500,-27.150000,25.500000,0.0,1.000000,0.000000,0.000000,0.000000
1782115904.529076,403940,0.966309,-0.007812,0.058594,11.402439,7.134147,-1.524390,8.937500,-27.150000,25.500000,0.0,1.000000,0.000000,0.000000,0.000000
1782115904.539076,403950,0.977539,-0.000977,0.058594,12.378049,7.560976,-1.463415,9.106250,-27.062500,25.468750,0.0,1.000000,0.000000,0.000000,0.000000
1782115904.549076,403960,0.988281,0.003418,0.064453,14.024390,7.804878,-1.341463,9.106250,-27.062500,25.468750,0.0,1.000000,0.000000,0.000000,0.000000
1782115904.559076,403970,0.990723,0.000977,0.070801,15.914635,7.743903,-0.975610,9.187500,-27.031250,25.475000,0.0,1.000000,0.000000,0.000000,0.000000
1782115904.568076,403979,0.985352,0.000488,0.079102,17.256098,7.012195,-0.121951,9.187500,-27.031250,25.475000,0.0,1.000000,0.000000,0.000000,0.000000
1782115904.578076,403989,0.972168,-0.002930,0.085938,17.987804,5.426829,0.975610,9.268750,-26.981251,25.493750,0.0,1.000000,0.000000,0.000000,0.000000
1782115904.588076,403999,0.958008,0.004883,0.083008,16.463415,1.097561,2.743902,9.268750,-26.981251,25.493750,0.0,1.000000,0.000000,0.000000,0.000000
1782115904.598076,404009,0.968262,0.012695,0.068848,15.000000,-0.060976,3.048780,9.356250,-27.025000,25.518751,0.0,1.000000,0.000000,0.000000,0.000000
1782115904.608076,404019,0.980957,0.020996,0.057129,14.024390,-0.426829,3.353659,9.356250,-27.025000,25.518751,0.0,1.000000,0.000000,0.000000,0.000000
1782115904.618076,404029,0.988770,0.028809,0.052734,14.024390,-0.304878,3.536585,9.387500,-27.062500,25.425001,0.0,1.000000,0.000000,0.000000,0.000000
1782115904.628076,404039,0.992188,0.036133,0.054199,14.695123,0.060976,3.902439,9.387500,-27.062500,25.425001,0.0,1.000000,0.000000,0.000000,0.000000
1782115904.638076,404049,0.985352,0.048828,0.065918,15.365854,0.243902,4.329268,9.418750,-27.093750,25.418751,0.0,1.000000,0.000000,0.000000,0.000000
1782115904.648076,404059,0.976562,0.058105,0.078125,15.548780,-0.548781,4.451220,9.418750,-27.093750,25.418751,0.0,1.000000,0.000000,0.000000,0.000000
1782115904.658076,404069,0.973633,0.063965,0.087402,14.756098,-2.256098,4.634146,9.525001,-26.981251,25.237501,0.0,1.000000,0.000000,0.000000,0.000000
1782115904.668076,404079,0.973145,0.064941,0.091309,13.170732,-3.780488,4.573171,9.525001,-26.981251,25.237501,0.0,1.000000,0.000000,0.000000,0.000000
1782115904.678076,404089,0.978027,0.060059,0.095215,10.914635,-5.121951,4.451220,9.543750,-27.200001,25.218750,0.0,1.000000,0.000000,0.000000,0.000000
1782115904.688076,404099,0.989746,0.054688,0.090820,8.658537,-6.036585,4.268293,9.543750,-27.200001,25.218750,0.0,1.000000,0.000000,0.000000,0.000000
1782115904.698076,404109,1.002930,0.052734,0.084473,7.073171,-6.219512,3.658537,9.531250,-27.243750,25.087500,0.0,1.000000,0.000000,0.000000,0.000000
1782115904.708076,404119,1.006836,0.055664,0.074219,6.463415,-5.792683,3.048780,9.531250,-27.243750,25.087500,0.0,1.000000,0.000000,0.000000,0.000000
1782115904.718076,404129,1.005371,0.062012,0.075195,6.036585,-5.548780,2.500000,9.593750,-27.206251,24.956251,0.0,1.000000,0.000000,0.000000,0.000000
1782115904.728076,404139,1.004883,0.066895,0.074707,5.731708,-5.121951,2.195122,9.593750,-27.206251,24.956251,0.0,1.000000,0.000000,0.000000,0.000000
1782115904.738076,404149,1.002441,0.070312,0.079102,5.182927,-5.060976,2.256098,9.600000,-27.237501,24.868750,0.0,1.000000,0.000000,0.000000,0.000000
1782115904.748076,404159,1.007812,0.066895,0.087402,4.329268,-5.548780,2.378049,9.600000,-27.237501,24.868750,0.0,1.000000,0.000000,0.000000,0.000000
1782115904.759076,404170,1.018066,0.066895,0.094727,3.353659,-5.121951,1.829268,9.556251,-27.337500,24.812500,0.0,1.000000,0.000000,0.000000,0.000000
1782115904.769076,404180,1.026367,0.058105,0.102051,2.560976,-3.963415,0.914634,9.556251,-27.337500,24.812500,0.0,1.000000,0.000000,0.000000,0.000000
1782115904.778076,404189,1.027344,0.055664,0.109863,1.646341,-2.865854,0.365854,9.650001,-27.256250,24.743750,0.0,1.000000,0.000000,0.000000,0.000000
1782115904.788076,404199,1.022949,0.046387,0.114258,0.426829,-2.256098,0.060976,9.650001,-27.256250,24.743750,0.0,1.000000,0.000000,0.000000,0.000000
1782115904.799076,404210,1.014648,0.035645,0.114746,-0.548781,-1.036585,-0.060976,9.612500,-27.343750,24.743750,0.0,1.000000,0.000000,0.000000,0.000000
1782115904.808076,404219,1.018066,0.030762,0.112793,-1.768293,-0.243902,-0.182927,9.612500,-27.343750,24.743750,0.0,1.000000,0.000000,0.000000,0.000000
1782115904.818076,404229,1.032715,0.028320,0.106445,-2.743902,0.731707,-0.426829,9.650001,-27.350000,24.718750,0.0,1.000000,0.000000,0.000000,0.000000
1782115904.828076,404239,1.049805,0.023926,0.102051,-2.926829,2.987805,-0.914634,9.650001,-27.350000,24.718750,0.0,1.000000,0.000000,0.000000,0.000000
1782115904.838076,404249,1.059570,0.021484,0.101074,-2.134146,5.182927,-1.158537,9.581250,-27.381250,24.850000,0.0,1.000000,0.000000,0.000000,0.000000
1782115904.848076,404259,1.061035,0.022461,0.102539,-0.853659,7.073171,-1.158537,9.581250,-27.381250,24.850000,0.0,1.000000,0.000000,0.000000,0.000000
1782115904.858076,404269,1.046875,0.014648,0.105469,0.670732,8.780488,-0.914634,9.550000,-27.306250,24.831251,0.0,1.000000,0.000000,0.000000,0.000000
1782115904.868076,404279,1.031738,0.002930,0.107910,2.317073,9.634147,-0.853659,9.550000,-27.306250,24.831251,0.0,1.000000,0.000000,0.000000,0.000000
1782115904.880076,404291,1.012207,-0.009766,0.106445,4.451220,10.609756,-0.731707,9.606250,-27.287500,24.975000,0.0,1.000000,0.000000,0.000000,0.000000
1782115904.888076,404299,0.995605,-0.013184,0.104004,6.646342,11.341464,-0.548781,9.606250,-27.287500,24.975000,0.0,1.000000,0.000000,0.000000,0.000000
1782115904.898076,404309,0.981934,-0.015625,0.092285,8.536586,11.829268,-0.609756,9.643750,-27.143751,25.062500,0.0,1.000000,0.000000,0.000000,0.000000
1782115904.908076,404319,0.974121,0.006836,0.093262,8.841464,12.560976,-1.097561,9.643750,-27.143751,25.062500,0.0,1.000000,0.000000,0.000000,0.000000
1782115904.920076,404331,0.967773,0.004395,0.069824,9.146341,14.024390,-1.585366,9.712501,-27.081251,25.181250,0.0,1.000000,0.000000,0.000000,0.000000
1782115904.928076,404339,0.973145,0.012695,0.064941,9.695122,13.414635,-2.378049,9.712501,-27.081251,25.181250,0.0,1.000000,0.000000,0.000000,0.000000
1782115904.938076,404349,0.977051,0.020996,0.067383,8.597561,13.963415,-3.841464,9.887500,-26.843750,25.318750,0.0,1.000000,0.000000,0.000000,0.000000
1782115904.948076,404359,0.979492,0.022461,0.074707,8.719512,14.207317,-4.878049,9.887500,-26.843750,25.318750,0.0,1.000000,0.000000,0.000000,0.000000
1782115904.960076,404371,0.974609,0.018066,0.082031,8.719512,12.804878,-4.817073,9.993751,-26.768751,25.468750,0.0,1.000000,0.000000,0.000000,0.000000
1782115904.968076,404379,0.962891,0.006348,0.086914,8.963415,10.609756,-3.902439,9.993751,-26.768751,25.468750,0.0,1.000000,0.000000,0.000000,0.000000
1782115904.978076,404389,0.955078,0.006348,0.096680,9.390244,8.353659,-2.926829,10.200000,-26.631250,25.500000,0.0,1.000000,0.000000,0.000000,0.000000
1782115904.988076,404399,0.950195,0.017578,0.105957,7.378049,6.768293,-2.012195,10.200000,-26.631250,25.500000,0.0,1.000000,0.000000,0.000000,0.000000
1782115905.004076,404415,0.951660,0.016113,0.092773,4.878049,5.182927,-1.341463,10.225000,-26.593750,25.650000,0.0,1.000000,0.000000,0.000000,0.000000
1782115905.010076,404421,0.956055,0.017578,0.094727,2.073171,2.987805,-0.365854,10.225000,-26.593750,25.650000,0.0,1.000000,0.000000,0.000000,0.000000
1782115905.018076,404429,0.969727,0.016113,0.096191,0.121951,1.951220,0.487805,10.268750,-26.500000,25.600000,0.0,1.000000,0.000000,0.000000,0.000000
1782115905.028076,404439,0.975586,0.015137,0.101074,-0.365854,1.524390,1.463415,10.268750,-26.500000,25.600000,0.0,1.000000,0.000000,0.000000,0.000000
1782115905.041076,404452,0.980469,-0.000977,0.100586,-0.670732,0.609756,2.987805,10.156250,-26.643751,25.650000,0.0,1.000000,0.000000,0.000000,0.000000
1782115905.048076,404459,0.982910,-0.020020,0.098633,0.609756,-0.853659,4.939024,10.156250,-26.643751,25.650000,0.0,1.000000,0.000000,0.000000,0.000000
1782115905.058076,404469,0.982910,-0.013672,0.106445,1.219512,-1.280488,7.743903,10.131250,-26.543751,25.618750,0.0,1.000000,0.000000,0.000000,0.000000
1782115905.068076,404479,0.984863,-0.006348,0.108398,1.219512,0.731707,9.878049,10.131250,-26.543751,25.618750,0.0,1.000000,0.000000,0.000000,0.000000
1782115905.082076,404493,0.980957,0.006836,0.100586,1.768293,2.865854,10.975610,9.937500,-26.743750,25.650000,0.0,1.000000,0.000000,0.000000,0.000000
1782115905.088076,404499,0.984375,0.019531,0.104004,2.378049,3.536585,11.463415,9.937500,-26.743750,25.650000,0.0,1.000000,0.000000,0.000000,0.000000
1782115905.098076,404509,0.990234,0.032227,0.111328,2.926829,2.865854,11.097561,10.012500,-26.425001,25.400000,0.0,1.000000,0.000000,0.000000,0.000000
1782115905.108076,404519,1.004883,0.037109,0.123047,3.170732,2.256098,10.365854,10.012500,-26.425001,25.400000,0.0,1.000000,0.000000,0.000000,0.000000
1782115905.121076,404532,1.015625,0.045410,0.137695,3.292683,2.439024,9.634147,9.868751,-26.562500,25.518751,0.0,1.000000,0.000000,0.000000,0.000000
1782115905.128076,404539,1.020996,0.052734,0.148926,3.231707,2.804878,8.597561,9.868751,-26.562500,25.518751,0.0,1.000000,0.000000,0.000000,0.000000
1782115905.138076,404549,1.019531,0.060547,0.155762,3.109756,3.170732,7.500000,9.787500,-26.656250,25.556250,0.0,1.000000,0.000000,0.000000,0.000000
1782115905.148076,404559,1.011719,0.073242,0.162109,3.170732,3.170732,6.646342,9.787500,-26.656250,25.556250,0.0,1.000000,0.000000,0.000000,0.000000
1782115905.161076,404572,1.003906,0.085938,0.159180,2.256098,2.804878,5.792683,9.706250,-26.681250,25.643751,0.0,1.000000,0.000000,0.000000,0.000000
1782115905.168076,404579,1.002930,0.091309,0.146484,1.463415,2.378049,4.939024,9.706250,-26.681250,25.643751,0.0,1.000000,0.000000,0.000000,0.000000
1782115905.179076,404590,1.008301,0.089355,0.136719,1.219512,2.500000,4.390244,9.687500,-26.700001,25.625000,0.0,1.000000,0.000000,0.000000,0.000000
1782115905.188076,404599,1.016602,0.087402,0.132812,1.219512,3.170732,4.268293,9.687500,-26.700001,25.625000,0.0,1.000000,0.000000,0.000000,0.000000
1782115905.201076,404612,1.017090,0.084961,0.129395,1.707317,4.451220,3.963415,9.693750,-26.731251,25.643751,0.0,1.000000,0.000000,0.000000,0.000000
1782115905.209076,404620,1.009277,0.076172,0.125977,2.804878,5.304878,3.780488,9.693750,-26.731251,25.643751,0.0,1.000000,0.000000,0.000000,0.000000
1782115905.218076,404629,1.002441,0.064453,0.121094,4.268293,5.731708,3.231707,9.712501,-26.612501,25.668751,0.0,1.000000,0.000000,0.000000,0.000000
1782115905.228076,404639,1.000488,0.054199,0.113770,6.097561,5.548780,2.500000,9.712501,-26.612501,25.668751,0.0,1.000000,0.000000,0.000000,0.000000
1782115905.238076,404649,1.004883,0.047363,0.114746,7.378049,5.060976,1.768293,9.687500,-26.618750,25.737501,0.0,1.000000,0.000000,0.000000,0.000000
1782115905.249076,404660,1.005371,0.059570,0.119629,7.317073,5.000000,0.182927,9.687500,-26.618750,25.737501,0.0,1.000000,0.000000,0.000000,0.000000
1782115905.258076,404669,1.000000,0.064941,0.121094,5.914634,5.304878,-2.134146,9.756250,-26.531250,25.675001,0.0,1.000000,0.000000,0.000000,0.000000
1782115905.268076,404679,0.991211,0.069336,0.128418,2.439024,6.280488,-4.329268,9.756250,-26.531250,25.675001,0.0,1.000000,0.000000,0.000000,0.000000
1782115905.279076,404690,0.984863,0.039062,0.117676,-0.060976,6.341464,-5.853659,9.793750,-26.525000,25.787500,0.0,1.000000,0.000000,0.000000,0.000000
1782115905.288076,404699,0.979492,0.030762,0.122070,-0.792683,5.060976,-6.036585,9.793750,-26.525000,25.787500,0.0,1.000000,0.000000,0.000000,0.000000
1782115905.298076,404709,0.977051,0.013184,0.115723,-2.134146,3.597561,-5.548780,10.025001,-26.156250,25.756250,0.0,1.000000,0.000000,0.000000,0.000000
1782115905.308076,404719,0.985352,0.020508,0.129883,-4.451220,2.195122,-4.573171,10.025001,-26.156250,25.756250,0.0,1.000000,0.000000,0.000000,0.000000
1782115905.318076,404729,0.997559,0.011719,0.127930,-7.500000,2.012195,-3.414634,10.056251,-26.331251,25.937500,0.0,1.000000,0.000000,0.000000,0.000000
1782115905.328076,404739,0.997070,0.008789,0.128418,-9.146341,2.500000,-2.560976,10.056251,-26.331251,25.937500,0.0,1.000000,0.000000,0.000000,0.000000
1782115905.338076,404749,0.981934,-0.014160,0.117676,-8.658537,2.560976,-1.341463,9.956250,-26.218750,25.993750,0.0,1.000000,0.000000,0.000000,0.000000
1782115905.348076,404759,0.960449,-0.012207,0.125488,-8.414635,1.524390,0.609756,9.956250,-26.218750,25.993750,0.0,1.000000,0.000000,0.000000,0.000000
1782115905.359076,404770,0.947266,-0.014648,0.119629,-8.414635,0.304878,2.073171,9.881250,-26.331251,26.068750,0.0,1.000000,0.000000,0.000000,0.000000
1782115905.369076,404780,0.953613,-0.017090,0.109863,-8.841464,-1.097561,2.743902,9.812500,-26.293751,26.056250,0.0,1.000000,0.000000,0.000000,0.000000
1782115905.378076,404789,0.968750,-0.013184,0.106445,-9.695122,-1.707317,2.621951,9.812500,-26.293751,26.056250,0.0,1.000000,0.000000,0.000000,0.000000
1782115905.389076,404800,0.984863,-0.003906,0.099609,-10.426829,-1.280488,1.402439,9.637500,-26.393751,26.125000,0.0,1.000000,0.000000,0.000000,0.000000
1782115905.398076,404809,0.996582,0.000488,0.090820,-10.182927,-0.487805,-0.060976,9.637500,-26.393751,26.125000,0.0,1.000000,0.000000,0.000000,0.000000
1782115905.408076,404819,0.998047,0.004395,0.091309,-8.658537,-0.670732,-0.731707,9.768750,-26.081251,25.962500,0.0,1.000000,0.000000,0.000000,0.000000
1782115905.418076,404829,1.010254,0.003906,0.092773,-6.829268,-2.317073,-1.036585,9.768750,-26.081251,25.962500,0.0,1.000000,0.000000,0.000000,0.000000
1782115905.428076,404839,1.028320,-0.020020,0.096191,-4.207317,-2.560976,-2.134146,9.650001,-26.200001,26.043751,0.0,1.000000,0.000000,0.000000,0.000000
1782115905.438076,404849,1.053223,0.020996,0.110352,-2.317073,-1.097561,1.707317,9.650001,-26.200001,26.043751,0.0,1.000000,0.000000,0.000000,0.000000
1782115905.449076,404860,1.018555,0.003418,0.092773,-3.963415,6.341464,2.012195,9.493751,-26.425001,26.281250,0.0,1.000000,0.000000,0.000000,0.000000
1782115905.458076,404869,1.018555,0.003418,0.092773,-3.963415,6.341464,2.012195,9.493751,-26.425001,26.281250,0.0,1.000000,0.000000,0.000000,0.000000
1782115905.468076,404879,0.989258,0.015625,0.093750,-5.060976,5.365854,3.109756,9.450000,-26.306250,26.218750,0.0,1.000000,0.000000,0.000000,0.000000
1782115905.478076,404889,0.996094,0.024414,0.091797,-6.768293,5.365854,4.268293,9.450000,-26.306250,26.218750,0.0,1.000000,0.000000,0.000000,0.000000
1782115905.488076,404899,0.988770,0.024414,0.101562,-7.621952,6.402439,4.573171,9.412500,-26.256250,26.275000,0.0,1.000000,0.000000,0.000000,0.000000
1782115905.498076,404909,1.000977,0.050293,0.124512,-8.536586,5.000000,4.512195,9.412500,-26.256250,26.275000,0.0,1.000000,0.000000,0.000000,0.000000
1782115905.508076,404919,1.021973,0.072754,0.132812,-11.402439,5.060976,4.146341,9.243751,-26.306250,26.456251,0.0,1.000000,0.000000,0.000000,0.000000
1782115905.518076,404929,1.002441,0.103516,0.141602,-18.109756,8.841464,4.329268,9.243751,-26.306250,26.456251,0.0,1.000000,0.000000,0.000000,0.000000
1782115905.529076,404940,0.988770,0.106934,0.145508,-22.865854,8.597561,4.329268,9.050000,-26.231251,26.556250,0.0,1.000000,0.000000,0.000000,0.000000
1782115905.539076,404950,0.979980,0.104980,0.151367,-28.353659,7.743903,3.963415,9.050000,-26.231251,26.556250,0.0,1.000000,0.000000,0.000000,0.000000
1782115905.549076,404960,0.985840,0.093262,0.151855,-32.926830,6.402439,3.841464,8.893750,-26.056250,26.706251,0.0,1.000000,0.000000,0.000000,0.000000
1782115905.558076,404969,1.001465,0.083008,0.155762,-35.792683,6.158537,3.658537,8.893750,-26.056250,26.706251,0.0,1.000000,0.000000,0.000000,0.000000
1782115905.568076,404979,1.020020,0.074219,0.161621,-36.768295,6.829268,3.109756,8.550000,-26.081251,26.900000,0.0,1.000000,0.000000,0.000000,0.000000
1782115905.578076,404989,1.027832,0.065430,0.166016,-36.829269,8.658537,2.134146,8.550000,-26.081251,26.900000,0.0,1.000000,0.000000,0.000000,0.000000
1782115905.588076,404999,1.023926,0.059570,0.167480,-35.365856,11.463415,0.365854,8.150001,-26.168751,27.181250,0.0,1.000000,0.000000,0.000000,0.000000
1782115905.599076,405010,1.007324,0.039062,0.175781,-33.475609,13.170732,-0.365854,8.150001,-26.168751,27.181250,0.0,1.000000,0.000000,0.000000,0.000000
1782115905.609076,405020,0.997070,0.016113,0.171387,-30.853659,13.841464,-0.426829,7.943750,-26.006250,27.468750,0.0,1.000000,0.000000,0.000000,0.000000
1782115905.618076,405029,0.979004,0.002930,0.176270,-27.804878,13.841464,0.000000,7.943750,-26.006250,27.468750,0.0,1.000000,0.000000,0.000000,0.000000
1782115905.630076,405041,0.979492,-0.010742,0.175781,-24.817074,13.170732,-0.182927,7.556250,-26.062500,27.756250,0.0,1.000000,0.000000,0.000000,0.000000
1782115905.638076,405049,0.990723,-0.026855,0.172852,-21.707317,13.658537,-1.158537,7.556250,-26.062500,27.756250,0.0,1.000000,0.000000,0.000000,0.000000
1782115905.648076,405059,0.988770,-0.040039,0.174805,-18.170732,14.634147,-2.560976,7.468750,-25.843750,27.943750,0.0,1.000000,0.000000,0.000000,0.000000
1782115905.658076,405069,0.981445,-0.056641,0.182617,-14.878049,14.878049,-2.987805,7.468750,-25.843750,27.943750,0.0,1.000000,0.000000,0.000000,0.000000
1782115905.668076,405079,0.971191,-0.071289,0.188965,-11.951220,14.756098,-2.804878,7.337500,-25.793751,28.200001,0.0,1.000000,0.000000,0.000000,0.000000
1782115905.678076,405089,0.958496,-0.084961,0.196289,-9.634147,14.268293,-2.256098,7.337500,-25.793751,28.200001,0.0,1.000000,0.000000,0.000000,0.000000
1782115905.689076,405100,0.948730,-0.096680,0.199707,-7.865854,12.926829,-1.707317,7.412500,-25.587500,28.418751,0.0,1.000000,0.000000,0.000000,0.000000
1782115905.698076,405109,0.944336,-0.098145,0.201172,-6.158537,11.036586,-0.792683,7.412500,-25.587500,28.418751,0.0,1.000000,0.000000,0.000000,0.000000
1782115905.709076,405120,0.940918,-0.085938,0.209961,-5.670732,8.658537,0.365854,7.375000,-25.537500,28.706251,0.0,1.000000,0.000000,0.000000,0.000000
1782115905.718076,405129,0.943848,-0.083984,0.206543,-4.451220,6.341464,1.158537,7.375000,-25.537500,28.706251,0.0,1.000000,0.000000,0.000000,0.000000
1782115905.728076,405139,0.935059,-0.087402,0.200684,-2.743902,4.573171,2.195122,7.300000,-25.443750,28.712500,0.0,1.000000,0.000000,0.000000,0.000000
1782115905.739076,405150,0.930176,-0.078125,0.206055,-0.731707,3.048780,3.353659,7.300000,-25.443750,28.712500,0.0,1.000000,0.000000,0.000000,0.000000
1782115905.748076,405159,0.922852,-0.078613,0.202148,2.134146,2.195122,3.780488,7.206250,-25.525000,28.793751,0.0,1.000000,0.000000,0.000000,0.000000
1782115905.758076,405169,0.919434,-0.076172,0.202148,4.695122,1.097561,4.024390,7.206250,-25.525000,28.793751,0.0,1.000000,0.000000,0.000000,0.000000
1782115905.769076,405180,0.921875,-0.084473,0.199219,7.256098,-0.548781,4.329268,7.231250,-25.568750,28.756250,0.0,1.000000,0.000000,0.000000,0.000000
1782115905.779076,405190,0.926758,-0.069824,0.203613,9.573171,-2.012195,4.695122,7.231250,-25.568750,28.756250,0.0,1.000000,0.000000,0.000000,0.000000
1782115905.789076,405200,0.927246,-0.063477,0.202637,11.036586,-3.414634,4.634146,7.225000,-25.631250,28.725000,0.0,1.000000,0.000000,0.000000,0.000000
1782115905.798076,405209,0.927734,-0.056641,0.204102,12.439025,-5.000000,4.329268,7.225000,-25.631250,28.725000,0.0,1.000000,0.000000,0.000000,0.000000
1782115905.809076,405220,0.931152,-0.052734,0.202148,13.719513,-7.256098,3.902439,7.262500,-25.693750,28.650000,0.0,1.000000,0.000000,0.000000,0.000000
1782115905.818076,405229,0.945801,-0.050781,0.195312,15.853659,-9.329268,3.719512,7.262500,-25.693750,28.650000,0.0,1.000000,0.000000,0.000000,0.000000
1782115905.828076,405239,0.962402,-0.035645,0.192871,17.743902,-11.158537,3.780488,7.375000,-25.875000,28.525000,0.0,1.000000,0.000000,0.000000,0.000000
1782115905.838076,405249,0.971680,-0.019043,0.193359,19.024391,-12.987805,3.719512,7.375000,-25.875000,28.525000,0.0,1.000000,0.000000,0.000000,0.000000
1782115905.848076,405259,0.980957,-0.001465,0.203125,19.024391,-14.817074,3.902439,7.606250,-25.743750,28.168751,0.0,1.000000,0.000000,0.000000,0.000000
1782115905.858076,405269,0.989746,0.003906,0.203125,18.597561,-16.402439,4.268293,7.606250,-25.743750,28.168751,0.0,1.000000,0.000000,0.000000,0.000000
1782115905.868076,405279,0.992188,0.005371,0.207520,17.378050,-17.500000,4.939024,7.531250,-26.187500,28.056250,0.0,1.000000,0.000000,0.000000,0.000000
1782115905.878076,405289,0.993164,-0.000488,0.210938,15.487805,-19.085367,6.036585,7.531250,-26.187500,28.056250,0.0,1.000000,0.000000,0.000000,0.000000
1782115905.888076,405299,0.990723,0.008789,0.210938,13.414635,-19.878050,6.707317,7.543750,-26.400000,27.775000,0.0,1.000000,0.000000,0.000000,0.000000
1782115905.898076,405309,0.992188,0.018555,0.207031,11.219512,-20.426830,7.134147,7.543750,-26.400000,27.775000,0.0,1.000000,0.000000,0.000000,0.000000
1782115905.908076,405319,0.995605,0.022949,0.204102,9.573171,-20.731709,7.317073,7.587500,-26.575001,27.531250,0.0,1.000000,0.000000,0.000000,0.000000
1782115905.918076,405329,0.993652,0.028320,0.205078,7.926829,-19.878050,7.195122,7.587500,-26.575001,27.531250,0.0,1.000000,0.000000,0.000000,0.000000
1782115905.928076,405339,0.993164,0.024414,0.202148,6.707317,-19.207317,6.707317,7.550000,-26.781250,27.256250,0.0,1.000000,0.000000,0.000000,0.000000
1782115905.938076,405349,0.992188,0.011719,0.196777,6.341464,-18.963415,6.097561,7.550000,-26.781250,27.256250,0.0,1.000000,0.000000,0.000000,0.000000
1782115905.948076,405359,0.995605,-0.006836,0.189941,7.500000,-18.597561,5.365854,7.550000,-26.975000,27.068750,0.0,1.000000,0.000000,0.000000,0.000000
1782115905.958076,405369,1.001953,-0.015625,0.189941,9.024390,-17.926830,4.878049,7.550000,-26.975000,27.068750,0.0,1.000000,0.000000,0.000000,0.000000
1782115905.968076,405379,1.005371,-0.019043,0.186523,10.243902,-16.829269,4.390244,7.587500,-27.150000,26.843750,0.0,1.000000,0.000000,0.000000,0.000000
1782115905.979076,405390,1.003418,-0.017578,0.180664,10.670732,-15.548780,4.268293,7.587500,-27.150000,26.843750,0.0,1.000000,0.000000,0.000000,0.000000
1782115905.988076,405399,1.001465,-0.012207,0.174805,10.304878,-14.451220,4.207317,7.825000,-26.975000,26.512501,0.0,1.000000,0.000000,0.000000,0.000000
1782115905.999076,405410,1.008301,-0.008301,0.164551,9.024390,-13.780488,4.634146,7.825000,-26.975000,26.512501,0.0,1.000000,0.000000,0.000000,0.000000
1782115906.009076,405420,1.017090,-0.007812,0.151855,7.926829,-12.865854,4.512195,7.806250,-27.287500,26.512501,0.0,1.000000,0.000000,0.000000,0.000000
1782115906.018076,405429,1.029297,-0.009277,0.145996,7.134147,-11.890244,4.329268,7.806250,-27.287500,26.512501,0.0,1.000000,0.000000,0.000000,0.000000
1782115906.028076,405439,1.030762,-0.010742,0.142090,6.951220,-10.487805,4.024390,7.850000,-27.393751,26.400000,0.0,1.000000,0.000000,0.000000,0.000000
1782115906.039076,405450,1.017578,-0.016113,0.140137,6.768293,-8.963415,3.658537,7.850000,-27.393751,26.400000,0.0,1.000000,0.000000,0.000000,0.000000
1782115906.048076,405459,1.006348,-0.021973,0.137207,6.646342,-8.231708,3.780488,7.875000,-27.500000,26.300001,0.0,1.000000,0.000000,0.000000,0.000000
1782115906.058076,405469,0.995117,-0.023926,0.133301,6.158537,-8.048780,4.024390,7.875000,-27.500000,26.300001,0.0,1.000000,0.000000,0.000000,0.000000
1782115906.068076,405479,0.988770,-0.022461,0.127441,5.121951,-8.414635,4.207317,7.943750,-27.543751,26.206251,0.0,1.000000,0.000000,0.000000,0.000000
1782115906.078076,405489,0.986816,-0.014648,0.121582,3.963415,-8.963415,3.902439,7.943750,-27.543751,26.206251,0.0,1.000000,0.000000,0.000000,0.000000
1782115906.089076,405500,0.990234,-0.005371,0.118164,2.621951,-9.512196,3.780488,8.031250,-27.425001,26.018751,0.0,1.000000,0.000000,0.000000,0.000000
1782115906.098076,405509,0.995605,0.000000,0.113281,1.036585,-9.817074,3.719512,8.031250,-27.425001,26.018751,0.0,1.000000,0.000000,0.000000,0.000000
1782115906.109076,405520,0.997070,0.001465,0.111328,-0.304878,-10.243902,3.536585,7.868750,-27.675001,26.018751,0.0,1.000000,0.000000,0.000000,0.000000
1782115906.118076,405529,0.995605,-0.006836,0.104492,-0.853659,-10.426829,3.231707,7.868750,-27.675001,26.018751,0.0,1.000000,0.000000,0.000000,0.000000
1782115906.129076,405540,0.989746,-0.019531,0.098633,-0.975610,-10.975610,3.170732,7.843750,-27.768751,25.856251,0.0,1.000000,0.000000,0.000000,0.000000
1782115906.138076,405549,0.983398,-0.030762,0.091309,-0.670732,-11.768293,2.926829,7.843750,-27.768751,25.856251,0.0,1.000000,0.000000,0.000000,0.000000
1782115906.148076,405559,0.976074,-0.032227,0.088379,-0.365854,-12.439025,2.560976,7.843750,-27.893751,25.825001,0.0,1.000000,0.000000,0.000000,0.000000
1782115906.158076,405569,0.974121,-0.047852,0.079590,-0.182927,-12.987805,1.951220,7.843750,-27.893751,25.825001,0.0,1.000000,0.000000,0.000000,0.000000
1782115906.168076,405579,0.977539,-0.053223,0.071777,0.670732,-12.865854,0.914634,7.812500,-28.006250,25.675001,0.0,1.000000,0.000000,0.000000,0.000000
1782115906.179076,405590,0.986328,-0.064941,0.062988,1.158537,-12.743903,-0.304878,7.812500,-28.006250,25.675001,0.0,1.000000,0.000000,0.000000,0.000000
1782115906.189076,405600,1.000488,-0.063965,0.065430,1.097561,-12.256098,-1.402439,7.937500,-28.062500,25.475000,0.0,1.000000,0.000000,0.000000,0.000000
1782115906.198076,405609,1.020508,-0.077637,0.061035,0.670732,-11.768293,-2.134146,7.937500,-28.062500,25.475000,0.0,1.000000,0.000000,0.000000,0.000000
1782115906.209076,405620,1.033691,-0.088867,0.060059,0.670732,-11.097561,-2.560976,8.100000,-27.912500,25.281250,0.0,1.000000,0.000000,0.000000,0.000000
1782115906.218076,405629,1.039551,-0.098633,0.060547,0.548781,-10.609756,-2.256098,8.100000,-27.912500,25.281250,0.0,1.000000,0.000000,0.000000,0.000000
1782115906.228076,405639,1.033203,-0.121094,0.057617,0.548781,-10.182927,-1.036585,7.962500,-28.168751,25.318750,0.0,1.000000,0.000000,0.000000,0.000000
1782115906.238076,405649,1.018066,-0.138672,0.055176,0.792683,-9.878049,0.670732,7.962500,-28.168751,25.318750,0.0,1.000000,0.000000,0.000000,0.000000
1782115906.248076,405659,1.003418,-0.151855,0.045898,1.280488,-10.426829,2.682927,7.950000,-28.331251,25.275000,0.0,1.000000,0.000000,0.000000,0.000000
1782115906.258076,405669,0.992188,-0.150879,0.040039,1.707317,-11.341464,4.207317,7.950000,-28.331251,25.275000,0.0,1.000000,0.000000,0.000000,0.000000
1782115906.268076,405679,0.990234,-0.137695,0.042969,2.073171,-11.768293,4.756098,7.956250,-28.368750,25.018751,0.0,1.000000,0.000000,0.000000,0.000000
1782115906.278076,405689,0.997070,-0.122070,0.045410,2.743902,-11.585366,4.573171,7.956250,-28.368750,25.018751,0.0,1.000000,0.000000,0.000000,0.000000
1782115906.289076,405700,1.004883,-0.098633,0.046875,4.207317,-10.670732,4.268293,7.981250,-28.450001,24.906250,0.0,1.000000,0.000000,0.000000,0.000000
1782115906.298076,405709,1.008301,-0.077148,0.052734,5.914634,-9.024390,4.024390,7.981250,-28.450001,24.906250,0.0,1.000000,0.000000,0.000000,0.000000
1782115906.308076,405719,1.003906,-0.063965,0.058594,7.682927,-7.195122,3.963415,7.962500,-28.537500,24.800001,0.0,1.000000,0.000000,0.000000,0.000000
1782115906.318076,405729,0.992676,-0.045898,0.069824,9.756098,-6.219512,3.841464,7.962500,-28.537500,24.800001,0.0,1.000000,0.000000,0.000000,0.000000
1782115906.328076,405739,0.977051,-0.040527,0.075684,10.487805,-5.609756,3.475610,8.125000,-28.493750,24.612501,0.0,1.000000,0.000000,0.000000,0.000000
1782115906.338076,405749,0.968750,-0.034180,0.074707,11.768293,-5.975610,2.804878,8.125000,-28.493750,24.612501,0.0,1.000000,0.000000,0.000000,0.000000
1782115906.348076,405759,0.967773,-0.021973,0.075684,12.073171,-6.036585,1.768293,8.206250,-28.481251,24.475000,0.0,1.000000,0.000000,0.000000,0.000000
1782115906.359076,405770,0.973633,-0.009277,0.070801,12.317074,-5.670732,0.426829,8.206250,-28.481251,24.475000,0.0,1.000000,0.000000,0.000000,0.000000
1782115906.369076,405780,0.987793,0.000000,0.058105,11.951220,-5.304878,-1.219512,8.381250,-28.537500,24.456251,0.0,1.000000,0.000000,0.000000,0.000000
1782115906.379076,405790,0.989258,0.000488,0.060547,10.609756,-4.817073,-1.524390,8.381250,-28.537500,24.456251,0.0,1.000000,0.000000,0.000000,0.000000
1782115906.388076,405799,0.989258,0.000488,0.060547,10.609756,-4.817073,-1.524390,8.575000,-28.487501,24.368750,0.0,1.000000,0.000000,0.000000,0.000000
1782115906.398076,405809,0.988770,0.000000,0.061523,8.414635,-4.634146,-1.829268,8.575000,-28.487501,24.368750,0.0,1.000000,0.000000,0.000000,0.000000
1782115906.409076,405820,0.990723,-0.017090,0.059082,2.682927,-5.609756,-1.768293,8.643750,-28.500000,24.275000,0.0,1.000000,0.000000,0.000000,0.000000
1782115906.419076,405830,1.000977,-0.028809,0.051758,-0.365854,-6.036585,-1.585366,8.643750,-28.500000,24.275000,0.0,1.000000,0.000000,0.000000,0.000000
1782115906.428076,405839,1.010742,-0.037109,0.049805,-3.231707,-5.731708,-1.097561,8.731250,-28.531250,24.181250,0.0,1.000000,0.000000,0.000000,0.000000
1782115906.438076,405849,1.021484,-0.044922,0.045410,-5.670732,-5.243903,-0.609756,8.731250,-28.531250,24.181250,0.0,1.000000,0.000000,0.000000,0.000000
1782115906.450076,405861,1.026855,-0.053223,0.043945,-7.134147,-4.695122,-0.304878,8.662500,-28.618750,24.137501,0.0,1.000000,0.000000,0.000000,0.000000
1782115906.458076,405869,1.026855,-0.060059,0.042480,-7.926829,-3.841464,0.121951,8.662500,-28.618750,24.137501,0.0,1.000000,0.000000,0.000000,0.000000
1782115906.468076,405879,1.028320,-0.064453,0.041504,-8.170732,-3.170732,0.304878,8.643750,-28.525000,24.112501,0.0,1.000000,0.000000,0.000000,0.000000
1782115906.478076,405889,1.023926,-0.067871,0.039551,-7.621952,-2.804878,0.121951,8.643750,-28.525000,24.112501,0.0,1.000000,0.000000,0.000000,0.000000
1782115906.489076,405900,1.018066,-0.069336,0.043457,-6.768293,-2.439024,-0.060976,8.393750,-28.762501,24.125000,0.0,1.000000,0.000000,0.000000,0.000000
1782115906.498076,405909,1.009766,-0.067871,0.044434,-5.670732,-1.890244,-0.548781,8.393750,-28.762501,24.125000,0.0,1.000000,0.000000,0.000000,0.000000
1782115906.508076,405919,1.002930,-0.060547,0.041504,-4.512195,-1.707317,-1.219512,8.412500,-28.575001,23.987501,0.0,1.000000,0.000000,0.000000,0.000000
1782115906.518076,405929,1.002441,-0.051270,0.036621,-3.475610,-1.463415,-1.951220,8.412500,-28.575001,23.987501,0.0,1.000000,0.000000,0.000000,0.000000
1782115906.530076,405941,1.005371,-0.042969,0.031738,-2.682927,-1.158537,-2.743902,8.287500,-28.731251,24.087500,0.0,1.000000,0.000000,0.000000,0.000000
1782115906.538076,405949,1.008789,-0.036621,0.028320,-2.134146,-1.219512,-3.536585,8.287500,-28.731251,24.087500,0.0,1.000000,0.000000,0.000000,0.000000
1782115906.548076,405959,1.013672,-0.032715,0.025391,-1.829268,-1.036585,-4.207317,8.325000,-28.800001,24.112501,0.0,1.000000,0.000000,0.000000,0.000000
1782115906.559076,405970,1.016602,-0.037598,0.021484,-1.585366,-0.853659,-4.329268,8.325000,-28.800001,24.112501,0.0,1.000000,0.000000,0.000000,0.000000
1782115906.568076,405979,1.014648,-0.039551,0.025391,-1.219512,-0.426829,-4.634146,8.406250,-28.681250,24.056250,0.0,1.000000,0.000000,0.000000,0.000000
1782115906.578076,405989,1.011719,-0.041016,0.028320,-0.792683,0.060976,-5.060976,8.406250,-28.681250,24.056250,0.0,1.000000,0.000000,0.000000,0.000000
1782115906.589076,406000,1.009766,-0.038574,0.028320,-0.670732,0.000000,-5.365854,8.512500,-28.625000,24.112501,0.0,1.000000,0.000000,0.000000,0.000000
1782115906.599076,406010,1.004883,-0.041504,0.035156,-1.219512,-0.304878,-5.243903,8.512500,-28.625000,24.112501,0.0,1.000000,0.000000,0.000000,0.000000
1782115906.609076,406020,1.008301,-0.050293,0.032227,-2.134146,-1.707317,-4.756098,8.568750,-28.581251,24.106251,0.0,1.000000,0.000000,0.000000,0.000000
1782115906.618076,406029,1.008789,-0.057617,0.037109,-3.292683,-2.195122,-3.963415,8.568750,-28.581251,24.106251,0.0,1.000000,0.000000,0.000000,0.000000
1782115906.628076,406039,1.005859,-0.068359,0.036621,-4.390244,-2.560976,-3.353659,8.706250,-28.431250,24.062500,0.0,1.000000,0.000000,0.000000,0.000000
1782115906.638076,406049,1.002441,-0.073242,0.035156,-4.878049,-2.865854,-3.231707,8.706250,-28.431250,24.062500,0.0,1.000000,0.000000,0.000000,0.000000
1782115906.648076,406059,0.999023,-0.078613,0.028809,-4.512195,-3.170732,-3.170732,8.662500,-28.575001,24.143751,0.0,1.000000,0.000000,0.000000,0.000000
1782115906.658076,406069,0.997559,-0.076660,0.025879,-3.658537,-3.597561,-2.926829,8.662500,-28.575001,24.143751,0.0,1.000000,0.000000,0.000000,0.000000
1782115906.668076,406079,0.997070,-0.089355,0.019531,-2.256098,-3.963415,-2.621951,8.568750,-28.568750,24.118750,0.0,1.000000,0.000000,0.000000,0.000000
1782115906.678076,406089,0.995117,-0.094238,0.014648,-0.121951,-3.353659,-2.682927,8.568750,-28.568750,24.118750,0.0,1.000000,0.000000,0.000000,0.000000
1782115906.692076,406103,0.990723,-0.095703,0.011719,2.439024,-2.926829,-2.804878,8.518750,-28.706251,24.075001,0.0,1.000000,0.000000,0.000000,0.000000
1782115906.698076,406109,0.980957,-0.089844,0.018066,4.756098,-2.560976,-2.865854,8.518750,-28.706251,24.075001,0.0,1.000000,0.000000,0.000000,0.000000
1782115906.708076,406119,0.971191,-0.081543,0.022461,6.280488,-2.378049,-3.048780,8.575000,-28.593750,24.000000,0.0,1.000000,0.000000,0.000000,0.000000
1782115906.718076,406129,0.969238,-0.074219,0.024902,7.560976,-2.804878,-3.414634,8.575000,-28.593750,24.000000,0.0,1.000000,0.000000,0.000000,0.000000
1782115906.730076,406141,0.976074,-0.073730,0.026367,9.146341,-3.231707,-3.841464,8.543750,-28.806250,23.956251,0.0,1.000000,0.000000,0.000000,0.000000
1782115906.738076,406149,0.986816,-0.077637,0.025879,10.731708,-3.475610,-4.207317,8.543750,-28.806250,23.956251,0.0,1.000000,0.000000,0.000000,0.000000
1782115906.748076,406159,0.995605,-0.077148,0.024414,12.439025,-3.292683,-4.390244,8.693750,-28.668751,23.850000,0.0,1.000000,0.000000,0.000000,0.000000
1782115906.759076,406170,1.002930,-0.075684,0.022949,14.207317,-3.170732,-4.390244,8.693750,-28.668751,23.850000,0.0,1.000000,0.000000,0.000000,0.000000
1782115906.771076,406182,1.009277,-0.074219,0.017578,15.548780,-3.048780,-4.146341,8.787500,-28.756250,23.818750,0.0,1.000000,0.000000,0.000000,0.000000
1782115906.779076,406190,1.013184,-0.076172,0.012207,16.707317,-3.048780,-3.658537,8.787500,-28.756250,23.818750,0.0,1.000000,0.000000,0.000000,0.000000
1782115906.788076,406199,1.010742,-0.077148,0.007324,17.560976,-2.926829,-2.987805,8.956250,-28.731251,23.718750,0.0,1.000000,0.000000,0.000000,0.000000
1782115906.798076,406209,1.006348,-0.076660,0.006348,18.109756,-2.926829,-2.134146,8.956250,-28.731251,23.718750,0.0,1.000000,0.000000,0.000000,0.000000
1782115906.808076,406219,1.002441,-0.070312,0.008789,18.536585,-2.987805,-1.402439,9.100000,-28.806250,23.643751,0.0,1.000000,0.000000,0.000000,0.000000
1782115906.819076,406230,0.999512,-0.057617,0.012695,18.841463,-2.804878,-1.219512,9.100000,-28.806250,23.643751,0.0,1.000000,0.000000,0.000000,0.000000
1782115906.828076,406239,0.992188,-0.040527,0.017578,18.902439,-2.439024,-1.524390,9.256250,-28.743750,23.493750,0.0,1.000000,0.000000,0.000000,0.000000
1782115906.838076,406249,0.986328,-0.028320,0.023438,18.902439,-2.500000,-2.073171,9.256250,-28.743750,23.493750,0.0,1.000000,0.000000,0.000000,0.000000
1782115906.848076,406259,0.988770,-0.020020,0.027344,18.597561,-2.500000,-2.743902,9.343750,-28.818750,23.450001,0.0,1.000000,0.000000,0.000000,0.000000
1782115906.858076,406269,0.991699,-0.017090,0.029785,18.170732,-2.317073,-3.109756,9.343750,-28.818750,23.450001,0.0,1.000000,0.000000,0.000000,0.000000
1782115906.868076,406279,0.992676,-0.013184,0.030273,17.500000,-2.378049,-3.292683,9.500000,-28.825001,23.368750,0.0,1.000000,0.000000,0.000000,0.000000
1782115906.878076,406289,0.994141,-0.011719,0.034668,16.463415,-2.621951,-3.231707,9.500000,-28.825001,23.368750,0.0,1.000000,0.000000,0.000000,0.000000
1782115906.891076,406302,0.996582,-0.009766,0.037109,15.182927,-2.682927,-2.865854,9.593750,-28.862501,23.293751,0.0,1.000000,0.000000,0.000000,0.000000
1782115906.898076,406309,0.996582,-0.004883,0.039062,13.719513,-2.865854,-2.256098,9.593750,-28.862501,23.293751,0.0,1.000000,0.000000,0.000000,0.000000
1782115906.909076,406320,0.996094,-0.000488,0.036133,12.317074,-2.987805,-1.768293,9.818750,-28.775000,23.112501,0.0,1.000000,0.000000,0.000000,0.000000
1782115906.918076,406329,0.998535,-0.001953,0.031738,10.853659,-3.475610,-1.280488,9.818750,-28.775000,23.112501,0.0,1.000000,0.000000,0.000000,0.000000
1782115906.928076,406339,1.000488,-0.002441,0.032715,9.695122,-3.475610,-0.792683,9.812500,-28.768751,23.018751,0.0,1.000000,0.000000,0.000000,0.000000
1782115906.938076,406349,1.000488,-0.000977,0.037109,8.780488,-3.170732,-0.731707,9.812500,-28.768751,23.018751,0.0,1.000000,0.000000,0.000000,0.000000
1782115906.949076,406360,0.998535,0.003418,0.041016,8.109756,-2.560976,-1.219512,9.837501,-28.887501,23.006250,0.0,1.000000,0.000000,0.000000,0.000000
1782115906.958076,406369,0.996582,0.004395,0.043457,7.804878,-2.134146,-2.134146,9.837501,-28.887501,23.006250,0.0,1.000000,0.000000,0.000000,0.000000
1782115906.969076,406380,0.998535,0.005859,0.043457,7.682927,-2.195122,-3.048780,9.831250,-28.893751,23.000000,0.0,1.000000,0.000000,0.000000,0.000000
1782115906.978076,406389,1.003418,0.003418,0.042969,7.378049,-2.500000,-3.841464,9.831250,-28.893751,23.000000,0.0,1.000000,0.000000,0.000000,0.000000
1782115906.989076,406400,1.012695,-0.003418,0.035645,6.890244,-2.439024,-4.390244,9.931251,-28.893751,22.793751,0.0,1.000000,0.000000,0.000000,0.000000
1782115906.999076,406410,1.018066,-0.001465,0.036621,6.585366,-2.012195,-4.390244,9.931251,-28.893751,22.793751,0.0,1.000000,0.000000,0.000000,0.000000
1782115907.008076,406419,1.018066,0.008301,0.036621,5.670732,-1.463415,-4.329268,9.925000,-28.993750,22.837500,0.0,1.000000,0.000000,0.000000,0.000000
1782115907.018076,406429,1.019043,0.017578,0.038574,4.329268,-1.158537,-4.451220,9.925000,-28.993750,22.837500,0.0,1.000000,0.000000,0.000000,0.000000
1782115907.028076,406439,1.019531,0.019043,0.036621,3.109756,-1.158537,-4.634146,10.006250,-28.943750,22.687500,0.0,1.000000,0.000000,0.000000,0.000000
1782115907.038076,406449,1.020508,0.021973,0.040039,2.134146,-1.097561,-4.573171,10.006250,-28.943750,22.687500,0.0,1.000000,0.000000,0.000000,0.000000
1782115907.048076,406459,1.020020,0.018066,0.045898,0.914634,-0.853659,-4.146341,10.012500,-28.975000,22.706251,0.0,1.000000,0.000000,0.000000,0.000000
1782115907.058076,406469,1.016113,0.017578,0.047852,-0.243902,-0.609756,-3.780488,10.012500,-28.975000,22.706251,0.0,1.000000,0.000000,0.000000,0.000000
1782115907.068076,406479,1.009277,0.014648,0.049805,-1.219512,-0.365854,-3.414634,10.031250,-28.837500,22.662500,0.0,1.000000,0.000000,0.000000,0.000000
1782115907.080076,406491,1.002441,0.012695,0.048828,-2.134146,-0.121951,-3.475610,10.106250,-28.781250,22.687500,0.0,1.000000,0.000000,0.000000,0.000000
1782115907.088076,406499,0.998047,0.008301,0.041016,-2.439024,0.304878,-3.963415,10.106250,-28.781250,22.687500,0.0,1.000000,0.000000,0.000000,0.000000
1782115907.098076,406509,0.998047,0.012695,0.039062,-2.621951,0.731707,-4.573171,10.106250,-28.781250,22.687500,0.0,1.000000,0.000000,0.000000,0.000000
1782115907.108076,406519,0.996582,0.021484,0.041016,-3.414634,1.097561,-5.000000,10.168750,-28.856251,22.762501,0.0,1.000000,0.000000,0.000000,0.000000
1782115907.119076,406530,0.997070,0.022949,0.041504,-4.451220,1.219512,-5.182927,10.056251,-28.906250,22.793751,0.0,1.000000,0.000000,0.000000,0.000000
1782115907.128076,406539,0.995117,0.021973,0.043457,-5.304878,0.914634,-5.243903,10.056251,-28.906250,22.793751,0.0,1.000000,0.000000,0.000000,0.000000
1782115907.139076,406550,0.992676,0.023438,0.048828,-6.158537,0.548781,-5.304878,10.100000,-28.768751,22.731251,0.0,1.000000,0.000000,0.000000,0.000000
1782115907.148076,406559,0.987305,0.017090,0.054688,-6.768293,0.182927,-5.426829,10.100000,-28.768751,22.731251,0.0,1.000000,0.000000,0.000000,0.000000
1782115907.158076,406569,0.982422,0.010254,0.056641,-7.073171,-0.365854,-5.548780,10.087501,-28.831251,22.806250,0.0,1.000000,0.000000,0.000000,0.000000
1782115907.168076,406579,0.978516,0.006836,0.054688,-7.560976,-0.670732,-5.487805,10.087501,-28.831251,22.806250,0.0,1.000000,0.000000,0.000000,0.000000
1782115907.181076,406592,0.986816,-0.000977,0.046875,-8.719512,-1.463415,-4.939024,10.143750,-28.643751,22.762501,0.0,1.000000,0.000000,0.000000,0.000000
1782115907.188076,406599,0.986816,-0.000977,0.046875,-8.719512,-1.463415,-4.939024,10.143750,-28.643751,22.762501,0.0,1.000000,0.000000,0.000000,0.000000
1782115907.199076,406610,0.999512,0.003906,0.045898,-9.695122,-0.975610,-4.390244,10.093750,-28.800001,22.918751,0.0,1.000000,0.000000,0.000000,0.000000
1782115907.209076,406620,1.006348,0.007812,0.041992,-9.756098,-0.182927,-4.390244,10.093750,-28.800001,22.918751,0.0,1.000000,0.000000,0.000000,0.000000
1782115907.218076,406629,1.005371,0.007812,0.040039,-9.207317,-0.060976,-4.451220,10.075000,-28.762501,22.875000,0.0,1.000000,0.000000,0.000000,0.000000
1782115907.229076,406640,0.998535,0.010742,0.041016,-8.353659,-0.365854,-4.390244,10.075000,-28.762501,22.875000,0.0,1.000000,0.000000,0.000000,0.000000
1782115907.238076,406649,0.994629,0.001953,0.041992,-8.048780,-0.792683,-4.207317,10.000000,-28.793751,22.975000,0.0,1.000000,0.000000,0.000000,0.000000
1782115907.248076,406659,0.991699,0.008301,0.048340,-6.829268,-0.914634,-4.207317,10.000000,-28.793751,22.975000,0.0,1.000000,0.000000,0.000000,0.000000
1782115907.258076,406669,0.985352,0.006836,0.050781,-6.707317,-1.158537,-4.451220,9.975000,-28.768751,22.925001,0.0,1.000000,0.000000,0.000000,0.000000
1782115907.268076,406679,0.981445,0.016113,0.060059,-6.768293,-1.829268,-4.695122,9.975000,-28.768751,22.925001,0.0,1.000000,0.000000,0.000000,0.000000
1782115907.278076,406689,0.986328,0.016113,0.061523,-8.048780,-2.804878,-4.756098,9.918750,-28.793751,22.968750,0.0,1.000000,0.000000,0.000000,0.000000
1782115907.289076,406700,1.001465,-0.001953,0.050293,-6.646342,-2.804878,-5.000000,9.918750,-28.793751,22.968750,0.0,1.000000,0.000000,0.000000,0.000000
1782115907.298076,406709,1.001465,-0.001953,0.050293,-6.646342,-2.804878,-5.000000,9.887500,-28.825001,22.918751,0.0,1.000000,0.000000,0.000000,0.000000
1782115907.308076,406719,1.006836,0.007812,0.052734,-6.707317,-2.865854,-4.512195,9.887500,-28.825001,22.918751,0.0,1.000000,0.000000,0.000000,0.000000
1782115907.318076,406729,1.008789,0.009766,0.051270,-6.524390,-2.560976,-4.085366,9.893750,-28.706251,22.868750,0.0,1.000000,0.000000,0.000000,0.000000
1782115907.329076,406740,1.000000,0.022461,0.054199,-4.085366,-1.463415,-4.695122,9.893750,-28.706251,22.868750,0.0,1.000000,0.000000,0.000000,0.000000
1782115907.338076,406749,0.994629,0.024902,0.051758,-3.231707,-1.646341,-5.060976,9.937500,-28.731251,22.912500,0.0,1.000000,0.000000,0.000000,0.000000
1782115907.348076,406759,0.993652,0.019531,0.051270,-2.682927,-2.012195,-5.121951,9.937500,-28.731251,22.912500,0.0,1.000000,0.000000,0.000000,0.000000
1782115907.358076,406769,0.999512,0.017578,0.050293,-2.560976,-2.012195,-4.939024,9.987500,-28.737501,22.843750,0.0,1.000000,0.000000,0.000000,0.000000
1782115907.368076,406779,1.001953,0.020020,0.047852,-2.378049,-1.829268,-4.817073,9.987500,-28.737501,22.843750,0.0,1.000000,0.000000,0.000000,0.000000
1782115907.378076,406789,1.005859,0.020508,0.051270,-2.439024,-1.829268,-4.695122,9.993751,-28.712500,22.950001,0.0,1.000000,0.000000,0.000000,0.000000
1782115907.388076,406799,1.012207,0.028320,0.052734,-2.682927,-1.585366,-4.756098,9.993751,-28.712500,22.950001,0.0,1.000000,0.000000,0.000000,0.000000
1782115907.398076,406809,1.011230,0.032227,0.055176,-2.804878,-1.219512,-4.573171,9.968750,-28.787500,22.950001,0.0,1.000000,0.000000,0.000000,0.000000
1782115907.408076,406819,1.005371,0.031738,0.057617,-3.048780,-1.097561,-4.268293,9.968750,-28.787500,22.950001,0.0,1.000000,0.000000,0.000000,0.000000
1782115907.418076,406829,0.999023,0.021484,0.055664,-2.865854,-1.158537,-3.902439,10.043750,-28.600000,22.800001,0.0,1.000000,0.000000,0.000000,0.000000
1782115907.428076,406839,0.995605,0.033203,0.063477,-2.378049,-1.280488,-3.780488,10.043750,-28.600000,22.800001,0.0,1.000000,0.000000,0.000000,0.000000
1782115907.438076,406849,0.999023,0.034180,0.065430,-3.414634,-1.463415,-3.597561,10.131250,-28.531250,22.731251,0.0,1.000000,0.000000,0.000000,0.000000
1782115907.448076,406859,1.005859,0.033203,0.065430,-4.756098,-1.402439,-3.414634,10.131250,-28.531250,22.731251,0.0,1.000000,0.000000,0.000000,0.000000
1782115907.458076,406869,1.012207,0.022461,0.060059,-5.609756,-1.585366,-3.414634,10.018750,-28.675001,22.856251,0.0,1.000000,0.000000,0.000000,0.000000
1782115907.468076,406879,1.020996,0.008301,0.052246,-5.182927,-1.585366,-3.231707,10.018750,-28.675001,22.856251,0.0,1.000000,0.000000,0.000000,0.000000
1782115907.478076,406889,1.020508,0.001465,0.048340,-4.085366,-0.975610,-2.926829,9.950000,-28.725000,22.875000,0.0,1.000000,0.000000,0.000000,0.000000
1782115907.488076,406899,1.016113,-0.001465,0.045898,-2.804878,-0.365854,-2.804878,9.950000,-28.725000,22.875000,0.0,1.000000,0.000000,0.000000,0.000000
1782115907.499076,406910,1.009277,0.000977,0.048340,-1.524390,0.060976,-2.743902,9.987500,-28.693750,22.881250,0.0,1.000000,0.000000,0.000000,0.000000
1782115907.509076,406920,1.003906,0.008301,0.048340,-0.426829,0.426829,-2.987805,9.987500,-28.693750,22.881250,0.0,1.000000,0.000000,0.000000,0.000000
1782115907.518076,406929,1.002441,0.017578,0.046387,0.304878,1.097561,-3.658537,10.056251,-28.693750,22.900000,0.0,1.000000,0.000000,0.000000,0.000000
1782115907.529076,406940,1.004883,0.025391,0.043457,0.792683,1.890244,-4.390244,10.056251,-28.693750,22.900000,0.0,1.000000,0.000000,0.000000,0.000000
1782115907.538076,406949,1.009277,0.035645,0.043457,1.097561,2.804878,-5.243903,10.175000,-28.462500,22.812500,0.0,1.000000,0.000000,0.000000,0.000000
1782115907.548076,406959,1.011230,0.042480,0.041992,0.975610,3.658537,-5.487805,10.175000,-28.462500,22.812500,0.0,1.000000,0.000000,0.000000,0.000000
1782115907.558076,406969,1.004883,0.051270,0.041016,0.731707,4.512195,-5.609756,10.131250,-28.587500,22.906250,0.0,1.000000,0.000000,0.000000,0.000000
1782115907.569076,406980,0.996582,0.062012,0.045410,0.000000,4.695122,-5.365854,10.131250,-28.587500,22.906250,0.0,1.000000,0.000000,0.000000,0.000000
1782115907.579076,406990,0.989746,0.073242,0.047852,-1.280488,4.268293,-4.939024,10.237500,-28.412500,22.993750,0.0,1.000000,0.000000,0.000000,0.000000
1782115907.588076,406999,0.992188,0.081055,0.044434,-2.987805,3.841464,-4.756098,10.237500,-28.412500,22.993750,0.0,1.000000,0.000000,0.000000,0.000000
1782115907.599076,407010,0.993164,0.085938,0.045898,-5.365854,3.536585,-4.512195,10.218750,-28.506250,23.031250,0.0,1.000000,0.000000,0.000000,0.000000
1782115907.608076,407019,1.002441,0.083984,0.042480,-7.926829,2.987805,-4.146341,10.218750,-28.506250,23.031250,0.0,1.000000,0.000000,0.000000,0.000000
1782115907.619076,407030,1.008789,0.077637,0.045410,-10.548780,3.109756,-3.536585,10.318750,-28.393751,23.081251,0.0,1.000000,0.000000,0.000000,0.000000
1782115907.628076,407039,1.005859,0.073242,0.047363,-13.048780,3.048780,-2.621951,10.318750,-28.393751,23.081251,0.0,1.000000,0.000000,0.000000,0.000000
1782115907.638076,407049,1.002441,0.070312,0.046875,-15.182927,2.743902,-2.012195,10.212501,-28.318750,23.200001,0.0,1.000000,0.000000,0.000000,0.000000
1782115907.648076,407059,0.996094,0.062500,0.045898,-16.829269,2.012195,-1.585366,10.212501,-28.318750,23.200001,0.0,1.000000,0.000000,0.000000,0.000000
1782115907.658076,407069,0.988281,0.050781,0.044434,-18.109756,1.280488,-1.585366,10.143750,-28.306250,23.287500,0.0,1.000000,0.000000,0.000000,0.000000
1782115907.668076,407079,0.985840,0.039062,0.041016,-18.963415,0.487805,-2.073171,10.143750,-28.306250,23.287500,0.0,1.000000,0.000000,0.000000,0.000000
1782115907.678076,407089,0.986816,0.025391,0.039551,-19.146341,0.060976,-2.439024,10.050000,-28.287500,23.418751,0.0,1.000000,0.000000,0.000000,0.000000
1782115907.688076,407099,0.989258,0.019531,0.042480,-19.329269,0.121951,-2.560976,10.050000,-28.287500,23.418751,0.0,1.000000,0.000000,0.000000,0.000000
1782115907.699076,407110,0.989258,0.012695,0.041504,-18.963415,0.365854,-3.048780,9.981250,-28.225000,23.518751,0.0,1.000000,0.000000,0.000000,0.000000
1782115907.708076,407119,0.992676,0.011230,0.044434,-17.804878,0.060976,-3.658537,9.981250,-28.225000,23.518751,0.0,1.000000,0.000000,0.000000,0.000000
1782115907.718076,407129,0.994141,0.005371,0.045898,-16.341463,-0.548781,-4.024390,9.887500,-28.243750,23.600000,0.0,1.000000,0.000000,0.000000,0.000000
1782115907.728076,407139,0.995117,0.002930,0.047852,-14.451220,-0.853659,-4.268293,9.887500,-28.243750,23.600000,0.0,1.000000,0.000000,0.000000,0.000000
1782115907.739076,407150,0.998535,0.000000,0.051270,-12.682927,-0.975610,-4.451220,9.962501,-28.000000,23.537500,0.0,1.000000,0.000000,0.000000,0.000000
1782115907.749076,407160,1.000488,0.004395,0.051758,-11.097561,-0.792683,-4.634146,9.962501,-28.000000,23.537500,0.0,1.000000,0.000000,0.000000,0.000000
1782115907.759076,407170,0.998047,0.010254,0.054199,-9.817074,-0.731707,-4.695122,9.825000,-28.187500,23.762501,0.0,1.000000,0.000000,0.000000,0.000000
1782115907.768076,407179,0.992676,0.019043,0.052734,-8.841464,-0.670732,-4.878049,9.825000,-28.187500,23.762501,0.0,1.000000,0.000000,0.000000,0.000000
1782115907.778076,407189,0.991699,0.022461,0.052246,-8.597561,-1.158537,-4.878049,9.775001,-28.181250,23.781250,0.0,1.000000,0.000000,0.000000,0.000000
1782115907.788076,407199,0.994141,0.024902,0.045898,-8.780488,-1.463415,-4.756098,9.775001,-28.181250,23.781250,0.0,1.000000,0.000000,0.000000,0.000000
1782115907.800076,407211,0.993652,0.022949,0.034180,-8.780488,-1.524390,-4.573171,9.781250,-28.112501,23.743750,0.0,1.000000,0.000000,0.000000,0.000000
1782115907.808076,407219,0.995605,0.018066,0.029785,-9.085366,-2.378049,-3.841464,9.781250,-28.112501,23.743750,0.0,1.000000,0.000000,0.000000,0.000000
1782115907.820076,407231,1.005859,0.016113,0.031738,-9.695122,-2.865854,-2.804878,9.756250,-28.081251,23.800001,0.0,1.000000,0.000000,0.000000,0.000000
1782115907.828076,407239,1.008789,0.018555,0.029785,-9.695122,-2.012195,-2.256098,9.756250,-28.081251,23.800001,0.0,1.000000,0.000000,0.000000,0.000000
1782115907.838076,407249,1.007812,0.019531,0.026367,-9.207317,-1.524390,-2.134146,9.675000,-28.137501,23.881250,0.0,1.000000,0.000000,0.000000,0.000000
1782115907.848076,407259,1.002441,0.015625,0.028320,-8.292683,-1.524390,-2.073171,9.675000,-28.137501,23.881250,0.0,1.000000,0.000000,0.000000,0.000000
1782115907.859076,407270,1.000977,0.013184,0.023926,-7.012195,-1.951220,-1.768293,9.712501,-28.037500,23.775000,0.0,1.000000,0.000000,0.000000,0.000000
1782115907.868076,407279,1.002441,0.013184,0.021973,-5.731708,-2.073171,-1.219512,9.712501,-28.037500,23.775000,0.0,1.000000,0.000000,0.000000,0.000000
1782115907.878076,407289,0.994141,0.019043,0.023926,-4.939024,-1.829268,-1.219512,9.662500,-28.112501,23.831251,0.0,1.000000,0.000000,0.000000,0.000000
1782115907.888076,407299,0.991699,0.025391,0.027344,-4.085366,-2.256098,-1.646341,9.662500,-28.112501,23.831251,0.0,1.000000,0.000000,0.000000,0.000000
1782115907.899076,407310,0.991699,0.035645,0.028809,-3.170732,-2.560976,-2.317073,9.562500,-28.156250,23.868750,0.0,1.000000,0.000000,0.000000,0.000000
1782115907.908076,407319,0.995117,0.035645,0.029785,-1.829268,-2.621951,-2.743902,9.562500,-28.156250,23.868750,0.0,1.000000,0.000000,0.000000,0.000000
1782115907.918076,407329,0.999023,0.035645,0.029785,-0.853659,-2.682927,-2.560976,9.643750,-28.112501,23.806250,0.0,1.000000,0.000000,0.000000,0.000000
1782115907.928076,407339,0.997070,0.035156,0.029785,-0.182927,-2.439024,-2.439024,9.643750,-28.112501,23.806250,0.0,1.000000,0.000000,0.000000,0.000000
1782115907.940076,407351,0.991211,0.035156,0.026367,0.243902,-2.317073,-2.317073,9.562500,-28.206251,23.812500,0.0,1.000000,0.000000,0.000000,0.000000
1782115907.948076,407359,0.986816,0.036621,0.024414,0.426829,-2.621951,-2.378049,9.562500,-28.206251,23.812500,0.0,1.000000,0.000000,0.000000,0.000000
1782115907.958076,407369,0.994141,0.037109,0.024414,0.426829,-2.743902,-2.378049,9.575000,-28.218750,23.768751,0.0,1.000000,0.000000,0.000000,0.000000
1782115907.968076,407379,0.995117,0.041504,0.022461,0.731707,-2.256098,-2.500000,9.575000,-28.218750,23.768751,0.0,1.000000,0.000000,0.000000,0.000000
1782115907.979076,407390,0.992676,0.050293,0.024414,0.731707,-1.646341,-2.621951,9.637500,-28.193750,23.750000,0.0,1.000000,0.000000,0.000000,0.000000
1782115907.988076,407399,0.989746,0.053711,0.024902,0.548781,-1.707317,-2.500000,9.637500,-28.193750,23.750000,0.0,1.000000,0.000000,0.000000,0.000000
1782115907.998076,407409,0.995117,0.053711,0.027344,-0.060976,-1.890244,-2.134146,9.656250,-28.193750,23.737501,0.0,1.000000,0.000000,0.000000,0.000000
1782115908.008076,407419,0.999512,0.055664,0.027832,-0.609756,-2.012195,-1.890244,9.656250,-28.193750,23.737501,0.0,1.000000,0.000000,0.000000,0.000000
1782115908.019076,407430,1.000000,0.053223,0.028809,-0.914634,-2.195122,-1.585366,9.668750,-28.206251,23.750000,0.0,1.000000,0.000000,0.000000,0.000000
1782115908.028076,407439,1.002441,0.050293,0.031738,-1.158537,-2.256098,-1.280488,9.668750,-28.206251,23.750000,0.0,1.000000,0.000000,0.000000,0.000000
1782115908.038076,407449,1.001465,0.049316,0.032227,-1.219512,-2.073171,-0.975610,9.743751,-28.181250,23.768751,0.0,1.000000,0.000000,0.000000,0.000000
1782115908.048076,407459,0.997559,0.048828,0.032715,-1.280488,-2.195122,-0.487805,9.743751,-28.181250,23.768751,0.0,1.000000,0.000000,0.000000,0.000000
1782115908.060076,407471,0.998535,0.044434,0.031250,-1.463415,-3.048780,0.060976,9.837501,-28.006250,23.575001,0.0,1.000000,0.000000,0.000000,0.000000
1782115908.068076,407479,1.000977,0.040039,0.030762,-1.646341,-3.536585,0.548781,9.837501,-28.006250,23.575001,0.0,1.000000,0.000000,0.000000,0.000000
1782115908.078076,407489,1.002930,0.034668,0.029297,-1.463415,-3.719512,0.731707,9.731250,-28.218750,23.675001,0.0,1.000000,0.000000,0.000000,0.000000
1782115908.088076,407499,1.006348,0.030273,0.028809,-1.158537,-3.475610,0.731707,9.731250,-28.218750,23.675001,0.0,1.000000,0.000000,0.000000,0.000000
1782115908.100076,407511,1.007812,0.027832,0.028809,-0.609756,-2.743902,0.426829,9.737500,-28.243750,23.631250,0.0,1.000000,0.000000,0.000000,0.000000
1782115908.108076,407519,1.005371,0.020996,0.026855,0.243902,-2.134146,0.121951,9.737500,-28.243750,23.631250,0.0,1.000000,0.000000,0.000000,0.000000
1782115908.118076,407529,1.004395,0.017578,0.023926,1.097561,-2.012195,0.182927,9.687500,-28.237501,23.581251,0.0,1.000000,0.000000,0.000000,0.000000
1782115908.128076,407539,1.004395,0.015137,0.024414,2.073171,-1.890244,-0.182927,9.687500,-28.237501,23.581251,0.0,1.000000,0.000000,0.000000,0.000000
1782115908.139076,407550,1.004395,0.023438,0.024414,4.207317,-0.853659,-0.914634,9.718750,-28.287500,23.625000,0.0,1.000000,0.000000,0.000000,0.000000
1782115908.148076,407559,1.004395,0.023438,0.024414,4.207317,-0.853659,-0.914634,9.718750,-28.287500,23.625000,0.0,1.000000,0.000000,0.000000,0.000000
1782115908.159076,407570,1.001465,0.023926,0.022461,5.243903,-0.121951,-1.280488,9.737500,-28.318750,23.543751,0.0,1.000000,0.000000,0.000000,0.000000
1782115908.169076,407580,0.998047,0.029785,0.022461,5.914634,0.548781,-1.585366,9.737500,-28.318750,23.543751,0.0,1.000000,0.000000,0.000000,0.000000
1782115908.180076,407591,0.997070,0.042969,0.013672,6.646342,1.402439,-2.317073,9.787500,-28.287500,23.562500,0.0,1.000000,0.000000,0.000000,0.000000
1782115908.188076,407599,0.997070,0.042969,0.013672,6.646342,1.402439,-2.317073,9.787500,-28.287500,23.562500,0.0,1.000000,0.000000,0.000000,0.000000
1782115908.198076,407609,0.997559,0.050781,0.013672,6.036585,1.768293,-2.317073,9.806251,-28.243750,23.493750,0.0,1.000000,0.000000,0.000000,0.000000
1782115908.208076,407619,1.003418,0.058105,0.011719,5.000000,1.768293,-2.012195,9.806251,-28.243750,23.493750,0.0,1.000000,0.000000,0.000000,0.000000
1782115908.222076,407633,1.021973,0.073730,0.004395,3.231707,2.500000,-1.524390,9.887500,-28.231251,23.468750,0.0,1.000000,0.000000,0.000000,0.000000
1782115908.228076,407639,1.015625,0.074707,0.004395,3.048780,2.682927,-1.158537,9.887500,-28.231251,23.468750,0.0,1.000000,0.000000,0.000000,0.000000
1782115908.238076,407649,1.006348,0.072754,0.012695,1.890244,2.195122,-0.365854,9.937500,-28.137501,23.400000,0.0,1.000000,0.000000,0.000000,0.000000
1782115908.248076,407659,0.998047,0.065430,0.020020,-0.426829,1.829268,0.426829,9.937500,-28.137501,23.400000,0.0,1.000000,0.000000,0.000000,0.000000
1782115908.261076,407672,0.989746,0.055664,0.025879,-2.682927,1.219512,0.914634,9.937500,-28.250000,23.537500,0.0,1.000000,0.000000,0.000000,0.000000
1782115908.269076,407680,0.984863,0.045410,0.028809,-4.939024,0.365854,1.280488,9.937500,-28.250000,23.537500,0.0,1.000000,0.000000,0.000000,0.000000
1782115908.278076,407689,0.982910,0.041016,0.029297,-6.890244,-0.365854,1.158537,10.012500,-28.068750,23.500000,0.0,1.000000,0.000000,0.000000,0.000000
1782115908.288076,407699,0.983398,0.035156,0.025879,-8.902439,-0.914634,0.670732,10.012500,-28.068750,23.500000,0.0,1.000000,0.000000,0.000000,0.000000
1782115908.301076,407712,0.986328,0.023926,0.022949,-10.243902,-1.280488,0.182927,9.993751,-28.187500,23.612501,0.0,1.000000,0.000000,0.000000,0.000000
1782115908.308076,407719,0.990723,0.014160,0.020508,-10.670732,-1.829268,0.060976,9.993751,-28.187500,23.612501,0.0,1.000000,0.000000,0.000000,0.000000
1782115908.318076,407729,0.990723,0.003906,0.026855,-10.670732,-2.317073,0.365854,9.956250,-28.075001,23.581251,0.0,1.000000,0.000000,0.000000,0.000000
1782115908.328076,407739,0.987305,-0.001465,0.029297,-9.878049,-2.621951,0.426829,9.956250,-28.075001,23.581251,0.0,1.000000,0.000000,0.000000,0.000000
1782115908.342076,407753,0.987793,-0.007324,0.031738,-7.865854,-3.170732,0.670732,9.768750,-28.200001,23.731251,0.0,1.000000,0.000000,0.000000,0.000000
1782115908.349076,407760,0.985840,-0.012207,0.030762,-5.365854,-3.353659,0.609756,9.768750,-28.200001,23.731251,0.0,1.000000,0.000000,0.000000,0.000000
1782115908.358076,407769,0.982910,-0.015137,0.031250,-2.317073,-3.841464,0.487805,9.750000,-28.150000,23.625000,0.0,1.000000,0.000000,0.000000,0.000000
1782115908.368076,407779,0.984375,-0.011719,0.029297,0.914634,-4.207317,0.304878,9.750000,-28.150000,23.625000,0.0,1.000000,0.000000,0.000000,0.000000
1782115908.378076,407789,0.988281,-0.006836,0.029297,3.780488,-4.695122,0.000000,9.575000,-28.318750,23.662500,0.0,1.000000,0.000000,0.000000,0.000000
1782115908.388076,407799,0.994629,0.003418,0.030762,6.097561,-4.634146,-0.487805,9.575000,-28.318750,23.662500,0.0,1.000000,0.000000,0.000000,0.000000
1782115908.398076,407809,1.000488,0.011230,0.029297,7.865854,-4.451220,-1.097561,9.543750,-28.418751,23.568750,0.0,1.000000,0.000000,0.000000,0.000000
1782115908.409076,407820,1.010742,0.020508,0.029297,9.268292,-4.268293,-1.463415,9.543750,-28.418751,23.568750,0.0,1.000000,0.000000,0.000000,0.000000
1782115908.419076,407830,1.019043,0.025391,0.032227,9.939025,-3.841464,-1.829268,9.825000,-27.931250,23.181250,0.0,1.000000,0.000000,0.000000,0.000000
1782115908.428076,407839,1.020508,0.030273,0.038086,10.182927,-3.719512,-1.951220,9.825000,-27.931250,23.181250,0.0,1.000000,0.000000,0.000000,0.000000
1782115908.438076,407849,1.022461,0.032715,0.043457,9.817074,-3.902439,-1.341463,9.637500,-28.381250,23.437500,0.0,1.000000,0.000000,0.000000,0.000000
1782115908.448076,407859,1.020996,0.035645,0.052734,8.963415,-3.780488,-0.365854,9.637500,-28.381250,23.437500,0.0,1.000000,0.000000,0.000000,0.000000
1782115908.458076,407869,1.015625,0.041504,0.053711,8.109756,-3.719512,0.548781,9.768750,-28.393751,23.287500,0.0,1.000000,0.000000,0.000000,0.000000
1782115908.468076,407879,1.011719,0.044434,0.050781,7.378049,-4.146341,1.036585,9.768750,-28.393751,23.287500,0.0,1.000000,0.000000,0.000000,0.000000
1782115908.478076,407889,1.013672,0.047852,0.044922,6.768293,-4.756098,1.280488,9.856250,-28.450001,23.262501,0.0,1.000000,0.000000,0.000000,0.000000
1782115908.488076,407899,1.016602,0.045410,0.038574,6.280488,-5.000000,1.646341,9.856250,-28.450001,23.262501,0.0,1.000000,0.000000,0.000000,0.000000
1782115908.498076,407909,1.017578,0.049316,0.039062,6.219512,-4.512195,1.951220,9.943750,-28.387501,23.187500,0.0,1.000000,0.000000,0.000000,0.000000
1782115908.508076,407919,1.012695,0.056641,0.033203,6.524390,-3.719512,1.707317,9.943750,-28.387501,23.187500,0.0,1.000000,0.000000,0.000000,0.000000
1782115908.519076,407930,1.008789,0.062500,0.027344,6.951220,-3.292683,1.158537,9.943750,-28.443750,23.093750,0.0,1.000000,0.000000,0.000000,0.000000
1782115908.528076,407939,1.008301,0.062500,0.016602,7.439024,-2.804878,0.365854,9.943750,-28.443750,23.093750,0.0,1.000000,0.000000,0.000000,0.000000
1782115908.541076,407952,1.011230,0.060547,0.007812,7.987805,-2.134146,-0.426829,9.937500,-28.406250,23.062500,0.0,1.000000,0.000000,0.000000,0.000000
1782115908.549076,407960,1.014160,0.050781,-0.006836,8.414635,-1.402439,-0.975610,9.937500,-28.406250,23.062500,0.0,1.000000,0.000000,0.000000,0.000000
1782115908.558076,407969,1.023926,0.044922,-0.017578,9.024390,-0.243902,-1.341463,10.056251,-28.393751,22.912500,0.0,1.000000,0.000000,0.000000,0.000000
1782115908.569076,407980,1.033203,0.048340,-0.022461,9.756098,0.975610,-1.951220,10.056251,-28.393751,22.912500,0.0,1.000000,0.000000,0.000000,0.000000
1782115908.581076,407992,1.035156,0.055176,-0.020996,10.853659,2.378049,-2.560976,10.056251,-28.487501,22.950001,0.0,1.000000,0.000000,0.000000,0.000000
1782115908.588076,407999,1.019531,0.060547,-0.017090,12.621951,4.085366,-2.743902,10.056251,-28.487501,22.950001,0.0,1.000000,0.000000,0.000000,0.000000
1782115908.599076,408010,0.992188,0.066406,-0.008301,14.939025,5.487805,-2.621951,10.150001,-28.356251,22.900000,0.0,1.000000,0.000000,0.000000,0.000000
1782115908.608076,408019,0.964844,0.075684,0.003906,16.402439,5.914634,-2.560976,10.150001,-28.356251,22.900000,0.0,1.000000,0.000000,0.000000,0.000000
1782115908.620076,408031,0.952637,0.090820,0.011230,16.219513,5.914634,-2.378049,10.206250,-28.493750,22.956251,0.0,1.000000,0.000000,0.000000,0.000000
1782115908.628076,408039,0.944824,0.105469,0.018066,14.512196,6.219512,-2.317073,10.206250,-28.493750,22.956251,0.0,1.000000,0.000000,0.000000,0.000000
1782115908.638076,408049,0.937988,0.118164,0.023438,12.195122,6.341464,-2.317073,10.431251,-28.306250,22.856251,0.0,1.000000,0.000000,0.000000,0.000000
1782115908.648076,408059,0.927734,0.124023,0.028809,9.512196,6.097561,-2.560976,10.431251,-28.306250,22.856251,0.0,1.000000,0.000000,0.000000,0.000000
1782115908.658076,408069,0.917969,0.123535,0.032715,6.890244,5.731708,-2.621951,10.437500,-28.375000,23.000000,0.0,1.000000,0.000000,0.000000,0.000000
1782115908.668076,408079,0.911133,0.111816,0.033203,4.085366,5.426829,-2.804878,10.437500,-28.375000,23.000000,0.0,1.000000,0.000000,0.000000,0.000000
1782115908.678076,408089,0.925781,0.102539,0.029297,0.914634,4.390244,-2.987805,10.512500,-28.287500,22.925001,0.0,1.000000,0.000000,0.000000,0.000000
1782115908.688076,408099,0.962402,0.096680,0.014160,-2.621951,3.536585,-3.658537,10.512500,-28.287500,22.925001,0.0,1.000000,0.000000,0.000000,0.000000
1782115908.700076,408111,1.008789,0.086914,0.002441,-5.487805,2.256098,-4.451220,10.662500,-28.137501,22.968750,0.0,1.000000,0.000000,0.000000,0.000000
1782115908.708076,408119,1.050293,0.074219,-0.009277,-7.134147,2.256098,-5.060976,10.662500,-28.137501,22.968750,0.0,1.000000,0.000000,0.000000,0.000000
1782115908.718076,408129,1.056641,0.062012,-0.009277,-7.926829,2.500000,-4.329268,10.618751,-28.112501,23.087500,0.0,1.000000,0.000000,0.000000,0.000000
1782115908.728076,408139,1.051270,0.044434,-0.004883,-8.719512,1.036585,-2.378049,10.618751,-28.112501,23.087500,0.0,1.000000,0.000000,0.000000,0.000000
1782115908.740076,408151,1.050293,0.025391,-0.005859,-10.000000,-1.524390,0.731707,10.625000,-28.225000,23.225000,0.0,1.000000,0.000000,0.000000,0.000000
1782115908.748076,408159,1.052246,0.012207,-0.004395,-11.768293,-2.682927,3.963415,10.625000,-28.225000,23.225000,0.0,1.000000,0.000000,0.000000,0.000000
1782115908.759076,408170,1.043457,0.018066,0.005859,-13.719513,-2.500000,5.975610,10.593750,-28.212500,23.237501,0.0,1.000000,0.000000,0.000000,0.000000
1782115908.768076,408179,1.026367,0.023438,0.014160,-15.853659,-1.402439,6.463415,10.593750,-28.212500,23.237501,0.0,1.000000,0.000000,0.000000,0.000000
1782115908.781076,408192,1.007812,0.028320,0.030273,-17.743902,-0.304878,6.036585,10.468750,-28.193750,23.318750,0.0,1.000000,0.000000,0.000000,0.000000
1782115908.788076,408199,1.000000,0.025879,0.034180,-18.414635,0.243902,4.573171,10.468750,-28.193750,23.318750,0.0,1.000000,0.000000,0.000000,0.000000
1782115908.798076,408209,0.994141,0.017090,0.040039,-17.560976,0.792683,2.987805,10.337501,-28.106251,23.337500,0.0,1.000000,0.000000,0.000000,0.000000
1782115908.809076,408220,0.993652,0.017090,0.048828,-15.670732,0.853659,1.768293,10.137500,-28.200001,23.431250,0.0,1.000000,0.000000,0.000000,0.000000
1782115908.819076,408230,0.990234,0.020020,0.057129,-13.780488,1.280488,0.853659,10.137500,-28.200001,23.431250,0.0,1.000000,0.000000,0.000000,0.000000
1782115908.829076,408240,0.983398,0.028809,0.067871,-12.378049,1.341463,-0.121951,10.125000,-27.931250,23.212500,0.0,1.000000,0.000000,0.000000,0.000000
1782115908.838076,408249,0.980957,0.035156,0.072266,-10.609756,0.487805,-0.670732,10.125000,-27.931250,23.212500,0.0,1.000000,0.000000,0.000000,0.000000
1782115908.848076,408259,0.980957,0.047363,0.077148,-9.268292,-0.914634,-1.097561,10.125000,-27.931250,23.212500,0.0,1.000000,0.000000,0.000000,0.000000
1782115908.862076,408273,0.981934,0.054688,0.074707,-8.719512,-2.012195,-1.219512,9.831250,-28.250000,23.518751,0.0,1.000000,0.000000,0.000000,0.000000
1782115908.868076,408279,0.986816,0.062012,0.070312,-8.536586,-2.621951,-0.914634,9.712501,-28.281250,23.450001,0.0,1.000000,0.000000,0.000000,0.000000
1782115908.878076,408289,0.994629,0.065918,0.062500,-8.841464,-2.865854,-0.304878,9.712501,-28.281250,23.450001,0.0,1.000000,0.000000,0.000000,0.000000
1782115908.888076,408299,1.001953,0.067871,0.053711,-9.085366,-2.012195,-0.426829,9.593750,-28.281250,23.512501,0.0,1.000000,0.000000,0.000000,0.000000
1782115908.898076,408309,1.003906,0.060059,0.036621,-8.475610,-0.609756,-1.097561,9.593750,-28.281250,23.512501,0.0,1.000000,0.000000,0.000000,0.000000
1782115908.909076,408320,1.006836,0.054199,0.027832,-7.682927,0.060976,-1.585366,9.618751,-28.250000,23.456251,0.0,1.000000,0.000000,0.000000,0.000000
1782115908.919076,408330,1.010254,0.051758,0.020020,-7.317073,1.402439,-2.439024,9.618751,-28.250000,23.456251,0.0,1.000000,0.000000,0.000000,0.000000
1782115908.928076,408339,1.009766,0.041992,0.011230,-7.256098,2.500000,-3.109756,9.593750,-28.281250,23.631250,0.0,1.000000,0.000000,0.000000,0.000000
1782115908.939076,408350,1.008301,0.032227,0.012207,-8.353659,3.475610,-2.987805,9.593750,-28.281250,23.631250,0.0,1.000000,0.000000,0.000000,0.000000
1782115908.949076,408360,1.009766,0.029785,0.011719,-9.939025,3.414634,-2.621951,9.600000,-28.250000,23.775000,0.0,1.000000,0.000000,0.000000,0.000000
1782115908.958076,408369,1.016113,0.030273,0.017578,-11.402439,3.109756,-1.707317,9.600000,-28.250000,23.775000,0.0,1.000000,0.000000,0.000000,0.000000
1782115908.969076,408380,1.013672,0.035156,0.023438,-12.378049,3.658537,-0.914634,9.625000,-28.106251,23.825001,0.0,1.000000,0.000000,0.000000,0.000000
1782115908.981076,408392,1.004883,0.042480,0.022949,-12.378049,3.292683,-0.609756,9.625000,-28.106251,23.825001,0.0,1.000000,0.000000,0.000000,0.000000
1782115908.989076,408400,0.998535,0.049316,0.026855,-12.560976,1.890244,0.487805,9.562500,-28.093750,23.900000,0.0,1.000000,0.000000,0.000000,0.000000
1782115908.999076,408410,0.996582,0.065430,0.029785,-13.231708,0.792683,1.585366,9.562500,-28.093750,23.900000,0.0,1.000000,0.000000,0.000000,0.000000
1782115909.008076,408419,0.998047,0.077637,0.028809,-13.902439,0.060976,2.378049,9.406250,-28.143751,24.006250,0.0,1.000000,0.000000,0.000000,0.000000
1782115909.018076,408429,0.991699,0.088867,0.032715,-14.939025,-0.548781,2.743902,9.406250,-28.143751,24.006250,0.0,1.000000,0.000000,0.000000,0.000000
1782115909.030076,408441,0.994629,0.084473,0.024414,-16.158537,-2.012195,2.134146,9.237500,-28.081251,23.943750,0.0,1.000000,0.000000,0.000000,0.000000
1782115909.038076,408449,0.994629,0.084473,0.024414,-16.158537,-2.012195,2.134146,9.237500,-28.081251,23.943750,0.0,1.000000,0.000000,0.000000,0.000000
1782115909.048076,408459,0.991211,0.068359,0.024414,-16.158537,-2.317073,1.768293,9.125000,-28.162500,23.950001,0.0,1.000000,0.000000,0.000000,0.000000
1782115909.058076,408469,0.992188,0.051270,0.023438,-15.914635,-2.865854,1.341463,9.125000,-28.162500,23.950001,0.0,1.000000,0.000000,0.000000,0.000000
1782115909.068076,408479,0.994629,0.037109,0.026855,-15.121951,-3.048780,0.914634,8.943750,-28.212500,23.981251,0.0,1.000000,0.000000,0.000000,0.000000
1782115909.079076,408490,0.997070,0.029297,0.032227,-13.841464,-2.743902,0.182927,8.943750,-28.212500,23.981251,0.0,1.000000,0.000000,0.000000,0.000000
1782115909.088076,408499,0.998535,0.023438,0.038574,-12.500000,-2.317073,-0.487805,8.825000,-28.243750,24.031250,0.0,1.000000,0.000000,0.000000,0.000000
1782115909.098076,408509,0.998047,0.022461,0.045410,-10.975610,-1.646341,-1.158537,8.825000,-28.243750,24.031250,0.0,1.000000,0.000000,0.000000,0.000000
1782115909.108076,408519,0.994629,0.021973,0.049805,-9.634147,-1.036585,-1.890244,8.856250,-28.156250,24.031250,0.0,1.000000,0.000000,0.000000,0.000000
1782115909.118076,408529,0.999023,0.020508,0.048828,-8.475610,-0.975610,-2.073171,8.856250,-28.156250,24.031250,0.0,1.000000,0.000000,0.000000,0.000000
1782115909.128076,408539,1.004395,0.022461,0.046875,-7.560976,-1.097561,-2.073171,8.706250,-28.325001,24.175001,0.0,1.000000,0.000000,0.000000,0.000000
1782115909.141076,408552,1.016602,0.026855,0.042969,-6.707317,-1.402439,-1.768293,8.706250,-28.325001,24.175001,0.0,1.000000,0.000000,0.000000,0.000000
1782115909.149076,408560,1.020996,0.040527,0.044434,-4.756098,0.000000,-0.792683,8.862500,-27.937500,23.962500,0.0,1.000000,0.000000,0.000000,0.000000
1782115909.158076,408569,1.010254,0.043457,0.042480,-3.475610,0.365854,-0.304878,8.862500,-27.937500,23.962500,0.0,1.000000,0.000000,0.000000,0.000000
1782115909.168076,408579,0.999023,0.043457,0.044922,-2.256098,0.000000,0.243902,8.731250,-28.237501,24.112501,0.0,1.000000,0.000000,0.000000,0.000000
1782115909.178076,408589,0.996582,0.041016,0.047363,-1.768293,-0.365854,0.731707,8.731250,-28.237501,24.112501,0.0,1.000000,0.000000,0.000000,0.000000
1782115909.188076,408599,0.997559,0.041016,0.045410,-1.707317,0.060976,0.670732,8.656250,-28.306250,24.150000,0.0,1.000000,0.000000,0.000000,0.000000
1782115909.198076,408609,0.996094,0.044434,0.044922,-1.707317,0.609756,0.487805,8.656250,-28.306250,24.150000,0.0,1.000000,0.000000,0.000000,0.000000
1782115909.208076,408619,0.993164,0.047363,0.042480,-1.890244,1.097561,0.243902,8.737500,-28.050001,24.006250,0.0,1.000000,0.000000,0.000000,0.000000
1782115909.218076,408629,0.992188,0.050781,0.038574,-2.195122,1.524390,-0.182927,8.737500,-28.050001,24.006250,0.0,1.000000,0.000000,0.000000,0.000000
1782115909.228076,408639,0.988770,0.052734,0.036133,-2.560976,1.890244,-0.548781,8.737500,-28.056250,24.075001,0.0,1.000000,0.000000,0.000000,0.000000
1782115909.238076,408649,0.983398,0.053223,0.035156,-2.560976,1.768293,-0.731707,8.737500,-28.056250,24.075001,0.0,1.000000,0.000000,0.000000,0.000000
1782115909.248076,408659,0.987305,0.052246,0.029785,-2.865854,0.975610,-0.548781,8.675000,-28.193750,24.225000,0.0,1.000000,0.000000,0.000000,0.000000
1782115909.258076,408669,0.994629,0.055176,0.025879,-2.743902,0.792683,-0.609756,8.675000,-28.193750,24.225000,0.0,1.000000,0.000000,0.000000,0.000000
1782115909.268076,408679,0.996094,0.059082,0.024414,-2.500000,1.402439,-1.036585,8.712501,-28.106251,24.118750,0.0,1.000000,0.000000,0.000000,0.000000
1782115909.278076,408689,0.994629,0.061523,0.021973,-2.012195,1.524390,-1.036585,8.712501,-28.106251,24.118750,0.0,1.000000,0.000000,0.000000,0.000000
1782115909.288076,408699,0.996094,0.064941,0.022949,-1.829268,1.036585,-0.914634,8.668750,-28.206251,24.268751,0.0,1.000000,0.000000,0.000000,0.000000
1782115909.298076,408709,0.998535,0.063965,0.023926,-2.256098,0.731707,-0.731707,8.668750,-28.206251,24.268751,0.0,1.000000,0.000000,0.000000,0.000000
1782115909.308076,408719,0.996582,0.062012,0.028320,-3.170732,0.487805,-0.304878,8.612500,-28.193750,24.181250,0.0,1.000000,0.000000,0.000000,0.000000
1782115909.318076,408729,0.996094,0.060547,0.031738,-4.390244,0.426829,0.000000,8.612500,-28.193750,24.181250,0.0,1.000000,0.000000,0.000000,0.000000
1782115909.329076,408740,1.001465,0.058594,0.031250,-5.426829,0.182927,0.182927,8.675000,-27.993750,24.137501,0.0,1.000000,0.000000,0.000000,0.000000
1782115909.338076,408749,1.004395,0.055176,0.033691,-6.341464,0.000000,0.487805,8.675000,-27.993750,24.137501,0.0,1.000000,0.000000,0.000000,0.000000
1782115909.349076,408760,1.006836,0.047363,0.036133,-6.768293,0.060976,0.914634,8.587501,-28.137501,24.218750,0.0,1.000000,0.000000,0.000000,0.000000
1782115909.361076,408772,1.006348,0.037109,0.036621,-7.012195,0.182927,1.402439,8.587501,-28.137501,24.218750,0.0,1.000000,0.000000,0.000000,0.000000
1782115909.368076,408779,1.009766,0.028809,0.035156,-7.073171,0.243902,1.524390,8.481250,-28.162500,24.293751,0.0,1.000000,0.000000,0.000000,0.000000
1782115909.378076,408789,1.011230,0.028809,0.034180,-6.951220,0.487805,1.646341,8.481250,-28.162500,24.293751,0.0,1.000000,0.000000,0.000000,0.000000
1782115909.389076,408800,1.009277,0.028320,0.031250,-6.280488,0.792683,1.524390,8.431251,-28.125000,24.368750,0.0,1.000000,0.000000,0.000000,0.000000
1782115909.398076,408809,1.007812,0.024902,0.028809,-5.243903,0.914634,1.402439,8.431251,-28.125000,24.368750,0.0,1.000000,0.000000,0.000000,0.000000
1782115909.408076,408819,1.005371,0.024414,0.028809,-4.085366,1.036585,1.097561,8.368751,-28.187500,24.350000,0.0,1.000000,0.000000,0.000000,0.000000
1782115909.418076,408829,1.003418,0.024414,0.029785,-2.621951,1.219512,0.670732,8.368751,-28.187500,24.350000,0.0,1.000000,0.000000,0.000000,0.000000
1782115909.428076,408839,1.001953,0.020508,0.030273,-0.853659,1.524390,0.243902,8.350000,-28.137501,24.412500,0.0,1.000000,0.000000,0.000000,0.000000
1782115909.439076,408850,0.999512,0.018555,0.031250,0.853659,1.585366,0.000000,8.350000,-28.137501,24.412500,0.0,1.000000,0.000000,0.000000,0.000000
1782115909.449076,408860,0.995605,0.022949,0.033691,2.500000,1.585366,-0.304878,8.312500,-28.193750,24.387501,0.0,1.000000,0.000000,0.000000,0.000000
1782115909.458076,408869,0.994141,0.027344,0.034180,4.451220,1.097561,-0.792683,8.312500,-28.193750,24.387501,0.0,1.000000,0.000000,0.000000,0.000000
1782115909.468076,408879,0.996094,0.027344,0.035156,5.853659,0.792683,-1.219512,8.387500,-28.200001,24.425001,0.0,1.000000,0.000000,0.000000,0.000000
1782115909.478076,408889,0.997559,0.025879,0.039551,6.768293,0.792683,-1.158537,8.387500,-28.200001,24.425001,0.0,1.000000,0.000000,0.000000,0.000000
1782115909.488076,408899,0.998535,0.028320,0.043945,7.012195,0.975610,-0.792683,8.418750,-28.187500,24.456251,0.0,1.000000,0.000000,0.000000,0.000000
1782115909.498076,408909,0.992188,0.031250,0.046387,6.768293,0.792683,-0.609756,8.418750,-28.187500,24.456251,0.0,1.000000,0.000000,0.000000,0.000000
1782115909.508076,408919,0.987793,0.035645,0.049316,5.975610,0.365854,-0.548781,8.531250,-28.150000,24.475000,0.0,1.000000,0.000000,0.000000,0.000000
1782115909.518076,408929,0.989746,0.039062,0.047363,5.121951,-0.121951,-0.609756,8.531250,-28.150000,24.475000,0.0,1.000000,0.000000,0.000000,0.000000
1782115909.528076,408939,0.994141,0.042480,0.045410,4.207317,-0.670732,-0.609756,8.618751,-28.093750,24.375000,0.0,1.000000,0.000000,0.000000,0.000000
1782115909.538076,408949,0.995117,0.041016,0.045898,3.292683,-1.158537,-0.304878,8.618751,-28.093750,24.375000,0.0,1.000000,0.000000,0.000000,0.000000
1782115909.549076,408960,0.989746,0.036621,0.045898,2.804878,-1.341463,-0.060976,8.643750,-28.081251,24.343750,0.0,1.000000,0.000000,0.000000,0.000000
1782115909.559076,408970,0.985840,0.033203,0.048828,2.865854,-2.195122,0.243902,8.643750,-28.081251,24.343750,0.0,1.000000,0.000000,0.000000,0.000000
1782115909.569076,408980,0.985352,0.029785,0.051270,2.804878,-2.987805,0.670732,8.612500,-28.156250,24.343750,0.0,1.000000,0.000000,0.000000,0.000000
1782115909.579076,408990,0.985352,0.024414,0.050293,3.109756,-3.475610,0.609756,8.612500,-28.156250,24.343750,0.0,1.000000,0.000000,0.000000,0.000000
1782115909.589076,409000,0.986328,0.019531,0.047852,3.841464,-3.658537,0.365854,8.618751,-28.200001,24.293751,0.0,1.000000,0.000000,0.000000,0.000000
1782115909.598076,409009,0.985840,0.017578,0.046875,4.756098,-4.085366,0.243902,8.618751,-28.200001,24.293751,0.0,1.000000,0.000000,0.000000,0.000000
1782115909.609076,409020,0.990723,0.015137,0.040527,5.670732,-4.817073,0.304878,8.725000,-28.000000,24.143751,0.0,1.000000,0.000000,0.000000,0.000000
1782115909.619076,409030,0.995117,0.013672,0.037109,6.585366,-4.573171,0.000000,8.725000,-28.000000,24.143751,0.0,1.000000,0.000000,0.000000,0.000000
1782115909.630076,409041,0.996094,0.016113,0.037109,7.560976,-4.390244,-0.670732,8.718750,-28.218750,24.137501,0.0,1.000000,0.000000,0.000000,0.000000
1782115909.639076,409050,0.996094,0.023438,0.036621,8.536586,-4.085366,-1.158537,8.718750,-28.218750,24.137501,0.0,1.000000,0.000000,0.000000,0.000000
1782115909.648076,409059,0.993164,0.031738,0.039551,9.085366,-4.024390,-1.707317,8.762500,-28.325001,24.100000,0.0,1.000000,0.000000,0.000000,0.000000
1782115909.658076,409069,1.000000,0.036621,0.042969,9.451220,-4.085366,-2.073171,8.762500,-28.325001,24.100000,0.0,1.000000,0.000000,0.000000,0.000000
1782115909.669076,409080,1.001953,0.040527,0.044434,9.329268,-3.536585,-2.073171,8.831250,-28.306250,24.000000,0.0,1.000000,0.000000,0.000000,0.000000
1782115909.679076,409090,1.002441,0.045410,0.043457,8.841464,-3.780488,-1.829268,8.831250,-28.306250,24.000000,0.0,1.000000,0.000000,0.000000,0.000000
1782115909.688076,409099,1.003906,0.047363,0.042969,8.231708,-3.963415,-1.463415,8.931251,-28.356251,23.912500,0.0,1.000000,0.000000,0.000000,0.000000
1782115909.698076,409109,1.001465,0.047363,0.043945,7.621952,-4.268293,-0.975610,8.931251,-28.356251,23.912500,0.0,1.000000,0.000000,0.000000,0.000000
1782115909.711076,409122,1.001953,0.051758,0.045410,7.012195,-4.329268,-0.731707,9.006250,-28.356251,23.868750,0.0,1.000000,0.000000,0.000000,0.000000
1782115909.718076,409129,1.003906,0.052246,0.046387,6.280488,-4.268293,-0.731707,9.006250,-28.356251,23.868750,0.0,1.000000,0.000000,0.000000,0.000000
1782115909.728076,409139,1.004395,0.048828,0.045410,5.487805,-4.085366,-0.670732,9.087501,-28.306250,23.731251,0.0,1.000000,0.000000,0.000000,0.000000
1782115909.739076,409150,1.006348,0.043457,0.042480,4.939024,-4.024390,-0.670732,9.087501,-28.306250,23.731251,0.0,1.000000,0.000000,0.000000,0.000000
1782115909.750076,409161,1.009277,0.035645,0.037598,4.634146,-4.085366,-0.731707,9.025001,-28.468750,23.718750,0.0,1.000000,0.000000,0.000000,0.000000
1782115909.758076,409169,1.012695,0.028320,0.035156,4.451220,-3.780488,-0.792683,9.025001,-28.468750,23.718750,0.0,1.000000,0.000000,0.000000,0.000000
1782115909.768076,409179,1.010742,0.024902,0.030273,5.000000,-2.560976,-1.341463,9.150001,-28.356251,23.568750,0.0,1.000000,0.000000,0.000000,0.000000
1782115909.778076,409189,1.004883,0.023926,0.026855,5.975610,-1.646341,-2.134146,9.150001,-28.356251,23.568750,0.0,1.000000,0.000000,0.000000,0.000000
1782115909.791076,409202,1.003418,0.021973,0.022949,6.890244,-1.036585,-2.743902,9.150001,-28.400000,23.637501,0.0,1.000000,0.000000,0.000000,0.000000
1782115909.798076,409209,0.999023,0.027344,0.018555,7.804878,-0.365854,-3.719512,9.150001,-28.400000,23.637501,0.0,1.000000,0.000000,0.000000,0.000000
1782115909.808076,409219,0.998535,0.027344,0.014648,8.536586,-0.121951,-4.207317,9.356250,-28.350000,23.487501,0.0,1.000000,0.000000,0.000000,0.000000
1782115909.818076,409229,1.003418,0.032227,0.014160,8.902439,0.670732,-4.329268,9.356250,-28.350000,23.487501,0.0,1.000000,0.000000,0.000000,0.000000
1782115909.831076,409242,1.005371,0.049316,0.017090,8.475610,1.890244,-4.268293,9.312500,-28.500000,23.500000,0.0,1.000000,0.000000,0.000000,0.000000
1782115909.838076,409249,1.000977,0.062988,0.017090,7.743903,2.560976,-4.207317,9.312500,-28.500000,23.500000,0.0,1.000000,0.000000,0.000000,0.000000
1782115909.849076,409260,0.997559,0.072754,0.014160,6.829268,3.170732,-3.902439,9.475000,-28.331251,23.462500,0.0,1.000000,0.000000,0.000000,0.000000
1782115909.858076,409269,0.991699,0.081543,0.015625,5.365854,3.353659,-3.353659,9.475000,-28.331251,23.462500,0.0,1.000000,0.000000,0.000000,0.000000
1782115909.870076,409281,0.985352,0.090820,0.015137,3.292683,3.536585,-2.865854,9.512500,-28.356251,23.437500,0.0,1.000000,0.000000,0.000000,0.000000
1782115909.878076,409289,0.978516,0.097168,0.018555,0.670732,3.353659,-2.378049,9.512500,-28.356251,23.437500,0.0,1.000000,0.000000,0.000000,0.000000
1782115909.888076,409299,0.975586,0.100098,0.023438,-2.621951,2.682927,-2.012195,9.587501,-28.300001,23.518751,0.0,1.000000,0.000000,0.000000,0.000000
1782115909.898076,409309,0.977051,0.104492,0.027832,-6.097561,1.768293,-1.829268,9.587501,-28.300001,23.518751,0.0,1.000000,0.000000,0.000000,0.000000
1782115909.909076,409320,0.975098,0.103027,0.032227,-9.512196,0.670732,-1.646341,9.537500,-28.337500,23.668751,0.0,1.000000,0.000000,0.000000,0.000000
1782115909.919076,409330,0.980957,0.092285,0.034180,-12.500000,-1.036585,-1.463415,9.537500,-28.337500,23.668751,0.0,1.000000,0.000000,0.000000,0.000000
1782115909.928076,409339,0.993652,0.078125,0.036133,-15.060976,-2.500000,-0.792683,9.468750,-28.231251,23.662500,0.0,1.000000,0.000000,0.000000,0.000000
1782115909.939076,409350,1.006348,0.059570,0.034180,-17.073172,-3.353659,0.182927,9.468750,-28.231251,23.662500,0.0,1.000000,0.000000,0.000000,0.000000
1782115909.948076,409359,1.011230,0.048828,0.034180,-18.231709,-3.475610,0.975610,9.300000,-28.368750,23.718750,0.0,1.000000,0.000000,0.000000,0.000000
1782115909.958076,409369,1.009277,0.033203,0.034668,-18.048780,-3.719512,1.463415,9.300000,-28.368750,23.718750,0.0,1.000000,0.000000,0.000000,0.000000
1782115909.968076,409379,1.007324,0.018066,0.032227,-17.317074,-4.451220,1.890244,9.168750,-28.325001,23.768751,0.0,1.000000,0.000000,0.000000,0.000000
1782115909.978076,409389,1.010742,0.006836,0.024902,-15.121951,-4.512195,1.646341,9.168750,-28.325001,23.768751,0.0,1.000000,0.000000,0.000000,0.000000
1782115909.990076,409401,1.011719,-0.009277,0.014648,-8.475610,-3.048780,-0.121951,8.943750,-28.443750,23.850000,0.0,1.000000,0.000000,0.000000,0.000000
1782115909.998076,409409,1.011719,-0.009277,0.014648,-8.475610,-3.048780,-0.121951,8.943750,-28.443750,23.850000,0.0,1.000000,0.000000,0.000000,0.000000
1782115910.008076,409419,1.008789,-0.015625,0.017090,-4.573171,-2.682927,-0.426829,8.950000,-28.431250,23.806250,0.0,1.000000,0.000000,0.000000,0.000000
1782115910.018076,409429,1.010742,-0.013184,0.018555,-1.219512,-1.829268,-1.036585,8.950000,-28.431250,23.806250,0.0,1.000000,0.000000,0.000000,0.000000
1782115910.029076,409440,1.000488,0.016602,0.018555,4.634146,0.304878,-3.109756,8.931251,-28.468750,23.850000,0.0,1.000000,0.000000,0.000000,0.000000
1782115910.038076,409449,0.996582,0.034668,0.020020,6.219512,0.670732,-4.146341,8.931251,-28.468750,23.850000,0.0,1.000000,0.000000,0.000000,0.000000
1782115910.048076,409459,0.999023,0.049805,0.021973,7.012195,0.975610,-5.000000,9.050000,-28.387501,23.906250,0.0,1.000000,0.000000,0.000000,0.000000
1782115910.058076,409469,1.003418,0.062500,0.026855,7.195122,1.280488,-5.487805,9.050000,-28.387501,23.906250,0.0,1.000000,0.000000,0.000000,0.000000
1782115910.069076,409480,1.002930,0.073242,0.031738,6.707317,1.585366,-5.365854,9.125000,-28.375000,23.875000,0.0,1.000000,0.000000,0.000000,0.000000
1782115910.078076,409489,1.002930,0.082520,0.036133,5.426829,1.341463,-4.939024,9.125000,-28.375000,23.875000,0.0,1.000000,0.000000,0.000000,0.000000
1782115910.089076,409500,1.002441,0.093262,0.038574,3.414634,0.670732,-4.146341,9.293750,-28.318750,23.837500,0.0,1.000000,0.000000,0.000000,0.000000
1782115910.099076,409510,1.001465,0.098633,0.038574,0.792683,-0.487805,-2.926829,9.293750,-28.318750,23.837500,0.0,1.000000,0.000000,0.000000,0.000000
1782115910.110076,409521,0.995605,0.097168,0.036621,-2.134146,-1.341463,-1.585366,9.343750,-28.337500,23.918751,0.0,1.000000,0.000000,0.000000,0.000000
1782115910.119076,409530,0.996094,0.088867,0.032227,-4.573171,-2.682927,-0.243902,9.343750,-28.337500,23.918751,0.0,1.000000,0.000000,0.000000,0.000000
1782115910.129076,409540,0.998535,0.081055,0.031250,-6.585366,-3.963415,1.524390,9.331250,-28.293751,23.856251,0.0,1.000000,0.000000,0.000000,0.000000
1782115910.139076,409550,0.996582,0.070312,0.027344,-7.987805,-4.634146,2.439024,9.331250,-28.293751,23.856251,0.0,1.000000,0.000000,0.000000,0.000000
1782115910.150076,409561,0.998535,0.054199,0.021973,-8.353659,-4.695122,2.560976,9.200000,-28.443750,23.837500,0.0,1.000000,0.000000,0.000000,0.000000
1782115910.158076,409569,1.001953,0.042480,0.015137,-7.987805,-4.451220,2.317073,9.200000,-28.443750,23.837500,0.0,1.000000,0.000000,0.000000,0.000000
1782115910.168076,409579,1.003418,0.026855,0.012207,-6.707317,-4.085366,1.951220,9.193750,-28.150000,23.725000,0.0,1.000000,0.000000,0.000000,0.000000
1782115910.178076,409589,1.003906,0.011230,0.008789,-4.573171,-3.292683,1.158537,9.193750,-28.150000,23.725000,0.0,1.000000,0.000000,0.000000,0.000000
1782115910.191076,409602,0.999512,-0.002930,0.005859,-2.012195,-2.317073,0.304878,9.018750,-28.506250,23.893751,0.0,1.000000,0.000000,0.000000,0.000000
1782115910.198076,409609,0.997559,-0.011719,0.003906,0.731707,-1.463415,-0.548781,9.018750,-28.506250,23.893751,0.0,1.000000,0.000000,0.000000,0.000000
1782115910.208076,409619,0.993652,-0.013672,0.002930,3.597561,-0.548781,-1.341463,9.037500,-28.462500,23.831251,0.0,1.000000,0.000000,0.000000,0.000000
1782115910.218076,409629,0.995117,-0.007812,0.003418,6.524390,0.304878,-2.317073,9.037500,-28.462500,23.831251,0.0,1.000000,0.000000,0.000000,0.000000
1782115910.230076,409641,0.999023,0.004883,0.000000,9.146341,1.219512,-3.414634,8.950000,-28.525000,23.887501,0.0,1.000000,0.000000,0.000000,0.000000
1782115910.239076,409650,1.006836,0.018066,0.002441,11.280488,1.524390,-4.268293,8.950000,-28.525000,23.887501,0.0,1.000000,0.000000,0.000000,0.000000
1782115910.248076,409659,1.015137,0.036133,0.007812,12.682927,1.890244,-4.329268,9.143750,-28.431250,23.793751,0.0,1.000000,0.000000,0.000000,0.000000
1782115910.258076,409669,1.014648,0.051758,0.013672,13.414635,2.073171,-3.658537,9.143750,-28.431250,23.793751,0.0,1.000000,0.000000,0.000000,0.000000
1782115910.270076,409681,1.010254,0.069336,0.020996,12.987805,2.195122,-2.987805,9.281250,-28.468750,23.806250,0.0,1.000000,0.000000,0.000000,0.000000
1782115910.278076,409689,1.003906,0.084961,0.025391,11.585366,2.134146,-2.195122,9.281250,-28.468750,23.806250,0.0,1.000000,0.000000,0.000000,0.000000
1782115910.288076,409699,1.000488,0.095215,0.024414,9.573171,1.707317,-1.341463,9.575000,-28.168751,23.587500,0.0,1.000000,0.000000,0.000000,0.000000
1782115910.298076,409709,1.000977,0.097168,0.022949,7.073171,1.158537,-0.548781,9.575000,-28.168751,23.587500,0.0,1.000000,0.000000,0.000000,0.000000
1782115910.310076,409721,1.002930,0.094727,0.021484,4.207317,0.731707,0.304878,9.493751,-28.412500,23.756250,0.0,1.000000,0.000000,0.000000,0.000000
