Unix_Time_s,RelativeTime_s,P_1,P_2,P_3,P_4,P_5,P_6,P_7,P_8,P_9,P_10,P_11,P_12,P_13,P_14,P_15,P_16,P_17,P_18,P_19,P_20,P_21,P_22,P_23,P_24,P_25,P_26,P_27,P_28,P_29,P_30,P_31,P_32,P_33,P_34,P_35,P_36,P_37,P_38,P_39,P_40,P_41,P_42,P_43,P_44,P_45,P_46,P_47,P_48,P_49,P_50,P_51,P_52,P_53,P_54,P_55,P_56,P_57,P_58,P_59,P_60,P_61,P_62,P_63,P_64,P_65,P_66,P_67,P_68,P_69,P_70,P_71,P_72,P_73,P_74,P_75,P_76,P_77,P_78,P_79,P_80,P_81,P_82,P_83,P_84,P_85,P_86,P_87,P_88,P_89,P_90,P_91,P_92,P_93,P_94,P_95,P_96,P_97,P_98,P_99,P_100,P_101,P_102,P_103,P_104,P_105,P_106,P_107,P_108,P_109,P_110,P_111,P_112,P_113,P_114,P_115,P_116,P_117,P_118,P_119,P_120,P_121,P_122,P_123,P_124,P_125,P_126,P_127,P_128,P_129,P_130,P_131,P_132,P_133,P_134,P_135,P_136,P_137,P_138,P_139,P_140,P_141,P_142,P_143,P_144,P_145,P_146,P_147,P_148,P_149,P_150,P_151,P_152,P_153,P_154,P_155,P_156,P_157,P_158,P_159,P_160,P_161,P_162,P_163,P_164,P_165,P_166,P_167,P_168,P_169,P_170,P_171,P_172,P_173,P_174,P_175,P_176,P_177,P_178,P_179,P_180,P_181,P_182,P_183,P_184,P_185,P_186,P_187,P_188,P_189,P_190,P_191,P_192,P_193,P_194,P_195,P_196,P_197,P_198,P_199,P_200,P_201,P_202,P_203,P_204,P_205,P_206,P_207,P_208,P_209,P_210,P_211,P_212,P_213,P_214,P_215,P_216,P_217,P_218,P_219,P_220,P_221,P_222,P_223,P_224,P_225,P_226,P_227,P_228,P_229,P_230,P_231,P_232,P_233,Flex1,Flex2,Bat,IMU1_RefTime,IMU1_Ax,IMU1_Ay,IMU1_Az,IMU1_Wx,IMU1_Wy,IMU1_Wz,IMU1_Roll,IMU1_Pitch,IMU1_Yaw,IMU1_Hx,IMU1_Hy,IMU1_Hz,IMU1_Q0,IMU1_Q1,IMU1_Q2,IMU1_Q3,IMU2_RefTime,IMU2_Ax,IMU2_Ay,IMU2_Az,IMU2_Wx,IMU2_Wy,IMU2_Wz,IMU2_Roll,IMU2_Pitch,IMU2_Yaw,IMU2_Hx,IMU2_Hy,IMU2_Hz,IMU2_Q0,IMU2_Q1,IMU2_Q2,IMU2_Q3,IMU1_FusedRoll,IMU1_FusedPitch,IMU1_FusedYaw,IMU1_FusedQ0,IMU1_FusedQ1,IMU1_FusedQ2,IMU1_FusedQ3,IMU1_MagValid,IMU2_FusedRoll,IMU2_FusedPitch,IMU2_FusedYaw,IMU2_FusedQ0,IMU2_FusedQ1,IMU2_FusedQ2,IMU2_FusedQ3,IMU2_MagValid
1782115902.418601,0.011,1019.0,1019.0,1020.0,1019.0,1020.0,1021.0,1020.0,1021.0,1017.0,1019.0,1020.0,1021.0,1020.0,1021.0,1017.0,1020.0,1020.0,1020.0,1022.0,1020.0,1022.0,1016.0,1020.0,1020.0,1020.0,1020.0,1021.0,1020.0,1022.0,1016.0,1019.0,1019.0,1020.0,1020.0,1021.0,1022.0,1020.0,1022.0,1016.0,1020.0,1019.0,1021.0,1020.0,1021.0,1021.0,1020.0,1022.0,1016.0,1020.0,1019.0,1020.0,1019.0,1020.0,1021.0,1022.0,1020.0,1022.0,1016.0,1019.0,1020.0,1020.0,1020.0,1021.0,1022.0,1023.0,1020.0,1023.0,1016.0,1020.0,1020.0,1021.0,1020.0,1020.0,1021.0,1023.0,1020.0,1023.0,1016.0,1019.0,1020.0,1020.0,1020.0,1021.0,1022.0,1023.0,1020.0,1022.0,1016.0,1020.0,1021.0,1021.0,1020.0,1021.0,1021.0,1022.0,1020.0,1023.0,1016.0,1020.0,1020.0,1021.0,1019.0,1020.0,1021.0,1022.0,1020.0,1023.0,1016.0,1019.0,1019.0,1020.0,1020.0,1021.0,1022.0,1024.0,1021.0,1024.0,1017.0,1020.0,1021.0,1022.0,1021.0,1022.0,1024.0,1021.0,1024.0,1018.0,1020.0,1020.0,1020.0,1022.0,1023.0,1020.0,1022.0,1017.0,1020.0,1021.0,1022.0,1024.0,1021.0,1023.0,1018.0,1020.0,1020.0,1022.0,1023.0,1020.0,1022.0,1018.0,1019.0,1021.0,1021.0,1023.0,1021.0,1022.0,1018.0,1020.0,1021.0,1022.0,1020.0,1021.0,1017.0,1020.0,1021.0,1023.0,1021.0,1023.0,1018.0,1021.0,1022.0,1024.0,1022.0,1024.0,1019.0,1020.0,1022.0,1024.0,1021.0,1023.0,1018.0,1021.0,1021.0,1024.0,1022.0,1024.0,1019.0,1021.0,1023.0,1024.0,1024.0,1025.0,1021.0,1021.0,1023.0,1026.0,1023.0,1027.0,1022.0,1020.0,1022.0,1026.0,1023.0,1026.0,1022.0,1021.0,1023.0,1026.0,1024.0,1026.0,1023.0,1021.0,1023.0,1027.0,1023.0,1026.0,1023.0,1020.0,1022.0,1026.0,1022.0,1025.0,1022.0,1022.0,1024.0,1029.0,1025.0,1028.0,1065.0,1020.0,1024.0,1027.0,1024.0,1027.0,2457,2328,1897,	00:06:33.281,-0.00927734375,0.0908203125,1.01611328125,-4.45556640625,0.06103515625,0.30517578125,5.064697265625,0.52734375,28.2183837890625,672.0,-534.0,-4147.0,0.96893310546875,0.041717529296875,0.015228271484375,0.24334716796875,5.0629246260573675,0.5262631983976371,29.87567191517581,0.9653052727334179,0.04149226264367811,0.015818067270198542,0.2573206391287051,1,	00:06:33.282,0.03955078125,0.03369140625,1.017578125,0.244140625,0.0,0.42724609375,1.8511962890625,-2.21923828125,142.22900390625,524.0,609.0,-1950.0,0.32330322265625,0.023529052734375,0.009033203125,0.945953369140625,1.8521197140781922,-2.218335639181078,143.56248506562784,0.31224932053975957,0.023436691671106565,0.009297775738050356,0.9496655383198322,1
1782115902.427115,0.019,1018.0,1021.0,1020.0,1020.0,1021.0,1021.0,1020.0,1021.0,1017.0,1019.0,1021.0,1021.0,1020.0,1021.0,1017.0,1019.0,1020.0,1020.0,1022.0,1021.0,1021.0,1017.0,1020.0,1019.0,1019.0,1020.0,1022.0,1020.0,1021.0,1016.0,1020.0,1020.0,1020.0,1020.0,1021.0,1022.0,1021.0,1021.0,1016.0,1019.0,1020.0,1020.0,1020.0,1021.0,1022.0,1020.0,1021.0,1017.0,1020.0,1019.0,1020.0,1020.0,1020.0,1021.0,1022.0,1020.0,1021.0,1016.0,1020.0,1020.0,1020.0,1020.0,1020.0,1022.0,1023.0,1021.0,1022.0,1016.0,1020.0,1021.0,1021.0,1020.0,1021.0,1022.0,1023.0,1021.0,1021.0,1016.0,1020.0,1020.0,1021.0,1020.0,1020.0,1022.0,1023.0,1021.0,1022.0,1017.0,1020.0,1020.0,1021.0,1020.0,1020.0,1022.0,1023.0,1021.0,1022.0,1017.0,1020.0,1020.0,1021.0,1019.0,1020.0,1021.0,1023.0,1021.0,1022.0,1017.0,1020.0,1019.0,1021.0,1019.0,1021.0,1022.0,1023.0,1021.0,1023.0,1018.0,1020.0,1021.0,1022.0,1020.0,1022.0,1023.0,1022.0,1023.0,1018.0,1020.0,1020.0,1020.0,1022.0,1023.0,1020.0,1022.0,1017.0,1019.0,1021.0,1022.0,1023.0,1021.0,1023.0,1018.0,1020.0,1020.0,1022.0,1023.0,1021.0,1022.0,1017.0,1020.0,1020.0,1021.0,1023.0,1021.0,1021.0,1017.0,1020.0,1021.0,1022.0,1020.0,1021.0,1017.0,1020.0,1021.0,1023.0,1021.0,1023.0,1018.0,1021.0,1022.0,1024.0,1022.0,1024.0,1019.0,1020.0,1021.0,1023.0,1021.0,1022.0,1018.0,1021.0,1022.0,1024.0,1022.0,1024.0,1019.0,1021.0,1022.0,1025.0,1024.0,1025.0,1021.0,1021.0,1023.0,1026.0,1024.0,1026.0,1023.0,1020.0,1022.0,1025.0,1023.0,1025.0,1021.0,1021.0,1023.0,1026.0,1023.0,1025.0,1022.0,1021.0,1022.0,1026.0,1024.0,1025.0,1023.0,1020.0,1022.0,1025.0,1023.0,1024.0,1022.0,1022.0,1023.0,1030.0,1025.0,1026.0,1065.0,1021.0,1023.0,1027.0,1024.0,1025.0,2456,2327,1898,	00:06:33.291,-0.00927734375,0.08984375,1.015625,-4.150390625,0.1220703125,0.30517578125,4.94384765625,0.4779052734375,28.223876953125,673.0,-532.0,-4150.0,0.968963623046875,0.04083251953125,0.014556884765625,0.243408203125,4.944775407492914,0.47746363797526276,29.878165915398842,0.9653390037305815,0.040606384557111075,0.015142575723525705,0.25737605135308483,1,	00:06:33.292,0.0400390625,0.033203125,1.02099609375,0.30517578125,0.1220703125,0.42724609375,1.8896484375,-2.3016357421875,142.22900390625,526.0,608.0,-1951.0,0.3232421875,0.02435302734375,0.00909423828125,0.945953369140625,1.8890477390322435,-2.302265202642941,143.56545305303922,0.31220117313091095,0.024232475136154792,0.009375300247477548,0.9496606332736598,1
1782115902.437152,0.029,1018.0,1020.0,1020.0,1019.0,1020.0,1021.0,1020.0,1021.0,1017.0,1020.0,1021.0,1021.0,1020.0,1021.0,1016.0,1020.0,1020.0,1021.0,1021.0,1020.0,1021.0,1017.0,1020.0,1019.0,1020.0,1020.0,1021.0,1021.0,1021.0,1016.0,1020.0,1020.0,1020.0,1020.0,1020.0,1022.0,1021.0,1021.0,1016.0,1020.0,1019.0,1020.0,1020.0,1020.0,1022.0,1021.0,1021.0,1016.0,1019.0,1020.0,1020.0,1019.0,1020.0,1020.0,1022.0,1021.0,1022.0,1016.0,1020.0,1019.0,1020.0,1019.0,1020.0,1022.0,1022.0,1020.0,1021.0,1016.0,1020.0,1020.0,1020.0,1020.0,1021.0,1021.0,1023.0,1020.0,1022.0,1016.0,1020.0,1020.0,1021.0,1020.0,1020.0,1022.0,1023.0,1021.0,1022.0,1017.0,1020.0,1021.0,1022.0,1021.0,1020.0,1021.0,1023.0,1021.0,1021.0,1017.0,1020.0,1020.0,1020.0,1019.0,1020.0,1021.0,1023.0,1021.0,1021.0,1017.0,1020.0,1019.0,1021.0,1019.0,1020.0,1022.0,1024.0,1021.0,1022.0,1018.0,1020.0,1021.0,1022.0,1021.0,1021.0,1024.0,1022.0,1022.0,1018.0,1019.0,1020.0,1020.0,1022.0,1024.0,1021.0,1022.0,1017.0,1020.0,1020.0,1021.0,1024.0,1022.0,1023.0,1017.0,1020.0,1020.0,1021.0,1024.0,1021.0,1021.0,1017.0,1020.0,1020.0,1021.0,1024.0,1021.0,1021.0,1017.0,1020.0,1021.0,1023.0,1021.0,1021.0,1016.0,1021.0,1021.0,1024.0,1021.0,1022.0,1018.0,1021.0,1021.0,1024.0,1022.0,1023.0,1019.0,1020.0,1020.0,1024.0,1022.0,1022.0,1017.0,1021.0,1022.0,1025.0,1023.0,1023.0,1018.0,1021.0,1022.0,1025.0,1023.0,1024.0,1021.0,1021.0,1023.0,1026.0,1023.0,1026.0,1021.0,1021.0,1023.0,1026.0,1024.0,1024.0,1021.0,1021.0,1023.0,1027.0,1025.0,1025.0,1022.0,1022.0,1023.0,1028.0,1024.0,1024.0,1023.0,1021.0,1022.0,1027.0,1022.0,1024.0,1021.0,1022.0,1023.0,1032.0,1023.0,1026.0,1066.0,1021.0,1023.0,1029.0,1024.0,1025.0,2454,2326,1897,	00:06:33.301,-0.00927734375,0.08935546875,1.015625,-3.7841796875,0.244140625,0.30517578125,4.98779296875,0.5218505859375,28.2293701171875,668.0,-530.0,-4148.0,0.96893310546875,0.04107666015625,0.0150146484375,0.243408203125,4.9877893217338105,0.5222596424015963,29.882107015404525,0.9653175807688162,0.0408674501677561,0.015617916277797553,0.25738667499807705,1,	00:06:33.302,0.04052734375,0.03466796875,1.021484375,0.244140625,0.244140625,0.3662109375,1.9720458984375,-2.252197265625,142.22900390625,525.0,611.0,-1948.0,0.3232421875,0.024169921875,0.009918212890625,0.945953369140625,1.9708114833602055,-2.2541493670667783,143.5660384279591,0.3121884190405461,0.024056518311185316,0.010184383184401177,0.9496609675472933,1
1782115902.450040,0.042,1017.0,1020.0,1020.0,1019.0,1021.0,1021.0,1020.0,1021.0,1017.0,1020.0,1020.0,1021.0,1020.0,1021.0,1017.0,1020.0,1020.0,1021.0,1022.0,1020.0,1020.0,1016.0,1020.0,1019.0,1020.0,1021.0,1022.0,1020.0,1021.0,1016.0,1020.0,1019.0,1019.0,1020.0,1021.0,1022.0,1020.0,1021.0,1016.0,1020.0,1019.0,1020.0,1020.0,1021.0,1022.0,1021.0,1021.0,1016.0,1020.0,1020.0,1020.0,1019.0,1020.0,1021.0,1022.0,1021.0,1021.0,1016.0,1020.0,1019.0,1021.0,1020.0,1020.0,1022.0,1022.0,1020.0,1021.0,1016.0,1020.0,1021.0,1022.0,1020.0,1020.0,1022.0,1022.0,1021.0,1022.0,1016.0,1020.0,1020.0,1021.0,1020.0,1020.0,1022.0,1022.0,1021.0,1022.0,1016.0,1020.0,1021.0,1021.0,1021.0,1021.0,1022.0,1022.0,1021.0,1022.0,1016.0,1020.0,1020.0,1021.0,1020.0,1020.0,1022.0,1022.0,1021.0,1022.0,1016.0,1020.0,1019.0,1021.0,1019.0,1021.0,1022.0,1023.0,1021.0,1023.0,1017.0,1020.0,1021.0,1022.0,1021.0,1023.0,1023.0,1021.0,1022.0,1017.0,1020.0,1020.0,1020.0,1022.0,1023.0,1022.0,1021.0,1017.0,1020.0,1021.0,1022.0,1023.0,1022.0,1023.0,1018.0,1020.0,1020.0,1022.0,1022.0,1021.0,1022.0,1017.0,1020.0,1020.0,1022.0,1022.0,1021.0,1021.0,1017.0,1020.0,1022.0,1022.0,1021.0,1021.0,1016.0,1020.0,1022.0,1023.0,1022.0,1022.0,1018.0,1021.0,1023.0,1023.0,1023.0,1023.0,1018.0,1020.0,1022.0,1022.0,1022.0,1022.0,1018.0,1021.0,1023.0,1023.0,1023.0,1023.0,1019.0,1021.0,1022.0,1024.0,1024.0,1025.0,1021.0,1021.0,1024.0,1025.0,1024.0,1025.0,1022.0,1020.0,1024.0,1025.0,1023.0,1025.0,1021.0,1021.0,1024.0,1026.0,1023.0,1025.0,1023.0,1021.0,1024.0,1026.0,1023.0,1025.0,1023.0,1021.0,1024.0,1025.0,1023.0,1024.0,1022.0,1022.0,1024.0,1029.0,1024.0,1027.0,1066.0,1021.0,1024.0,1027.0,1023.0,1026.0,2452,2324,1897,	00:06:33.312,-0.00927734375,0.087890625,1.0166015625,-3.47900390625,0.244140625,0.30517578125,4.8614501953125,0.5218505859375,28.2293701171875,670.0,-532.0,-4150.0,0.968963623046875,0.040008544921875,0.014739990234375,0.243438720703125,4.861727602826184,0.5217915467284675,29.884528165004767,0.9653564892770562,0.0398062126856835,0.015331654870091907,0.2574242692545582,1,	00:06:33.313,0.0390625,0.0322265625,1.0205078125,0.244140625,0.48828125,0.42724609375,1.8896484375,-2.2137451171875,142.239990234375,527.0,607.0,-1950.0,0.32318115234375,0.02362060546875,0.00933837890625,0.94598388671875,1.8876964138703487,-2.216136026559375,143.57381058993806,0.312148585239568,0.02351445914777093,0.009600942715280248,0.9496937152803013,1
1782115902.460197,0.052,1018.0,1019.0,1020.0,1019.0,1021.0,1020.0,1021.0,1021.0,1016.0,1020.0,1021.0,1021.0,1020.0,1021.0,1016.0,1020.0,1020.0,1022.0,1020.0,1020.0,1021.0,1015.0,1020.0,1019.0,1020.0,1022.0,1021.0,1020.0,1021.0,1016.0,1020.0,1019.0,1021.0,1020.0,1022.0,1021.0,1021.0,1021.0,1016.0,1020.0,1020.0,1020.0,1020.0,1021.0,1021.0,1020.0,1021.0,1016.0,1020.0,1020.0,1019.0,1019.0,1020.0,1022.0,1021.0,1020.0,1022.0,1016.0,1020.0,1020.0,1021.0,1019.0,1020.0,1022.0,1022.0,1021.0,1022.0,1016.0,1020.0,1020.0,1021.0,1020.0,1020.0,1022.0,1022.0,1021.0,1022.0,1016.0,1020.0,1020.0,1021.0,1020.0,1021.0,1023.0,1022.0,1021.0,1021.0,1017.0,1020.0,1020.0,1021.0,1020.0,1020.0,1023.0,1022.0,1020.0,1021.0,1015.0,1020.0,1020.0,1020.0,1019.0,1020.0,1022.0,1022.0,1021.0,1022.0,1016.0,1019.0,1020.0,1021.0,1020.0,1021.0,1024.0,1023.0,1020.0,1024.0,1017.0,1020.0,1021.0,1022.0,1020.0,1023.0,1023.0,1021.0,1023.0,1017.0,1020.0,1020.0,1020.0,1023.0,1022.0,1021.0,1021.0,1016.0,1020.0,1020.0,1023.0,1023.0,1021.0,1023.0,1017.0,1020.0,1020.0,1022.0,1022.0,1021.0,1022.0,1017.0,1020.0,1020.0,1022.0,1022.0,1021.0,1022.0,1017.0,1020.0,1022.0,1022.0,1020.0,1020.0,1016.0,1021.0,1023.0,1022.0,1021.0,1022.0,1017.0,1021.0,1024.0,1023.0,1021.0,1023.0,1018.0,1020.0,1022.0,1022.0,1021.0,1022.0,1017.0,1020.0,1024.0,1023.0,1022.0,1024.0,1019.0,1021.0,1024.0,1024.0,1023.0,1025.0,1021.0,1022.0,1024.0,1025.0,1023.0,1026.0,1021.0,1021.0,1024.0,1025.0,1023.0,1025.0,1020.0,1021.0,1025.0,1026.0,1022.0,1026.0,1022.0,1021.0,1025.0,1026.0,1023.0,1025.0,1023.0,1022.0,1024.0,1026.0,1022.0,1024.0,1022.0,1023.0,1025.0,1030.0,1024.0,1027.0,1065.0,1021.0,1024.0,1028.0,1023.0,1026.0,2450,2323,1897,	00:06:33.322,-0.01025390625,0.0888671875,1.01611328125,-3.11279296875,0.3662109375,0.30517578125,4.9163818359375,0.560302734375,28.23486328125,665.0,-533.0,-4150.0,0.968963623046875,0.0404052734375,0.01519775390625,0.24346923828125,4.915553854112198,0.5588808694559292,29.888670021236152,0.9653304861385024,0.04017564702177103,0.015766436325095397,0.25743812733080396,1,	00:06:33.323,0.0390625,0.03271484375,1.021484375,0.18310546875,0.54931640625,0.3662109375,1.8072509765625,-2.1697998046875,142.2454833984375,528.0,604.0,-1950.0,0.323150634765625,0.02301025390625,0.0087890625,0.946014404296875,1.8078077159430475,-2.169029437189935,143.58077615741954,0.31211579025061903,0.022905955874461193,0.009068806992102519,0.9497245955546527,1
1782115902.469718,0.062,1018.0,1019.0,1019.0,1018.0,1022.0,1021.0,1020.0,1021.0,1017.0,1019.0,1022.0,1020.0,1020.0,1021.0,1016.0,1020.0,1020.0,1022.0,1021.0,1020.0,1021.0,1016.0,1019.0,1019.0,1019.0,1023.0,1021.0,1020.0,1021.0,1016.0,1020.0,1019.0,1020.0,1020.0,1023.0,1021.0,1020.0,1021.0,1015.0,1020.0,1020.0,1020.0,1020.0,1023.0,1021.0,1020.0,1021.0,1015.0,1020.0,1019.0,1020.0,1019.0,1020.0,1022.0,1021.0,1020.0,1022.0,1016.0,1020.0,1020.0,1020.0,1019.0,1020.0,1024.0,1022.0,1020.0,1022.0,1016.0,1020.0,1020.0,1021.0,1020.0,1020.0,1023.0,1022.0,1020.0,1022.0,1016.0,1020.0,1020.0,1021.0,1020.0,1020.0,1023.0,1022.0,1020.0,1022.0,1016.0,1020.0,1021.0,1021.0,1020.0,1020.0,1023.0,1022.0,1020.0,1021.0,1016.0,1020.0,1020.0,1020.0,1019.0,1020.0,1023.0,1022.0,1020.0,1021.0,1016.0,1019.0,1019.0,1021.0,1019.0,1021.0,1024.0,1023.0,1020.0,1023.0,1017.0,1020.0,1021.0,1022.0,1021.0,1024.0,1023.0,1021.0,1022.0,1016.0,1020.0,1020.0,1020.0,1023.0,1023.0,1020.0,1021.0,1016.0,1020.0,1021.0,1023.0,1023.0,1021.0,1022.0,1017.0,1020.0,1020.0,1024.0,1023.0,1021.0,1021.0,1016.0,1020.0,1020.0,1023.0,1023.0,1020.0,1021.0,1016.0,1020.0,1022.0,1022.0,1020.0,1021.0,1015.0,1021.0,1023.0,1023.0,1020.0,1022.0,1016.0,1021.0,1024.0,1024.0,1021.0,1023.0,1018.0,1020.0,1023.0,1023.0,1021.0,1022.0,1017.0,1021.0,1024.0,1024.0,1021.0,1025.0,1019.0,1021.0,1024.0,1025.0,1022.0,1026.0,1020.0,1022.0,1025.0,1026.0,1023.0,1028.0,1022.0,1021.0,1025.0,1026.0,1022.0,1026.0,1021.0,1022.0,1025.0,1027.0,1023.0,1026.0,1022.0,1021.0,1025.0,1027.0,1022.0,1026.0,1024.0,1021.0,1025.0,1026.0,1022.0,1024.0,1022.0,1022.0,1026.0,1031.0,1024.0,1027.0,1067.0,1021.0,1025.0,1028.0,1023.0,1026.0,2448,2322,1897,	00:06:33.332,-0.0087890625,0.087890625,1.0146484375,-2.685546875,0.48828125,0.30517578125,4.932861328125,0.4833984375,28.23486328125,671.0,-530.0,-4155.0,0.96893310546875,0.04071044921875,0.01458740234375,0.2435302734375,4.932605644697685,0.4830484365232667,29.892545683729537,0.9653113492785287,0.04048940052631047,0.015167365997928908,0.2574967153339457,1,	00:06:33.334,0.04052734375,0.033203125,1.02197265625,0.06103515625,0.6103515625,0.30517578125,1.8511962890625,-2.2467041015625,142.2454833984375,527.0,609.0,-1952.0,0.3231201171875,0.02374267578125,0.008941650390625,0.946014404296875,1.8509647022666051,-2.244055757738362,143.58237796800947,0.31207988320324287,0.023645052142814146,0.00922209049669842,0.949716805714148,1
1782115902.479600,0.072,1018.0,1020.0,1019.0,1019.0,1021.0,1022.0,1020.0,1021.0,1016.0,1019.0,1021.0,1022.0,1020.0,1021.0,1016.0,1020.0,1020.0,1022.0,1022.0,1020.0,1021.0,1016.0,1020.0,1020.0,1019.0,1022.0,1021.0,1020.0,1021.0,1016.0,1019.0,1020.0,1020.0,1020.0,1022.0,1022.0,1020.0,1021.0,1016.0,1020.0,1019.0,1019.0,1020.0,1022.0,1022.0,1020.0,1021.0,1016.0,1019.0,1019.0,1019.0,1019.0,1020.0,1022.0,1022.0,1020.0,1021.0,1016.0,1020.0,1020.0,1020.0,1019.0,1020.0,1022.0,1023.0,1020.0,1021.0,1016.0,1020.0,1020.0,1021.0,1020.0,1020.0,1022.0,1024.0,1020.0,1021.0,1016.0,1020.0,1020.0,1021.0,1020.0,1020.0,1022.0,1024.0,1020.0,1022.0,1016.0,1020.0,1020.0,1020.0,1020.0,1020.0,1022.0,1024.0,1020.0,1022.0,1016.0,1020.0,1019.0,1020.0,1019.0,1020.0,1022.0,1023.0,1020.0,1021.0,1016.0,1020.0,1020.0,1020.0,1019.0,1021.0,1023.0,1024.0,1021.0,1023.0,1017.0,1020.0,1021.0,1022.0,1021.0,1023.0,1024.0,1021.0,1023.0,1017.0,1020.0,1020.0,1020.0,1022.0,1023.0,1021.0,1021.0,1016.0,1020.0,1021.0,1022.0,1024.0,1021.0,1023.0,1017.0,1020.0,1020.0,1022.0,1023.0,1021.0,1022.0,1016.0,1020.0,1020.0,1021.0,1023.0,1021.0,1022.0,1017.0,1020.0,1021.0,1023.0,1021.0,1021.0,1016.0,1021.0,1021.0,1023.0,1021.0,1022.0,1017.0,1021.0,1022.0,1024.0,1021.0,1023.0,1018.0,1020.0,1021.0,1023.0,1021.0,1022.0,1017.0,1021.0,1022.0,1024.0,1022.0,1023.0,1019.0,1021.0,1022.0,1025.0,1022.0,1026.0,1021.0,1021.0,1023.0,1026.0,1023.0,1026.0,1022.0,1021.0,1023.0,1025.0,1022.0,1025.0,1021.0,1022.0,1023.0,1027.0,1023.0,1025.0,1023.0,1022.0,1023.0,1027.0,1024.0,1026.0,1024.0,1021.0,1023.0,1026.0,1023.0,1024.0,1023.0,1022.0,1024.0,1031.0,1024.0,1028.0,1068.0,1021.0,1023.0,1028.0,1024.0,1027.0,2446,2320,1898,	00:06:33.343,-0.00927734375,0.08642578125,1.01611328125,-2.5634765625,0.54931640625,0.30517578125,4.8284912109375,0.5328369140625,28.2403564453125,663.0,-527.0,-4151.0,0.968963623046875,0.039703369140625,0.0147705078125,0.2435302734375,4.826460152507761,0.53157122265713,29.895334846111748,0.9653449614139937,0.039485658291639886,0.015338531080754543,0.25751644166183935,1,	00:06:33.344,0.0390625,0.033203125,1.01953125,0.0,0.79345703125,0.244140625,1.8731689453125,-2.1478271484375,142.2509765625,528.0,603.0,-1952.0,0.3231201171875,0.023040771484375,0.009429931640625,0.946044921875,1.8756285567463706,-2.147973024976367,143.58412730274634,0.3120783424890083,0.022915916314334244,0.00968902593798927,0.9497305363655317,1
1782115902.488140,0.080,1018.0,1020.0,1020.0,1019.0,1021.0,1021.0,1020.0,1021.0,1017.0,1020.0,1021.0,1022.0,1020.0,1021.0,1015.0,1019.0,1020.0,1022.0,1022.0,1020.0,1021.0,1016.0,1020.0,1020.0,1020.0,1021.0,1022.0,1020.0,1022.0,1016.0,1020.0,1019.0,1020.0,1020.0,1021.0,1022.0,1020.0,1021.0,1016.0,1020.0,1019.0,1020.0,1020.0,1021.0,1022.0,1021.0,1021.0,1016.0,1020.0,1019.0,1020.0,1019.0,1020.0,1021.0,1022.0,1020.0,1021.0,1015.0,1020.0,1020.0,1020.0,1020.0,1020.0,1022.0,1023.0,1021.0,1022.0,1016.0,1020.0,1020.0,1021.0,1020.0,1020.0,1022.0,1023.0,1021.0,1022.0,1016.0,1020.0,1020.0,1020.0,1020.0,1021.0,1022.0,1023.0,1021.0,1022.0,1016.0,1020.0,1020.0,1021.0,1020.0,1020.0,1022.0,1023.0,1021.0,1022.0,1016.0,1020.0,1020.0,1020.0,1019.0,1020.0,1022.0,1023.0,1020.0,1022.0,1016.0,1020.0,1020.0,1021.0,1019.0,1021.0,1023.0,1024.0,1020.0,1023.0,1017.0,1020.0,1021.0,1021.0,1021.0,1023.0,1024.0,1021.0,1023.0,1017.0,1021.0,1020.0,1020.0,1022.0,1023.0,1020.0,1021.0,1017.0,1020.0,1021.0,1022.0,1024.0,1021.0,1023.0,1017.0,1020.0,1020.0,1022.0,1023.0,1020.0,1022.0,1017.0,1020.0,1020.0,1022.0,1023.0,1020.0,1022.0,1017.0,1021.0,1022.0,1023.0,1020.0,1021.0,1016.0,1021.0,1021.0,1023.0,1021.0,1022.0,1017.0,1021.0,1022.0,1024.0,1021.0,1023.0,1018.0,1020.0,1022.0,1024.0,1021.0,1022.0,1017.0,1021.0,1022.0,1024.0,1022.0,1024.0,1019.0,1021.0,1023.0,1025.0,1022.0,1027.0,1021.0,1021.0,1024.0,1026.0,1022.0,1028.0,1021.0,1020.0,1023.0,1025.0,1022.0,1026.0,1021.0,1022.0,1023.0,1027.0,1022.0,1027.0,1023.0,1022.0,1023.0,1028.0,1023.0,1027.0,1023.0,1021.0,1023.0,1027.0,1022.0,1025.0,1023.0,1022.0,1024.0,1032.0,1024.0,1028.0,1068.0,1021.0,1024.0,1029.0,1023.0,1028.0,2445,2319,1897,	00:06:33.353,-0.00927734375,0.08447265625,1.01611328125,-2.3193359375,0.6103515625,0.30517578125,4.713134765625,0.52734375,28.2403564453125,662.0,-526.0,-4153.0,0.968994140625,0.03875732421875,0.01446533203125,0.24359130859375,4.712802092047348,0.5248878973771939,29.89805676063351,0.9653771740534702,0.038542842564871886,0.01502772209204133,0.25755684551624664,1,	00:06:33.354,0.03759765625,0.033203125,1.01904296875,0.06103515625,0.79345703125,0.244140625,1.8511962890625,-2.0489501953125,142.2509765625,525.0,609.0,-1952.0,0.3231201171875,0.02215576171875,0.009521484375,0.946044921875,1.8529809646784836,-2.0515083991333687,143.5876779655277,0.3120711841298875,0.022054589553910636,0.009765203358868012,0.949752500348769,1
1782115902.499185,0.091,1018.0,1020.0,1019.0,1019.0,1021.0,1021.0,1020.0,1022.0,1017.0,1020.0,1021.0,1021.0,1021.0,1021.0,1015.0,1019.0,1020.0,1021.0,1021.0,1021.0,1022.0,1015.0,1020.0,1020.0,1019.0,1021.0,1021.0,1020.0,1021.0,1015.0,1020.0,1020.0,1020.0,1020.0,1021.0,1022.0,1020.0,1021.0,1015.0,1019.0,1019.0,1020.0,1020.0,1021.0,1022.0,1021.0,1021.0,1015.0,1020.0,1019.0,1020.0,1019.0,1020.0,1021.0,1022.0,1020.0,1022.0,1015.0,1020.0,1020.0,1020.0,1019.0,1020.0,1022.0,1022.0,1020.0,1022.0,1015.0,1019.0,1020.0,1021.0,1020.0,1021.0,1022.0,1023.0,1020.0,1022.0,1015.0,1020.0,1020.0,1021.0,1019.0,1020.0,1023.0,1023.0,1021.0,1022.0,1015.0,1019.0,1020.0,1021.0,1020.0,1021.0,1022.0,1023.0,1020.0,1022.0,1016.0,1020.0,1020.0,1021.0,1020.0,1021.0,1022.0,1022.0,1020.0,1022.0,1016.0,1020.0,1020.0,1020.0,1020.0,1021.0,1023.0,1024.0,1020.0,1023.0,1017.0,1020.0,1021.0,1022.0,1021.0,1023.0,1023.0,1020.0,1022.0,1016.0,1020.0,1020.0,1020.0,1022.0,1023.0,1021.0,1021.0,1016.0,1019.0,1021.0,1022.0,1023.0,1021.0,1023.0,1017.0,1020.0,1020.0,1022.0,1022.0,1021.0,1022.0,1016.0,1020.0,1021.0,1022.0,1022.0,1021.0,1022.0,1016.0,1020.0,1022.0,1022.0,1021.0,1021.0,1015.0,1021.0,1022.0,1022.0,1021.0,1022.0,1017.0,1021.0,1022.0,1023.0,1021.0,1024.0,1018.0,1020.0,1022.0,1022.0,1021.0,1022.0,1017.0,1021.0,1022.0,1023.0,1021.0,1024.0,1018.0,1022.0,1023.0,1024.0,1022.0,1026.0,1020.0,1022.0,1024.0,1026.0,1023.0,1028.0,1021.0,1022.0,1023.0,1024.0,1022.0,1026.0,1021.0,1022.0,1024.0,1026.0,1023.0,1027.0,1023.0,1022.0,1024.0,1026.0,1023.0,1027.0,1024.0,1022.0,1023.0,1025.0,1022.0,1025.0,1022.0,1024.0,1024.0,1029.0,1024.0,1028.0,1067.0,1022.0,1023.0,1028.0,1023.0,1027.0,2443,2317,1898,	00:06:33.363,-0.00927734375,0.08447265625,1.0166015625,-2.3193359375,0.54931640625,0.244140625,4.779052734375,0.5218505859375,28.245849609375,666.0,-526.0,-4160.0,0.968963623046875,0.039337158203125,0.01458740234375,0.243621826171875,4.78052982018596,0.5208051225359539,29.901771422539007,0.9653456494854213,0.039122106688500996,0.015146821980303255,0.2575806894387085,1,	00:06:33.364,0.03955078125,0.03271484375,1.0185546875,0.18310546875,0.8544921875,0.244140625,1.845703125,-2.1368408203125,142.2564697265625,528.0,605.0,-1952.0,0.32305908203125,0.0228271484375,0.00921630859375,0.946044921875,1.8475907934103384,-2.1343905832488894,143.59065498125818,0.31203234513375416,0.022726467996366913,0.009495003376426912,0.9497521614366674,1
1782115902.509432,0.101,1018.0,1020.0,1019.0,1019.0,1021.0,1021.0,1020.0,1022.0,1016.0,1019.0,1021.0,1021.0,1021.0,1022.0,1015.0,1020.0,1020.0,1021.0,1021.0,1020.0,1022.0,1015.0,1019.0,1020.0,1019.0,1021.0,1021.0,1020.0,1021.0,1015.0,1019.0,1019.0,1019.0,1020.0,1021.0,1022.0,1020.0,1022.0,1015.0,1019.0,1020.0,1020.0,1020.0,1021.0,1021.0,1021.0,1022.0,1014.0,1020.0,1019.0,1020.0,1019.0,1020.0,1021.0,1021.0,1021.0,1022.0,1016.0,1019.0,1020.0,1020.0,1020.0,1020.0,1021.0,1021.0,1020.0,1022.0,1016.0,1020.0,1021.0,1021.0,1020.0,1020.0,1022.0,1021.0,1020.0,1022.0,1016.0,1020.0,1020.0,1021.0,1020.0,1020.0,1022.0,1021.0,1021.0,1022.0,1016.0,1019.0,1020.0,1021.0,1020.0,1021.0,1023.0,1022.0,1021.0,1022.0,1015.0,1019.0,1020.0,1021.0,1019.0,1021.0,1022.0,1022.0,1021.0,1022.0,1015.0,1019.0,1020.0,1021.0,1020.0,1022.0,1023.0,1022.0,1021.0,1023.0,1016.0,1020.0,1021.0,1022.0,1022.0,1022.0,1023.0,1020.0,1023.0,1016.0,1020.0,1020.0,1021.0,1022.0,1022.0,1021.0,1022.0,1016.0,1020.0,1021.0,1023.0,1023.0,1021.0,1023.0,1017.0,1020.0,1021.0,1022.0,1022.0,1021.0,1022.0,1016.0,1019.0,1021.0,1021.0,1022.0,1021.0,1021.0,1016.0,1021.0,1022.0,1022.0,1020.0,1021.0,1015.0,1022.0,1022.0,1022.0,1021.0,1023.0,1016.0,1022.0,1022.0,1023.0,1022.0,1023.0,1017.0,1022.0,1021.0,1022.0,1021.0,1022.0,1016.0,1023.0,1022.0,1023.0,1022.0,1024.0,1018.0,1022.0,1023.0,1024.0,1023.0,1026.0,1019.0,1022.0,1024.0,1025.0,1023.0,1027.0,1021.0,1022.0,1024.0,1025.0,1023.0,1027.0,1021.0,1023.0,1024.0,1026.0,1023.0,1026.0,1022.0,1023.0,1025.0,1027.0,1024.0,1027.0,1023.0,1022.0,1023.0,1026.0,1022.0,1025.0,1022.0,1023.0,1024.0,1031.0,1023.0,1028.0,1067.0,1023.0,1024.0,1028.0,1022.0,1027.0,2442,2315,1898,	00:06:33.374,-0.0087890625,0.083984375,1.0166015625,-2.3193359375,0.54931640625,0.30517578125,4.6746826171875,0.4888916015625,28.2513427734375,659.0,-525.0,-4156.0,0.968994140625,0.03851318359375,0.014068603515625,0.24365234375,4.674618518271412,0.48722193285253246,29.904549611541178,0.9653733108727883,0.03830511054143403,0.014626779558079062,0.25762986333241467,1,	00:06:33.375,0.0390625,0.03271484375,1.0185546875,0.30517578125,0.79345703125,0.244140625,1.8402099609375,-2.21923828125,142.2564697265625,527.0,607.0,-1950.0,0.323028564453125,0.02349853515625,0.0089111328125,0.946044921875,1.8386558193325484,-2.217387715261234,143.59380188769836,0.31199270129772516,0.023389637578740647,0.009195175464986974,0.9497520349749463,1
1782115902.519309,0.111,1018.0,1020.0,1019.0,1019.0,1021.0,1021.0,1020.0,1022.0,1015.0,1020.0,1021.0,1021.0,1020.0,1022.0,1015.0,1020.0,1020.0,1021.0,1021.0,1021.0,1022.0,1015.0,1020.0,1020.0,1020.0,1021.0,1021.0,1020.0,1022.0,1015.0,1020.0,1020.0,1020.0,1020.0,1021.0,1021.0,1020.0,1022.0,1015.0,1019.0,1020.0,1020.0,1020.0,1021.0,1021.0,1021.0,1022.0,1015.0,1019.0,1020.0,1020.0,1019.0,1020.0,1022.0,1021.0,1021.0,1022.0,1015.0,1019.0,1020.0,1020.0,1019.0,1020.0,1022.0,1022.0,1021.0,1022.0,1015.0,1020.0,1020.0,1021.0,1020.0,1020.0,1022.0,1022.0,1020.0,1022.0,1015.0,1020.0,1020.0,1021.0,1020.0,1020.0,1022.0,1022.0,1020.0,1022.0,1015.0,1020.0,1020.0,1021.0,1020.0,1020.0,1022.0,1022.0,1021.0,1022.0,1016.0,1020.0,1020.0,1021.0,1019.0,1020.0,1022.0,1022.0,1021.0,1022.0,1016.0,1020.0,1020.0,1021.0,1020.0,1021.0,1023.0,1022.0,1021.0,1024.0,1016.0,1020.0,1021.0,1022.0,1021.0,1023.0,1023.0,1022.0,1023.0,1016.0,1019.0,1020.0,1020.0,1022.0,1023.0,1021.0,1022.0,1016.0,1019.0,1021.0,1022.0,1023.0,1020.0,1023.0,1017.0,1020.0,1020.0,1022.0,1022.0,1021.0,1022.0,1017.0,1020.0,1020.0,1022.0,1022.0,1020.0,1022.0,1016.0,1020.0,1021.0,1022.0,1020.0,1021.0,1015.0,1021.0,1022.0,1022.0,1021.0,1022.0,1016.0,1021.0,1022.0,1023.0,1022.0,1023.0,1017.0,1020.0,1022.0,1022.0,1021.0,1023.0,1016.0,1021.0,1023.0,1023.0,1022.0,1024.0,1018.0,1021.0,1024.0,1024.0,1023.0,1026.0,1019.0,1022.0,1024.0,1025.0,1023.0,1027.0,1020.0,1021.0,1024.0,1025.0,1023.0,1026.0,1020.0,1022.0,1025.0,1027.0,1023.0,1026.0,1022.0,1022.0,1025.0,1027.0,1023.0,1026.0,1023.0,1021.0,1024.0,1025.0,1022.0,1024.0,1022.0,1024.0,1025.0,1031.0,1024.0,1027.0,1068.0,1022.0,1024.0,1031.0,1023.0,1026.0,2441,2314,1898,	00:06:33.384,-0.0087890625,0.083984375,1.0166015625,-2.197265625,0.54931640625,0.244140625,4.7406005859375,0.50537109375,28.2513427734375,668.0,-525.0,-4163.0,0.968963623046875,0.0390625,0.014373779296875,0.243682861328125,4.743227327021268,0.5046322058510455,29.908210953939548,0.9653429594415823,0.03884342629256031,0.014928922290651693,0.25764566010251666,1,	00:06:33.385,0.0400390625,0.03271484375,1.0185546875,0.3662109375,0.79345703125,0.244140625,1.845703125,-2.3016357421875,142.261962890625,529.0,603.0,-1950.0,0.322998046875,0.024200439453125,0.00872802734375,0.946044921875,1.844990069438059,-2.301092316829844,143.59638649943207,0.31195431887167496,0.024100287501398556,0.009019886090795863,0.9497485565846197,1
1782115902.529381,0.121,1018.0,1021.0,1019.0,1019.0,1021.0,1022.0,1020.0,1021.0,1015.0,1019.0,1021.0,1021.0,1020.0,1021.0,1015.0,1019.0,1019.0,1022.0,1022.0,1020.0,1021.0,1015.0,1020.0,1020.0,1019.0,1022.0,1021.0,1020.0,1021.0,1015.0,1020.0,1019.0,1020.0,1020.0,1022.0,1022.0,1020.0,1022.0,1014.0,1020.0,1020.0,1020.0,1019.0,1022.0,1021.0,1020.0,1021.0,1015.0,1019.0,1020.0,1021.0,1020.0,1020.0,1022.0,1022.0,1020.0,1022.0,1015.0,1019.0,1019.0,1020.0,1019.0,1020.0,1022.0,1022.0,1021.0,1022.0,1015.0,1019.0,1020.0,1021.0,1020.0,1020.0,1023.0,1022.0,1020.0,1022.0,1015.0,1019.0,1020.0,1021.0,1020.0,1020.0,1023.0,1023.0,1020.0,1022.0,1015.0,1020.0,1021.0,1021.0,1020.0,1020.0,1023.0,1022.0,1020.0,1022.0,1015.0,1020.0,1020.0,1020.0,1019.0,1021.0,1023.0,1022.0,1021.0,1022.0,1015.0,1019.0,1020.0,1021.0,1020.0,1021.0,1024.0,1023.0,1021.0,1023.0,1016.0,1019.0,1021.0,1021.0,1021.0,1024.0,1024.0,1021.0,1023.0,1016.0,1020.0,1020.0,1020.0,1023.0,1023.0,1020.0,1022.0,1016.0,1019.0,1020.0,1024.0,1023.0,1022.0,1024.0,1016.0,1020.0,1020.0,1022.0,1023.0,1020.0,1023.0,1016.0,1020.0,1020.0,1023.0,1022.0,1020.0,1022.0,1016.0,1021.0,1022.0,1022.0,1020.0,1020.0,1015.0,1021.0,1023.0,1023.0,1021.0,1022.0,1016.0,1020.0,1023.0,1023.0,1022.0,1023.0,1017.0,1020.0,1023.0,1023.0,1021.0,1022.0,1016.0,1020.0,1024.0,1024.0,1022.0,1024.0,1017.0,1021.0,1024.0,1024.0,1022.0,1025.0,1019.0,1021.0,1025.0,1025.0,1024.0,1027.0,1020.0,1021.0,1025.0,1025.0,1022.0,1027.0,1020.0,1022.0,1026.0,1025.0,1022.0,1026.0,1022.0,1022.0,1026.0,1027.0,1023.0,1028.0,1024.0,1021.0,1024.0,1024.0,1022.0,1026.0,1023.0,1023.0,1026.0,1029.0,1024.0,1029.0,1069.0,1021.0,1025.0,1027.0,1024.0,1028.0,2440,2312,1898,	00:06:33.394,-0.009765625,0.083984375,1.01611328125,-2.13623046875,0.54931640625,0.244140625,4.6856689453125,0.59326171875,28.2568359375,658.0,-521.0,-4161.0,0.968994140625,0.03839111328125,0.0150146484375,0.243682861328125,4.68675032190069,0.5945511830776178,29.910744593266497,0.9653609363344623,0.038164840796903035,0.015560215816487517,0.2576423629959589,1,	00:06:33.395,0.03955078125,0.03271484375,1.01904296875,0.3662109375,0.9765625,0.30517578125,1.8402099609375,-2.2027587890625,142.2674560546875,525.0,610.0,-1950.0,0.322998046875,0.023345947265625,0.009002685546875,0.946075439453125,1.841377442109627,-2.2001144806437263,143.60003739727696,0.31194367220754776,0.023253409303964533,0.009266115853358278,0.9497707952039821,1
1782115902.540436,0.132,1018.0,1019.0,1019.0,1019.0,1021.0,1021.0,1020.0,1021.0,1015.0,1019.0,1021.0,1021.0,1020.0,1022.0,1015.0,1019.0,1020.0,1021.0,1021.0,1021.0,1022.0,1015.0,1020.0,1020.0,1020.0,1021.0,1023.0,1021.0,1021.0,1014.0,1019.0,1020.0,1020.0,1020.0,1020.0,1024.0,1020.0,1021.0,1015.0,1019.0,1019.0,1020.0,1020.0,1021.0,1024.0,1020.0,1021.0,1014.0,1020.0,1019.0,1020.0,1019.0,1020.0,1021.0,1024.0,1020.0,1022.0,1014.0,1020.0,1020.0,1020.0,1020.0,1021.0,1021.0,1023.0,1020.0,1023.0,1015.0,1020.0,1020.0,1021.0,1020.0,1020.0,1021.0,1023.0,1020.0,1023.0,1016.0,1020.0,1020.0,1021.0,1019.0,1020.0,1021.0,1023.0,1021.0,1023.0,1016.0,1020.0,1021.0,1021.0,1020.0,1021.0,1021.0,1023.0,1020.0,1022.0,1016.0,1020.0,1020.0,1021.0,1019.0,1021.0,1022.0,1023.0,1021.0,1022.0,1015.0,1020.0,1020.0,1021.0,1019.0,1021.0,1022.0,1024.0,1021.0,1023.0,1016.0,1020.0,1021.0,1022.0,1021.0,1021.0,1024.0,1021.0,1023.0,1017.0,1019.0,1021.0,1020.0,1021.0,1024.0,1020.0,1022.0,1015.0,1019.0,1020.0,1021.0,1024.0,1021.0,1023.0,1016.0,1020.0,1020.0,1021.0,1024.0,1021.0,1022.0,1016.0,1019.0,1020.0,1020.0,1023.0,1020.0,1022.0,1015.0,1021.0,1020.0,1023.0,1021.0,1021.0,1015.0,1021.0,1021.0,1024.0,1020.0,1023.0,1017.0,1021.0,1020.0,1024.0,1021.0,1023.0,1017.0,1020.0,1020.0,1024.0,1021.0,1023.0,1017.0,1021.0,1021.0,1025.0,1022.0,1025.0,1018.0,1021.0,1021.0,1025.0,1022.0,1026.0,1019.0,1023.0,1022.0,1027.0,1023.0,1027.0,1021.0,1022.0,1022.0,1026.0,1022.0,1028.0,1020.0,1023.0,1022.0,1027.0,1023.0,1029.0,1022.0,1023.0,1023.0,1029.0,1023.0,1028.0,1023.0,1022.0,1022.0,1027.0,1022.0,1026.0,1021.0,1024.0,1024.0,1030.0,1023.0,1030.0,1068.0,1022.0,1022.0,1029.0,1024.0,1029.0,2439,2310,1898,	00:06:33.404,-0.01025390625,0.08447265625,1.01513671875,-2.01416015625,0.42724609375,0.30517578125,4.757080078125,0.5767822265625,28.2623291015625,668.0,-525.0,-4164.0,0.968963623046875,0.03900146484375,0.014984130859375,0.24371337890625,4.75522766889981,0.5760243122508892,29.9150433395054,0.9653273580667172,0.03878284852015442,0.015559573605823756,0.2576759245599011,1,	00:06:33.405,0.03857421875,0.0341796875,1.0205078125,0.42724609375,1.03759765625,0.30517578125,1.9281005859375,-2.1478271484375,142.2674560546875,528.0,603.0,-1950.0,0.322967529296875,0.023193359375,0.009857177734375,0.946075439453125,1.9283257516060175,-2.1504014879145115,143.600282238677,0.31193341437098615,0.023078125203973763,0.010122404741098667,0.9497696994841357,1
1782115902.551801,0.144,1018.0,1022.0,1020.0,1019.0,1019.0,1023.0,1020.0,1021.0,1016.0,1020.0,1019.0,1023.0,1021.0,1021.0,1016.0,1019.0,1020.0,1019.0,1023.0,1021.0,1021.0,1015.0,1019.0,1020.0,1019.0,1018.0,1023.0,1021.0,1021.0,1015.0,1020.0,1020.0,1019.0,1020.0,1019.0,1023.0,1021.0,1022.0,1015.0,1020.0,1020.0,1020.0,1020.0,1019.0,1023.0,1021.0,1022.0,1015.0,1019.0,1020.0,1020.0,1020.0,1020.0,1019.0,1024.0,1020.0,1022.0,1015.0,1019.0,1019.0,1020.0,1019.0,1020.0,1020.0,1024.0,1021.0,1022.0,1015.0,1020.0,1020.0,1021.0,1020.0,1020.0,1020.0,1024.0,1021.0,1021.0,1015.0,1019.0,1020.0,1021.0,1019.0,1020.0,1020.0,1025.0,1020.0,1022.0,1016.0,1020.0,1020.0,1021.0,1021.0,1020.0,1020.0,1024.0,1021.0,1021.0,1015.0,1020.0,1020.0,1021.0,1020.0,1021.0,1020.0,1024.0,1021.0,1022.0,1015.0,1020.0,1020.0,1021.0,1019.0,1021.0,1021.0,1024.0,1021.0,1023.0,1016.0,1019.0,1021.0,1021.0,1021.0,1021.0,1024.0,1021.0,1023.0,1016.0,1019.0,1020.0,1021.0,1020.0,1024.0,1021.0,1022.0,1016.0,1020.0,1022.0,1020.0,1025.0,1022.0,1023.0,1016.0,1020.0,1021.0,1020.0,1024.0,1021.0,1022.0,1016.0,1019.0,1021.0,1020.0,1024.0,1020.0,1022.0,1015.0,1021.0,1019.0,1024.0,1021.0,1021.0,1016.0,1021.0,1020.0,1024.0,1021.0,1022.0,1016.0,1021.0,1020.0,1025.0,1021.0,1023.0,1017.0,1021.0,1020.0,1024.0,1021.0,1022.0,1015.0,1021.0,1021.0,1025.0,1022.0,1024.0,1017.0,1022.0,1022.0,1026.0,1023.0,1025.0,1019.0,1022.0,1022.0,1028.0,1024.0,1026.0,1020.0,1022.0,1022.0,1028.0,1024.0,1026.0,1021.0,1023.0,1023.0,1029.0,1024.0,1025.0,1022.0,1022.0,1023.0,1029.0,1024.0,1025.0,1024.0,1021.0,1022.0,1028.0,1023.0,1024.0,1022.0,1024.0,1024.0,1032.0,1024.0,1028.0,1069.0,1023.0,1023.0,1030.0,1025.0,1028.0,2437,2309,1897,	00:06:33.414,-0.0087890625,0.08544921875,1.015625,-1.64794921875,0.48828125,0.244140625,4.7900390625,0.50537109375,28.2623291015625,657.0,-524.0,-4163.0,0.96893310546875,0.0394287109375,0.01446533203125,0.243743896484375,4.789182145415549,0.5041936154851969,29.918366637824548,0.965304442243459,0.03923021143579884,0.015032027584860858,0.2577253624353549,1,	00:06:33.416,0.0390625,0.03515625,1.02197265625,0.3662109375,1.03759765625,0.3662109375,1.99951171875,-2.2027587890625,142.2674560546875,526.0,608.0,-1951.0,0.32293701171875,0.0238037109375,0.01031494140625,0.946075439453125,2.0002945718031775,-2.2010045822647513,143.60169361277087,0.31189722167911876,0.023693217302047712,0.010581176249763074,0.9497614401900596,1
1782115902.562655,0.155,1018.0,1023.0,1020.0,1020.0,1018.0,1025.0,1020.0,1022.0,1015.0,1020.0,1019.0,1024.0,1020.0,1021.0,1015.0,1020.0,1020.0,1019.0,1024.0,1021.0,1021.0,1014.0,1020.0,1020.0,1020.0,1019.0,1024.0,1020.0,1021.0,1015.0,1019.0,1019.0,1020.0,1020.0,1019.0,1024.0,1020.0,1021.0,1014.0,1020.0,1019.0,1020.0,1020.0,1019.0,1024.0,1021.0,1021.0,1013.0,1019.0,1019.0,1020.0,1019.0,1020.0,1019.0,1024.0,1021.0,1021.0,1015.0,1019.0,1020.0,1020.0,1019.0,1021.0,1019.0,1025.0,1021.0,1022.0,1015.0,1020.0,1020.0,1021.0,1020.0,1020.0,1020.0,1025.0,1021.0,1022.0,1015.0,1020.0,1020.0,1021.0,1020.0,1021.0,1020.0,1025.0,1020.0,1022.0,1015.0,1020.0,1020.0,1021.0,1020.0,1020.0,1020.0,1025.0,1021.0,1022.0,1015.0,1020.0,1020.0,1020.0,1020.0,1021.0,1020.0,1025.0,1020.0,1022.0,1015.0,1019.0,1020.0,1020.0,1019.0,1021.0,1021.0,1026.0,1021.0,1023.0,1016.0,1020.0,1021.0,1021.0,1021.0,1021.0,1026.0,1021.0,1022.0,1016.0,1020.0,1020.0,1020.0,1021.0,1026.0,1021.0,1022.0,1016.0,1019.0,1021.0,1020.0,1026.0,1021.0,1022.0,1016.0,1020.0,1021.0,1019.0,1026.0,1021.0,1021.0,1017.0,1019.0,1021.0,1019.0,1025.0,1021.0,1021.0,1016.0,1020.0,1020.0,1025.0,1021.0,1021.0,1015.0,1021.0,1019.0,1025.0,1021.0,1022.0,1016.0,1021.0,1020.0,1026.0,1021.0,1022.0,1017.0,1021.0,1019.0,1025.0,1021.0,1022.0,1016.0,1022.0,1020.0,1027.0,1021.0,1023.0,1018.0,1022.0,1021.0,1028.0,1023.0,1025.0,1020.0,1023.0,1022.0,1028.0,1023.0,1026.0,1021.0,1023.0,1022.0,1028.0,1022.0,1026.0,1021.0,1024.0,1022.0,1029.0,1023.0,1026.0,1022.0,1024.0,1023.0,1029.0,1024.0,1026.0,1023.0,1024.0,1022.0,1029.0,1023.0,1025.0,1022.0,1026.0,1023.0,1033.0,1024.0,1028.0,1070.0,1024.0,1023.0,1030.0,1024.0,1027.0,2436,2307,1898,	00:06:33.425,-0.009765625,0.08447265625,1.01611328125,-1.40380859375,0.6103515625,0.244140625,4.7186279296875,0.582275390625,28.267822265625,663.0,-520.0,-4169.0,0.968963623046875,0.038665771484375,0.01495361328125,0.243743896484375,4.716724674154408,0.5805775168616978,29.92074672988199,0.9653277368466071,0.03844746766265958,0.015513259482266664,0.2577275528250176,1,	00:06:33.426,0.0390625,0.03564453125,1.0205078125,0.18310546875,1.15966796875,0.30517578125,2.0050048828125,-2.098388671875,142.27294921875,528.0,605.0,-1949.0,0.32293701171875,0.022979736328125,0.0106201171875,0.946075439453125,2.003176376782386,-2.0979186964422545,143.60510808308666,0.31188853017090723,0.022846516321912484,0.01088689191721095,0.94978158385187,1
1782115902.571372,0.163,1019.0,1022.0,1019.0,1019.0,1019.0,1024.0,1020.0,1021.0,1015.0,1020.0,1019.0,1024.0,1020.0,1021.0,1015.0,1020.0,1020.0,1019.0,1024.0,1020.0,1021.0,1014.0,1020.0,1019.0,1020.0,1020.0,1024.0,1020.0,1021.0,1014.0,1020.0,1019.0,1020.0,1021.0,1019.0,1024.0,1020.0,1021.0,1015.0,1020.0,1020.0,1020.0,1021.0,1019.0,1024.0,1021.0,1021.0,1015.0,1019.0,1019.0,1020.0,1019.0,1021.0,1019.0,1024.0,1020.0,1021.0,1015.0,1020.0,1019.0,1020.0,1019.0,1021.0,1020.0,1024.0,1020.0,1022.0,1015.0,1020.0,1020.0,1021.0,1020.0,1021.0,1019.0,1024.0,1020.0,1022.0,1015.0,1020.0,1021.0,1021.0,1020.0,1021.0,1020.0,1024.0,1020.0,1021.0,1015.0,1020.0,1020.0,1020.0,1020.0,1022.0,1020.0,1025.0,1021.0,1021.0,1015.0,1019.0,1020.0,1020.0,1019.0,1021.0,1020.0,1025.0,1020.0,1022.0,1015.0,1019.0,1020.0,1021.0,1019.0,1022.0,1021.0,1025.0,1021.0,1023.0,1015.0,1020.0,1021.0,1021.0,1021.0,1021.0,1026.0,1021.0,1022.0,1015.0,1020.0,1020.0,1021.0,1021.0,1025.0,1021.0,1021.0,1016.0,1019.0,1022.0,1020.0,1025.0,1021.0,1022.0,1016.0,1020.0,1021.0,1020.0,1025.0,1021.0,1022.0,1015.0,1019.0,1021.0,1020.0,1025.0,1021.0,1021.0,1015.0,1021.0,1020.0,1025.0,1021.0,1021.0,1015.0,1021.0,1020.0,1025.0,1021.0,1021.0,1016.0,1022.0,1020.0,1025.0,1021.0,1022.0,1016.0,1021.0,1020.0,1025.0,1021.0,1022.0,1016.0,1022.0,1021.0,1027.0,1022.0,1023.0,1018.0,1023.0,1022.0,1027.0,1023.0,1024.0,1020.0,1023.0,1022.0,1028.0,1023.0,1025.0,1021.0,1023.0,1022.0,1029.0,1023.0,1025.0,1021.0,1024.0,1023.0,1029.0,1024.0,1025.0,1023.0,1024.0,1023.0,1030.0,1024.0,1026.0,1024.0,1022.0,1022.0,1029.0,1023.0,1024.0,1022.0,1025.0,1024.0,1032.0,1024.0,1027.0,1071.0,1023.0,1022.0,1031.0,1024.0,1026.0,2435,2306,1897,	00:06:33.435,-0.01025390625,0.08251953125,1.015625,-1.220703125,0.54931640625,0.244140625,4.6142578125,0.582275390625,28.267822265625,657.0,-523.0,-4164.0,0.968994140625,0.03778076171875,0.014739990234375,0.2437744140625,4.613317984181485,0.5807226131867751,29.92270737748405,0.9653576354478791,0.037575758221673625,0.015282546633298932,0.25775791325378783,1,	00:06:33.436,0.0390625,0.03271484375,1.02001953125,0.06103515625,1.0986328125,0.3662109375,1.922607421875,-2.13134765625,142.2784423828125,525.0,605.0,-1949.0,0.3228759765625,0.023040771484375,0.009857177734375,0.94610595703125,1.9238270099001764,-2.1322504250143948,143.61210018590563,0.31183981747885825,0.022914422986093762,0.01013698545562644,0.9498042424520113,1
1782115902.581495,0.173,1018.0,1023.0,1020.0,1020.0,1018.0,1024.0,1021.0,1022.0,1015.0,1020.0,1018.0,1024.0,1020.0,1021.0,1014.0,1019.0,1020.0,1019.0,1024.0,1020.0,1021.0,1014.0,1019.0,1020.0,1020.0,1019.0,1024.0,1020.0,1021.0,1014.0,1020.0,1019.0,1020.0,1021.0,1018.0,1024.0,1020.0,1022.0,1015.0,1019.0,1019.0,1020.0,1021.0,1019.0,1024.0,1021.0,1021.0,1014.0,1019.0,1019.0,1020.0,1019.0,1020.0,1019.0,1025.0,1020.0,1021.0,1014.0,1020.0,1020.0,1020.0,1020.0,1021.0,1020.0,1025.0,1021.0,1022.0,1015.0,1020.0,1020.0,1021.0,1020.0,1020.0,1020.0,1025.0,1021.0,1021.0,1015.0,1019.0,1020.0,1021.0,1020.0,1020.0,1020.0,1026.0,1021.0,1022.0,1015.0,1020.0,1020.0,1021.0,1020.0,1021.0,1020.0,1025.0,1021.0,1021.0,1015.0,1020.0,1020.0,1020.0,1019.0,1021.0,1020.0,1026.0,1020.0,1022.0,1015.0,1020.0,1019.0,1021.0,1020.0,1022.0,1020.0,1026.0,1020.0,1023.0,1016.0,1020.0,1020.0,1022.0,1021.0,1020.0,1026.0,1021.0,1023.0,1016.0,1019.0,1020.0,1021.0,1020.0,1025.0,1021.0,1021.0,1015.0,1019.0,1021.0,1020.0,1026.0,1021.0,1023.0,1016.0,1020.0,1021.0,1020.0,1025.0,1021.0,1022.0,1016.0,1019.0,1021.0,1020.0,1025.0,1021.0,1022.0,1016.0,1021.0,1020.0,1025.0,1020.0,1021.0,1015.0,1021.0,1020.0,1025.0,1021.0,1022.0,1016.0,1021.0,1020.0,1025.0,1022.0,1023.0,1017.0,1021.0,1020.0,1025.0,1021.0,1022.0,1016.0,1022.0,1021.0,1026.0,1022.0,1023.0,1017.0,1022.0,1021.0,1027.0,1023.0,1025.0,1019.0,1023.0,1023.0,1028.0,1024.0,1026.0,1021.0,1022.0,1023.0,1028.0,1023.0,1025.0,1021.0,1024.0,1023.0,1030.0,1024.0,1025.0,1023.0,1023.0,1024.0,1031.0,1025.0,1026.0,1024.0,1022.0,1022.0,1030.0,1022.0,1024.0,1022.0,1024.0,1025.0,1034.0,1025.0,1027.0,1072.0,1023.0,1023.0,1032.0,1024.0,1027.0,2434,2304,1898,	00:06:33.445,-0.0087890625,0.08349609375,1.01611328125,-1.15966796875,0.54931640625,0.244140625,4.6636962890625,0.5218505859375,28.2733154296875,666.0,-526.0,-4168.0,0.968963623046875,0.038360595703125,0.01434326171875,0.24383544921875,4.6655142968109615,0.5202900439608779,29.926201467051204,0.965329463163581,0.03815115538849443,0.014892075698344547,0.2578017512978339,1,	00:06:33.446,0.03759765625,0.033203125,1.017578125,0.1220703125,1.0986328125,0.3662109375,1.8402099609375,-2.0928955078125,142.283935546875,529.0,603.0,-1949.0,0.322845458984375,0.0224609375,0.00927734375,0.946136474609375,1.8375103317657147,-2.0937778009914187,143.6193543764583,0.31180390696786126,0.022360092852922862,0.009527844968038412,0.9498355489333146,1
1782115902.591155,0.183,1017.0,1023.0,1020.0,1019.0,1018.0,1025.0,1020.0,1021.0,1016.0,1019.0,1019.0,1024.0,1020.0,1021.0,1015.0,1020.0,1020.0,1019.0,1025.0,1020.0,1021.0,1014.0,1020.0,1020.0,1020.0,1019.0,1025.0,1020.0,1021.0,1015.0,1019.0,1019.0,1020.0,1020.0,1019.0,1025.0,1020.0,1021.0,1014.0,1019.0,1019.0,1020.0,1020.0,1019.0,1024.0,1021.0,1021.0,1014.0,1020.0,1019.0,1019.0,1019.0,1021.0,1019.0,1025.0,1021.0,1021.0,1014.0,1019.0,1019.0,1020.0,1020.0,1020.0,1020.0,1025.0,1021.0,1022.0,1014.0,1020.0,1020.0,1020.0,1020.0,1021.0,1020.0,1025.0,1020.0,1021.0,1015.0,1020.0,1020.0,1021.0,1020.0,1020.0,1020.0,1026.0,1021.0,1021.0,1014.0,1019.0,1021.0,1021.0,1020.0,1020.0,1020.0,1025.0,1021.0,1021.0,1015.0,1020.0,1019.0,1020.0,1020.0,1021.0,1020.0,1026.0,1020.0,1021.0,1015.0,1019.0,1020.0,1020.0,1020.0,1022.0,1021.0,1026.0,1021.0,1023.0,1015.0,1019.0,1021.0,1021.0,1023.0,1021.0,1026.0,1021.0,1023.0,1016.0,1020.0,1020.0,1022.0,1020.0,1026.0,1020.0,1021.0,1015.0,1020.0,1021.0,1020.0,1026.0,1021.0,1022.0,1015.0,1020.0,1021.0,1021.0,1026.0,1021.0,1021.0,1015.0,1019.0,1021.0,1020.0,1026.0,1021.0,1021.0,1015.0,1020.0,1020.0,1025.0,1020.0,1020.0,1015.0,1021.0,1019.0,1026.0,1021.0,1022.0,1016.0,1021.0,1021.0,1027.0,1021.0,1022.0,1016.0,1020.0,1019.0,1026.0,1021.0,1021.0,1015.0,1022.0,1021.0,1027.0,1022.0,1023.0,1017.0,1022.0,1022.0,1028.0,1022.0,1025.0,1020.0,1022.0,1023.0,1029.0,1023.0,1026.0,1021.0,1022.0,1022.0,1029.0,1023.0,1025.0,1020.0,1023.0,1024.0,1030.0,1022.0,1025.0,1022.0,1023.0,1024.0,1031.0,1024.0,1025.0,1023.0,1023.0,1023.0,1030.0,1022.0,1024.0,1021.0,1024.0,1024.0,1034.0,1024.0,1028.0,1071.0,1022.0,1024.0,1033.0,1025.0,1026.0,2434,2302,1897,	00:06:33.455,-0.0087890625,0.08251953125,1.0166015625,-1.15966796875,0.48828125,0.30517578125,4.59228515625,0.4559326171875,28.2733154296875,656.0,-521.0,-4165.0,0.968963623046875,0.037872314453125,0.013671875,0.243896484375,4.5914101986642795,0.45811316692149706,29.929112907292758,0.9653440060745908,0.03766659956015868,0.014202566308966517,0.25785744961833923,1,	00:06:33.456,0.0380859375,0.0341796875,1.01708984375,0.1220703125,0.91552734375,0.3662109375,1.9171142578125,-2.13134765625,142.283935546875,527.0,608.0,-1953.0,0.32281494140625,0.02301025390625,0.00982666015625,0.946136474609375,1.918261765250561,-2.129979543961537,143.62037421697323,0.3117727790605384,0.02287973046116724,0.010098700903955968,0.9498274940277026,1
1782115902.602416,0.194,1018.0,1024.0,1020.0,1019.0,1019.0,1025.0,1021.0,1021.0,1015.0,1019.0,1019.0,1024.0,1020.0,1021.0,1014.0,1020.0,1020.0,1019.0,1025.0,1020.0,1021.0,1014.0,1019.0,1020.0,1019.0,1019.0,1025.0,1020.0,1021.0,1014.0,1019.0,1020.0,1020.0,1020.0,1019.0,1024.0,1021.0,1022.0,1014.0,1019.0,1020.0,1019.0,1020.0,1020.0,1025.0,1020.0,1021.0,1014.0,1019.0,1020.0,1020.0,1019.0,1021.0,1019.0,1025.0,1020.0,1021.0,1014.0,1020.0,1020.0,1020.0,1020.0,1021.0,1019.0,1025.0,1021.0,1021.0,1014.0,1019.0,1020.0,1021.0,1020.0,1021.0,1020.0,1025.0,1021.0,1021.0,1015.0,1020.0,1020.0,1021.0,1020.0,1022.0,1020.0,1025.0,1020.0,1022.0,1015.0,1020.0,1020.0,1021.0,1020.0,1021.0,1020.0,1025.0,1020.0,1021.0,1014.0,1020.0,1019.0,1021.0,1019.0,1022.0,1020.0,1025.0,1020.0,1022.0,1014.0,1020.0,1020.0,1021.0,1019.0,1022.0,1021.0,1025.0,1021.0,1023.0,1014.0,1020.0,1021.0,1021.0,1021.0,1021.0,1025.0,1021.0,1023.0,1016.0,1020.0,1020.0,1020.0,1020.0,1025.0,1021.0,1022.0,1015.0,1019.0,1022.0,1019.0,1026.0,1021.0,1023.0,1016.0,1020.0,1021.0,1020.0,1025.0,1021.0,1021.0,1015.0,1020.0,1021.0,1020.0,1025.0,1021.0,1021.0,1015.0,1021.0,1019.0,1025.0,1020.0,1020.0,1014.0,1022.0,1020.0,1026.0,1021.0,1022.0,1015.0,1022.0,1020.0,1026.0,1021.0,1023.0,1017.0,1021.0,1020.0,1026.0,1021.0,1022.0,1016.0,1022.0,1021.0,1027.0,1022.0,1023.0,1017.0,1023.0,1022.0,1028.0,1024.0,1026.0,1019.0,1022.0,1023.0,1029.0,1024.0,1026.0,1020.0,1022.0,1023.0,1029.0,1023.0,1026.0,1020.0,1023.0,1023.0,1030.0,1024.0,1026.0,1022.0,1025.0,1024.0,1030.0,1025.0,1026.0,1023.0,1023.0,1022.0,1030.0,1023.0,1024.0,1021.0,1025.0,1024.0,1034.0,1026.0,1028.0,1072.0,1023.0,1023.0,1032.0,1025.0,1027.0,2433,2301,1898,	00:06:33.466,-0.00927734375,0.08154296875,1.01611328125,-1.15966796875,0.42724609375,0.244140625,4.5758056640625,0.5548095703125,28.27880859375,665.0,-522.0,-4168.0,0.968963623046875,0.03753662109375,0.014434814453125,0.243865966796875,4.575119830528893,0.5537276419884949,29.931837269052487,0.9653482648858712,0.0373135830466816,0.014972203827404494,0.2578492914758677,1,	00:06:33.467,0.037109375,0.0341796875,1.0185546875,0.1220703125,0.79345703125,0.3662109375,1.9281005859375,-2.032470703125,142.2894287109375,530.0,605.0,-1950.0,0.32281494140625,0.022216796875,0.01019287109375,0.946136474609375,1.9269032112173243,-2.0308623977736517,143.62402893575535,0.3117594750770315,0.02208150636669114,0.010441211789574746,0.9498470497257108,1
1782115902.612412,0.204,1018.0,1023.0,1020.0,1019.0,1017.0,1025.0,1021.0,1021.0,1015.0,1020.0,1018.0,1024.0,1021.0,1021.0,1014.0,1019.0,1021.0,1018.0,1025.0,1021.0,1021.0,1015.0,1020.0,1020.0,1019.0,1018.0,1024.0,1020.0,1021.0,1014.0,1020.0,1020.0,1020.0,1020.0,1018.0,1025.0,1021.0,1022.0,1014.0,1020.0,1019.0,1020.0,1021.0,1018.0,1024.0,1020.0,1021.0,1014.0,1019.0,1019.0,1020.0,1019.0,1021.0,1018.0,1025.0,1021.0,1021.0,1014.0,1019.0,1019.0,1020.0,1020.0,1021.0,1020.0,1026.0,1021.0,1022.0,1014.0,1020.0,1021.0,1021.0,1020.0,1020.0,1019.0,1026.0,1021.0,1022.0,1015.0,1020.0,1020.0,1021.0,1021.0,1021.0,1020.0,1025.0,1021.0,1022.0,1015.0,1020.0,1020.0,1021.0,1020.0,1021.0,1020.0,1025.0,1021.0,1021.0,1015.0,1020.0,1019.0,1021.0,1019.0,1021.0,1019.0,1025.0,1021.0,1022.0,1015.0,1020.0,1020.0,1020.0,1019.0,1021.0,1020.0,1026.0,1021.0,1022.0,1015.0,1020.0,1021.0,1022.0,1022.0,1020.0,1026.0,1021.0,1022.0,1016.0,1020.0,1020.0,1021.0,1019.0,1026.0,1021.0,1021.0,1015.0,1019.0,1021.0,1020.0,1026.0,1021.0,1023.0,1016.0,1020.0,1021.0,1020.0,1025.0,1021.0,1022.0,1015.0,1020.0,1021.0,1019.0,1025.0,1021.0,1022.0,1016.0,1021.0,1019.0,1025.0,1020.0,1021.0,1015.0,1022.0,1020.0,1026.0,1021.0,1021.0,1016.0,1022.0,1020.0,1026.0,1022.0,1023.0,1016.0,1021.0,1020.0,1025.0,1021.0,1022.0,1016.0,1022.0,1020.0,1027.0,1022.0,1023.0,1017.0,1022.0,1021.0,1028.0,1023.0,1024.0,1019.0,1022.0,1023.0,1029.0,1023.0,1026.0,1020.0,1022.0,1022.0,1029.0,1023.0,1025.0,1020.0,1023.0,1022.0,1030.0,1024.0,1026.0,1021.0,1023.0,1023.0,1031.0,1024.0,1026.0,1023.0,1023.0,1022.0,1030.0,1023.0,1024.0,1022.0,1024.0,1024.0,1034.0,1025.0,1026.0,1072.0,1023.0,1023.0,1033.0,1025.0,1026.0,2433,2299,1897,	00:06:33.476,-0.009765625,0.0810546875,1.01513671875,-1.03759765625,0.42724609375,0.244140625,4.482421875,0.5218505859375,28.27880859375,657.0,-521.0,-4169.0,0.968994140625,0.03680419921875,0.013946533203125,0.243927001953125,4.480865324969622,0.5215150820143925,29.9338276142123,0.9653725858062455,0.03659188306295489,0.014489398240275978,0.25788924368089655,1,	00:06:33.477,0.03857421875,0.0341796875,1.021484375,0.1220703125,0.67138671875,0.42724609375,1.922607421875,-2.1148681640625,142.294921875,529.0,606.0,-1952.0,0.32275390625,0.02288818359375,0.0098876953125,0.9461669921875,1.920647341775549,-2.1156260175311465,143.62879136673766,0.31170525188460935,0.0227665253705145,0.010159272877291807,0.9498517307689188,1
1782115902.622861,0.215,1018.0,1024.0,1020.0,1019.0,1018.0,1025.0,1021.0,1021.0,1015.0,1020.0,1019.0,1024.0,1020.0,1021.0,1014.0,1019.0,1020.0,1019.0,1024.0,1020.0,1021.0,1014.0,1020.0,1020.0,1020.0,1019.0,1024.0,1021.0,1022.0,1013.0,1019.0,1019.0,1019.0,1020.0,1019.0,1024.0,1021.0,1021.0,1014.0,1020.0,1020.0,1020.0,1020.0,1019.0,1024.0,1021.0,1022.0,1013.0,1020.0,1020.0,1019.0,1019.0,1020.0,1019.0,1024.0,1021.0,1021.0,1013.0,1020.0,1019.0,1020.0,1020.0,1021.0,1020.0,1025.0,1020.0,1022.0,1014.0,1020.0,1020.0,1021.0,1021.0,1021.0,1020.0,1025.0,1020.0,1022.0,1014.0,1019.0,1020.0,1021.0,1020.0,1020.0,1021.0,1025.0,1021.0,1022.0,1015.0,1020.0,1021.0,1021.0,1020.0,1021.0,1020.0,1025.0,1021.0,1022.0,1014.0,1020.0,1020.0,1021.0,1019.0,1021.0,1020.0,1025.0,1021.0,1022.0,1014.0,1020.0,1020.0,1020.0,1019.0,1022.0,1020.0,1026.0,1021.0,1023.0,1015.0,1020.0,1021.0,1022.0,1022.0,1020.0,1025.0,1020.0,1023.0,1016.0,1020.0,1020.0,1021.0,1020.0,1025.0,1021.0,1022.0,1016.0,1019.0,1022.0,1020.0,1025.0,1021.0,1023.0,1016.0,1020.0,1021.0,1020.0,1025.0,1021.0,1022.0,1015.0,1019.0,1021.0,1019.0,1025.0,1021.0,1022.0,1015.0,1021.0,1019.0,1024.0,1021.0,1021.0,1014.0,1022.0,1020.0,1025.0,1021.0,1022.0,1015.0,1022.0,1020.0,1026.0,1021.0,1023.0,1016.0,1021.0,1020.0,1024.0,1021.0,1022.0,1015.0,1022.0,1021.0,1025.0,1022.0,1024.0,1017.0,1023.0,1022.0,1027.0,1023.0,1026.0,1020.0,1023.0,1023.0,1028.0,1024.0,1026.0,1021.0,1023.0,1022.0,1027.0,1024.0,1026.0,1020.0,1023.0,1023.0,1028.0,1024.0,1026.0,1022.0,1025.0,1023.0,1030.0,1024.0,1028.0,1024.0,1024.0,1022.0,1028.0,1023.0,1025.0,1023.0,1026.0,1024.0,1033.0,1025.0,1028.0,1073.0,1024.0,1024.0,1031.0,1024.0,1027.0,2432,2298,1897,	00:06:33.486,-0.00927734375,0.08203125,1.01513671875,-0.6103515625,0.42724609375,0.244140625,4.5648193359375,0.52734375,28.2843017578125,661.0,-522.0,-4168.0,0.968963623046875,0.037506103515625,0.014190673828125,0.243927001953125,4.566179840947347,0.525841972847099,29.937430369660557,0.9653371890348877,0.03730038872073291,0.014719015110844128,0.2579072373192934,1,	00:06:33.487,0.0390625,0.03369140625,1.02392578125,-0.06103515625,0.6103515625,0.42724609375,1.878662109375,-2.1917724609375,142.3004150390625,529.0,604.0,-1952.0,0.32269287109375,0.02337646484375,0.009307861328125,0.9461669921875,1.876898241814524,-2.190645821589927,143.63488402128624,0.31164939531039243,0.023268724636731856,0.009593423790471844,0.9498637729045271,1
1782115902.634139,0.226,1018.0,1023.0,1020.0,1020.0,1019.0,1024.0,1020.0,1021.0,1015.0,1020.0,1019.0,1023.0,1021.0,1021.0,1014.0,1020.0,1021.0,1019.0,1024.0,1021.0,1021.0,1014.0,1020.0,1020.0,1020.0,1019.0,1024.0,1021.0,1021.0,1014.0,1019.0,1019.0,1020.0,1020.0,1019.0,1024.0,1021.0,1021.0,1014.0,1020.0,1020.0,1020.0,1020.0,1019.0,1024.0,1021.0,1021.0,1013.0,1020.0,1019.0,1020.0,1019.0,1021.0,1019.0,1025.0,1020.0,1021.0,1014.0,1019.0,1020.0,1020.0,1019.0,1021.0,1020.0,1025.0,1021.0,1022.0,1014.0,1020.0,1020.0,1021.0,1020.0,1020.0,1020.0,1025.0,1020.0,1022.0,1014.0,1019.0,1020.0,1021.0,1020.0,1021.0,1020.0,1025.0,1021.0,1022.0,1015.0,1020.0,1020.0,1021.0,1020.0,1021.0,1020.0,1025.0,1021.0,1022.0,1015.0,1020.0,1020.0,1021.0,1019.0,1021.0,1020.0,1025.0,1021.0,1022.0,1014.0,1020.0,1020.0,1021.0,1020.0,1022.0,1021.0,1025.0,1021.0,1024.0,1015.0,1020.0,1020.0,1022.0,1021.0,1021.0,1025.0,1021.0,1023.0,1016.0,1020.0,1019.0,1022.0,1020.0,1025.0,1021.0,1021.0,1015.0,1020.0,1021.0,1020.0,1025.0,1021.0,1023.0,1016.0,1019.0,1021.0,1020.0,1025.0,1021.0,1022.0,1015.0,1019.0,1021.0,1020.0,1025.0,1021.0,1021.0,1015.0,1021.0,1019.0,1025.0,1021.0,1021.0,1014.0,1022.0,1019.0,1025.0,1021.0,1022.0,1016.0,1022.0,1020.0,1026.0,1021.0,1023.0,1017.0,1022.0,1019.0,1025.0,1021.0,1022.0,1015.0,1022.0,1021.0,1026.0,1022.0,1024.0,1018.0,1023.0,1022.0,1027.0,1023.0,1026.0,1019.0,1023.0,1022.0,1029.0,1024.0,1026.0,1019.0,1023.0,1023.0,1028.0,1024.0,1026.0,1020.0,1024.0,1023.0,1029.0,1024.0,1026.0,1022.0,1024.0,1023.0,1030.0,1025.0,1026.0,1024.0,1023.0,1022.0,1029.0,1024.0,1024.0,1022.0,1025.0,1024.0,1033.0,1025.0,1027.0,1073.0,1024.0,1023.0,1032.0,1025.0,1026.0,2432,2296,1897,	00:06:33.497,-0.009765625,0.0830078125,1.015625,-0.244140625,0.48828125,0.244140625,4.6527099609375,0.54931640625,28.2843017578125,658.0,-523.0,-4167.0,0.96893310546875,0.038177490234375,0.014556884765625,0.24395751953125,4.653037898864616,0.5500295253269942,29.941090333517103,0.9653016582697743,0.03797708836669165,0.015119445288259415,0.25791830426510515,1,	00:06:33.498,0.03857421875,0.0341796875,1.02294921875,-0.30517578125,0.6103515625,0.48828125,1.944580078125,-2.1258544921875,142.3004150390625,527.0,607.0,-1951.0,0.322662353515625,0.02301025390625,0.010040283203125,0.9461669921875,1.9425714616054977,-2.1242002724750515,143.63737147032543,0.311628132347,0.022896446402988234,0.010319349190225363,0.9498721866147708,1
1782115902.642940,0.235,1018.0,1023.0,1020.0,1019.0,1018.0,1025.0,1021.0,1021.0,1014.0,1021.0,1019.0,1024.0,1021.0,1022.0,1014.0,1019.0,1020.0,1019.0,1024.0,1021.0,1021.0,1015.0,1019.0,1020.0,1020.0,1019.0,1024.0,1021.0,1021.0,1013.0,1020.0,1020.0,1019.0,1020.0,1019.0,1024.0,1020.0,1021.0,1014.0,1019.0,1020.0,1020.0,1020.0,1019.0,1024.0,1021.0,1021.0,1014.0,1020.0,1019.0,1020.0,1019.0,1021.0,1019.0,1025.0,1021.0,1021.0,1013.0,1020.0,1020.0,1020.0,1020.0,1021.0,1019.0,1024.0,1021.0,1022.0,1014.0,1019.0,1021.0,1021.0,1020.0,1021.0,1019.0,1024.0,1021.0,1021.0,1014.0,1020.0,1020.0,1021.0,1020.0,1021.0,1020.0,1025.0,1021.0,1022.0,1014.0,1020.0,1021.0,1021.0,1020.0,1021.0,1020.0,1025.0,1021.0,1023.0,1014.0,1020.0,1020.0,1021.0,1019.0,1022.0,1020.0,1025.0,1021.0,1022.0,1014.0,1020.0,1020.0,1021.0,1019.0,1022.0,1021.0,1026.0,1021.0,1023.0,1015.0,1019.0,1021.0,1021.0,1022.0,1020.0,1026.0,1021.0,1023.0,1015.0,1019.0,1020.0,1022.0,1021.0,1025.0,1021.0,1022.0,1015.0,1019.0,1021.0,1020.0,1025.0,1021.0,1023.0,1015.0,1020.0,1021.0,1020.0,1025.0,1021.0,1022.0,1015.0,1019.0,1021.0,1020.0,1024.0,1021.0,1022.0,1015.0,1021.0,1019.0,1024.0,1021.0,1021.0,1014.0,1021.0,1020.0,1025.0,1021.0,1022.0,1015.0,1021.0,1020.0,1025.0,1022.0,1023.0,1016.0,1021.0,1019.0,1025.0,1021.0,1022.0,1015.0,1021.0,1020.0,1026.0,1022.0,1023.0,1016.0,1023.0,1021.0,1027.0,1024.0,1025.0,1018.0,1023.0,1022.0,1029.0,1024.0,1026.0,1020.0,1023.0,1022.0,1028.0,1023.0,1025.0,1020.0,1024.0,1023.0,1029.0,1024.0,1026.0,1022.0,1024.0,1023.0,1030.0,1024.0,1026.0,1023.0,1023.0,1022.0,1029.0,1023.0,1024.0,1022.0,1026.0,1025.0,1034.0,1026.0,1028.0,1071.0,1024.0,1024.0,1032.0,1025.0,1027.0,2432,2295,1897,	00:06:33.507,-0.00830078125,0.08251953125,1.0166015625,0.0,0.42724609375,0.18310546875,4.6417236328125,0.46142578125,28.289794921875,663.0,-521.0,-4170.0,0.96893310546875,0.03826904296875,0.013824462890625,0.243988037109375,4.63962947253426,0.4634746406285889,29.943143290087374,0.965296800330559,0.03805896879653386,0.014360891059316112,0.2579677634389844,1,	00:06:33.508,0.0361328125,0.0341796875,1.01904296875,-0.6103515625,0.30517578125,0.54931640625,1.9171142578125,-2.032470703125,142.3114013671875,531.0,604.0,-1947.0,0.3226318359375,0.022186279296875,0.010101318359375,0.946197509765625,1.9159383364248206,-2.032026795795993,143.64370080699064,0.31159830448973636,0.022059548252237732,0.010350937605250903,0.9499014322869089,1
1782115902.652613,0.245,1019.0,1023.0,1020.0,1021.0,1017.0,1024.0,1021.0,1021.0,1014.0,1020.0,1018.0,1024.0,1021.0,1021.0,1014.0,1020.0,1021.0,1018.0,1024.0,1020.0,1022.0,1014.0,1020.0,1020.0,1020.0,1019.0,1024.0,1021.0,1021.0,1014.0,1020.0,1020.0,1019.0,1021.0,1018.0,1024.0,1020.0,1021.0,1014.0,1020.0,1020.0,1020.0,1021.0,1019.0,1024.0,1021.0,1021.0,1014.0,1019.0,1020.0,1020.0,1019.0,1021.0,1019.0,1024.0,1021.0,1021.0,1014.0,1020.0,1020.0,1020.0,1019.0,1022.0,1020.0,1024.0,1020.0,1022.0,1014.0,1020.0,1021.0,1020.0,1020.0,1022.0,1019.0,1025.0,1021.0,1022.0,1014.0,1020.0,1020.0,1021.0,1020.0,1021.0,1020.0,1025.0,1021.0,1022.0,1014.0,1020.0,1021.0,1021.0,1020.0,1022.0,1020.0,1025.0,1021.0,1022.0,1014.0,1020.0,1020.0,1020.0,1020.0,1021.0,1020.0,1025.0,1021.0,1023.0,1014.0,1020.0,1020.0,1021.0,1020.0,1022.0,1021.0,1026.0,1021.0,1023.0,1015.0,1020.0,1021.0,1022.0,1022.0,1020.0,1026.0,1021.0,1023.0,1015.0,1019.0,1021.0,1021.0,1020.0,1025.0,1021.0,1023.0,1014.0,1020.0,1022.0,1020.0,1025.0,1021.0,1023.0,1015.0,1020.0,1022.0,1020.0,1025.0,1021.0,1022.0,1014.0,1020.0,1022.0,1020.0,1024.0,1021.0,1022.0,1015.0,1022.0,1020.0,1024.0,1021.0,1021.0,1014.0,1023.0,1019.0,1024.0,1021.0,1022.0,1015.0,1023.0,1020.0,1025.0,1022.0,1023.0,1016.0,1022.0,1019.0,1025.0,1021.0,1022.0,1015.0,1023.0,1021.0,1026.0,1022.0,1024.0,1017.0,1024.0,1022.0,1027.0,1024.0,1026.0,1018.0,1025.0,1023.0,1028.0,1023.0,1027.0,1020.0,1024.0,1022.0,1028.0,1023.0,1027.0,1019.0,1026.0,1024.0,1029.0,1024.0,1028.0,1022.0,1026.0,1024.0,1030.0,1024.0,1027.0,1024.0,1025.0,1023.0,1029.0,1023.0,1026.0,1021.0,1027.0,1025.0,1034.0,1025.0,1028.0,1071.0,1024.0,1024.0,1032.0,1024.0,1028.0,2432,2294,1897,	00:06:33.517,-0.01025390625,0.08251953125,1.01611328125,0.06103515625,0.42724609375,0.18310546875,4.6417236328125,0.560302734375,28.289794921875,657.0,-520.0,-4169.0,0.96893310546875,0.0380859375,0.014617919921875,0.243988037109375,4.642880265805515,0.5592149546267315,29.945337922661036,0.9652959241795137,0.037870254844182584,0.015175355383511249,0.257952187719816,1,	00:06:33.518,0.037109375,0.03369140625,1.02001953125,-0.6103515625,0.06103515625,0.48828125,1.86767578125,-2.1148681640625,142.31689453125,530.0,605.0,-1949.0,0.32257080078125,0.022735595703125,0.009490966796875,0.94622802734375,1.8700612289394187,-2.1142542409715377,143.6500413448905,0.31153937853647784,0.022615746015841615,0.009747895050486947,0.9499140604261719,1
1782115902.667377,0.259,1019.0,1023.0,1020.0,1020.0,1018.0,1024.0,1021.0,1022.0,1014.0,1020.0,1018.0,1024.0,1021.0,1022.0,1013.0,1019.0,1020.0,1019.0,1024.0,1021.0,1023.0,1013.0,1020.0,1020.0,1020.0,1019.0,1024.0,1020.0,1022.0,1013.0,1019.0,1019.0,1019.0,1021.0,1019.0,1024.0,1021.0,1022.0,1013.0,1020.0,1019.0,1020.0,1020.0,1019.0,1024.0,1021.0,1023.0,1013.0,1019.0,1019.0,1020.0,1019.0,1021.0,1019.0,1024.0,1021.0,1022.0,1013.0,1020.0,1020.0,1020.0,1020.0,1021.0,1020.0,1025.0,1021.0,1023.0,1014.0,1020.0,1020.0,1021.0,1020.0,1022.0,1020.0,1024.0,1020.0,1023.0,1014.0,1020.0,1020.0,1020.0,1020.0,1021.0,1019.0,1025.0,1021.0,1023.0,1013.0,1020.0,1020.0,1021.0,1020.0,1022.0,1020.0,1024.0,1021.0,1022.0,1014.0,1020.0,1020.0,1020.0,1020.0,1022.0,1020.0,1024.0,1021.0,1023.0,1014.0,1020.0,1020.0,1020.0,1020.0,1022.0,1021.0,1025.0,1021.0,1024.0,1014.0,1019.0,1020.0,1022.0,1021.0,1021.0,1025.0,1021.0,1024.0,1015.0,1019.0,1020.0,1022.0,1020.0,1025.0,1021.0,1022.0,1014.0,1020.0,1022.0,1020.0,1025.0,1022.0,1023.0,1015.0,1019.0,1022.0,1020.0,1025.0,1021.0,1022.0,1015.0,1020.0,1022.0,1020.0,1025.0,1021.0,1023.0,1015.0,1021.0,1019.0,1024.0,1021.0,1021.0,1014.0,1022.0,1020.0,1025.0,1021.0,1023.0,1015.0,1023.0,1021.0,1026.0,1022.0,1024.0,1016.0,1022.0,1019.0,1025.0,1021.0,1023.0,1015.0,1023.0,1020.0,1026.0,1023.0,1024.0,1017.0,1024.0,1022.0,1027.0,1024.0,1027.0,1018.0,1024.0,1022.0,1028.0,1023.0,1027.0,1019.0,1024.0,1022.0,1029.0,1024.0,1027.0,1019.0,1025.0,1023.0,1030.0,1024.0,1027.0,1022.0,1026.0,1024.0,1030.0,1024.0,1027.0,1023.0,1025.0,1023.0,1030.0,1023.0,1026.0,1023.0,1027.0,1024.0,1034.0,1025.0,1028.0,1072.0,1025.0,1023.0,1033.0,1025.0,1027.0,2431,2292,1897,	00:06:33.527,-0.01025390625,0.08203125,1.015625,0.244140625,0.3662109375,0.18310546875,4.5703125,0.615234375,28.289794921875,658.0,-520.0,-4172.0,0.96893310546875,0.037353515625,0.01495361328125,0.243988037109375,4.570007262450175,0.6146661356436857,29.9466890697062,0.965319362647309,0.03713118269071057,0.01547881939390965,0.2579538902989312,1,	00:06:33.528,0.0380859375,0.03369140625,1.0185546875,-0.732421875,-0.06103515625,0.48828125,1.922607421875,-2.1807861328125,142.31689453125,529.0,606.0,-1954.0,0.322540283203125,0.0234375,0.009735107421875,0.94622802734375,1.9253237480001442,-2.1817240245459866,143.6525566642717,0.31149474626424195,0.023324939684552296,0.010022736277523318,0.9499086877147712,1
1782115902.672979,0.265,1018.0,1023.0,1020.0,1020.0,1018.0,1024.0,1020.0,1022.0,1014.0,1021.0,1019.0,1024.0,1021.0,1021.0,1014.0,1019.0,1020.0,1019.0,1024.0,1020.0,1022.0,1014.0,1020.0,1020.0,1021.0,1019.0,1024.0,1021.0,1021.0,1013.0,1020.0,1019.0,1020.0,1021.0,1019.0,1024.0,1021.0,1022.0,1013.0,1019.0,1019.0,1020.0,1020.0,1019.0,1024.0,1021.0,1021.0,1014.0,1020.0,1019.0,1020.0,1020.0,1021.0,1019.0,1024.0,1021.0,1021.0,1013.0,1019.0,1020.0,1020.0,1020.0,1021.0,1019.0,1026.0,1021.0,1021.0,1014.0,1020.0,1020.0,1021.0,1020.0,1022.0,1020.0,1025.0,1021.0,1022.0,1014.0,1020.0,1020.0,1021.0,1020.0,1022.0,1020.0,1025.0,1021.0,1022.0,1014.0,1020.0,1021.0,1021.0,1020.0,1021.0,1020.0,1025.0,1021.0,1022.0,1014.0,1020.0,1020.0,1020.0,1020.0,1021.0,1019.0,1025.0,1021.0,1023.0,1014.0,1019.0,1020.0,1020.0,1020.0,1022.0,1021.0,1026.0,1022.0,1024.0,1015.0,1020.0,1021.0,1021.0,1022.0,1020.0,1026.0,1022.0,1024.0,1015.0,1020.0,1020.0,1021.0,1020.0,1026.0,1021.0,1022.0,1014.0,1020.0,1021.0,1020.0,1026.0,1021.0,1022.0,1015.0,1020.0,1021.0,1020.0,1025.0,1022.0,1022.0,1015.0,1019.0,1021.0,1020.0,1025.0,1021.0,1022.0,1015.0,1021.0,1019.0,1025.0,1021.0,1021.0,1014.0,1021.0,1020.0,1025.0,1022.0,1023.0,1015.0,1021.0,1020.0,1025.0,1022.0,1024.0,1016.0,1021.0,1020.0,1025.0,1021.0,1022.0,1015.0,1023.0,1021.0,1026.0,1023.0,1024.0,1017.0,1023.0,1022.0,1027.0,1024.0,1027.0,1019.0,1024.0,1023.0,1029.0,1024.0,1027.0,1020.0,1024.0,1023.0,1029.0,1024.0,1027.0,1021.0,1024.0,1023.0,1030.0,1024.0,1027.0,1023.0,1024.0,1024.0,1031.0,1024.0,1027.0,1025.0,1023.0,1022.0,1030.0,1023.0,1026.0,1024.0,1025.0,1025.0,1035.0,1025.0,1028.0,1075.0,1023.0,1024.0,1033.0,1024.0,1027.0,2431,2291,1898,	00:06:33.538,-0.0107421875,0.08154296875,1.01611328125,0.42724609375,0.30517578125,0.18310546875,4.6527099609375,0.5712890625,28.2952880859375,660.0,-521.0,-4165.0,0.968902587890625,0.03814697265625,0.014739990234375,0.2440185546875,4.652708905227748,0.5704119112778634,29.949566669276336,0.9652837126676144,0.037927242379647584,0.015293190278656039,0.257982551106083,1,	00:06:33.539,0.0380859375,0.03369140625,1.021484375,-0.8544921875,0.0,0.54931640625,1.8621826171875,-2.109375,142.327880859375,527.0,610.0,-1949.0,0.322509765625,0.02264404296875,0.009429931640625,0.946258544921875,1.861106190753534,-2.1090292908147155,143.6601216529102,0.3114585477444886,0.022547243539908893,0.00968987618732715,0.9499427883536568,1
1782115902.684584,0.277,1019.0,1024.0,1020.0,1020.0,1018.0,1024.0,1020.0,1021.0,1014.0,1020.0,1019.0,1024.0,1021.0,1021.0,1014.0,1019.0,1021.0,1019.0,1024.0,1020.0,1022.0,1014.0,1020.0,1019.0,1021.0,1019.0,1024.0,1021.0,1021.0,1013.0,1020.0,1019.0,1019.0,1021.0,1019.0,1024.0,1021.0,1022.0,1013.0,1020.0,1019.0,1020.0,1020.0,1020.0,1024.0,1021.0,1022.0,1014.0,1020.0,1019.0,1020.0,1019.0,1021.0,1019.0,1024.0,1020.0,1022.0,1013.0,1020.0,1019.0,1019.0,1020.0,1021.0,1020.0,1025.0,1020.0,1023.0,1013.0,1020.0,1020.0,1021.0,1021.0,1021.0,1020.0,1025.0,1021.0,1023.0,1014.0,1020.0,1020.0,1021.0,1021.0,1021.0,1021.0,1025.0,1020.0,1023.0,1014.0,1020.0,1020.0,1021.0,1020.0,1022.0,1021.0,1025.0,1021.0,1022.0,1014.0,1019.0,1019.0,1020.0,1019.0,1022.0,1021.0,1025.0,1021.0,1022.0,1014.0,1019.0,1020.0,1020.0,1020.0,1022.0,1021.0,1026.0,1021.0,1024.0,1015.0,1020.0,1021.0,1021.0,1022.0,1021.0,1026.0,1021.0,1023.0,1014.0,1019.0,1020.0,1022.0,1020.0,1026.0,1021.0,1022.0,1014.0,1019.0,1021.0,1021.0,1026.0,1021.0,1022.0,1014.0,1020.0,1022.0,1020.0,1025.0,1021.0,1022.0,1014.0,1020.0,1021.0,1021.0,1025.0,1021.0,1022.0,1014.0,1022.0,1021.0,1025.0,1021.0,1021.0,1013.0,1022.0,1021.0,1026.0,1021.0,1022.0,1014.0,1022.0,1021.0,1026.0,1022.0,1024.0,1015.0,1021.0,1021.0,1025.0,1022.0,1023.0,1014.0,1023.0,1022.0,1027.0,1023.0,1025.0,1016.0,1024.0,1023.0,1028.0,1024.0,1027.0,1018.0,1024.0,1024.0,1029.0,1024.0,1028.0,1019.0,1024.0,1024.0,1029.0,1024.0,1027.0,1020.0,1024.0,1024.0,1031.0,1024.0,1028.0,1022.0,1025.0,1025.0,1032.0,1024.0,1027.0,1024.0,1024.0,1023.0,1030.0,1024.0,1025.0,1022.0,1026.0,1025.0,1036.0,1026.0,1029.0,1074.0,1024.0,1025.0,1033.0,1025.0,1027.0,2431,2290,1897,	00:06:33.548,-0.0107421875,0.0830078125,1.015625,0.79345703125,0.42724609375,0.18310546875,4.7076416015625,0.6536865234375,28.2952880859375,661.0,-522.0,-4170.0,0.968902587890625,0.038421630859375,0.01556396484375,0.243988037109375,4.707070854755938,0.6534478053303706,29.95223965711385,0.9652635482384223,0.038197558824233535,0.0161158406560097,0.25796803798531037,1,	00:06:33.549,0.03759765625,0.03369140625,1.0224609375,-0.9765625,0.1220703125,0.54931640625,1.9390869140625,-2.0928955078125,142.327880859375,527.0,608.0,-1949.0,0.322479248046875,0.02276611328125,0.0101318359375,0.946258544921875,1.9416502631985733,-2.09328083550504,143.66233526638771,0.31142727011824894,0.02263543061081543,0.010400889701784228,0.9499434268424459,1
1782115902.694557,0.286,1019.0,1023.0,1020.0,1020.0,1019.0,1025.0,1020.0,1021.0,1014.0,1021.0,1019.0,1024.0,1021.0,1021.0,1013.0,1019.0,1021.0,1019.0,1024.0,1021.0,1022.0,1013.0,1020.0,1020.0,1021.0,1020.0,1025.0,1020.0,1021.0,1012.0,1020.0,1019.0,1020.0,1021.0,1020.0,1025.0,1020.0,1021.0,1013.0,1019.0,1019.0,1019.0,1022.0,1019.0,1024.0,1020.0,1021.0,1013.0,1020.0,1019.0,1020.0,1019.0,1021.0,1020.0,1024.0,1021.0,1021.0,1013.0,1020.0,1019.0,1020.0,1020.0,1022.0,1020.0,1025.0,1021.0,1022.0,1014.0,1020.0,1020.0,1020.0,1020.0,1021.0,1021.0,1025.0,1021.0,1022.0,1013.0,1020.0,1020.0,1021.0,1020.0,1021.0,1021.0,1025.0,1021.0,1022.0,1014.0,1020.0,1020.0,1021.0,1021.0,1022.0,1020.0,1025.0,1021.0,1022.0,1014.0,1019.0,1020.0,1020.0,1019.0,1023.0,1021.0,1025.0,1021.0,1022.0,1014.0,1019.0,1020.0,1020.0,1020.0,1023.0,1022.0,1026.0,1021.0,1023.0,1015.0,1020.0,1020.0,1021.0,1022.0,1021.0,1026.0,1021.0,1023.0,1014.0,1020.0,1019.0,1021.0,1020.0,1025.0,1021.0,1022.0,1014.0,1019.0,1022.0,1022.0,1026.0,1021.0,1023.0,1015.0,1020.0,1021.0,1021.0,1026.0,1021.0,1022.0,1015.0,1020.0,1021.0,1020.0,1025.0,1021.0,1022.0,1014.0,1021.0,1020.0,1025.0,1021.0,1021.0,1014.0,1021.0,1021.0,1026.0,1022.0,1023.0,1015.0,1022.0,1021.0,1026.0,1021.0,1024.0,1015.0,1021.0,1022.0,1025.0,1021.0,1022.0,1015.0,1022.0,1022.0,1028.0,1022.0,1024.0,1017.0,1022.0,1024.0,1028.0,1023.0,1027.0,1018.0,1022.0,1024.0,1029.0,1024.0,1027.0,1019.0,1023.0,1024.0,1029.0,1024.0,1027.0,1020.0,1023.0,1025.0,1030.0,1025.0,1028.0,1022.0,1023.0,1025.0,1031.0,1024.0,1028.0,1023.0,1022.0,1024.0,1029.0,1023.0,1026.0,1023.0,1024.0,1026.0,1035.0,1025.0,1028.0,1073.0,1023.0,1025.0,1033.0,1025.0,1028.0,2431,2289,1897,	00:06:33.558,-0.009765625,0.0830078125,1.01611328125,1.03759765625,0.42724609375,0.18310546875,4.6856689453125,0.5712890625,28.30078125,663.0,-522.0,-4167.0,0.968902587890625,0.038421630859375,0.01483154296875,0.244049072265625,4.687029673288171,0.5711509617370544,29.954082559288235,0.9652621798194807,0.03821407581662164,0.015378187461242874,0.2580157358961522,1,	00:06:33.559,0.0380859375,0.03271484375,1.02197265625,-0.9765625,0.18310546875,0.6103515625,1.845703125,-2.1258544921875,142.3388671875,528.0,608.0,-1947.0,0.322418212890625,0.022735595703125,0.009246826171875,0.9462890625,1.8456103703731603,-2.123386298018353,143.67166980770045,0.31136322202205696,0.022623159883177656,0.009524605349752163,0.9499739041162525,1
1782115902.704187,0.296,1018.0,1023.0,1019.0,1021.0,1018.0,1025.0,1020.0,1022.0,1014.0,1021.0,1019.0,1024.0,1021.0,1021.0,1013.0,1020.0,1021.0,1019.0,1024.0,1021.0,1022.0,1013.0,1020.0,1020.0,1021.0,1020.0,1024.0,1021.0,1022.0,1013.0,1020.0,1020.0,1020.0,1021.0,1019.0,1025.0,1020.0,1021.0,1013.0,1019.0,1019.0,1020.0,1021.0,1019.0,1024.0,1021.0,1022.0,1013.0,1019.0,1020.0,1020.0,1019.0,1021.0,1020.0,1025.0,1021.0,1021.0,1013.0,1020.0,1020.0,1020.0,1020.0,1022.0,1020.0,1025.0,1021.0,1023.0,1014.0,1020.0,1020.0,1020.0,1020.0,1021.0,1020.0,1025.0,1021.0,1022.0,1015.0,1020.0,1020.0,1020.0,1020.0,1021.0,1020.0,1025.0,1021.0,1022.0,1014.0,1020.0,1020.0,1021.0,1020.0,1021.0,1020.0,1025.0,1021.0,1022.0,1014.0,1020.0,1019.0,1020.0,1019.0,1021.0,1020.0,1025.0,1021.0,1022.0,1014.0,1020.0,1020.0,1020.0,1020.0,1022.0,1021.0,1026.0,1021.0,1023.0,1015.0,1020.0,1020.0,1021.0,1022.0,1021.0,1026.0,1021.0,1023.0,1015.0,1020.0,1019.0,1021.0,1021.0,1026.0,1021.0,1022.0,1015.0,1019.0,1022.0,1020.0,1026.0,1021.0,1023.0,1015.0,1020.0,1021.0,1020.0,1026.0,1021.0,1023.0,1015.0,1020.0,1022.0,1020.0,1026.0,1020.0,1022.0,1014.0,1021.0,1020.0,1025.0,1021.0,1021.0,1014.0,1022.0,1021.0,1026.0,1021.0,1023.0,1015.0,1023.0,1021.0,1026.0,1022.0,1023.0,1016.0,1022.0,1020.0,1025.0,1022.0,1022.0,1015.0,1023.0,1021.0,1027.0,1022.0,1024.0,1016.0,1023.0,1022.0,1028.0,1024.0,1027.0,1019.0,1024.0,1023.0,1029.0,1024.0,1028.0,1020.0,1023.0,1023.0,1029.0,1024.0,1027.0,1020.0,1025.0,1024.0,1030.0,1024.0,1028.0,1022.0,1026.0,1024.0,1031.0,1025.0,1028.0,1025.0,1025.0,1023.0,1030.0,1024.0,1026.0,1022.0,1026.0,1026.0,1035.0,1026.0,1029.0,1073.0,1026.0,1024.0,1033.0,1026.0,1027.0,2431,2289,1898,	00:06:33.569,-0.00927734375,0.08251953125,1.01708984375,1.15966796875,0.48828125,0.1220703125,4.63623046875,0.5108642578125,28.30078125,662.0,-521.0,-4171.0,0.968902587890625,0.038116455078125,0.014190673828125,0.24407958984375,4.63503135310015,0.5101567656628201,29.955091907292132,0.9652740095919694,0.03791347494360451,0.01474769921453844,0.25805263066246914,1,	00:06:33.570,0.03759765625,0.033203125,1.01904296875,-0.91552734375,0.18310546875,0.54931640625,1.9171142578125,-2.076416015625,142.3388671875,526.0,608.0,-1951.0,0.3223876953125,0.022552490234375,0.009979248046875,0.9462890625,1.916257139383351,-2.0768954113193767,143.67428709062136,0.3113362804068322,0.022429545600431384,0.010237338989277244,0.9499799118281477,1
1782115902.714797,0.307,1018.0,1024.0,1020.0,1020.0,1018.0,1025.0,1020.0,1022.0,1014.0,1020.0,1019.0,1024.0,1020.0,1022.0,1014.0,1020.0,1020.0,1020.0,1025.0,1020.0,1021.0,1013.0,1020.0,1019.0,1020.0,1020.0,1025.0,1020.0,1022.0,1014.0,1020.0,1020.0,1020.0,1020.0,1020.0,1025.0,1021.0,1022.0,1014.0,1020.0,1019.0,1020.0,1020.0,1020.0,1025.0,1020.0,1022.0,1013.0,1020.0,1019.0,1020.0,1020.0,1020.0,1021.0,1025.0,1021.0,1022.0,1014.0,1020.0,1019.0,1020.0,1020.0,1020.0,1021.0,1026.0,1020.0,1023.0,1014.0,1020.0,1020.0,1021.0,1021.0,1021.0,1021.0,1025.0,1021.0,1023.0,1014.0,1020.0,1020.0,1021.0,1020.0,1021.0,1021.0,1026.0,1021.0,1022.0,1014.0,1020.0,1020.0,1021.0,1020.0,1021.0,1020.0,1026.0,1021.0,1022.0,1013.0,1019.0,1019.0,1020.0,1020.0,1021.0,1020.0,1026.0,1021.0,1022.0,1014.0,1020.0,1020.0,1020.0,1020.0,1021.0,1022.0,1026.0,1022.0,1023.0,1014.0,1020.0,1020.0,1021.0,1021.0,1021.0,1027.0,1021.0,1023.0,1014.0,1020.0,1019.0,1022.0,1021.0,1026.0,1021.0,1022.0,1014.0,1020.0,1022.0,1021.0,1026.0,1021.0,1023.0,1014.0,1020.0,1021.0,1021.0,1025.0,1021.0,1022.0,1014.0,1020.0,1022.0,1020.0,1025.0,1021.0,1022.0,1014.0,1022.0,1021.0,1025.0,1021.0,1021.0,1013.0,1022.0,1020.0,1025.0,1021.0,1023.0,1014.0,1023.0,1022.0,1026.0,1022.0,1025.0,1015.0,1022.0,1020.0,1026.0,1021.0,1023.0,1014.0,1022.0,1021.0,1027.0,1022.0,1025.0,1016.0,1024.0,1023.0,1029.0,1024.0,1029.0,1018.0,1023.0,1023.0,1030.0,1024.0,1028.0,1019.0,1024.0,1023.0,1030.0,1023.0,1028.0,1020.0,1025.0,1024.0,1030.0,1024.0,1028.0,1021.0,1025.0,1026.0,1032.0,1025.0,1029.0,1023.0,1024.0,1024.0,1031.0,1024.0,1027.0,1022.0,1026.0,1026.0,1036.0,1026.0,1030.0,1073.0,1025.0,1025.0,1034.0,1025.0,1030.0,2431,2288,1898,	00:06:33.579,-0.01171875,0.08349609375,1.01611328125,1.28173828125,0.42724609375,0.18310546875,4.6856689453125,0.5987548828125,28.30078125,661.0,-522.0,-4169.0,0.9688720703125,0.038330078125,0.015045166015625,0.24407958984375,4.683438340305801,0.5986776684580714,29.957616348428406,0.9652567730874031,0.038121267847293465,0.015603122575606657,0.258036186440001,1,	00:06:33.580,0.03857421875,0.03369140625,1.01708984375,-0.91552734375,0.30517578125,0.6103515625,1.8896484375,-2.164306640625,142.3443603515625,528.0,609.0,-1953.0,0.32232666015625,0.023193359375,0.009490966796875,0.9462890625,1.888684556139639,-2.1638603205723257,143.6811733983975,0.31126832068109367,0.023074850293374808,0.00977343028121471,0.9499916125339467,1
1782115902.726296,0.318,1018.0,1024.0,1020.0,1019.0,1019.0,1026.0,1020.0,1022.0,1013.0,1021.0,1019.0,1024.0,1020.0,1022.0,1012.0,1020.0,1020.0,1020.0,1025.0,1020.0,1022.0,1013.0,1020.0,1020.0,1021.0,1019.0,1025.0,1021.0,1022.0,1013.0,1019.0,1019.0,1020.0,1021.0,1019.0,1025.0,1021.0,1022.0,1012.0,1019.0,1020.0,1020.0,1021.0,1019.0,1025.0,1021.0,1022.0,1013.0,1020.0,1019.0,1020.0,1019.0,1021.0,1020.0,1026.0,1021.0,1022.0,1013.0,1020.0,1020.0,1021.0,1020.0,1021.0,1020.0,1026.0,1020.0,1022.0,1014.0,1020.0,1020.0,1020.0,1021.0,1021.0,1021.0,1026.0,1021.0,1023.0,1013.0,1020.0,1020.0,1021.0,1021.0,1021.0,1021.0,1026.0,1021.0,1023.0,1014.0,1020.0,1020.0,1021.0,1020.0,1022.0,1020.0,1026.0,1020.0,1022.0,1013.0,1019.0,1019.0,1020.0,1019.0,1022.0,1020.0,1026.0,1021.0,1022.0,1014.0,1020.0,1020.0,1020.0,1020.0,1021.0,1021.0,1027.0,1021.0,1023.0,1015.0,1020.0,1020.0,1021.0,1022.0,1021.0,1027.0,1022.0,1023.0,1015.0,1020.0,1020.0,1021.0,1020.0,1026.0,1020.0,1022.0,1015.0,1020.0,1022.0,1021.0,1027.0,1022.0,1023.0,1015.0,1021.0,1021.0,1021.0,1026.0,1021.0,1022.0,1014.0,1020.0,1021.0,1020.0,1026.0,1021.0,1022.0,1014.0,1021.0,1020.0,1025.0,1021.0,1021.0,1014.0,1022.0,1021.0,1026.0,1021.0,1022.0,1015.0,1022.0,1021.0,1026.0,1022.0,1024.0,1016.0,1021.0,1021.0,1025.0,1021.0,1023.0,1016.0,1022.0,1021.0,1026.0,1022.0,1024.0,1017.0,1023.0,1023.0,1028.0,1024.0,1028.0,1019.0,1023.0,1024.0,1029.0,1024.0,1028.0,1020.0,1023.0,1024.0,1029.0,1024.0,1027.0,1020.0,1025.0,1024.0,1030.0,1024.0,1027.0,1022.0,1027.0,1024.0,1031.0,1025.0,1027.0,1025.0,1025.0,1023.0,1030.0,1024.0,1026.0,1023.0,1027.0,1025.0,1035.0,1027.0,1028.0,1074.0,1026.0,1024.0,1033.0,1026.0,1028.0,2431,2287,1898,	00:06:33.589,-0.0087890625,0.08349609375,1.015625,1.3427734375,0.48828125,0.18310546875,4.713134765625,0.5108642578125,28.3062744140625,663.0,-525.0,-4173.0,0.9688720703125,0.03875732421875,0.014373779296875,0.244110107421875,4.711068562932296,0.5128246862187262,29.9599675456552,0.9652378065715572,0.03854732220360454,0.014943037570915642,0.25808290595081,1,	00:06:33.590,0.0390625,0.03369140625,1.017578125,-0.91552734375,0.3662109375,0.54931640625,1.900634765625,-2.252197265625,142.349853515625,528.0,608.0,-1951.0,0.322265625,0.02392578125,0.009368896484375,0.946319580078125,1.8998173106329428,-2.249641364496621,143.68600573347416,0.3112097345646692,0.02381567637646432,0.009633271889189002,0.9499939551089938,1
1782115902.735920,0.328,1020.0,1023.0,1020.0,1020.0,1018.0,1025.0,1021.0,1021.0,1013.0,1021.0,1019.0,1024.0,1021.0,1022.0,1013.0,1020.0,1021.0,1019.0,1024.0,1021.0,1022.0,1013.0,1020.0,1020.0,1021.0,1019.0,1024.0,1021.0,1022.0,1013.0,1020.0,1019.0,1020.0,1021.0,1019.0,1024.0,1021.0,1022.0,1012.0,1019.0,1019.0,1020.0,1021.0,1019.0,1025.0,1021.0,1022.0,1012.0,1020.0,1019.0,1020.0,1019.0,1021.0,1019.0,1025.0,1021.0,1023.0,1013.0,1020.0,1020.0,1021.0,1020.0,1021.0,1020.0,1025.0,1021.0,1022.0,1012.0,1020.0,1020.0,1021.0,1020.0,1021.0,1021.0,1026.0,1021.0,1023.0,1012.0,1020.0,1020.0,1021.0,1021.0,1022.0,1021.0,1026.0,1021.0,1023.0,1013.0,1020.0,1020.0,1021.0,1020.0,1021.0,1020.0,1026.0,1021.0,1022.0,1013.0,1020.0,1020.0,1020.0,1019.0,1021.0,1020.0,1026.0,1021.0,1023.0,1014.0,1020.0,1020.0,1020.0,1020.0,1021.0,1021.0,1027.0,1021.0,1024.0,1014.0,1020.0,1020.0,1021.0,1021.0,1021.0,1026.0,1021.0,1024.0,1014.0,1020.0,1020.0,1021.0,1021.0,1026.0,1021.0,1023.0,1014.0,1019.0,1021.0,1020.0,1026.0,1022.0,1024.0,1014.0,1020.0,1021.0,1020.0,1026.0,1021.0,1023.0,1014.0,1020.0,1021.0,1020.0,1025.0,1021.0,1022.0,1014.0,1021.0,1020.0,1025.0,1021.0,1022.0,1014.0,1022.0,1020.0,1025.0,1021.0,1024.0,1015.0,1023.0,1021.0,1026.0,1022.0,1024.0,1015.0,1021.0,1020.0,1026.0,1021.0,1023.0,1015.0,1022.0,1021.0,1026.0,1022.0,1026.0,1016.0,1023.0,1022.0,1028.0,1024.0,1029.0,1019.0,1023.0,1023.0,1030.0,1024.0,1029.0,1020.0,1022.0,1022.0,1029.0,1024.0,1028.0,1019.0,1024.0,1023.0,1030.0,1024.0,1029.0,1022.0,1024.0,1024.0,1031.0,1025.0,1028.0,1024.0,1023.0,1022.0,1030.0,1024.0,1026.0,1022.0,1025.0,1024.0,1035.0,1027.0,1030.0,1072.0,1024.0,1024.0,1033.0,1026.0,1029.0,2431,2287,1898,	00:06:33.599,-0.0087890625,0.0830078125,1.015625,1.28173828125,0.48828125,0.18310546875,4.6417236328125,0.4779052734375,28.3062744140625,660.0,-524.0,-4167.0,0.9688720703125,0.038238525390625,0.013946533203125,0.244140625,4.641598398805705,0.4777882476745702,29.96147822304836,0.9652556707869456,0.03804097388319755,0.014491974578297696,0.2581169444117983,1,	00:06:33.601,0.03857421875,0.03369140625,1.0166015625,-0.79345703125,0.42724609375,0.6103515625,1.8896484375,-2.1533203125,142.3553466796875,527.0,611.0,-1948.0,0.322235107421875,0.023101806640625,0.009552001953125,0.946319580078125,1.8896887413801775,-2.1539905702688116,143.69232058754946,0.311177558935838,0.02299481775418459,0.009810852539443676,0.9500229009574634,1
1782115902.746818,0.339,1018.0,1023.0,1021.0,1020.0,1018.0,1025.0,1021.0,1022.0,1013.0,1020.0,1018.0,1024.0,1021.0,1022.0,1013.0,1019.0,1020.0,1019.0,1024.0,1021.0,1022.0,1013.0,1020.0,1020.0,1021.0,1018.0,1024.0,1021.0,1022.0,1013.0,1020.0,1020.0,1020.0,1021.0,1019.0,1024.0,1021.0,1022.0,1013.0,1020.0,1020.0,1020.0,1020.0,1019.0,1025.0,1021.0,1022.0,1013.0,1019.0,1019.0,1020.0,1019.0,1020.0,1019.0,1025.0,1021.0,1022.0,1013.0,1020.0,1020.0,1020.0,1020.0,1021.0,1020.0,1026.0,1021.0,1023.0,1013.0,1020.0,1020.0,1021.0,1021.0,1021.0,1020.0,1026.0,1021.0,1023.0,1013.0,1020.0,1020.0,1021.0,1020.0,1022.0,1020.0,1026.0,1021.0,1023.0,1014.0,1020.0,1020.0,1021.0,1020.0,1021.0,1020.0,1025.0,1021.0,1023.0,1013.0,1020.0,1019.0,1020.0,1020.0,1022.0,1020.0,1026.0,1021.0,1023.0,1014.0,1020.0,1020.0,1021.0,1019.0,1022.0,1021.0,1026.0,1021.0,1024.0,1014.0,1020.0,1021.0,1022.0,1022.0,1021.0,1026.0,1022.0,1024.0,1014.0,1019.0,1020.0,1021.0,1020.0,1026.0,1022.0,1023.0,1014.0,1019.0,1022.0,1020.0,1026.0,1022.0,1024.0,1015.0,1020.0,1022.0,1020.0,1026.0,1021.0,1023.0,1014.0,1020.0,1022.0,1020.0,1025.0,1021.0,1023.0,1014.0,1021.0,1019.0,1025.0,1021.0,1021.0,1013.0,1022.0,1020.0,1026.0,1022.0,1024.0,1014.0,1022.0,1020.0,1026.0,1023.0,1024.0,1015.0,1021.0,1020.0,1026.0,1022.0,1023.0,1015.0,1022.0,1021.0,1027.0,1023.0,1025.0,1016.0,1023.0,1022.0,1028.0,1025.0,1028.0,1018.0,1024.0,1023.0,1029.0,1025.0,1029.0,1020.0,1024.0,1022.0,1029.0,1024.0,1028.0,1020.0,1025.0,1024.0,1030.0,1024.0,1028.0,1022.0,1026.0,1024.0,1031.0,1025.0,1028.0,1024.0,1024.0,1023.0,1029.0,1024.0,1026.0,1023.0,1026.0,1024.0,1034.0,1027.0,1029.0,1074.0,1025.0,1023.0,1032.0,1025.0,1028.0,2431,2286,1898,	00:06:33.610,-0.00927734375,0.08447265625,1.0146484375,1.220703125,0.48828125,0.18310546875,4.7406005859375,0.516357421875,28.311767578125,663.0,-526.0,-4170.0,0.968841552734375,0.03900146484375,0.01446533203125,0.244140625,4.739341800262325,0.5147305414542571,29.964442979881674,0.9652182920344151,0.038780589668760156,0.015024280475941135,0.2581162249516489,1,	00:06:33.611,0.037109375,0.03369140625,1.017578125,-0.8544921875,0.3662109375,0.54931640625,1.8896484375,-2.0599365234375,142.36083984375,528.0,606.0,-1952.0,0.32220458984375,0.0223388671875,0.00982666015625,0.94635009765625,1.8900404731030904,-2.059341804224959,143.6975936092797,0.3111514440256475,0.02221077435801335,0.01007229598666711,0.9500473721013752,1
1782115902.756419,0.348,1019.0,1023.0,1020.0,1019.0,1018.0,1025.0,1021.0,1022.0,1013.0,1020.0,1019.0,1024.0,1020.0,1021.0,1013.0,1020.0,1021.0,1018.0,1025.0,1021.0,1022.0,1013.0,1020.0,1020.0,1021.0,1019.0,1025.0,1021.0,1022.0,1013.0,1020.0,1020.0,1020.0,1021.0,1019.0,1024.0,1020.0,1022.0,1013.0,1020.0,1019.0,1020.0,1021.0,1019.0,1025.0,1021.0,1022.0,1013.0,1020.0,1019.0,1020.0,1019.0,1020.0,1019.0,1025.0,1021.0,1022.0,1013.0,1019.0,1020.0,1021.0,1019.0,1021.0,1020.0,1026.0,1021.0,1023.0,1013.0,1020.0,1020.0,1021.0,1021.0,1022.0,1020.0,1026.0,1021.0,1023.0,1014.0,1020.0,1019.0,1021.0,1020.0,1021.0,1020.0,1026.0,1020.0,1023.0,1014.0,1020.0,1020.0,1021.0,1021.0,1021.0,1020.0,1025.0,1021.0,1023.0,1014.0,1020.0,1019.0,1021.0,1020.0,1021.0,1020.0,1025.0,1021.0,1023.0,1014.0,1020.0,1020.0,1021.0,1020.0,1022.0,1021.0,1027.0,1021.0,1024.0,1014.0,1020.0,1021.0,1022.0,1022.0,1021.0,1026.0,1021.0,1023.0,1014.0,1020.0,1020.0,1022.0,1021.0,1026.0,1021.0,1023.0,1014.0,1020.0,1021.0,1021.0,1026.0,1022.0,1024.0,1015.0,1020.0,1021.0,1020.0,1026.0,1021.0,1023.0,1014.0,1020.0,1021.0,1020.0,1025.0,1021.0,1023.0,1014.0,1021.0,1019.0,1025.0,1021.0,1021.0,1014.0,1022.0,1020.0,1026.0,1021.0,1024.0,1014.0,1022.0,1021.0,1026.0,1022.0,1024.0,1015.0,1021.0,1020.0,1026.0,1021.0,1023.0,1015.0,1022.0,1021.0,1027.0,1023.0,1026.0,1017.0,1023.0,1023.0,1028.0,1024.0,1029.0,1019.0,1022.0,1023.0,1029.0,1024.0,1029.0,1020.0,1023.0,1023.0,1029.0,1023.0,1028.0,1021.0,1024.0,1024.0,1030.0,1024.0,1029.0,1023.0,1024.0,1024.0,1032.0,1025.0,1029.0,1025.0,1023.0,1023.0,1030.0,1024.0,1027.0,1024.0,1024.0,1025.0,1035.0,1026.0,1029.0,1074.0,1024.0,1024.0,1033.0,1026.0,1029.0,2432,2286,1898,	00:06:33.620,-0.00927734375,0.08349609375,1.01611328125,1.220703125,0.6103515625,0.18310546875,4.6636962890625,0.5328369140625,28.311767578125,661.0,-525.0,-4170.0,0.9688720703125,0.038299560546875,0.01446533203125,0.244171142578125,4.6613076870730215,0.5349666133203556,29.96594763950142,0.9652421633642665,0.03807744668418792,0.015019444553853793,0.2581319244169094,1,	00:06:33.621,0.03857421875,0.03271484375,1.01708984375,-0.79345703125,0.48828125,0.54931640625,1.845703125,-2.1368408203125,142.371826171875,527.0,611.0,-1954.0,0.3221435546875,0.022857666015625,0.00921630859375,0.946380615234375,1.845815155987053,-2.1389024669878696,143.70457586894779,0.3110875183652535,0.022749596912311036,0.00949059945682547,0.9500615455219864,1
1782115902.767813,0.360,1018.0,1024.0,1020.0,1019.0,1018.0,1025.0,1021.0,1022.0,1013.0,1021.0,1019.0,1024.0,1021.0,1022.0,1013.0,1019.0,1020.0,1018.0,1024.0,1021.0,1022.0,1013.0,1020.0,1020.0,1020.0,1019.0,1025.0,1021.0,1022.0,1013.0,1019.0,1020.0,1020.0,1020.0,1018.0,1026.0,1021.0,1022.0,1012.0,1020.0,1019.0,1020.0,1020.0,1019.0,1024.0,1021.0,1022.0,1013.0,1019.0,1019.0,1020.0,1019.0,1020.0,1019.0,1024.0,1021.0,1022.0,1013.0,1020.0,1020.0,1021.0,1020.0,1021.0,1020.0,1025.0,1021.0,1022.0,1013.0,1020.0,1020.0,1021.0,1020.0,1021.0,1020.0,1026.0,1021.0,1023.0,1013.0,1020.0,1020.0,1021.0,1021.0,1021.0,1020.0,1026.0,1021.0,1023.0,1013.0,1020.0,1020.0,1021.0,1020.0,1021.0,1020.0,1026.0,1021.0,1023.0,1013.0,1020.0,1020.0,1020.0,1019.0,1021.0,1020.0,1025.0,1021.0,1023.0,1014.0,1020.0,1020.0,1020.0,1020.0,1022.0,1021.0,1026.0,1021.0,1024.0,1014.0,1020.0,1020.0,1021.0,1021.0,1021.0,1026.0,1021.0,1024.0,1015.0,1020.0,1020.0,1021.0,1020.0,1026.0,1021.0,1023.0,1014.0,1020.0,1022.0,1020.0,1026.0,1022.0,1024.0,1015.0,1020.0,1021.0,1020.0,1026.0,1021.0,1023.0,1015.0,1020.0,1021.0,1019.0,1026.0,1021.0,1022.0,1015.0,1021.0,1020.0,1025.0,1021.0,1021.0,1014.0,1021.0,1020.0,1026.0,1021.0,1024.0,1015.0,1022.0,1020.0,1026.0,1022.0,1025.0,1016.0,1021.0,1020.0,1025.0,1022.0,1024.0,1015.0,1021.0,1021.0,1027.0,1023.0,1025.0,1017.0,1022.0,1023.0,1029.0,1024.0,1029.0,1019.0,1023.0,1023.0,1030.0,1024.0,1028.0,1019.0,1022.0,1023.0,1030.0,1024.0,1028.0,1020.0,1023.0,1024.0,1031.0,1024.0,1029.0,1021.0,1024.0,1024.0,1032.0,1026.0,1029.0,1024.0,1023.0,1023.0,1030.0,1024.0,1027.0,1023.0,1024.0,1025.0,1035.0,1027.0,1030.0,1074.0,1023.0,1024.0,1034.0,1026.0,1028.0,2432,2286,1898,	00:06:33.630,-0.0107421875,0.083984375,1.015625,1.15966796875,0.67138671875,0.18310546875,4.735107421875,0.6097412109375,28.311767578125,666.0,-526.0,-4174.0,0.968841552734375,0.03875732421875,0.015228271484375,0.244140625,4.736114049703066,0.6076734876947855,29.96895566402487,0.9652140494905393,0.038543122827924145,0.01580131534823626,0.2581212598412074,1,	00:06:33.631,0.03759765625,0.0322265625,1.017578125,-0.79345703125,0.54931640625,0.54931640625,1.7633056640625,-2.076416015625,142.3773193359375,525.0,607.0,-1952.0,0.32208251953125,0.022125244140625,0.00872802734375,0.9464111328125,1.764435477027544,-2.078549527457673,143.71293767947992,0.31104499052131446,0.022027720842832426,0.008981635799010729,0.9500974284800688,1
1782115902.776399,0.368,1018.0,1024.0,1021.0,1020.0,1018.0,1025.0,1021.0,1023.0,1013.0,1020.0,1018.0,1024.0,1020.0,1021.0,1012.0,1020.0,1020.0,1019.0,1024.0,1020.0,1022.0,1013.0,1020.0,1020.0,1020.0,1018.0,1025.0,1021.0,1022.0,1012.0,1020.0,1020.0,1020.0,1020.0,1019.0,1024.0,1021.0,1022.0,1013.0,1020.0,1020.0,1020.0,1020.0,1019.0,1025.0,1021.0,1022.0,1013.0,1020.0,1019.0,1020.0,1019.0,1021.0,1019.0,1025.0,1021.0,1022.0,1013.0,1020.0,1021.0,1020.0,1020.0,1021.0,1020.0,1025.0,1021.0,1023.0,1013.0,1020.0,1020.0,1021.0,1020.0,1021.0,1019.0,1026.0,1021.0,1023.0,1013.0,1020.0,1020.0,1020.0,1020.0,1022.0,1020.0,1026.0,1022.0,1023.0,1013.0,1020.0,1020.0,1021.0,1020.0,1021.0,1020.0,1026.0,1022.0,1022.0,1013.0,1020.0,1020.0,1020.0,1020.0,1021.0,1020.0,1026.0,1021.0,1023.0,1014.0,1020.0,1020.0,1020.0,1020.0,1022.0,1021.0,1026.0,1021.0,1024.0,1014.0,1020.0,1021.0,1021.0,1021.0,1021.0,1026.0,1022.0,1024.0,1015.0,1020.0,1019.0,1021.0,1020.0,1026.0,1021.0,1022.0,1014.0,1019.0,1022.0,1020.0,1026.0,1022.0,1023.0,1014.0,1020.0,1022.0,1020.0,1025.0,1021.0,1023.0,1014.0,1020.0,1022.0,1019.0,1025.0,1022.0,1022.0,1014.0,1022.0,1020.0,1025.0,1021.0,1022.0,1013.0,1022.0,1020.0,1026.0,1023.0,1022.0,1014.0,1023.0,1021.0,1026.0,1022.0,1024.0,1015.0,1022.0,1020.0,1026.0,1022.0,1023.0,1014.0,1023.0,1021.0,1027.0,1023.0,1025.0,1016.0,1024.0,1022.0,1029.0,1025.0,1028.0,1019.0,1024.0,1023.0,1029.0,1024.0,1028.0,1019.0,1023.0,1023.0,1029.0,1024.0,1028.0,1020.0,1025.0,1024.0,1030.0,1025.0,1027.0,1022.0,1026.0,1024.0,1031.0,1025.0,1028.0,1024.0,1025.0,1023.0,1031.0,1024.0,1026.0,1023.0,1026.0,1025.0,1035.0,1026.0,1029.0,1074.0,1025.0,1024.0,1033.0,1026.0,1028.0,2433,2286,1897,	00:06:33.640,-0.0107421875,0.0830078125,1.017578125,1.15966796875,0.6103515625,0.244140625,4.658203125,0.6097412109375,28.3172607421875,660.0,-526.0,-4166.0,0.9688720703125,0.0380859375,0.01507568359375,0.244171142578125,4.656576087931664,0.6074687683429831,29.970926297350232,0.9652361208784487,0.03787335212656537,0.015621076773387208,0.2581488371282385,1,	00:06:33.641,0.03857421875,0.0322265625,1.0185546875,-0.8544921875,0.732421875,0.48828125,1.7962646484375,-2.1533203125,142.3828125,527.0,611.0,-1950.0,0.322052001953125,0.0228271484375,0.0087890625,0.9464111328125,1.7989355567877958,-2.152119136477601,143.71645679543238,0.3109959016418782,0.02273094517197584,0.00906833838956496,0.9500961101553864,1
1782115902.787950,0.380,1018.0,1023.0,1020.0,1020.0,1019.0,1024.0,1020.0,1022.0,1013.0,1020.0,1019.0,1024.0,1021.0,1022.0,1013.0,1020.0,1020.0,1019.0,1025.0,1021.0,1022.0,1014.0,1019.0,1020.0,1020.0,1019.0,1024.0,1021.0,1022.0,1013.0,1020.0,1019.0,1021.0,1020.0,1019.0,1024.0,1021.0,1022.0,1013.0,1020.0,1019.0,1020.0,1021.0,1019.0,1025.0,1021.0,1022.0,1013.0,1019.0,1020.0,1020.0,1019.0,1020.0,1019.0,1025.0,1021.0,1022.0,1013.0,1020.0,1020.0,1020.0,1020.0,1021.0,1020.0,1026.0,1020.0,1023.0,1014.0,1020.0,1020.0,1021.0,1020.0,1021.0,1020.0,1025.0,1021.0,1023.0,1013.0,1020.0,1020.0,1021.0,1021.0,1021.0,1021.0,1026.0,1021.0,1023.0,1013.0,1020.0,1020.0,1021.0,1020.0,1021.0,1020.0,1025.0,1021.0,1022.0,1013.0,1020.0,1019.0,1021.0,1019.0,1021.0,1020.0,1025.0,1021.0,1023.0,1013.0,1020.0,1020.0,1021.0,1020.0,1022.0,1021.0,1027.0,1021.0,1024.0,1014.0,1020.0,1021.0,1022.0,1021.0,1020.0,1026.0,1021.0,1024.0,1015.0,1020.0,1020.0,1021.0,1021.0,1026.0,1021.0,1023.0,1014.0,1020.0,1022.0,1020.0,1026.0,1021.0,1024.0,1014.0,1020.0,1022.0,1020.0,1025.0,1021.0,1023.0,1014.0,1020.0,1022.0,1020.0,1026.0,1021.0,1023.0,1014.0,1021.0,1019.0,1025.0,1021.0,1022.0,1013.0,1022.0,1020.0,1026.0,1022.0,1024.0,1014.0,1022.0,1021.0,1026.0,1022.0,1025.0,1015.0,1022.0,1020.0,1026.0,1022.0,1024.0,1015.0,1023.0,1021.0,1027.0,1023.0,1026.0,1016.0,1023.0,1022.0,1029.0,1025.0,1029.0,1018.0,1023.0,1024.0,1030.0,1024.0,1029.0,1019.0,1023.0,1022.0,1029.0,1025.0,1029.0,1020.0,1024.0,1024.0,1030.0,1025.0,1029.0,1022.0,1025.0,1024.0,1031.0,1026.0,1029.0,1024.0,1023.0,1023.0,1030.0,1024.0,1026.0,1023.0,1025.0,1025.0,1034.0,1026.0,1030.0,1073.0,1023.0,1024.0,1032.0,1026.0,1028.0,2433,2286,1897,	00:06:33.651,-0.0107421875,0.08447265625,1.0166015625,1.15966796875,0.6103515625,0.244140625,4.757080078125,0.6097412109375,28.3172607421875,669.0,-526.0,-4173.0,0.96881103515625,0.038970947265625,0.01531982421875,0.24420166015625,4.759489478795149,0.6093050511935156,29.974824603712303,0.965193025867305,0.03873552127132058,0.015869693905716718,0.2581668743744899,1,	00:06:33.652,0.037109375,0.03173828125,1.02197265625,-0.732421875,0.9765625,0.48828125,1.768798828125,-2.054443359375,142.3883056640625,528.0,609.0,-1954.0,0.322021484375,0.021942138671875,0.008819580078125,0.946441650390625,1.7672332769934784,-2.0541710972643883,143.7225286658261,0.3109692424256249,0.02183246686709699,0.009072945251792534,0.9501258628835382,1
1782115902.796665,0.389,1018.0,1023.0,1020.0,1019.0,1018.0,1024.0,1020.0,1021.0,1014.0,1019.0,1018.0,1024.0,1021.0,1022.0,1013.0,1020.0,1020.0,1019.0,1024.0,1021.0,1022.0,1013.0,1020.0,1019.0,1020.0,1019.0,1024.0,1021.0,1022.0,1013.0,1020.0,1019.0,1021.0,1020.0,1019.0,1025.0,1021.0,1022.0,1014.0,1020.0,1020.0,1021.0,1020.0,1019.0,1025.0,1021.0,1022.0,1013.0,1020.0,1019.0,1020.0,1019.0,1021.0,1019.0,1025.0,1021.0,1022.0,1014.0,1020.0,1020.0,1020.0,1020.0,1021.0,1020.0,1025.0,1021.0,1023.0,1014.0,1020.0,1020.0,1021.0,1020.0,1021.0,1020.0,1025.0,1021.0,1024.0,1013.0,1020.0,1020.0,1021.0,1020.0,1021.0,1020.0,1025.0,1021.0,1023.0,1014.0,1020.0,1020.0,1021.0,1021.0,1021.0,1020.0,1026.0,1021.0,1023.0,1014.0,1020.0,1019.0,1020.0,1019.0,1021.0,1020.0,1026.0,1021.0,1023.0,1014.0,1020.0,1020.0,1021.0,1020.0,1021.0,1021.0,1026.0,1021.0,1024.0,1014.0,1020.0,1021.0,1022.0,1021.0,1020.0,1027.0,1021.0,1024.0,1015.0,1020.0,1019.0,1021.0,1020.0,1026.0,1022.0,1022.0,1015.0,1020.0,1021.0,1020.0,1026.0,1021.0,1024.0,1015.0,1020.0,1021.0,1020.0,1026.0,1021.0,1023.0,1015.0,1020.0,1021.0,1019.0,1025.0,1021.0,1023.0,1015.0,1020.0,1019.0,1025.0,1021.0,1022.0,1014.0,1021.0,1019.0,1026.0,1021.0,1023.0,1016.0,1022.0,1021.0,1027.0,1022.0,1025.0,1016.0,1020.0,1020.0,1026.0,1021.0,1023.0,1015.0,1021.0,1021.0,1028.0,1023.0,1025.0,1017.0,1022.0,1023.0,1030.0,1024.0,1029.0,1019.0,1022.0,1023.0,1030.0,1025.0,1029.0,1020.0,1022.0,1023.0,1030.0,1024.0,1029.0,1020.0,1024.0,1024.0,1031.0,1025.0,1029.0,1023.0,1023.0,1024.0,1031.0,1026.0,1029.0,1024.0,1022.0,1023.0,1031.0,1025.0,1027.0,1023.0,1024.0,1025.0,1035.0,1026.0,1029.0,1073.0,1022.0,1024.0,1033.0,1025.0,1029.0,2434,2286,1897,	00:06:33.661,-0.01025390625,0.0849609375,1.015625,1.03759765625,0.54931640625,0.30517578125,4.822998046875,0.538330078125,28.32275390625,660.0,-523.0,-4167.0,0.968780517578125,0.039642333984375,0.01483154296875,0.2442626953125,4.821468798833665,0.5388118283291762,29.978831957250183,0.9651591869716386,0.039416091391912524,0.01541702903945718,0.2582177971388237,1,	00:06:33.662,0.03662109375,0.0322265625,1.0185546875,-0.6103515625,1.15966796875,0.48828125,1.8511962890625,-2.0489501953125,142.3883056640625,528.0,613.0,-1950.0,0.321990966796875,0.02215576171875,0.009521484375,0.946441650390625,1.8522716528346697,-2.050702877072164,143.7244989337523,0.31093725224176816,0.022034311985161585,0.009787837723062215,0.9501245773562469,1
1782115902.807323,0.399,1018.0,1023.0,1020.0,1019.0,1018.0,1024.0,1020.0,1022.0,1014.0,1020.0,1019.0,1024.0,1020.0,1022.0,1014.0,1019.0,1020.0,1019.0,1025.0,1020.0,1022.0,1014.0,1020.0,1020.0,1020.0,1019.0,1025.0,1021.0,1023.0,1013.0,1020.0,1019.0,1020.0,1021.0,1019.0,1025.0,1021.0,1023.0,1013.0,1020.0,1019.0,1020.0,1020.0,1019.0,1025.0,1021.0,1023.0,1013.0,1020.0,1019.0,1020.0,1019.0,1021.0,1020.0,1025.0,1021.0,1022.0,1013.0,1020.0,1020.0,1020.0,1020.0,1021.0,1020.0,1026.0,1021.0,1023.0,1014.0,1020.0,1020.0,1021.0,1020.0,1021.0,1019.0,1026.0,1021.0,1024.0,1014.0,1020.0,1021.0,1021.0,1020.0,1021.0,1020.0,1027.0,1021.0,1023.0,1014.0,1020.0,1020.0,1021.0,1021.0,1021.0,1020.0,1026.0,1021.0,1023.0,1014.0,1020.0,1019.0,1020.0,1019.0,1021.0,1020.0,1025.0,1021.0,1023.0,1014.0,1020.0,1019.0,1020.0,1019.0,1022.0,1021.0,1026.0,1022.0,1024.0,1015.0,1020.0,1021.0,1021.0,1021.0,1021.0,1026.0,1021.0,1024.0,1015.0,1021.0,1019.0,1021.0,1021.0,1025.0,1021.0,1023.0,1015.0,1020.0,1021.0,1021.0,1026.0,1021.0,1024.0,1014.0,1020.0,1021.0,1020.0,1025.0,1021.0,1023.0,1015.0,1020.0,1021.0,1020.0,1025.0,1021.0,1023.0,1015.0,1021.0,1020.0,1025.0,1021.0,1021.0,1014.0,1021.0,1021.0,1026.0,1021.0,1024.0,1015.0,1021.0,1021.0,1027.0,1022.0,1024.0,1016.0,1021.0,1021.0,1026.0,1021.0,1024.0,1015.0,1022.0,1021.0,1027.0,1023.0,1026.0,1017.0,1022.0,1023.0,1029.0,1024.0,1029.0,1019.0,1022.0,1024.0,1030.0,1025.0,1030.0,1019.0,1022.0,1024.0,1029.0,1024.0,1028.0,1020.0,1023.0,1024.0,1030.0,1025.0,1029.0,1022.0,1023.0,1024.0,1031.0,1026.0,1029.0,1024.0,1023.0,1023.0,1029.0,1024.0,1027.0,1023.0,1024.0,1025.0,1033.0,1027.0,1030.0,1073.0,1023.0,1024.0,1032.0,1026.0,1029.0,2434,2286,1898,	00:06:33.671,-0.01025390625,0.08544921875,1.0166015625,0.732421875,0.54931640625,0.48828125,4.7900390625,0.626220703125,28.3282470703125,668.0,-527.0,-4170.0,0.968780517578125,0.0391845703125,0.015533447265625,0.2442626953125,4.790935145933679,0.6273114560782949,29.983779481576097,0.9651630632274526,0.03895849134959148,0.01609522890491775,0.25823137094408705,1,	00:06:33.672,0.03662109375,0.03369140625,1.01611328125,-0.67138671875,1.28173828125,0.42724609375,1.93359375,-2.0599365234375,142.393798828125,529.0,609.0,-1955.0,0.32196044921875,0.0224609375,0.010162353515625,0.946441650390625,1.934061778362487,-2.06121053304236,143.72600579871695,0.3109069695483299,0.022343206842361997,0.01043772060236914,0.9501203562617211,1
1782115902.817875,0.410,1018.0,1023.0,1020.0,1019.0,1018.0,1024.0,1021.0,1022.0,1014.0,1019.0,1019.0,1025.0,1020.0,1022.0,1014.0,1020.0,1020.0,1019.0,1024.0,1021.0,1022.0,1013.0,1020.0,1020.0,1020.0,1019.0,1024.0,1021.0,1023.0,1013.0,1020.0,1019.0,1019.0,1020.0,1019.0,1024.0,1021.0,1022.0,1013.0,1020.0,1019.0,1020.0,1020.0,1019.0,1024.0,1021.0,1022.0,1013.0,1020.0,1019.0,1020.0,1019.0,1020.0,1019.0,1025.0,1021.0,1023.0,1014.0,1020.0,1020.0,1020.0,1020.0,1021.0,1020.0,1025.0,1022.0,1023.0,1013.0,1020.0,1020.0,1020.0,1020.0,1022.0,1020.0,1025.0,1021.0,1023.0,1014.0,1020.0,1020.0,1021.0,1021.0,1021.0,1020.0,1026.0,1022.0,1023.0,1014.0,1020.0,1021.0,1020.0,1021.0,1021.0,1020.0,1025.0,1021.0,1023.0,1013.0,1020.0,1019.0,1020.0,1019.0,1021.0,1020.0,1026.0,1021.0,1023.0,1014.0,1019.0,1019.0,1020.0,1019.0,1022.0,1020.0,1026.0,1022.0,1024.0,1014.0,1020.0,1020.0,1021.0,1022.0,1020.0,1027.0,1022.0,1024.0,1014.0,1020.0,1020.0,1021.0,1020.0,1026.0,1021.0,1023.0,1014.0,1020.0,1022.0,1020.0,1026.0,1022.0,1024.0,1014.0,1020.0,1021.0,1020.0,1026.0,1021.0,1024.0,1014.0,1020.0,1021.0,1020.0,1025.0,1022.0,1023.0,1014.0,1022.0,1020.0,1025.0,1021.0,1021.0,1013.0,1021.0,1020.0,1026.0,1022.0,1024.0,1015.0,1022.0,1021.0,1026.0,1023.0,1024.0,1016.0,1021.0,1021.0,1025.0,1022.0,1023.0,1015.0,1022.0,1022.0,1027.0,1023.0,1025.0,1016.0,1023.0,1023.0,1029.0,1025.0,1029.0,1019.0,1023.0,1024.0,1030.0,1025.0,1029.0,1020.0,1023.0,1024.0,1029.0,1024.0,1029.0,1020.0,1024.0,1024.0,1030.0,1025.0,1029.0,1022.0,1024.0,1025.0,1031.0,1026.0,1029.0,1024.0,1022.0,1023.0,1030.0,1025.0,1027.0,1023.0,1024.0,1026.0,1034.0,1027.0,1029.0,1072.0,1023.0,1024.0,1032.0,1027.0,1029.0,2435,2286,1898,	00:06:33.682,-0.00927734375,0.08544921875,1.01611328125,0.18310546875,0.54931640625,0.54931640625,4.8065185546875,0.5438232421875,28.333740234375,662.0,-525.0,-4167.0,0.968780517578125,0.03948974609375,0.01483154296875,0.244354248046875,4.806501172233735,0.5416783507536019,29.989850624363772,0.9651396508842952,0.03928207404012669,0.015411219657899721,0.25831157012163125,1,	00:06:33.683,0.03564453125,0.03271484375,1.017578125,-0.79345703125,1.46484375,0.3662109375,1.845703125,-1.99951171875,142.3992919921875,526.0,612.0,-1951.0,0.321929931640625,0.021697998046875,0.0096435546875,0.94647216796875,1.8475970098212717,-1.9992612394683795,143.73293545029262,0.3108775450715432,0.02159445450571008,0.009890497584061958,0.9501531505828054,1
1782115902.827397,0.419,1018.0,1023.0,1020.0,1020.0,1018.0,1024.0,1021.0,1022.0,1014.0,1020.0,1018.0,1024.0,1021.0,1022.0,1013.0,1020.0,1020.0,1019.0,1024.0,1022.0,1022.0,1013.0,1020.0,1020.0,1020.0,1019.0,1024.0,1021.0,1022.0,1013.0,1019.0,1019.0,1019.0,1021.0,1019.0,1024.0,1021.0,1022.0,1013.0,1020.0,1019.0,1020.0,1020.0,1019.0,1025.0,1022.0,1022.0,1013.0,1019.0,1019.0,1020.0,1019.0,1021.0,1019.0,1025.0,1021.0,1022.0,1013.0,1020.0,1019.0,1021.0,1021.0,1021.0,1020.0,1025.0,1021.0,1023.0,1013.0,1020.0,1020.0,1020.0,1020.0,1021.0,1020.0,1025.0,1021.0,1023.0,1013.0,1020.0,1020.0,1021.0,1020.0,1021.0,1020.0,1025.0,1021.0,1023.0,1014.0,1020.0,1020.0,1020.0,1021.0,1021.0,1021.0,1025.0,1022.0,1023.0,1013.0,1020.0,1019.0,1020.0,1019.0,1021.0,1020.0,1026.0,1021.0,1023.0,1013.0,1019.0,1020.0,1020.0,1020.0,1022.0,1021.0,1026.0,1021.0,1024.0,1014.0,1019.0,1020.0,1021.0,1022.0,1021.0,1026.0,1022.0,1024.0,1014.0,1020.0,1020.0,1022.0,1021.0,1026.0,1021.0,1022.0,1014.0,1019.0,1022.0,1020.0,1026.0,1022.0,1024.0,1014.0,1020.0,1022.0,1021.0,1026.0,1022.0,1023.0,1014.0,1020.0,1021.0,1021.0,1025.0,1021.0,1023.0,1014.0,1021.0,1020.0,1025.0,1022.0,1022.0,1013.0,1022.0,1020.0,1026.0,1022.0,1024.0,1014.0,1022.0,1021.0,1026.0,1023.0,1024.0,1015.0,1021.0,1020.0,1025.0,1022.0,1024.0,1014.0,1023.0,1022.0,1027.0,1023.0,1026.0,1016.0,1023.0,1022.0,1028.0,1024.0,1030.0,1018.0,1024.0,1024.0,1029.0,1024.0,1030.0,1019.0,1023.0,1024.0,1029.0,1024.0,1030.0,1020.0,1024.0,1024.0,1030.0,1025.0,1030.0,1022.0,1024.0,1025.0,1032.0,1026.0,1031.0,1024.0,1024.0,1023.0,1030.0,1024.0,1028.0,1023.0,1025.0,1026.0,1034.0,1026.0,1030.0,1072.0,1024.0,1025.0,1032.0,1026.0,1029.0,2436,2286,1897,	00:06:33.692,-0.01025390625,0.08447265625,1.01708984375,-0.30517578125,0.48828125,0.54931640625,4.72412109375,0.59326171875,28.3392333984375,658.0,-525.0,-4164.0,0.968780517578125,0.0386962890625,0.015106201171875,0.244384765625,4.724296193990463,0.591832809264396,29.994949376472736,0.965158666334205,0.038475770713466535,0.015650010920071303,0.25834751987620314,1,	00:06:33.693,0.03759765625,0.03173828125,1.01513671875,-0.79345703125,1.708984375,0.30517578125,1.8017578125,-2.0654296875,142.40478515625,531.0,610.0,-1952.0,0.321868896484375,0.022125244140625,0.009063720703125,0.94647216796875,1.800515833037878,-2.065226134976187,143.7379271551823,0.31083323070499635,0.0220131775939439,0.009321811080843687,0.9501637893226016,1
1782115902.838439,0.430,1018.0,1023.0,1020.0,1019.0,1018.0,1025.0,1021.0,1022.0,1014.0,1020.0,1018.0,1024.0,1021.0,1021.0,1014.0,1020.0,1020.0,1019.0,1025.0,1021.0,1022.0,1013.0,1020.0,1020.0,1020.0,1019.0,1024.0,1021.0,1022.0,1014.0,1019.0,1018.0,1020.0,1021.0,1019.0,1025.0,1020.0,1022.0,1013.0,1020.0,1019.0,1020.0,1021.0,1020.0,1024.0,1021.0,1022.0,1013.0,1020.0,1019.0,1020.0,1019.0,1021.0,1019.0,1025.0,1021.0,1022.0,1013.0,1020.0,1020.0,1020.0,1020.0,1021.0,1019.0,1025.0,1022.0,1023.0,1014.0,1020.0,1020.0,1020.0,1020.0,1022.0,1021.0,1026.0,1021.0,1023.0,1014.0,1020.0,1020.0,1021.0,1020.0,1022.0,1020.0,1025.0,1021.0,1023.0,1014.0,1020.0,1020.0,1021.0,1020.0,1022.0,1020.0,1026.0,1021.0,1023.0,1014.0,1020.0,1020.0,1021.0,1019.0,1021.0,1020.0,1025.0,1021.0,1023.0,1014.0,1019.0,1020.0,1020.0,1019.0,1022.0,1021.0,1026.0,1021.0,1024.0,1015.0,1020.0,1021.0,1021.0,1021.0,1021.0,1026.0,1022.0,1023.0,1014.0,1020.0,1020.0,1022.0,1021.0,1026.0,1021.0,1023.0,1014.0,1019.0,1022.0,1020.0,1026.0,1022.0,1023.0,1014.0,1019.0,1021.0,1020.0,1026.0,1021.0,1023.0,1014.0,1020.0,1021.0,1020.0,1026.0,1021.0,1023.0,1013.0,1021.0,1020.0,1025.0,1021.0,1022.0,1014.0,1022.0,1020.0,1026.0,1021.0,1023.0,1015.0,1022.0,1021.0,1026.0,1022.0,1025.0,1016.0,1021.0,1020.0,1026.0,1022.0,1024.0,1015.0,1022.0,1021.0,1027.0,1023.0,1026.0,1016.0,1023.0,1023.0,1029.0,1024.0,1030.0,1019.0,1023.0,1024.0,1030.0,1024.0,1031.0,1019.0,1023.0,1023.0,1030.0,1024.0,1029.0,1020.0,1024.0,1024.0,1031.0,1025.0,1028.0,1022.0,1024.0,1024.0,1032.0,1026.0,1029.0,1023.0,1023.0,1023.0,1030.0,1024.0,1026.0,1023.0,1025.0,1025.0,1034.0,1026.0,1029.0,1072.0,1024.0,1024.0,1033.0,1026.0,1028.0,2437,2285,1897,	00:06:33.702,-0.009765625,0.08544921875,1.01611328125,-0.42724609375,0.54931640625,0.54931640625,4.801025390625,0.5548095703125,28.3447265625,672.0,-527.0,-4169.0,0.96875,0.0394287109375,0.01495361328125,0.24444580078125,4.801163177080377,0.5545325806660043,30.001688749733454,0.9651154873686965,0.039206493697608806,0.015511489656002832,0.2584073152634705,1,	00:06:33.703,0.037109375,0.0302734375,1.01513671875,-0.67138671875,1.89208984375,0.30517578125,1.7083740234375,-2.0709228515625,142.4102783203125,531.0,608.0,-1954.0,0.32183837890625,0.02191162109375,0.008270263671875,0.946502685546875,1.7057527327286086,-2.072511344630301,143.74474865140525,0.31079350917359017,0.02181601208539283,0.008517560434511098,0.9501888798741542,1
1782115902.847487,0.439,1018.0,1024.0,1021.0,1020.0,1018.0,1024.0,1021.0,1022.0,1014.0,1020.0,1019.0,1024.0,1020.0,1022.0,1013.0,1020.0,1020.0,1019.0,1025.0,1021.0,1023.0,1014.0,1020.0,1020.0,1021.0,1018.0,1025.0,1020.0,1022.0,1013.0,1020.0,1019.0,1020.0,1021.0,1019.0,1025.0,1020.0,1022.0,1013.0,1019.0,1019.0,1020.0,1021.0,1019.0,1025.0,1020.0,1022.0,1013.0,1019.0,1020.0,1020.0,1019.0,1021.0,1019.0,1025.0,1021.0,1022.0,1014.0,1019.0,1020.0,1021.0,1020.0,1021.0,1020.0,1026.0,1021.0,1023.0,1014.0,1020.0,1020.0,1020.0,1021.0,1022.0,1020.0,1027.0,1021.0,1023.0,1014.0,1020.0,1020.0,1021.0,1021.0,1021.0,1021.0,1026.0,1020.0,1023.0,1014.0,1020.0,1020.0,1020.0,1020.0,1021.0,1020.0,1027.0,1021.0,1023.0,1014.0,1020.0,1019.0,1020.0,1020.0,1020.0,1020.0,1027.0,1021.0,1023.0,1014.0,1020.0,1019.0,1020.0,1020.0,1021.0,1020.0,1027.0,1021.0,1024.0,1015.0,1020.0,1021.0,1021.0,1021.0,1021.0,1028.0,1021.0,1023.0,1015.0,1020.0,1019.0,1021.0,1020.0,1026.0,1022.0,1022.0,1015.0,1020.0,1021.0,1020.0,1027.0,1021.0,1024.0,1015.0,1020.0,1021.0,1020.0,1026.0,1021.0,1022.0,1014.0,1020.0,1022.0,1020.0,1026.0,1021.0,1023.0,1014.0,1021.0,1019.0,1026.0,1021.0,1021.0,1013.0,1022.0,1020.0,1027.0,1022.0,1023.0,1014.0,1022.0,1020.0,1028.0,1022.0,1024.0,1016.0,1021.0,1020.0,1026.0,1021.0,1022.0,1015.0,1023.0,1020.0,1028.0,1022.0,1025.0,1017.0,1024.0,1022.0,1029.0,1024.0,1028.0,1019.0,1024.0,1024.0,1031.0,1025.0,1030.0,1020.0,1022.0,1022.0,1030.0,1024.0,1028.0,1020.0,1024.0,1024.0,1032.0,1025.0,1029.0,1023.0,1024.0,1024.0,1032.0,1026.0,1029.0,1025.0,1023.0,1023.0,1031.0,1024.0,1026.0,1024.0,1025.0,1024.0,1036.0,1026.0,1029.0,1074.0,1023.0,1024.0,1033.0,1025.0,1028.0,2437,2285,1897,	00:06:33.712,-0.01318359375,0.0849609375,1.01806640625,-0.244140625,0.54931640625,0.54931640625,4.7845458984375,0.648193359375,28.3502197265625,661.0,-525.0,-4161.0,0.96875,0.0390625,0.015716552734375,0.24444580078125,4.783762828301964,0.6499814277130126,30.007462878967278,0.965113181891854,0.03884354307294403,0.01627801221611788,0.25842358951615346,1,	00:06:33.713,0.03759765625,0.03076171875,1.0166015625,-0.67138671875,2.0751953125,0.30517578125,1.746826171875,-2.13134765625,142.4102783203125,528.0,612.0,-1952.0,0.321807861328125,0.022491455078125,0.008453369140625,0.946502685546875,1.7469424346181057,-2.129840697099608,143.7466612551365,0.31075968767035245,0.022402862168845614,0.008703730103429248,0.950184599626807,1
1782115902.859260,0.451,1018.0,1023.0,1020.0,1020.0,1018.0,1025.0,1020.0,1022.0,1014.0,1020.0,1019.0,1025.0,1021.0,1021.0,1013.0,1019.0,1020.0,1019.0,1024.0,1021.0,1022.0,1013.0,1020.0,1020.0,1020.0,1018.0,1025.0,1021.0,1022.0,1013.0,1019.0,1019.0,1020.0,1021.0,1018.0,1025.0,1021.0,1022.0,1013.0,1019.0,1019.0,1020.0,1021.0,1019.0,1026.0,1021.0,1022.0,1013.0,1019.0,1020.0,1020.0,1019.0,1021.0,1019.0,1025.0,1021.0,1022.0,1014.0,1020.0,1019.0,1021.0,1020.0,1022.0,1020.0,1026.0,1021.0,1023.0,1013.0,1019.0,1020.0,1021.0,1021.0,1022.0,1019.0,1026.0,1021.0,1023.0,1013.0,1019.0,1020.0,1021.0,1021.0,1021.0,1020.0,1026.0,1021.0,1023.0,1014.0,1020.0,1020.0,1021.0,1020.0,1021.0,1020.0,1026.0,1021.0,1023.0,1014.0,1020.0,1019.0,1020.0,1020.0,1021.0,1020.0,1026.0,1021.0,1023.0,1014.0,1019.0,1020.0,1020.0,1020.0,1022.0,1020.0,1026.0,1021.0,1024.0,1015.0,1019.0,1020.0,1021.0,1023.0,1020.0,1027.0,1021.0,1024.0,1014.0,1019.0,1020.0,1022.0,1020.0,1026.0,1021.0,1023.0,1014.0,1020.0,1022.0,1020.0,1026.0,1021.0,1023.0,1014.0,1020.0,1022.0,1020.0,1026.0,1021.0,1023.0,1015.0,1020.0,1021.0,1019.0,1026.0,1021.0,1022.0,1014.0,1022.0,1019.0,1025.0,1021.0,1021.0,1014.0,1022.0,1020.0,1026.0,1022.0,1023.0,1014.0,1022.0,1020.0,1026.0,1022.0,1024.0,1016.0,1022.0,1019.0,1025.0,1021.0,1022.0,1015.0,1023.0,1021.0,1027.0,1023.0,1025.0,1016.0,1023.0,1022.0,1029.0,1025.0,1029.0,1018.0,1024.0,1024.0,1030.0,1024.0,1029.0,1019.0,1024.0,1023.0,1030.0,1025.0,1029.0,1020.0,1025.0,1024.0,1031.0,1025.0,1029.0,1022.0,1025.0,1024.0,1032.0,1026.0,1029.0,1023.0,1024.0,1023.0,1030.0,1024.0,1027.0,1022.0,1025.0,1025.0,1036.0,1026.0,1029.0,1072.0,1025.0,1024.0,1034.0,1026.0,1028.0,2438,2285,1898,	00:06:33.722,-0.01025390625,0.08447265625,1.01708984375,-0.3662109375,0.8544921875,0.54931640625,4.7406005859375,0.5767822265625,28.355712890625,670.0,-526.0,-4168.0,0.96875,0.03887939453125,0.014984130859375,0.244537353515625,4.740206105391154,0.5756411542379745,30.01322503677189,0.9651112821572108,0.0386438545395412,0.015555683517585447,0.25850509911700426,1,	00:06:33.723,0.037109375,0.03125,1.01806640625,-0.48828125,2.197265625,0.3662109375,1.7633056640625,-2.021484375,142.415771484375,530.0,610.0,-1952.0,0.321807861328125,0.021636962890625,0.0089111328125,0.946533203125,1.7649148030977297,-2.0192840577680555,143.75015653874487,0.31074673947440956,0.021534757286353772,0.009153747157031933,0.950204676397473,1
1782115902.869951,0.462,1019.0,1024.0,1020.0,1020.0,1018.0,1024.0,1020.0,1022.0,1013.0,1020.0,1019.0,1024.0,1020.0,1022.0,1013.0,1020.0,1020.0,1018.0,1025.0,1021.0,1022.0,1013.0,1020.0,1019.0,1021.0,1019.0,1025.0,1021.0,1021.0,1013.0,1019.0,1020.0,1020.0,1021.0,1019.0,1024.0,1021.0,1022.0,1013.0,1020.0,1019.0,1020.0,1021.0,1019.0,1025.0,1021.0,1022.0,1013.0,1019.0,1020.0,1020.0,1020.0,1021.0,1019.0,1025.0,1021.0,1023.0,1013.0,1020.0,1021.0,1020.0,1020.0,1022.0,1019.0,1025.0,1021.0,1023.0,1013.0,1020.0,1020.0,1021.0,1020.0,1022.0,1020.0,1025.0,1021.0,1023.0,1013.0,1020.0,1020.0,1021.0,1021.0,1021.0,1019.0,1026.0,1021.0,1023.0,1013.0,1019.0,1020.0,1020.0,1021.0,1022.0,1020.0,1025.0,1021.0,1023.0,1013.0,1020.0,1020.0,1020.0,1021.0,1021.0,1019.0,1026.0,1022.0,1023.0,1013.0,1020.0,1020.0,1020.0,1020.0,1022.0,1020.0,1026.0,1022.0,1024.0,1014.0,1020.0,1020.0,1022.0,1022.0,1020.0,1026.0,1022.0,1024.0,1014.0,1020.0,1020.0,1022.0,1020.0,1025.0,1021.0,1023.0,1014.0,1019.0,1022.0,1020.0,1026.0,1022.0,1024.0,1014.0,1020.0,1022.0,1020.0,1026.0,1021.0,1023.0,1014.0,1019.0,1022.0,1019.0,1026.0,1021.0,1022.0,1013.0,1021.0,1019.0,1025.0,1021.0,1022.0,1012.0,1022.0,1019.0,1026.0,1022.0,1023.0,1014.0,1022.0,1020.0,1026.0,1022.0,1024.0,1015.0,1021.0,1020.0,1026.0,1022.0,1023.0,1014.0,1023.0,1021.0,1027.0,1023.0,1026.0,1016.0,1023.0,1022.0,1028.0,1024.0,1029.0,1018.0,1023.0,1023.0,1030.0,1024.0,1030.0,1018.0,1023.0,1023.0,1030.0,1024.0,1029.0,1018.0,1025.0,1024.0,1031.0,1025.0,1029.0,1022.0,1025.0,1024.0,1031.0,1026.0,1029.0,1024.0,1024.0,1022.0,1030.0,1025.0,1026.0,1023.0,1026.0,1025.0,1035.0,1027.0,1029.0,1071.0,1024.0,1024.0,1033.0,1026.0,1028.0,2439,2284,1897,	00:06:33.733,-0.01123046875,0.0849609375,1.0166015625,-0.54931640625,0.67138671875,0.67138671875,4.7845458984375,0.6591796875,28.36669921875,663.0,-525.0,-4161.0,0.968719482421875,0.0390625,0.015777587890625,0.24456787109375,4.785925036957173,0.6576952841209395,30.021017322930245,0.965082231752872,0.038842392716163264,0.016352442255634484,0.25853462459650467,1,	00:06:33.734,0.0361328125,0.0322265625,1.01806640625,-0.42724609375,2.5634765625,0.42724609375,1.8511962890625,-2.0159912109375,142.415771484375,531.0,613.0,-1952.0,0.32177734375,0.0218505859375,0.009613037109375,0.946533203125,1.8492397296323777,-2.0165906223325045,143.75209337204464,0.3107152372875597,0.021740925238668322,0.009860659136146125,0.9502032103126693,1
1782115902.878644,0.471,1019.0,1023.0,1020.0,1020.0,1018.0,1024.0,1020.0,1022.0,1014.0,1020.0,1018.0,1024.0,1021.0,1022.0,1013.0,1020.0,1020.0,1018.0,1024.0,1021.0,1023.0,1013.0,1020.0,1020.0,1021.0,1019.0,1024.0,1021.0,1022.0,1013.0,1020.0,1019.0,1020.0,1021.0,1018.0,1024.0,1021.0,1022.0,1013.0,1019.0,1019.0,1020.0,1021.0,1018.0,1024.0,1021.0,1022.0,1013.0,1020.0,1020.0,1020.0,1019.0,1021.0,1018.0,1025.0,1021.0,1023.0,1013.0,1019.0,1020.0,1020.0,1020.0,1021.0,1019.0,1025.0,1021.0,1023.0,1013.0,1019.0,1020.0,1021.0,1020.0,1022.0,1019.0,1025.0,1021.0,1023.0,1013.0,1020.0,1020.0,1021.0,1021.0,1022.0,1020.0,1025.0,1021.0,1023.0,1013.0,1020.0,1020.0,1021.0,1020.0,1022.0,1019.0,1025.0,1021.0,1022.0,1013.0,1020.0,1020.0,1021.0,1020.0,1022.0,1019.0,1025.0,1021.0,1023.0,1013.0,1020.0,1020.0,1020.0,1019.0,1023.0,1021.0,1026.0,1022.0,1024.0,1014.0,1019.0,1020.0,1021.0,1023.0,1020.0,1026.0,1022.0,1024.0,1014.0,1019.0,1020.0,1022.0,1020.0,1025.0,1022.0,1023.0,1013.0,1020.0,1022.0,1020.0,1026.0,1022.0,1023.0,1014.0,1019.0,1023.0,1020.0,1025.0,1021.0,1023.0,1013.0,1019.0,1022.0,1019.0,1025.0,1021.0,1023.0,1013.0,1022.0,1019.0,1025.0,1021.0,1022.0,1013.0,1023.0,1020.0,1025.0,1021.0,1023.0,1014.0,1023.0,1020.0,1026.0,1022.0,1024.0,1014.0,1022.0,1019.0,1025.0,1021.0,1023.0,1014.0,1023.0,1021.0,1027.0,1023.0,1025.0,1016.0,1024.0,1022.0,1028.0,1024.0,1028.0,1017.0,1025.0,1023.0,1030.0,1025.0,1029.0,1018.0,1025.0,1022.0,1029.0,1024.0,1028.0,1019.0,1026.0,1024.0,1031.0,1026.0,1029.0,1021.0,1026.0,1024.0,1032.0,1026.0,1029.0,1023.0,1024.0,1022.0,1030.0,1025.0,1026.0,1022.0,1026.0,1025.0,1036.0,1027.0,1028.0,1071.0,1024.0,1023.0,1034.0,1026.0,1027.0,2441,2284,1897,	00:06:33.743,-0.01220703125,0.0859375,1.01611328125,-0.6103515625,0.91552734375,0.8544921875,4.8614501953125,0.714111328125,28.377685546875,671.0,-525.0,-4169.0,0.968658447265625,0.039581298828125,0.01641845703125,0.24462890625,4.85891990835761,0.7120802349200493,30.03123769991789,0.9650367066969148,0.03933270582864787,0.016978586521212397,0.25859006280116664,1,	00:06:33.744,0.037109375,0.03271484375,1.017578125,-0.3662109375,3.11279296875,0.42724609375,1.834716796875,-2.076416015625,142.4212646484375,532.0,609.0,-1950.0,0.32171630859375,0.022308349609375,0.00933837890625,0.946533203125,1.8353281795581147,-2.0766892840743085,143.75773265934586,0.31066021796582627,0.022200981310749997,0.009583154539910396,0.9502134015847856,1
1782115902.890006,0.482,1019.0,1024.0,1021.0,1020.0,1018.0,1025.0,1021.0,1022.0,1013.0,1020.0,1019.0,1024.0,1021.0,1022.0,1013.0,1020.0,1020.0,1019.0,1025.0,1021.0,1022.0,1012.0,1020.0,1019.0,1021.0,1019.0,1025.0,1021.0,1022.0,1013.0,1020.0,1019.0,1020.0,1020.0,1019.0,1024.0,1021.0,1022.0,1012.0,1020.0,1019.0,1020.0,1021.0,1019.0,1024.0,1022.0,1022.0,1013.0,1019.0,1019.0,1020.0,1019.0,1021.0,1019.0,1024.0,1021.0,1022.0,1013.0,1019.0,1020.0,1020.0,1021.0,1022.0,1020.0,1025.0,1021.0,1023.0,1013.0,1019.0,1020.0,1020.0,1020.0,1022.0,1020.0,1025.0,1021.0,1023.0,1013.0,1020.0,1020.0,1020.0,1020.0,1022.0,1020.0,1025.0,1021.0,1022.0,1013.0,1020.0,1020.0,1021.0,1021.0,1022.0,1020.0,1025.0,1021.0,1022.0,1013.0,1020.0,1019.0,1020.0,1020.0,1022.0,1021.0,1025.0,1022.0,1023.0,1013.0,1020.0,1020.0,1020.0,1020.0,1023.0,1020.0,1026.0,1021.0,1024.0,1014.0,1020.0,1020.0,1022.0,1023.0,1020.0,1026.0,1022.0,1024.0,1014.0,1020.0,1020.0,1022.0,1021.0,1025.0,1021.0,1022.0,1014.0,1019.0,1022.0,1020.0,1025.0,1021.0,1023.0,1014.0,1019.0,1022.0,1020.0,1025.0,1022.0,1023.0,1013.0,1019.0,1021.0,1019.0,1025.0,1022.0,1022.0,1013.0,1022.0,1019.0,1025.0,1021.0,1021.0,1012.0,1022.0,1020.0,1026.0,1022.0,1023.0,1014.0,1022.0,1020.0,1026.0,1022.0,1024.0,1014.0,1022.0,1020.0,1024.0,1022.0,1023.0,1014.0,1023.0,1021.0,1025.0,1023.0,1025.0,1016.0,1024.0,1022.0,1028.0,1025.0,1028.0,1017.0,1024.0,1023.0,1030.0,1025.0,1029.0,1019.0,1024.0,1022.0,1030.0,1025.0,1028.0,1019.0,1025.0,1024.0,1031.0,1025.0,1029.0,1021.0,1026.0,1024.0,1032.0,1026.0,1029.0,1023.0,1024.0,1023.0,1031.0,1024.0,1026.0,1022.0,1026.0,1025.0,1035.0,1027.0,1028.0,1071.0,1025.0,1025.0,1033.0,1026.0,1027.0,2442,2284,1897,	00:06:33.753,-0.009765625,0.08544921875,1.01708984375,-0.54931640625,1.0986328125,0.8544921875,4.822998046875,0.63720703125,28.3831787109375,665.0,-524.0,-4164.0,0.968658447265625,0.0394287109375,0.01568603515625,0.244720458984375,4.823644210054611,0.6357154043814437,30.04033542753964,0.9650247496300742,0.0392069958838654,0.016259064069043812,0.258699994029327,1,	00:06:33.754,0.0361328125,0.03125,1.0185546875,-0.244140625,3.41796875,0.42724609375,1.7523193359375,-1.9940185546875,142.4322509765625,531.0,617.0,-1951.0,0.3216552734375,0.02142333984375,0.008880615234375,0.946563720703125,1.753754046104306,-1.9961532342782058,143.76590452297228,0.31062228358205013,0.021311467759035908,0.0091269591926348,0.9502506600366684,1
1782115902.899031,0.491,1019.0,1023.0,1021.0,1020.0,1019.0,1024.0,1020.0,1021.0,1013.0,1020.0,1019.0,1024.0,1021.0,1021.0,1013.0,1020.0,1020.0,1019.0,1024.0,1021.0,1022.0,1013.0,1020.0,1020.0,1020.0,1019.0,1024.0,1021.0,1022.0,1013.0,1020.0,1019.0,1020.0,1021.0,1018.0,1024.0,1021.0,1022.0,1013.0,1020.0,1019.0,1020.0,1021.0,1019.0,1024.0,1021.0,1022.0,1012.0,1019.0,1020.0,1020.0,1020.0,1022.0,1019.0,1024.0,1021.0,1022.0,1013.0,1019.0,1020.0,1021.0,1021.0,1023.0,1020.0,1024.0,1021.0,1023.0,1013.0,1019.0,1020.0,1021.0,1020.0,1022.0,1020.0,1024.0,1021.0,1023.0,1013.0,1020.0,1019.0,1021.0,1020.0,1022.0,1020.0,1025.0,1021.0,1023.0,1013.0,1020.0,1020.0,1020.0,1020.0,1022.0,1019.0,1025.0,1021.0,1023.0,1013.0,1020.0,1019.0,1020.0,1020.0,1021.0,1020.0,1025.0,1021.0,1023.0,1014.0,1019.0,1019.0,1020.0,1019.0,1023.0,1021.0,1025.0,1022.0,1025.0,1014.0,1020.0,1020.0,1021.0,1023.0,1020.0,1026.0,1022.0,1025.0,1014.0,1020.0,1020.0,1022.0,1020.0,1025.0,1021.0,1023.0,1014.0,1019.0,1022.0,1020.0,1025.0,1022.0,1024.0,1014.0,1020.0,1022.0,1020.0,1025.0,1022.0,1024.0,1014.0,1019.0,1022.0,1019.0,1025.0,1021.0,1022.0,1013.0,1022.0,1019.0,1025.0,1021.0,1022.0,1013.0,1022.0,1019.0,1025.0,1022.0,1023.0,1014.0,1022.0,1020.0,1025.0,1022.0,1024.0,1014.0,1022.0,1019.0,1026.0,1022.0,1023.0,1014.0,1023.0,1020.0,1027.0,1022.0,1025.0,1016.0,1023.0,1022.0,1028.0,1024.0,1028.0,1018.0,1024.0,1024.0,1030.0,1025.0,1030.0,1019.0,1023.0,1023.0,1030.0,1024.0,1028.0,1020.0,1024.0,1025.0,1031.0,1025.0,1029.0,1021.0,1025.0,1025.0,1032.0,1026.0,1029.0,1023.0,1023.0,1024.0,1031.0,1024.0,1027.0,1022.0,1026.0,1026.0,1036.0,1026.0,1030.0,1071.0,1024.0,1025.0,1034.0,1026.0,1028.0,2443,2283,1898,	00:06:33.763,-0.01123046875,0.08544921875,1.0166015625,-0.42724609375,1.15966796875,0.732421875,4.7296142578125,0.6207275390625,28.3941650390625,677.0,-524.0,-4173.0,0.96868896484375,0.0386962890625,0.015380859375,0.24481201171875,4.731122294512189,0.6233595898962122,30.04763974720713,0.965039016122648,0.038454743024427286,0.015948589782724884,0.25877900336754367,1,	00:06:33.765,0.033203125,0.03173828125,1.01513671875,-0.1220703125,3.5400390625,0.42724609375,1.77978515625,-1.8731689453125,142.437744140625,536.0,610.0,-1953.0,0.3216552734375,0.020477294921875,0.009429931640625,0.94659423828125,1.778627210785919,-1.8730960988639656,143.77037301426412,0.3106020704332221,0.020358232839053855,0.009668124894120876,0.9502728153321541,1
1782115902.909287,0.501,1018.0,1023.0,1020.0,1020.0,1019.0,1024.0,1021.0,1022.0,1013.0,1020.0,1020.0,1024.0,1020.0,1022.0,1013.0,1019.0,1021.0,1019.0,1024.0,1021.0,1022.0,1013.0,1019.0,1020.0,1020.0,1019.0,1024.0,1021.0,1022.0,1013.0,1020.0,1019.0,1020.0,1021.0,1019.0,1025.0,1021.0,1023.0,1012.0,1020.0,1019.0,1020.0,1021.0,1019.0,1025.0,1022.0,1022.0,1013.0,1020.0,1020.0,1020.0,1019.0,1021.0,1020.0,1025.0,1021.0,1022.0,1013.0,1020.0,1020.0,1020.0,1020.0,1022.0,1021.0,1025.0,1021.0,1022.0,1013.0,1020.0,1020.0,1021.0,1020.0,1022.0,1021.0,1025.0,1021.0,1022.0,1013.0,1020.0,1020.0,1020.0,1020.0,1023.0,1020.0,1025.0,1021.0,1023.0,1014.0,1020.0,1020.0,1021.0,1021.0,1022.0,1020.0,1025.0,1021.0,1023.0,1013.0,1020.0,1020.0,1021.0,1020.0,1022.0,1020.0,1025.0,1021.0,1023.0,1014.0,1020.0,1020.0,1020.0,1020.0,1023.0,1021.0,1025.0,1022.0,1024.0,1014.0,1019.0,1020.0,1021.0,1022.0,1021.0,1026.0,1022.0,1024.0,1014.0,1020.0,1020.0,1022.0,1020.0,1025.0,1022.0,1022.0,1014.0,1020.0,1022.0,1021.0,1025.0,1022.0,1023.0,1014.0,1020.0,1022.0,1021.0,1025.0,1022.0,1022.0,1014.0,1019.0,1022.0,1020.0,1025.0,1021.0,1023.0,1014.0,1021.0,1020.0,1025.0,1021.0,1022.0,1013.0,1021.0,1020.0,1025.0,1022.0,1023.0,1014.0,1022.0,1021.0,1026.0,1022.0,1023.0,1015.0,1021.0,1020.0,1025.0,1021.0,1022.0,1014.0,1022.0,1021.0,1026.0,1022.0,1025.0,1017.0,1022.0,1022.0,1027.0,1024.0,1028.0,1019.0,1024.0,1024.0,1030.0,1025.0,1030.0,1020.0,1023.0,1023.0,1030.0,1024.0,1028.0,1020.0,1025.0,1024.0,1031.0,1025.0,1029.0,1022.0,1025.0,1024.0,1032.0,1025.0,1028.0,1024.0,1024.0,1023.0,1030.0,1024.0,1026.0,1022.0,1025.0,1025.0,1036.0,1026.0,1028.0,1072.0,1025.0,1024.0,1033.0,1026.0,1028.0,2444,2283,1898,	00:06:33.774,-0.0107421875,0.08544921875,1.0166015625,-0.1220703125,1.15966796875,0.67138671875,4.8175048828125,0.6097412109375,28.399658203125,667.0,-523.0,-4168.0,0.9686279296875,0.0394287109375,0.015472412109375,0.244873046875,4.818158308925196,0.6102731714238764,30.056236556512832,0.9649894628884335,0.039216108790717685,0.016037887137330935,0.2588440061152232,1,	00:06:33.775,0.03515625,0.033203125,1.01416015625,-0.244140625,3.60107421875,0.48828125,1.834716796875,-1.9061279296875,142.437744140625,533.0,616.0,-1952.0,0.32159423828125,0.020904541015625,0.00982666015625,0.94659423828125,1.8360274306843023,-1.9064358550905485,143.77439508767333,0.310552558727155,0.020789888239149096,0.010054345707110324,0.9502756436673636,1
