Unix_Time_s,EMG_t_s,sample_idx,fs,gain,flags,emg_valid,ch1_raw_uV,ch1_filt_uV,ch1_env_uV,ch2_raw_uV,ch2_filt_uV,ch2_env_uV
1782117212.158031,0.000000,1658920,1000,12,0,1,1181.841,11.241,25.889,315.608,-7.639,15.544
1782117212.159030,0.001000,1658921,1000,12,0,1,1181.841,7.222,24.614,315.608,-5.884,13.089
1782117212.160031,0.002000,1658922,1000,12,0,1,1157.268,-13.481,24.598,323.606,0.246,12.347
1782117212.161031,0.003000,1658923,1000,12,0,1,1175.091,-7.977,24.340,320.580,0.977,12.338
1782117212.162030,0.004000,1658924,1000,12,0,1,1181.433,7.975,22.620,318.586,-3.994,12.272
1782117212.163031,0.005000,1658925,1000,12,0,1,1169.591,-9.869,19.831,318.586,-1.702,12.210
1782117212.164031,0.006000,1658926,1000,12,0,1,1160.775,-15.553,17.914,321.565,-0.455,12.206
1782117212.165030,0.007000,1658927,1000,12,0,1,1157.484,-18.053,17.409,321.901,1.167,12.074
1782117212.166030,0.008000,1658928,1000,12,0,1,1157.844,-14.570,17.497,321.180,-0.790,11.336
1782117212.167031,0.009000,1658929,1000,12,0,1,1151.023,-15.555,17.629,319.067,-2.534,10.050
1782117212.168031,0.010000,1658930,1000,12,0,1,1147.083,-17.558,17.755,320.051,-2.575,8.741
1782117212.169030,0.011000,1658931,1000,12,0,1,1154.938,-5.406,17.697,321.325,-1.277,8.324
1782117212.170031,0.012000,1658932,1000,12,0,1,1167.645,8.212,17.558,322.333,-0.897,8.288
1782117212.171031,0.013000,1658933,1000,12,0,1,1175.139,17.654,17.141,321.757,-1.824,8.259
1782117212.172030,0.014000,1658934,1000,12,0,1,1173.314,14.938,16.811,322.141,-2.045,8.258
1782117212.173031,0.015000,1658935,1000,12,0,1,1160.295,3.820,16.727,321.012,-3.028,8.268
1782117212.174031,0.016000,1658936,1000,12,0,1,1150.134,-6.938,16.679,320.820,-3.499,8.279
1782117212.175030,0.017000,1658937,1000,12,0,1,1145.162,-8.878,16.483,323.150,-1.406,8.249
1782117212.176030,0.018000,1658938,1000,12,0,1,1146.002,-7.214,16.222,330.741,4.895,8.262
1782117212.177031,0.019000,1658939,1000,12,0,1,1160.895,6.362,16.050,338.691,11.533,8.415
1782117212.178030,0.020000,1658940,1000,12,0,1,1187.918,29.046,16.529,340.253,11.701,8.518
1782117212.179030,0.021000,1658941,1000,12,0,1,1211.939,46.307,17.779,331.557,2.599,8.320
1782117212.180031,0.022000,1658942,1000,12,0,1,1213.813,41.675,18.699,322.958,-6.723,7.949
1782117212.181031,0.023000,1658943,1000,12,0,1,1190.440,12.988,18.523,319.667,-8.995,7.517
1782117212.182030,0.024000,1658944,1000,12,0,1,1149.677,-27.131,18.342,325.648,-3.226,6.901
1782117212.183031,0.025000,1658945,1000,12,0,1,1135.361,-43.230,18.859,329.684,2.444,6.306
1782117212.184031,0.026000,1658946,1000,12,0,1,1149.317,-24.348,18.893,329.419,1.637,5.853
1782117212.185030,0.027000,1658947,1000,12,0,1,1151.095,-15.688,18.960,333.911,4.458,5.375
1782117212.186031,0.028000,1658948,1000,12,0,1,1131.926,-28.373,19.113,337.346,7.411,5.353
1782117212.187031,0.029000,1658949,1000,12,0,1,1143.216,-18.548,18.540,340.349,7.607,5.460
1782117212.188030,0.030000,1658950,1000,12,0,1,1185.132,24.023,18.418,340.469,6.611,5.513
1782117212.189030,0.031000,1658951,1000,12,0,1,1206.270,45.178,19.172,335.761,0.248,5.497
1782117212.190031,0.032000,1658952,1000,12,0,1,1192.506,28.512,19.494,333.863,-3.279,5.481
1782117212.191031,0.033000,1658953,1000,12,0,1,1171.632,4.291,19.488,335.593,-2.378,5.390
1782117212.192030,0.034000,1658954,1000,12,0,1,1175.307,3.238,19.493,331.798,-5.381,5.296
1782117212.193031,0.035000,1658955,1000,12,0,1,1191.617,18.488,19.668,326.489,-10.773,5.359
1782117212.194031,0.036000,1658956,1000,12,0,1,1192.122,17.696,19.826,331.077,-6.858,5.316
1782117212.195030,0.037000,1658957,1000,12,0,1,1196.830,15.531,19.896,326.441,-7.585,5.268
1782117212.196031,0.038000,1658958,1000,12,0,1,1197.839,15.072,19.742,318.826,-15.088,5.602
1782117212.197031,0.039000,1658959,1000,12,0,1,1189.816,3.189,19.291,316.448,-14.433,5.908
1782117212.198030,0.040000,1658960,1000,12,0,1,1200.265,6.856,18.981,304.798,-20.519,6.552
1782117212.199030,0.041000,1658961,1000,12,0,1,1210.954,15.864,18.973,301.892,-21.880,7.245
1782117212.200031,0.042000,1658962,1000,12,0,1,1205.069,6.297,18.986,311.668,-8.137,7.333
1782117212.201030,0.043000,1658963,1000,12,0,1,1197.791,-4.554,18.992,315.776,-0.705,7.279
1782117212.202030,0.044000,1658964,1000,12,0,1,1189.864,-12.785,18.979,320.940,4.168,7.262
1782117212.203031,0.045000,1658965,1000,12,0,1,1180.160,-21.624,19.016,328.339,11.618,7.417
1782117212.204031,0.046000,1658966,1000,12,0,1,1182.682,-19.294,19.200,332.951,14.747,7.703
1782117212.205030,0.047000,1658967,1000,12,0,1,1187.198,-11.680,19.232,333.263,13.503,7.932
1782117212.206031,0.048000,1658968,1000,12,0,1,1188.399,-9.637,19.280,331.533,9.691,8.010
1782117212.207031,0.049000,1658969,1000,12,0,1,1192.843,-4.841,19.223,335.040,10.227,8.003
1782117212.208030,0.050000,1658970,1000,12,0,1,1184.363,-9.268,19.202,354.209,23.613,8.605
1782117212.209031,0.051000,1658971,1000,12,0,1,1169.518,-22.298,19.432,378.686,41.921,10.416
1782117212.210031,0.052000,1658972,1000,12,0,1,1156.499,-29.714,19.790,388.390,44.678,12.183
1782117212.211030,0.053000,1658973,1000,12,0,1,1154.265,-28.203,20.156,390.000,36.432,13.227
1782117212.212030,0.054000,1658974,1000,12,0,1,1164.234,-13.995,20.222,375.227,17.819,13.453
1782117212.213031,0.055000,1658975,1000,12,0,1,1183.763,6.002,20.191,334.488,-22.227,13.813
1782117212.214031,0.056000,1658976,1000,12,0,1,1208.696,28.103,20.461,290.338,-61.509,16.324
1782117212.215030,0.057000,1658977,1000,12,0,1,1236.056,47.986,21.405,253.442,-85.429,20.307
1782117212.216031,0.058000,1658978,1000,12,0,1,1237.065,44.601,22.220,242.873,-84.066,23.531
1782117212.217031,0.059000,1658979,1000,12,0,1,1185.804,-5.548,22.124,268.095,-47.713,24.477
1782117212.218030,0.060000,1658980,1000,12,0,1,1137.043,-55.694,23.353,289.353,-14.402,24.559
1782117212.219031,0.061000,1658981,1000,12,0,1,1117.514,-65.972,25.136,301.291,0.616,24.558
1782117212.220031,0.062000,1658982,1000,12,0,1,1124.288,-51.513,26.145,303.621,6.966,24.578
1782117212.221030,0.063000,1658983,1000,12,0,1,1146.002,-21.694,26.206,302.684,5.510,24.589
1782117212.222030,0.064000,1658984,1000,12,0,1,1160.463,-1.450,26.121,301.844,5.642,24.600
1782117212.223031,0.065000,1658985,1000,12,0,1,1159.982,1.491,26.116,298.793,2.892,24.600
1782117212.224030,0.066000,1658986,1000,12,0,1,1164.858,5.576,26.110,291.731,-2.765,24.598
1782117212.225030,0.067000,1658987,1000,12,0,1,1185.012,23.331,26.287,288.728,-5.271,24.608
1782117212.226031,0.068000,1658988,1000,12,0,1,1204.372,39.771,26.863,294.806,1.155,24.599
1782117212.227031,0.069000,1658989,1000,12,0,1,1203.268,35.458,27.312,304.054,10.802,24.592
1782117212.228030,0.070000,1658990,1000,12,0,1,1197.887,23.706,27.209,308.281,14.688,24.625
1782117212.229031,0.071000,1658991,1000,12,0,1,1206.438,25.894,26.662,310.347,15.373,24.718
1782117212.230031,0.072000,1658992,1000,12,0,1,1206.390,24.254,26.227,315.175,18.129,24.832
1782117212.231030,0.073000,1658993,1000,12,0,1,1200.265,12.925,26.227,322.646,23.390,25.019
1782117212.232030,0.074000,1658994,1000,12,0,1,1204.421,12.959,26.009,325.864,24.689,25.257
1782117212.233031,0.075000,1658995,1000,12,0,1,1201.538,9.618,25.317,326.417,22.355,25.452
1782117212.234030,0.076000,1658996,1000,12,0,1,1182.201,-9.094,25.115,328.339,21.410,25.630
1782117212.235030,0.077000,1658997,1000,12,0,1,1157.916,-30.405,25.383,331.677,21.831,25.808
1782117212.236031,0.078000,1658998,1000,12,0,1,1142.471,-40.984,25.726,332.182,19.852,25.939
1782117212.237031,0.079000,1658999,1000,12,0,1,1150.158,-29.691,25.934,329.756,14.712,26.000
1782117212.238030,0.080000,1659000,1000,12,0,1,1153.905,-17.560,25.830,323.799,7.163,26.003
1782117212.239031,0.081000,1659001,1000,12,0,1,1143.768,-22.918,25.236,323.438,3.717,26.008
1782117212.240031,0.082000,1659002,1000,12,0,1,1164.738,-5.185,24.923,325.432,4.576,26.012
1782117212.241030,0.083000,1659003,1000,12,0,1,1182.610,17.765,25.042,320.556,-1.125,26.011
1782117212.242031,0.084000,1659004,1000,12,0,1,1179.871,12.131,25.096,321.132,-3.812,26.005
1782117212.243031,0.085000,1659005,1000,12,0,1,1191.593,17.711,25.085,325.240,-0.631,25.961
1782117212.244030,0.086000,1659006,1000,12,0,1,1236.344,51.162,25.988,319.979,-6.264,25.958
1782117212.245030,0.087000,1659007,1000,12,0,1,1248.018,60.463,27.270,314.527,-13.253,26.003
1782117212.246031,0.088000,1659008,1000,12,0,1,1229.378,30.105,27.518,307.369,-18.489,26.047
1782117212.247030,0.089000,1659009,1000,12,0,1,1209.441,5.149,27.524,305.423,-20.417,26.127
1782117212.248030,0.090000,1659010,1000,12,0,1,1187.654,-17.174,27.614,312.629,-11.955,26.020
1782117212.249031,0.091000,1659011,1000,12,0,1,1171.224,-31.917,27.890,319.379,-3.996,25.842
1782117212.250031,0.092000,1659012,1000,12,0,1,1165.123,-32.851,28.260,321.589,-1.342,25.817
1782117212.251030,0.093000,1659013,1000,12,0,1,1153.953,-35.834,28.704,330.621,5.549,25.829
1782117212.252031,0.094000,1659014,1000,12,0,1,1153.353,-31.789,28.997,344.841,17.831,25.945
1782117212.253031,0.095000,1659015,1000,12,0,1,1175.524,-6.809,28.852,344.024,16.879,26.002
1782117212.254030,0.096000,1659016,1000,12,0,1,1178.790,4.231,28.729,335.953,5.961,25.932
1782117212.255030,0.097000,1659017,1000,12,0,1,1191.473,10.400,28.719,327.834,-1.635,25.863
1782117212.256031,0.098000,1659018,1000,12,0,1,1225.655,40.920,29.264,306.744,-18.253,25.955
1782117212.257030,0.099000,1659019,1000,12,0,1,1238.962,49.423,30.080,295.022,-28.421,26.225
1782117212.258030,0.100000,1659020,1000,12,0,1,1231.996,33.807,30.429,297.280,-20.623,26.174
1782117212.259031,0.101000,1659021,1000,12,0,1,1218.785,14.483,30.334,304.318,-10.349,25.536
1782117212.260031,0.102000,1659022,1000,12,0,1,1203.051,-5.127,30.051,313.950,1.016,24.742
1782117212.261030,0.103000,1659023,1000,12,0,1,1186.933,-21.325,29.937,328.098,13.481,24.275
1782117212.262031,0.104000,1659024,1000,12,0,1,1184.339,-24.984,30.080,336.914,20.482,24.317
1782117212.263031,0.105000,1659025,1000,12,0,1,1185.444,-20.154,30.203,343.303,21.422,24.303
1782117212.264030,0.106000,1659026,1000,12,0,1,1189.840,-15.620,30.021,350.245,22.894,22.922
1782117212.265031,0.107000,1659027,1000,12,0,1,1193.179,-9.555,29.276,351.735,19.367,19.672
1782117212.266031,0.108000,1659028,1000,12,0,1,1190.921,-10.345,28.625,347.099,9.931,15.735
1782117212.267030,0.109000,1659029,1000,12,0,1,1186.405,-12.715,28.671,337.635,-1.935,14.218
1782117212.268030,0.110000,1659030,1000,12,0,1,1186.237,-11.191,27.613,329.347,-11.896,14.171
1782117212.269031,0.111000,1659031,1000,12,0,1,1188.759,-6.346,26.005,320.123,-18.934,14.422
1782117212.270030,0.112000,1659032,1000,12,0,1,1187.270,-4.930,24.973,324.711,-15.403,14.552
1782117212.271030,0.113000,1659033,1000,12,0,1,1181.024,-8.619,24.814,329.107,-6.612,14.561
1782117212.272031,0.114000,1659034,1000,12,0,1,1180.328,-7.736,24.838,332.014,-4.002,14.551
1782117212.273031,0.115000,1659035,1000,12,0,1,1180.496,-4.456,24.845,330.476,-2.479,14.549
1782117212.274030,0.116000,1659036,1000,12,0,1,1184.123,-0.356,24.832,322.021,-8.831,14.597
1782117212.275031,0.117000,1659037,1000,12,0,1,1180.832,-0.413,24.612,311.044,-16.203,14.757
1782117212.276031,0.118000,1659038,1000,12,0,1,1178.670,-3.267,23.965,303.285,-19.828,15.020
1782117212.277030,0.119000,1659039,1000,12,0,1,1179.559,-0.858,23.435,293.917,-23.059,15.294
1782117212.278030,0.120000,1659040,1000,12,0,1,1193.683,9.771,23.235,284.068,-26.862,15.621
1782117212.279031,0.121000,1659041,1000,12,0,1,1195.173,13.578,23.025,287.407,-20.069,15.728
1782117212.280030,0.122000,1659042,1000,12,0,1,1185.420,1.060,22.769,295.118,-7.128,15.550
1782117212.281030,0.123000,1659043,1000,12,0,1,1188.495,1.337,22.696,292.308,-6.318,15.220
1782117212.282031,0.124000,1659044,1000,12,0,1,1179.367,-3.667,22.628,293.557,-4.910,14.831
1782117212.283031,0.125000,1659045,1000,12,0,1,1162.576,-20.330,22.769,300.210,2.744,14.495
1782117212.284030,0.126000,1659046,1000,12,0,1,1154.265,-24.364,22.992,304.486,6.764,14.207
1782117212.285031,0.127000,1659047,1000,12,0,1,1173.025,-6.995,22.608,303.837,5.701,13.891
1782117212.286031,0.128000,1659048,1000,12,0,1,1200.505,22.291,22.079,313.133,11.027,13.694
1782117212.287030,0.129000,1659049,1000,12,0,1,1205.333,26.623,22.001,327.546,23.077,13.923
1782117212.288031,0.130000,1659050,1000,12,0,1,1191.738,11.393,21.919,339.965,30.410,14.537
1782117212.289031,0.131000,1659051,1000,12,0,1,1203.171,15.341,21.787,342.727,29.438,15.112
1782117212.290030,0.132000,1659052,1000,12,0,1,1218.280,30.291,22.192,338.043,20.335,15.369
1782117212.291030,0.133000,1659053,1000,12,0,1,1184.363,1.141,22.050,330.548,10.575,15.441
1782117212.292031,0.134000,1659054,1000,12,0,1,1151.143,-34.568,22.520,324.303,3.345,15.439
1782117212.293031,0.135000,1659055,1000,12,0,1,1135.962,-40.719,23.109,331.029,7.674,15.477
1782117212.294030,0.136000,1659056,1000,12,0,1,1124.504,-44.117,22.817,342.271,18.639,15.675
1782117212.295031,0.137000,1659057,1000,12,0,1,1130.245,-31.878,21.629,350.366,23.639,15.917
1782117212.296031,0.138000,1659058,1000,12,0,1,1145.498,-10.324,21.256,354.017,24.331,16.074
1782117212.297030,0.139000,1659059,1000,12,0,1,1163.297,8.766,21.280,342.919,12.099,15.905
1782117212.298031,0.140000,1659060,1000,12,0,1,1194.284,34.966,21.711,318.850,-11.645,15.900
1782117212.299031,0.141000,1659061,1000,12,0,1,1197.983,39.165,21.947,301.315,-28.108,16.380
1782117212.300030,0.142000,1659062,1000,12,0,1,1193.251,24.592,21.730,295.190,-30.367,16.932
1782117212.301030,0.143000,1659063,1000,12,0,1,1197.743,24.236,21.407,291.755,-29.004,17.404
1782117212.302031,0.144000,1659064,1000,12,0,1,1179.055,6.110,20.947,295.815,-22.755,17.519
1782117212.303030,0.145000,1659065,1000,12,0,1,1169.422,-9.734,20.970,305.255,-11.169,17.427
1782117212.304030,0.146000,1659066,1000,12,0,1,1163.826,-10.513,21.015,318.010,0.356,17.407
1782117212.305031,0.147000,1659067,1000,12,0,1,1144.897,-25.908,21.281,332.878,12.378,17.493
1782117212.306031,0.148000,1659068,1000,12,0,1,1145.834,-23.768,20.753,338.908,15.474,17.439
1782117212.307030,0.149000,1659069,1000,12,0,1,1165.819,-0.490,19.541,345.657,15.638,17.113
1782117212.308031,0.150000,1659070,1000,12,0,1,1180.952,16.190,19.085,348.564,15.433,17.004
1782117212.309031,0.151000,1659071,1000,12,0,1,1182.297,17.818,19.141,344.168,7.190,16.971
1782117212.310030,0.152000,1659072,1000,12,0,1,1174.875,9.723,19.177,341.742,2.048,16.973
1782117212.311031,0.153000,1659073,1000,12,0,1,1177.349,9.511,18.986,337.635,-1.846,16.867
1782117212.312031,0.154000,1659074,1000,12,0,1,1191.930,21.582,18.902,334.128,-5.388,16.634
1782117212.313030,0.155000,1659075,1000,12,0,1,1211.026,35.549,19.350,320.196,-13.956,16.475
1782117212.314030,0.156000,1659076,1000,12,0,1,1224.165,42.493,20.141,302.612,-27.425,16.613
1782117212.315031,0.157000,1659077,1000,12,0,1,1226.471,37.267,20.775,290.122,-32.174,17.005
1782117212.316031,0.158000,1659078,1000,12,0,1,1225.294,27.718,21.091,279.216,-34.157,17.622
1782117212.317030,0.159000,1659079,1000,12,0,1,1207.351,7.394,21.041,286.831,-21.893,17.890
1782117212.318031,0.160000,1659080,1000,12,0,1,1191.041,-14.211,21.077,296.775,-4.107,17.820
1782117212.319031,0.161000,1659081,1000,12,0,1,1185.829,-19.099,21.230,297.712,-0.327,17.618
1782117212.320030,0.162000,1659082,1000,12,0,1,1183.715,-20.477,21.416,300.955,3.699,17.491
1782117212.321031,0.163000,1659083,1000,12,0,1,1190.440,-14.312,21.477,302.252,5.867,17.485
1782117212.322031,0.164000,1659084,1000,12,0,1,1194.692,-8.117,21.479,299.634,2.510,17.480
1782117212.323030,0.165000,1659085,1000,12,0,1,1185.276,-15.755,21.585,302.276,2.976,17.481
1782117212.324030,0.166000,1659086,1000,12,0,1,1174.371,-24.908,21.871,313.950,11.176,17.508
1782117212.325031,0.167000,1659087,1000,12,0,1,1162.649,-31.519,22.320,326.033,19.606,17.578
1782117212.326030,0.168000,1659088,1000,12,0,1,1158.325,-32.041,22.771,333.383,21.699,17.622
1782117212.327030,0.169000,1659089,1000,12,0,1,1149.822,-31.896,23.213,344.168,25.272,17.682
1782117212.328031,0.170000,1659090,1000,12,0,1,1149.749,-28.605,23.522,349.741,26.135,17.660
1782117212.329031,0.171000,1659091,1000,12,0,1,1162.841,-10.709,23.493,345.441,17.052,17.597
1782117212.330030,0.172000,1659092,1000,12,0,1,1165.915,-2.393,23.495,346.450,12.824,17.661
1782117212.331031,0.173000,1659093,1000,12,0,1,1152.368,-11.726,23.552,346.690,11.988,17.720
1782117212.332031,0.174000,1659094,1000,12,0,1,1162.817,-3.850,23.553,328.363,-3.962,17.715
1782117212.333030,0.175000,1659095,1000,12,0,1,1192.362,25.615,23.656,304.726,-24.648,18.051
1782117212.334031,0.176000,1659096,1000,12,0,1,1183.883,21.360,23.598,306.240,-21.082,18.270
1782117212.335031,0.177000,1659097,1000,12,0,1,1158.589,-7.046,23.598,321.276,-0.858,18.253
1782117212.336030,0.178000,1659098,1000,12,0,1,1146.194,-16.989,23.510,325.888,7.259,18.215
1782117212.337030,0.179000,1659099,1000,12,0,1,1141.270,-18.316,23.350,324.808,6.564,17.944
1782117212.338031,0.180000,1659100,1000,12,0,1,1158.325,-1.822,23.296,317.169,0.940,17.422
1782117212.339031,0.181000,1659101,1000,12,0,1,1181.553,22.623,23.414,305.975,-9.475,16.970
1782117212.340030,0.182000,1659102,1000,12,0,1,1179.631,21.405,23.217,302.084,-12.754,16.822
1782117212.341031,0.183000,1659103,1000,12,0,1,1162.072,2.709,23.220,308.065,-6.988,16.784
1782117212.342031,0.184000,1659104,1000,12,0,1,1145.330,-12.503,22.768,316.088,0.301,16.778
1782117212.343030,0.185000,1659105,1000,12,0,1,1149.725,-8.803,22.063,329.419,9.015,16.791
1782117212.344031,0.186000,1659106,1000,12,0,1,1161.664,6.238,21.181,335.305,12.339,16.674
1782117212.345031,0.187000,1659107,1000,12,0,1,1186.333,25.707,21.013,334.704,6.167,16.359
1782117212.346030,0.188000,1659108,1000,12,0,1,1203.580,41.569,21.771,344.913,9.626,16.051
1782117212.347030,0.189000,1659109,1000,12,0,1,1211.963,41.424,22.511,350.005,12.182,16.052
1782117212.348031,0.190000,1659110,1000,12,0,1,1203.868,30.082,22.369,354.617,10.138,16.032
1782117212.349030,0.191000,1659111,1000,12,0,1,1183.042,5.218,21.685,360.766,13.226,15.643
1782117212.350030,0.192000,1659112,1000,12,0,1,1185.516,1.314,21.405,351.951,3.840,15.052
1782117212.351031,0.193000,1659113,1000,12,0,1,1193.731,10.510,21.181,330.717,-15.879,14.655
1782117212.352031,0.194000,1659114,1000,12,0,1,1192.002,5.966,21.181,315.656,-27.700,14.825
1782117212.353030,0.195000,1659115,1000,12,0,1,1194.548,5.673,21.151,298.841,-35.028,15.551
1782117212.354031,0.196000,1659116,1000,12,0,1,1202.235,10.140,21.147,275.733,-47.271,16.927
1782117212.355031,0.197000,1659117,1000,12,0,1,1199.929,7.103,20.852,264.540,-48.217,18.164
1782117212.356030,0.198000,1659118,1000,12,0,1,1186.117,-7.714,20.608,274.556,-28.797,18.486
1782117212.357030,0.199000,1659119,1000,12,0,1,1163.657,-27.185,20.963,297.424,0.050,18.353
1782117212.358031,0.200000,1659120,1000,12,0,1,1154.097,-35.472,21.433,305.879,14.179,18.333
1782117212.359030,0.201000,1659121,1000,12,0,1,1149.725,-32.659,21.780,310.347,16.010,18.444
1782117212.360030,0.202000,1659122,1000,12,0,1,1155.394,-24.860,22.019,312.677,17.873,18.615
1782117212.361031,0.203000,1659123,1000,12,0,1,1174.995,-3.406,21.983,311.788,13.083,18.704
1782117212.362031,0.204000,1659124,1000,12,0,1,1183.931,7.898,21.799,312.605,10.250,18.745
1782117212.363030,0.205000,1659125,1000,12,0,1,1191.642,11.308,21.272,319.043,11.546,18.712
1782117212.364031,0.206000,1659126,1000,12,0,1,1183.667,5.995,20.423,326.057,13.987,18.412
1782117212.365031,0.207000,1659127,1000,12,0,1,1162.913,-15.501,19.852,335.088,16.693,17.997
1782117212.366030,0.208000,1659128,1000,12,0,1,1151.647,-24.490,19.767,337.490,15.086,17.467
1782117212.367031,0.209000,1659129,1000,12,0,1,1150.326,-22.052,19.984,332.782,6.365,17.214
1782117212.368031,0.210000,1659130,1000,12,0,1,1161.472,-9.211,19.926,323.174,-4.253,17.215
1782117212.369030,0.211000,1659131,1000,12,0,1,1170.455,3.315,19.747,321.781,-6.981,17.243
1782117212.370030,0.212000,1659132,1000,12,0,1,1161.880,-2.314,19.537,328.507,0.874,17.236
1782117212.371031,0.213000,1659133,1000,12,0,1,1146.627,-14.857,19.545,335.377,8.797,17.261
1782117212.372030,0.214000,1659134,1000,12,0,1,1148.524,-12.161,19.587,334.992,10.122,17.316
1782117212.373030,0.215000,1659135,1000,12,0,1,1166.948,7.672,19.490,321.661,0.392,17.311
1782117212.374031,0.216000,1659136,1000,12,0,1,1185.732,25.527,19.506,304.582,-13.167,17.339
1782117212.375031,0.217000,1659137,1000,12,0,1,1192.218,29.955,19.456,299.370,-14.420,17.237
1782117212.376030,0.218000,1659138,1000,12,0,1,1166.876,6.795,18.946,309.122,-1.832,16.964
1782117212.377031,0.219000,1659139,1000,12,0,1,1135.337,-24.923,18.736,325.264,15.289,16.723
1782117212.378031,0.220000,1659140,1000,12,0,1,1141.126,-19.645,18.503,342.343,29.065,16.820
1782117212.379030,0.221000,1659141,1000,12,0,1,1156.019,0.722,18.442,353.104,34.776,17.357
1782117212.380030,0.222000,1659142,1000,12,0,1,1151.959,-0.462,18.439,356.323,30.307,17.786
1782117212.381031,0.223000,1659143,1000,12,0,1,1150.086,-3.012,18.369,354.281,20.691,17.946
1782117212.382030,0.224000,1659144,1000,12,0,1,1158.973,5.872,18.379,354.113,12.110,18.018
1782117212.383030,0.225000,1659145,1000,12,0,1,1181.649,24.112,18.339,338.451,-5.570,17.696
1782117212.384031,0.226000,1659146,1000,12,0,1,1191.137,32.814,18.674,323.390,-25.667,17.816
1782117212.385031,0.227000,1659147,1000,12,0,1,1193.203,27.204,19.040,317.938,-30.313,18.324
1782117212.386030,0.228000,1659148,1000,12,0,1,1198.968,27.529,19.285,305.279,-38.491,19.088
1782117212.387031,0.229000,1659149,1000,12,0,1,1196.374,20.956,19.339,287.215,-50.729,20.371
1782117212.388031,0.230000,1659150,1000,12,0,1,1178.887,1.788,19.339,290.722,-43.033,21.260
1782117212.389030,0.231000,1659151,1000,12,0,1,1169.542,-10.435,19.129,306.288,-20.142,21.408
1782117212.390031,0.232000,1659152,1000,12,0,1,1174.731,-5.368,18.903,308.978,-10.229,21.381
1782117212.391031,0.233000,1659153,1000,12,0,1,1172.545,-4.612,18.911,305.327,-9.730,21.402
1782117212.392030,0.234000,1659154,1000,12,0,1,1161.496,-14.211,18.935,308.017,-2.917,21.406
1782117212.393030,0.235000,1659155,1000,12,0,1,1155.322,-18.046,19.066,311.740,4.917,21.380
1782117212.394031,0.236000,1659156,1000,12,0,1,1157.244,-13.766,19.144,318.250,12.991,21.387
1782117212.395030,0.237000,1659157,1000,12,0,1,1162.240,-6.225,18.817,327.834,22.735,21.610
1782117212.396030,0.238000,1659158,1000,12,0,1,1146.363,-15.547,18.009,338.067,30.776,22.002
1782117212.397031,0.239000,1659159,1000,12,0,1,1131.662,-28.840,17.512,346.138,34.858,22.481
1782117212.398031,0.240000,1659160,1000,12,0,1,1137.547,-19.432,17.208,342.463,27.946,22.781
1782117212.399030,0.241000,1659161,1000,12,0,1,1129.428,-18.874,17.398,333.743,14.115,22.792
1782117212.400031,0.242000,1659162,1000,12,0,1,1120.300,-26.089,17.784,333.335,8.857,22.820
1782117212.401031,0.243000,1659163,1000,12,0,1,1148.044,0.055,17.722,325.912,0.738,22.709
1782117212.402030,0.244000,1659164,1000,12,0,1,1201.370,48.306,18.974,306.816,-18.713,22.525
1782117212.403030,0.245000,1659165,1000,12,0,1,1216.887,61.790,20.874,302.156,-25.150,22.259
1782117212.404031,0.246000,1659166,1000,12,0,1,1197.599,33.083,21.344,311.500,-14.540,21.331
1782117212.405030,0.247000,1659167,1000,12,0,1,1177.325,7.221,21.345,319.187,-6.265,20.231
1782117212.406030,0.248000,1659168,1000,12,0,1,1159.382,-11.420,21.378,324.231,-1.917,19.819
1782117212.407031,0.249000,1659169,1000,12,0,1,1150.806,-19.769,21.214,323.606,-2.095,19.821
1782117212.408031,0.250000,1659170,1000,12,0,1,1146.435,-19.502,20.797,317.529,-7.490,19.748
1782117212.409030,0.251000,1659171,1000,12,0,1,1149.461,-14.657,20.383,308.570,-13.764,19.714
1782117212.410031,0.252000,1659172,1000,12,0,1,1169.831,5.948,20.095,295.430,-21.858,19.794
1782117212.411031,0.253000,1659173,1000,12,0,1,1179.151,18.038,20.250,292.019,-21.542,19.941
1782117212.412030,0.254000,1659174,1000,12,0,1,1161.207,2.099,20.222,306.792,-3.514,19.895
1782117212.413031,0.255000,1659175,1000,12,0,1,1136.154,-20.673,20.369,314.647,9.634,19.875
1782117212.414031,0.256000,1659176,1000,12,0,1,1137.715,-18.786,20.524,308.425,5.599,19.792
1782117212.415030,0.257000,1659177,1000,12,0,1,1153.016,0.510,20.407,303.573,1.953,19.652
1782117212.416030,0.258000,1659178,1000,12,0,1,1170.119,16.173,20.241,307.200,6.224,19.556
1782117212.417031,0.259000,1659179,1000,12,0,1,1193.371,34.349,20.581,311.068,11.039,19.598
1782117212.418031,0.260000,1659180,1000,12,0,1,1209.753,44.733,21.491,313.422,12.200,19.664
1782117212.419030,0.261000,1659181,1000,12,0,1,1202.018,31.430,21.941,319.475,15.413,19.760
1782117212.420031,0.262000,1659182,1000,12,0,1,1186.765,9.165,21.977,326.705,19.299,19.947
1782117212.421031,0.263000,1659183,1000,12,0,1,1178.622,-2.965,21.880,333.647,21.071,20.130
1782117212.422030,0.264000,1659184,1000,12,0,1,1179.799,-4.712,21.823,335.112,18.249,20.244
1782117212.423031,0.265000,1659185,1000,12,0,1,1186.717,-0.072,21.796,332.758,10.688,20.301
1782117212.424031,0.266000,1659186,1000,12,0,1,1194.140,5.004,21.507,326.897,1.983,20.217
1782117212.425030,0.267000,1659187,1000,12,0,1,1182.610,-4.907,21.097,320.748,-6.547,20.135
1782117212.426030,0.268000,1659188,1000,12,0,1,1176.629,-14.305,21.172,318.706,-9.439,20.178
1782117212.427031,0.269000,1659189,1000,12,0,1,1182.682,-6.913,20.899,313.614,-12.669,20.141
1782117212.428030,0.270000,1659190,1000,12,0,1,1192.506,2.053,20.716,305.159,-18.840,19.897
1782117212.429030,0.271000,1659191,1000,12,0,1,1185.925,-1.264,20.716,303.477,-18.011,19.447
1782117212.430031,0.272000,1659192,1000,12,0,1,1177.109,-11.157,20.776,308.209,-9.958,19.021
1782117212.431031,0.273000,1659193,1000,12,0,1,1176.388,-10.012,20.820,305.687,-7.537,18.825
1782117212.432030,0.274000,1659194,1000,12,0,1,1190.200,2.284,20.806,305.759,-6.098,18.766
1782117212.433031,0.275000,1659195,1000,12,0,1,1202.379,14.814,20.631,306.119,-1.600,18.751
1782117212.434031,0.276000,1659196,1000,12,0,1,1183.042,-1.135,20.103,310.683,3.133,18.402
1782117212.435030,0.277000,1659197,1000,12,0,1,1164.618,-22.248,19.981,314.286,8.786,17.939
1782117212.436031,0.278000,1659198,1000,12,0,1,1167.453,-17.260,19.749,313.398,7.638,17.127
1782117212.437031,0.279000,1659199,1000,12,0,1,1168.558,-12.852,19.610,315.343,8.129,15.594
1782117212.438030,0.280000,1659200,1000,12,0,1,1165.147,-14.469,19.715,321.036,11.988,14.458
1782117212.439030,0.281000,1659201,1000,12,0,1,1168.077,-11.170,19.723,320.652,10.189,14.247
1782117212.440031,0.282000,1659202,1000,12,0,1,1169.518,-7.544,19.737,317.842,4.577,14.188
1782117212.441031,0.283000,1659203,1000,12,0,1,1166.540,-9.703,19.774,315.968,0.737,14.122
1782117212.442030,0.284000,1659204,1000,12,0,1,1164.378,-10.784,19.731,319.307,1.281,14.117
1782117212.443031,0.285000,1659205,1000,12,0,1,1167.549,-7.139,19.591,325.264,5.029,14.118
1782117212.444031,0.286000,1659206,1000,12,0,1,1172.017,-1.589,19.495,328.987,6.387,14.027
1782117212.445030,0.287000,1659207,1000,12,0,1,1174.467,1.308,19.476,331.509,5.989,13.680
1782117212.446031,0.288000,1659208,1000,12,0,1,1167.381,-3.357,19.358,332.518,5.077,12.989
1782117212.447031,0.289000,1659209,1000,12,0,1,1160.391,-9.463,18.970,335.761,5.481,12.042
1782117212.448030,0.290000,1659210,1000,12,0,1,1167.020,-2.199,18.773,343.760,10.962,11.480
1782117212.449030,0.291000,1659211,1000,12,0,1,1168.918,3.710,18.589,350.966,15.684,11.521
1782117212.450031,0.292000,1659212,1000,12,0,1,1153.136,-8.112,18.256,361.415,21.426,11.846
1782117212.451030,0.293000,1659213,1000,12,0,1,1147.564,-12.888,18.346,364.105,22.046,12.249
1782117212.452030,0.294000,1659214,1000,12,0,1,1158.469,0.716,17.027,354.569,9.899,12.042
1782117212.453031,0.295000,1659215,1000,12,0,1,1165.867,10.641,14.691,341.358,-4.182,11.520
1782117212.454031,0.296000,1659216,1000,12,0,1,1174.395,17.055,14.134,333.455,-11.996,11.461
1782117212.455030,0.297000,1659217,1000,12,0,1,1186.645,26.751,14.596,329.996,-13.577,11.587
1782117212.456031,0.298000,1659218,1000,12,0,1,1204.733,37.915,15.465,316.737,-21.831,11.988
1782117212.457031,0.299000,1659219,1000,12,0,1,1212.780,41.127,16.285,301.435,-33.689,12.897
1782117212.458030,0.300000,1659220,1000,12,0,1,1191.137,16.563,16.219,303.405,-28.859,13.486
1782117212.459031,0.301000,1659221,1000,12,0,1,1.105,-861.736,122.925,303.405,-22.289,13.712
1782117212.460031,0.302000,1659222,1000,12,0,1,1159.646,-233.571,127.283,343.592,8.526,13.413
1782117212.461030,0.303000,1659223,1000,12,0,1,1162.793,473.719,143.815,343.472,19.712,13.356
1782117212.462030,0.304000,1659224,1000,12,0,1,1160.991,-72.708,144.181,333.047,-3.482,13.356
1782117212.463031,0.305000,1659225,1000,12,0,1,1153.809,258.902,148.729,323.270,-8.164,13.337
1782117212.464031,0.306000,1659226,1000,12,0,1,1143.888,13.522,148.718,318.634,-17.103,13.531
1782117212.465030,0.307000,1659227,1000,12,0,1,1144.441,112.472,149.566,313.662,-17.565,13.755
1782117212.466031,0.308000,1659228,1000,12,0,1,1163.537,78.769,149.963,306.528,-22.452,14.089
1782117212.467031,0.309000,1659229,1000,12,0,1,1174.299,63.501,150.153,310.299,-17.376,14.216
1782117212.468030,0.310000,1659230,1000,12,0,1,1167.333,91.960,150.582,327.858,2.173,14.114
1782117212.469031,0.311000,1659231,1000,12,0,1,1153.593,5.534,150.518,350.341,22.300,14.297
1782117212.470031,0.312000,1659232,1000,12,0,1,1152.103,65.721,150.800,365.859,36.425,14.950
1782117212.471030,0.313000,1659233,1000,12,0,1,1157.124,-0.712,150.799,375.491,39.017,15.654
1782117212.472030,0.314000,1659234,1000,12,0,1,1145.810,49.113,150.957,379.527,38.813,16.387
1782117212.473031,0.315000,1659235,1000,12,0,1,1154.842,-2.000,150.958,347.195,8.279,16.359
1782117212.474030,0.316000,1659236,1000,12,0,1,1177.037,60.314,151.197,300.811,-36.234,17.140
1782117212.475030,0.317000,1659237,1000,12,0,1,1194.884,37.779,151.290,272.587,-57.153,18.928
1782117212.476031,0.318000,1659238,1000,12,0,1,1185.252,48.412,151.431,275.541,-46.663,20.001
1782117212.477031,0.319000,1659239,1000,12,0,1,1147.876,-8.146,151.432,290.146,-22.781,20.179
1782117212.478030,0.320000,1659240,1000,12,0,1,1139.445,-14.791,151.446,297.160,-9.660,20.049
1782117212.479031,0.321000,1659241,1000,12,0,1,1162.817,1.137,151.446,292.644,-9.691,19.934
1782117212.480031,0.322000,1659242,1000,12,0,1,1180.808,15.871,151.455,290.026,-10.736,19.942
1782117212.481030,0.323000,1659243,1000,12,0,1,1175.139,6.651,151.451,296.367,-3.594,19.920
1782117212.482030,0.324000,1659244,1000,12,0,1,1163.153,-15.024,151.466,308.305,7.645,19.931
1782117212.483031,0.325000,1659245,1000,12,0,1,1144.849,-30.883,151.514,315.848,13.683,20.023
1782117212.484030,0.326000,1659246,1000,12,0,1,1118.979,-58.461,151.739,315.199,10.860,20.077
1782117212.485030,0.327000,1659247,1000,12,0,1,1111.316,-61.380,151.955,315.247,7.396,20.066
1782117212.486031,0.328000,1659248,1000,12,0,1,1138.772,-36.146,152.021,304.798,-1.372,20.038
1782117212.487031,0.329000,1659249,1000,12,0,1,1174.779,3.167,152.011,290.962,-15.154,20.119
1782117212.488030,0.330000,1659250,1000,12,0,1,1179.055,7.380,152.001,289.689,-14.254,20.149
1782117212.489031,0.331000,1659251,1000,12,0,1,1173.962,-1.028,151.993,289.689,-9.251,20.140
1782117212.490031,0.332000,1659252,1000,12,0,1,1168.341,-5.863,151.991,286.855,-8.009,20.161
1782117212.491030,0.333000,1659253,1000,12,0,1,1171.152,-4.073,151.986,290.650,-1.089,20.161
1782117212.492031,0.334000,1659254,1000,12,0,1,1179.319,5.800,151.981,298.937,10.177,20.212
1782117212.493031,0.335000,1659255,1000,12,0,1,1180.400,8.398,151.982,302.156,15.986,20.325
1782117212.494030,0.336000,1659256,1000,12,0,1,1175.908,4.913,151.983,304.150,17.977,20.464
1782117212.495030,0.337000,1659257,1000,12,0,1,1179.439,7.588,151.987,306.192,20.207,20.645
1782117212.496031,0.338000,1659258,1000,12,0,1,1174.683,6.098,151.989,305.687,18.920,20.805
1782117212.497030,0.339000,1659259,1000,12,0,1,1144.681,-18.664,152.006,312.053,21.771,21.018
1782117212.498030,0.340000,1659260,1000,12,0,1,1135.289,-29.412,152.062,314.407,22.878,21.209
1782117212.499031,0.341000,1659261,1000,12,0,1,1135.289,-21.387,152.092,314.407,17.957,21.245
1782117212.500031,0.342000,1659262,1000,12,0,1,1157.580,-3.974,152.088,319.475,18.333,21.187
1782117212.501030,0.343000,1659263,1000,12,0,1,1162.793,7.576,152.081,318.658,14.201,21.052
1782117212.502031,0.344000,1659264,1000,12,0,1,1162.576,-0.606,152.081,315.247,5.815,21.022
1782117212.503031,0.345000,1659265,1000,12,0,1,1159.526,-2.947,152.074,317.265,3.695,21.020
1782117212.504030,0.346000,1659266,1000,12,0,1,1157.052,-10.030,152.062,321.589,4.393,20.960
1782117212.505030,0.347000,1659267,1000,12,0,1,1156.547,-11.365,152.023,324.832,4.330,20.881
1782117212.506031,0.348000,1659268,1000,12,0,1,1154.169,-14.051,151.942,322.982,0.383,20.652
1782117212.507030,0.349000,1659269,1000,12,0,1,1169.903,-3.477,151.831,314.719,-8.465,20.130
1782117212.508030,0.350000,1659270,1000,12,0,1,1186.189,13.840,151.826,308.305,-14.874,19.824
1782117212.509031,0.351000,1659271,1000,12,0,1,1171.632,0.419,90.550,309.290,-12.615,19.653
1782117212.510031,0.352000,1659272,1000,12,0,1,1156.091,-15.677,84.339,309.843,-9.048,19.658
1782117212.511030,0.353000,1659273,1000,12,0,1,1144.321,-21.530,51.324,308.882,-7.813,19.490
1782117212.512031,0.354000,1659274,1000,12,0,1,1145.258,-17.219,50.342,309.074,-5.148,19.498
1782117212.513031,0.355000,1659275,1000,12,0,1,1162.456,3.826,34.554,315.824,2.184,19.466
1782117212.514030,0.356000,1659276,1000,12,0,1,1167.477,14.618,34.563,323.823,11.078,19.379
1782117212.515031,0.357000,1659277,1000,12,0,1,1167.309,13.912,30.749,328.507,14.660,19.330
1782117212.516031,0.358000,1659278,1000,12,0,1,1171.344,18.785,28.783,331.774,15.675,19.196
1782117212.517030,0.359000,1659279,1000,12,0,1,1169.951,17.348,27.456,336.145,16.626,19.183
1782117212.518030,0.360000,1659280,1000,12,0,1,1154.842,3.952,24.187,342.991,18.824,19.364
1782117212.519031,0.361000,1659281,1000,12,0,1,1141.174,-10.315,24.218,350.125,20.727,19.329
1782117212.520030,0.362000,1659282,1000,12,0,1,1145.786,-6.625,22.383,347.555,14.059,18.736
1782117212.521030,0.363000,1659283,1000,12,0,1,1152.776,1.222,22.384,339.844,1.490,17.906
1782117212.522031,0.364000,1659284,1000,12,0,1,1152.200,-0.895,21.279,336.938,-5.268,17.060
1782117212.523031,0.365000,1659285,1000,12,0,1,1157.052,0.054,21.277,336.482,-7.738,17.055
1782117212.524030,0.366000,1659286,1000,12,0,1,1166.924,6.389,19.513,327.114,-16.429,16.432
1782117212.525031,0.367000,1659287,1000,12,0,1,1164.594,2.454,18.771,317.673,-25.845,14.767
1782117212.526031,0.368000,1659288,1000,12,0,1,1146.363,-16.158,17.627,314.743,-26.353,13.726
1782117212.527030,0.369000,1659289,1000,12,0,1,1136.394,-26.979,17.998,321.685,-18.064,13.585
1782117212.528030,0.370000,1659290,1000,12,0,1,1141.294,-19.729,18.092,331.149,-6.293,13.545
1782117212.529031,0.371000,1659291,1000,12,0,1,1164.186,2.040,18.094,338.283,1.293,13.477
1782117212.530030,0.372000,1659292,1000,12,0,1,1191.353,28.452,18.400,344.312,6.844,13.426
1782117212.531030,0.373000,1659293,1000,12,0,1,1187.414,26.178,18.745,352.095,12.847,13.539
1782117212.532031,0.374000,1659294,1000,12,0,1,1161.544,-0.094,18.624,362.664,20.295,13.797
1782117212.533031,0.375000,1659295,1000,12,0,1,1156.259,-6.503,18.128,354.473,13.227,13.789
1782117212.534030,0.376000,1659296,1000,12,0,1,1174.947,13.054,16.238,338.884,-4.800,13.720
1782117212.535031,0.377000,1659297,1000,12,0,1,1190.080,29.066,14.326,316.424,-22.162,14.034
1782117212.536031,0.378000,1659298,1000,12,0,1,1193.923,30.387,14.056,304.102,-32.946,14.786
1782117212.537030,0.379000,1659299,1000,12,0,1,1200.265,31.243,14.727,297.184,-31.753,15.304
1782117212.538031,0.380000,1659300,1000,12,0,1,1194.932,24.169,15.082,291.443,-32.153,15.837
1782117212.539031,0.381000,1659301,1000,12,0,1,1173.338,0.327,15.082,292.235,-25.944,16.204
1782117212.540030,0.382000,1659302,1000,12,0,1,1149.605,-23.245,15.414,304.606,-11.094,16.240
1782117212.541030,0.383000,1659303,1000,12,0,1,1140.093,-32.190,16.062,309.506,-2.140,16.242
1782117212.542031,0.384000,1659304,1000,12,0,1,1134.232,-33.222,16.714,311.428,-0.984,16.179
1782117212.543031,0.385000,1659305,1000,12,0,1,1134.400,-31.492,17.257,316.496,3.630,16.028
1782117212.544030,0.386000,1659306,1000,12,0,1,1146.723,-18.193,17.434,312.941,1.294,15.826
1782117212.545031,0.387000,1659307,1000,12,0,1,1145.858,-14.891,17.528,311.620,-2.271,15.570
1782117212.546031,0.388000,1659308,1000,12,0,1,1143.288,-19.097,17.713,313.686,0.980,15.339
1782117212.547030,0.389000,1659309,1000,12,0,1,1143.192,-16.267,17.666,314.094,1.144,15.027
1782117212.548031,0.390000,1659310,1000,12,0,1,1148.380,-11.518,17.247,314.262,2.183,14.678
1782117212.549031,0.391000,1659311,1000,12,0,1,1158.709,0.028,16.979,316.376,4.364,14.470
1782117212.550030,0.392000,1659312,1000,12,0,1,1158.445,2.164,16.973,321.421,9.634,14.301
1782117212.551030,0.393000,1659313,1000,12,0,1,1144.321,-8.781,16.984,331.341,18.135,14.390
1782117212.552031,0.394000,1659314,1000,12,0,1,1142.495,-9.682,17.039,340.085,25.602,14.815
1782117212.553030,0.395000,1659315,1000,12,0,1,1154.890,5.847,17.054,340.925,24.638,15.211
1782117212.554030,0.396000,1659316,1000,12,0,1,1160.703,15.201,17.131,337.322,18.617,15.424
1782117212.555031,0.397000,1659317,1000,12,0,1,1158.253,13.942,17.169,337.442,16.013,15.578
1782117212.556031,0.398000,1659318,1000,12,0,1,1152.872,10.428,17.117,344.240,19.505,15.820
1782117212.557030,0.399000,1659319,1000,12,0,1,1152.584,10.047,17.169,350.125,22.475,16.091
1782117212.558031,0.400000,1659320,1000,12,0,1,1170.047,24.460,17.404,344.144,14.278,16.081
1782117212.559031,0.401000,1659321,1000,12,0,1,1195.725,45.395,18.550,328.098,-3.255,15.988
1782117212.560030,0.402000,1659322,1000,12,0,1,1188.495,37.028,19.147,320.220,-13.276,16.047
1782117212.561031,0.403000,1659323,1000,12,0,1,1143.792,-8.805,18.944,322.213,-11.064,16.085
1782117212.562031,0.404000,1659324,1000,12,0,1,1109.947,-43.590,19.773,324.399,-8.722,16.116
1782117212.563030,0.405000,1659325,1000,12,0,1,1118.955,-34.171,20.348,323.150,-9.865,16.173
1782117212.564030,0.406000,1659326,1000,12,0,1,1137.643,-10.766,20.300,323.294,-10.514,16.166
1782117212.565031,0.407000,1659327,1000,12,0,1,1137.643,-8.534,20.240,330.332,-4.990,16.048
1782117212.566031,0.408000,1659328,1000,12,0,1,1137.331,-10.546,20.120,331.341,-3.094,15.900
1782117212.567030,0.409000,1659329,1000,12,0,1,1158.013,6.147,19.989,326.705,-8.582,15.772
1782117212.568031,0.410000,1659330,1000,12,0,1,1184.075,28.594,20.386,323.462,-11.134,15.625
1782117212.569031,0.411000,1659331,1000,12,0,1,1186.717,28.437,20.728,317.745,-14.407,15.482
1782117212.570030,0.412000,1659332,1000,12,0,1,1175.283,11.845,20.774,313.494,-16.430,15.529
1782117212.571031,0.413000,1659333,1000,12,0,1,1167.549,1.709,20.775,314.551,-12.339,15.625
1782117212.572031,0.414000,1659334,1000,12,0,1,1152.464,-10.356,20.826,320.148,-4.413,15.620
1782117212.573030,0.415000,1659335,1000,12,0,1,1145.258,-16.927,20.963,321.613,0.347,15.582
1782117212.574030,0.416000,1659336,1000,12,0,1,1157.412,-2.540,20.947,319.811,0.043,15.407
1782117212.575031,0.417000,1659337,1000,12,0,1,1162.000,6.889,20.967,322.598,3.584,14.976
1782117212.576030,0.418000,1659338,1000,12,0,1,1162.240,6.967,20.865,323.558,6.293,14.532
1782117212.577030,0.419000,1659339,1000,12,0,1,1161.183,8.026,20.545,322.862,5.461,14.327
1782117212.578031,0.420000,1659340,1000,12,0,1,1152.055,0.675,20.355,325.912,7.840,14.342
1782117212.579031,0.421000,1659341,1000,12,0,1,1145.089,-5.611,20.368,328.146,9.505,14.404
1782117212.580030,0.422000,1659342,1000,12,0,1,1158.421,5.255,19.980,328.699,8.330,14.420
1782117212.581031,0.423000,1659343,1000,12,0,1,1173.482,19.774,19.833,326.969,5.353,14.325
1782117212.582031,0.424000,1659344,1000,12,0,1,1166.948,11.860,19.903,323.655,0.582,14.034
1782117212.583030,0.425000,1659345,1000,12,0,1,1162.985,1.623,19.883,324.832,-0.242,13.909
1782117212.584031,0.426000,1659346,1000,12,0,1,1167.669,3.504,19.804,322.213,-2.373,13.897
1782117212.585031,0.427000,1659347,1000,12,0,1,1172.881,4.356,19.382,321.373,-5.135,13.558
1782117212.586030,0.428000,1659348,1000,12,0,1,1171.824,0.883,18.900,323.246,-3.016,12.740
1782117212.587030,0.429000,1659349,1000,12,0,1,1167.909,-6.315,18.398,325.912,-1.196,11.923
1782117212.588031,0.430000,1659350,1000,12,0,1,1163.850,-11.274,18.148,326.297,-0.452,11.022
1782117212.589031,0.431000,1659351,1000,12,0,1,1162.384,-13.229,18.244,326.153,-0.985,10.394
1782117212.590030,0.432000,1659352,1000,12,0,1,1156.331,-16.416,18.095,328.915,1.492,10.278
1782117212.591031,0.433000,1659353,1000,12,0,1,1153.545,-17.793,17.693,326.561,0.820,10.274
1782117212.592031,0.434000,1659354,1000,12,0,1,1157.364,-10.778,17.126,326.009,-0.491,10.273
1782117212.593030,0.435000,1659355,1000,12,0,1,1158.061,-5.983,16.558,329.275,3.807,10.274
1782117212.594031,0.436000,1659356,1000,12,0,1,1158.349,-3.387,16.364,332.038,6.505,10.314
1782117212.595031,0.437000,1659357,1000,12,0,1,1160.391,1.621,16.230,330.741,5.875,10.342
1782117212.596030,0.438000,1659358,1000,12,0,1,1160.895,4.243,16.015,331.077,5.051,10.366
1782117212.597030,0.439000,1659359,1000,12,0,1,1156.908,2.838,15.854,329.227,3.988,10.380
1782117212.598031,0.440000,1659360,1000,12,0,1,1154.650,1.223,15.771,330.212,3.229,10.385
1782117212.599030,0.441000,1659361,1000,12,0,1,1152.296,0.911,15.771,329.107,2.769,10.374
1782117212.600030,0.442000,1659362,1000,12,0,1,1143.216,-6.007,15.791,331.437,2.560,10.291
1782117212.601031,0.443000,1659363,1000,12,0,1,1143.216,-7.022,15.773,331.437,2.746,9.974
1782117212.602031,0.444000,1659364,1000,12,0,1,1133.728,-11.273,15.795,331.749,0.550,9.294
1782117212.603030,0.445000,1659365,1000,12,0,1,1128.491,-18.163,15.981,331.509,-0.345,8.616
1782117212.604031,0.446000,1659366,1000,12,0,1,1125.609,-16.556,16.008,334.800,0.359,8.204
1782117212.605031,0.447000,1659367,1000,12,0,1,1129.116,-13.878,16.006,337.995,2.427,7.893
1782117212.606030,0.448000,1659368,1000,12,0,1,1141.775,-0.865,15.939,333.887,-2.099,7.401
1782117212.607030,0.449000,1659369,1000,12,0,1,1154.650,10.527,15.945,329.924,-7.480,6.767
1782117212.608031,0.450000,1659370,1000,12,0,1,1161.904,15.237,15.714,327.954,-8.428,6.568
1782117212.609030,0.451000,1659371,1000,12,0,1,1165.291,15.661,14.513,326.969,-8.902,6.671
1782117212.610030,0.452000,1659372,1000,12,0,1,1154.890,5.394,13.556,327.306,-6.953,6.477
1782117212.611031,0.453000,1659373,1000,12,0,1,1145.930,-4.938,13.517,332.278,-1.915,6.291
1782117212.612031,0.454000,1659374,1000,12,0,1,1145.738,-3.509,12.040,333.263,1.315,6.172
1782117212.613030,0.455000,1659375,1000,12,0,1,1152.368,4.298,11.044,330.741,-0.946,6.013
1782117212.614031,0.456000,1659376,1000,12,0,1,1155.490,9.790,11.026,328.675,-1.692,5.831
1782117212.615031,0.457000,1659377,1000,12,0,1,1155.058,10.201,11.054,329.179,-0.611,5.789
1782117212.616030,0.458000,1659378,1000,12,0,1,1162.336,16.085,11.187,334.584,4.641,5.810
1782117212.617031,0.459000,1659379,1000,12,0,1,1174.347,26.867,11.782,343.111,12.120,5.935
1782117212.618031,0.460000,1659380,1000,12,0,1,1167.981,21.008,11.459,348.492,15.713,6.138
1782117212.619030,0.461000,1659381,1000,12,0,1,1152.680,3.649,10.742,357.332,19.742,6.428
1782117212.620030,0.462000,1659382,1000,12,0,1,1138.171,-9.710,10.699,366.748,24.747,6.941
1782117212.621031,0.463000,1659383,1000,12,0,1,1130.269,-16.725,10.955,374.867,26.291,7.678
1782117212.622030,0.464000,1659384,1000,12,0,1,1136.514,-10.460,10.957,373.377,20.252,8.171
1782117212.623030,0.465000,1659385,1000,12,0,1,1153.449,5.172,10.717,354.521,-0.929,8.172
1782117212.624031,0.466000,1659386,1000,12,0,1,1163.033,13.052,10.869,333.839,-23.156,8.804
1782117212.625031,0.467000,1659387,1000,12,0,1,1161.520,7.957,10.884,325.072,-30.356,9.781
1782117212.626030,0.468000,1659388,1000,12,0,1,1164.834,5.497,10.867,323.799,-28.110,10.521
1782117212.627031,0.469000,1659389,1000,12,0,1,1181.961,16.248,11.049,315.175,-30.308,11.334
1782117212.628031,0.470000,1659390,1000,12,0,1,1182.802,15.515,11.264,308.065,-33.396,12.229
1782117212.629030,0.471000,1659391,1000,12,0,1,1165.435,-5.087,11.259,319.091,-19.408,12.461
1782117212.630030,0.472000,1659392,1000,12,0,1,1162.456,-11.761,11.357,326.561,-6.153,12.435
1782117212.631031,0.473000,1659393,1000,12,0,1,1174.923,0.246,11.008,332.350,-0.431,12.412
1782117212.632030,0.474000,1659394,1000,12,0,1,1175.908,3.185,10.888,341.142,9.105,12.479
1782117212.633030,0.475000,1659395,1000,12,0,1,1160.583,-9.895,10.975,346.042,13.220,12.618
1782117212.634031,0.476000,1659396,1000,12,0,1,1141.534,-24.872,11.515,354.905,18.466,12.881
1782117212.635031,0.477000,1659397,1000,12,0,1,1143.336,-20.824,11.869,360.262,22.038,13.233
1782117212.636030,0.478000,1659398,1000,12,0,1,1155.514,-3.214,11.877,355.362,14.365,13.381
1782117212.637031,0.479000,1659399,1000,12,0,1,1161.424,5.478,11.869,348.156,4.932,13.398
1782117212.638031,0.480000,1659400,1000,12,0,1,1165.915,9.990,11.846,348.684,2.866,13.404
1782117212.639030,0.481000,1659401,1000,12,0,1,1180.232,20.989,12.068,335.473,-6.592,13.436
1782117212.640031,0.482000,1659402,1000,12,0,1,1198.728,34.693,12.819,325.985,-17.736,13.666
1782117212.641031,0.483000,1659403,1000,12,0,1,1205.958,36.259,13.575,335.064,-7.523,13.707
1782117212.642030,0.484000,1659404,1000,12,0,1,1196.133,20.482,13.797,347.723,5.629,13.730
1782117212.643030,0.485000,1659405,1000,12,0,1,1157.196,-17.379,13.988,361.343,16.333,13.912
1782117212.644031,0.486000,1659406,1000,12,0,1,1126.521,-50.126,15.675,369.198,21.843,14.222
1782117212.645030,0.487000,1659407,1000,12,0,1,1131.085,-42.889,16.806,353.800,6.214,14.224
1782117212.646030,0.488000,1659408,1000,12,0,1,1147.924,-22.015,17.081,330.957,-17.420,14.418
1782117212.647031,0.489000,1659409,1000,12,0,1,1151.335,-14.615,17.201,323.679,-23.897,14.799
1782117212.648031,0.490000,1659410,1000,12,0,1,1149.365,-15.774,17.344,328.603,-15.910,14.962
1782117212.649030,0.491000,1659411,1000,12,0,1,1156.860,-8.286,17.383,325.624,-14.107,15.089
1782117212.650031,0.492000,1659412,1000,12,0,1,1154.722,-6.027,17.384,315.776,-20.423,15.359
1782117212.651031,0.493000,1659413,1000,12,0,1,1146.987,-12.804,17.449,312.605,-20.479,15.624
1782117212.652030,0.494000,1659414,1000,12,0,1,1149.653,-7.982,17.413,309.530,-17.904,15.828
1782117212.653030,0.495000,1659415,1000,12,0,1,1155.947,1.102,17.223,305.303,-18.144,16.035
1782117212.654031,0.496000,1659416,1000,12,0,1,1162.961,9.177,17.113,305.951,-13.611,16.150
1782117212.655030,0.497000,1659417,1000,12,0,1,1163.729,12.026,17.085,311.572,-5.193,16.163
1782117212.656030,0.498000,1659418,1000,12,0,1,1163.994,11.526,17.162,313.902,0.249,16.160
1782117212.657031,0.499000,1659419,1000,12,0,1,1154.049,5.183,17.113,318.010,4.334,16.137
1782117212.658031,0.500000,1659420,1000,12,0,1,1165.003,10.491,17.041,318.634,6.831,16.122
1782117212.659030,0.501000,1659421,1000,12,0,1,1177.878,25.733,17.284,319.883,6.926,16.103
1782117212.660031,0.502000,1659422,1000,12,0,1,1172.329,17.662,17.447,322.429,9.658,16.130
1782117212.661031,0.503000,1659423,1000,12,0,1,1167.501,9.203,17.482,326.417,12.158,16.220
1782117212.662030,0.504000,1659424,1000,12,0,1,1185.300,20.159,17.706,327.642,12.899,16.321
1782117212.663031,0.505000,1659425,1000,12,0,1,1195.245,28.003,18.133,327.786,11.369,16.399
1782117212.664031,0.506000,1659426,1000,12,0,1,1178.598,8.262,18.118,328.555,10.912,16.470
1782117212.665030,0.507000,1659427,1000,12,0,1,1174.419,-3.786,18.068,328.915,10.288,16.534
1782117212.666030,0.508000,1659428,1000,12,0,1,1176.268,-1.577,17.926,329.540,9.546,16.576
1782117212.667031,0.509000,1659429,1000,12,0,1,1171.032,-9.071,17.565,331.077,10.049,16.548
1782117212.668031,0.510000,1659430,1000,12,0,1,1163.465,-15.825,17.456,329.516,7.934,16.437
1782117212.669030,0.511000,1659431,1000,12,0,1,1157.916,-20.681,17.692,330.789,7.370,16.231
1782117212.670031,0.512000,1659432,1000,12,0,1,1165.579,-13.012,17.734,328.915,5.935,15.872
1782117212.671031,0.513000,1659433,1000,12,0,1,1171.800,-3.804,17.584,327.138,2.664,15.435
1782117212.672030,0.514000,1659434,1000,12,0,1,1177.710,0.893,17.522,324.111,0.355,15.167
1782117212.673031,0.515000,1659435,1000,12,0,1,1192.843,14.092,17.620,327.089,1.395,15.167
1782117212.674031,0.516000,1659436,1000,12,0,1,1183.426,8.540,17.565,326.777,2.438,14.814
1782117212.675030,0.517000,1659437,1000,12,0,1,1165.387,-11.259,17.601,323.510,-1.919,14.181
1782117212.676030,0.518000,1659438,1000,12,0,1,1170.359,-6.610,17.608,321.973,-3.395,13.620
1782117212.677031,0.519000,1659439,1000,12,0,1,1179.007,4.650,17.470,326.033,-0.470,12.929
1782117212.678030,0.520000,1659440,1000,12,0,1,1174.203,1.368,17.333,335.136,6.977,12.075
1782117212.679030,0.521000,1659441,1000,12,0,1,1165.123,-6.960,17.346,346.594,15.477,11.961
1782117212.680031,0.522000,1659442,1000,12,0,1,1153.497,-15.618,17.407,357.668,21.947,12.327
1782117212.681031,0.523000,1659443,1000,12,0,1,1146.627,-20.390,17.644,357.932,19.213,12.623
1782117212.682030,0.524000,1659444,1000,12,0,1,1146.483,-17.360,17.808,360.142,14.535,12.724
1782117212.683031,0.525000,1659445,1000,12,0,1,1149.413,-12.074,17.835,357.043,10.154,12.667
1782117212.684031,0.526000,1659446,1000,12,0,1,1163.922,0.941,17.485,345.225,-4.015,12.408
1782117212.685030,0.527000,1659447,1000,12,0,1,1179.007,15.407,17.373,327.858,-19.339,12.318
1782117212.686031,0.528000,1659448,1000,12,0,1,1196.542,26.241,17.759,312.221,-31.959,12.963
1782117212.687031,0.529000,1659449,1000,12,0,1,1202.451,28.959,18.209,316.184,-25.938,13.454
1782117212.688030,0.530000,1659450,1000,12,0,1,1194.308,15.099,18.279,335.713,-3.817,13.458
1782117212.689030,0.531000,1659451,1000,12,0,1,1182.490,0.445,18.036,351.975,12.919,13.550
1782117212.690031,0.532000,1659452,1000,12,0,1,1169.687,-12.457,17.445,362.952,21.042,13.644
1782117212.691031,0.533000,1659453,1000,12,0,1,1158.133,-21.837,16.958,366.772,21.543,13.940
1782117212.692030,0.534000,1659454,1000,12,0,1,1150.134,-25.408,17.091,372.152,20.815,14.225
1782117212.693031,0.535000,1659455,1000,12,0,1,1156.331,-16.860,17.081,369.534,15.689,14.210
1782117212.694031,0.536000,1659456,1000,12,0,1,1181.481,8.997,15.592,348.684,-5.997,13.896
1782117212.695030,0.537000,1659457,1000,12,0,1,1201.202,29.198,14.946,334.320,-22.411,14.226
1782117212.696031,0.538000,1659458,1000,12,0,1,1180.184,12.058,14.717,347.027,-11.335,14.102
1782117212.697031,0.539000,1659459,1000,12,0,1,1150.278,-19.104,14.819,367.732,8.875,13.749
1782117212.698030,0.540000,1659460,1000,12,0,1,1146.459,-20.831,14.944,374.626,14.073,13.709
1782117212.699030,0.541000,1659461,1000,12,0,1,1147.227,-13.998,15.029,379.310,13.009,13.687
1782117212.700031,0.542000,1659462,1000,12,0,1,1148.428,-10.689,15.081,383.730,13.860,13.522
1782117212.701030,0.543000,1659463,1000,12,0,1,1175.211,12.528,15.076,353.993,-12.042,13.317
1782117212.702030,0.544000,1659464,1000,12,0,1,1205.982,40.616,16.094,309.626,-53.638,15.116
1782117212.703031,0.545000,1659465,1000,12,0,1,1202.907,34.476,16.815,304.366,-55.878,16.862
1782117212.704031,0.546000,1659466,1000,12,0,1,1193.083,15.389,16.906,314.623,-34.747,17.458
1782117212.705030,0.547000,1659467,1000,12,0,1,1176.004,-1.870,16.822,323.751,-20.767,17.688
1782117212.706031,0.548000,1659468,1000,12,0,1,1149.894,-28.137,17.209,332.422,-7.271,17.718
1782117212.707031,0.549000,1659469,1000,12,0,1,1130.725,-43.330,18.253,348.132,7.693,17.741
1782117212.708030,0.550000,1659470,1000,12,0,1,1126.041,-42.601,19.164,362.688,22.059,17.987
1782117212.709031,0.551000,1659471,1000,12,0,1,1139.156,-25.131,19.148,362.160,20.118,18.184
1782117212.710031,0.552000,1659472,1000,12,0,1,1153.497,-5.365,19.000,347.963,4.782,18.146
1782117212.711030,0.553000,1659473,1000,12,0,1,1174.010,13.303,19.048,335.064,-8.684,18.106
1782117212.712030,0.554000,1659474,1000,12,0,1,1184.796,25.778,19.183,334.031,-9.690,18.066
1782117212.713031,0.555000,1659475,1000,12,0,1,1178.646,17.583,18.934,337.875,-3.932,18.002
1782117212.714031,0.556000,1659476,1000,12,0,1,1179.151,14.556,19.010,331.149,-7.620,17.969
1782117212.715030,0.557000,1659477,1000,12,0,1,1180.832,16.090,19.138,315.680,-19.641,18.124
1782117212.716031,0.558000,1659478,1000,12,0,1,1178.598,12.084,19.213,309.386,-23.371,18.373
1782117212.717031,0.559000,1659479,1000,12,0,1,1179.655,11.484,19.239,307.056,-19.539,18.525
1782117212.718030,0.560000,1659480,1000,12,0,1,1171.272,4.519,19.119,311.812,-12.362,18.574
1782117212.719031,0.561000,1659481,1000,12,0,1,1165.411,-3.213,18.899,310.035,-7.649,18.576
1782117212.720031,0.562000,1659482,1000,12,0,1,1154.265,-10.216,18.865,307.008,-8.962,18.600
1782117212.721030,0.563000,1659483,1000,12,0,1,1151.743,-14.007,18.961,308.281,-4.053,18.605
1782117212.722030,0.564000,1659484,1000,12,0,1,1154.890,-7.502,18.990,308.473,-1.031,18.606
1782117212.723031,0.565000,1659485,1000,12,0,1,1155.707,-6.078,18.905,310.083,2.077,18.607
1782117212.724030,0.566000,1659486,1000,12,0,1,1176.316,9.665,18.916,314.839,7.990,18.638
1782117212.725030,0.567000,1659487,1000,12,0,1,1211.819,39.690,19.666,311.884,7.125,18.663
1782117212.726031,0.568000,1659488,1000,12,0,1,1214.341,39.336,20.417,314.431,8.005,18.691
1782117212.727031,0.569000,1659489,1000,12,0,1,1196.758,13.640,20.497,315.920,11.203,18.758
1782117212.728030,0.570000,1659490,1000,12,0,1,1181.817,-4.726,20.507,314.695,9.056,18.776
1782117212.729031,0.571000,1659491,1000,12,0,1,1171.560,-15.759,20.604,313.374,7.945,18.682
1782117212.730031,0.572000,1659492,1000,12,0,1,1159.021,-25.156,20.792,311.812,6.385,18.444
1782117212.731030,0.573000,1659493,1000,12,0,1,1157.532,-25.214,20.898,317.145,9.974,18.298
1782117212.732030,0.574000,1659494,1000,12,0,1,1161.472,-16.479,20.883,320.292,13.725,18.285
1782117212.733031,0.575000,1659495,1000,12,0,1,1164.138,-10.691,20.868,319.859,11.296,18.298
1782117212.734030,0.576000,1659496,1000,12,0,1,1164.282,-7.300,20.893,321.949,11.945,18.368
1782117212.735030,0.577000,1659497,1000,12,0,1,1158.661,-9.005,20.818,328.363,15.598,18.296
1782117212.736031,0.578000,1659498,1000,12,0,1,1165.771,-2.683,20.489,331.485,17.243,17.896
1782117212.737031,0.579000,1659499,1000,12,0,1,1192.722,22.515,20.326,334.512,16.366,17.668
1782117212.738030,0.580000,1659500,1000,12,0,1,1215.902,42.188,21.076,337.851,16.961,17.822
1782117212.739031,0.581000,1659501,1000,12,0,1,1203.628,28.904,21.468,336.313,12.902,17.822
1782117212.740031,0.582000,1659502,1000,12,0,1,1177.758,-1.948,21.398,334.152,7.758,17.606
1782117212.741030,0.583000,1659503,1000,12,0,1,1161.616,-18.021,21.327,335.016,6.398,17.364
1782117212.742031,0.584000,1659504,1000,12,0,1,1173.482,-9.484,21.064,329.540,0.848,17.113
1782117212.743031,0.585000,1659505,1000,12,0,1,1188.687,7.599,20.957,326.369,-4.292,16.980
1782117212.744030,0.586000,1659506,1000,12,0,1,1184.387,2.807,20.922,330.188,-1.071,16.959
1782117212.745030,0.587000,1659507,1000,12,0,1,1179.655,-4.957,20.522,332.951,1.415,16.661
1782117212.746031,0.588000,1659508,1000,12,0,1,1176.268,-7.527,20.479,333.887,1.119,16.585
1782117212.747030,0.589000,1659509,1000,12,0,1,1172.281,-11.862,20.369,336.506,2.273,16.540
1782117212.748030,0.590000,1659510,1000,12,0,1,1171.993,-11.055,20.215,335.136,0.529,16.420
1782117212.749031,0.591000,1659511,1000,12,0,1,1172.305,-9.490,20.163,334.488,-1.896,16.319
1782117212.750031,0.592000,1659512,1000,12,0,1,1176.244,-5.089,20.119,331.701,-4.205,16.212
1782117212.751030,0.593000,1659513,1000,12,0,1,1179.655,-0.434,20.041,332.710,-4.851,16.137
1782117212.752031,0.594000,1659514,1000,12,0,1,1174.707,-3.435,19.206,333.623,-3.147,14.250
1782117212.753031,0.595000,1659515,1000,12,0,1,1166.564,-9.976,18.631,334.752,-3.091,11.866
1782117212.754030,0.596000,1659516,1000,12,0,1,1164.474,-10.183,18.559,333.935,-3.367,10.811
1782117212.755030,0.597000,1659517,1000,12,0,1,1171.752,-1.709,18.559,332.999,-4.794,10.427
1782117212.756031,0.598000,1659518,1000,12,0,1,1172.473,2.349,18.130,333.479,-4.201,10.393
1782117212.757030,0.599000,1659519,1000,12,0,1,1171.993,1.277,17.064,336.073,-1.883,10.339
1782117212.758030,0.600000,1659520,1000,12,0,1,1172.305,2.967,15.971,336.770,-0.935,9.858
1782117212.759031,0.601000,1659521,1000,12,0,1,1176.869,6.047,15.594,337.274,-0.956,9.440
1782117212.760031,0.602000,1659522,1000,12,0,1,1167.741,0.382,15.576,340.013,1.036,9.417
1782117212.761030,0.603000,1659523,1000,12,0,1,1161.135,-8.405,15.507,341.238,2.187,9.341
1782117212.762031,0.604000,1659524,1000,12,0,1,1168.053,-1.068,15.073,343.063,2.511,9.247
1782117212.763031,0.605000,1659525,1000,12,0,1,1177.205,7.591,14.905,346.042,4.639,9.254
1782117212.764030,0.606000,1659526,1000,12,0,1,1186.165,13.791,14.891,349.573,6.290,9.234
1782117212.765031,0.607000,1659527,1000,12,0,1,1184.964,11.963,14.813,348.108,4.406,8.828
1782117212.766031,0.608000,1659528,1000,12,0,1,1182.922,5.608,14.735,341.646,-2.816,8.195
1782117212.767030,0.609000,1659529,1000,12,0,1,1182.153,4.209,14.658,338.067,-6.858,7.776
1782117212.768030,0.610000,1659530,1000,12,0,1,1174.227,-3.877,14.654,343.159,-2.641,7.586
1782117212.769031,0.611000,1659531,1000,12,0,1,1166.228,-11.400,14.735,346.642,1.532,7.512
1782117212.770030,0.612000,1659532,1000,12,0,1,1162.432,-13.295,14.784,346.762,0.616,7.405
1782117212.771030,0.613000,1659533,1000,12,0,1,1168.341,-6.739,14.682,345.802,-0.737,7.383
1782117212.772031,0.614000,1659534,1000,12,0,1,1175.860,2.821,14.649,344.793,-2.302,7.389
1782117212.773031,0.615000,1659535,1000,12,0,1,1176.869,4.586,14.638,343.760,-3.432,7.399
1782117212.774030,0.616000,1659536,1000,12,0,1,1176.725,4.212,14.587,345.081,-2.640,7.322
1782117212.775031,0.617000,1659537,1000,12,0,1,1185.324,10.718,13.548,342.319,-4.239,7.277
1782117212.776031,0.618000,1659538,1000,12,0,1,1187.486,13.618,12.503,341.334,-5.942,7.237
1782117212.777030,0.619000,1659539,1000,12,0,1,1178.046,3.447,12.363,343.303,-3.318,7.077
1782117212.778030,0.620000,1659540,1000,12,0,1,1173.698,-2.408,12.349,341.814,-3.854,6.982
1782117212.779031,0.621000,1659541,1000,12,0,1,1174.923,-0.766,12.147,344.432,-2.312,6.899
1782117212.780030,0.622000,1659542,1000,12,0,1,1175.307,-0.440,11.615,344.072,-0.892,6.840
1782117212.781030,0.623000,1659543,1000,12,0,1,1176.629,0.277,11.054,345.730,-0.930,6.695
1782117212.782031,0.624000,1659544,1000,12,0,1,1169.326,-5.266,10.831,348.324,2.407,6.416
1782117212.783031,0.625000,1659545,1000,12,0,1,1167.212,-9.130,10.802,350.366,3.170,6.230
1782117212.784030,0.626000,1659546,1000,12,0,1,1174.731,-1.410,10.755,349.381,2.386,6.006
1782117212.785031,0.627000,1659547,1000,12,0,1,1180.688,4.135,10.695,348.180,0.165,5.587
1782117212.786031,0.628000,1659548,1000,12,0,1,1173.146,-2.140,10.693,343.015,-3.774,5.055
1782117212.787030,0.629000,1659549,1000,12,0,1,1166.059,-10.340,10.312,341.550,-5.929,4.571
1782117212.788031,0.630000,1659550,1000,12,0,1,1163.225,-11.175,8.558,345.633,-1.357,3.896
1782117212.789031,0.631000,1659551,1000,12,0,1,1161.736,-10.928,7.675,344.336,-1.154,3.446
1782117212.790030,0.632000,1659552,1000,12,0,1,1168.077,-4.238,7.694,342.727,-3.427,3.303
1782117212.791030,0.633000,1659553,1000,12,0,1,1181.072,8.774,7.365,342.919,-2.236,3.192
1782117212.792031,0.634000,1659554,1000,12,0,1,1182.634,11.390,7.419,342.727,-2.317,3.207
1782117212.793031,0.635000,1659555,1000,12,0,1,1175.788,3.693,7.359,346.642,1.091,3.152
1782117212.794030,0.636000,1659556,1000,12,0,1,1172.401,-0.122,7.348,351.903,5.830,3.255
1782117212.795031,0.637000,1659557,1000,12,0,1,1169.807,-1.340,7.317,359.085,10.714,3.585
1782117212.796031,0.638000,1659558,1000,12,0,1,1172.401,0.615,7.240,366.892,15.897,4.228
1782117212.797030,0.639000,1659559,1000,12,0,1,1177.950,6.716,7.107,369.966,16.087,4.791
1782117212.798031,0.640000,1659560,1000,12,0,1,1177.469,6.334,6.990,374.747,16.030,5.300
1782117212.799031,0.641000,1659561,1000,12,0,1,1169.591,-0.936,6.861,385.436,21.616,6.112
1782117212.800030,0.642000,1659562,1000,12,0,1,1155.827,-12.672,7.055,396.918,27.326,7.207
1782117212.801030,0.643000,1659563,1000,12,0,1,1156.667,-12.642,7.278,397.614,23.500,7.907
1782117212.802031,0.644000,1659564,1000,12,0,1,1181.769,10.513,7.412,378.350,2.369,7.901
1782117212.803030,0.645000,1659565,1000,12,0,1,1192.122,22.343,7.933,361.655,-17.224,8.257
1782117212.804030,0.646000,1659566,1000,12,0,1,1183.787,10.400,7.939,358.004,-19.654,8.699
1782117212.805031,0.647000,1659567,1000,12,0,1,1171.680,-2.734,7.944,363.120,-13.630,8.884
1782117212.806031,0.648000,1659568,1000,12,0,1,1173.602,-4.110,7.959,362.304,-11.089,9.002
1782117212.807030,0.649000,1659569,1000,12,0,1,1182.394,4.739,7.985,359.373,-13.462,9.197
1782117212.808031,0.650000,1659570,1000,12,0,1,1176.605,0.229,7.974,358.004,-12.736,9.371
1782117212.809031,0.651000,1659571,1000,12,0,1,1162.288,-13.640,8.159,356.251,-12.738,9.541
1782117212.810030,0.652000,1659572,1000,12,0,1,1158.325,-16.628,8.491,338.451,-24.479,10.149
1782117212.811031,0.653000,1659573,1000,12,0,1,1173.122,-2.239,8.413,317.289,-41.351,11.709
1782117212.812031,0.654000,1659574,1000,12,0,1,1188.999,14.646,8.663,312.893,-40.249,13.015
1782117212.813030,0.655000,1659575,1000,12,0,1,1186.669,12.467,8.775,323.751,-23.918,13.431
1782117212.814030,0.656000,1659576,1000,12,0,1,1188.807,10.041,8.673,328.002,-13.321,13.533
1782117212.815031,0.657000,1659577,1000,12,0,1,1190.344,11.829,8.669,331.341,-8.376,13.571
1782117212.816031,0.658000,1659578,1000,12,0,1,1187.534,6.599,8.683,342.751,3.604,13.574
1782117212.817030,0.659000,1659579,1000,12,0,1,1177.998,-1.813,8.667,339.076,3.842,13.551
1782117212.818031,0.660000,1659580,1000,12,0,1,1149.581,-25.162,9.353,330.981,-5.281,13.566
1782117212.819031,0.661000,1659581,1000,12,0,1,1136.298,-37.533,10.632,326.393,-6.757,13.598
1782117212.820030,0.662000,1659582,1000,12,0,1,1149.197,-19.895,10.837,327.978,-4.443,13.612
1782117212.821031,0.663000,1659583,1000,12,0,1,1173.314,5.076,10.818,332.710,2.820,13.618
1782117212.822031,0.664000,1659584,1000,12,0,1,1192.987,24.076,11.335,335.809,6.981,13.649
1782117212.823030,0.665000,1659585,1000,12,0,1,1200.241,27.504,11.966,335.425,7.899,13.686
1782117212.824030,0.666000,1659586,1000,12,0,1,1190.489,15.268,12.144,332.350,5.978,13.707
1782117212.825031,0.667000,1659587,1000,12,0,1,1183.450,3.146,12.058,324.615,0.620,13.695
1782117212.826030,0.668000,1659588,1000,12,0,1,1176.292,-3.529,11.913,315.944,-5.400,13.690
1782117212.827030,0.669000,1659589,1000,12,0,1,1173.770,-7.980,11.957,314.214,-4.907,13.700
1782117212.828031,0.670000,1659590,1000,12,0,1,1169.903,-9.384,12.025,319.931,3.073,13.696
1782117212.829031,0.671000,1659591,1000,12,0,1,1158.061,-18.405,12.303,325.504,10.078,13.766
1782117212.830030,0.672000,1659592,1000,12,0,1,1153.689,-21.121,12.661,321.108,7.742,13.809
1782117212.831031,0.673000,1659593,1000,12,0,1,1160.271,-11.269,12.760,318.706,4.067,13.820
1782117212.832031,0.674000,1659594,1000,12,0,1,1187.726,12.968,12.870,317.769,4.599,13.831
1782117212.833030,0.675000,1659595,1000,12,0,1,1200.241,28.422,13.421,322.333,7.177,13.861
1782117212.834031,0.676000,1659596,1000,12,0,1,1184.916,10.954,13.509,331.798,15.370,14.026
1782117212.835031,0.677000,1659597,1000,12,0,1,1180.016,2.064,13.499,334.992,16.861,14.228
1782117212.836030,0.678000,1659598,1000,12,0,1,1188.663,9.726,13.566,334.584,13.169,14.339
1782117212.837030,0.679000,1659599,1000,12,0,1,1191.762,12.041,13.594,330.524,7.777,14.357
1782117212.838031,0.680000,1659600,1000,12,0,1,1191.449,9.362,13.566,325.985,1.298,14.357
1782117212.839031,0.681000,1659601,1000,12,0,1,1194.404,9.516,13.545,326.681,1.029,14.356
1782117212.840030,0.682000,1659602,1000,12,0,1,1195.317,8.881,13.590,328.555,2.710,14.353
1782117212.841031,0.683000,1659603,1000,12,0,1,1192.266,3.731,13.543,331.509,4.803,14.366
1782117212.842031,0.684000,1659604,1000,12,0,1,1194.572,3.084,13.454,330.236,4.201,14.375
1782117212.843030,0.685000,1659605,1000,12,0,1,1191.593,0.369,13.444,331.077,3.636,14.383
1782117212.844031,0.686000,1659606,1000,12,0,1,1193.923,-1.134,13.445,329.492,3.503,14.368
1782117212.845031,0.687000,1659607,1000,12,0,1,1200.145,4.338,13.458,327.306,0.864,14.288
1782117212.846030,0.688000,1659608,1000,12,0,1,1194.452,-1.404,13.459,330.837,4.175,14.123
1782117212.847030,0.689000,1659609,1000,12,0,1,1188.663,-9.123,13.487,333.023,6.898,13.972
1782117212.848031,0.690000,1659610,1000,12,0,1,1189.840,-7.836,13.503,334.704,7.181,13.824
1782117212.849030,0.691000,1659611,1000,12,0,1,1189.576,-7.303,13.542,335.184,7.267,13.521
1782117212.850030,0.692000,1659612,1000,12,0,1,1186.045,-9.738,13.493,336.145,6.191,12.987
1782117212.851031,0.693000,1659613,1000,12,0,1,1190.921,-5.943,13.401,334.728,4.277,12.569
1782117212.852031,0.694000,1659614,1000,12,0,1,1197.479,1.730,13.320,331.197,-0.647,12.565
1782117212.853030,0.695000,1659615,1000,12,0,1,1194.404,-0.708,12.940,331.749,-1.574,12.328
1782117212.854031,0.696000,1659616,1000,12,0,1,1190.392,-5.185,12.878,336.866,1.959,12.014
1782117212.855031,0.697000,1659617,1000,12,0,1,1190.537,-4.560,12.888,338.475,2.706,11.865
1782117212.856030,0.698000,1659618,1000,12,0,1,1191.690,-2.851,12.881,338.788,0.808,11.761
1782117212.857030,0.699000,1659619,1000,12,0,1,1193.227,-1.102,12.865,339.604,0.243,11.606
1782117212.858031,0.700000,1659620,1000,12,0,1,1194.812,0.430,12.865,340.157,-0.549,11.466
1782117212.859030,0.701000,1659621,1000,12,0,1,1198.031,2.779,12.725,343.303,0.829,11.324
1782117212.860030,0.702000,1659622,1000,12,0,1,1194.044,-0.109,12.506,342.727,0.370,10.782
1782117212.861031,0.703000,1659623,1000,12,0,1,1189.167,-5.919,12.530,339.076,-3.982,9.076
1782117212.862031,0.704000,1659624,1000,12,0,1,1188.447,-5.988,12.387,339.364,-3.931,7.091
1782117212.863030,0.705000,1659625,1000,12,0,1,1188.807,-5.046,12.281,345.730,1.750,6.237
1782117212.864031,0.706000,1659626,1000,12,0,1,1185.300,-6.990,12.239,351.519,7.369,6.036
1782117212.865031,0.707000,1659627,1000,12,0,1,1182.249,-9.360,12.196,357.380,11.016,6.121
1782117212.866030,0.708000,1659628,1000,12,0,1,1169.278,-17.499,12.410,364.706,15.749,6.493
1782117212.867031,0.709000,1659629,1000,12,0,1,1155.154,-28.546,13.047,370.423,18.222,6.965
1782117212.868031,0.710000,1659630,1000,12,0,1,1154.265,-25.307,13.053,371.336,15.836,7.278
1782117212.869030,0.711000,1659631,1000,12,0,1,1155.370,-18.006,12.194,369.798,10.692,7.371
1782117212.870030,0.712000,1659632,1000,12,0,1,1160.991,-10.062,11.950,367.949,5.835,7.391
1782117212.871031,0.713000,1659633,1000,12,0,1,1166.300,-0.735,11.929,368.453,3.283,7.395
1782117212.872030,0.714000,1659634,1000,12,0,1,1180.568,11.294,11.543,360.670,-4.403,7.355
1782117212.873030,0.715000,1659635,1000,12,0,1,1194.932,25.639,11.457,352.191,-14.502,7.553
1782117212.874031,0.716000,1659636,1000,12,0,1,1196.974,24.996,11.794,354.281,-13.050,7.729
1782117212.875031,0.717000,1659637,1000,12,0,1,1189.672,15.491,11.988,369.894,0.094,7.729
1782117212.876030,0.718000,1659638,1000,12,0,1,1188.639,10.710,12.073,380.319,9.741,7.814
1782117212.877031,0.719000,1659639,1000,12,0,1,1204.589,21.850,12.411,383.370,8.630,7.878
1782117212.878031,0.720000,1659640,1000,12,0,1,1217.656,32.294,13.158,387.646,8.594,7.959
1782117212.879030,0.721000,1659641,1000,12,0,1,1216.431,26.304,13.423,379.791,0.238,7.831
1782117212.880030,0.722000,1659642,1000,12,0,1,1223.397,25.372,13.570,358.749,-20.666,8.286
1782117212.881031,0.723000,1659643,1000,12,0,1,1224.502,23.920,13.894,340.277,-36.326,9.732
1782117212.882030,0.724000,1659644,1000,12,0,1,1213.861,9.111,13.832,321.949,-47.068,11.773
1782117212.883030,0.725000,1659645,1000,12,0,1,1205.910,-1.635,13.238,313.446,-48.907,13.617
1782117212.884031,0.726000,1659646,1000,12,0,1,1202.739,-5.604,13.171,320.292,-34.571,14.304
1782117212.885031,0.727000,1659647,1000,12,0,1,1195.413,-11.580,13.269,337.683,-12.323,14.211
1782117212.886030,0.728000,1659648,1000,12,0,1,1182.033,-22.245,13.567,350.197,4.282,14.101
1782117212.887031,0.729000,1659649,1000,12,0,1,1169.735,-31.068,14.159,355.170,9.697,14.125
1782117212.888031,0.730000,1659650,1000,12,0,1,1163.081,-32.722,14.837,357.836,11.665,14.220
1782117212.889030,0.731000,1659651,1000,12,0,1,1173.146,-20.799,15.066,348.564,4.126,14.231
1782117212.890031,0.732000,1659652,1000,12,0,1,1190.633,-0.655,15.013,325.840,-15.968,14.404
1782117212.891031,0.733000,1659653,1000,12,0,1,1195.869,5.662,15.026,311.260,-27.873,14.918
1782117212.892030,0.734000,1659654,1000,12,0,1,1195.701,3.542,15.028,305.807,-27.122,15.392
1782117212.893030,0.735000,1659655,1000,12,0,1,1202.571,7.473,15.065,305.879,-21.903,15.692
1782117212.894031,0.736000,1659656,1000,12,0,1,1202.091,6.899,15.095,304.366,-17.010,15.868
1782117212.895030,0.737000,1659657,1000,12,0,1,1191.569,-4.590,15.097,311.116,-8.206,15.909
1782117212.896030,0.738000,1659658,1000,12,0,1,1199.857,-0.767,15.096,316.905,2.118,15.901
1782117212.897031,0.739000,1659659,1000,12,0,1,1203.243,5.613,15.062,318.706,4.911,15.887
1782117212.898031,0.740000,1659660,1000,12,0,1,1191.617,-6.477,15.049,324.735,10.884,15.929
1782117212.899030,0.741000,1659661,1000,12,0,1,1169.783,-23.612,15.380,333.383,18.892,16.118
1782117212.900031,0.742000,1659662,1000,12,0,1,1162.264,-29.660,15.882,342.126,25.116,16.482
1782117212.901031,0.743000,1659663,1000,12,0,1,1183.474,-6.586,15.887,344.144,25.606,16.864
1782117212.902030,0.744000,1659664,1000,12,0,1,1198.103,12.661,15.986,340.589,19.128,17.079
1782117212.903030,0.745000,1659665,1000,12,0,1,1196.229,10.379,16.053,331.918,10.195,17.139
1782117212.904031,0.746000,1659666,1000,12,0,1,1197.503,10.084,16.099,326.753,3.559,17.144
1782117212.905030,0.747000,1659667,1000,12,0,1,1186.405,2.026,16.089,330.837,7.347,17.171
1782117212.906030,0.748000,1659668,1000,12,0,1,1163.153,-18.663,16.299,339.388,14.922,17.300
1782117212.907031,0.749000,1659669,1000,12,0,1,1156.235,-23.990,16.648,343.279,17.978,17.486
1782117212.908031,0.750000,1659670,1000,12,0,1,1168.101,-8.960,16.696,343.592,15.884,17.629
1782117212.909030,0.751000,1659671,1000,12,0,1,1186.597,9.894,16.750,341.598,12.178,17.713
1782117212.910031,0.752000,1659672,1000,12,0,1,1197.575,20.443,16.997,338.547,7.366,17.743
1782117212.911031,0.753000,1659673,1000,12,0,1,1206.414,24.063,17.314,331.894,0.526,17.735
1782117212.912030,0.754000,1659674,1000,12,0,1,1211.362,25.255,17.659,324.303,-7.096,17.754
1782117212.913031,0.755000,1659675,1000,12,0,1,1204.084,14.598,17.765,323.582,-8.055,17.789
1782117212.914031,0.756000,1659676,1000,12,0,1,1189.936,-1.780,17.739,331.341,-0.732,17.759
1782117212.915030,0.757000,1659677,1000,12,0,1,1178.887,-13.179,17.787,332.206,1.297,17.691
1782117212.916030,0.758000,1659678,1000,12,0,1,1181.000,-11.533,17.690,333.959,0.460,17.551
1782117212.917031,0.759000,1659679,1000,12,0,1,1182.826,-6.497,17.247,346.330,9.924,17.417
1782117212.918031,0.760000,1659680,1000,12,0,1,1177.710,-9.812,16.929,353.921,15.816,17.417
1782117212.919030,0.761000,1659681,1000,12,0,1,1178.766,-7.870,16.773,355.866,13.420,17.454
1782117212.920031,0.762000,1659682,1000,12,0,1,1172.521,-9.020,16.761,358.004,12.024,17.518
1782117212.921031,0.763000,1659683,1000,12,0,1,1155.490,-21.650,17.038,360.262,10.645,17.576
1782117212.922030,0.764000,1659684,1000,12,0,1,1152.368,-21.969,17.246,359.806,7.830,17.600
1782117212.923031,0.765000,1659685,1000,12,0,1,1160.222,-9.027,16.908,348.084,-3.608,17.487
1782117212.924031,0.766000,1659686,1000,12,0,1,1162.144,-2.814,16.540,338.980,-13.772,17.498
1782117212.925030,0.767000,1659687,1000,12,0,1,1166.588,2.214,16.397,342.391,-9.624,17.551
1782117212.926030,0.768000,1659688,1000,12,0,1,1180.880,15.529,16.474,341.118,-7.547,17.530
1782117212.927031,0.769000,1659689,1000,12,0,1,1195.461,27.763,16.651,335.761,-11.610,17.564
1782117212.928030,0.770000,1659690,1000,12,0,1,1200.289,29.032,16.530,331.029,-13.433,17.625
1782117212.929030,0.771000,1659691,1000,12,0,1,1203.916,26.267,16.529,331.822,-11.289,17.697
1782117212.930031,0.772000,1659692,1000,12,0,1,1207.207,24.560,16.505,329.492,-9.786,17.509
1782117212.931031,0.773000,1659693,1000,12,0,1,1207.855,19.748,16.394,328.459,-10.129,16.799
1782117212.932030,0.774000,1659694,1000,12,0,1,1202.211,10.782,16.414,333.263,-4.195,15.435
1782117212.933031,0.775000,1659695,1000,12,0,1,1194.572,0.080,16.412,336.025,-0.488,13.799
1782117212.934031,0.776000,1659696,1000,12,0,1,1187.030,-7.896,16.431,338.427,0.821,12.905
1782117212.935030,0.777000,1659697,1000,12,0,1,1180.616,-13.613,16.462,343.159,4.372,12.801
1782117212.936031,0.778000,1659698,1000,12,0,1,1174.947,-16.893,16.335,342.583,3.177,12.795
1782117212.937031,0.779000,1659699,1000,12,0,1,1175.836,-14.336,15.863,341.430,0.095,12.721
1782117212.938030,0.780000,1659700,1000,12,0,1,1184.988,-3.824,15.182,340.541,-1.231,12.615
1782117212.939030,0.781000,1659701,1000,12,0,1,1187.414,1.399,14.896,340.277,-2.255,12.606
1782117212.940031,0.782000,1659702,1000,12,0,1,1186.813,0.302,14.896,342.511,-0.507,12.402
1782117212.941031,0.783000,1659703,1000,12,0,1,1191.281,4.540,14.888,345.754,2.473,11.764
1782117212.942030,0.784000,1659704,1000,12,0,1,1199.376,11.070,14.962,345.850,2.746,11.128
1782117212.943031,0.785000,1659705,1000,12,0,1,1199.736,11.169,15.008,346.762,2.990,10.696
1782117212.944031,0.786000,1659706,1000,12,0,1,1196.422,5.302,14.995,345.153,2.395,10.428
1782117212.945030,0.787000,1659707,1000,12,0,1,1197.743,4.456,14.994,342.847,0.199,10.363
1782117212.946031,0.788000,1659708,1000,12,0,1,1196.013,2.223,14.997,344.769,2.288,10.364
1782117212.947031,0.789000,1659709,1000,12,0,1,1194.164,-1.757,14.978,346.546,4.850,10.363
1782117212.948030,0.790000,1659710,1000,12,0,1,1193.779,-2.661,14.955,347.099,5.087,10.274
1782117212.949030,0.791000,1659711,1000,12,0,1,1192.170,-4.949,14.594,348.516,6.001,9.956
1782117212.950031,0.792000,1659712,1000,12,0,1,1186.765,-9.529,14.043,353.897,9.365,9.395
1782117212.951030,0.793000,1659713,1000,12,0,1,1180.448,-14.994,14.171,356.034,10.642,8.799
1782117212.952030,0.794000,1659714,1000,12,0,1,1175.908,-17.362,14.271,358.004,9.154,8.472
1782117212.953031,0.795000,1659715,1000,12,0,1,1168.053,-21.122,14.506,359.758,8.739,8.439
1782117212.954031,0.796000,1659716,1000,12,0,1,1173.722,-15.230,14.595,359.157,5.312,8.458
1782117212.955030,0.797000,1659717,1000,12,0,1,1185.516,-0.156,14.593,352.287,-2.478,8.401
1782117212.956031,0.798000,1659718,1000,12,0,1,1192.915,7.228,14.388,346.907,-9.673,8.246
1782117212.957031,0.799000,1659719,1000,12,0,1,1183.354,0.911,13.983,355.650,-3.517,7.860
1782117212.958030,0.800000,1659720,1000,12,0,1,1164.186,-16.397,14.117,364.682,5.314,7.570
1782117212.959031,0.801000,1659721,1000,12,0,1,1162.336,-17.203,14.257,372.657,9.287,7.487
1782117212.960031,0.802000,1659722,1000,12,0,1,1171.584,-4.082,13.973,376.908,11.554,7.592
1782117212.961030,0.803000,1659723,1000,12,0,1,1183.595,8.075,13.600,379.094,9.643,7.713
1782117212.962030,0.804000,1659724,1000,12,0,1,1177.998,6.598,13.156,383.754,10.967,7.804
1782117212.963031,0.805000,1659725,1000,12,0,1,1155.274,-14.065,13.144,393.363,16.005,8.045
1782117212.964031,0.806000,1659726,1000,12,0,1,1154.049,-15.916,13.333,395.116,15.706,8.345
1782117212.965030,0.807000,1659727,1000,12,0,1,1164.330,-1.446,13.204,397.999,12.941,8.542
1782117212.966031,0.808000,1659728,1000,12,0,1,1166.396,2.331,13.107,402.466,14.433,8.782
1782117212.967031,0.809000,1659729,1000,12,0,1,1163.874,0.791,13.075,401.457,10.279,8.790
1782117212.968030,0.810000,1659730,1000,12,0,1,1178.526,11.455,13.102,395.236,1.775,8.504
1782117212.969031,0.811000,1659731,1000,12,0,1,1196.638,28.331,13.655,377.028,-14.698,8.547
1782117212.970031,0.812000,1659732,1000,12,0,1,1197.935,26.517,14.103,369.894,-23.801,9.027
1782117212.971030,0.813000,1659733,1000,12,0,1,1192.915,16.729,13.969,371.408,-18.534,9.278
1782117212.972030,0.814000,1659734,1000,12,0,1,1201.490,19.176,13.886,347.459,-34.743,10.440
1782117212.973031,0.815000,1659735,1000,12,0,1,1218.785,31.072,14.509,309.314,-65.175,13.918
1782117212.974030,0.816000,1659736,1000,12,0,1,1231.684,37.644,15.450,294.517,-71.926,17.128
1782117212.975030,0.817000,1659737,1000,12,0,1,1224.430,26.321,15.889,300.427,-54.750,18.748
1782117212.976031,0.818000,1659738,1000,12,0,1,1211.338,7.536,15.772,304.438,-39.994,19.553
1782117212.977031,0.819000,1659739,1000,12,0,1,1194.932,-8.540,15.323,310.852,-27.540,19.869
1782117212.978030,0.820000,1659740,1000,12,0,1,1203.027,-5.851,14.786,319.619,-13.055,19.864
1782117212.979031,0.821000,1659741,1000,12,0,1,1222.700,14.209,14.452,336.962,4.363,19.810
1782117212.980031,0.822000,1659742,1000,12,0,1,1214.701,7.568,14.070,346.907,16.748,19.903
1782117212.981030,0.823000,1659743,1000,12,0,1,1187.318,-19.500,14.063,349.381,16.681,19.991
1782117212.982030,0.824000,1659744,1000,12,0,1,1155.586,-45.230,15.374,353.104,18.602,20.155
1782117212.983031,0.825000,1659745,1000,12,0,1,1132.527,-61.127,17.637,362.208,24.213,20.443
1782117212.984030,0.826000,1659746,1000,12,0,1,1141.270,-46.532,18.792,368.525,28.429,20.835
1782117212.985030,0.827000,1659747,1000,12,0,1,1162.408,-17.931,18.864,365.571,23.505,21.089
1782117212.986031,0.828000,1659748,1000,12,0,1,1194.932,12.510,18.796,342.367,2.920,21.088
1782117212.987031,0.829000,1659749,1000,12,0,1,1219.025,35.500,19.349,319.187,-18.518,21.250
1782117212.988030,0.830000,1659750,1000,12,0,1,1217.055,28.858,19.767,311.884,-20.653,21.449
1782117212.989031,0.831000,1659751,1000,12,0,1,1213.068,16.976,19.911,310.371,-14.931,21.551
1782117212.990031,0.832000,1659752,1000,12,0,1,1204.805,6.770,19.934,312.413,-7.986,21.580
1782117212.991030,0.833000,1659753,1000,12,0,1,1193.851,-7.427,19.952,315.824,0.405,21.577
1782117212.992031,0.834000,1659754,1000,12,0,1,1187.990,-12.996,19.975,321.901,7.899,21.603
1782117212.993031,0.835000,1659755,1000,12,0,1,1183.402,-15.955,20.040,328.531,15.516,21.710
1782117212.994030,0.836000,1659756,1000,12,0,1,1183.763,-13.944,20.123,332.062,17.698,21.851
1782117212.995030,0.837000,1659757,1000,12,0,1,1191.593,-4.650,20.124,333.287,16.723,21.979
1782117212.996031,0.838000,1659758,1000,12,0,1,1187.798,-3.802,20.128,333.143,13.678,22.061
1782117212.997030,0.839000,1659759,1000,12,0,1,1183.643,-7.561,20.155,336.145,12.704,22.123
1782117212.998030,0.840000,1659760,1000,12,0,1,1184.651,-3.351,20.157,340.205,13.400,22.193
1782117212.999031,0.841000,1659761,1000,12,0,1,1189.816,2.739,20.149,345.754,14.216,22.268
1782117213.000031,0.842000,1659762,1000,12,0,1,1183.811,1.030,20.104,352.720,16.727,22.354
1782117213.001030,0.843000,1659763,1000,12,0,1,1170.263,-10.508,20.047,361.751,20.155,22.484
1782117213.002031,0.844000,1659764,1000,12,0,1,1159.694,-17.370,20.047,364.225,19.107,22.609
1782117213.003031,0.845000,1659765,1000,12,0,1,1167.981,-8.589,19.861,356.299,8.305,22.606
1782117213.004030,0.846000,1659766,1000,12,0,1,1184.724,9.669,19.791,339.388,-8.151,22.623
1782117213.005030,0.847000,1659767,1000,12,0,1,1195.605,19.053,19.973,338.884,-10.755,22.671
1782117213.006031,0.848000,1659768,1000,12,0,1,1201.058,20.604,20.159,343.255,-2.248,22.632
1782117213.007030,0.849000,1659769,1000,12,0,1,1204.733,19.720,20.350,349.717,3.638,22.632
1782117213.008030,0.850000,1659770,1000,12,0,1,1190.224,4.663,20.229,354.689,10.266,22.666
1782117213.009031,0.851000,1659771,1000,12,0,1,1176.124,-12.817,20.164,349.861,6.371,22.646
1782117213.010031,0.852000,1659772,1000,12,0,1,1176.220,-12.771,20.236,342.198,-1.112,22.588
1782117213.011030,0.853000,1659773,1000,12,0,1,1194.404,2.806,20.208,336.121,-5.544,22.560
1782117213.012031,0.854000,1659774,1000,12,0,1,1199.496,10.431,20.240,341.646,-1.559,22.508
1782117213.013031,0.855000,1659775,1000,12,0,1,1177.157,-9.955,20.191,351.927,8.858,22.429
1782117213.014030,0.856000,1659776,1000,12,0,1,1151.887,-32.341,20.580,353.032,8.330,22.350
1782117213.015031,0.857000,1659777,1000,12,0,1,1157.148,-25.246,20.886,347.531,0.668,22.275
1782117213.016031,0.858000,1659778,1000,12,0,1,1183.426,4.321,20.893,341.790,-7.135,22.204
1782117213.017030,0.859000,1659779,1000,12,0,1,1192.338,17.485,21.038,345.201,-6.722,22.177
1782117213.018030,0.860000,1659780,1000,12,0,1,1198.439,19.387,21.154,346.931,-5.109,22.187
1782117213.019031,0.861000,1659781,1000,12,0,1,1211.146,29.900,21.197,345.585,-8.507,22.122
1782117213.020030,0.862000,1659782,1000,12,0,1,1204.853,23.042,21.116,347.459,-7.855,21.893
1782117213.021030,0.863000,1659783,1000,12,0,1,1193.731,7.932,21.013,346.618,-8.345,21.767
1782117213.022031,0.864000,1659784,1000,12,0,1,1189.576,2.745,20.841,351.302,-5.541,21.220
1782117213.023031,0.865000,1659785,1000,12,0,1,1194.476,5.030,20.385,358.100,1.827,19.116
1782117213.024030,0.866000,1659786,1000,12,0,1,1201.226,10.407,19.732,364.105,6.398,16.210
1782117213.025031,0.867000,1659787,1000,12,0,1,1192.266,1.728,19.379,372.224,12.972,14.359
1782117213.026031,0.868000,1659788,1000,12,0,1,1182.321,-10.768,19.410,377.941,17.170,13.419
1782117213.027030,0.869000,1659789,1000,12,0,1,1183.234,-10.210,19.426,375.996,14.157,12.997
1782117213.028030,0.870000,1659790,1000,12,0,1,1186.885,-6.517,19.430,376.524,11.913,12.975
1782117213.029031,0.871000,1659791,1000,12,0,1,1180.928,-10.545,19.384,383.274,16.438,13.167
1782117213.030030,0.872000,1659792,1000,12,0,1,1172.281,-18.569,19.531,384.715,16.623,13.164
1782117213.031030,0.873000,1659793,1000,12,0,1,1171.993,-17.427,19.492,377.557,7.713,12.997
1782117213.032031,0.874000,1659794,1000,12,0,1,1180.112,-8.052,18.448,370.855,-0.774,12.728
1782117213.033031,0.875000,1659795,1000,12,0,1,1179.775,-4.915,16.312,375.924,1.168,12.260
1782117213.034030,0.876000,1659796,1000,12,0,1,1178.646,-6.079,14.950,376.308,1.963,11.585
1782117213.035031,0.877000,1659797,1000,12,0,1,1186.981,2.493,14.738,368.958,-7.491,11.148
1782117213.036031,0.878000,1659798,1000,12,0,1,1186.981,5.242,14.650,368.958,-9.995,11.230
1782117213.037030,0.879000,1659799,1000,12,0,1,1201.298,14.045,13.906,363.024,-14.393,11.109
1782117213.038031,0.880000,1659800,1000,12,0,1,1202.259,19.244,13.569,371.143,-11.613,10.843
1782117213.039031,0.881000,1659801,1000,12,0,1,1189.360,3.245,13.363,378.254,-2.677,10.642
1782117213.040030,0.882000,1659802,1000,12,0,1,1185.973,-0.392,13.329,378.278,-6.086,10.617
1782117213.041030,0.883000,1659803,1000,12,0,1,1207.111,15.995,13.478,369.366,-13.483,10.787
1782117213.042031,0.884000,1659804,1000,12,0,1,1225.270,33.140,14.151,365.523,-19.034,11.061
1782117213.043031,0.885000,1659805,1000,12,0,1,1218.761,23.558,14.362,368.693,-13.872,11.017
1782117213.044030,0.886000,1659806,1000,12,0,1,1201.922,2.911,14.232,369.102,-11.106,10.844
1782117213.045031,0.887000,1659807,1000,12,0,1,1201.922,-1.427,14.218,369.102,-9.673,10.671
1782117213.046031,0.888000,1659808,1000,12,0,1,1201.922,-0.681,14.208,369.102,-6.649,10.536
1782117213.047030,0.889000,1659809,1000,12,0,1,1168.053,-27.999,14.711,322.213,-39.032,11.758
1782117213.048031,0.890000,1659810,1000,12,0,1,1173.025,-30.905,15.339,318.706,-47.262,13.391
1782117213.049031,0.891000,1659811,1000,12,0,1,1184.603,-8.688,15.383,321.132,-24.840,13.698
1782117213.050030,0.892000,1659812,1000,12,0,1,1205.069,3.890,15.392,328.218,-18.025,13.731
1782117213.051030,0.893000,1659813,1000,12,0,1,1212.035,15.805,15.483,337.130,0.672,13.432
1782117213.052031,0.894000,1659814,1000,12,0,1,1207.399,5.135,15.304,335.160,1.238,13.158
1782117213.053030,0.895000,1659815,1000,12,0,1,1201.346,-0.719,15.256,338.307,4.659,13.122
1782117213.054030,0.896000,1659816,1000,12,0,1,1188.615,-12.347,15.294,348.180,15.192,13.247
1782117213.055031,0.897000,1659817,1000,12,0,1,1196.854,-8.111,15.099,350.894,16.280,13.359
1782117213.056031,0.898000,1659818,1000,12,0,1,1207.615,6.683,14.845,343.255,8.826,13.414
1782117213.057030,0.899000,1659819,1000,12,0,1,1195.052,-4.763,14.596,338.715,0.524,13.404
1782117213.058031,0.900000,1659820,1000,12,0,1,1183.595,-15.257,14.740,336.313,-0.470,13.325
1782117213.059031,0.901000,1659821,1000,12,0,1,1172.713,-21.358,14.937,341.766,1.432,13.297
1782117213.060030,0.902000,1659822,1000,12,0,1,1178.550,-14.891,14.976,342.198,4.364,13.310
1782117213.061031,0.903000,1659823,1000,12,0,1,1178.406,-7.723,15.011,341.478,0.949,13.287
1782117213.062031,0.904000,1659824,1000,12,0,1,1168.005,-15.428,15.097,345.177,5.122,13.305
1782117213.063030,0.905000,1659825,1000,12,0,1,1163.826,-16.215,15.205,352.840,11.099,13.339
1782117213.064030,0.906000,1659826,1000,12,0,1,1182.538,1.591,14.502,348.180,8.921,13.347
1782117213.065031,0.907000,1659827,1000,12,0,1,1196.326,18.088,14.287,340.613,0.641,13.347
1782117213.066031,0.908000,1659828,1000,12,0,1,1189.984,11.109,14.360,334.752,-2.262,13.312
1782117213.067030,0.909000,1659829,1000,12,0,1,1185.877,3.775,14.155,325.216,-7.713,13.323
1782117213.068031,0.910000,1659830,1000,12,0,1,1182.586,1.428,13.889,320.292,-9.615,13.373
1782117213.069031,0.911000,1659831,1000,12,0,1,1176.893,-4.916,13.248,323.174,-2.730,13.324
1782117213.070030,0.912000,1659832,1000,12,0,1,1174.347,-6.502,12.874,325.624,2.818,13.284
1782117213.071031,0.913000,1659833,1000,12,0,1,1169.903,-9.035,12.888,329.155,7.604,13.275
1782117213.072031,0.914000,1659834,1000,12,0,1,1167.717,-9.823,12.957,331.173,10.301,13.331
1782117213.073030,0.915000,1659835,1000,12,0,1,1177.926,0.057,12.937,331.389,9.861,13.402
1782117213.074030,0.916000,1659836,1000,12,0,1,1207.831,25.901,13.365,336.674,12.339,13.484
1782117213.075031,0.917000,1659837,1000,12,0,1,1245.015,56.357,15.559,345.561,18.170,13.604
1782117213.076030,0.918000,1659838,1000,12,0,1,1253.735,59.532,17.625,349.813,18.636,13.642
1782117213.077030,0.919000,1659839,1000,12,0,1,1215.062,18.243,17.755,350.558,14.638,13.653
1782117213.078031,0.920000,1659840,1000,12,0,1,1167.717,-30.916,18.262,353.296,12.269,13.659
1782117213.079031,0.921000,1659841,1000,12,0,1,1167.717,-32.609,18.776,353.296,8.986,13.520
1782117213.080030,0.922000,1659842,1000,12,0,1,1150.782,-33.340,19.180,362.064,11.252,13.408
1782117213.081031,0.923000,1659843,1000,12,0,1,1164.834,-25.722,19.366,349.837,1.941,13.367
1782117213.082031,0.924000,1659844,1000,12,0,1,1200.409,17.263,19.486,335.857,-16.165,13.560
1782117213.083030,0.925000,1659845,1000,12,0,1,1201.322,19.248,19.663,336.626,-13.245,13.688
1782117213.084031,0.926000,1659846,1000,12,0,1,1182.562,-0.559,19.644,344.072,-4.788,13.702
1782117213.085031,0.927000,1659847,1000,12,0,1,1169.831,-13.047,19.727,347.075,0.734,13.661
1782117213.086030,0.928000,1659848,1000,12,0,1,1170.311,-12.670,19.795,340.949,-2.853,13.594
1782117213.087030,0.929000,1659849,1000,12,0,1,1167.837,-10.595,19.752,338.547,-4.809,13.458
1782117213.088031,0.930000,1659850,1000,12,0,1,1160.535,-17.013,19.711,345.081,3.281,13.365
1782117213.089031,0.931000,1659851,1000,12,0,1,1165.075,-11.423,19.771,351.975,10.403,13.441
1782117213.090030,0.932000,1659852,1000,12,0,1,1181.889,4.259,19.780,352.527,11.264,13.508
1782117213.091031,0.933000,1659853,1000,12,0,1,1188.351,12.111,19.725,355.938,11.373,13.469
1782117213.092031,0.934000,1659854,1000,12,0,1,1177.349,0.562,19.161,360.286,14.102,13.347
1782117213.093030,0.935000,1659855,1000,12,0,1,1182.538,1.317,18.870,365.258,14.482,13.360
1782117213.094031,0.936000,1659856,1000,12,0,1,1198.535,16.694,19.012,372.176,16.837,13.479
1782117213.095031,0.937000,1659857,1000,12,0,1,1213.861,27.477,19.404,374.026,14.189,13.559
1782117213.096030,0.938000,1659858,1000,12,0,1,1221.355,31.422,19.906,379.070,12.211,13.636
1782117213.097030,0.939000,1659859,1000,12,0,1,1222.388,26.946,19.877,384.931,13.152,12.607
1782117213.098031,0.940000,1659860,1000,12,0,1,1209.465,12.920,19.477,387.261,9.620,10.775
1782117213.099030,0.941000,1659861,1000,12,0,1,1199.088,-0.943,19.438,384.259,2.779,10.194
1782117213.100030,0.942000,1659862,1000,12,0,1,1188.086,-8.948,19.472,382.265,-3.509,9.883
1782117213.101031,0.943000,1659863,1000,12,0,1,1167.261,-25.220,19.669,388.294,-0.969,9.883
1782117213.102031,0.944000,1659864,1000,12,0,1,1161.375,-29.009,20.079,389.375,-0.399,9.882
1782117213.103030,0.945000,1659865,1000,12,0,1,1168.726,-15.978,20.206,389.063,-3.362,9.871
1782117213.104031,0.946000,1659866,1000,12,0,1,1183.474,-0.610,20.130,387.093,-4.745,9.658
1782117213.105031,0.947000,1659867,1000,12,0,1,1187.198,6.563,20.119,382.121,-9.427,9.474
1782117213.106030,0.948000,1659868,1000,12,0,1,1177.037,-3.864,20.104,370.567,-17.412,9.709
1782117213.107030,0.949000,1659869,1000,12,0,1,1169.374,-11.414,20.158,364.129,-22.076,10.198
1782117213.108031,0.950000,1659870,1000,12,0,1,1167.309,-12.485,20.120,367.300,-15.510,10.431
1782117213.109030,0.951000,1659871,1000,12,0,1,1181.769,-0.865,19.892,381.544,-1.042,10.430
1782117213.110030,0.952000,1659872,1000,12,0,1,1198.199,15.002,19.894,395.236,12.816,10.568
1782117213.111031,0.953000,1659873,1000,12,0,1,1193.059,8.932,19.904,395.068,11.604,10.694
1782117213.112031,0.954000,1659874,1000,12,0,1,1196.734,5.723,19.800,381.256,-3.228,10.679
1782117213.113030,0.955000,1659875,1000,12,0,1,1220.634,24.354,19.966,371.095,-15.011,10.775
1782117213.114031,0.956000,1659876,1000,12,0,1,1238.458,37.112,20.643,353.752,-27.859,11.403
1782117213.115031,0.957000,1659877,1000,12,0,1,1232.333,26.655,20.828,335.953,-42.676,12.901
1782117213.116030,0.958000,1659878,1000,12,0,1,1219.554,8.336,20.802,316.304,-53.328,14.940
1782117213.117031,0.959000,1659879,1000,12,0,1,1211.411,-1.476,20.797,295.478,-64.555,17.475
1782117213.118031,0.960000,1659880,1000,12,0,1,1197.310,-12.934,20.876,296.703,-55.878,19.130
1782117213.119030,0.961000,1659881,1000,12,0,1,1190.440,-19.015,21.037,326.081,-20.572,19.346
1782117213.120030,0.962000,1659882,1000,12,0,1,1169.230,-29.714,21.433,354.281,12.010,19.417
1782117213.121031,0.963000,1659883,1000,12,0,1,1164.234,-34.053,21.930,365.066,23.243,19.664
1782117213.122030,0.964000,1659884,1000,12,0,1,1195.677,0.123,21.886,364.129,20.596,19.825
1782117213.123030,0.965000,1659885,1000,12,0,1,1221.643,28.013,22.242,349.957,7.864,19.807
1782117213.124031,0.966000,1659886,1000,12,0,1,1234.831,35.521,22.506,335.160,-6.350,19.750
1782117213.125031,0.967000,1659887,1000,12,0,1,1239.299,34.553,21.607,323.510,-12.736,19.665
1782117213.126030,0.968000,1659888,1000,12,0,1,1229.666,19.211,20.084,333.983,-2.152,19.490
1782117213.127031,0.969000,1659889,1000,12,0,1,1218.833,2.776,19.921,346.594,16.064,19.513
1782117213.128031,0.970000,1659890,1000,12,0,1,1209.489,-9.047,19.478,357.043,24.649,19.745
1782117213.129030,0.971000,1659891,1000,12,0,1,1196.614,-21.862,19.175,359.974,28.451,20.111
1782117213.130030,0.972000,1659892,1000,12,0,1,1180.328,-35.723,19.260,352.527,19.642,20.240
1782117213.131031,0.973000,1659893,1000,12,0,1,1164.955,-46.242,20.012,351.158,15.330,20.353
1782117213.132030,0.974000,1659894,1000,12,0,1,1153.377,-50.848,21.125,356.227,19.033,20.403
1782117213.133030,0.975000,1659895,1000,12,0,1,1140.886,-53.380,22.267,368.309,25.902,20.644
1782117213.134031,0.976000,1659896,1000,12,0,1,1136.754,-49.244,23.331,373.714,28.867,21.033
1782117213.135031,0.977000,1659897,1000,12,0,1,1151.215,-27.723,23.586,376.380,24.055,21.306
1782117213.136030,0.978000,1659898,1000,12,0,1,1183.955,7.616,23.542,369.054,14.583,21.402
1782117213.137031,0.979000,1659899,1000,12,0,1,1211.387,36.376,24.051,353.200,-4.801,21.402
1782117213.138031,0.980000,1659900,1000,12,0,1,1211.459,35.913,24.463,353.969,-8.037,21.427
1782117213.139030,0.981000,1659901,1000,12,0,1,1197.767,19.336,24.563,360.190,-1.506,21.378
1782117213.140031,0.982000,1659902,1000,12,0,1,1199.208,16.677,24.668,349.237,-10.809,21.373
1782117213.141031,0.983000,1659903,1000,12,0,1,1214.461,29.123,24.951,334.848,-24.345,21.589
1782117213.142030,0.984000,1659904,1000,12,0,1,1214.990,29.148,25.289,341.958,-17.571,21.640
1782117213.143030,0.985000,1659905,1000,12,0,1,1204.589,15.180,25.379,352.696,-3.021,21.547
1782117213.144031,0.986000,1659906,1000,12,0,1,1205.213,11.965,25.326,353.440,-1.156,21.415
1782117213.145030,0.987000,1659907,1000,12,0,1,1205.069,11.487,25.079,352.527,-1.397,21.322
1782117213.146030,0.988000,1659908,1000,12,0,1,1193.923,-0.035,24.682,354.713,1.191,21.253
1782117213.147031,0.989000,1659909,1000,12,0,1,1186.453,-8.701,24.417,359.181,5.805,21.187
1782117213.148031,0.990000,1659910,1000,12,0,1,1187.246,-7.579,24.372,370.759,15.111,21.251
1782117213.149030,0.991000,1659911,1000,12,0,1,1197.719,1.082,24.372,375.227,19.351,21.423
1782117213.150031,0.992000,1659912,1000,12,0,1,1219.698,18.838,24.485,370.111,11.835,21.482
1782117213.151031,0.993000,1659913,1000,12,0,1,1217.344,17.260,24.346,367.877,6.928,21.504
1782117213.152030,0.994000,1659914,1000,12,0,1,1225.943,14.319,24.083,368.405,6.058,21.521
1782117213.153030,0.995000,1659915,1000,12,0,1,1246.817,31.081,24.377,363.313,0.543,21.516
1782117213.154031,0.996000,1659916,1000,12,0,1,1244.295,24.044,24.613,346.066,-14.562,21.604
1782117213.155030,0.997000,1659917,1000,12,0,1,1227.168,1.993,24.597,334.080,-26.126,21.877
1782117213.156030,0.998000,1659918,1000,12,0,1,1210.642,-15.566,24.689,334.536,-22.530,21.970
1782117213.157031,0.999000,1659919,1000,12,0,1,1204.661,-21.945,24.831,325.432,-25.270,22.039
1782117213.158031,1.000000,1659920,1000,12,0,1,1204.300,-18.761,24.910,320.916,-27.966,22.284
1782117213.159030,1.001000,1659921,1000,12,0,1,1215.998,-7.942,24.935,331.173,-14.555,22.378
1782117213.160031,1.002000,1659922,1000,12,0,1,1227.576,5.998,24.859,340.157,-2.769,22.308
1782117213.161031,1.003000,1659923,1000,12,0,1,1216.383,-2.644,24.829,341.478,-0.182,22.247
1782117213.162030,1.004000,1659924,1000,12,0,1,1204.781,-14.863,24.905,343.928,1.799,22.244
1782117213.163031,1.005000,1659925,1000,12,0,1,1199.544,-16.550,24.777,348.396,6.183,22.160
1782117213.164031,1.006000,1659926,1000,12,0,1,1196.157,-17.307,24.338,356.659,12.582,21.879
1782117213.165030,1.007000,1659927,1000,12,0,1,1197.214,-13.656,24.121,357.428,13.692,21.119
1782117213.166030,1.008000,1659928,1000,12,0,1,1217.584,4.030,24.099,351.975,6.921,19.751
1782117213.167031,1.009000,1659929,1000,12,0,1,1227.913,16.461,24.211,350.005,4.297,17.525
1782117213.168031,1.010000,1659930,1000,12,0,1,1215.422,2.279,24.144,349.837,4.686,15.656
1782117213.169030,1.011000,1659931,1000,12,0,1,1203.796,-11.283,24.046,350.221,5.095,15.401
1782117213.170031,1.012000,1659932,1000,12,0,1,1205.862,-10.228,23.721,349.693,5.356,15.325
1782117213.171031,1.013000,1659933,1000,12,0,1,1216.719,-0.488,23.227,348.996,4.573,14.983
1782117213.172030,1.014000,1659934,1000,12,0,1,1214.821,-0.474,23.227,349.573,5.273,14.716
1782117213.173031,1.015000,1659935,1000,12,0,1,1211.314,-6.677,22.906,353.969,8.370,14.721
1782117213.174031,1.016000,1659936,1000,12,0,1,1221.932,2.282,22.350,354.329,8.872,14.747
1782117213.175030,1.017000,1659937,1000,12,0,1,1231.804,11.426,21.870,355.218,7.093,14.671
1782117213.176030,1.018000,1659938,1000,12,0,1,1222.148,3.033,21.704,357.452,7.973,14.711
1782117213.177031,1.019000,1659939,1000,12,0,1,1209.273,-10.715,21.754,363.673,10.487,14.610
1782117213.178030,1.020000,1659940,1000,12,0,1,1192.506,-21.919,21.936,368.813,13.098,14.309
1782117213.179030,1.021000,1659941,1000,12,0,1,1189.720,-23.360,21.967,368.069,9.185,13.793
1782117213.180031,1.022000,1659942,1000,12,0,1,1201.298,-7.090,21.402,365.787,3.638,13.520
1782117213.181031,1.023000,1659943,1000,12,0,1,1206.414,1.896,20.380,359.974,-3.120,13.352
1782117213.182030,1.024000,1659944,1000,12,0,1,1203.820,1.067,19.070,353.921,-10.317,13.159
1782117213.183031,1.025000,1659945,1000,12,0,1,1191.041,-7.450,17.543,357.764,-7.548,12.684
1782117213.184031,1.026000,1659946,1000,12,0,1,1186.189,-12.183,16.194,367.300,1.488,12.011
1782117213.185030,1.027000,1659947,1000,12,0,1,1198.776,1.633,15.714,368.021,2.870,11.527
1782117213.186031,1.028000,1659948,1000,12,0,1,1206.318,10.707,15.750,365.138,-1.382,11.342
1782117213.187031,1.029000,1659949,1000,12,0,1,1210.234,12.024,14.983,373.954,4.950,11.344
1782117213.188030,1.030000,1659950,1000,12,0,1,1213.596,13.364,14.222,385.268,15.108,11.487
1782117213.189030,1.031000,1659951,1000,12,0,1,1205.886,4.981,13.974,392.570,18.967,11.794
1782117213.190031,1.032000,1659952,1000,12,0,1,1206.150,0.758,13.774,400.569,22.259,12.111
1782117213.191031,1.033000,1659953,1000,12,0,1,1216.743,9.568,13.213,403.836,21.628,12.007
1782117213.192030,1.034000,1659954,1000,12,0,1,1219.722,11.027,12.651,404.965,17.276,11.999
1782117213.193031,1.035000,1659955,1000,12,0,1,1210.954,1.296,12.468,406.214,14.147,12.157
1782117213.194031,1.036000,1659956,1000,12,0,1,1206.126,-5.410,12.377,406.502,10.023,12.238
1782117213.195030,1.037000,1659957,1000,12,0,1,1203.820,-6.122,12.300,405.973,5.692,12.263
1782117213.196031,1.038000,1659958,1000,12,0,1,1238.602,19.784,12.614,383.586,-14.276,12.427
1782117213.197031,1.039000,1659959,1000,12,0,1,1280.446,58.883,15.065,346.618,-48.292,14.156
1782117213.198030,1.040000,1659960,1000,12,0,1,1269.709,45.517,16.347,334.920,-56.956,16.146
1782117213.199030,1.041000,1659961,1000,12,0,1,1210.065,-13.919,16.465,358.172,-30.066,16.471
1782117213.200031,1.042000,1659962,1000,12,0,1,1173.602,-51.660,17.815,374.506,-7.414,16.419
1782117213.201030,1.043000,1659963,1000,12,0,1,1179.727,-39.398,18.505,367.732,-11.696,16.473
1782117213.202030,1.044000,1659964,1000,12,0,1,1187.198,-22.423,18.666,362.568,-16.885,16.623
1782117213.203031,1.045000,1659965,1000,12,0,1,1202.811,-6.487,18.164,361.151,-15.312,16.764
1782117213.204031,1.046000,1659966,1000,12,0,1,1231.876,22.293,18.119,351.446,-20.891,16.897
1782117213.205030,1.047000,1659967,1000,12,0,1,1261.782,45.602,19.231,333.671,-32.826,17.129
1782117213.206031,1.048000,1659968,1000,12,0,1,1260.701,41.595,19.989,324.663,-36.872,17.620
1782117213.207031,1.049000,1659969,1000,12,0,1,1225.150,1.936,19.749,330.837,-24.725,17.604
1782117213.208030,1.050000,1659970,1000,12,0,1,1197.046,-29.381,20.006,340.829,-9.240,17.204
1782117213.209031,1.051000,1659971,1000,12,0,1,1188.495,-35.397,20.592,352.479,4.598,17.092
1782117213.210031,1.052000,1659972,1000,12,0,1,1195.485,-26.606,20.916,352.287,8.415,17.129
1782117213.211030,1.053000,1659973,1000,12,0,1,1213.500,-7.412,20.939,349.261,4.997,17.144
1782117213.212030,1.054000,1659974,1000,12,0,1,1220.610,1.630,20.834,357.620,12.901,17.239
1782117213.213031,1.055000,1659975,1000,12,0,1,1200.169,-15.003,20.811,370.543,24.645,17.566
1782117213.214031,1.056000,1659976,1000,12,0,1,1181.985,-32.274,21.165,376.332,28.581,17.937
1782117213.215030,1.057000,1659977,1000,12,0,1,1174.803,-32.675,21.577,381.881,29.247,18.305
1782117213.216031,1.058000,1659978,1000,12,0,1,1162.985,-35.681,22.152,391.585,33.693,18.890
1782117213.217031,1.059000,1659979,1000,12,0,1,1165.459,-28.514,22.395,397.878,34.833,19.512
1782117213.218030,1.060000,1659980,1000,12,0,1,1212.083,16.255,22.510,383.994,18.915,19.684
1782117213.219031,1.061000,1659981,1000,12,0,1,1255.512,60.467,24.027,350.678,-13.896,19.769
1782117213.220031,1.062000,1659982,1000,12,0,1,1252.630,54.227,25.180,322.814,-39.323,20.522
1782117213.221030,1.063000,1659983,1000,12,0,1,1234.302,28.071,25.491,322.333,-36.123,21.138
1782117213.222030,1.064000,1659984,1000,12,0,1,1216.383,8.408,25.518,340.277,-13.684,21.214
1782117213.223031,1.065000,1659985,1000,12,0,1,1229.186,12.761,25.565,353.680,3.127,21.185
1782117213.224030,1.066000,1659986,1000,12,0,1,1253.182,35.189,26.042,353.897,4.558,21.158
1782117213.225030,1.067000,1659987,1000,12,0,1,1241.004,22.165,26.181,346.714,-2.006,21.136
1782117213.226031,1.068000,1659988,1000,12,0,1,1223.853,-1.383,26.178,348.924,-1.421,21.107
1782117213.227031,1.069000,1659989,1000,12,0,1,1215.638,-9.220,26.166,358.460,7.954,21.085
1782117213.228030,1.070000,1659990,1000,12,0,1,1219.457,-8.170,26.008,366.724,14.285,21.100
1782117213.229031,1.071000,1659991,1000,12,0,1,1226.471,-0.344,25.797,374.554,18.760,21.226
1782117213.230031,1.072000,1659992,1000,12,0,1,1228.705,0.196,25.778,378.854,19.834,21.405
1782117213.231030,1.073000,1659993,1000,12,0,1,1239.899,7.038,25.796,373.762,12.389,21.472
1782117213.232030,1.074000,1659994,1000,12,0,1,1244.655,11.045,25.842,366.267,2.490,21.425
1782117213.233031,1.075000,1659995,1000,12,0,1,1240.596,3.143,25.825,361.367,-2.957,21.403
1782117213.234030,1.076000,1659996,1000,12,0,1,1241.532,0.997,25.768,352.768,-9.536,21.444
1782117213.235030,1.077000,1659997,1000,12,0,1,1237.785,-2.915,25.770,347.243,-13.964,21.531
1782117213.236031,1.078000,1659998,1000,12,0,1,1230.747,-10.790,25.771,353.728,-6.355,21.549
1782117213.237031,1.079000,1659999,1000,12,0,1,1227.192,-13.602,25.786,359.613,1.896,21.539
1782117213.238030,1.080000,1660000,1000,12,0,1,1226.111,-13.183,25.784,360.118,2.837,21.437
1782117213.239031,1.081000,1660001,1000,12,0,1,1230.675,-8.058,25.800,357.091,0.631,21.268
1782117213.240031,1.082000,1660002,1000,12,0,1,1237.857,-0.071,25.800,348.804,-6.008,21.051
1782117213.241030,1.083000,1660003,1000,12,0,1,1227.841,-6.343,25.780,350.726,-5.252,20.841
1782117213.242031,1.084000,1660004,1000,12,0,1,1207.519,-24.187,25.959,363.409,7.255,20.723
1782117213.243031,1.085000,1660005,1000,12,0,1,1196.830,-31.020,26.326,372.465,14.980,20.734
1782117213.244030,1.086000,1660006,1000,12,0,1,1195.941,-26.422,26.579,378.374,17.129,20.827
1782117213.245030,1.087000,1660007,1000,12,0,1,1201.346,-16.878,26.672,380.560,16.004,20.934
1782117213.246031,1.088000,1660008,1000,12,0,1,1214.269,-2.125,26.527,382.433,13.132,20.919
1782117213.247030,1.089000,1660009,1000,12,0,1,1225.847,10.249,25.227,382.001,9.796,19.822
1782117213.248030,1.090000,1660010,1000,12,0,1,1229.930,13.205,24.464,379.310,3.900,18.120
1782117213.249031,1.091000,1660011,1000,12,0,1,1225.823,7.930,24.410,380.319,2.036,17.616
1782117213.250031,1.092000,1660012,1000,12,0,1,1225.607,4.650,23.300,377.077,-1.367,17.586
1782117213.251030,1.093000,1660013,1000,12,0,1,1227.673,5.858,22.640,372.657,-7.072,17.537
1782117213.252031,1.094000,1660014,1000,12,0,1,1229.090,5.408,22.429,366.724,-11.234,17.446
1782117213.253031,1.095000,1660015,1000,12,0,1,1230.915,5.758,22.426,361.223,-15.428,17.448
1782117213.254030,1.096000,1660016,1000,12,0,1,1241.845,12.804,22.277,355.746,-17.367,17.370
1782117213.255030,1.097000,1660017,1000,12,0,1,1244.295,15.301,21.432,359.253,-12.777,16.836
1782117213.256031,1.098000,1660018,1000,12,0,1,1234.855,4.069,20.617,367.949,-1.707,16.010
1782117213.257030,1.099000,1660019,1000,12,0,1,1213.789,-13.988,20.710,371.960,3.375,15.630
1782117213.258030,1.100000,1660020,1000,12,0,1,1183.402,-38.312,21.000,372.224,3.441,15.583
1782117213.259031,1.101000,1660021,1000,12,0,1,1185.804,-34.741,20.978,371.143,2.215,15.573
1782117213.260031,1.102000,1660022,1000,12,0,1,1214.341,-0.640,20.638,367.132,-1.660,15.529
1782117213.261030,1.103000,1660023,1000,12,0,1,1232.068,19.303,20.791,377.701,5.105,15.530
1782117213.262031,1.104000,1660024,1000,12,0,1,1237.161,22.787,21.038,388.919,15.853,15.584
1782117213.263031,1.105000,1660025,1000,12,0,1,1228.753,13.941,21.024,389.279,13.030,15.301
1782117213.264030,1.106000,1660026,1000,12,0,1,1213.789,-1.993,20.524,387.910,7.955,14.800
1782117213.265031,1.107000,1660027,1000,12,0,1,1206.222,-9.537,20.043,383.946,2.307,14.214
1782117213.266031,1.108000,1660028,1000,12,0,1,1205.958,-8.520,19.434,378.686,-4.808,13.409
1782117213.267030,1.109000,1660029,1000,12,0,1,1203.892,-8.344,19.048,379.743,-5.095,12.492
1782117213.268030,1.110000,1660030,1000,12,0,1,1214.341,-0.308,18.909,374.314,-8.506,12.262
1782117213.269031,1.111000,1660031,1000,12,0,1,1213.308,2.704,16.869,368.958,-14.010,12.264
1782117213.270030,1.112000,1660032,1000,12,0,1,1212.179,-2.224,15.028,365.739,-14.393,11.119
1782117213.271030,1.113000,1660033,1000,12,0,1,1219.890,5.350,14.514,361.367,-15.959,10.131
1782117213.272031,1.114000,1660034,1000,12,0,1,1233.774,15.536,14.631,349.357,-22.402,10.437
1782117213.273031,1.115000,1660035,1000,12,0,1,1228.441,11.829,14.616,339.388,-28.082,11.158
1782117213.274030,1.116000,1660036,1000,12,0,1,1213.933,-5.012,13.761,346.090,-17.987,11.426
1782117213.275031,1.117000,1660037,1000,12,0,1,1222.028,-0.160,13.399,350.966,-6.807,11.463
1782117213.276031,1.118000,1660038,1000,12,0,1,1221.619,4.310,13.411,350.774,-4.979,11.483
1782117213.277030,1.119000,1660039,1000,12,0,1,1209.056,-8.626,13.404,352.383,-1.010,11.428
1782117213.278030,1.120000,1660040,1000,12,0,1,1211.987,-5.414,13.376,355.794,3.154,11.257
1782117213.279031,1.121000,1660041,1000,12,0,1,1215.062,0.924,13.376,366.075,12.035,11.072
1782117213.280030,1.122000,1660042,1000,12,0,1,1215.830,1.953,13.379,378.037,22.034,11.155
1782117213.281030,1.123000,1660043,1000,12,0,1,1215.590,3.191,13.350,388.703,27.998,11.706
1782117213.282031,1.124000,1660044,1000,12,0,1,1210.306,-0.757,13.258,392.690,27.820,12.345
1782117213.283031,1.125000,1660045,1000,12,0,1,1208.696,-2.421,13.255,393.218,22.402,12.738
1782117213.284030,1.126000,1660046,1000,12,0,1,1204.348,-4.053,13.267,397.926,21.291,13.019
1782117213.285031,1.127000,1660047,1000,12,0,1,1187.558,-17.104,13.479,396.894,17.003,13.091
1782117213.286031,1.128000,1660048,1000,12,0,1,1173.506,-28.147,13.972,381.040,-0.065,13.060
1782117213.287030,1.129000,1660049,1000,12,0,1,1174.683,-23.449,14.230,362.472,-18.637,13.321
1782117213.288031,1.130000,1660050,1000,12,0,1,1204.613,4.447,14.122,355.626,-23.735,13.732
1782117213.289031,1.131000,1660051,1000,12,0,1,1266.586,57.553,16.260,349.477,-23.960,14.143
1782117213.290030,1.132000,1660052,1000,12,0,1,1295.867,81.795,19.954,350.317,-20.554,14.414
1782117213.291030,1.133000,1660053,1000,12,0,1,1273.264,48.380,21.076,347.603,-16.240,14.577
1782117213.292031,1.134000,1660054,1000,12,0,1,1258.179,19.785,20.984,347.507,-14.342,14.681
1782117213.293031,1.135000,1660055,1000,12,0,1,1241.773,2.412,20.523,354.857,-3.780,14.537
1782117213.294030,1.136000,1660056,1000,12,0,1,1225.751,-17.309,20.328,364.898,6.885,14.367
1782117213.295031,1.137000,1660057,1000,12,0,1,1220.634,-20.456,20.393,368.333,10.985,14.273
1782117213.296031,1.138000,1660058,1000,12,0,1,1219.722,-18.851,20.565,362.136,4.774,14.167
1782117213.297030,1.139000,1660059,1000,12,0,1,1220.082,-15.274,20.627,366.507,5.276,14.119
1782117213.298031,1.140000,1660060,1000,12,0,1,1216.599,-14.453,20.644,371.119,10.514,14.187
1782117213.299031,1.141000,1660061,1000,12,0,1,1218.160,-11.411,20.676,368.741,5.673,14.206
1782117213.300030,1.142000,1660062,1000,12,0,1,1223.853,-2.730,20.669,368.309,3.450,14.213
1782117213.301030,1.143000,1660063,1000,12,0,1,1225.559,0.352,20.653,371.384,4.488,14.192
1782117213.302031,1.144000,1660064,1000,12,0,1,1217.224,-5.242,20.652,380.535,10.498,14.181
1782117213.303030,1.145000,1660065,1000,12,0,1,1226.808,0.071,20.636,382.914,12.060,14.116
1782117213.304030,1.146000,1660066,1000,12,0,1,1246.265,19.009,20.731,384.763,9.598,13.966
1782117213.305031,1.147000,1660067,1000,12,0,1,1238.842,11.837,20.686,393.363,14.999,14.011
1782117213.306031,1.148000,1660068,1000,12,0,1,1227.648,-4.493,20.688,399.848,18.442,14.249
1782117213.307030,1.149000,1660069,1000,12,0,1,1223.349,-8.803,20.631,400.208,15.660,14.412
1782117213.308031,1.150000,1660070,1000,12,0,1,1238.025,0.260,19.906,383.394,-0.136,14.404
1782117213.309031,1.151000,1660071,1000,12,0,1,1255.777,16.778,19.436,363.337,-20.191,14.681
1782117213.310030,1.152000,1660072,1000,12,0,1,1246.409,6.533,19.458,364.586,-18.235,14.904
1782117213.311031,1.153000,1660073,1000,12,0,1,1222.388,-18.551,19.443,374.915,-4.732,14.902
1782117213.312031,1.154000,1660074,1000,12,0,1,1216.935,-24.978,19.497,373.882,-2.827,14.737
1782117213.313030,1.155000,1660075,1000,12,0,1,1236.800,-5.397,19.412,363.409,-11.232,14.708
1782117213.314030,1.156000,1660076,1000,12,0,1,1249.748,10.257,19.464,357.980,-15.400,14.826
1782117213.315031,1.157000,1660077,1000,12,0,1,1241.701,2.730,19.421,356.443,-13.864,14.951
1782117213.316031,1.158000,1660078,1000,12,0,1,1229.618,-8.718,19.423,352.071,-15.243,15.090
1782117213.317030,1.159000,1660079,1000,12,0,1,1218.280,-16.494,19.527,351.014,-14.719,15.216
1782117213.318031,1.160000,1660080,1000,12,0,1,1219.866,-13.419,19.619,348.084,-14.132,15.300
1782117213.319031,1.161000,1660081,1000,12,0,1,1221.739,-6.070,19.634,344.553,-15.925,15.337
1782117213.320030,1.162000,1660082,1000,12,0,1,1225.198,-1.966,19.633,342.102,-15.391,15.356
1782117213.321031,1.163000,1660083,1000,12,0,1,1224.766,1.048,19.619,343.568,-12.317,15.289
1782117213.322031,1.164000,1660084,1000,12,0,1,1222.076,-1.439,19.497,348.132,-5.808,14.980
1782117213.323030,1.165000,1660085,1000,12,0,1,1221.307,-1.272,19.426,347.603,-3.865,14.454
1782117213.324030,1.166000,1660086,1000,12,0,1,1217.007,-4.068,19.421,349.116,-2.226,14.232
1782117213.325031,1.167000,1660087,1000,12,0,1,1221.956,-1.475,19.422,350.149,1.207,14.201
1782117213.326030,1.168000,1660088,1000,12,0,1,1235.455,10.882,19.474,345.994,-1.121,14.184
1782117213.327030,1.169000,1660089,1000,12,0,1,1226.640,3.788,19.443,347.051,0.701,14.184
1782117213.328031,1.170000,1660090,1000,12,0,1,1207.663,-16.379,19.565,355.866,10.257,14.251
1782117213.329031,1.171000,1660091,1000,12,0,1,1208.432,-16.691,19.707,361.943,17.155,14.355
1782117213.330030,1.172000,1660092,1000,12,0,1,1226.087,0.941,19.705,364.946,19.003,14.268
1782117213.331031,1.173000,1660093,1000,12,0,1,1237.881,12.796,19.783,365.667,18.817,13.964
1782117213.332031,1.174000,1660094,1000,12,0,1,1239.154,12.227,19.858,366.555,17.714,13.630
1782117213.333030,1.175000,1660095,1000,12,0,1,1242.061,11.855,19.926,369.606,18.577,13.515
1782117213.334031,1.176000,1660096,1000,12,0,1,1231.180,3.374,19.923,374.218,20.300,13.484
1782117213.335031,1.177000,1660097,1000,12,0,1,1226.784,-4.229,19.785,386.084,26.626,13.792
1782117213.336030,1.178000,1660098,1000,12,0,1,1223.685,-2.830,19.385,390.168,27.753,14.340
1782117213.337030,1.179000,1660099,1000,12,0,1,1227.456,-0.414,19.099,391.081,21.456,14.418
1782117213.338031,1.180000,1660100,1000,12,0,1,1238.290,11.778,19.161,394.035,19.229,14.283
1782117213.339031,1.181000,1660101,1000,12,0,1,1246.313,18.750,17.548,389.687,10.844,13.960
1782117213.340030,1.182000,1660102,1000,12,0,1,1234.879,9.226,13.260,383.682,0.395,13.654
1782117213.341031,1.183000,1660103,1000,12,0,1,1226.207,-2.234,11.363,382.481,-3.653,13.470
1782117213.342031,1.184000,1660104,1000,12,0,1,1229.162,0.894,11.014,372.585,-12.668,13.436
1782117213.343030,1.185000,1660105,1000,12,0,1,1234.999,6.075,11.042,365.066,-21.287,13.759
1782117213.344031,1.186000,1660106,1000,12,0,1,1231.684,2.921,10.775,361.247,-22.171,14.078
1782117213.345031,1.187000,1660107,1000,12,0,1,1222.796,-6.545,10.421,363.505,-18.912,14.245
1782117213.346030,1.188000,1660108,1000,12,0,1,1214.485,-14.591,10.283,371.095,-9.414,14.291
1782117213.347030,1.189000,1660109,1000,12,0,1,1220.010,-10.444,10.162,367.132,-9.541,14.335
1782117213.348031,1.190000,1660110,1000,12,0,1,1232.212,1.405,9.956,358.845,-16.537,14.449
1782117213.349030,1.191000,1660111,1000,12,0,1,1233.510,2.843,9.833,352.455,-18.763,14.668
1782117213.350030,1.192000,1660112,1000,12,0,1,1223.997,-7.343,9.880,350.245,-18.000,14.880
1782117213.351031,1.193000,1660113,1000,12,0,1,1224.406,-8.863,9.959,348.588,-14.813,15.013
1782117213.352031,1.194000,1660114,1000,12,0,1,1228.489,-3.464,9.943,349.285,-11.477,15.027
1782117213.353030,1.195000,1660115,1000,12,0,1,1218.425,-10.274,10.049,353.969,-4.246,14.942
1782117213.354031,1.196000,1660116,1000,12,0,1,1210.137,-17.741,10.002,357.139,0.803,14.881
1782117213.355031,1.197000,1660117,1000,12,0,1,1211.338,-12.837,10.027,360.262,3.899,14.739
1782117213.356030,1.198000,1660118,1000,12,0,1,1223.685,0.281,10.007,361.679,5.694,14.529
1782117213.357030,1.199000,1660119,1000,12,0,1,1238.338,16.274,10.192,366.267,8.079,14.405
1782117213.358031,1.200000,1660120,1000,12,0,1,1230.051,11.136,10.313,377.701,16.699,14.597
1782117213.359030,1.201000,1660121,1000,12,0,1,1207.231,-10.144,10.139,388.967,24.179,14.718
1782117213.360030,1.202000,1660122,1000,12,0,1,1198.271,-17.335,10.390,397.734,27.473,15.002
1782117213.361031,1.203000,1660123,1000,12,0,1,1196.854,-13.365,10.229,406.526,29.649,15.562
1782117213.362031,1.204000,1660124,1000,12,0,1,1207.663,-2.108,9.605,413.540,30.040,16.127
1782117213.363030,1.205000,1660125,1000,12,0,1,1216.311,9.776,9.673,414.020,24.682,16.424
1782117213.364031,1.206000,1660126,1000,12,0,1,1229.090,18.170,9.903,415.221,19.075,16.501
1782117213.365031,1.207000,1660127,1000,12,0,1,1246.889,32.098,10.887,409.865,11.109,16.459
1782117213.366030,1.208000,1660128,1000,12,0,1,1255.825,35.301,11.914,400.377,-1.536,16.319
1782117213.367031,1.209000,1660129,1000,12,0,1,1259.380,30.791,12.468,400.929,-3.471,16.193
1782117213.368031,1.210000,1660130,1000,12,0,1,1260.821,25.406,12.836,388.727,-11.486,16.151
1782117213.369030,1.211000,1660131,1000,12,0,1,1240.620,3.586,12.817,378.181,-22.898,16.318
1782117213.370030,1.212000,1660132,1000,12,0,1,1208.696,-28.751,13.444,380.872,-17.189,16.353
1782117213.371031,1.213000,1660133,1000,12,0,1,1192.266,-43.001,14.755,375.035,-18.037,16.459
1782117213.372030,1.214000,1660134,1000,12,0,1,1212.732,-22.068,15.080,357.788,-30.478,16.994
1782117213.373030,1.215000,1660135,1000,12,0,1,1224.622,-2.325,15.082,354.977,-30.986,17.542
1782117213.374031,1.216000,1660136,1000,12,0,1,1229.810,0.859,15.072,355.098,-24.017,17.865
1782117213.375031,1.217000,1660137,1000,12,0,1,1246.216,15.926,15.238,348.636,-25.905,18.236
1782117213.376030,1.218000,1660138,1000,12,0,1,1249.459,19.929,15.420,343.183,-26.992,18.630
1782117213.377031,1.219000,1660139,1000,12,0,1,1236.824,5.878,15.433,348.516,-19.143,18.826
1782117213.378031,1.220000,1660140,1000,12,0,1,1221.595,-8.150,15.301,354.737,-9.344,18.816
1782117213.379030,1.221000,1660141,1000,12,0,1,1210.282,-17.458,15.318,357.091,-5.533,18.676
1782117213.380030,1.222000,1660142,1000,12,0,1,1210.378,-14.843,15.461,354.497,-6.253,18.502
1782117213.381031,1.223000,1660143,1000,12,0,1,1207.351,-12.790,15.461,354.209,-6.032,18.330
1782117213.382030,1.224000,1660144,1000,12,0,1,1210.426,-9.343,15.421,357.692,-1.377,18.159
1782117213.383030,1.225000,1660145,1000,12,0,1,1218.280,0.581,15.329,356.875,0.090,17.968
1782117213.384031,1.226000,1660146,1000,12,0,1,1220.995,3.546,15.330,351.519,-3.423,17.744
1782117213.385031,1.227000,1660147,1000,12,0,1,1220.707,2.372,15.322,345.513,-6.235,17.362
1782117213.386030,1.228000,1660148,1000,12,0,1,1222.436,2.638,15.321,345.225,-4.183,16.923
1782117213.387031,1.229000,1660149,1000,12,0,1,1202.211,-12.926,15.430,355.602,7.830,16.685
1782117213.388031,1.230000,1660150,1000,12,0,1,1192.242,-25.415,15.755,360.622,15.843,16.614
1782117213.389030,1.231000,1660151,1000,12,0,1,1203.724,-11.168,15.611,353.728,10.590,16.611
1782117213.390031,1.232000,1660152,1000,12,0,1,1197.190,-11.322,15.638,347.267,4.902,16.625
1782117213.391031,1.233000,1660153,1000,12,0,1,1190.104,-18.434,15.851,343.616,3.449,16.624
1782117213.392030,1.234000,1660154,1000,12,0,1,1213.140,3.629,15.859,344.697,5.237,16.544
1782117213.393030,1.235000,1660155,1000,12,0,1,1248.571,36.654,16.662,344.673,7.152,16.299
1782117213.394031,1.236000,1660156,1000,12,0,1,1263.680,48.763,18.028,347.531,8.774,16.043
1782117213.395030,1.237000,1660157,1000,12,0,1,1254.071,33.872,18.631,350.630,11.759,15.905
1782117213.396030,1.238000,1660158,1000,12,0,1,1251.549,23.503,18.812,350.606,10.049,15.913
1782117213.397031,1.239000,1660159,1000,12,0,1,1254.191,23.217,19.039,351.759,8.821,15.905
1782117213.398031,1.240000,1660160,1000,12,0,1,1239.611,8.472,19.076,360.214,13.408,15.846
1782117213.399030,1.241000,1660161,1000,12,0,1,1209.129,-19.668,19.273,369.894,19.462,15.863
1782117213.400031,1.242000,1660162,1000,12,0,1,1202.307,-27.131,19.624,369.150,15.788,15.816
1782117213.401031,1.243000,1660163,1000,12,0,1,1194.500,-24.916,19.899,372.585,12.811,15.781
1782117213.402030,1.244000,1660164,1000,12,0,1,1196.422,-22.700,20.150,376.980,14.721,15.834
1782117213.403030,1.245000,1660165,1000,12,0,1,1215.182,-0.773,20.098,373.906,8.614,15.870
1782117213.404031,1.246000,1660166,1000,12,0,1,1241.052,22.194,20.186,365.499,-0.757,15.870
1782117213.405030,1.247000,1660167,1000,12,0,1,1255.921,33.945,20.669,364.129,-3.917,15.870
1782117213.406030,1.248000,1660168,1000,12,0,1,1252.486,25.280,20.976,360.238,-5.010,15.865
1782117213.407031,1.249000,1660169,1000,12,0,1,1240.283,7.721,20.878,358.653,-6.626,15.852
1782117213.408031,1.250000,1660170,1000,12,0,1,1221.091,-12.018,20.888,357.115,-4.955,15.690
1782117213.409030,1.251000,1660171,1000,12,0,1,1205.958,-27.975,21.211,361.463,-0.790,15.314
1782117213.410031,1.252000,1660172,1000,12,0,1,1219.193,-16.401,21.196,360.742,1.771,14.815
1782117213.411031,1.253000,1660173,1000,12,0,1,1236.920,3.188,21.116,356.058,-2.639,14.214
1782117213.412030,1.254000,1660174,1000,12,0,1,1236.056,2.856,21.118,355.986,-2.251,13.568
1782117213.413031,1.255000,1660175,1000,12,0,1,1222.268,-10.258,21.123,358.100,0.469,13.111
1782117213.414031,1.256000,1660176,1000,12,0,1,1207.543,-22.336,21.203,359.565,1.272,12.832
1782117213.415030,1.257000,1660177,1000,12,0,1,1205.429,-22.005,20.943,361.151,1.977,12.739
1782117213.416030,1.258000,1660178,1000,12,0,1,1218.112,-6.433,20.360,364.225,2.728,12.743
1782117213.417031,1.259000,1660179,1000,12,0,1,1227.913,6.471,19.910,364.730,2.058,12.737
1782117213.418031,1.260000,1660180,1000,12,0,1,1219.674,1.766,19.585,364.922,-0.617,12.633
1782117213.419030,1.261000,1660181,1000,12,0,1,1213.356,-4.843,19.590,361.343,-4.499,12.227
1782117213.420031,1.262000,1660182,1000,12,0,1,1218.977,2.130,19.166,359.493,-8.387,12.042
1782117213.421031,1.263000,1660183,1000,12,0,1,1217.464,3.549,18.182,356.082,-10.399,11.860
1782117213.422030,1.264000,1660184,1000,12,0,1,1205.477,-6.505,17.936,358.749,-9.074,11.123
1782117213.423031,1.265000,1660185,1000,12,0,1,1199.280,-11.678,18.009,365.739,-1.109,10.225
1782117213.424031,1.266000,1660186,1000,12,0,1,1212.732,0.654,18.009,368.741,2.220,9.649
1782117213.425030,1.267000,1660187,1000,12,0,1,1236.200,22.237,18.142,369.750,2.974,8.937
1782117213.426030,1.268000,1660188,1000,12,0,1,1238.097,23.538,18.228,370.591,4.133,8.102
1782117213.427031,1.269000,1660189,1000,12,0,1,1228.898,9.103,18.255,369.054,3.172,7.649
1782117213.428030,1.270000,1660190,1000,12,0,1,1228.922,5.221,18.233,364.586,0.117,7.534
1782117213.429030,1.271000,1660191,1000,12,0,1,1228.729,3.721,18.073,361.487,-2.117,7.499
1782117213.430031,1.272000,1660192,1000,12,0,1,1230.795,2.504,17.954,361.343,-0.696,7.448
1782117213.431031,1.273000,1660193,1000,12,0,1,1233.486,4.242,17.873,364.249,2.624,7.408
1782117213.432030,1.274000,1660194,1000,12,0,1,1234.855,3.606,17.831,364.033,3.693,7.424
1782117213.433031,1.275000,1660195,1000,12,0,1,1226.351,-3.252,17.837,366.844,4.679,7.453
1782117213.434031,1.276000,1660196,1000,12,0,1,1217.079,-12.530,17.918,368.405,6.282,7.491
1782117213.435030,1.277000,1660197,1000,12,0,1,1221.259,-7.614,17.947,368.333,3.954,7.459
1782117213.436031,1.278000,1660198,1000,12,0,1,1223.493,-1.735,17.945,369.006,2.901,7.447
1782117213.437031,1.279000,1660199,1000,12,0,1,1223.949,-0.901,17.852,370.927,2.416,7.372
1782117213.438030,1.280000,1660200,1000,12,0,1,1221.331,-0.643,17.487,372.753,2.044,7.030
1782117213.439030,1.281000,1660201,1000,12,0,1,1220.034,-1.749,17.417,372.897,0.249,6.868
1782117213.440031,1.282000,1660202,1000,12,0,1,1219.265,-0.399,17.343,374.098,-0.988,6.835
1782117213.441031,1.283000,1660203,1000,12,0,1,1219.578,0.057,17.146,372.753,-2.812,6.829
1782117213.442030,1.284000,1660204,1000,12,0,1,1218.328,0.016,17.139,371.984,-5.112,6.827
1782117213.443031,1.285000,1660205,1000,12,0,1,1218.352,-0.564,16.336,370.447,-5.781,6.801
1782117213.444031,1.286000,1660206,1000,12,0,1,1218.641,-0.183,14.809,369.630,-6.546,6.750
1782117213.445030,1.287000,1660207,1000,12,0,1,1218.112,-1.302,14.014,371.143,-3.899,6.566
1782117213.446031,1.288000,1660208,1000,12,0,1,1216.143,-3.617,13.624,371.191,-2.309,6.418
1782117213.447031,1.289000,1660209,1000,12,0,1,1214.966,-5.312,13.244,368.069,-3.589,6.316
1782117213.448030,1.290000,1660210,1000,12,0,1,1216.527,-4.427,13.204,367.781,-2.807,6.038
1782117213.449030,1.291000,1660211,1000,12,0,1,1217.368,-3.325,12.917,367.877,-0.568,5.375
1782117213.450031,1.292000,1660212,1000,12,0,1,1214.942,-5.511,12.358,369.918,1.945,4.897
1782117213.451030,1.293000,1660213,1000,12,0,1,1211.915,-7.723,11.895,368.789,2.566,4.564
1782117213.452030,1.294000,1660214,1000,12,0,1,1213.044,-6.080,11.486,366.483,0.196,4.061
1782117213.453031,1.295000,1660215,1000,12,0,1,1213.789,-3.202,11.495,368.621,1.895,3.884
1782117213.454031,1.296000,1660216,1000,12,0,1,1211.050,-4.098,11.073,372.633,5.240,3.952
1782117213.455030,1.297000,1660217,1000,12,0,1,1209.129,-4.144,9.995,376.428,7.093,4.040
1782117213.456031,1.298000,1660218,1000,12,0,1,1212.780,0.741,9.335,380.848,8.859,4.170
1782117213.457031,1.299000,1660219,1000,12,0,1,1210.354,1.862,9.274,382.793,8.073,4.221
1782117213.458030,1.300000,1660220,1000,12,0,1,1206.150,-1.395,9.120,390.024,10.263,4.408
1782117213.459031,1.301000,1660221,1000,12,0,1,1202.667,-2.033,8.222,395.885,13.073,4.779
1782117213.460031,1.302000,1660222,1000,12,0,1,1201.130,-2.041,7.893,403.523,14.567,5.198
1782117213.461030,1.303000,1660223,1000,12,0,1,1200.097,-0.855,7.881,405.493,13.615,5.530
1782117213.462030,1.304000,1660224,1000,12,0,1,1199.929,0.018,7.871,398.599,3.373,5.542
