Unix_Time_s,RelativeTime_s,Target_Position_Deg,Measured_Position_Deg,Is_Bursting
1782117212.164545,0.007,7.000,7.000,0
1782117212.165552,0.008,7.000,7.000,0
1782117212.176159,0.018,7.000,7.000,0
1782117212.191226,0.033,7.000,7.000,0
1782117212.195283,0.037,7.000,7.000,0
1782117212.206224,0.048,7.000,7.000,0
1782117212.216439,0.058,7.000,7.000,0
1782117212.226117,0.068,7.000,7.000,0
1782117212.239662,0.082,7.000,7.000,0
1782117212.246176,0.088,7.000,7.000,0
1782117212.262570,0.105,7.000,7.000,0
1782117212.264623,0.107,7.000,7.000,0
1782117212.276767,0.119,7.000,7.000,0
1782117212.286824,0.129,7.000,7.000,0
1782117212.296321,0.138,7.000,7.000,0
1782117212.306875,0.149,7.000,7.000,0
1782117212.317464,0.159,7.000,7.000,0
1782117212.347612,0.190,7.000,7.000,0
1782117212.348741,0.191,7.000,7.000,0
1782117212.348741,0.191,7.000,7.000,0
1782117212.363894,0.206,7.000,7.000,0
1782117212.368815,0.211,7.000,7.000,0
1782117212.375396,0.217,7.000,7.000,0
1782117212.388136,0.230,7.000,7.000,0
1782117212.395826,0.238,7.000,7.000,0
1782117212.405318,0.247,7.000,7.000,0
1782117212.417860,0.260,7.000,7.000,0
1782117212.425396,0.267,7.000,7.000,0
1782117212.441968,0.284,7.000,7.000,0
1782117212.445379,0.287,7.000,7.000,0
1782117212.466351,0.308,7.000,7.000,0
1782117212.466351,0.308,7.000,7.000,0
1782117212.476196,0.318,7.000,7.000,0
1782117212.488554,0.331,7.000,7.000,0
1782117212.503666,0.346,7.000,7.000,0
1782117212.506416,0.348,7.000,7.000,0
1782117212.514958,0.357,7.000,7.000,0
1782117212.524925,0.367,7.000,7.000,0
1782117212.535564,0.378,7.000,7.000,0
1782117212.545127,0.387,7.000,7.000,0
1782117212.558022,0.400,7.000,7.000,0
1782117212.567849,0.410,7.000,7.000,0
1782117212.575498,0.417,7.000,7.000,0
1782117212.602633,0.445,7.000,7.000,0
1782117212.603650,0.446,7.000,7.000,0
1782117212.609649,0.452,7.000,7.000,0
1782117212.615646,0.458,7.000,7.000,0
1782117212.626633,0.469,7.000,7.000,0
1782117212.635156,0.477,7.000,7.000,0
1782117212.645623,0.488,7.000,7.000,0
1782117212.658152,0.500,7.000,7.000,0
1782117212.676163,0.518,7.000,7.000,0
1782117212.676163,0.518,7.000,7.000,0
1782117212.685153,0.527,7.000,7.000,0
1782117212.695109,0.537,7.000,7.000,0
1782117212.706358,0.548,7.000,7.000,0
1782117212.717355,0.559,7.000,7.000,0
1782117212.725604,0.568,7.000,7.000,0
1782117212.736899,0.579,7.000,7.000,0
1782117212.750813,0.593,7.000,7.000,0
1782117212.758079,0.600,7.000,7.000,0
1782117212.769075,0.611,7.000,7.000,0
1782117212.775318,0.617,7.000,7.000,0
1782117212.785994,0.628,7.000,7.000,0
1782117212.796278,0.638,7.000,7.000,0
1782117212.806283,0.648,7.000,7.000,0
1782117212.816431,0.658,7.000,7.000,0
1782117212.825984,0.668,7.000,7.000,0
1782117212.836436,0.678,7.000,7.000,0
1782117212.845762,0.688,7.000,7.000,0
1782117212.856006,0.698,7.000,7.000,0
1782117212.875315,0.717,7.000,7.000,0
1782117212.875315,0.717,7.000,7.000,0
1782117212.885473,0.727,7.000,7.000,0
1782117212.895468,0.737,7.000,7.000,0
1782117212.909574,0.752,7.000,7.000,0
1782117212.916914,0.759,7.000,7.000,0
1782117212.926476,0.768,7.000,7.000,0
1782117212.936389,0.778,7.000,7.000,0
1782117212.953438,0.795,7.000,7.000,0
1782117212.955559,0.798,7.000,7.000,0
1782117212.977061,0.819,7.000,7.000,0
1782117212.978066,0.820,7.000,7.000,0
1782117212.988809,0.831,7.000,7.000,0
1782117213.000567,0.843,7.000,7.000,0
1782117213.006700,0.849,7.000,7.000,0
1782117213.016833,0.859,7.000,7.000,0
1782117213.026542,0.869,7.000,7.000,0
1782117213.035239,0.877,7.000,7.000,0
1782117213.046661,0.889,7.000,7.000,0
1782117213.056072,0.898,7.000,7.000,0
1782117213.065832,0.908,7.000,7.000,0
1782117213.079390,0.921,7.000,7.000,0
1782117213.086686,0.929,7.000,7.000,0
1782117213.096513,0.938,7.000,7.000,0
1782117213.106261,0.948,7.000,7.000,0
1782117213.116713,0.959,7.000,7.000,0
1782117213.127715,0.970,7.000,7.000,0
1782117213.137232,0.979,7.000,7.000,0
1782117213.145872,0.988,7.000,7.000,0
1782117213.156821,0.999,7.000,7.000,0
1782117213.166827,1.009,7.000,7.000,0
1782117213.186913,1.029,7.000,7.000,0
1782117213.187905,1.030,7.000,7.000,0
1782117213.198614,1.041,7.000,7.000,0
1782117213.213945,1.056,7.000,7.000,0
1782117213.220205,1.062,7.000,7.000,0
1782117213.231024,1.073,7.000,7.000,0
1782117213.235773,1.078,7.000,7.000,0
1782117213.244663,1.087,7.000,7.000,0
1782117213.256477,1.098,7.000,7.000,0
1782117213.265975,1.108,7.000,7.000,0
1782117213.285377,1.127,7.000,7.000,0
1782117213.286379,1.128,7.000,7.000,0
1782117213.296941,1.139,7.000,7.000,0
1782117213.307349,1.149,7.000,7.000,0
1782117213.316253,1.158,7.000,7.000,0
1782117213.327782,1.170,7.000,7.000,0
1782117213.337141,1.179,7.000,7.000,0
1782117213.346018,1.188,7.000,7.000,0
1782117213.358482,1.200,7.000,7.000,0
1782117213.369999,1.212,7.000,7.000,0
1782117213.388834,1.231,7.000,7.000,0
1782117213.388834,1.231,7.000,7.000,0
1782117213.404448,1.246,7.000,7.000,0
1782117213.409198,1.251,7.000,7.000,0
1782117213.419116,1.261,7.000,7.000,0
1782117213.425467,1.267,7.000,7.000,0
1782117213.435249,1.277,7.000,7.000,0
1782117213.445678,1.288,7.000,7.000,0
1782117213.455790,1.298,7.000,7.000,0
1782117213.466299,1.308,7.000,7.000,0
1782117213.476054,1.318,7.000,7.000,0
1782117213.488549,1.331,7.000,7.000,0
1782117213.494896,1.337,7.000,7.000,0
1782117213.506417,1.348,7.000,7.000,0
1782117213.522008,1.364,7.000,7.000,0
1782117213.525815,1.368,7.000,7.000,0
1782117213.539291,1.381,7.000,7.000,0
1782117213.547338,1.389,7.000,7.000,0
1782117213.558920,1.401,7.000,7.000,0
1782117213.567450,1.409,7.000,7.000,0
1782117213.578153,1.420,7.000,7.000,0
1782117213.593139,1.435,7.000,7.000,0
1782117213.597166,1.439,7.000,7.000,0
1782117213.608133,1.450,7.000,7.000,0
1782117213.621627,1.464,7.000,7.000,0
1782117213.626337,1.468,7.000,7.000,0
1782117213.637102,1.479,7.000,7.000,0
1782117213.645007,1.487,7.000,7.000,0
1782117213.656561,1.499,7.000,7.000,0
1782117213.666352,1.508,7.000,7.000,0
1782117213.678146,1.520,7.000,7.000,0
1782117213.695936,1.538,7.000,7.000,0
1782117213.698014,1.540,7.000,7.000,0
1782117213.706224,1.548,7.000,7.000,0
1782117213.727856,1.570,7.000,7.000,0
1782117213.727856,1.570,7.000,7.000,0
1782117213.738350,1.580,7.000,7.000,0
1782117213.747399,1.589,7.000,7.000,0
1782117213.757208,1.599,7.000,7.000,0
1782117213.765772,1.608,7.000,7.000,0
1782117213.776285,1.618,7.000,7.000,0
1782117213.785416,1.627,7.000,7.000,0
1782117213.796633,1.639,7.000,7.000,0
1782117213.805681,1.648,7.000,7.000,0
1782117213.817713,1.660,7.000,7.000,0
1782117213.828298,1.670,7.000,7.000,0
1782117213.835829,1.678,7.000,7.000,0
1782117213.844866,1.687,7.000,7.000,0
1782117213.855377,1.697,7.000,7.000,0
1782117213.865435,1.707,7.000,7.000,0
1782117213.877513,1.719,7.000,7.000,0
1782117213.897964,1.740,7.000,7.000,0
1782117213.897964,1.740,7.000,7.000,0
1782117213.905195,1.747,7.000,7.000,0
1782117213.916779,1.759,7.000,7.000,0
1782117213.925178,1.767,7.000,7.000,0
1782117213.936226,1.778,7.000,7.000,0
1782117213.947283,1.789,7.000,7.000,0
1782117213.956654,1.799,7.000,7.000,0
1782117213.966012,1.808,7.000,7.000,0
1782117213.977099,1.819,7.000,7.000,0
1782117213.988151,1.830,7.000,7.000,0
1782117213.999976,1.842,7.000,7.000,0
1782117214.009290,1.851,7.000,7.000,0
1782117214.016820,1.859,7.000,7.000,0
1782117214.026448,1.868,7.000,7.000,0
1782117214.035496,1.877,7.000,7.000,0
1782117214.045720,1.888,7.000,7.000,0
1782117214.058248,1.900,7.000,7.000,0
1782117214.065162,1.907,7.000,7.000,0
1782117214.075316,1.917,7.000,7.000,0
1782117214.085632,1.928,7.000,7.000,0
1782117214.102926,1.945,7.000,7.000,0
1782117214.104299,1.946,7.000,7.000,0
1782117214.115344,1.957,7.000,7.000,0
1782117214.127095,1.969,7.000,7.000,0
1782117214.137648,1.980,7.000,7.000,0
1782117214.148775,1.991,7.000,7.000,0
1782117214.156387,1.998,7.000,7.000,0
1782117214.165882,2.008,7.000,7.000,0
1782117214.176062,2.018,7.000,7.000,0
1782117214.185070,2.027,7.000,7.000,0
1782117214.195119,2.037,7.000,7.000,0
1782117214.206152,2.048,7.000,7.000,0
1782117214.217477,2.059,7.000,7.000,0
1782117214.226642,2.069,7.000,7.000,0
1782117214.237683,2.080,7.000,7.000,0
1782117214.247444,2.089,7.000,7.000,0
1782117214.256296,2.098,7.000,7.000,0
1782117214.373236,2.215,7.000,7.000,0
1782117214.373701,2.216,7.000,7.000,0
1782117214.374257,2.216,7.000,7.000,0
1782117214.374257,2.216,7.000,7.000,0
1782117214.374257,2.216,7.000,7.000,0
1782117214.375249,2.217,7.000,7.000,0
1782117214.375249,2.217,7.000,7.000,0
1782117214.375249,2.217,7.000,7.000,0
1782117214.376695,2.219,7.000,7.000,0
1782117214.376695,2.219,7.000,7.000,0
1782117214.376695,2.219,7.000,7.000,0
1782117214.377821,2.220,7.000,7.000,0
1782117214.386327,2.228,7.000,7.000,0
1782117214.395817,2.238,7.000,7.000,0
1782117214.419809,2.262,7.000,7.000,0
1782117214.420691,2.263,7.000,7.000,0
1782117214.426318,2.268,7.000,7.000,0
1782117214.436544,2.279,7.000,7.000,0
1782117214.446327,2.288,7.000,7.000,0
1782117214.457885,2.300,7.000,7.000,0
1782117214.467642,2.310,7.000,7.000,0
1782117214.475825,2.318,7.000,7.000,0
1782117214.484941,2.327,7.000,7.000,0
1782117214.495914,2.338,7.000,7.000,0
1782117214.515526,2.357,7.000,7.000,0
1782117214.516524,2.358,7.000,7.000,0
1782117214.528562,2.371,7.000,7.000,0
1782117214.545137,2.387,7.000,7.000,0
1782117214.545137,2.387,7.000,7.000,0
1782117214.556404,2.398,7.000,7.000,0
1782117214.567004,2.409,7.000,7.000,0
1782117214.575963,2.418,7.000,7.000,0
1782117214.586552,2.429,7.000,7.000,0
1782117214.596171,2.438,7.000,7.000,0
1782117214.614046,2.456,7.000,7.000,0
1782117214.617044,2.459,7.000,7.000,0
1782117214.625097,2.467,7.000,7.000,0
1782117214.638925,2.481,7.000,7.000,0
1782117214.646274,2.488,7.000,7.000,0
1782117214.657888,2.500,7.000,7.000,0
1782117214.665355,2.507,7.000,7.000,0
1782117214.676175,2.518,7.000,7.000,0
1782117214.686743,2.529,7.000,7.000,0
1782117214.702323,2.544,7.000,7.000,0
1782117214.706140,2.548,7.000,7.000,0
1782117214.717878,2.560,7.000,7.000,0
1782117214.726307,2.568,7.000,7.000,0
1782117214.735002,2.577,7.000,7.000,0
1782117214.748087,2.590,7.000,7.000,0
1782117214.756358,2.598,7.000,7.000,0
1782117214.767755,2.610,7.000,7.000,0
1782117214.776852,2.619,7.000,7.000,0
1782117214.785411,2.627,7.000,7.000,0
1782117214.796467,2.638,7.000,7.000,0
1782117214.806040,2.648,7.000,7.000,0
1782117214.819314,2.661,7.000,7.000,0
1782117214.826380,2.668,7.000,7.000,0
1782117214.835424,2.677,7.000,7.000,0
1782117214.845494,2.687,7.000,7.000,0
1782117214.856514,2.698,7.000,7.000,0
1782117214.865748,2.708,7.000,7.000,0
1782117214.876784,2.719,7.000,7.000,0
1782117214.885827,2.728,7.000,7.000,0
1782117214.895341,2.737,7.000,7.000,0
1782117214.907330,2.749,7.000,7.000,0
1782117214.921833,2.764,7.000,7.000,0
1782117214.926340,2.768,7.000,7.000,0
1782117214.936781,2.779,7.000,7.000,0
1782117214.946895,2.789,7.000,7.000,0
1782117214.956555,2.799,7.000,7.000,0
1782117214.965035,2.807,7.000,7.000,0
1782117214.974813,2.817,7.000,7.000,0
1782117214.984339,2.826,7.000,7.000,0
1782117214.996907,2.839,7.000,7.000,0
1782117215.009941,2.852,7.000,7.000,0
1782117215.035886,2.878,7.000,7.000,0
1782117215.035886,2.878,7.000,7.000,0
1782117215.039166,2.881,7.000,7.000,0
1782117215.047853,2.890,7.000,7.000,0
1782117215.060330,2.902,7.000,7.000,0
1782117215.066508,2.908,7.000,7.000,0
1782117215.078869,2.921,7.000,7.000,0
1782117215.097971,2.940,7.000,7.000,0
1782117215.097971,2.940,7.000,7.000,0
1782117215.113056,2.955,7.000,7.000,0
1782117215.128383,2.970,7.000,7.000,0
1782117215.129396,2.971,7.000,7.000,0
1782117215.138922,2.981,7.000,7.000,0
1782117215.154211,2.996,7.000,7.000,0
1782117215.164921,3.007,7.000,7.000,0
1782117215.170146,3.012,7.000,7.000,0
1782117215.177683,3.020,7.000,7.000,0
1782117215.188804,3.031,7.000,7.000,0
1782117215.195848,3.038,7.000,7.000,0
1782117215.205995,3.048,7.000,7.000,0
1782117215.217576,3.060,7.000,7.000,0
1782117215.231519,3.073,7.000,7.000,0
1782117215.234924,3.077,7.000,7.000,0
1782117215.246241,3.088,7.000,7.000,0
1782117215.255841,3.098,7.000,7.000,0
1782117215.265614,3.108,7.000,7.000,0
1782117215.276146,3.118,7.000,7.000,0
1782117215.285776,3.128,7.000,7.000,0
1782117215.295982,3.138,7.000,7.000,0
1782117215.308913,3.151,7.000,7.000,0
1782117215.317446,3.159,7.000,7.000,0
1782117215.332758,3.175,7.000,7.000,0
1782117215.335278,3.177,7.000,7.000,0
1782117215.346317,3.188,7.000,7.000,0
1782117215.357682,3.200,7.000,7.000,0
1782117215.367313,3.209,7.000,7.000,0
1782117215.377078,3.219,7.000,7.000,0
1782117215.386325,3.228,7.000,7.000,0
1782117215.396363,3.238,7.000,7.000,0
1782117215.412898,3.255,7.000,7.000,0
1782117215.418451,3.260,7.000,7.000,0
1782117215.436474,3.278,7.000,7.000,0
1782117215.436474,3.278,7.000,7.000,0
1782117215.445359,3.287,7.000,7.000,0
1782117215.459087,3.301,7.000,7.000,0
1782117215.468349,3.310,7.000,7.000,0
1782117215.475389,3.317,7.000,7.000,0
1782117215.485925,3.328,7.000,7.000,0
1782117215.495987,3.338,7.000,7.000,0
1782117215.506314,3.348,7.000,7.000,0
1782117215.516189,3.358,7.000,7.000,0
1782117215.525081,3.367,7.000,7.000,0
1782117215.539142,3.381,7.000,7.000,0
1782117215.545850,3.388,7.000,7.000,0
1782117215.561023,3.403,7.000,7.000,0
1782117215.566556,3.409,7.000,7.000,0
1782117215.579107,3.421,7.000,7.000,0
1782117215.585984,3.428,7.000,7.000,0
1782117215.595253,3.437,7.000,7.000,0
1782117215.608378,3.450,7.000,7.000,0
1782117215.615394,3.457,7.000,7.000,0
1782117215.626404,3.468,7.000,7.000,0
1782117215.645469,3.487,7.000,7.000,0
1782117215.647468,3.489,7.000,7.000,0
1782117215.657266,3.499,7.000,7.000,0
1782117215.665108,3.507,7.000,7.000,0
1782117215.677102,3.519,7.000,7.000,0
1782117215.686101,3.528,7.000,7.000,0
1782117215.696100,3.538,7.000,7.000,0
1782117215.705101,3.547,7.000,7.000,0
1782117215.718109,3.560,7.000,7.000,0
1782117215.725102,3.567,7.000,7.000,0
1782117215.747593,3.590,7.000,7.000,0
1782117215.748583,3.591,7.000,7.000,0
1782117215.757914,3.600,7.000,7.000,0
1782117215.768905,3.611,7.000,7.000,0
1782117215.777908,3.620,7.000,7.000,0
1782117215.785903,3.628,7.000,7.000,0
1782117215.795911,3.638,7.000,7.000,0
1782117215.807120,3.649,7.000,7.000,0
1782117215.816993,3.659,7.000,7.000,0
1782117215.826026,3.668,7.000,7.000,0
1782117215.844050,3.686,7.000,7.000,0
1782117215.845049,3.687,7.000,7.000,0
1782117215.863581,3.706,7.000,7.000,0
1782117215.868572,3.711,7.000,7.000,0
1782117215.886470,3.728,7.000,7.000,0
1782117215.886470,3.728,7.000,7.000,0
1782117215.899466,3.741,7.000,7.000,0
1782117215.910469,3.752,7.000,7.000,0
1782117215.917127,3.759,7.000,7.000,0
1782117215.928141,3.770,7.000,7.000,0
1782117215.937138,3.779,7.000,7.000,0
1782117215.946284,3.788,7.000,7.000,0
1782117215.955223,3.797,7.000,7.000,0
1782117215.965590,3.808,7.000,7.000,0
1782117215.978625,3.821,7.000,7.000,0
1782117215.985660,3.828,7.000,7.000,0
1782117215.996646,3.839,7.000,7.000,0
1782117216.010055,3.852,7.000,7.000,0
1782117216.017735,3.860,7.000,7.000,0
1782117216.027158,3.869,7.000,7.000,0
1782117216.036154,3.878,7.000,7.000,0
1782117216.050160,3.892,7.000,7.000,0
1782117216.055701,3.898,7.000,7.000,0
1782117216.065794,3.908,7.000,7.000,0
1782117216.076031,3.918,7.000,7.000,0
1782117216.086111,3.928,7.000,7.000,0
1782117216.095515,3.937,7.000,7.000,0
1782117216.107510,3.949,7.000,7.000,0
1782117216.115510,3.957,7.000,7.000,0
1782117216.125512,3.967,7.000,7.000,0
1782117216.137888,3.980,7.000,7.000,0
1782117216.151015,3.993,7.000,7.000,0
1782117216.154560,3.997,7.000,7.000,0
1782117216.165998,4.008,7.000,7.000,0
1782117216.175998,4.018,7.000,7.000,0
1782117216.185997,4.028,7.000,7.000,0
1782117216.199999,4.042,7.000,7.000,0
1782117216.204999,4.047,7.000,7.000,0
1782117216.215825,4.058,7.000,7.000,0
1782117216.227707,4.070,7.000,7.000,0
1782117216.237589,4.080,7.000,7.000,0
1782117216.247883,4.090,7.000,7.000,0
1782117216.257924,4.100,7.000,7.000,0
1782117216.265945,4.108,7.000,7.000,0
1782117216.276388,4.118,7.000,7.000,0
1782117216.290091,4.132,7.000,7.000,0
1782117216.297152,4.139,7.000,7.000,0
1782117216.306896,4.149,7.000,7.000,0
1782117216.317940,4.160,7.000,7.000,0
1782117216.326976,4.169,7.000,7.000,0
1782117216.336575,4.179,7.000,7.000,0
1782117216.346022,4.188,7.000,7.000,0
1782117216.355419,4.197,7.000,7.000,0
1782117216.366474,4.208,7.000,7.000,0
1782117216.378881,4.221,7.000,7.000,0
1782117216.390770,4.233,7.000,7.000,0
1782117216.396314,4.238,7.000,7.000,0
1782117216.405228,4.247,7.000,7.000,0
1782117216.416442,4.258,7.000,7.000,0
1782117216.429860,4.272,7.000,7.000,0
1782117216.435721,4.278,7.000,7.000,0
1782117216.447672,4.290,7.000,7.000,0
1782117216.458728,4.301,7.000,7.000,0
1782117216.464877,4.307,7.000,7.000,0
1782117216.476617,4.319,7.000,7.000,0
1782117216.498345,4.340,7.000,7.000,0
1782117216.498345,4.340,7.000,7.000,0
1782117216.505725,4.348,7.000,7.000,0
1782117216.518866,4.361,7.000,7.000,0
1782117216.526559,4.369,7.000,7.000,0
1782117216.535869,4.378,7.000,7.000,0
1782117216.560453,4.402,7.000,7.000,0
1782117216.560453,4.402,7.000,7.000,0
1782117216.565971,4.408,7.000,7.000,0
1782117216.575950,4.418,7.000,7.000,0
1782117216.586694,4.429,7.000,7.000,0
1782117216.595764,4.438,7.000,7.000,0
1782117216.605348,4.447,7.000,7.000,0
1782117216.615402,4.457,7.000,7.000,0
1782117216.627309,4.469,7.000,7.000,0
1782117216.636830,4.479,7.000,7.000,0
1782117216.646879,4.489,7.000,7.000,0
1782117216.662952,4.505,7.000,7.000,0
1782117216.667474,4.509,7.000,7.000,0
1782117216.675990,4.518,7.000,7.000,0
1782117216.688536,4.531,7.000,7.000,0
1782117216.695055,4.537,7.000,7.000,0
1782117216.715085,4.557,7.000,7.000,0
1782117216.716112,4.558,7.000,7.000,0
1782117216.726169,4.568,7.000,7.000,0
1782117216.735859,4.578,7.000,7.000,0
1782117216.748083,4.590,7.000,7.000,0
1782117216.756301,4.598,7.000,7.000,0
1782117216.768078,4.610,7.000,7.000,0
1782117216.776381,4.618,7.000,7.000,0
1782117216.788711,4.631,7.000,7.000,0
1782117216.797254,4.639,7.000,7.000,0
1782117216.806550,4.649,7.000,7.000,0
1782117216.817068,4.659,7.000,7.000,0
1782117216.826751,4.669,7.000,7.000,0
1782117216.835660,4.678,7.000,7.000,0
1782117216.847711,4.690,7.000,7.000,0
1782117216.856286,4.698,7.000,7.000,0
1782117216.868070,4.710,7.000,7.000,0
1782117216.874391,4.716,7.000,7.000,0
1782117216.885374,4.727,7.000,7.000,0
1782117216.898224,4.740,7.000,7.000,0
1782117216.905270,4.747,7.000,7.000,0
1782117216.917314,4.759,7.000,7.000,0
1782117216.927334,4.769,7.000,7.000,0
1782117216.937669,4.780,7.000,7.000,0
1782117216.946721,4.789,7.000,7.000,0
1782117216.955785,4.798,7.000,7.000,0
1782117216.972768,4.815,7.000,7.000,0
1782117216.974794,4.817,7.000,7.000,0
1782117216.987352,4.829,7.000,7.000,0
1782117216.996194,4.838,7.000,7.000,0
1782117217.005223,4.847,7.000,7.000,0
1782117217.015879,4.858,7.000,7.000,0
1782117217.027408,4.869,7.000,7.000,0
1782117217.036931,4.879,7.000,7.000,0
1782117217.048833,4.891,7.000,7.000,0
1782117217.065259,4.907,7.000,7.000,0
1782117217.077854,4.920,7.000,7.000,0
1782117217.078862,4.921,7.000,7.000,0
1782117217.086966,4.929,7.000,7.000,0
1782117217.096637,4.939,7.000,7.000,0
1782117217.106212,4.948,7.000,7.000,0
1782117217.120096,4.962,7.000,7.000,0
1782117217.126986,4.969,7.000,7.000,0
1782117217.138155,4.980,7.000,7.000,0
1782117217.146200,4.988,7.000,7.000,0
1782117217.157271,4.999,7.000,7.000,0
1782117217.169832,5.012,7.000,7.000,0
1782117217.180643,5.023,7.000,7.000,0
1782117217.188686,5.031,7.000,7.000,0
1782117217.197406,5.039,7.000,7.000,0
1782117217.214545,5.057,7.000,7.000,0
1782117217.214545,5.057,7.000,7.000,0
1782117217.227717,5.070,7.000,7.000,0
1782117217.235159,5.077,7.000,7.000,0
1782117217.245702,5.088,7.000,7.000,0
1782117217.256277,5.098,7.000,7.000,0
1782117217.266871,5.109,7.000,7.000,0
1782117217.277062,5.119,7.000,7.000,0
1782117217.287143,5.129,7.000,7.000,0
1782117217.296220,5.138,7.000,7.000,0
1782117217.307209,5.149,7.000,7.000,0
1782117217.316209,5.158,7.000,7.000,0
1782117217.326253,5.168,7.000,7.000,0
1782117217.338064,5.180,7.000,7.000,0
1782117217.349190,5.191,7.000,7.000,0
1782117217.355707,5.198,7.000,7.000,0
1782117217.365759,5.208,7.000,7.000,0
1782117217.381252,5.223,7.000,7.000,0
1782117217.386255,5.228,7.000,7.000,0
1782117217.414794,5.257,7.000,7.000,0
1782117217.414794,5.257,7.000,7.000,0
1782117217.425847,5.268,7.000,7.000,0
1782117217.467933,5.310,7.000,7.000,0
1782117217.495444,5.337,7.000,7.000,0
1782117217.496060,5.338,7.000,7.000,0
1782117217.496060,5.338,7.000,7.000,0
1782117217.497097,5.339,7.000,7.000,0
1782117217.497097,5.339,7.000,7.000,0
1782117217.498111,5.340,7.000,7.000,0
1782117217.498111,5.340,7.000,7.000,0
1782117217.506169,5.348,7.000,7.000,0
1782117217.515720,5.358,7.000,7.000,0
1782117217.525142,5.367,7.000,7.000,0
1782117217.536337,5.378,7.000,7.000,0
1782117217.546062,5.388,7.000,7.000,0
1782117217.557684,5.400,7.000,7.000,0
1782117217.567721,5.410,7.000,7.000,0
1782117217.584810,5.427,7.000,7.000,0
1782117217.585808,5.428,7.000,7.000,0
1782117217.595360,5.437,7.000,7.000,0
1782117217.607736,5.450,7.000,7.000,0
1782117217.616784,5.459,7.000,7.000,0
1782117217.626827,5.469,7.000,7.000,0
1782117217.637517,5.479,7.000,7.000,0
1782117217.646235,5.488,7.000,7.000,0
1782117217.655349,5.497,7.000,7.000,0
1782117217.666394,5.508,7.000,7.000,0
1782117217.676462,5.518,7.000,7.000,0
1782117217.692019,5.534,7.000,7.000,0
1782117217.696455,5.538,7.000,7.000,0
1782117217.711536,5.554,7.000,7.000,0
1782117217.716563,5.559,7.000,7.000,0
1782117217.726680,5.569,7.000,7.000,0
1782117217.736217,5.578,7.000,7.000,0
1782117217.747263,5.589,7.000,7.000,0
1782117217.756994,5.599,7.000,7.000,0
1782117217.768030,5.610,7.000,7.000,0
1782117217.777050,5.619,7.000,7.000,0
1782117217.790110,5.632,7.000,7.000,0
1782117217.795659,5.638,7.000,7.000,0
1782117217.812291,5.654,7.000,7.000,0
1782117217.818840,5.661,7.000,7.000,0
1782117217.825367,5.667,7.000,7.000,0
1782117217.836282,5.678,7.000,7.000,0
1782117217.846315,5.688,7.000,7.000,0
1782117217.855034,5.697,7.000,7.000,0
1782117217.869609,5.712,7.000,7.000,0
1782117217.876320,5.718,7.000,7.000,0
1782117217.892319,5.734,7.000,7.000,0
1782117217.895319,5.737,7.000,7.000,0
1782117217.905380,5.747,7.000,7.000,0
1782117217.917630,5.760,7.000,7.000,0
1782117217.924149,5.766,7.000,7.000,0
1782117217.936349,5.778,7.000,7.000,0
1782117217.948895,5.791,7.000,7.000,0
1782117217.958424,5.800,7.000,7.000,0
1782117217.965575,5.808,7.000,7.000,0
1782117217.978343,5.820,7.000,7.000,0
1782117217.997843,5.840,7.000,7.000,0
1782117217.997843,5.840,7.000,7.000,0
1782117218.005248,5.847,7.000,7.000,0
1782117218.018028,5.860,7.000,7.000,0
1782117218.027069,5.869,7.000,7.000,0
1782117218.037029,5.879,7.000,7.000,0
1782117218.046559,5.889,7.000,7.000,0
1782117218.056306,5.898,7.000,7.000,0
1782117218.067274,5.909,7.000,7.000,0
1782117218.077205,5.919,7.000,7.000,0
1782117218.087502,5.929,7.000,7.000,0
1782117218.097791,5.940,7.000,7.000,0
1782117218.106815,5.949,7.000,7.000,0
1782117218.118900,5.961,7.000,7.000,0
1782117218.126421,5.968,7.000,7.000,0
1782117218.137159,5.979,7.000,7.000,0
1782117218.145686,5.988,7.000,7.000,0
1782117218.155729,5.998,7.000,7.000,0
1782117218.165823,6.008,7.000,7.000,0
1782117218.175351,6.017,7.000,7.000,0
1782117218.188905,6.031,7.000,7.000,0
1782117218.198436,6.040,7.000,7.000,0
1782117218.205895,6.048,7.000,7.000,0
1782117218.215895,6.058,7.000,7.000,0
1782117218.225564,6.068,7.000,7.000,0
1782117218.236620,6.079,7.000,7.000,0
1782117218.245543,6.088,7.000,7.000,0
1782117218.256755,6.099,7.000,7.000,0
1782117218.265807,6.108,7.000,7.000,0
1782117218.278397,6.120,7.000,7.000,0
1782117218.286486,6.128,7.000,7.000,0
1782117218.303943,6.146,7.000,7.000,0
1782117218.305959,6.148,7.000,7.000,0
1782117218.315581,6.158,7.000,7.000,0
1782117218.325490,6.167,7.000,7.000,0
1782117218.335856,6.178,7.000,7.000,0
1782117218.347293,6.189,7.000,7.000,0
1782117218.355860,6.198,7.000,7.000,0
1782117218.369379,6.211,7.000,7.000,0
1782117218.376655,6.219,7.000,7.000,0
1782117218.385882,6.228,7.000,7.000,0
1782117218.404995,6.247,7.000,7.000,0
1782117218.404995,6.247,7.000,7.000,0
1782117218.418975,6.261,7.000,7.000,0
1782117218.434050,6.276,7.000,7.000,0
1782117218.440167,6.282,7.000,7.000,0
1782117218.446702,6.289,7.000,7.000,0
1782117218.456731,6.299,7.000,7.000,0
1782117218.465782,6.308,7.000,7.000,0
1782117218.477108,6.319,7.000,7.000,0
1782117218.485768,6.328,7.000,7.000,0
1782117218.495111,6.337,7.000,7.000,0
1782117218.512341,6.354,7.000,7.000,0
1782117218.516862,6.359,7.000,7.000,0
1782117218.524835,6.367,7.000,7.000,0
1782117218.539856,6.382,7.000,7.000,0
1782117218.545571,6.388,7.000,7.000,0
1782117218.558611,6.401,7.000,7.000,0
1782117218.565192,6.407,7.000,7.000,0
1782117218.576586,6.419,7.000,7.000,0
1782117218.587495,6.429,7.000,7.000,0
1782117218.596013,6.438,7.000,7.000,0
1782117218.610986,6.453,7.000,7.000,0
1782117218.617520,6.459,7.000,7.000,0
1782117218.625529,6.467,7.000,7.000,0
1782117218.638860,6.481,7.000,7.000,0
1782117218.649074,6.491,7.000,7.000,0
1782117218.655242,6.497,7.000,7.000,0
1782117218.665086,6.507,7.000,7.000,0
1782117218.677467,6.519,7.000,7.000,0
1782117218.687465,6.529,7.000,7.000,0
1782117218.697463,6.539,7.000,7.000,0
1782117218.711551,6.554,7.000,7.000,0
1782117218.716564,6.559,7.000,7.000,0
1782117218.727752,6.570,7.000,7.000,0
1782117218.736749,6.579,7.000,7.000,0
1782117218.745754,6.588,7.000,7.000,0
1782117218.756831,6.599,7.000,7.000,0
1782117218.765826,6.608,7.000,7.000,0
1782117218.776831,6.619,7.000,7.000,0
1782117218.786827,6.629,7.000,7.000,0
1782117218.798839,6.641,7.000,7.000,0
1782117218.814836,6.657,7.000,7.000,0
1782117218.821156,6.663,7.000,7.000,0
1782117218.827156,6.669,7.000,7.000,0
1782117218.847254,6.689,7.000,7.000,0
1782117218.847254,6.689,7.000,7.000,0
1782117218.856376,6.698,7.000,7.000,0
1782117218.866361,6.708,7.000,7.000,0
1782117218.876362,6.718,7.000,7.000,0
1782117218.888376,6.730,7.000,7.000,0
1782117218.896369,6.738,7.000,7.000,0
1782117218.905356,6.747,7.000,7.000,0
1782117218.917389,6.759,7.000,7.000,0
1782117218.925401,6.767,7.000,7.000,0
1782117218.939485,6.781,7.000,7.000,0
1782117218.955487,6.797,7.000,7.000,0
1782117218.955487,6.797,7.000,7.000,0
1782117218.966485,6.808,7.000,7.000,0
1782117218.975487,6.817,7.000,7.000,0
1782117218.986489,6.828,7.000,7.000,0
1782117218.996624,6.839,7.000,7.000,0
1782117219.005845,6.848,7.000,7.000,0
1782117219.018144,6.860,7.000,7.000,0
1782117219.027146,6.869,7.000,7.000,0
1782117219.036144,6.878,7.000,7.000,0
1782117219.048152,6.890,7.000,7.000,0
1782117219.056160,6.898,7.000,7.000,0
1782117219.065360,6.907,7.000,7.000,0
1782117219.075373,6.917,7.000,7.000,0
1782117219.087408,6.929,7.000,7.000,0
1782117219.097408,6.939,7.000,7.000,0
1782117219.105402,6.947,7.000,7.000,0
1782117219.124405,6.966,7.000,7.000,0
1782117219.128406,6.970,7.000,7.000,0
1782117219.137403,6.979,7.000,7.000,0
1782117219.146406,6.988,7.000,7.000,0
1782117219.158012,7.000,7.000,7.000,0
1782117219.165769,7.008,7.000,7.000,0
1782117219.177302,7.019,7.000,7.000,0
1782117219.184822,7.027,7.000,7.000,0
1782117219.195948,7.038,8.200,7.000,1
1782117219.208012,7.050,8.200,7.000,1
1782117219.226010,7.068,8.200,7.000,1
1782117219.227012,7.069,8.200,7.000,1
1782117219.235534,7.078,8.200,7.000,1
1782117219.247568,7.090,8.200,7.002,1
1782117219.259310,7.101,8.200,7.005,1
1782117219.276262,7.118,8.200,7.010,1
1782117219.279798,7.122,8.200,7.015,1
1782117219.286337,7.128,8.200,7.022,1
1782117219.296810,7.139,8.200,7.028,1
1782117219.305335,7.147,8.200,7.038,1
1782117219.316430,7.158,8.200,7.045,1
1782117219.326307,7.168,8.200,7.057,1
1782117219.335530,7.177,8.200,7.066,1
1782117219.348572,7.191,8.200,7.080,1
1782117219.357481,7.199,8.200,7.090,1
1782117219.364173,7.206,8.200,7.107,1
1782117219.379748,7.222,8.200,7.119,1
1782117219.388241,7.230,8.200,7.139,1
1782117219.397296,7.239,8.200,7.158,1
1782117219.406359,7.248,8.200,7.173,1
1782117219.428621,7.271,8.200,7.195,1
1782117219.428621,7.271,8.200,7.211,1
1782117219.435561,7.278,8.200,7.234,1
1782117219.448996,7.291,8.200,7.259,1
1782117219.458697,7.301,8.200,7.278,1
1782117219.467389,7.309,8.200,7.307,1
1782117219.477270,7.319,8.200,7.327,1
1782117219.491135,7.333,8.200,7.358,1
1782117219.495753,7.338,8.200,7.388,1
1782117219.505847,7.348,8.200,7.408,1
1782117219.517216,7.359,8.200,7.443,1
1782117219.535694,7.378,8.200,7.467,1
1782117219.570873,7.413,8.200,7.505,1
1782117219.570873,7.413,8.200,7.530,1
1782117219.570873,7.413,8.200,7.567,1
1782117219.572403,7.414,8.200,7.594,1
1782117219.576641,7.419,8.200,7.634,1
1782117219.586037,7.428,8.200,7.661,1
1782117219.596823,7.439,8.200,7.698,1
1782117219.608953,7.451,8.200,7.733,1
1782117219.615478,7.457,8.200,7.755,1
1782117219.632665,7.475,8.200,7.789,1
1782117219.635665,7.478,8.200,7.812,1
1782117219.645271,7.487,8.200,7.844,1
1782117219.656818,7.499,8.200,7.875,1
1782117219.667318,7.509,8.200,7.893,1
1782117219.676713,7.519,8.200,7.922,1
1782117219.685785,7.528,8.200,7.940,1
1782117219.694312,7.536,8.200,7.967,1
1782117219.705238,7.547,8.200,7.984,1
1782117219.715569,7.558,8.200,8.006,1
1782117219.725825,7.568,8.200,8.027,1
1782117219.735649,7.578,8.200,8.041,1
1782117219.745024,7.587,8.200,8.062,1
1782117219.759602,7.602,8.200,8.074,1
1782117219.767872,7.610,8.200,8.093,1
1782117219.778966,7.621,8.200,8.103,1
1782117219.786491,7.628,8.200,8.119,1
1782117219.796514,7.638,8.200,8.128,1
1782117219.804816,7.647,8.200,8.141,1
1782117219.815385,7.657,8.200,8.154,1
1782117219.825428,7.667,8.200,8.160,1
1782117219.841491,7.683,8.200,8.170,1
1782117219.846504,7.688,8.200,8.175,1
1782117219.856348,7.698,8.200,8.183,1
1782117219.871958,7.714,8.200,8.187,1
1782117219.876815,7.719,8.200,8.192,1
1782117219.885361,7.727,8.200,8.194,1
1782117219.896350,7.738,8.200,8.197,1
1782117219.907420,7.749,8.200,8.197,1
1782117219.917767,7.760,8.200,8.198,1
1782117219.927813,7.770,8.200,8.198,1
1782117219.940531,7.783,8.200,8.198,1
1782117219.946054,7.788,8.200,8.199,1
1782117219.961125,7.803,8.200,8.199,1
1782117219.965647,7.808,8.200,8.199,1
1782117219.975727,7.818,8.200,8.199,1
1782117219.985286,7.827,8.200,8.199,1
1782117219.995412,7.837,7.000,8.199,0
1782117220.006474,7.848,7.000,8.199,0
1782117220.017303,7.859,7.000,8.199,0
1782117220.029366,7.871,7.000,8.199,0
1782117220.041410,7.883,7.000,8.199,0
1782117220.047928,7.890,7.000,8.198,0
1782117220.056347,7.898,7.000,8.195,0
1782117220.066508,7.908,7.000,8.191,0
1782117220.078368,7.920,7.000,8.185,0
1782117220.086790,7.929,7.000,8.181,0
1782117220.098390,7.940,7.000,8.174,0
1782117220.105918,7.948,7.000,8.168,0
1782117220.121521,7.963,7.000,8.157,0
1782117220.125530,7.967,7.000,8.149,0
1782117220.144338,7.986,7.000,8.135,0
1782117220.145292,7.987,7.000,8.121,0
1782117220.156658,7.999,7.000,8.112,0
1782117220.167169,8.009,7.000,8.095,0
1782117220.178202,8.020,7.000,8.083,0
1782117220.185892,8.028,7.000,8.064,0
1782117220.227477,8.069,7.000,8.051,0
1782117220.298991,8.141,7.000,8.031,0
1782117220.300526,8.142,7.000,8.015,0
1782117220.300526,8.142,7.000,7.992,0
1782117220.301476,8.143,7.000,7.975,0
1782117220.301476,8.143,7.000,7.949,0
1782117220.302496,8.144,7.000,7.926,0
1782117220.302496,8.144,7.000,7.906,0
1782117220.303494,8.145,7.000,7.876,0
1782117220.304486,8.146,7.000,7.855,0
1782117220.304486,8.146,7.000,7.823,0
1782117220.308023,8.150,7.000,7.801,0
1782117220.323267,8.165,7.000,7.769,0
1782117220.326797,8.169,7.000,7.733,0
1782117220.338514,8.180,7.000,7.708,0
1782117220.350424,8.192,7.000,7.670,0
1782117220.357193,8.199,7.000,7.644,0
1782117220.365685,8.208,7.000,7.605,0
1782117220.375481,8.217,7.000,7.578,0
1782117220.389654,8.232,7.000,7.538,0
1782117220.399516,8.241,7.000,7.511,0
1782117220.416762,8.259,7.000,7.475,0
1782117220.416762,8.259,7.000,7.440,0
1782117220.427271,8.269,7.000,7.419,0
1782117220.454582,8.297,7.000,7.386,0
1782117220.455127,8.297,7.000,7.364,0
1782117220.456126,8.298,7.000,7.331,0
1782117220.464657,8.307,7.000,7.311,0
1782117220.475554,8.318,7.000,7.283,0
1782117220.488123,8.330,7.000,7.265,0
1782117220.495785,8.338,7.000,7.239,0
1782117220.507449,8.349,7.000,7.222,0
1782117220.515009,8.357,7.000,7.198,0
1782117220.528709,8.371,7.000,7.174,0
1782117220.535247,8.377,7.000,7.161,0
1782117220.556626,8.399,7.000,7.141,0
1782117220.557605,8.400,7.000,7.128,0
1782117220.568356,8.410,7.000,7.110,0
1782117220.580348,8.422,7.000,7.098,0
1782117220.587502,8.429,7.000,7.083,0
1782117220.600058,8.442,7.000,7.073,0
1782117220.604234,8.446,7.000,7.060,0
1782117220.616024,8.458,7.000,7.052,0
1782117220.625101,8.467,7.000,7.041,0
1782117220.636617,8.479,7.000,7.031,0
1782117220.653359,8.495,7.000,7.025,0
1782117220.656369,8.498,7.000,7.019,0
1782117220.666331,8.508,7.000,7.014,0
1782117220.678645,8.521,7.000,7.008,0
1782117220.687857,8.530,7.000,7.006,0
1782117220.696342,8.538,7.000,7.003,0
1782117220.704590,8.547,7.000,7.001,0
1782117220.715631,8.558,7.000,7.001,0
1782117220.728383,8.570,7.000,7.001,0
1782117220.738014,8.580,7.000,7.001,0
1782117220.760167,8.602,7.000,7.001,0
1782117220.761160,8.603,7.000,7.001,0
1782117220.764863,8.607,7.000,7.001,0
1782117220.776921,8.619,7.000,7.001,0
1782117220.789646,8.632,7.000,7.000,0
1782117220.803561,8.646,7.000,7.000,0
1782117220.806088,8.648,7.000,7.000,0
1782117220.819327,8.661,7.000,7.000,0
1782117220.825135,8.667,7.000,7.000,0
1782117220.837053,8.679,7.000,7.000,0
1782117220.846589,8.689,7.000,7.000,0
1782117220.861395,8.703,7.000,7.000,0
1782117220.865032,8.707,7.000,7.000,0
1782117220.876068,8.718,7.000,7.000,0
1782117220.885579,8.728,7.000,7.000,0
1782117220.898616,8.741,7.000,7.000,0
1782117220.907147,8.749,7.000,7.000,0
1782117220.916684,8.759,7.000,7.000,0
1782117220.927749,8.770,7.000,7.000,0
1782117220.936775,8.779,7.000,7.000,0
1782117220.950796,8.793,7.000,7.000,0
1782117220.967371,8.809,7.000,7.000,0
1782117220.967371,8.809,7.000,7.000,0
1782117220.976965,8.819,7.000,7.000,0
1782117220.986940,8.829,7.000,7.000,0
1782117220.996467,8.838,7.000,7.000,0
1782117221.005171,8.847,7.000,7.000,0
1782117221.016753,8.859,7.000,7.000,0
1782117221.025251,8.867,7.000,7.000,0
1782117221.034922,8.877,7.000,7.000,0
1782117221.045847,8.888,7.000,7.000,0
1782117221.056119,8.898,7.000,7.000,0
1782117221.068894,8.911,7.000,7.000,0
1782117221.075250,8.917,7.000,7.000,0
1782117221.084969,8.927,7.000,7.000,0
1782117221.099968,8.942,7.000,7.000,0
1782117221.107445,8.949,7.000,7.000,0
1782117221.117061,8.959,7.000,7.000,0
1782117221.126310,8.968,7.000,7.000,0
1782117221.136669,8.979,7.000,7.000,0
1782117221.145012,8.987,7.000,7.000,0
1782117221.157518,8.999,7.000,7.000,0
1782117221.170029,9.012,7.000,7.000,0
1782117221.175786,9.018,7.000,7.000,0
1782117221.191167,9.033,7.000,7.000,0
1782117221.195805,9.038,7.000,7.000,0
1782117221.205742,9.048,7.000,7.000,0
1782117221.217268,9.059,7.000,7.000,0
1782117221.225652,9.068,7.000,7.000,0
1782117221.237154,9.079,7.000,7.000,0
1782117221.247021,9.089,7.000,7.000,0
1782117221.256945,9.099,7.000,7.000,0
1782117221.270452,9.112,7.000,7.000,0
1782117221.275094,9.117,7.000,7.000,0
1782117221.284683,9.127,7.000,7.000,0
1782117221.296638,9.139,7.000,7.000,0
1782117221.306069,9.148,7.000,7.000,0
1782117221.315471,9.157,7.000,7.000,0
1782117221.331164,9.173,7.000,7.000,0
1782117221.340102,9.182,7.000,7.000,0
1782117221.345353,9.187,7.000,7.000,0
1782117221.355917,9.198,7.000,7.000,0
1782117221.368098,9.210,7.000,7.000,0
1782117221.377214,9.219,7.000,7.000,0
1782117221.389267,9.231,7.000,7.000,0
1782117221.397224,9.239,7.000,7.000,0
1782117221.408529,9.250,7.000,7.000,0
1782117221.416654,9.259,7.000,7.000,0
1782117221.427695,9.270,7.000,7.000,0
1782117221.436214,9.278,7.000,7.000,0
1782117221.449109,9.291,7.000,7.000,0
1782117221.458286,9.300,7.000,7.000,0
1782117221.466326,9.308,7.000,7.000,0
1782117221.475862,9.318,7.000,7.000,0
1782117221.488689,9.331,7.000,7.000,0
1782117221.498313,9.340,7.000,7.000,0
1782117221.508376,9.350,7.000,7.000,0
1782117221.516562,9.359,7.000,7.000,0
1782117221.524308,9.366,7.000,7.000,0
1782117221.535788,9.378,7.000,7.000,0
1782117221.544607,9.387,7.000,7.000,0
1782117221.554834,9.397,7.000,7.000,0
1782117221.565147,9.407,7.000,7.000,0
1782117221.580830,9.423,7.000,7.000,0
1782117221.584848,9.427,7.000,7.000,0
1782117221.602416,9.444,7.000,7.000,0
1782117221.608990,9.451,7.000,7.000,0
1782117221.616250,9.458,7.000,7.000,0
1782117221.627250,9.469,7.000,7.000,0
1782117221.637249,9.479,7.000,7.000,0
1782117221.645251,9.487,7.000,7.000,0
1782117221.656434,9.498,7.000,7.000,0
1782117221.666815,9.509,7.000,7.000,0
1782117221.684902,9.527,7.000,7.000,0
1782117221.684902,9.527,7.000,7.000,0
1782117221.698913,9.541,7.000,7.000,0
1782117221.707819,9.550,7.000,7.000,0
1782117221.715233,9.557,7.000,7.000,0
1782117221.724969,9.567,7.000,7.000,0
1782117221.736496,9.578,7.000,7.000,0
1782117221.746494,9.588,7.000,7.000,0
1782117221.756489,9.598,7.000,7.000,0
1782117221.765503,9.607,7.000,7.000,0
1782117221.785495,9.627,7.000,7.000,0
1782117221.786555,9.629,7.000,7.000,0
1782117221.795567,9.638,7.000,7.000,0
1782117221.806681,9.649,7.000,7.000,0
1782117221.814930,9.657,7.000,7.000,0
1782117221.836120,9.678,7.000,7.000,0
1782117221.836120,9.678,7.000,7.000,0
1782117221.847461,9.689,7.000,7.000,0
1782117221.857189,9.699,7.000,7.000,0
1782117221.865632,9.708,7.000,7.000,0
1782117221.876039,9.718,7.000,7.000,0
1782117221.888043,9.730,7.000,7.000,0
1782117221.898026,9.740,7.000,7.000,0
1782117221.908020,9.750,7.000,7.000,0
1782117221.919028,9.761,7.000,7.000,0
1782117221.928429,9.770,7.000,7.000,0
1782117221.939427,9.781,7.000,7.000,0
1782117221.950030,9.792,7.000,7.000,0
1782117221.955994,9.798,7.000,7.000,0
1782117221.966061,9.808,7.000,7.000,0
1782117221.993513,9.835,7.000,7.000,0
1782117221.994509,9.836,7.000,7.000,0
1782117221.996507,9.838,7.000,7.000,0
1782117222.005994,9.848,7.000,7.000,0
1782117222.018289,9.860,7.000,7.000,0
1782117222.027292,9.869,7.000,7.000,0
1782117222.036289,9.878,7.000,7.000,0
1782117222.046287,9.888,7.000,7.000,0
1782117222.057287,9.899,7.000,7.000,0
1782117222.066675,9.909,7.000,7.000,0
1782117222.075622,9.918,7.000,7.000,0
1782117222.092824,9.935,7.000,7.000,0
1782117222.096825,9.939,7.000,7.000,0
1782117222.107184,9.949,7.000,7.000,0
1782117222.115690,9.958,7.000,7.000,0
1782117222.126966,9.969,7.000,7.000,0
1782117222.140946,9.983,7.000,7.000,0
1782117222.147986,9.990,7.000,7.000,0
1782117222.156979,9.999,7.000,7.000,0
1782117222.166862,10.009,7.000,7.000,0
1782117222.197522,10.039,7.000,7.000,0
1782117222.197522,10.039,7.000,7.000,0
1782117222.200031,10.042,7.000,7.000,0
1782117222.206505,10.048,7.000,7.000,0
1782117222.217657,10.060,7.000,7.000,0
1782117222.228115,10.070,7.000,7.000,0
1782117222.235568,10.078,7.000,7.000,0
1782117222.245379,10.087,7.000,7.000,0
1782117222.255580,10.098,7.000,7.000,0
1782117222.269191,10.111,7.000,7.000,0
1782117222.277864,10.120,7.000,7.000,0
1782117222.286691,10.129,7.000,7.000,0
1782117222.295345,10.137,7.000,7.000,0
1782117222.304943,10.147,7.000,7.000,0
1782117222.317755,10.160,7.000,7.000,0
1782117222.327477,10.169,7.000,7.000,0
1782117222.336252,10.178,7.000,7.000,0
1782117222.350561,10.193,7.000,7.000,0
1782117222.355712,10.198,7.000,7.000,0
1782117222.365443,10.207,7.000,7.000,0
1782117222.377850,10.220,7.000,7.000,0
1782117222.385925,10.228,7.000,7.000,0
1782117222.398945,10.241,7.000,7.000,0
1782117222.407605,10.250,7.000,7.000,0
1782117222.422045,10.264,7.000,7.000,0
1782117222.429507,10.271,7.000,7.000,0
1782117222.438216,10.280,7.000,7.000,0
1782117222.447327,10.289,7.000,7.000,0
1782117222.458102,10.300,7.000,7.000,0
1782117222.466048,10.308,7.000,7.000,0
1782117222.478929,10.321,7.000,7.000,0
1782117222.486617,10.329,7.000,7.000,0
1782117222.499148,10.341,7.000,7.000,0
1782117222.505066,10.347,7.000,7.000,0
1782117222.515126,10.357,7.000,7.000,0
1782117222.531408,10.373,7.000,7.000,0
1782117222.536927,10.379,7.000,7.000,0
1782117222.545470,10.387,7.000,7.000,0
1782117222.558418,10.400,7.000,7.000,0
1782117222.566993,10.409,7.000,7.000,0
1782117222.578029,10.420,7.000,7.000,0
1782117222.585545,10.428,7.000,7.000,0
1782117222.606110,10.448,7.000,7.000,0
1782117222.608376,10.450,7.000,7.000,0
1782117222.615442,10.457,7.000,7.000,0
1782117222.626875,10.469,7.000,7.000,0
1782117222.635501,10.477,7.000,7.000,0
1782117222.647851,10.490,7.000,7.000,0
1782117222.657196,10.499,7.000,7.000,0
1782117222.666103,10.508,7.000,7.000,0
1782117222.676538,10.519,7.000,7.000,0
1782117222.689065,10.531,7.000,7.000,0
1782117222.706316,10.548,7.000,7.000,0
1782117222.707319,10.549,7.000,7.000,0
1782117222.717264,10.559,7.000,7.000,0
1782117222.730822,10.573,7.000,7.000,0
1782117222.738401,10.580,7.000,7.000,0
1782117222.746447,10.588,7.000,7.000,0
1782117222.756000,10.598,7.000,7.000,0
1782117222.765348,10.607,7.000,7.000,0
1782117222.775032,10.617,7.000,7.000,0
1782117222.787970,10.630,7.000,7.000,0
1782117222.798322,10.640,7.000,7.000,0
1782117222.806886,10.649,7.000,7.000,0
1782117222.816629,10.659,7.000,7.000,0
1782117222.830810,10.673,7.000,7.000,0
1782117222.836900,10.679,7.000,7.000,0
1782117222.846439,10.688,7.000,7.000,0
1782117222.857836,10.700,7.000,7.000,0
1782117222.865201,10.707,7.000,7.000,0
1782117222.877436,10.719,7.000,7.000,0
1782117222.888967,10.731,7.000,7.000,0
1782117222.895450,10.737,7.000,7.000,0
1782117222.913123,10.755,7.000,7.000,0
1782117222.915123,10.757,7.000,7.000,0
1782117222.926046,10.768,7.000,7.000,0
1782117222.946520,10.788,7.000,7.000,0
1782117222.954637,10.797,7.000,7.000,0
1782117222.955641,10.798,7.000,7.000,0
1782117222.970530,10.812,7.000,7.000,0
1782117222.976296,10.818,7.000,7.000,0
1782117222.988149,10.830,7.000,7.000,0
1782117222.996206,10.838,7.000,7.000,0
1782117223.021311,10.863,7.000,7.000,0
1782117223.022311,10.864,7.000,7.000,0
1782117223.026169,10.868,7.000,7.000,0
1782117223.035373,10.877,7.000,7.000,0
1782117223.049955,10.892,7.000,7.000,0
1782117223.061735,10.904,7.000,7.000,0
1782117223.067344,10.909,7.000,7.000,0
1782117223.075150,10.917,7.000,7.000,0
1782117223.085082,10.927,7.000,7.000,0
1782117223.098109,10.940,7.000,7.000,0
1782117223.119698,10.962,7.000,7.000,0
1782117223.119698,10.962,7.000,7.000,0
1782117223.133140,10.975,7.000,7.000,0
1782117223.139301,10.981,7.000,7.000,0
1782117223.147387,10.989,7.000,7.000,0
1782117223.159387,11.001,7.000,7.000,0
1782117223.165588,11.008,7.000,7.000,0
1782117223.176828,11.019,7.000,7.000,0
1782117223.185876,11.028,7.000,7.000,0
1782117223.195623,11.038,7.000,7.000,0
1782117223.206862,11.049,7.000,7.000,0
1782117223.237073,11.079,7.000,7.000,0
1782117223.237073,11.079,7.000,7.000,0
1782117223.238079,11.080,7.000,7.000,0
1782117223.248623,11.091,7.000,7.000,0
1782117223.257142,11.099,7.000,7.000,0
1782117223.270212,11.112,7.000,7.000,0
1782117223.280877,11.123,7.000,7.000,0
1782117223.286585,11.129,7.000,7.000,0
1782117223.297730,11.140,7.000,7.000,0
1782117223.305516,11.147,7.000,7.000,0
1782117223.320657,11.163,7.000,7.000,0
1782117223.325785,11.168,7.000,7.000,0
1782117223.346865,11.189,7.000,7.000,0
1782117223.347879,11.190,7.000,7.000,0
1782117223.363407,11.205,7.000,7.000,0
1782117223.368168,11.210,7.000,7.000,0
1782117223.377569,11.220,7.000,7.000,0
1782117223.386506,11.228,7.000,7.000,0
1782117223.396982,11.239,7.000,7.000,0
1782117223.410488,11.252,7.000,7.000,0
1782117223.422991,11.265,7.000,7.000,0
1782117223.425613,11.268,7.000,7.000,0
1782117223.438893,11.281,7.000,7.000,0
1782117223.449306,11.291,7.000,7.000,0
1782117223.458434,11.300,7.000,7.000,0
1782117223.468027,11.310,7.000,7.000,0
1782117223.475810,11.318,7.000,7.000,0
1782117223.488677,11.331,7.000,7.000,0
1782117223.496915,11.339,7.000,7.000,0
1782117223.507724,11.350,7.000,7.000,0
1782117223.514320,11.356,7.000,7.000,0
1782117223.525762,11.368,7.000,7.000,0
1782117223.535565,11.378,7.000,7.000,0
1782117223.547836,11.390,7.000,7.000,0
1782117223.555880,11.398,7.000,7.000,0
1782117223.565709,11.408,7.000,7.000,0
1782117223.577731,11.420,7.000,7.000,0
1782117223.585897,11.428,7.000,7.000,0
1782117223.595101,11.437,7.000,7.000,0
1782117223.605114,11.447,7.000,7.000,0
1782117223.617399,11.459,7.000,7.000,0
1782117223.628039,11.470,7.000,7.000,0
1782117223.634696,11.477,7.000,7.000,0
1782117223.648601,11.491,7.000,7.000,0
1782117223.657768,11.500,7.000,7.000,0
1782117223.665299,11.507,7.000,7.000,0
1782117223.679174,11.521,7.000,7.000,0
1782117223.685903,11.528,7.000,7.000,0
1782117223.696845,11.539,7.000,7.000,0
1782117223.706661,11.549,7.000,7.000,0
1782117223.789438,11.631,7.000,7.000,0
1782117223.817367,11.659,7.000,7.000,0
1782117223.818366,11.660,7.000,7.000,0
1782117223.818878,11.661,7.000,7.000,0
1782117223.818878,11.661,7.000,7.000,0
1782117223.818878,11.661,7.000,7.000,0
1782117223.820162,11.662,7.000,7.000,0
1782117223.820162,11.662,7.000,7.000,0
1782117223.820162,11.662,7.000,7.000,0
1782117223.821181,11.663,7.000,7.000,0
1782117223.821181,11.663,7.000,7.000,0
1782117223.832816,11.675,7.000,7.000,0
1782117223.834871,11.677,7.000,7.000,0
1782117223.866641,11.709,7.000,7.000,0
1782117223.867646,11.710,7.000,7.000,0
1782117223.869103,11.711,7.000,7.000,0
1782117223.876671,11.719,7.000,7.000,0
1782117223.888875,11.731,7.000,7.000,0
1782117223.895433,11.737,7.000,7.000,0
1782117223.906940,11.749,7.000,7.000,0
1782117223.915488,11.757,7.000,7.000,0
1782117223.935190,11.777,7.000,7.000,0
1782117223.937185,11.779,7.000,7.000,0
1782117223.945775,11.788,7.000,7.000,0
1782117223.957420,11.799,7.000,7.000,0
1782117223.967174,11.809,7.000,7.000,0
1782117223.975455,11.817,7.000,7.000,0
1782117223.986680,11.829,7.000,7.000,0
1782117223.995570,11.838,7.000,7.000,0
1782117224.009369,11.851,7.000,7.000,0
1782117224.017987,11.860,7.000,7.000,0
1782117224.040156,11.882,7.000,7.000,0
1782117224.041157,11.883,7.000,7.000,0
1782117224.045187,11.887,7.000,7.000,0
1782117224.057813,11.900,7.000,7.000,0
1782117224.067444,11.909,7.000,7.000,0
1782117224.074889,11.917,7.000,7.000,0
1782117224.086713,11.929,7.000,7.000,0
1782117224.096228,11.938,7.000,7.000,0
1782117224.106268,11.948,7.000,7.000,0
1782117224.115461,11.957,7.000,7.000,0
1782117224.127280,11.969,7.000,7.000,0
1782117224.138525,11.980,7.000,7.000,0
1782117224.146049,11.988,7.000,7.000,0
1782117224.156274,11.998,7.000,7.000,0
1782117224.171172,12.013,7.000,7.000,0
1782117224.175311,12.017,7.000,7.000,0
1782117224.187360,12.029,7.000,7.000,0
1782117224.197386,12.039,7.000,7.000,0
1782117224.204919,12.047,7.000,7.000,0
1782117224.215858,12.058,7.000,7.000,0
1782117224.228101,12.070,7.000,7.000,0
1782117224.238607,12.081,7.000,7.000,0
1782117224.245506,12.087,7.000,7.000,0
1782117224.255930,12.098,7.000,7.000,0
1782117224.264915,12.107,7.000,7.000,0
1782117224.274463,12.116,7.000,7.000,0
1782117224.286961,12.129,7.000,7.000,0
1782117224.296017,12.138,7.000,7.000,0
1782117224.305181,12.147,7.000,7.000,0
1782117224.316980,12.159,7.000,7.000,0
1782117224.326061,12.168,7.000,7.000,0
1782117224.340586,12.183,7.000,7.000,0
1782117224.347135,12.189,7.000,7.000,0
1782117224.355654,12.198,7.000,7.000,0
1782117224.366728,12.209,7.000,7.000,0
1782117224.375407,12.217,7.000,7.000,0
1782117224.394499,12.236,7.000,7.000,0
1782117224.395507,12.237,7.000,7.000,0
1782117224.405753,12.248,7.000,7.000,0
1782117224.415954,12.258,7.000,7.000,0
1782117224.425488,12.267,7.000,7.000,0
1782117224.436530,12.278,7.000,7.000,0
1782117224.447586,12.290,7.000,7.000,0
1782117224.455125,12.297,7.000,7.000,0
1782117224.470190,12.312,7.000,7.000,0
1782117224.478323,12.320,7.000,7.000,0
1782117224.485350,12.327,7.000,7.000,0
1782117224.495776,12.338,7.000,7.000,0
1782117224.508640,12.351,7.000,7.000,0
1782117224.515631,12.358,7.000,7.000,0
1782117224.526448,12.368,7.000,7.000,0
1782117224.539422,12.381,7.000,7.000,0
1782117224.551039,12.393,7.000,7.000,0
1782117224.555763,12.398,7.000,7.000,0
1782117224.570677,12.413,7.000,7.000,0
1782117224.580929,12.423,7.000,7.000,0
1782117224.586075,12.428,7.000,7.000,0
1782117224.596248,12.438,7.000,7.000,0
1782117224.613272,12.455,7.000,7.000,0
1782117224.617271,12.459,7.000,7.000,0
1782117224.626765,12.469,7.000,7.000,0
1782117224.637747,12.480,7.000,7.000,0
1782117224.651262,12.493,7.000,7.000,0
1782117224.655615,12.498,7.000,7.000,0
1782117224.665611,12.508,7.000,7.000,0
1782117224.680611,12.523,7.000,7.000,0
1782117224.686106,12.528,7.000,7.000,0
1782117224.698865,12.541,7.000,7.000,0
1782117224.706726,12.549,7.000,7.000,0
1782117224.716397,12.558,7.000,7.000,0
1782117224.724608,12.567,7.000,7.000,0
1782117224.738538,12.581,7.000,7.000,0
1782117224.747527,12.589,7.000,7.000,0
1782117224.756528,12.598,7.000,7.000,0
1782117224.766107,12.608,7.000,7.000,0
1782117224.779525,12.621,7.000,7.000,0
1782117224.788520,12.630,7.000,7.000,0
1782117224.798515,12.640,7.000,7.000,0
1782117224.809519,12.651,7.000,7.000,0
1782117224.817515,12.659,7.000,7.000,0
1782117224.826518,12.668,7.000,7.000,0
1782117224.839526,12.681,7.000,7.000,0
1782117224.846551,12.689,7.000,7.000,0
1782117224.859355,12.701,7.000,7.000,0
1782117224.864576,12.707,7.000,7.000,0
1782117224.877568,12.720,7.000,7.000,0
1782117224.890569,12.733,7.000,7.000,0
1782117224.895572,12.738,7.000,7.000,0
1782117224.918223,12.760,7.000,7.000,0
1782117224.919228,12.761,7.000,7.000,0
1782117224.932780,12.775,7.000,7.000,0
1782117224.941170,12.783,7.000,7.000,0
1782117224.948538,12.791,7.000,7.000,0
1782117224.961564,12.804,7.000,7.000,0
1782117224.966635,12.809,7.000,7.000,0
1782117224.979198,12.821,7.000,7.000,0
1782117224.991202,12.833,7.000,7.000,0
1782117224.995894,12.838,7.000,7.000,0
1782117225.006842,12.849,7.000,7.000,0
1782117225.015886,12.858,7.000,7.000,0
1782117225.031249,12.873,7.000,7.000,0
1782117225.037673,12.880,7.000,7.000,0
1782117225.048178,12.890,7.000,7.000,0
1782117225.059014,12.901,7.000,7.000,0
1782117225.064755,12.907,7.000,7.000,0
1782117225.076151,12.918,7.000,7.000,0
1782117225.091170,12.933,7.000,7.000,0
1782117225.097171,12.939,7.000,7.000,0
1782117225.107168,12.949,7.000,7.000,0
1782117225.116174,12.958,7.000,7.000,0
1782117225.135044,12.977,7.000,7.000,0
1782117225.135044,12.977,7.000,7.000,0
1782117225.147476,12.989,7.000,7.000,0
1782117225.164176,13.006,7.000,7.000,0
1782117225.167177,13.009,7.000,7.000,0
1782117225.177180,13.019,7.000,7.000,0
1782117225.187443,13.029,7.000,7.000,0
1782117225.199598,13.042,7.000,7.000,0
1782117225.209067,13.051,7.000,7.000,0
1782117225.218063,13.060,7.000,7.000,0
1782117225.234082,13.076,7.000,7.000,0
1782117225.247088,13.089,7.000,7.000,0
1782117225.248077,13.090,7.000,7.000,0
1782117225.274115,13.116,7.000,7.000,0
1782117225.274115,13.116,7.000,7.000,0
1782117225.278850,13.121,7.000,7.000,0
1782117225.291394,13.133,7.000,7.000,0
1782117225.300134,13.142,7.000,7.000,0
1782117225.308649,13.151,7.000,7.000,0
1782117225.316395,13.158,7.000,7.000,0
1782117225.327920,13.170,7.000,7.000,0
1782117225.336328,13.178,7.000,7.000,0
1782117225.346207,13.188,7.000,7.000,0
1782117225.371871,13.214,7.000,7.000,0
1782117225.371871,13.214,7.000,7.000,0
1782117225.380651,13.223,7.000,7.000,0
1782117225.386406,13.228,7.000,7.000,0
1782117225.396962,13.239,7.000,7.000,0
1782117225.405716,13.248,7.000,7.000,0
1782117225.417861,13.260,7.000,7.000,0
1782117225.425701,13.268,7.000,7.000,0
1782117225.435106,13.277,7.000,7.000,0
1782117225.452361,13.294,7.000,7.000,0
1782117225.457502,13.299,7.000,7.000,0
1782117225.470742,13.313,7.000,7.000,0
1782117225.477488,13.319,7.000,7.000,0
1782117225.488981,13.331,7.000,7.000,0
1782117225.495759,13.338,7.000,7.000,0
1782117225.506001,13.348,7.000,7.000,0
1782117225.518832,13.361,7.000,7.000,0
1782117225.527115,13.369,7.000,7.000,0
1782117225.535752,13.378,7.000,7.000,0
1782117225.546069,13.388,7.000,7.000,0
1782117225.559447,13.401,7.000,7.000,0
1782117225.572676,13.415,7.000,7.000,0
1782117225.575627,13.418,7.000,7.000,0
1782117225.586400,13.428,7.000,7.000,0
1782117225.595119,13.437,7.000,7.000,0
1782117225.607001,13.449,7.000,7.000,0
1782117225.614890,13.457,7.000,7.000,0
1782117225.625712,13.468,7.000,7.000,0
1782117225.641825,13.484,7.000,7.000,0
1782117225.645748,13.488,7.000,7.000,0
1782117225.661777,13.504,7.000,7.000,0
1782117225.674564,13.517,7.000,7.000,0
1782117225.675194,13.517,7.000,7.000,0
1782117225.690973,13.533,7.000,7.000,0
1782117225.697530,13.539,7.000,7.000,0
1782117225.706771,13.549,7.000,7.000,0
1782117225.716804,13.559,7.000,7.000,0
1782117225.726759,13.569,7.000,7.000,0
1782117225.736729,13.579,7.000,7.000,0
1782117225.745731,13.588,7.000,7.000,0
1782117225.756740,13.599,7.000,7.000,0
1782117225.766954,13.609,7.000,7.000,0
1782117225.779011,13.621,7.000,7.000,0
1782117225.786269,13.628,7.000,7.000,0
1782117225.798708,13.641,7.000,7.000,0
1782117225.808795,13.651,7.000,7.000,0
1782117225.817929,13.660,7.000,7.000,0
1782117225.827144,13.669,7.000,7.000,0
1782117225.835871,13.678,7.000,7.000,0
1782117225.845850,13.688,7.000,7.000,0
1782117225.855961,13.698,7.000,7.000,0
1782117225.868246,13.710,7.000,7.000,0
1782117225.877627,13.720,7.000,7.000,0
1782117225.886459,13.728,7.000,7.000,0
1782117225.897103,13.739,7.000,7.000,0
1782117225.904858,13.747,7.000,7.000,0
1782117225.916384,13.758,7.000,7.000,0
1782117225.925930,13.768,7.000,7.000,0
1782117225.937402,13.779,7.000,7.000,0
1782117225.950939,13.793,7.000,7.000,0
1782117225.956763,13.799,7.000,7.000,0
1782117225.965107,13.807,7.000,7.000,0
1782117225.980766,13.823,7.000,7.000,0
1782117225.985509,13.827,7.000,7.000,0
1782117225.997044,13.839,7.000,7.000,0
1782117226.004799,13.847,7.000,7.000,0
1782117226.018938,13.861,7.000,7.000,0
1782117226.024811,13.867,7.000,7.000,0
1782117226.040401,13.882,7.000,7.000,0
1782117226.045123,13.887,7.000,7.000,0
1782117226.055632,13.898,7.000,7.000,0
1782117226.066142,13.908,7.000,7.000,0
1782117226.086481,13.928,7.000,7.000,0
1782117226.088106,13.930,7.000,7.000,0
1782117226.095210,13.937,7.000,7.000,0
1782117226.107507,13.949,7.000,7.000,0
1782117226.116258,13.958,7.000,7.000,0
1782117226.125828,13.968,7.000,7.000,0
1782117226.136168,13.978,7.000,7.000,0
1782117226.147721,13.990,7.000,7.000,0
1782117226.155587,13.998,7.000,7.000,0
1782117226.167052,14.009,7.000,7.000,0
1782117226.176333,14.018,7.000,7.000,0
1782117226.188326,14.030,7.000,7.000,0
1782117226.197854,14.040,7.000,7.000,0
1782117226.205252,14.047,7.000,7.000,0
1782117226.217873,14.060,7.000,7.000,0
1782117226.225753,14.068,7.000,7.000,0
1782117226.235159,14.077,7.000,7.000,0
1782117226.244187,14.086,7.000,7.000,0
1782117226.255169,14.097,7.000,7.000,0
1782117226.264754,14.107,7.000,7.000,0
1782117226.276175,14.118,7.000,7.000,0
1782117226.289079,14.131,7.000,7.000,0
1782117226.295536,14.138,7.000,7.000,0
1782117226.307722,14.150,7.000,7.000,0
1782117226.321559,14.164,7.000,7.000,0
1782117226.324658,14.167,7.000,7.000,0
1782117226.334412,14.176,7.000,7.000,0
1782117226.345500,14.187,7.000,7.000,0
1782117226.355532,14.198,7.000,7.000,0
1782117226.369515,14.211,7.000,7.000,0
1782117226.377516,14.219,7.000,7.000,0
1782117226.396075,14.238,7.000,7.000,0
1782117226.397075,14.239,7.000,7.000,0
1782117226.416137,14.258,7.000,7.000,0
1782117226.416137,14.258,7.000,7.000,0
1782117226.425753,14.268,7.000,7.000,0
1782117226.436780,14.279,7.000,7.000,0
1782117226.446598,14.289,7.000,7.000,0
1782117226.455918,14.298,7.000,7.000,0
1782117226.465937,14.308,7.000,7.000,0
1782117226.476963,14.319,7.000,7.000,0
1782117226.487901,14.330,7.000,7.000,0
1782117226.495611,14.338,7.000,7.000,0
1782117226.509145,14.351,7.000,7.000,0
1782117226.518280,14.360,7.000,7.000,0
1782117226.528297,14.370,7.000,7.000,0
1782117226.537312,14.379,7.000,7.000,0
1782117226.548433,14.390,7.000,7.000,0
1782117226.556468,14.398,7.000,7.000,0
1782117226.566505,14.408,7.000,7.000,0
1782117226.578663,14.421,7.000,7.000,0
1782117226.586193,14.428,7.000,7.000,0
1782117226.595340,14.437,7.000,7.000,0
1782117226.605360,14.447,7.000,7.000,0
1782117226.619298,14.461,7.000,7.000,0
1782117226.629739,14.472,7.000,7.000,0
1782117226.639250,14.481,7.000,7.000,0
1782117226.646068,14.488,7.000,7.000,0
1782117226.656086,14.498,7.000,7.000,0
1782117226.667811,14.510,7.000,7.000,0
1782117226.676334,14.518,7.000,7.000,0
1782117226.686883,14.529,7.000,7.000,0
1782117226.698900,14.541,7.000,7.000,0
1782117226.707927,14.550,7.000,7.000,0
1782117226.716454,14.558,7.000,7.000,0
1782117226.727480,14.569,7.000,7.000,0
1782117226.739782,14.582,7.000,7.000,0
1782117226.783342,14.625,7.000,7.000,0
1782117226.783342,14.625,7.000,7.000,0
1782117226.783342,14.625,7.000,7.000,0
1782117226.784343,14.626,7.000,7.000,0
1782117226.789852,14.632,7.000,7.000,0
1782117226.828144,14.670,7.000,7.000,0
1782117226.828144,14.670,7.000,7.000,0
1782117226.831524,14.673,7.000,7.000,0
1782117226.831524,14.673,7.000,7.000,0
1782117226.835552,14.678,7.000,7.000,0
1782117226.845905,14.688,7.000,7.000,0
1782117226.856319,14.698,7.000,7.000,0
1782117226.865585,14.708,7.000,7.000,0
1782117226.875114,14.717,7.000,7.000,0
1782117226.886251,14.728,7.000,7.000,0
1782117226.898033,14.740,7.000,7.000,0
1782117226.905705,14.748,7.000,7.000,0
1782117226.915074,14.757,7.000,7.000,0
1782117226.929345,14.771,7.000,7.000,0
1782117226.937968,14.780,7.000,7.000,0
1782117226.953292,14.795,7.000,7.000,0
1782117226.955327,14.797,7.000,7.000,0
1782117226.967450,14.809,7.000,7.000,0
1782117226.975132,14.817,7.000,7.000,0
1782117226.984886,14.827,7.000,7.000,0
1782117226.996254,14.838,7.000,7.000,0
1782117227.016193,14.858,7.000,7.000,0
1782117227.016193,14.858,7.000,7.000,0
1782117227.027865,14.870,7.000,7.000,0
1782117227.036741,14.879,7.000,7.000,0
1782117227.046795,14.889,7.000,7.000,0
1782117227.056816,14.899,7.000,7.000,0
1782117227.066626,14.909,7.000,7.000,0
1782117227.076619,14.919,7.000,7.000,0
1782117227.088549,14.931,7.000,7.000,0
1782117227.096594,14.939,7.000,7.000,0
1782117227.110116,14.952,7.000,7.000,0
1782117227.114121,14.956,7.000,7.000,0
1782117227.125155,14.967,7.000,7.000,0
1782117227.139262,14.981,7.000,7.000,0
1782117227.145777,14.988,7.000,7.000,0
1782117227.155807,14.998,7.000,7.000,0
1782117227.166736,15.009,7.000,7.000,0
1782117227.175912,15.018,7.000,7.000,0
1782117227.187550,15.030,7.000,7.000,0
1782117227.195577,15.038,7.000,7.000,0
1782117227.212116,15.054,7.000,7.000,0
1782117227.216766,15.059,7.000,7.000,0
1782117227.226073,15.068,7.000,7.000,0
1782117227.235826,15.078,7.000,7.000,0
1782117227.245903,15.088,7.000,7.000,0
1782117227.256302,15.098,7.000,7.000,0
1782117227.265818,15.108,7.000,7.000,0
1782117227.276841,15.119,7.000,7.000,0
1782117227.284867,15.127,7.000,7.000,0
1782117227.295757,15.138,7.000,7.000,0
1782117227.312809,15.155,7.000,7.000,0
1782117227.315322,15.157,7.000,7.000,0
1782117227.326421,15.168,7.000,7.000,0
1782117227.339440,15.181,7.000,7.000,0
1782117227.346460,15.188,7.000,7.000,0
1782117227.355715,15.198,7.000,7.000,0
1782117227.365710,15.208,7.000,7.000,0
1782117227.375713,15.218,7.000,7.000,0
1782117227.387270,15.229,7.000,7.000,0
1782117227.396402,15.238,7.000,7.000,0
1782117227.405027,15.247,7.000,7.000,0
1782117227.414985,15.257,7.000,7.000,0
1782117227.424783,15.267,7.000,7.000,0
1782117227.436954,15.279,7.000,7.000,0
1782117227.450339,15.292,7.000,7.000,0
1782117227.456289,15.298,7.000,7.000,0
1782117227.468328,15.310,7.000,7.000,0
1782117227.479348,15.321,7.000,7.000,0
1782117227.485863,15.328,7.000,7.000,0
1782117227.496541,15.339,7.000,7.000,0
1782117227.506068,15.348,7.000,7.000,0
1782117227.519350,15.361,7.000,7.000,0
1782117227.526210,15.368,7.000,7.000,0
1782117227.535911,15.378,7.000,7.000,0
1782117227.548942,15.391,7.000,7.000,0
1782117227.556454,15.398,7.000,7.000,0
1782117227.565484,15.407,7.000,7.000,0
1782117227.575354,15.417,7.000,7.000,0
1782117227.589376,15.431,7.000,7.000,0
1782117227.595888,15.438,7.000,7.000,0
1782117227.606163,15.448,7.000,7.000,0
1782117227.619545,15.462,7.000,7.000,0
1782117227.625546,15.468,7.000,7.000,0
1782117227.635545,15.478,7.000,7.000,0
1782117227.644548,15.487,7.000,7.000,0
1782117227.656544,15.499,7.000,7.000,0
1782117227.665543,15.508,7.000,7.000,0
1782117227.675545,15.518,7.000,7.000,0
1782117227.686574,15.529,7.000,7.000,0
1782117227.695544,15.538,7.000,7.000,0
1782117227.706811,15.549,7.000,7.000,0
1782117227.720812,15.563,7.000,7.000,0
1782117227.725811,15.568,7.000,7.000,0
1782117227.737170,15.579,7.000,7.000,0
1782117227.758051,15.600,7.000,7.000,0
1782117227.758051,15.600,7.000,7.000,0
1782117227.774346,15.616,7.000,7.000,0
