Unix_Time_s,IMU1_RefTime,ax_g,ay_g,az_g,gx_dps,gy_dps,gz_dps,mx_uT,my_uT,mz_uT,temp_C,qw,qx,qy,qz
1782117388.241718,1887669,0.919922,-0.014160,-0.393555,-0.487805,-0.365854,-0.304878,16.493750,-36.168751,2.706250,0.0,1.000000,0.000000,0.000000,0.000000
1782117388.251718,1887679,0.919434,-0.015137,-0.392090,-0.487805,-0.365854,-0.304878,16.456251,-36.312500,2.818750,0.0,1.000000,0.000000,0.000000,0.000000
1782117388.261718,1887689,0.920898,-0.015137,-0.393555,-0.365854,-0.365854,-0.365854,16.456251,-36.312500,2.818750,0.0,1.000000,0.000000,0.000000,0.000000
1782117388.271718,1887699,0.919922,-0.015137,-0.393555,-0.304878,-0.304878,-0.365854,16.537500,-36.031250,2.662500,0.0,1.000000,0.000000,0.000000,0.000000
1782117388.281718,1887709,0.919922,-0.016602,-0.393555,-0.182927,-0.365854,-0.365854,16.537500,-36.031250,2.662500,0.0,1.000000,0.000000,0.000000,0.000000
1782117388.291718,1887719,0.920410,-0.017090,-0.393066,-0.121951,-0.426829,-0.304878,16.443750,-36.256252,2.737500,0.0,1.000000,0.000000,0.000000,0.000000
1782117388.301718,1887729,0.920410,-0.016602,-0.392578,-0.060976,-0.304878,-0.243902,16.443750,-36.256252,2.737500,0.0,1.000000,0.000000,0.000000,0.000000
1782117388.311718,1887739,0.917480,-0.014160,-0.391602,-0.182927,-0.365854,-0.243902,16.468750,-36.231251,2.750000,0.0,1.000000,0.000000,0.000000,0.000000
1782117388.321718,1887749,0.918457,-0.013184,-0.392090,-0.365854,-0.365854,-0.243902,16.468750,-36.231251,2.750000,0.0,1.000000,0.000000,0.000000,0.000000
1782117388.331718,1887759,0.919434,-0.012207,-0.391602,-0.426829,-0.426829,-0.243902,16.475000,-36.287502,2.787500,0.0,1.000000,0.000000,0.000000,0.000000
1782117388.341718,1887769,0.919434,-0.011719,-0.392090,-0.426829,-0.426829,-0.304878,16.475000,-36.287502,2.787500,0.0,1.000000,0.000000,0.000000,0.000000
1782117388.351718,1887779,0.919922,-0.012207,-0.393555,-0.426829,-0.304878,-0.243902,16.468750,-36.343750,2.762500,0.0,1.000000,0.000000,0.000000,0.000000
1782117388.361718,1887789,0.919922,-0.012695,-0.394531,-0.365854,-0.365854,-0.304878,16.468750,-36.343750,2.762500,0.0,1.000000,0.000000,0.000000,0.000000
1782117388.372718,1887800,0.919922,-0.012207,-0.395020,-0.304878,-0.304878,-0.304878,16.400000,-36.281250,2.731250,0.0,1.000000,0.000000,0.000000,0.000000
1782117388.381718,1887809,0.919922,-0.014160,-0.393555,-0.304878,-0.304878,-0.243902,16.400000,-36.281250,2.731250,0.0,1.000000,0.000000,0.000000,0.000000
1782117388.392718,1887820,0.918457,-0.014160,-0.393555,-0.365854,-0.304878,-0.243902,16.456251,-36.237499,2.743750,0.0,1.000000,0.000000,0.000000,0.000000
1782117388.402718,1887830,0.918457,-0.014648,-0.394043,-0.426829,-0.304878,-0.243902,16.456251,-36.237499,2.743750,0.0,1.000000,0.000000,0.000000,0.000000
1782117388.411718,1887839,0.919922,-0.015137,-0.394043,-0.426829,-0.304878,-0.304878,16.412500,-36.306252,2.825000,0.0,1.000000,0.000000,0.000000,0.000000
1782117388.421718,1887849,0.919434,-0.015137,-0.393555,-0.365854,-0.304878,-0.304878,16.412500,-36.306252,2.825000,0.0,1.000000,0.000000,0.000000,0.000000
1782117388.431718,1887859,0.918945,-0.014160,-0.393555,-0.365854,-0.365854,-0.243902,16.425001,-36.256252,2.812500,0.0,1.000000,0.000000,0.000000,0.000000
1782117388.442718,1887870,0.918457,-0.013184,-0.394531,-0.426829,-0.487805,-0.243902,16.425001,-36.256252,2.812500,0.0,1.000000,0.000000,0.000000,0.000000
1782117388.451718,1887879,0.920410,-0.013184,-0.396484,-0.426829,-0.304878,-0.304878,16.425001,-36.306252,2.737500,0.0,1.000000,0.000000,0.000000,0.000000
1782117388.461718,1887889,0.916504,-0.013184,-0.395508,-0.365854,-0.243902,-0.243902,16.425001,-36.306252,2.737500,0.0,1.000000,0.000000,0.000000,0.000000
1782117388.471718,1887899,0.916992,-0.013672,-0.394531,-0.243902,-0.304878,-0.243902,16.462500,-36.250000,2.787500,0.0,1.000000,0.000000,0.000000,0.000000
1782117388.481718,1887909,0.917480,-0.013184,-0.395508,-0.182927,-0.365854,-0.304878,16.462500,-36.250000,2.787500,0.0,1.000000,0.000000,0.000000,0.000000
1782117388.491718,1887919,0.918457,-0.013184,-0.395508,-0.182927,-0.365854,-0.426829,16.456251,-36.281250,2.762500,0.0,1.000000,0.000000,0.000000,0.000000
1782117388.501718,1887929,0.920410,-0.014160,-0.395508,-0.060976,-0.365854,-0.487805,16.456251,-36.281250,2.762500,0.0,1.000000,0.000000,0.000000,0.000000
1782117388.511718,1887939,0.919922,-0.014160,-0.395508,0.000000,-0.304878,-0.487805,16.425001,-36.275002,2.743750,0.0,1.000000,0.000000,0.000000,0.000000
1782117388.521718,1887949,0.917480,-0.014160,-0.396484,0.000000,-0.365854,-0.487805,16.425001,-36.275002,2.743750,0.0,1.000000,0.000000,0.000000,0.000000
1782117388.531718,1887959,0.917969,-0.014648,-0.396973,0.121951,-0.426829,-0.426829,16.375000,-36.275002,2.743750,0.0,1.000000,0.000000,0.000000,0.000000
1782117388.541718,1887969,0.918457,-0.013184,-0.395996,0.243902,-0.365854,-0.487805,16.375000,-36.275002,2.743750,0.0,1.000000,0.000000,0.000000,0.000000
1782117388.551718,1887979,0.918945,-0.013672,-0.395508,0.182927,-0.365854,-0.426829,16.437500,-36.287502,2.756250,0.0,1.000000,0.000000,0.000000,0.000000
1782117388.561718,1887989,0.920410,-0.012695,-0.393555,0.121951,-0.426829,-0.426829,16.437500,-36.287502,2.756250,0.0,1.000000,0.000000,0.000000,0.000000
1782117388.571718,1887999,0.920410,-0.011230,-0.394043,0.182927,-0.304878,-0.426829,16.387501,-36.312500,2.787500,0.0,1.000000,0.000000,0.000000,0.000000
1782117388.581718,1888009,0.920410,-0.011719,-0.394043,0.182927,-0.243902,-0.487805,16.387501,-36.312500,2.787500,0.0,1.000000,0.000000,0.000000,0.000000
1782117388.592718,1888020,0.921387,-0.013184,-0.393066,0.182927,-0.243902,-0.548781,16.368750,-36.281250,2.762500,0.0,1.000000,0.000000,0.000000,0.000000
1782117388.601718,1888029,0.920898,-0.013672,-0.392090,0.121951,-0.243902,-0.487805,16.368750,-36.281250,2.762500,0.0,1.000000,0.000000,0.000000,0.000000
1782117388.612718,1888040,0.920898,-0.013672,-0.391113,0.121951,-0.121951,-0.487805,16.468750,-36.262501,2.756250,0.0,1.000000,0.000000,0.000000,0.000000
1782117388.622718,1888050,0.920898,-0.015137,-0.392578,0.182927,-0.060976,-0.426829,16.468750,-36.262501,2.756250,0.0,1.000000,0.000000,0.000000,0.000000
1782117388.632718,1888060,0.919922,-0.014160,-0.391602,0.182927,0.000000,-0.365854,16.387501,-36.275002,2.800000,0.0,1.000000,0.000000,0.000000,0.000000
1782117388.641718,1888069,0.920410,-0.013672,-0.392090,0.060976,-0.182927,-0.304878,16.387501,-36.275002,2.800000,0.0,1.000000,0.000000,0.000000,0.000000
1782117388.651718,1888079,0.919434,-0.013672,-0.392578,-0.121951,-0.182927,-0.182927,16.412500,-36.293751,2.750000,0.0,1.000000,0.000000,0.000000,0.000000
1782117388.661718,1888089,0.918457,-0.013184,-0.395020,-0.121951,-0.304878,-0.243902,16.412500,-36.293751,2.750000,0.0,1.000000,0.000000,0.000000,0.000000
1782117388.672718,1888100,0.918945,-0.012207,-0.393066,-0.121951,-0.365854,-0.243902,16.412500,-36.331249,2.750000,0.0,1.000000,0.000000,0.000000,0.000000
1782117388.681718,1888109,0.919922,-0.012207,-0.393555,-0.182927,-0.304878,-0.243902,16.412500,-36.331249,2.750000,0.0,1.000000,0.000000,0.000000,0.000000
1782117388.691718,1888119,0.921875,-0.011230,-0.391113,-0.304878,-0.182927,-0.243902,16.500000,-36.262501,2.668750,0.0,1.000000,0.000000,0.000000,0.000000
1782117388.701718,1888129,0.920410,-0.010742,-0.391602,-0.487805,-0.060976,-0.243902,16.500000,-36.262501,2.668750,0.0,1.000000,0.000000,0.000000,0.000000
1782117388.711718,1888139,0.919434,-0.012207,-0.393555,-0.548781,0.000000,-0.243902,16.437500,-36.293751,2.793750,0.0,1.000000,0.000000,0.000000,0.000000
1782117388.721718,1888149,0.917969,-0.012207,-0.395508,-0.609756,-0.060976,-0.243902,16.437500,-36.293751,2.793750,0.0,1.000000,0.000000,0.000000,0.000000
1782117388.731718,1888159,0.917969,-0.014648,-0.396484,-0.365854,-0.060976,-0.243902,16.431250,-36.393749,2.793750,0.0,1.000000,0.000000,0.000000,0.000000
1782117388.741718,1888169,0.917969,-0.015137,-0.397949,-0.182927,-0.121951,-0.243902,16.431250,-36.393749,2.793750,0.0,1.000000,0.000000,0.000000,0.000000
1782117388.751718,1888179,0.916504,-0.014160,-0.398926,-0.121951,-0.182927,-0.243902,16.431250,-36.299999,2.756250,0.0,1.000000,0.000000,0.000000,0.000000
1782117388.762718,1888190,0.916992,-0.015625,-0.398926,-0.060976,-0.182927,-0.243902,16.431250,-36.299999,2.756250,0.0,1.000000,0.000000,0.000000,0.000000
1782117388.771718,1888199,0.916016,-0.013672,-0.398926,0.060976,-0.182927,-0.304878,16.375000,-36.312500,2.768750,0.0,1.000000,0.000000,0.000000,0.000000
1782117388.781718,1888209,0.916504,-0.012207,-0.398926,0.060976,-0.243902,-0.182927,16.375000,-36.312500,2.768750,0.0,1.000000,0.000000,0.000000,0.000000
1782117388.792718,1888220,0.916992,-0.010742,-0.396973,0.000000,-0.304878,-0.304878,16.431250,-36.331249,2.781250,0.0,1.000000,0.000000,0.000000,0.000000
1782117388.801718,1888229,0.918457,-0.011230,-0.396484,-0.060976,-0.304878,-0.365854,16.431250,-36.331249,2.781250,0.0,1.000000,0.000000,0.000000,0.000000
1782117388.812718,1888240,0.918945,-0.010742,-0.396484,0.000000,-0.182927,-0.365854,16.443750,-36.237499,2.700000,0.0,1.000000,0.000000,0.000000,0.000000
1782117388.822718,1888250,0.920898,-0.011230,-0.395020,0.060976,-0.182927,-0.365854,16.443750,-36.237499,2.700000,0.0,1.000000,0.000000,0.000000,0.000000
1782117388.832718,1888260,0.919922,-0.012695,-0.395020,0.060976,0.000000,-0.365854,16.400000,-36.343750,2.793750,0.0,1.000000,0.000000,0.000000,0.000000
1782117388.842718,1888270,0.918945,-0.012207,-0.395508,0.060976,-0.060976,-0.365854,16.400000,-36.343750,2.793750,0.0,1.000000,0.000000,0.000000,0.000000
1782117388.851718,1888279,0.921387,-0.012207,-0.394531,0.000000,0.000000,-0.304878,16.443750,-36.237499,2.712500,0.0,1.000000,0.000000,0.000000,0.000000
1782117388.861718,1888289,0.919922,-0.010742,-0.393555,-0.182927,0.121951,-0.182927,16.443750,-36.237499,2.712500,0.0,1.000000,0.000000,0.000000,0.000000
1782117388.871718,1888299,0.917969,-0.011719,-0.395508,-0.304878,0.000000,-0.121951,16.418751,-36.350002,2.756250,0.0,1.000000,0.000000,0.000000,0.000000
1782117388.881718,1888309,0.918945,-0.012207,-0.395020,-0.426829,-0.121951,-0.060976,16.418751,-36.350002,2.756250,0.0,1.000000,0.000000,0.000000,0.000000
1782117388.891718,1888319,0.919922,-0.012695,-0.394531,-0.487805,0.000000,-0.121951,16.425001,-36.225002,2.756250,0.0,1.000000,0.000000,0.000000,0.000000
1782117388.901718,1888329,0.918945,-0.013672,-0.394043,-0.487805,0.000000,-0.121951,16.425001,-36.225002,2.756250,0.0,1.000000,0.000000,0.000000,0.000000
1782117388.911718,1888339,0.920410,-0.014160,-0.394531,-0.365854,0.000000,-0.243902,16.375000,-36.362499,2.818750,0.0,1.000000,0.000000,0.000000,0.000000
1782117388.921718,1888349,0.919434,-0.015137,-0.394043,-0.304878,0.060976,-0.243902,16.375000,-36.362499,2.818750,0.0,1.000000,0.000000,0.000000,0.000000
1782117388.931718,1888359,0.919434,-0.015137,-0.394043,-0.121951,0.182927,-0.304878,16.412500,-36.299999,2.775000,0.0,1.000000,0.000000,0.000000,0.000000
1782117388.941718,1888369,0.919434,-0.015137,-0.392578,0.060976,0.121951,-0.304878,16.412500,-36.299999,2.775000,0.0,1.000000,0.000000,0.000000,0.000000
1782117388.952718,1888380,0.920410,-0.015137,-0.391602,0.304878,0.182927,-0.304878,16.381250,-36.318752,2.793750,0.0,1.000000,0.000000,0.000000,0.000000
1782117388.962718,1888390,0.920410,-0.015137,-0.391602,0.304878,0.182927,-0.304878,16.381250,-36.318752,2.793750,0.0,1.000000,0.000000,0.000000,0.000000
1782117388.971718,1888399,0.918945,-0.013184,-0.392578,0.365854,0.182927,-0.304878,16.493750,-36.281250,2.687500,0.0,1.000000,0.000000,0.000000,0.000000
1782117388.981718,1888409,0.919434,-0.013184,-0.391602,0.182927,0.121951,-0.304878,16.493750,-36.281250,2.687500,0.0,1.000000,0.000000,0.000000,0.000000
1782117388.993718,1888421,0.919434,-0.011230,-0.392578,-0.182927,0.000000,-0.365854,16.425001,-36.337502,2.850000,0.0,1.000000,0.000000,0.000000,0.000000
1782117389.001718,1888429,0.919434,-0.011230,-0.392578,-0.182927,0.000000,-0.365854,16.425001,-36.337502,2.850000,0.0,1.000000,0.000000,0.000000,0.000000
1782117389.011718,1888439,0.919434,-0.013184,-0.391602,-0.243902,-0.060976,-0.304878,16.418751,-36.262501,2.725000,0.0,1.000000,0.000000,0.000000,0.000000
1782117389.021718,1888449,0.920410,-0.015137,-0.391602,-0.243902,0.000000,-0.304878,16.418751,-36.262501,2.725000,0.0,1.000000,0.000000,0.000000,0.000000
1782117389.032718,1888460,0.921875,-0.015625,-0.391113,-0.121951,0.121951,-0.182927,16.393751,-36.325001,2.768750,0.0,1.000000,0.000000,0.000000,0.000000
1782117389.042718,1888470,0.919434,-0.014160,-0.390625,-0.121951,0.121951,-0.121951,16.393751,-36.325001,2.768750,0.0,1.000000,0.000000,0.000000,0.000000
1782117389.051718,1888479,0.919922,-0.011719,-0.390137,-0.243902,0.060976,-0.243902,16.462500,-36.318752,2.812500,0.0,1.000000,0.000000,0.000000,0.000000
1782117389.062718,1888490,0.919922,-0.012207,-0.390137,-0.365854,0.000000,-0.243902,16.462500,-36.318752,2.812500,0.0,1.000000,0.000000,0.000000,0.000000
1782117389.073718,1888501,0.922363,-0.013184,-0.391113,-0.243902,0.060976,-0.243902,16.406250,-36.343750,2.812500,0.0,1.000000,0.000000,0.000000,0.000000
1782117389.081718,1888509,0.920410,-0.015625,-0.390137,-0.182927,0.060976,-0.304878,16.406250,-36.343750,2.812500,0.0,1.000000,0.000000,0.000000,0.000000
1782117389.091718,1888519,0.921387,-0.014648,-0.391113,-0.121951,-0.060976,-0.365854,16.437500,-36.250000,2.800000,0.0,1.000000,0.000000,0.000000,0.000000
1782117389.101718,1888529,0.921875,-0.015137,-0.391602,0.121951,0.000000,-0.426829,16.437500,-36.250000,2.800000,0.0,1.000000,0.000000,0.000000,0.000000
1782117389.112718,1888540,0.921387,-0.015137,-0.392090,0.121951,-0.060976,-0.487805,16.412500,-36.356251,2.856250,0.0,1.000000,0.000000,0.000000,0.000000
1782117389.121718,1888549,0.920898,-0.016113,-0.391602,0.060976,-0.121951,-0.365854,16.412500,-36.356251,2.856250,0.0,1.000000,0.000000,0.000000,0.000000
1782117389.131718,1888559,0.918945,-0.015137,-0.392090,-0.060976,-0.121951,-0.243902,16.506250,-36.112499,2.725000,0.0,1.000000,0.000000,0.000000,0.000000
1782117389.141718,1888569,0.917969,-0.013184,-0.389648,-0.243902,-0.182927,-0.243902,16.506250,-36.112499,2.725000,0.0,1.000000,0.000000,0.000000,0.000000
1782117389.154718,1888582,0.918457,-0.013672,-0.391113,-0.426829,-0.243902,-0.121951,16.406250,-36.406250,2.825000,0.0,1.000000,0.000000,0.000000,0.000000
1782117389.161718,1888589,0.918945,-0.010742,-0.390625,-0.426829,-0.304878,-0.060976,16.406250,-36.406250,2.825000,0.0,1.000000,0.000000,0.000000,0.000000
1782117389.171718,1888599,0.918945,-0.009766,-0.391602,-0.426829,-0.426829,-0.121951,16.462500,-36.325001,2.756250,0.0,1.000000,0.000000,0.000000,0.000000
1782117389.181718,1888609,0.919922,-0.010742,-0.392090,-0.426829,-0.487805,-0.243902,16.462500,-36.325001,2.756250,0.0,1.000000,0.000000,0.000000,0.000000
1782117389.193718,1888621,0.919922,-0.011230,-0.392578,-0.487805,-0.487805,-0.243902,16.406250,-36.331249,2.825000,0.0,1.000000,0.000000,0.000000,0.000000
1782117389.202718,1888630,0.917480,-0.012695,-0.393555,-0.548781,-0.548781,-0.182927,16.456251,-36.262501,2.787500,0.0,1.000000,0.000000,0.000000,0.000000
1782117389.212718,1888640,0.917480,-0.016602,-0.392090,-0.548781,-0.609756,-0.121951,16.456251,-36.262501,2.787500,0.0,1.000000,0.000000,0.000000,0.000000
1782117389.222718,1888650,0.917969,-0.017090,-0.392090,-0.365854,-0.670732,-0.182927,16.456251,-36.262501,2.787500,0.0,1.000000,0.000000,0.000000,0.000000
1782117389.233718,1888661,0.918457,-0.018066,-0.392578,-0.304878,-0.670732,-0.243902,16.418751,-36.343750,2.837500,0.0,1.000000,0.000000,0.000000,0.000000
1782117389.242718,1888670,0.919434,-0.017090,-0.394043,-0.243902,-0.792683,-0.304878,16.418751,-36.343750,2.837500,0.0,1.000000,0.000000,0.000000,0.000000
1782117389.251718,1888679,0.919434,-0.017090,-0.394531,-0.060976,-0.853659,-0.365854,16.393751,-36.318752,2.825000,0.0,1.000000,0.000000,0.000000,0.000000
1782117389.261718,1888689,0.920410,-0.014648,-0.392090,-0.060976,-0.914634,-0.304878,16.393751,-36.318752,2.825000,0.0,1.000000,0.000000,0.000000,0.000000
1782117389.273718,1888701,0.920898,-0.014648,-0.390137,-0.182927,-0.914634,-0.365854,16.518751,-36.187500,2.725000,0.0,1.000000,0.000000,0.000000,0.000000
1782117389.281718,1888709,0.920898,-0.014648,-0.390137,-0.243902,-0.731707,-0.365854,16.518751,-36.187500,2.725000,0.0,1.000000,0.000000,0.000000,0.000000
1782117389.291718,1888719,0.918457,-0.013672,-0.389160,-0.304878,-0.670732,-0.365854,16.475000,-36.318752,2.718750,0.0,1.000000,0.000000,0.000000,0.000000
1782117389.301718,1888729,0.918457,-0.013184,-0.391602,-0.365854,-0.731707,-0.365854,16.475000,-36.318752,2.718750,0.0,1.000000,0.000000,0.000000,0.000000
1782117389.311718,1888739,0.918945,-0.015137,-0.392090,-0.426829,-0.792683,-0.243902,16.456251,-36.318752,2.737500,0.0,1.000000,0.000000,0.000000,0.000000
1782117389.321718,1888749,0.920898,-0.012695,-0.392090,-0.365854,-0.853659,-0.182927,16.456251,-36.318752,2.737500,0.0,1.000000,0.000000,0.000000,0.000000
1782117389.331718,1888759,0.920898,-0.012695,-0.392578,-0.487805,-0.853659,-0.182927,16.487501,-36.268749,2.781250,0.0,1.000000,0.000000,0.000000,0.000000
1782117389.341718,1888769,0.920410,-0.014160,-0.393555,-0.426829,-0.792683,-0.182927,16.487501,-36.268749,2.781250,0.0,1.000000,0.000000,0.000000,0.000000
1782117389.351718,1888779,0.919434,-0.014160,-0.391113,-0.487805,-0.792683,-0.182927,16.531250,-36.125000,2.637500,0.0,1.000000,0.000000,0.000000,0.000000
1782117389.361718,1888789,0.918457,-0.012695,-0.394531,-0.487805,-0.670732,-0.304878,16.443750,-36.299999,2.725000,0.0,1.000000,0.000000,0.000000,0.000000
1782117389.371718,1888799,0.918457,-0.013672,-0.395508,-0.487805,-0.731707,-0.304878,16.443750,-36.299999,2.725000,0.0,1.000000,0.000000,0.000000,0.000000
1782117389.381718,1888809,0.916992,-0.014160,-0.396484,-0.487805,-0.792683,-0.243902,16.425001,-36.350002,2.743750,0.0,1.000000,0.000000,0.000000,0.000000
1782117389.393718,1888821,0.916992,-0.016602,-0.396484,-0.487805,-0.853659,-0.304878,16.425001,-36.350002,2.743750,0.0,1.000000,0.000000,0.000000,0.000000
1782117389.402718,1888830,0.917969,-0.018066,-0.396973,-0.365854,-0.914634,-0.304878,16.418751,-36.312500,2.725000,0.0,1.000000,0.000000,0.000000,0.000000
1782117389.412718,1888840,0.919922,-0.017578,-0.394531,-0.304878,-0.975610,-0.304878,16.418751,-36.312500,2.725000,0.0,1.000000,0.000000,0.000000,0.000000
1782117389.421718,1888849,0.920410,-0.016602,-0.395020,-0.243902,-0.914634,-0.304878,16.412500,-36.312500,2.787500,0.0,1.000000,0.000000,0.000000,0.000000
1782117389.431718,1888859,0.920898,-0.016113,-0.395508,-0.182927,-0.792683,-0.243902,16.412500,-36.312500,2.787500,0.0,1.000000,0.000000,0.000000,0.000000
1782117389.441718,1888869,0.918945,-0.013672,-0.393555,-0.182927,-0.792683,-0.243902,16.443750,-36.275002,2.725000,0.0,1.000000,0.000000,0.000000,0.000000
1782117389.451718,1888879,0.920410,-0.011230,-0.393066,-0.182927,-0.792683,-0.243902,16.443750,-36.275002,2.725000,0.0,1.000000,0.000000,0.000000,0.000000
1782117389.461718,1888889,0.921387,-0.009766,-0.392578,-0.365854,-0.792683,-0.182927,16.418751,-36.306252,2.718750,0.0,1.000000,0.000000,0.000000,0.000000
1782117389.474718,1888902,0.919922,-0.012207,-0.390137,-0.548781,-0.670732,-0.182927,16.418751,-36.306252,2.718750,0.0,1.000000,0.000000,0.000000,0.000000
1782117389.482718,1888910,0.920410,-0.011719,-0.390625,-0.609756,-0.670732,-0.182927,16.512501,-36.243752,2.737500,0.0,1.000000,0.000000,0.000000,0.000000
1782117389.491718,1888919,0.920410,-0.013184,-0.391602,-0.548781,-0.609756,-0.243902,16.512501,-36.243752,2.737500,0.0,1.000000,0.000000,0.000000,0.000000
1782117389.502718,1888930,0.920410,-0.014160,-0.391602,-0.548781,-0.548781,-0.182927,16.425001,-36.393749,2.706250,0.0,1.000000,0.000000,0.000000,0.000000
1782117389.516718,1888944,0.920898,-0.015625,-0.392578,-0.548781,-0.548781,-0.243902,16.425001,-36.393749,2.706250,0.0,1.000000,0.000000,0.000000,0.000000
1782117389.523718,1888951,0.919434,-0.017578,-0.393555,-0.426829,-0.548781,-0.182927,16.500000,-36.299999,2.725000,0.0,1.000000,0.000000,0.000000,0.000000
1782117389.531718,1888959,0.919434,-0.018555,-0.395020,-0.426829,-0.487805,-0.121951,16.500000,-36.299999,2.725000,0.0,1.000000,0.000000,0.000000,0.000000
1782117389.541718,1888969,0.918945,-0.017578,-0.395508,-0.426829,-0.426829,-0.060976,16.437500,-36.350002,2.700000,0.0,1.000000,0.000000,0.000000,0.000000
1782117389.551718,1888979,0.918457,-0.015625,-0.394043,-0.548781,-0.487805,0.000000,16.437500,-36.350002,2.700000,0.0,1.000000,0.000000,0.000000,0.000000
1782117389.561718,1888989,0.919434,-0.013184,-0.394043,-0.670732,-0.548781,-0.060976,16.506250,-36.250000,2.681250,0.0,1.000000,0.000000,0.000000,0.000000
1782117389.571718,1888999,0.920410,-0.012695,-0.394531,-0.731707,-0.487805,-0.121951,16.506250,-36.250000,2.681250,0.0,1.000000,0.000000,0.000000,0.000000
1782117389.581718,1889009,0.919922,-0.013184,-0.395508,-0.670732,-0.365854,-0.060976,16.462500,-36.362499,2.668750,0.0,1.000000,0.000000,0.000000,0.000000
1782117389.591718,1889019,0.918945,-0.010742,-0.395996,-0.670732,-0.365854,-0.060976,16.462500,-36.362499,2.668750,0.0,1.000000,0.000000,0.000000,0.000000
1782117389.601718,1889029,0.919434,-0.011230,-0.396484,-0.426829,-0.304878,-0.121951,16.550001,-36.131252,2.587500,0.0,1.000000,0.000000,0.000000,0.000000
1782117389.611718,1889039,0.920898,-0.011719,-0.397461,-0.365854,-0.304878,-0.121951,16.550001,-36.131252,2.587500,0.0,1.000000,0.000000,0.000000,0.000000
1782117389.621718,1889049,0.918457,-0.012207,-0.396484,-0.304878,-0.243902,-0.060976,16.456251,-36.275002,2.725000,0.0,1.000000,0.000000,0.000000,0.000000
1782117389.631718,1889059,0.917480,-0.013672,-0.395020,-0.304878,-0.426829,0.000000,16.456251,-36.275002,2.725000,0.0,1.000000,0.000000,0.000000,0.000000
1782117389.642718,1889070,0.917480,-0.013184,-0.395508,-0.304878,-0.365854,-0.060976,16.531250,-36.093750,2.587500,0.0,1.000000,0.000000,0.000000,0.000000
1782117389.652718,1889080,0.916504,-0.012695,-0.395508,-0.487805,-0.487805,-0.121951,16.531250,-36.093750,2.587500,0.0,1.000000,0.000000,0.000000,0.000000
1782117389.661718,1889089,0.915039,-0.010742,-0.396973,-0.731707,-0.426829,-0.121951,16.431250,-36.362499,2.668750,0.0,1.000000,0.000000,0.000000,0.000000
1782117389.671718,1889099,0.916992,-0.012207,-0.398926,-0.792683,-0.548781,-0.182927,16.431250,-36.362499,2.668750,0.0,1.000000,0.000000,0.000000,0.000000
1782117389.681718,1889109,0.917480,-0.012207,-0.398926,-0.731707,-0.426829,-0.182927,16.475000,-36.218750,2.643750,0.0,1.000000,0.000000,0.000000,0.000000
1782117389.691718,1889119,0.916504,-0.011230,-0.398926,-0.548781,-0.365854,-0.121951,16.475000,-36.218750,2.643750,0.0,1.000000,0.000000,0.000000,0.000000
1782117389.701718,1889129,0.916992,-0.012207,-0.397949,-0.548781,-0.304878,-0.121951,16.456251,-36.299999,2.712500,0.0,1.000000,0.000000,0.000000,0.000000
1782117389.711718,1889139,0.916992,-0.012207,-0.397949,-0.426829,-0.304878,-0.121951,16.456251,-36.299999,2.712500,0.0,1.000000,0.000000,0.000000,0.000000
1782117389.721718,1889149,0.917969,-0.012695,-0.397949,-0.365854,-0.304878,-0.121951,16.481251,-36.268749,2.631250,0.0,1.000000,0.000000,0.000000,0.000000
1782117389.731718,1889159,0.916992,-0.013672,-0.396973,-0.365854,-0.365854,-0.121951,16.481251,-36.268749,2.631250,0.0,1.000000,0.000000,0.000000,0.000000
1782117389.741718,1889169,0.916992,-0.014160,-0.396973,-0.365854,-0.304878,-0.121951,16.450001,-36.287502,2.756250,0.0,1.000000,0.000000,0.000000,0.000000
1782117389.752718,1889180,0.916504,-0.013672,-0.397461,-0.548781,-0.365854,-0.121951,16.450001,-36.287502,2.756250,0.0,1.000000,0.000000,0.000000,0.000000
1782117389.761718,1889189,0.917480,-0.014160,-0.397949,-0.548781,-0.426829,-0.060976,16.418751,-36.262501,2.693750,0.0,1.000000,0.000000,0.000000,0.000000
1782117389.771718,1889199,0.915527,-0.014648,-0.396973,-0.548781,-0.426829,-0.121951,16.418751,-36.262501,2.693750,0.0,1.000000,0.000000,0.000000,0.000000
1782117389.781718,1889209,0.916504,-0.014160,-0.398438,-0.426829,-0.426829,-0.121951,16.437500,-36.318752,2.687500,0.0,1.000000,0.000000,0.000000,0.000000
1782117389.791718,1889219,0.917480,-0.013184,-0.398926,-0.304878,-0.426829,-0.121951,16.437500,-36.318752,2.687500,0.0,1.000000,0.000000,0.000000,0.000000
1782117389.801718,1889229,0.916016,-0.012695,-0.398926,-0.304878,-0.365854,-0.182927,16.618750,-36.025002,2.531250,0.0,1.000000,0.000000,0.000000,0.000000
1782117389.812718,1889240,0.916504,-0.014160,-0.397949,-0.182927,-0.365854,-0.243902,16.618750,-36.025002,2.531250,0.0,1.000000,0.000000,0.000000,0.000000
1782117389.821718,1889249,0.916016,-0.013672,-0.398438,-0.182927,-0.365854,-0.182927,16.462500,-36.250000,2.625000,0.0,1.000000,0.000000,0.000000,0.000000
1782117389.831718,1889259,0.916016,-0.014648,-0.397461,0.000000,-0.426829,-0.365854,16.462500,-36.250000,2.625000,0.0,1.000000,0.000000,0.000000,0.000000
1782117389.842718,1889270,0.915527,-0.017090,-0.397461,0.060976,-0.487805,-0.365854,16.481251,-36.268749,2.643750,0.0,1.000000,0.000000,0.000000,0.000000
1782117389.851718,1889279,0.918457,-0.018555,-0.397461,0.121951,-0.609756,-0.365854,16.481251,-36.268749,2.643750,0.0,1.000000,0.000000,0.000000,0.000000
1782117389.861718,1889289,0.919922,-0.017578,-0.396973,0.243902,-0.548781,-0.304878,16.418751,-36.256252,2.718750,0.0,1.000000,0.000000,0.000000,0.000000
1782117389.871718,1889299,0.920898,-0.015137,-0.398438,0.365854,-0.487805,-0.304878,16.418751,-36.256252,2.718750,0.0,1.000000,0.000000,0.000000,0.000000
1782117389.882718,1889310,0.921875,-0.014648,-0.394043,0.426829,-0.426829,-0.365854,16.412500,-36.268749,2.643750,0.0,1.000000,0.000000,0.000000,0.000000
1782117389.892718,1889320,0.921387,-0.014648,-0.392578,0.365854,-0.243902,-0.304878,16.412500,-36.268749,2.643750,0.0,1.000000,0.000000,0.000000,0.000000
1782117389.902718,1889330,0.920898,-0.012695,-0.392578,0.304878,-0.121951,-0.304878,16.456251,-36.299999,2.668750,0.0,1.000000,0.000000,0.000000,0.000000
1782117389.911718,1889339,0.918457,-0.013184,-0.394043,0.121951,-0.121951,-0.243902,16.456251,-36.299999,2.668750,0.0,1.000000,0.000000,0.000000,0.000000
1782117389.922718,1889350,0.915527,-0.010742,-0.396973,-0.304878,-0.365854,-0.243902,16.437500,-36.306252,2.631250,0.0,1.000000,0.000000,0.000000,0.000000
1782117389.932718,1889360,0.917969,-0.007812,-0.400879,-0.670732,-0.548781,-0.243902,16.437500,-36.306252,2.631250,0.0,1.000000,0.000000,0.000000,0.000000
1782117389.941718,1889369,0.918945,-0.007812,-0.397461,-0.670732,-0.487805,-0.304878,16.418751,-36.256252,2.687500,0.0,1.000000,0.000000,0.000000,0.000000
1782117389.951718,1889379,0.917969,-0.011719,-0.395508,-0.609756,-0.365854,-0.304878,16.418751,-36.256252,2.687500,0.0,1.000000,0.000000,0.000000,0.000000
1782117389.961718,1889389,0.918457,-0.015625,-0.398926,-0.731707,-0.304878,-0.121951,16.418751,-36.393749,2.687500,0.0,1.000000,0.000000,0.000000,0.000000
1782117389.971718,1889399,0.915527,-0.012695,-0.399414,-0.792683,-0.365854,-0.243902,16.418751,-36.393749,2.687500,0.0,1.000000,0.000000,0.000000,0.000000
1782117389.981718,1889409,0.913574,-0.014160,-0.401367,-0.792683,-0.548781,-0.304878,16.443750,-36.262501,2.650000,0.0,1.000000,0.000000,0.000000,0.000000
1782117389.991718,1889419,0.916992,-0.016602,-0.400391,-0.548781,-0.731707,-0.304878,16.443750,-36.262501,2.650000,0.0,1.000000,0.000000,0.000000,0.000000
1782117390.003718,1889431,0.919434,-0.019043,-0.396973,-0.426829,-0.670732,-0.182927,16.475000,-36.306252,2.675000,0.0,1.000000,0.000000,0.000000,0.000000
1782117390.011718,1889439,0.921875,-0.021973,-0.395996,-0.304878,-0.426829,-0.060976,16.475000,-36.306252,2.675000,0.0,1.000000,0.000000,0.000000,0.000000
1782117390.021718,1889449,0.916016,-0.018555,-0.401855,-0.426829,-0.304878,-0.060976,16.412500,-36.325001,2.668750,0.0,1.000000,0.000000,0.000000,0.000000
1782117390.032718,1889460,0.914551,-0.013184,-0.402832,-0.548781,-0.487805,-0.243902,16.412500,-36.325001,2.668750,0.0,1.000000,0.000000,0.000000,0.000000
1782117390.043718,1889471,0.916016,-0.008301,-0.403809,-0.609756,-0.609756,-0.365854,16.425001,-36.325001,2.712500,0.0,1.000000,0.000000,0.000000,0.000000
1782117390.051718,1889479,0.916992,-0.009766,-0.402344,-0.609756,-0.670732,-0.304878,16.425001,-36.325001,2.712500,0.0,1.000000,0.000000,0.000000,0.000000
1782117390.061718,1889489,0.913086,-0.010742,-0.402832,-0.731707,-0.548781,-0.121951,16.437500,-36.237499,2.637500,0.0,1.000000,0.000000,0.000000,0.000000
1782117390.072718,1889500,0.912598,-0.009766,-0.400879,-0.853659,-0.731707,-0.121951,16.437500,-36.237499,2.637500,0.0,1.000000,0.000000,0.000000,0.000000
1782117390.082718,1889510,0.914551,-0.012695,-0.400391,-0.792683,-0.731707,-0.243902,16.443750,-36.281250,2.675000,0.0,1.000000,0.000000,0.000000,0.000000
1782117390.092718,1889520,0.914062,-0.013672,-0.403809,-1.036585,-0.731707,-0.182927,16.443750,-36.281250,2.675000,0.0,1.000000,0.000000,0.000000,0.000000
1782117390.102718,1889530,0.915527,-0.009277,-0.404297,-1.158537,-0.792683,-0.304878,16.437500,-36.268749,2.737500,0.0,1.000000,0.000000,0.000000,0.000000
1782117390.111718,1889539,0.917480,-0.011230,-0.403809,-1.036585,-0.792683,-0.487805,16.437500,-36.268749,2.737500,0.0,1.000000,0.000000,0.000000,0.000000
1782117390.122718,1889550,0.916992,-0.016602,-0.400391,-0.731707,-0.609756,-0.548781,16.543751,-36.125000,2.550000,0.0,1.000000,0.000000,0.000000,0.000000
1782117390.132718,1889560,0.913574,-0.018555,-0.402832,-0.548781,-0.609756,-0.426829,16.543751,-36.125000,2.550000,0.0,1.000000,0.000000,0.000000,0.000000
1782117390.141718,1889569,0.916504,-0.018066,-0.408203,-0.426829,-0.853659,-0.426829,16.437500,-36.325001,2.725000,0.0,1.000000,0.000000,0.000000,0.000000
1782117390.151718,1889579,0.919922,-0.013672,-0.412109,-0.365854,-0.853659,-0.548781,16.437500,-36.325001,2.725000,0.0,1.000000,0.000000,0.000000,0.000000
1782117390.161718,1889589,0.918457,-0.012207,-0.409180,-0.304878,-0.548781,-0.487805,16.381250,-36.325001,2.800000,0.0,1.000000,0.000000,0.000000,0.000000
1782117390.171718,1889599,0.915039,-0.012207,-0.407715,-0.304878,-0.426829,-0.304878,16.381250,-36.325001,2.800000,0.0,1.000000,0.000000,0.000000,0.000000
1782117390.181718,1889609,0.912598,-0.006836,-0.407227,-0.426829,-0.426829,-0.304878,16.400000,-36.387501,2.693750,0.0,1.000000,0.000000,0.000000,0.000000
1782117390.191718,1889619,0.912109,-0.002930,-0.409180,-0.426829,-0.426829,-0.548781,16.400000,-36.387501,2.693750,0.0,1.000000,0.000000,0.000000,0.000000
1782117390.202718,1889630,0.911133,-0.004883,-0.410156,-0.182927,-0.304878,-0.853659,16.406250,-36.375000,2.725000,0.0,1.000000,0.000000,0.000000,0.000000
1782117390.211718,1889639,0.909668,-0.007324,-0.412598,-0.060976,-0.182927,-0.975610,16.406250,-36.375000,2.725000,0.0,1.000000,0.000000,0.000000,0.000000
1782117390.221718,1889649,0.911133,-0.005859,-0.416504,0.060976,-0.304878,-1.097561,16.531250,-36.318752,2.687500,0.0,1.000000,0.000000,0.000000,0.000000
1782117390.231718,1889659,0.913086,-0.003906,-0.415527,0.304878,0.000000,-1.280488,16.531250,-36.318752,2.687500,0.0,1.000000,0.000000,0.000000,0.000000
1782117390.242718,1889670,0.906250,-0.011230,-0.417969,0.670732,0.243902,-1.341463,16.475000,-36.406250,2.706250,0.0,1.000000,0.000000,0.000000,0.000000
1782117390.251718,1889679,0.903809,-0.014648,-0.425293,1.097561,0.060976,-1.402439,16.475000,-36.406250,2.706250,0.0,1.000000,0.000000,0.000000,0.000000
1782117390.261718,1889689,0.905273,-0.012207,-0.433105,1.036585,-0.426829,-1.219512,16.525000,-36.331249,2.631250,0.0,1.000000,0.000000,0.000000,0.000000
1782117390.271718,1889699,0.911133,-0.008301,-0.428711,1.402439,-0.670732,-1.219512,16.525000,-36.331249,2.631250,0.0,1.000000,0.000000,0.000000,0.000000
1782117390.284718,1889712,0.911133,-0.016602,-0.421875,2.073171,0.060976,-1.097561,16.512501,-36.318752,2.687500,0.0,1.000000,0.000000,0.000000,0.000000
1782117390.291718,1889719,0.908203,-0.020508,-0.423828,2.073171,0.000000,-0.609756,16.512501,-36.318752,2.687500,0.0,1.000000,0.000000,0.000000,0.000000
1782117390.301718,1889729,0.922852,-0.006348,-0.430176,1.646341,-0.182927,-0.487805,16.543751,-36.293751,2.675000,0.0,1.000000,0.000000,0.000000,0.000000
1782117390.312718,1889740,0.933105,0.006348,-0.430176,1.341463,0.548781,-0.609756,16.543751,-36.293751,2.675000,0.0,1.000000,0.000000,0.000000,0.000000
1782117390.323718,1889751,0.925781,0.009277,-0.422852,1.646341,1.768293,-0.792683,16.456251,-36.350002,2.725000,0.0,1.000000,0.000000,0.000000,0.000000
1782117390.332718,1889760,0.914551,0.006836,-0.419434,2.134146,2.500000,-0.731707,16.456251,-36.350002,2.725000,0.0,1.000000,0.000000,0.000000,0.000000
1782117390.341718,1889769,0.906738,0.009277,-0.420410,2.804878,2.317073,-0.670732,16.506250,-36.275002,2.712500,0.0,1.000000,0.000000,0.000000,0.000000
1782117390.351718,1889779,0.905273,0.009277,-0.424316,3.536585,2.560976,-0.792683,16.506250,-36.275002,2.712500,0.0,1.000000,0.000000,0.000000,0.000000
1782117390.364718,1889792,0.888672,0.003906,-0.432129,4.329268,3.231707,-0.609756,16.481251,-36.268749,2.762500,0.0,1.000000,0.000000,0.000000,0.000000
1782117390.371718,1889799,0.858887,0.003906,-0.446289,5.365854,3.475610,-0.365854,16.481251,-36.268749,2.762500,0.0,1.000000,0.000000,0.000000,0.000000
1782117390.381718,1889809,0.842285,0.012695,-0.457031,6.219512,1.280488,-0.914634,16.531250,-36.193752,2.781250,0.0,1.000000,0.000000,0.000000,0.000000
1782117390.391718,1889819,0.855957,0.002930,-0.479004,6.646342,-1.036585,-1.707317,16.531250,-36.193752,2.781250,0.0,1.000000,0.000000,0.000000,0.000000
1782117390.402718,1889830,0.873047,-0.031250,-0.500977,7.378049,-1.585366,-1.707317,16.518751,-36.337502,2.775000,0.0,1.000000,0.000000,0.000000,0.000000
1782117390.412718,1889840,0.880859,-0.046387,-0.500488,9.695122,-1.768293,-0.731707,16.518751,-36.337502,2.775000,0.0,1.000000,0.000000,0.000000,0.000000
1782117390.421718,1889849,0.885254,-0.041992,-0.480469,11.402439,-3.048780,-1.280488,16.568750,-36.256252,2.612500,0.0,1.000000,0.000000,0.000000,0.000000
1782117390.432718,1889860,0.913086,-0.035156,-0.470703,13.414635,-1.280488,-2.439024,16.568750,-36.256252,2.612500,0.0,1.000000,0.000000,0.000000,0.000000
1782117390.443718,1889871,0.905762,-0.065430,-0.488770,14.878049,2.621951,-2.804878,16.525000,-36.225002,2.606250,0.0,1.000000,0.000000,0.000000,0.000000
1782117390.451718,1889879,0.911133,-0.086914,-0.504395,18.353659,3.536585,-2.560976,16.525000,-36.225002,2.606250,0.0,1.000000,0.000000,0.000000,0.000000
1782117390.461718,1889889,0.932617,-0.096191,-0.484863,24.390244,4.451220,-2.012195,16.562500,-36.212502,2.550000,0.0,1.000000,0.000000,0.000000,0.000000
1782117390.471718,1889899,0.952637,-0.084961,-0.464844,31.341465,7.682927,-1.951220,16.562500,-36.212502,2.550000,0.0,1.000000,0.000000,0.000000,0.000000
1782117390.483718,1889911,0.951172,-0.058594,-0.457520,38.597561,13.963415,-2.621951,16.512501,-36.325001,2.518750,0.0,1.000000,0.000000,0.000000,0.000000
1782117390.492718,1889920,0.952637,-0.004395,-0.449219,46.463417,20.548780,-5.365854,16.512501,-36.325001,2.518750,0.0,1.000000,0.000000,0.000000,0.000000
1782117390.501718,1889929,0.919434,0.067871,-0.434570,50.548782,27.073172,-8.109756,16.543751,-36.162502,2.368750,0.0,1.000000,0.000000,0.000000,0.000000
1782117390.511718,1889939,0.851074,0.099609,-0.420898,47.865856,30.731709,-8.719512,16.543751,-36.162502,2.368750,0.0,1.000000,0.000000,0.000000,0.000000
1782117390.523718,1889951,0.830078,0.090820,-0.422363,40.853661,24.817074,-7.317073,16.600000,-36.112499,2.487500,0.0,1.000000,0.000000,0.000000,0.000000
1782117390.531718,1889959,0.857910,0.062500,-0.423340,32.804878,17.256098,-5.243903,16.600000,-36.112499,2.487500,0.0,1.000000,0.000000,0.000000,0.000000
1782117390.541718,1889969,0.885742,0.010254,-0.405762,24.695122,12.743903,-2.256098,16.793751,-35.818752,2.437500,0.0,1.000000,0.000000,0.000000,0.000000
1782117390.551718,1889979,0.892090,-0.033203,-0.402832,16.890244,10.000000,0.365854,16.793751,-35.818752,2.437500,0.0,1.000000,0.000000,0.000000,0.000000
1782117390.561718,1889989,0.918945,-0.045410,-0.409668,11.280488,7.560976,1.158537,16.687500,-36.049999,2.656250,0.0,1.000000,0.000000,0.000000,0.000000
1782117390.571718,1889999,0.955078,-0.049316,-0.407715,8.353659,7.865854,0.182927,16.687500,-36.049999,2.656250,0.0,1.000000,0.000000,0.000000,0.000000
1782117390.581718,1890009,0.954590,-0.064941,-0.394043,8.353659,10.853659,0.000000,16.725000,-36.006252,2.750000,0.0,1.000000,0.000000,0.000000,0.000000
1782117390.591718,1890019,0.940430,-0.075195,-0.385254,8.902439,11.402439,0.853659,16.725000,-36.006252,2.750000,0.0,1.000000,0.000000,0.000000,0.000000
1782117390.601718,1890029,0.930664,-0.073242,-0.365723,8.414635,11.768293,2.378049,16.643751,-36.118752,2.868750,0.0,1.000000,0.000000,0.000000,0.000000
1782117390.611718,1890039,0.934570,-0.047852,-0.344727,7.317073,12.134147,3.902439,16.643751,-36.118752,2.868750,0.0,1.000000,0.000000,0.000000,0.000000
1782117390.621718,1890049,0.949707,-0.027344,-0.322754,6.829268,12.987805,4.146341,16.675001,-35.943752,2.887500,0.0,1.000000,0.000000,0.000000,0.000000
1782117390.631718,1890059,0.961426,-0.021484,-0.303223,7.378049,14.207317,3.902439,16.675001,-35.943752,2.887500,0.0,1.000000,0.000000,0.000000,0.000000
1782117390.644718,1890072,0.969727,-0.035156,-0.301270,8.719512,15.121951,4.329268,16.468750,-36.312500,3.162500,0.0,1.000000,0.000000,0.000000,0.000000
1782117390.651718,1890079,0.971191,-0.036621,-0.291992,9.146341,15.365854,5.731708,16.468750,-36.312500,3.162500,0.0,1.000000,0.000000,0.000000,0.000000
1782117390.661718,1890089,0.968262,-0.039062,-0.291504,8.353659,15.060976,7.134147,16.362501,-36.287502,3.300000,0.0,1.000000,0.000000,0.000000,0.000000
1782117390.671718,1890099,0.956055,-0.036621,-0.289551,6.951220,14.878049,8.353659,16.362501,-36.287502,3.300000,0.0,1.000000,0.000000,0.000000,0.000000
1782117390.683718,1890111,0.935547,-0.046875,-0.298828,5.182927,13.536586,9.329268,16.081251,-36.518749,3.500000,0.0,1.000000,0.000000,0.000000,0.000000
1782117390.691718,1890119,0.921875,-0.038086,-0.294434,4.329268,11.768293,9.939025,16.081251,-36.518749,3.500000,0.0,1.000000,0.000000,0.000000,0.000000
1782117390.701718,1890129,0.904785,-0.035156,-0.290039,3.109756,9.512196,9.085366,15.893750,-36.543751,3.600000,0.0,1.000000,0.000000,0.000000,0.000000
1782117390.711718,1890139,0.896484,-0.047363,-0.288574,1.341463,7.256098,7.865854,15.893750,-36.543751,3.600000,0.0,1.000000,0.000000,0.000000,0.000000
1782117390.724718,1890152,0.896973,-0.063965,-0.290527,-0.853659,4.817073,7.012195,15.743751,-36.668751,3.768750,0.0,1.000000,0.000000,0.000000,0.000000
1782117390.732718,1890160,0.909668,-0.073730,-0.298828,-2.987805,2.500000,6.890244,15.743751,-36.668751,3.768750,0.0,1.000000,0.000000,0.000000,0.000000
1782117390.742718,1890170,0.922363,-0.080566,-0.295410,-3.780488,1.402439,6.585366,15.712501,-36.643749,3.750000,0.0,1.000000,0.000000,0.000000,0.000000
1782117390.751718,1890179,0.937500,-0.087891,-0.286133,-2.500000,0.609756,5.121951,15.712501,-36.643749,3.750000,0.0,1.000000,0.000000,0.000000,0.000000
1782117390.762718,1890190,0.947266,-0.102051,-0.280762,-0.182927,0.426829,3.597561,15.656250,-36.650002,3.806250,0.0,1.000000,0.000000,0.000000,0.000000
1782117390.771718,1890199,0.958496,-0.109863,-0.278320,2.500000,-0.487805,2.012195,15.656250,-36.650002,3.806250,0.0,1.000000,0.000000,0.000000,0.000000
1782117390.781718,1890209,0.964844,-0.110352,-0.270996,4.756098,-0.670732,0.670732,15.675000,-36.637501,3.731250,0.0,1.000000,0.000000,0.000000,0.000000
1782117390.791718,1890219,0.961426,-0.103516,-0.263184,6.951220,-0.487805,-0.365854,15.675000,-36.637501,3.731250,0.0,1.000000,0.000000,0.000000,0.000000
1782117390.804718,1890232,0.958008,-0.097168,-0.256348,9.146341,-1.036585,-1.219512,15.575000,-36.662502,3.725000,0.0,1.000000,0.000000,0.000000,0.000000
1782117390.811718,1890239,0.959473,-0.087402,-0.248047,11.219512,-2.195122,-1.646341,15.575000,-36.662502,3.725000,0.0,1.000000,0.000000,0.000000,0.000000
1782117390.822718,1890250,0.968750,-0.074219,-0.245117,12.987805,-3.170732,-1.890244,15.618751,-36.600002,3.531250,0.0,1.000000,0.000000,0.000000,0.000000
1782117390.831718,1890259,0.964355,-0.063965,-0.231934,14.024390,-3.109756,-2.256098,15.618751,-36.600002,3.531250,0.0,1.000000,0.000000,0.000000,0.000000
1782117390.841718,1890269,0.965332,-0.061035,-0.215332,14.329268,-3.658537,-2.743902,15.750000,-36.437500,3.281250,0.0,1.000000,0.000000,0.000000,0.000000
1782117390.851718,1890279,0.981445,-0.063477,-0.197754,14.329268,-4.573171,-3.414634,15.750000,-36.437500,3.281250,0.0,1.000000,0.000000,0.000000,0.000000
1782117390.861718,1890289,1.015625,-0.066895,-0.174805,14.756098,-4.573171,-4.024390,15.662500,-36.556252,3.237500,0.0,1.000000,0.000000,0.000000,0.000000
1782117390.871718,1890299,1.024902,-0.062012,-0.150391,13.048780,-0.182927,-3.841464,15.718750,-36.618752,3.087500,0.0,1.000000,0.000000,0.000000,0.000000
1782117390.883718,1890311,1.013672,-0.046387,-0.145996,10.304878,0.121951,-3.475610,15.718750,-36.618752,3.087500,0.0,1.000000,0.000000,0.000000,0.000000
1782117390.892718,1890320,1.004883,-0.030273,-0.143066,5.975610,0.182927,-3.231707,15.800000,-36.512501,2.950000,0.0,1.000000,0.000000,0.000000,0.000000
1782117390.902718,1890330,1.003906,-0.023926,-0.154785,0.060976,0.243902,-2.500000,15.800000,-36.512501,2.950000,0.0,1.000000,0.000000,0.000000,0.000000
1782117390.912718,1890340,1.000977,-0.024902,-0.169922,-6.463415,0.000000,-1.280488,15.806251,-36.543751,3.106250,0.0,1.000000,0.000000,0.000000,0.000000
1782117390.922718,1890350,0.995605,-0.027832,-0.182129,-12.073171,-0.243902,-0.121951,15.806251,-36.543751,3.106250,0.0,1.000000,0.000000,0.000000,0.000000
1782117390.931718,1890359,0.989746,-0.032715,-0.195801,-15.670732,-0.731707,0.121951,15.875000,-36.450001,3.056250,0.0,1.000000,0.000000,0.000000,0.000000
1782117390.942718,1890370,0.990234,-0.049805,-0.213867,-17.195122,-2.073171,-0.182927,15.875000,-36.450001,3.056250,0.0,1.000000,0.000000,0.000000,0.000000
1782117390.951718,1890379,0.986328,-0.069336,-0.238770,-17.743902,-3.109756,-0.365854,15.887500,-36.418751,3.225000,0.0,1.000000,0.000000,0.000000,0.000000
1782117390.961718,1890389,0.975586,-0.081055,-0.254883,-18.292683,-3.536585,-0.365854,15.887500,-36.418751,3.225000,0.0,1.000000,0.000000,0.000000,0.000000
1782117390.971718,1890399,0.969727,-0.082520,-0.262207,-17.987804,-3.475610,-0.487805,15.868751,-36.418751,3.287500,0.0,1.000000,0.000000,0.000000,0.000000
1782117390.981718,1890409,0.965820,-0.069824,-0.263672,-16.768293,-3.780488,-1.158537,15.868751,-36.418751,3.287500,0.0,1.000000,0.000000,0.000000,0.000000
1782117390.991718,1890419,0.967773,-0.064453,-0.273926,-15.670732,-4.329268,-1.890244,15.906250,-36.468750,3.406250,0.0,1.000000,0.000000,0.000000,0.000000
1782117391.001718,1890429,0.970215,-0.059082,-0.281738,-14.390244,-4.390244,-2.073171,15.906250,-36.468750,3.406250,0.0,1.000000,0.000000,0.000000,0.000000
1782117391.011718,1890439,0.966309,-0.056152,-0.275391,-13.536586,-3.963415,-2.134146,16.018751,-36.387501,3.475000,0.0,1.000000,0.000000,0.000000,0.000000
1782117391.021718,1890449,0.963867,-0.054688,-0.271484,-12.926829,-3.780488,-2.195122,16.018751,-36.387501,3.475000,0.0,1.000000,0.000000,0.000000,0.000000
1782117391.031718,1890459,0.965820,-0.059570,-0.271484,-12.134147,-3.536585,-2.256098,16.143751,-36.162502,3.343750,0.0,1.000000,0.000000,0.000000,0.000000
1782117391.041718,1890469,0.967285,-0.064453,-0.277832,-11.768293,-4.146341,-2.073171,16.143751,-36.162502,3.343750,0.0,1.000000,0.000000,0.000000,0.000000
1782117391.051718,1890479,0.979004,-0.060547,-0.290527,-11.707317,-5.243903,-1.463415,16.187500,-36.306252,3.456250,0.0,1.000000,0.000000,0.000000,0.000000
1782117391.061718,1890489,0.979980,-0.052246,-0.297852,-12.134147,-4.512195,-1.097561,16.187500,-36.306252,3.456250,0.0,1.000000,0.000000,0.000000,0.000000
1782117391.071718,1890499,0.969238,-0.046875,-0.293945,-12.987805,-3.780488,-0.853659,16.100000,-36.393749,3.500000,0.0,1.000000,0.000000,0.000000,0.000000
1782117391.081718,1890509,0.965332,-0.044922,-0.284180,-13.780488,-3.536585,-0.487805,16.100000,-36.393749,3.500000,0.0,1.000000,0.000000,0.000000,0.000000
1782117391.091718,1890519,0.945312,-0.041504,-0.284668,-15.000000,-2.865854,-0.914634,16.218750,-36.318752,3.531250,0.0,1.000000,0.000000,0.000000,0.000000
1782117391.101718,1890529,0.975586,-0.034180,-0.286133,-17.256098,-5.182927,0.487805,16.218750,-36.318752,3.531250,0.0,1.000000,0.000000,0.000000,0.000000
1782117391.111718,1890539,0.975586,-0.035645,-0.296875,-18.963415,-2.378049,0.487805,16.231251,-36.281250,3.587500,0.0,1.000000,0.000000,0.000000,0.000000
1782117391.121718,1890549,0.964355,-0.045410,-0.303223,-20.914635,-2.621951,2.012195,16.231251,-36.281250,3.587500,0.0,1.000000,0.000000,0.000000,0.000000
1782117391.131718,1890559,0.958008,-0.046387,-0.301758,-22.439024,-1.524390,3.475610,16.293751,-36.156250,3.575000,0.0,1.000000,0.000000,0.000000,0.000000
1782117391.141718,1890569,0.947266,-0.040527,-0.306152,-24.878050,-1.829268,4.268293,16.293751,-36.156250,3.575000,0.0,1.000000,0.000000,0.000000,0.000000
1782117391.151718,1890579,0.949707,-0.043457,-0.317871,-26.341463,-2.682927,4.146341,16.181250,-36.293751,3.862500,0.0,1.000000,0.000000,0.000000,0.000000
1782117391.161718,1890589,0.957520,-0.055176,-0.336426,-26.463415,-2.317073,4.390244,16.181250,-36.293751,3.862500,0.0,1.000000,0.000000,0.000000,0.000000
1782117391.171718,1890599,0.950195,-0.061035,-0.344727,-25.731709,-0.304878,4.329268,16.331251,-36.068752,3.843750,0.0,1.000000,0.000000,0.000000,0.000000
1782117391.181718,1890609,0.935547,-0.067871,-0.343262,-24.695122,-0.243902,3.719512,16.331251,-36.068752,3.843750,0.0,1.000000,0.000000,0.000000,0.000000
1782117391.191718,1890619,0.954102,-0.080566,-0.330078,-23.353659,-1.402439,3.048780,16.131250,-36.393749,4.175000,0.0,1.000000,0.000000,0.000000,0.000000
1782117391.201718,1890629,0.968262,-0.087402,-0.344727,-21.219513,0.304878,2.804878,16.131250,-36.393749,4.175000,0.0,1.000000,0.000000,0.000000,0.000000
1782117391.211718,1890639,0.962891,-0.087402,-0.332520,-19.085367,2.317073,1.890244,16.143751,-36.299999,4.275000,0.0,1.000000,0.000000,0.000000,0.000000
1782117391.221718,1890649,0.951172,-0.084961,-0.325684,-16.646341,2.682927,1.829268,16.143751,-36.299999,4.275000,0.0,1.000000,0.000000,0.000000,0.000000
1782117391.231718,1890659,0.953613,-0.080566,-0.322754,-13.963415,2.439024,2.439024,16.193750,-36.225002,4.318750,0.0,1.000000,0.000000,0.000000,0.000000
1782117391.241718,1890669,0.949219,-0.069336,-0.325195,-11.768293,2.317073,2.987805,16.193750,-36.225002,4.318750,0.0,1.000000,0.000000,0.000000,0.000000
1782117391.251718,1890679,0.933105,-0.049805,-0.339355,-10.792684,2.865854,3.719512,16.118750,-36.187500,4.350000,0.0,1.000000,0.000000,0.000000,0.000000
1782117391.261718,1890689,0.922852,-0.028320,-0.336426,-9.817074,3.719512,4.085366,16.118750,-36.187500,4.350000,0.0,1.000000,0.000000,0.000000,0.000000
1782117391.271718,1890699,0.918945,-0.023438,-0.329102,-9.512196,2.743902,4.085366,15.975000,-36.362499,4.587500,0.0,1.000000,0.000000,0.000000,0.000000
1782117391.281718,1890709,0.921387,-0.021973,-0.335449,-9.878049,2.012195,3.536585,15.975000,-36.362499,4.587500,0.0,1.000000,0.000000,0.000000,0.000000
1782117391.291718,1890719,0.916992,-0.016113,-0.346680,-11.158537,2.256098,3.719512,15.893750,-36.381252,4.562500,0.0,1.000000,0.000000,0.000000,0.000000
1782117391.302718,1890730,0.903809,-0.007812,-0.354980,-12.743903,1.829268,3.963415,15.893750,-36.381252,4.562500,0.0,1.000000,0.000000,0.000000,0.000000
1782117391.312718,1890740,0.897949,-0.013184,-0.355957,-14.939025,-0.121951,3.963415,15.831250,-36.418751,4.668750,0.0,1.000000,0.000000,0.000000,0.000000
1782117391.322718,1890750,0.900391,-0.026367,-0.359863,-16.646341,-1.280488,3.353659,15.831250,-36.418751,4.668750,0.0,1.000000,0.000000,0.000000,0.000000
1782117391.332718,1890760,0.916504,-0.040039,-0.363281,-17.743902,-2.865854,2.743902,15.831250,-36.331249,4.687500,0.0,1.000000,0.000000,0.000000,0.000000
1782117391.342718,1890770,0.925293,-0.048828,-0.362305,-18.536585,-3.597561,2.926829,15.831250,-36.331249,4.687500,0.0,1.000000,0.000000,0.000000,0.000000
1782117391.352718,1890780,0.916992,-0.055176,-0.355957,-19.451220,-3.658537,3.536585,15.787500,-36.368752,4.837500,0.0,1.000000,0.000000,0.000000,0.000000
1782117391.362718,1890790,0.929199,-0.062500,-0.364258,-20.182928,-4.085366,5.304878,15.787500,-36.368752,4.837500,0.0,1.000000,0.000000,0.000000,0.000000
1782117391.371718,1890799,0.886719,-0.061035,-0.384277,-20.792683,-2.317073,5.060976,15.731250,-36.381252,4.881250,0.0,1.000000,0.000000,0.000000,0.000000
1782117391.383718,1890811,0.882324,-0.054199,-0.394043,-19.573172,-6.707317,4.085366,15.731250,-36.381252,4.881250,0.0,1.000000,0.000000,0.000000,0.000000
1782117391.391718,1890819,0.917480,-0.045410,-0.400879,-18.170732,-9.329268,4.695122,15.643750,-36.418751,4.862500,0.0,1.000000,0.000000,0.000000,0.000000
1782117391.402718,1890830,0.934570,-0.031738,-0.402832,-15.914635,-7.317073,3.780488,15.643750,-36.418751,4.862500,0.0,1.000000,0.000000,0.000000,0.000000
1782117391.413718,1890841,0.927246,-0.031250,-0.393555,-12.865854,-5.792683,2.317073,15.700000,-36.237499,4.662500,0.0,1.000000,0.000000,0.000000,0.000000
1782117391.421718,1890849,0.923340,-0.043457,-0.391113,-9.878049,-5.487805,1.219512,15.700000,-36.237499,4.662500,0.0,1.000000,0.000000,0.000000,0.000000
1782117391.431718,1890859,0.921875,-0.055664,-0.398438,-6.951220,-5.121951,0.609756,15.587501,-36.412502,4.768750,0.0,1.000000,0.000000,0.000000,0.000000
1782117391.441718,1890869,0.911621,-0.055664,-0.403809,-4.573171,-4.573171,0.365854,15.587501,-36.412502,4.768750,0.0,1.000000,0.000000,0.000000,0.000000
1782117391.452718,1890880,0.910645,-0.049805,-0.406250,-3.170732,-4.695122,0.304878,15.681251,-36.218750,4.625000,0.0,1.000000,0.000000,0.000000,0.000000
1782117391.461718,1890889,0.897949,-0.038574,-0.403320,-1.768293,-4.146341,-0.426829,15.681251,-36.218750,4.625000,0.0,1.000000,0.000000,0.000000,0.000000
1782117391.471718,1890899,0.928711,-0.032715,-0.394531,0.243902,-4.512195,-0.609756,15.437500,-36.481251,4.637500,0.0,1.000000,0.000000,0.000000,0.000000
1782117391.481718,1890909,0.939453,-0.043457,-0.397461,0.487805,-0.975610,1.951220,15.437500,-36.481251,4.637500,0.0,1.000000,0.000000,0.000000,0.000000
1782117391.491718,1890919,0.842285,-0.027832,-0.416016,4.024390,1.036585,-3.597561,15.462501,-36.493752,4.606250,0.0,1.000000,0.000000,0.000000,0.000000
1782117391.501718,1890929,0.858398,-0.035156,-0.420410,5.487805,-7.804878,-3.719512,15.462501,-36.493752,4.606250,0.0,1.000000,0.000000,0.000000,0.000000
1782117391.511718,1890939,0.891113,-0.019043,-0.443848,6.463415,-10.487805,-2.804878,15.487500,-36.406250,4.443750,0.0,1.000000,0.000000,0.000000,0.000000
1782117391.521718,1890949,0.889160,0.016602,-0.455566,6.707317,-10.975610,-3.658537,15.487500,-36.406250,4.443750,0.0,1.000000,0.000000,0.000000,0.000000
1782117391.532718,1890960,0.889160,0.033203,-0.450195,7.073171,-12.012196,-4.512195,15.637500,-36.225002,3.981250,0.0,1.000000,0.000000,0.000000,0.000000
1782117391.541718,1890969,0.906250,0.023438,-0.439453,7.256098,-13.963415,-4.634146,15.637500,-36.225002,3.981250,0.0,1.000000,0.000000,0.000000,0.000000
1782117391.552718,1890980,0.920898,0.012207,-0.431152,6.646342,-13.841464,-4.390244,15.556251,-36.362499,3.925000,0.0,1.000000,0.000000,0.000000,0.000000
1782117391.561718,1890989,0.924316,0.002930,-0.423828,5.365854,-12.743903,-4.207317,15.556251,-36.362499,3.925000,0.0,1.000000,0.000000,0.000000,0.000000
1782117391.572718,1891000,0.925293,-0.005371,-0.420410,4.573171,-11.585366,-3.963415,15.556251,-36.381252,3.718750,0.0,1.000000,0.000000,0.000000,0.000000
1782117391.581718,1891009,0.929688,-0.012207,-0.417480,4.939024,-10.426829,-4.024390,15.556251,-36.381252,3.718750,0.0,1.000000,0.000000,0.000000,0.000000
1782117391.592718,1891020,0.938965,-0.006836,-0.416992,6.524390,-8.841464,-4.512195,15.568750,-36.393749,3.462500,0.0,1.000000,0.000000,0.000000,0.000000
1782117391.601718,1891029,0.957031,0.002930,-0.409668,8.048780,-7.378049,-5.426829,15.568750,-36.393749,3.462500,0.0,1.000000,0.000000,0.000000,0.000000
1782117391.611718,1891039,0.969727,0.000977,-0.402832,8.841464,-6.097561,-5.487805,15.650001,-36.312500,3.218750,0.0,1.000000,0.000000,0.000000,0.000000
1782117391.621718,1891049,0.950195,0.005859,-0.396484,7.439024,-4.756098,-4.329268,15.650001,-36.312500,3.218750,0.0,1.000000,0.000000,0.000000,0.000000
1782117391.631718,1891059,0.920410,0.009277,-0.397461,4.573171,-5.000000,-3.109756,15.775001,-36.256252,3.137500,0.0,1.000000,0.000000,0.000000,0.000000
1782117391.641718,1891069,0.896973,0.015137,-0.397949,1.829268,-6.585366,-2.500000,15.775001,-36.256252,3.137500,0.0,1.000000,0.000000,0.000000,0.000000
1782117391.651718,1891079,0.888672,0.015137,-0.401855,-1.219512,-7.987805,-2.256098,15.693750,-36.281250,3.031250,0.0,1.000000,0.000000,0.000000,0.000000
1782117391.661718,1891089,0.890137,0.012207,-0.411133,-3.414634,-8.475610,-2.560976,15.693750,-36.281250,3.031250,0.0,1.000000,0.000000,0.000000,0.000000
1782117391.671718,1891099,0.886719,-0.009277,-0.429688,-4.207317,-9.146341,-3.170732,15.787500,-36.231251,2.862500,0.0,1.000000,0.000000,0.000000,0.000000
1782117391.681718,1891109,0.894531,-0.029297,-0.446777,-4.451220,-9.634147,-3.231707,15.787500,-36.231251,2.862500,0.0,1.000000,0.000000,0.000000,0.000000
1782117391.692718,1891120,0.901367,-0.048340,-0.452148,-4.207317,-7.743903,-2.378049,15.725000,-36.275002,2.887500,0.0,1.000000,0.000000,0.000000,0.000000
1782117391.701718,1891129,0.901367,-0.048340,-0.452148,-4.207317,-7.743903,-2.378049,15.725000,-36.275002,2.887500,0.0,1.000000,0.000000,0.000000,0.000000
1782117391.712718,1891140,0.893555,-0.050781,-0.458008,-2.987805,-7.621952,-2.378049,15.843750,-36.231251,2.743750,0.0,1.000000,0.000000,0.000000,0.000000
1782117391.721718,1891149,0.888184,-0.051758,-0.465820,-1.036585,-8.048780,-2.804878,15.843750,-36.231251,2.743750,0.0,1.000000,0.000000,0.000000,0.000000
1782117391.734718,1891162,0.894531,-0.050781,-0.458984,2.621951,-7.317073,-3.292683,15.837501,-36.231251,2.656250,0.0,1.000000,0.000000,0.000000,0.000000
1782117391.742718,1891170,0.892090,-0.039062,-0.445801,3.902439,-7.134147,-3.719512,15.837501,-36.231251,2.656250,0.0,1.000000,0.000000,0.000000,0.000000
1782117391.752718,1891180,0.895508,-0.028809,-0.435547,4.878049,-6.585366,-4.268293,15.862500,-36.218750,2.475000,0.0,1.000000,0.000000,0.000000,0.000000
1782117391.762718,1891190,0.895508,-0.028809,-0.435547,4.878049,-6.585366,-4.268293,15.862500,-36.218750,2.475000,0.0,1.000000,0.000000,0.000000,0.000000
1782117391.772718,1891200,0.892578,-0.001465,-0.436523,5.609756,-6.463415,-4.878049,15.968750,-36.087502,2.318750,0.0,1.000000,0.000000,0.000000,0.000000
1782117391.782718,1891210,0.892578,-0.001465,-0.436523,5.609756,-6.463415,-4.878049,15.968750,-36.087502,2.318750,0.0,1.000000,0.000000,0.000000,0.000000
1782117391.791718,1891219,0.899902,0.012695,-0.435059,4.634146,-6.097561,-4.817073,15.956250,-36.168751,2.262500,0.0,1.000000,0.000000,0.000000,0.000000
1782117391.802718,1891230,0.895508,0.014648,-0.435547,3.292683,-5.792683,-4.390244,15.956250,-36.168751,2.262500,0.0,1.000000,0.000000,0.000000,0.000000
1782117391.813718,1891241,0.891602,0.009766,-0.435059,1.646341,-5.731708,-3.780488,16.000000,-36.168751,2.187500,0.0,1.000000,0.000000,0.000000,0.000000
1782117391.821718,1891249,0.889160,0.005859,-0.435547,0.182927,-5.731708,-3.353659,16.000000,-36.168751,2.187500,0.0,1.000000,0.000000,0.000000,0.000000
1782117391.831718,1891259,0.891113,0.000977,-0.436035,-1.097561,-5.487805,-3.048780,16.031250,-36.143749,2.131250,0.0,1.000000,0.000000,0.000000,0.000000
1782117391.841718,1891269,0.895996,-0.002930,-0.439453,-1.890244,-5.060976,-2.926829,16.031250,-36.143749,2.131250,0.0,1.000000,0.000000,0.000000,0.000000
1782117391.854718,1891282,0.896973,-0.007324,-0.443359,-1.890244,-4.573171,-3.170732,16.050001,-36.181252,2.025000,0.0,1.000000,0.000000,0.000000,0.000000
1782117391.861718,1891289,0.896973,-0.012695,-0.445801,-1.585366,-4.085366,-3.353659,16.050001,-36.181252,2.025000,0.0,1.000000,0.000000,0.000000,0.000000
1782117391.871718,1891299,0.899414,-0.014648,-0.447754,-0.731707,-3.841464,-3.475610,16.156250,-36.087502,1.987500,0.0,1.000000,0.000000,0.000000,0.000000
1782117391.881718,1891309,0.900879,-0.015137,-0.446289,0.121951,-3.902439,-3.475610,16.156250,-36.087502,1.987500,0.0,1.000000,0.000000,0.000000,0.000000
1782117391.892718,1891320,0.907227,-0.012695,-0.440430,0.731707,-4.085366,-3.353659,16.193750,-36.131252,1.993750,0.0,1.000000,0.000000,0.000000,0.000000
1782117391.901718,1891329,0.912598,-0.011719,-0.434082,1.036585,-3.963415,-3.353659,16.193750,-36.131252,1.993750,0.0,1.000000,0.000000,0.000000,0.000000
1782117391.911718,1891339,0.916016,-0.012695,-0.426758,1.463415,-3.780488,-3.414634,16.268751,-36.062500,1.900000,0.0,1.000000,0.000000,0.000000,0.000000
1782117391.921718,1891349,0.917480,-0.017090,-0.420898,2.012195,-3.475610,-3.536585,16.268751,-36.062500,1.900000,0.0,1.000000,0.000000,0.000000,0.000000
1782117391.933718,1891361,0.918457,-0.018066,-0.414551,2.865854,-3.292683,-3.597561,16.268751,-36.062500,1.806250,0.0,1.000000,0.000000,0.000000,0.000000
1782117391.941718,1891369,0.922852,-0.020508,-0.408203,3.597561,-3.109756,-3.536585,16.268751,-36.062500,1.806250,0.0,1.000000,0.000000,0.000000,0.000000
1782117391.951718,1891379,0.927734,-0.020996,-0.398438,4.024390,-2.682927,-3.353659,16.312500,-36.012501,1.750000,0.0,1.000000,0.000000,0.000000,0.000000
1782117391.962718,1891390,0.930664,-0.020508,-0.388672,4.085366,-2.073171,-3.048780,16.312500,-36.012501,1.750000,0.0,1.000000,0.000000,0.000000,0.000000
1782117391.973718,1891401,0.934570,-0.018066,-0.379395,3.780488,-1.585366,-2.621951,16.325001,-36.062500,1.750000,0.0,1.000000,0.000000,0.000000,0.000000
1782117391.981718,1891409,0.936523,-0.013184,-0.371094,3.292683,-0.792683,-2.195122,16.325001,-36.062500,1.750000,0.0,1.000000,0.000000,0.000000,0.000000
1782117391.992718,1891420,0.934570,-0.010254,-0.366699,2.500000,-0.243902,-1.768293,16.368750,-35.975002,1.706250,0.0,1.000000,0.000000,0.000000,0.000000
1782117392.002718,1891430,0.935547,-0.004395,-0.371094,1.585366,0.121951,-1.463415,16.368750,-35.975002,1.706250,0.0,1.000000,0.000000,0.000000,0.000000
1782117392.013718,1891441,0.934082,0.000488,-0.374512,0.731707,0.548781,-1.219512,16.375000,-36.025002,1.675000,0.0,1.000000,0.000000,0.000000,0.000000
1782117392.022718,1891450,0.928711,0.002930,-0.377930,-0.121951,0.792683,-1.036585,16.375000,-36.025002,1.675000,0.0,1.000000,0.000000,0.000000,0.000000
1782117392.031718,1891459,0.927246,0.000488,-0.379395,-0.792683,0.853659,-0.792683,16.450001,-36.006252,1.681250,0.0,1.000000,0.000000,0.000000,0.000000
1782117392.041718,1891469,0.925293,-0.004883,-0.381836,-1.280488,1.036585,-0.487805,16.450001,-36.006252,1.681250,0.0,1.000000,0.000000,0.000000,0.000000
1782117392.054718,1891482,0.922363,-0.009277,-0.384766,-1.585366,1.219512,-0.304878,16.350000,-36.012501,1.687500,0.0,1.000000,0.000000,0.000000,0.000000
1782117392.061718,1891489,0.920898,-0.010254,-0.388672,-1.585366,1.219512,-0.182927,16.350000,-36.012501,1.687500,0.0,1.000000,0.000000,0.000000,0.000000
1782117392.071718,1891499,0.920410,-0.012207,-0.393555,-1.341463,0.792683,-0.121951,16.450001,-35.968750,1.681250,0.0,1.000000,0.000000,0.000000,0.000000
1782117392.081718,1891509,0.924316,-0.012695,-0.395996,-1.097561,0.731707,-0.243902,16.450001,-35.968750,1.681250,0.0,1.000000,0.000000,0.000000,0.000000
1782117392.094718,1891522,0.920898,-0.013672,-0.396973,-0.792683,0.792683,-0.304878,16.406250,-36.031250,1.756250,0.0,1.000000,0.000000,0.000000,0.000000
1782117392.102718,1891530,0.915039,-0.015625,-0.397949,-0.487805,0.548781,-0.243902,16.406250,-36.031250,1.756250,0.0,1.000000,0.000000,0.000000,0.000000
1782117392.111718,1891539,0.911133,-0.014648,-0.400391,-0.426829,0.121951,-0.243902,16.637501,-35.712502,1.618750,0.0,1.000000,0.000000,0.000000,0.000000
1782117392.121718,1891549,0.910645,-0.010254,-0.402832,-0.731707,-0.365854,-0.182927,16.637501,-35.712502,1.618750,0.0,1.000000,0.000000,0.000000,0.000000
1782117392.135718,1891563,0.912109,-0.003418,-0.403320,-1.158537,-0.731707,-0.182927,16.425001,-36.018749,1.800000,0.0,1.000000,0.000000,0.000000,0.000000
1782117392.141718,1891569,0.913574,0.000977,-0.401367,-1.463415,-1.097561,-0.365854,16.425001,-36.018749,1.800000,0.0,1.000000,0.000000,0.000000,0.000000
1782117392.152718,1891580,0.916504,0.000977,-0.400879,-1.768293,-1.341463,-0.365854,16.418751,-36.043751,1.800000,0.0,1.000000,0.000000,0.000000,0.000000
1782117392.162718,1891590,0.918457,0.001465,-0.402344,-2.012195,-1.341463,-0.121951,16.418751,-36.043751,1.800000,0.0,1.000000,0.000000,0.000000,0.000000
1782117392.174718,1891602,0.918457,0.000000,-0.402832,-2.378049,-1.646341,0.121951,16.387501,-36.087502,1.793750,0.0,1.000000,0.000000,0.000000,0.000000
1782117392.181718,1891609,0.923340,-0.002441,-0.399902,-2.560976,-1.585366,0.609756,16.387501,-36.087502,1.793750,0.0,1.000000,0.000000,0.000000,0.000000
1782117392.192718,1891620,0.915527,-0.002441,-0.396973,-2.560976,-1.341463,0.487805,16.487501,-35.993752,1.756250,0.0,1.000000,0.000000,0.000000,0.000000
1782117392.203718,1891631,0.918945,-0.005859,-0.394043,-2.865854,-1.707317,0.670732,16.431250,-36.025002,1.762500,0.0,1.000000,0.000000,0.000000,0.000000
1782117392.212718,1891640,0.919922,-0.006836,-0.393555,-3.109756,-1.280488,0.731707,16.431250,-36.025002,1.762500,0.0,1.000000,0.000000,0.000000,0.000000
1782117392.224718,1891652,0.915527,-0.012207,-0.395508,-2.987805,-1.158537,0.853659,16.456251,-36.018749,1.787500,0.0,1.000000,0.000000,0.000000,0.000000
1782117392.231718,1891659,0.918457,-0.016602,-0.396973,-2.804878,-1.097561,0.853659,16.456251,-36.018749,1.787500,0.0,1.000000,0.000000,0.000000,0.000000
1782117392.241718,1891669,0.919922,-0.015137,-0.401367,-2.682927,-0.792683,0.792683,16.456251,-36.018749,1.787500,0.0,1.000000,0.000000,0.000000,0.000000
1782117392.251718,1891679,0.919434,-0.016113,-0.404785,-2.317073,-0.731707,0.548781,16.425001,-36.131252,1.862500,0.0,1.000000,0.000000,0.000000,0.000000
1782117392.261718,1891689,0.920410,-0.017578,-0.404297,-1.707317,-0.853659,0.000000,16.425001,-36.131252,1.862500,0.0,1.000000,0.000000,0.000000,0.000000
1782117392.271718,1891699,0.913574,-0.021973,-0.409180,-1.097561,-0.121951,0.121951,16.462500,-36.062500,1.762500,0.0,1.000000,0.000000,0.000000,0.000000
1782117392.281718,1891709,0.920410,-0.027832,-0.404785,-0.975610,-0.609756,1.036585,16.462500,-36.062500,1.762500,0.0,1.000000,0.000000,0.000000,0.000000
1782117392.291718,1891719,0.913086,-0.021973,-0.409180,-0.243902,-0.060976,0.975610,16.387501,-36.106251,1.818750,0.0,1.000000,0.000000,0.000000,0.000000
1782117392.301718,1891729,0.911621,-0.017090,-0.408203,0.121951,-0.548781,0.548781,16.387501,-36.106251,1.818750,0.0,1.000000,0.000000,0.000000,0.000000
1782117392.311718,1891739,0.914062,-0.017090,-0.407715,0.487805,-0.487805,0.000000,16.412500,-36.031250,1.818750,0.0,1.000000,0.000000,0.000000,0.000000
1782117392.321718,1891749,0.915527,-0.016113,-0.403809,0.731707,-0.365854,-0.243902,16.412500,-36.031250,1.818750,0.0,1.000000,0.000000,0.000000,0.000000
1782117392.331718,1891759,0.913086,-0.019531,-0.400391,0.914634,-0.121951,0.000000,16.387501,-36.118752,1.831250,0.0,1.000000,0.000000,0.000000,0.000000
1782117392.341718,1891769,0.905762,-0.019531,-0.404785,0.914634,-0.121951,0.060976,16.387501,-36.118752,1.831250,0.0,1.000000,0.000000,0.000000,0.000000
1782117392.351718,1891779,0.907227,-0.017578,-0.412598,0.792683,-0.609756,-0.060976,16.443750,-36.025002,1.718750,0.0,1.000000,0.000000,0.000000,0.000000
1782117392.361718,1891789,0.913086,-0.013184,-0.415527,0.792683,-0.975610,-0.243902,16.443750,-36.025002,1.718750,0.0,1.000000,0.000000,0.000000,0.000000
1782117392.372718,1891800,0.915039,-0.012207,-0.415527,0.914634,-0.792683,-0.304878,16.431250,-35.987499,1.706250,0.0,1.000000,0.000000,0.000000,0.000000
1782117392.381718,1891809,0.914551,-0.013672,-0.410645,1.219512,-0.426829,-0.304878,16.431250,-35.987499,1.706250,0.0,1.000000,0.000000,0.000000,0.000000
1782117392.391718,1891819,0.907227,-0.016113,-0.408691,1.341463,-0.182927,-0.060976,16.512501,-35.924999,1.612500,0.0,1.000000,0.000000,0.000000,0.000000
1782117392.401718,1891829,0.905273,-0.014648,-0.410156,1.158537,-0.243902,0.121951,16.512501,-35.924999,1.612500,0.0,1.000000,0.000000,0.000000,0.000000
1782117392.411718,1891839,0.908691,-0.010254,-0.415527,0.975610,-0.670732,0.000000,16.450001,-36.087502,1.737500,0.0,1.000000,0.000000,0.000000,0.000000
1782117392.421718,1891849,0.913574,-0.009766,-0.418457,1.036585,-0.853659,-0.365854,16.431250,-36.056252,1.693750,0.0,1.000000,0.000000,0.000000,0.000000
1782117392.432718,1891860,0.919434,-0.012695,-0.415527,1.036585,-0.548781,-0.243902,16.431250,-36.056252,1.693750,0.0,1.000000,0.000000,0.000000,0.000000
1782117392.441718,1891869,0.914062,-0.018555,-0.412109,1.768293,0.000000,-0.304878,16.393751,-36.112499,1.718750,0.0,1.000000,0.000000,0.000000,0.000000
1782117392.451718,1891879,0.905273,-0.023438,-0.409180,2.317073,-0.243902,-0.426829,16.393751,-36.112499,1.718750,0.0,1.000000,0.000000,0.000000,0.000000
1782117392.461718,1891889,0.907715,-0.021484,-0.411133,2.439024,-0.670732,-0.121951,16.493750,-36.031250,1.650000,0.0,1.000000,0.000000,0.000000,0.000000
1782117392.471718,1891899,0.911133,-0.011230,-0.416016,2.134146,-0.731707,-0.243902,16.493750,-36.031250,1.650000,0.0,1.000000,0.000000,0.000000,0.000000
1782117392.482718,1891910,0.910156,-0.007324,-0.416016,1.585366,-0.609756,-0.487805,16.406250,-36.156250,1.681250,0.0,1.000000,0.000000,0.000000,0.000000
1782117392.491718,1891919,0.911133,-0.011230,-0.415039,1.341463,-0.670732,-0.365854,16.406250,-36.156250,1.681250,0.0,1.000000,0.000000,0.000000,0.000000
1782117392.501718,1891929,0.908691,-0.011719,-0.411133,1.219512,-0.487805,-0.304878,16.443750,-36.043751,1.606250,0.0,1.000000,0.000000,0.000000,0.000000
1782117392.512718,1891940,0.907715,-0.013672,-0.410156,0.792683,-0.487805,-0.060976,16.443750,-36.043751,1.606250,0.0,1.000000,0.000000,0.000000,0.000000
1782117392.521718,1891949,0.907227,-0.012207,-0.415527,0.304878,-0.609756,0.243902,16.387501,-36.093750,1.650000,0.0,1.000000,0.000000,0.000000,0.000000
1782117392.531718,1891959,0.911621,-0.012695,-0.421387,0.060976,-1.158537,0.548781,16.387501,-36.093750,1.650000,0.0,1.000000,0.000000,0.000000,0.000000
1782117392.541718,1891969,0.910645,-0.006836,-0.421875,-0.060976,-0.853659,0.121951,16.456251,-36.006252,1.543750,0.0,1.000000,0.000000,0.000000,0.000000
1782117392.551718,1891979,0.909180,-0.010254,-0.417969,0.060976,-0.853659,0.000000,16.456251,-36.006252,1.543750,0.0,1.000000,0.000000,0.000000,0.000000
1782117392.562718,1891990,0.905762,-0.013672,-0.413574,0.121951,-0.975610,0.182927,16.393751,-36.056252,1.650000,0.0,1.000000,0.000000,0.000000,0.000000
1782117392.571718,1891999,0.902344,-0.015137,-0.412598,-0.060976,-1.158537,0.182927,16.393751,-36.056252,1.650000,0.0,1.000000,0.000000,0.000000,0.000000
1782117392.582718,1892010,0.902344,-0.012695,-0.420410,-0.487805,-1.524390,0.000000,16.431250,-36.106251,1.606250,0.0,1.000000,0.000000,0.000000,0.000000
1782117392.591718,1892019,0.905273,-0.011719,-0.425781,-0.853659,-1.829268,-0.182927,16.431250,-36.106251,1.606250,0.0,1.000000,0.000000,0.000000,0.000000
1782117392.602718,1892030,0.908691,-0.013184,-0.423828,-0.792683,-1.890244,-0.487805,16.437500,-36.100002,1.600000,0.0,1.000000,0.000000,0.000000,0.000000
1782117392.612718,1892040,0.911621,-0.018555,-0.418457,-0.304878,-1.707317,-0.548781,16.437500,-36.100002,1.600000,0.0,1.000000,0.000000,0.000000,0.000000
1782117392.622718,1892050,0.908203,-0.021973,-0.414551,0.243902,-1.463415,-0.548781,16.456251,-36.087502,1.556250,0.0,1.000000,0.000000,0.000000,0.000000
1782117392.631718,1892059,0.906250,-0.020020,-0.415039,0.304878,-1.646341,-0.426829,16.456251,-36.087502,1.556250,0.0,1.000000,0.000000,0.000000,0.000000
1782117392.641718,1892069,0.905273,-0.014648,-0.421387,0.060976,-1.829268,-0.487805,16.431250,-36.075001,1.581250,0.0,1.000000,0.000000,0.000000,0.000000
1782117392.651718,1892079,0.906250,-0.012207,-0.424805,-0.304878,-2.073171,-0.548781,16.431250,-36.075001,1.581250,0.0,1.000000,0.000000,0.000000,0.000000
1782117392.661718,1892089,0.909668,-0.012207,-0.422363,-0.609756,-2.256098,-0.426829,16.468750,-36.087502,1.556250,0.0,1.000000,0.000000,0.000000,0.000000
1782117392.671718,1892099,0.910645,-0.015137,-0.416016,-0.670732,-2.256098,-0.304878,16.468750,-36.087502,1.556250,0.0,1.000000,0.000000,0.000000,0.000000
1782117392.681718,1892109,0.907227,-0.018555,-0.411133,-0.853659,-2.012195,-0.060976,16.462500,-36.131252,1.518750,0.0,1.000000,0.000000,0.000000,0.000000
1782117392.691718,1892119,0.907227,-0.018066,-0.412109,-1.036585,-1.829268,0.060976,16.462500,-36.131252,1.518750,0.0,1.000000,0.000000,0.000000,0.000000
1782117392.701718,1892129,0.912598,-0.012207,-0.419434,-1.219512,-1.768293,-0.365854,16.481251,-36.106251,1.518750,0.0,1.000000,0.000000,0.000000,0.000000
1782117392.711718,1892139,0.913574,-0.015137,-0.415527,-1.097561,-1.768293,-0.304878,16.481251,-36.106251,1.518750,0.0,1.000000,0.000000,0.000000,0.000000
1782117392.721718,1892149,0.915039,-0.018555,-0.411133,-0.914634,-1.463415,-0.182927,16.593750,-35.943752,1.325000,0.0,1.000000,0.000000,0.000000,0.000000
1782117392.731718,1892159,0.912598,-0.020996,-0.409180,-0.853659,-1.280488,0.000000,16.593750,-35.943752,1.325000,0.0,1.000000,0.000000,0.000000,0.000000
1782117392.741718,1892169,0.910645,-0.018555,-0.413574,-1.219512,-1.280488,0.060976,16.612501,-35.975002,1.387500,0.0,1.000000,0.000000,0.000000,0.000000
1782117392.751718,1892179,0.912109,-0.017578,-0.417480,-1.463415,-1.280488,0.000000,16.612501,-35.975002,1.387500,0.0,1.000000,0.000000,0.000000,0.000000
1782117392.761718,1892189,0.910645,-0.016113,-0.418945,-1.463415,-1.219512,-0.182927,16.506250,-36.049999,1.431250,0.0,1.000000,0.000000,0.000000,0.000000
1782117392.771718,1892199,0.914551,-0.019043,-0.416016,-1.097561,-1.097561,-0.121951,16.506250,-36.049999,1.431250,0.0,1.000000,0.000000,0.000000,0.000000
1782117392.782718,1892210,0.913574,-0.020996,-0.413574,-0.670732,-0.853659,-0.121951,16.468750,-36.150002,1.406250,0.0,1.000000,0.000000,0.000000,0.000000
1782117392.792718,1892220,0.909180,-0.022461,-0.411621,-0.548781,-0.426829,0.182927,16.468750,-36.150002,1.406250,0.0,1.000000,0.000000,0.000000,0.000000
1782117392.802718,1892230,0.906738,-0.015625,-0.415527,-0.914634,-0.426829,0.304878,16.462500,-36.150002,1.450000,0.0,1.000000,0.000000,0.000000,0.000000
1782117392.811718,1892239,0.907715,-0.010254,-0.418945,-1.402439,-0.548781,0.243902,16.462500,-36.150002,1.450000,0.0,1.000000,0.000000,0.000000,0.000000
1782117392.821718,1892249,0.908203,-0.011719,-0.420410,-1.585366,-0.609756,0.060976,16.425001,-36.193752,1.468750,0.0,1.000000,0.000000,0.000000,0.000000
1782117392.832718,1892260,0.910645,-0.015625,-0.416504,-1.402439,-0.609756,0.000000,16.425001,-36.193752,1.468750,0.0,1.000000,0.000000,0.000000,0.000000
1782117392.841718,1892269,0.910645,-0.019043,-0.414551,-1.036585,-0.426829,0.000000,16.550001,-35.956249,1.400000,0.0,1.000000,0.000000,0.000000,0.000000
1782117392.851718,1892279,0.905273,-0.020508,-0.414551,-0.975610,-0.304878,0.060976,16.550001,-35.956249,1.400000,0.0,1.000000,0.000000,0.000000,0.000000
1782117392.861718,1892289,0.906250,-0.017090,-0.419434,-1.036585,-0.487805,-0.121951,16.456251,-36.168751,1.468750,0.0,1.000000,0.000000,0.000000,0.000000
1782117392.871718,1892299,0.908203,-0.014648,-0.420410,-1.158537,-0.487805,-0.243902,16.456251,-36.168751,1.468750,0.0,1.000000,0.000000,0.000000,0.000000
1782117392.883718,1892311,0.912109,-0.015137,-0.419434,-1.341463,-0.548781,-0.243902,16.475000,-36.156250,1.487500,0.0,1.000000,0.000000,0.000000,0.000000
1782117392.891718,1892319,0.912109,-0.013672,-0.416504,-1.402439,-0.365854,-0.243902,16.475000,-36.156250,1.487500,0.0,1.000000,0.000000,0.000000,0.000000
1782117392.901718,1892329,0.910156,-0.017090,-0.412109,-1.341463,-0.121951,-0.121951,16.481251,-36.181252,1.468750,0.0,1.000000,0.000000,0.000000,0.000000
1782117392.912718,1892340,0.906250,-0.016602,-0.413574,-1.402439,-0.060976,0.000000,16.481251,-36.181252,1.468750,0.0,1.000000,0.000000,0.000000,0.000000
1782117392.921718,1892349,0.908203,-0.012695,-0.416504,-1.524390,-0.182927,0.000000,16.468750,-36.137501,1.556250,0.0,1.000000,0.000000,0.000000,0.000000
1782117392.931718,1892359,0.910156,-0.012207,-0.416016,-1.646341,-0.182927,0.000000,16.468750,-36.137501,1.556250,0.0,1.000000,0.000000,0.000000,0.000000
1782117392.943718,1892371,0.911621,-0.014648,-0.413086,-1.585366,-0.060976,0.121951,16.487501,-36.243752,1.562500,0.0,1.000000,0.000000,0.000000,0.000000
1782117392.951718,1892379,0.913086,-0.017578,-0.411133,-1.524390,0.000000,0.060976,16.487501,-36.243752,1.562500,0.0,1.000000,0.000000,0.000000,0.000000
1782117392.961718,1892389,0.914062,-0.019531,-0.409668,-1.402439,0.304878,0.182927,16.493750,-36.131252,1.487500,0.0,1.000000,0.000000,0.000000,0.000000
1782117392.971718,1892399,0.911621,-0.018555,-0.411133,-1.524390,0.365854,0.304878,16.493750,-36.131252,1.487500,0.0,1.000000,0.000000,0.000000,0.000000
1782117392.981718,1892409,0.911621,-0.016113,-0.414062,-1.707317,0.243902,0.243902,16.500000,-36.106251,1.593750,0.0,1.000000,0.000000,0.000000,0.000000
1782117392.992718,1892420,0.911133,-0.013184,-0.415527,-1.829268,0.182927,0.121951,16.500000,-36.106251,1.593750,0.0,1.000000,0.000000,0.000000,0.000000
1782117393.001718,1892429,0.909668,-0.013184,-0.412598,-1.585366,0.060976,0.060976,16.587500,-35.937500,1.512500,0.0,1.000000,0.000000,0.000000,0.000000
1782117393.011718,1892439,0.908691,-0.014648,-0.411133,-1.219512,0.060976,-0.060976,16.587500,-35.937500,1.512500,0.0,1.000000,0.000000,0.000000,0.000000
1782117393.022718,1892450,0.906738,-0.016113,-0.411133,-1.036585,0.060976,0.060976,16.550001,-36.000000,1.462500,0.0,1.000000,0.000000,0.000000,0.000000
1782117393.031718,1892459,0.906738,-0.014648,-0.412598,-1.036585,-0.304878,0.060976,16.550001,-36.000000,1.462500,0.0,1.000000,0.000000,0.000000,0.000000
1782117393.041718,1892469,0.910645,-0.011719,-0.414551,-1.341463,-0.487805,0.060976,16.437500,-36.250000,1.687500,0.0,1.000000,0.000000,0.000000,0.000000
1782117393.051718,1892479,0.912109,-0.009766,-0.416504,-1.768293,-0.609756,0.000000,16.437500,-36.250000,1.687500,0.0,1.000000,0.000000,0.000000,0.000000
1782117393.061718,1892489,0.908203,-0.012695,-0.414062,-2.195122,-0.609756,0.121951,16.500000,-36.112499,1.537500,0.0,1.000000,0.000000,0.000000,0.000000
1782117393.071718,1892499,0.908203,-0.014648,-0.410156,-2.012195,-0.609756,0.182927,16.500000,-36.112499,1.537500,0.0,1.000000,0.000000,0.000000,0.000000
1782117393.081718,1892509,0.909668,-0.019043,-0.409180,-1.463415,-0.548781,0.000000,16.493750,-36.162502,1.587500,0.0,1.000000,0.000000,0.000000,0.000000
1782117393.091718,1892519,0.909180,-0.024902,-0.409180,-0.975610,-0.670732,0.060976,16.493750,-36.162502,1.587500,0.0,1.000000,0.000000,0.000000,0.000000
1782117393.101718,1892529,0.912109,-0.016602,-0.411621,-1.097561,-0.731707,0.121951,16.462500,-36.181252,1.637500,0.0,1.000000,0.000000,0.000000,0.000000
1782117393.111718,1892539,0.916016,-0.008301,-0.414551,-1.341463,-0.792683,-0.182927,16.462500,-36.181252,1.637500,0.0,1.000000,0.000000,0.000000,0.000000
1782117393.122718,1892550,0.910645,-0.009766,-0.411621,-1.524390,-0.731707,-0.182927,16.431250,-36.256252,1.668750,0.0,1.000000,0.000000,0.000000,0.000000
1782117393.131718,1892559,0.906738,-0.014648,-0.407227,-1.341463,-0.853659,-0.121951,16.431250,-36.256252,1.668750,0.0,1.000000,0.000000,0.000000,0.000000
1782117393.141718,1892569,0.904297,-0.017578,-0.409180,-1.097561,-1.097561,-0.060976,16.468750,-36.243752,1.650000,0.0,1.000000,0.000000,0.000000,0.000000
1782117393.151718,1892579,0.911133,-0.016113,-0.411621,-0.975610,-1.280488,-0.060976,16.468750,-36.243752,1.650000,0.0,1.000000,0.000000,0.000000,0.000000
1782117393.161718,1892589,0.913574,-0.014648,-0.414551,-0.914634,-1.036585,-0.182927,16.506250,-36.162502,1.612500,0.0,1.000000,0.000000,0.000000,0.000000
1782117393.171718,1892599,0.915527,-0.015625,-0.415527,-0.792683,-0.975610,-0.121951,16.506250,-36.162502,1.612500,0.0,1.000000,0.000000,0.000000,0.000000
1782117393.182718,1892610,0.917969,-0.014160,-0.414551,-0.670732,-0.975610,0.000000,16.443750,-36.212502,1.643750,0.0,1.000000,0.000000,0.000000,0.000000
1782117393.191718,1892619,0.918457,-0.015625,-0.410156,-0.548781,-0.426829,0.121951,16.443750,-36.212502,1.643750,0.0,1.000000,0.000000,0.000000,0.000000
1782117393.201718,1892629,0.914551,-0.016113,-0.408691,-0.365854,-0.243902,0.304878,16.412500,-36.318752,1.668750,0.0,1.000000,0.000000,0.000000,0.000000
1782117393.211718,1892639,0.911621,-0.013184,-0.406250,-0.304878,-0.243902,0.304878,16.412500,-36.318752,1.668750,0.0,1.000000,0.000000,0.000000,0.000000
1782117393.222718,1892650,0.912598,-0.007812,-0.406738,-0.609756,-0.304878,0.121951,16.375000,-36.281250,1.681250,0.0,1.000000,0.000000,0.000000,0.000000
1782117393.232718,1892660,0.914551,-0.008301,-0.409180,-0.914634,-0.121951,0.121951,16.375000,-36.281250,1.681250,0.0,1.000000,0.000000,0.000000,0.000000
1782117393.241718,1892669,0.916016,-0.011230,-0.410156,-0.792683,0.121951,0.365854,16.475000,-36.237499,1.612500,0.0,1.000000,0.000000,0.000000,0.000000
1782117393.252718,1892680,0.912598,-0.014160,-0.408691,-0.670732,0.426829,0.487805,16.475000,-36.237499,1.612500,0.0,1.000000,0.000000,0.000000,0.000000
1782117393.263718,1892691,0.914062,-0.015625,-0.411133,-0.670732,0.365854,0.548781,16.375000,-36.287502,1.687500,0.0,1.000000,0.000000,0.000000,0.000000
1782117393.272718,1892700,0.913574,-0.016113,-0.416504,-0.731707,0.487805,0.670732,16.375000,-36.287502,1.687500,0.0,1.000000,0.000000,0.000000,0.000000
1782117393.281718,1892709,0.912109,-0.016113,-0.416016,-0.609756,0.426829,0.670732,16.425001,-36.237499,1.656250,0.0,1.000000,0.000000,0.000000,0.000000
1782117393.292718,1892720,0.911133,-0.015137,-0.419922,-0.365854,0.609756,0.426829,16.425001,-36.237499,1.656250,0.0,1.000000,0.000000,0.000000,0.000000
1782117393.302718,1892730,0.911133,-0.016113,-0.414062,-0.365854,0.121951,0.426829,16.368750,-36.306252,1.693750,0.0,1.000000,0.000000,0.000000,0.000000
1782117393.313718,1892741,0.910645,-0.014648,-0.413086,-0.365854,0.365854,0.609756,16.368750,-36.306252,1.693750,0.0,1.000000,0.000000,0.000000,0.000000
1782117393.322718,1892750,0.907715,-0.013672,-0.412109,-0.426829,0.243902,0.609756,16.487501,-36.218750,1.575000,0.0,1.000000,0.000000,0.000000,0.000000
1782117393.332718,1892760,0.908691,-0.014160,-0.410645,-0.426829,0.609756,0.243902,16.487501,-36.218750,1.575000,0.0,1.000000,0.000000,0.000000,0.000000
1782117393.344718,1892772,0.907715,-0.018066,-0.417969,-0.426829,0.975610,0.182927,16.431250,-36.287502,1.750000,0.0,1.000000,0.000000,0.000000,0.000000
1782117393.351718,1892779,0.904297,-0.019531,-0.421875,-0.182927,0.792683,0.243902,16.431250,-36.287502,1.750000,0.0,1.000000,0.000000,0.000000,0.000000
1782117393.362718,1892790,0.905273,-0.018066,-0.421387,0.182927,0.731707,0.365854,16.425001,-36.299999,1.737500,0.0,1.000000,0.000000,0.000000,0.000000
1782117393.372718,1892800,0.905273,-0.013672,-0.418945,0.609756,0.548781,0.426829,16.425001,-36.299999,1.737500,0.0,1.000000,0.000000,0.000000,0.000000
1782117393.382718,1892810,0.906250,-0.010254,-0.416016,0.914634,0.426829,0.182927,16.343750,-36.337502,1.750000,0.0,1.000000,0.000000,0.000000,0.000000
1782117393.391718,1892819,0.907227,-0.013672,-0.417480,0.853659,0.243902,-0.121951,16.343750,-36.337502,1.750000,0.0,1.000000,0.000000,0.000000,0.000000
1782117393.402718,1892830,0.906738,-0.019043,-0.420898,0.609756,0.731707,0.182927,16.375000,-36.287502,1.750000,0.0,1.000000,0.000000,0.000000,0.000000
1782117393.412718,1892840,0.905762,-0.016113,-0.421387,0.731707,0.243902,-0.182927,16.375000,-36.287502,1.750000,0.0,1.000000,0.000000,0.000000,0.000000
1782117393.424718,1892852,0.912598,-0.018555,-0.421387,0.670732,0.426829,0.426829,16.318750,-36.362499,1.806250,0.0,1.000000,0.000000,0.000000,0.000000
1782117393.432718,1892860,0.903809,-0.015137,-0.417969,0.914634,0.548781,0.243902,16.318750,-36.362499,1.806250,0.0,1.000000,0.000000,0.000000,0.000000
1782117393.441718,1892869,0.902344,-0.012207,-0.419434,0.914634,0.182927,0.000000,16.393751,-36.275002,1.718750,0.0,1.000000,0.000000,0.000000,0.000000
1782117393.451718,1892879,0.907227,-0.008301,-0.420898,0.609756,-0.121951,-0.182927,16.393751,-36.275002,1.718750,0.0,1.000000,0.000000,0.000000,0.000000
1782117393.463718,1892891,0.909668,-0.008301,-0.420898,0.426829,0.121951,-0.060976,16.356251,-36.368752,1.768750,0.0,1.000000,0.000000,0.000000,0.000000
1782117393.471718,1892899,0.903320,-0.010742,-0.418945,0.182927,0.182927,0.060976,16.356251,-36.368752,1.768750,0.0,1.000000,0.000000,0.000000,0.000000
1782117393.481718,1892909,0.903809,-0.010742,-0.417969,0.121951,-0.182927,0.060976,16.331251,-36.337502,1.793750,0.0,1.000000,0.000000,0.000000,0.000000
1782117393.491718,1892919,0.909180,-0.013672,-0.418457,-0.060976,-0.121951,0.060976,16.331251,-36.337502,1.793750,0.0,1.000000,0.000000,0.000000,0.000000
1782117393.501718,1892929,0.907715,-0.014160,-0.419922,0.000000,0.000000,0.000000,16.287500,-36.387501,1.781250,0.0,1.000000,0.000000,0.000000,0.000000
1782117393.511718,1892939,0.906250,-0.016602,-0.422363,0.182927,0.000000,0.060976,16.287500,-36.387501,1.781250,0.0,1.000000,0.000000,0.000000,0.000000
1782117393.521718,1892949,0.907227,-0.018066,-0.420898,0.548781,-0.060976,0.000000,16.368750,-36.343750,1.800000,0.0,1.000000,0.000000,0.000000,0.000000
1782117393.531718,1892959,0.908203,-0.019531,-0.417969,0.853659,0.000000,0.000000,16.368750,-36.343750,1.800000,0.0,1.000000,0.000000,0.000000,0.000000
1782117393.541718,1892969,0.906250,-0.020508,-0.416992,0.914634,0.121951,-0.060976,16.331251,-36.431252,1.818750,0.0,1.000000,0.000000,0.000000,0.000000
1782117393.551718,1892979,0.905273,-0.018066,-0.415527,0.914634,-0.060976,-0.121951,16.331251,-36.431252,1.818750,0.0,1.000000,0.000000,0.000000,0.000000
1782117393.561718,1892989,0.909180,-0.020508,-0.417480,0.670732,-0.060976,-0.060976,16.381250,-36.393749,1.800000,0.0,1.000000,0.000000,0.000000,0.000000
1782117393.571718,1892999,0.909180,-0.018555,-0.416992,0.670732,0.243902,0.060976,16.381250,-36.393749,1.800000,0.0,1.000000,0.000000,0.000000,0.000000
1782117393.581718,1893009,0.907715,-0.016113,-0.416016,0.548781,0.182927,-0.243902,16.356251,-36.450001,1.825000,0.0,1.000000,0.000000,0.000000,0.000000
1782117393.592718,1893020,0.912109,-0.019043,-0.414551,0.792683,0.060976,-0.121951,16.356251,-36.450001,1.825000,0.0,1.000000,0.000000,0.000000,0.000000
1782117393.602718,1893030,0.911621,-0.018555,-0.411133,1.585366,0.609756,0.000000,16.437500,-36.331249,1.775000,0.0,1.000000,0.000000,0.000000,0.000000
1782117393.611718,1893039,0.911621,-0.019043,-0.410156,1.768293,0.365854,-0.060976,16.437500,-36.331249,1.775000,0.0,1.000000,0.000000,0.000000,0.000000
1782117393.621718,1893049,0.913574,-0.019043,-0.408203,1.707317,0.487805,-0.121951,16.375000,-36.287502,1.750000,0.0,1.000000,0.000000,0.000000,0.000000
1782117393.631718,1893059,0.915039,-0.019043,-0.406250,1.463415,0.609756,-0.121951,16.375000,-36.287502,1.750000,0.0,1.000000,0.000000,0.000000,0.000000
1782117393.642718,1893070,0.914062,-0.021484,-0.407227,1.219512,0.670732,-0.121951,16.581251,-36.037502,1.537500,0.0,1.000000,0.000000,0.000000,0.000000
1782117393.652718,1893080,0.913086,-0.022461,-0.407715,1.097561,0.609756,0.000000,16.581251,-36.037502,1.537500,0.0,1.000000,0.000000,0.000000,0.000000
1782117393.662718,1893090,0.911133,-0.020996,-0.410156,0.853659,0.548781,0.000000,16.325001,-36.456249,1.843750,0.0,1.000000,0.000000,0.000000,0.000000
1782117393.672718,1893100,0.914062,-0.020508,-0.410156,0.609756,0.426829,0.000000,16.325001,-36.456249,1.843750,0.0,1.000000,0.000000,0.000000,0.000000
1782117393.682718,1893110,0.914062,-0.020508,-0.410645,0.426829,0.548781,0.060976,16.400000,-36.325001,1.731250,0.0,1.000000,0.000000,0.000000,0.000000
1782117393.691718,1893119,0.914062,-0.020508,-0.410645,0.304878,0.609756,0.121951,16.400000,-36.325001,1.731250,0.0,1.000000,0.000000,0.000000,0.000000
1782117393.702718,1893130,0.910156,-0.020996,-0.409180,0.365854,0.670732,0.243902,16.387501,-36.481251,1.800000,0.0,1.000000,0.000000,0.000000,0.000000
1782117393.712718,1893140,0.909180,-0.020508,-0.407715,0.487805,0.609756,0.243902,16.387501,-36.481251,1.800000,0.0,1.000000,0.000000,0.000000,0.000000
1782117393.721718,1893149,0.909180,-0.020020,-0.409180,0.487805,0.365854,0.243902,16.368750,-36.312500,1.793750,0.0,1.000000,0.000000,0.000000,0.000000
1782117393.731718,1893159,0.909668,-0.020020,-0.411133,0.426829,0.365854,0.182927,16.368750,-36.312500,1.793750,0.0,1.000000,0.000000,0.000000,0.000000
1782117393.741718,1893169,0.912598,-0.020020,-0.410156,0.243902,0.243902,0.121951,16.312500,-36.475002,1.806250,0.0,1.000000,0.000000,0.000000,0.000000
1782117393.751718,1893179,0.914062,-0.020508,-0.407715,0.243902,0.243902,0.060976,16.312500,-36.475002,1.806250,0.0,1.000000,0.000000,0.000000,0.000000
1782117393.761718,1893189,0.914551,-0.023438,-0.407227,0.243902,0.243902,-0.060976,16.387501,-36.356251,1.818750,0.0,1.000000,0.000000,0.000000,0.000000
1782117393.771718,1893199,0.913086,-0.023926,-0.408203,0.426829,0.365854,-0.060976,16.387501,-36.356251,1.818750,0.0,1.000000,0.000000,0.000000,0.000000
1782117393.781718,1893209,0.910645,-0.023926,-0.406738,0.548781,0.243902,-0.121951,16.406250,-36.393749,1.800000,0.0,1.000000,0.000000,0.000000,0.000000
1782117393.791718,1893219,0.911133,-0.024902,-0.406738,0.731707,0.060976,-0.121951,16.406250,-36.393749,1.800000,0.0,1.000000,0.000000,0.000000,0.000000
1782117393.801718,1893229,0.913086,-0.022949,-0.407227,0.853659,-0.060976,-0.121951,16.400000,-36.406250,1.787500,0.0,1.000000,0.000000,0.000000,0.000000
1782117393.811718,1893239,0.913086,-0.021973,-0.409180,0.731707,-0.182927,-0.121951,16.400000,-36.406250,1.787500,0.0,1.000000,0.000000,0.000000,0.000000
1782117393.822718,1893250,0.912109,-0.022461,-0.408691,0.548781,-0.243902,-0.121951,16.356251,-36.487499,1.881250,0.0,1.000000,0.000000,0.000000,0.000000
1782117393.832718,1893260,0.912109,-0.020508,-0.408203,0.609756,-0.365854,-0.121951,16.356251,-36.487499,1.881250,0.0,1.000000,0.000000,0.000000,0.000000
1782117393.842718,1893270,0.911621,-0.021973,-0.406738,0.609756,-0.365854,-0.182927,16.425001,-36.325001,1.812500,0.0,1.000000,0.000000,0.000000,0.000000
1782117393.851718,1893279,0.911621,-0.023438,-0.407227,0.548781,-0.487805,-0.243902,16.425001,-36.325001,1.812500,0.0,1.000000,0.000000,0.000000,0.000000
1782117393.861718,1893289,0.916016,-0.023438,-0.407715,0.670732,-0.548781,-0.304878,16.412500,-36.381252,1.787500,0.0,1.000000,0.000000,0.000000,0.000000
1782117393.872718,1893300,0.917480,-0.026855,-0.406250,0.975610,-0.365854,-0.304878,16.412500,-36.381252,1.787500,0.0,1.000000,0.000000,0.000000,0.000000
1782117393.881718,1893309,0.916016,-0.025391,-0.406250,1.097561,-0.243902,-0.182927,16.393751,-36.412502,1.806250,0.0,1.000000,0.000000,0.000000,0.000000
1782117393.891718,1893319,0.916016,-0.023926,-0.404785,1.280488,-0.182927,-0.243902,16.393751,-36.412502,1.806250,0.0,1.000000,0.000000,0.000000,0.000000
1782117393.901718,1893329,0.914062,-0.024902,-0.400879,1.402439,-0.182927,-0.243902,16.431250,-36.312500,1.737500,0.0,1.000000,0.000000,0.000000,0.000000
1782117393.911718,1893339,0.913086,-0.024902,-0.401367,1.524390,-0.182927,-0.365854,16.431250,-36.312500,1.737500,0.0,1.000000,0.000000,0.000000,0.000000
1782117393.921718,1893349,0.912598,-0.024414,-0.399902,1.585366,-0.304878,-0.487805,16.350000,-36.462502,1.806250,0.0,1.000000,0.000000,0.000000,0.000000
1782117393.931718,1893359,0.913086,-0.025391,-0.401855,1.585366,-0.243902,-0.487805,16.350000,-36.462502,1.806250,0.0,1.000000,0.000000,0.000000,0.000000
1782117393.941718,1893369,0.916016,-0.024902,-0.402832,1.463415,-0.243902,-0.548781,16.331251,-36.500000,1.837500,0.0,1.000000,0.000000,0.000000,0.000000
1782117393.951718,1893379,0.916504,-0.023438,-0.404785,1.524390,-0.182927,-0.548781,16.331251,-36.500000,1.837500,0.0,1.000000,0.000000,0.000000,0.000000
1782117393.961718,1893389,0.916016,-0.024902,-0.407227,1.524390,-0.060976,-0.426829,16.393751,-36.393749,1.787500,0.0,1.000000,0.000000,0.000000,0.000000
1782117393.971718,1893399,0.913574,-0.024414,-0.407227,1.524390,-0.121951,-0.365854,16.393751,-36.393749,1.787500,0.0,1.000000,0.000000,0.000000,0.000000
1782117393.981718,1893409,0.914551,-0.024902,-0.406250,1.402439,-0.121951,-0.365854,16.356251,-36.487499,1.825000,0.0,1.000000,0.000000,0.000000,0.000000
1782117393.992718,1893420,0.914062,-0.024414,-0.404785,1.280488,-0.121951,-0.304878,16.375000,-36.437500,1.718750,0.0,1.000000,0.000000,0.000000,0.000000
1782117394.002718,1893430,0.912598,-0.022949,-0.405762,0.975610,-0.060976,-0.304878,16.375000,-36.437500,1.718750,0.0,1.000000,0.000000,0.000000,0.000000
1782117394.011718,1893439,0.912598,-0.022461,-0.408203,0.670732,-0.121951,-0.304878,16.393751,-36.393749,1.768750,0.0,1.000000,0.000000,0.000000,0.000000
1782117394.022718,1893450,0.911133,-0.022949,-0.409668,0.426829,-0.243902,-0.304878,16.393751,-36.393749,1.768750,0.0,1.000000,0.000000,0.000000,0.000000
1782117394.031718,1893459,0.911621,-0.022461,-0.409668,0.426829,-0.365854,-0.304878,16.418751,-36.412502,1.706250,0.0,1.000000,0.000000,0.000000,0.000000
1782117394.041718,1893469,0.912109,-0.024902,-0.408691,0.487805,-0.365854,-0.304878,16.418751,-36.412502,1.706250,0.0,1.000000,0.000000,0.000000,0.000000
1782117394.051718,1893479,0.910645,-0.025879,-0.408203,0.548781,-0.365854,-0.304878,16.331251,-36.481251,1.756250,0.0,1.000000,0.000000,0.000000,0.000000
1782117394.061718,1893489,0.913574,-0.025879,-0.409180,0.548781,-0.304878,-0.243902,16.331251,-36.481251,1.756250,0.0,1.000000,0.000000,0.000000,0.000000
1782117394.073718,1893501,0.914062,-0.025391,-0.409180,0.487805,-0.304878,-0.243902,16.387501,-36.437500,1.731250,0.0,1.000000,0.000000,0.000000,0.000000
1782117394.082718,1893510,0.914062,-0.024414,-0.409180,0.426829,-0.243902,-0.243902,16.387501,-36.437500,1.731250,0.0,1.000000,0.000000,0.000000,0.000000
1782117394.092718,1893520,0.915527,-0.023438,-0.408203,0.304878,-0.182927,-0.182927,16.418751,-36.406250,1.712500,0.0,1.000000,0.000000,0.000000,0.000000
1782117394.102718,1893530,0.912598,-0.025391,-0.410156,0.060976,-0.060976,-0.243902,16.418751,-36.406250,1.712500,0.0,1.000000,0.000000,0.000000,0.000000
1782117394.113718,1893541,0.910645,-0.026367,-0.409668,0.000000,0.000000,-0.182927,16.437500,-36.431252,1.700000,0.0,1.000000,0.000000,0.000000,0.000000
1782117394.121718,1893549,0.911133,-0.025391,-0.409668,0.182927,-0.121951,-0.304878,16.437500,-36.431252,1.700000,0.0,1.000000,0.000000,0.000000,0.000000
1782117394.131718,1893559,0.909668,-0.024414,-0.409668,0.060976,-0.182927,-0.243902,16.300001,-36.543751,1.756250,0.0,1.000000,0.000000,0.000000,0.000000
1782117394.141718,1893569,0.911133,-0.025391,-0.410645,0.000000,-0.304878,-0.304878,16.300001,-36.543751,1.756250,0.0,1.000000,0.000000,0.000000,0.000000
1782117394.151718,1893579,0.911621,-0.026367,-0.409668,0.060976,-0.304878,-0.365854,16.325001,-36.562500,1.762500,0.0,1.000000,0.000000,0.000000,0.000000
1782117394.161718,1893589,0.911621,-0.028320,-0.408691,0.182927,-0.304878,-0.304878,16.325001,-36.562500,1.762500,0.0,1.000000,0.000000,0.000000,0.000000
1782117394.171718,1893599,0.910645,-0.028320,-0.408691,0.121951,-0.243902,-0.304878,16.362501,-36.437500,1.675000,0.0,1.000000,0.000000,0.000000,0.000000
1782117394.181718,1893609,0.909668,-0.027344,-0.409668,0.121951,-0.304878,-0.365854,16.362501,-36.437500,1.675000,0.0,1.000000,0.000000,0.000000,0.000000
1782117394.192718,1893620,0.909180,-0.026855,-0.409180,0.000000,-0.365854,-0.426829,16.406250,-36.456249,1.743750,0.0,1.000000,0.000000,0.000000,0.000000
1782117394.201718,1893629,0.912598,-0.027832,-0.409668,-0.060976,-0.548781,-0.487805,16.406250,-36.456249,1.743750,0.0,1.000000,0.000000,0.000000,0.000000
1782117394.211718,1893639,0.914062,-0.027344,-0.409180,-0.121951,-0.487805,-0.548781,16.381250,-36.437500,1.706250,0.0,1.000000,0.000000,0.000000,0.000000
1782117394.221718,1893649,0.913574,-0.028320,-0.410645,-0.060976,-0.426829,-0.548781,16.381250,-36.437500,1.706250,0.0,1.000000,0.000000,0.000000,0.000000
1782117394.232718,1893660,0.913574,-0.028320,-0.411133,0.121951,-0.365854,-0.548781,16.343750,-36.456249,1.693750,0.0,1.000000,0.000000,0.000000,0.000000
1782117394.241718,1893669,0.914062,-0.027344,-0.410156,0.243902,-0.304878,-0.609756,16.343750,-36.456249,1.693750,0.0,1.000000,0.000000,0.000000,0.000000
1782117394.251718,1893679,0.911133,-0.027832,-0.412109,0.304878,-0.304878,-0.548781,16.393751,-36.431252,1.725000,0.0,1.000000,0.000000,0.000000,0.000000
1782117394.262718,1893690,0.914062,-0.026855,-0.410156,0.426829,-0.487805,-0.670732,16.393751,-36.431252,1.725000,0.0,1.000000,0.000000,0.000000,0.000000
1782117394.272718,1893700,0.913574,-0.028320,-0.408691,0.426829,-0.365854,-0.609756,16.412500,-36.412502,1.675000,0.0,1.000000,0.000000,0.000000,0.000000
1782117394.281718,1893709,0.913574,-0.029785,-0.407715,0.365854,-0.304878,-0.548781,16.412500,-36.412502,1.675000,0.0,1.000000,0.000000,0.000000,0.000000
1782117394.291718,1893719,0.915039,-0.027832,-0.410645,0.487805,-0.304878,-0.670732,16.362501,-36.418751,1.681250,0.0,1.000000,0.000000,0.000000,0.000000
1782117394.301718,1893729,0.911133,-0.025391,-0.412598,0.365854,-0.243902,-0.670732,16.362501,-36.418751,1.681250,0.0,1.000000,0.000000,0.000000,0.000000
1782117394.311718,1893739,0.910645,-0.023438,-0.415039,0.182927,-0.304878,-0.670732,16.400000,-36.406250,1.668750,0.0,1.000000,0.000000,0.000000,0.000000
1782117394.322718,1893750,0.911621,-0.021484,-0.409668,0.304878,-0.304878,-0.792683,16.400000,-36.406250,1.668750,0.0,1.000000,0.000000,0.000000,0.000000
1782117394.331718,1893759,0.912109,-0.023926,-0.407715,0.060976,-0.121951,-0.731707,16.393751,-36.368752,1.637500,0.0,1.000000,0.000000,0.000000,0.000000
