Unix_Time_s,IMU1_RefTime,ax_g,ay_g,az_g,gx_dps,gy_dps,gz_dps,mx_uT,my_uT,mz_uT,temp_C,qw,qx,qy,qz
1782117388.241718,1891602,-0.966797,0.034180,-0.268555,0.426829,0.243902,0.792683,-4.806250,39.493752,-2.650000,0.0,1.000000,0.000000,0.000000,0.000000
1782117388.249718,1891610,-0.968750,0.033691,-0.267578,0.365854,0.243902,0.914634,-4.812500,39.462502,-2.656250,0.0,1.000000,0.000000,0.000000,0.000000
1782117388.259718,1891620,-0.968750,0.032715,-0.268555,0.548781,0.000000,0.853659,-4.812500,39.462502,-2.656250,0.0,1.000000,0.000000,0.000000,0.000000
1782117388.269718,1891630,-0.968750,0.031738,-0.266602,0.792683,0.000000,0.853659,-4.887500,39.437500,-2.706250,0.0,1.000000,0.000000,0.000000,0.000000
1782117388.279718,1891640,-0.968750,0.031250,-0.267090,0.853659,-0.121951,0.792683,-4.887500,39.437500,-2.706250,0.0,1.000000,0.000000,0.000000,0.000000
1782117388.289718,1891650,-0.968750,0.032715,-0.266602,0.914634,-0.182927,0.792683,-4.793750,39.487499,-2.675000,0.0,1.000000,0.000000,0.000000,0.000000
1782117388.299718,1891660,-0.966309,0.031738,-0.265137,0.914634,-0.182927,0.731707,-4.793750,39.487499,-2.675000,0.0,1.000000,0.000000,0.000000,0.000000
1782117388.309718,1891670,-0.964355,0.033203,-0.266602,0.853659,0.060976,0.731707,-4.862500,39.468750,-2.668750,0.0,1.000000,0.000000,0.000000,0.000000
1782117388.319718,1891680,-0.965820,0.033691,-0.269043,0.731707,0.182927,0.792683,-4.862500,39.468750,-2.668750,0.0,1.000000,0.000000,0.000000,0.000000
1782117388.329718,1891690,-0.968262,0.032227,-0.270020,0.487805,0.304878,0.792683,-4.806250,39.487499,-2.656250,0.0,1.000000,0.000000,0.000000,0.000000
1782117388.339718,1891700,-0.970215,0.034180,-0.271973,0.426829,0.121951,0.731707,-4.806250,39.487499,-2.656250,0.0,1.000000,0.000000,0.000000,0.000000
1782117388.349718,1891710,-0.968750,0.034180,-0.269043,0.548781,-0.060976,0.731707,-4.900000,39.450001,-2.687500,0.0,1.000000,0.000000,0.000000,0.000000
1782117388.359718,1891720,-0.967773,0.031738,-0.268066,0.670732,-0.121951,0.731707,-4.900000,39.450001,-2.687500,0.0,1.000000,0.000000,0.000000,0.000000
1782117388.369718,1891730,-0.966797,0.032715,-0.267578,0.731707,-0.182927,0.670732,-4.875000,39.456249,-2.700000,0.0,1.000000,0.000000,0.000000,0.000000
1782117388.380718,1891741,-0.965820,0.033203,-0.267578,0.731707,-0.182927,0.731707,-4.875000,39.456249,-2.700000,0.0,1.000000,0.000000,0.000000,0.000000
1782117388.390718,1891751,-0.965332,0.032227,-0.268066,0.731707,-0.060976,0.731707,-4.918750,39.337502,-2.706250,0.0,1.000000,0.000000,0.000000,0.000000
1782117388.400718,1891761,-0.966309,0.031738,-0.267578,0.731707,0.060976,0.792683,-4.918750,39.337502,-2.706250,0.0,1.000000,0.000000,0.000000,0.000000
1782117388.410718,1891771,-0.968262,0.031738,-0.269043,0.731707,0.121951,0.792683,-4.768750,39.462502,-2.675000,0.0,1.000000,0.000000,0.000000,0.000000
1782117388.419718,1891780,-0.967285,0.030762,-0.269531,0.670732,0.121951,0.792683,-4.768750,39.462502,-2.675000,0.0,1.000000,0.000000,0.000000,0.000000
1782117388.429718,1891790,-0.968750,0.031250,-0.270996,0.487805,0.000000,0.731707,-4.850000,39.412502,-2.643750,0.0,1.000000,0.000000,0.000000,0.000000
1782117388.439718,1891800,-0.967285,0.033691,-0.270020,0.426829,-0.060976,0.731707,-4.837500,39.424999,-2.706250,0.0,1.000000,0.000000,0.000000,0.000000
1782117388.449718,1891810,-0.965820,0.033203,-0.269531,0.487805,-0.121951,0.609756,-4.837500,39.424999,-2.706250,0.0,1.000000,0.000000,0.000000,0.000000
1782117388.459718,1891820,-0.966309,0.034180,-0.270996,0.487805,-0.060976,0.670732,-4.856250,39.393749,-2.681250,0.0,1.000000,0.000000,0.000000,0.000000
1782117388.469718,1891830,-0.965820,0.034180,-0.270020,0.365854,-0.121951,0.609756,-4.856250,39.393749,-2.681250,0.0,1.000000,0.000000,0.000000,0.000000
1782117388.480718,1891841,-0.962891,0.032715,-0.271484,0.365854,-0.121951,0.670732,-4.837500,39.487499,-2.656250,0.0,1.000000,0.000000,0.000000,0.000000
1782117388.489718,1891850,-0.961914,0.032227,-0.270996,0.365854,0.060976,0.731707,-4.837500,39.487499,-2.656250,0.0,1.000000,0.000000,0.000000,0.000000
1782117388.499718,1891860,-0.965332,0.031738,-0.272949,0.304878,0.182927,0.853659,-4.843750,39.443752,-2.712500,0.0,1.000000,0.000000,0.000000,0.000000
1782117388.509718,1891870,-0.967285,0.031738,-0.274414,0.182927,0.243902,0.792683,-4.843750,39.443752,-2.712500,0.0,1.000000,0.000000,0.000000,0.000000
1782117388.519718,1891880,-0.969238,0.030762,-0.273438,0.243902,0.121951,0.792683,-4.825000,39.462502,-2.687500,0.0,1.000000,0.000000,0.000000,0.000000
1782117388.529718,1891890,-0.969238,0.030762,-0.273438,0.243902,0.121951,0.792683,-4.825000,39.462502,-2.687500,0.0,1.000000,0.000000,0.000000,0.000000
1782117388.539718,1891900,-0.968262,0.028809,-0.273926,0.304878,0.000000,0.731707,-4.812500,39.487499,-2.656250,0.0,1.000000,0.000000,0.000000,0.000000
1782117388.549718,1891910,-0.969238,0.030273,-0.272949,0.487805,0.000000,0.670732,-4.812500,39.487499,-2.656250,0.0,1.000000,0.000000,0.000000,0.000000
1782117388.559718,1891920,-0.968750,0.032715,-0.269531,0.548781,-0.121951,0.670732,-4.837500,39.443752,-2.712500,0.0,1.000000,0.000000,0.000000,0.000000
1782117388.569718,1891930,-0.966797,0.032715,-0.267090,0.426829,-0.365854,0.609756,-4.837500,39.443752,-2.712500,0.0,1.000000,0.000000,0.000000,0.000000
1782117388.579718,1891940,-0.966309,0.034180,-0.266113,0.548781,-0.243902,0.670732,-4.868750,39.406250,-2.668750,0.0,1.000000,0.000000,0.000000,0.000000
1782117388.590718,1891951,-0.967773,0.030273,-0.267090,0.731707,-0.121951,0.914634,-4.868750,39.406250,-2.668750,0.0,1.000000,0.000000,0.000000,0.000000
1782117388.601718,1891962,-0.968262,0.030273,-0.268066,0.670732,-0.243902,0.792683,-4.912500,39.412502,-2.768750,0.0,1.000000,0.000000,0.000000,0.000000
1782117388.609718,1891970,-0.968262,0.030273,-0.268066,0.670732,-0.243902,0.792683,-4.912500,39.412502,-2.768750,0.0,1.000000,0.000000,0.000000,0.000000
1782117388.620718,1891981,-0.968262,0.029785,-0.268555,0.731707,-0.243902,0.792683,-4.775000,39.512501,-2.656250,0.0,1.000000,0.000000,0.000000,0.000000
1782117388.630718,1891991,-0.968262,0.030273,-0.268066,0.853659,-0.182927,0.853659,-4.775000,39.512501,-2.656250,0.0,1.000000,0.000000,0.000000,0.000000
1782117388.641718,1892002,-0.969238,0.032227,-0.266602,0.731707,-0.304878,0.670732,-4.906250,39.393749,-2.681250,0.0,1.000000,0.000000,0.000000,0.000000
1782117388.650718,1892011,-0.969238,0.032227,-0.266602,0.731707,-0.304878,0.670732,-4.906250,39.393749,-2.681250,0.0,1.000000,0.000000,0.000000,0.000000
1782117388.659718,1892020,-0.967773,0.035156,-0.266602,0.548781,-0.182927,0.670732,-4.837500,39.475002,-2.687500,0.0,1.000000,0.000000,0.000000,0.000000
1782117388.670718,1892031,-0.968262,0.033691,-0.266113,0.609756,0.000000,0.731707,-4.837500,39.475002,-2.687500,0.0,1.000000,0.000000,0.000000,0.000000
1782117388.679718,1892040,-0.968750,0.033691,-0.267090,0.548781,-0.060976,0.670732,-4.937500,39.406250,-2.700000,0.0,1.000000,0.000000,0.000000,0.000000
1782117388.689718,1892050,-0.966797,0.035645,-0.269043,0.426829,-0.243902,0.670732,-4.937500,39.406250,-2.700000,0.0,1.000000,0.000000,0.000000,0.000000
1782117388.699718,1892060,-0.965332,0.036133,-0.269043,0.365854,-0.243902,0.670732,-4.812500,39.549999,-2.656250,0.0,1.000000,0.000000,0.000000,0.000000
1782117388.709718,1892070,-0.963379,0.035156,-0.269043,0.304878,-0.243902,0.731707,-4.812500,39.549999,-2.656250,0.0,1.000000,0.000000,0.000000,0.000000
1782117388.719718,1892080,-0.964844,0.032715,-0.270996,0.121951,-0.121951,0.731707,-4.881250,39.400002,-2.706250,0.0,1.000000,0.000000,0.000000,0.000000
1782117388.729718,1892090,-0.966797,0.030762,-0.272461,-0.060976,0.000000,0.853659,-4.881250,39.400002,-2.706250,0.0,1.000000,0.000000,0.000000,0.000000
1782117388.739718,1892100,-0.967773,0.029785,-0.272461,-0.304878,-0.060976,0.853659,-4.906250,39.456249,-2.731250,0.0,1.000000,0.000000,0.000000,0.000000
1782117388.749718,1892110,-0.967773,0.028809,-0.272949,-0.243902,-0.060976,0.731707,-4.925000,39.368752,-2.743750,0.0,1.000000,0.000000,0.000000,0.000000
1782117388.759718,1892120,-0.966309,0.029297,-0.272461,-0.121951,-0.121951,0.670732,-4.925000,39.368752,-2.743750,0.0,1.000000,0.000000,0.000000,0.000000
1782117388.770718,1892131,-0.964844,0.030762,-0.272949,0.000000,-0.182927,0.609756,-4.806250,39.506252,-2.662500,0.0,1.000000,0.000000,0.000000,0.000000
1782117388.779718,1892140,-0.965332,0.031250,-0.271973,0.304878,-0.182927,0.670732,-4.806250,39.506252,-2.662500,0.0,1.000000,0.000000,0.000000,0.000000
1782117388.790718,1892151,-0.965332,0.030762,-0.271484,0.609756,-0.121951,0.731707,-4.875000,39.462502,-2.706250,0.0,1.000000,0.000000,0.000000,0.000000
1782117388.799718,1892160,-0.966309,0.030273,-0.270508,0.609756,-0.060976,0.792683,-4.875000,39.462502,-2.706250,0.0,1.000000,0.000000,0.000000,0.000000
1782117388.810718,1892171,-0.966797,0.030273,-0.268555,0.548781,0.000000,0.853659,-4.818750,39.493752,-2.650000,0.0,1.000000,0.000000,0.000000,0.000000
1782117388.819718,1892180,-0.966797,0.030273,-0.269043,0.487805,-0.121951,0.914634,-4.818750,39.493752,-2.650000,0.0,1.000000,0.000000,0.000000,0.000000
1782117388.830718,1892191,-0.967773,0.031250,-0.269531,0.609756,-0.243902,0.975610,-4.881250,39.481251,-2.668750,0.0,1.000000,0.000000,0.000000,0.000000
1782117388.840718,1892201,-0.965820,0.032227,-0.270508,0.670732,-0.304878,0.975610,-4.881250,39.481251,-2.668750,0.0,1.000000,0.000000,0.000000,0.000000
1782117388.850718,1892211,-0.965820,0.031738,-0.271973,0.670732,-0.243902,0.975610,-4.806250,39.537502,-2.675000,0.0,1.000000,0.000000,0.000000,0.000000
1782117388.859718,1892220,-0.967285,0.032715,-0.270508,0.609756,-0.243902,0.975610,-4.806250,39.537502,-2.675000,0.0,1.000000,0.000000,0.000000,0.000000
1782117388.869718,1892230,-0.967773,0.032715,-0.269531,0.548781,-0.304878,0.914634,-4.856250,39.418751,-2.618750,0.0,1.000000,0.000000,0.000000,0.000000
1782117388.881718,1892242,-0.967285,0.032715,-0.270020,0.304878,-0.182927,0.792683,-4.856250,39.418751,-2.618750,0.0,1.000000,0.000000,0.000000,0.000000
1782117388.889718,1892250,-0.967773,0.031738,-0.267578,0.243902,-0.182927,0.792683,-4.800000,39.543751,-2.681250,0.0,1.000000,0.000000,0.000000,0.000000
1782117388.899718,1892260,-0.966309,0.031250,-0.268066,0.243902,-0.182927,0.792683,-4.800000,39.543751,-2.681250,0.0,1.000000,0.000000,0.000000,0.000000
1782117388.909718,1892270,-0.966309,0.030273,-0.269043,0.304878,-0.243902,0.853659,-4.875000,39.412502,-2.706250,0.0,1.000000,0.000000,0.000000,0.000000
1782117388.922718,1892283,-0.967285,0.030273,-0.270508,0.304878,-0.243902,1.036585,-4.875000,39.412502,-2.706250,0.0,1.000000,0.000000,0.000000,0.000000
1782117388.929718,1892290,-0.967285,0.031738,-0.271973,0.426829,-0.426829,0.975610,-4.668750,39.662502,-2.562500,0.0,1.000000,0.000000,0.000000,0.000000
1782117388.939718,1892300,-0.967285,0.033203,-0.272461,0.609756,-0.487805,0.975610,-4.668750,39.662502,-2.562500,0.0,1.000000,0.000000,0.000000,0.000000
1782117388.949718,1892310,-0.968750,0.032715,-0.270508,0.731707,-0.487805,0.975610,-4.868750,39.431252,-2.650000,0.0,1.000000,0.000000,0.000000,0.000000
1782117388.961718,1892322,-0.966797,0.034180,-0.267090,0.914634,-0.426829,0.914634,-4.868750,39.431252,-2.650000,0.0,1.000000,0.000000,0.000000,0.000000
1782117388.969718,1892330,-0.966309,0.032715,-0.265137,0.975610,-0.426829,0.975610,-4.875000,39.424999,-2.687500,0.0,1.000000,0.000000,0.000000,0.000000
1782117388.979718,1892340,-0.968750,0.030762,-0.264648,0.975610,-0.487805,0.975610,-4.875000,39.424999,-2.687500,0.0,1.000000,0.000000,0.000000,0.000000
1782117388.989718,1892350,-0.968262,0.031738,-0.264648,0.670732,-0.548781,0.975610,-4.856250,39.431252,-2.700000,0.0,1.000000,0.000000,0.000000,0.000000
1782117389.000718,1892361,-0.967285,0.033203,-0.265625,0.548781,-0.548781,0.975610,-4.862500,39.481251,-2.587500,0.0,1.000000,0.000000,0.000000,0.000000
1782117389.009718,1892370,-0.966797,0.033203,-0.266602,0.487805,-0.548781,1.036585,-4.862500,39.481251,-2.587500,0.0,1.000000,0.000000,0.000000,0.000000
1782117389.019718,1892380,-0.966797,0.035645,-0.268066,0.487805,-0.487805,1.036585,-4.862500,39.481251,-2.587500,0.0,1.000000,0.000000,0.000000,0.000000
1782117389.029718,1892390,-0.965820,0.035645,-0.270508,0.487805,-0.426829,0.914634,-4.887500,39.456249,-2.637500,0.0,1.000000,0.000000,0.000000,0.000000
1782117389.040718,1892401,-0.966797,0.037109,-0.268555,0.487805,-0.304878,0.914634,-4.912500,39.387501,-2.706250,0.0,1.000000,0.000000,0.000000,0.000000
1782117389.049718,1892410,-0.968750,0.037598,-0.267578,0.243902,-0.304878,0.731707,-4.912500,39.387501,-2.706250,0.0,1.000000,0.000000,0.000000,0.000000
1782117389.060718,1892421,-0.967285,0.035156,-0.264160,0.182927,-0.304878,0.853659,-4.918750,39.400002,-2.687500,0.0,1.000000,0.000000,0.000000,0.000000
1782117389.070718,1892431,-0.967285,0.031738,-0.264160,0.243902,-0.304878,0.853659,-4.918750,39.400002,-2.687500,0.0,1.000000,0.000000,0.000000,0.000000
1782117389.080718,1892441,-0.967285,0.029785,-0.265625,0.304878,-0.304878,0.914634,-4.837500,39.431252,-2.681250,0.0,1.000000,0.000000,0.000000,0.000000
1782117389.090718,1892451,-0.969238,0.030273,-0.265137,0.365854,-0.365854,1.036585,-4.837500,39.431252,-2.681250,0.0,1.000000,0.000000,0.000000,0.000000
1782117389.099718,1892460,-0.969727,0.031250,-0.264160,0.304878,-0.487805,1.036585,-4.793750,39.406250,-2.662500,0.0,1.000000,0.000000,0.000000,0.000000
1782117389.109718,1892470,-0.968750,0.031738,-0.263184,0.487805,-0.609756,1.036585,-4.793750,39.406250,-2.662500,0.0,1.000000,0.000000,0.000000,0.000000
1782117389.122718,1892483,-0.970215,0.032227,-0.259766,0.792683,-0.609756,1.097561,-4.843750,39.424999,-2.656250,0.0,1.000000,0.000000,0.000000,0.000000
1782117389.129718,1892490,-0.972168,0.031738,-0.261230,0.975610,-0.670732,1.158537,-4.843750,39.424999,-2.656250,0.0,1.000000,0.000000,0.000000,0.000000
1782117389.139718,1892500,-0.968262,0.033203,-0.263672,0.853659,-0.731707,1.036585,-4.806250,39.462502,-2.625000,0.0,1.000000,0.000000,0.000000,0.000000
1782117389.149718,1892510,-0.965820,0.032227,-0.266602,0.731707,-0.548781,0.914634,-4.806250,39.462502,-2.625000,0.0,1.000000,0.000000,0.000000,0.000000
1782117389.162718,1892523,-0.964355,0.033203,-0.269043,0.487805,-0.243902,0.731707,-4.812500,39.443752,-2.600000,0.0,1.000000,0.000000,0.000000,0.000000
1782117389.169718,1892530,-0.961426,0.033203,-0.268555,0.548781,0.000000,0.670732,-4.812500,39.443752,-2.600000,0.0,1.000000,0.000000,0.000000,0.000000
1782117389.179718,1892540,-0.964355,0.034180,-0.269531,0.548781,0.243902,0.731707,-4.825000,39.456249,-2.681250,0.0,1.000000,0.000000,0.000000,0.000000
1782117389.189718,1892550,-0.965332,0.036133,-0.268555,0.426829,0.426829,0.853659,-4.825000,39.456249,-2.681250,0.0,1.000000,0.000000,0.000000,0.000000
1782117389.200718,1892561,-0.966309,0.037109,-0.268066,0.304878,0.426829,0.914634,-4.787500,39.468750,-2.631250,0.0,1.000000,0.000000,0.000000,0.000000
1782117389.209718,1892570,-0.964844,0.033691,-0.269043,0.243902,0.426829,0.853659,-4.787500,39.468750,-2.631250,0.0,1.000000,0.000000,0.000000,0.000000
1782117389.220718,1892581,-0.967285,0.032715,-0.269043,0.243902,0.487805,0.853659,-4.650000,39.568752,-2.587500,0.0,1.000000,0.000000,0.000000,0.000000
1782117389.230718,1892591,-0.971680,0.033203,-0.269043,0.243902,0.426829,0.914634,-4.650000,39.568752,-2.587500,0.0,1.000000,0.000000,0.000000,0.000000
1782117389.241718,1892602,-0.970215,0.035156,-0.264160,0.548781,0.182927,0.853659,-4.925000,39.424999,-2.675000,0.0,1.000000,0.000000,0.000000,0.000000
1782117389.250718,1892611,-0.968750,0.033691,-0.261230,0.975610,0.060976,0.914634,-4.925000,39.424999,-2.675000,0.0,1.000000,0.000000,0.000000,0.000000
1782117389.260718,1892621,-0.967773,0.032715,-0.263672,1.158537,0.060976,0.914634,-4.737500,39.506252,-2.681250,0.0,1.000000,0.000000,0.000000,0.000000
1782117389.270718,1892631,-0.966309,0.032715,-0.265625,1.280488,0.060976,0.975610,-4.737500,39.506252,-2.681250,0.0,1.000000,0.000000,0.000000,0.000000
1782117389.281718,1892642,-0.968262,0.030762,-0.266602,1.219512,0.243902,0.853659,-4.887500,39.375000,-2.687500,0.0,1.000000,0.000000,0.000000,0.000000
1782117389.289718,1892650,-0.968262,0.031738,-0.269043,1.219512,0.304878,0.853659,-4.887500,39.375000,-2.687500,0.0,1.000000,0.000000,0.000000,0.000000
1782117389.299718,1892660,-0.966309,0.033691,-0.267578,1.097561,0.304878,0.731707,-4.793750,39.500000,-2.656250,0.0,1.000000,0.000000,0.000000,0.000000
1782117389.309718,1892670,-0.965332,0.035156,-0.265137,1.097561,0.304878,0.731707,-4.793750,39.500000,-2.656250,0.0,1.000000,0.000000,0.000000,0.000000
1782117389.321718,1892682,-0.964844,0.034668,-0.265137,1.097561,0.487805,0.731707,-4.850000,39.400002,-2.625000,0.0,1.000000,0.000000,0.000000,0.000000
1782117389.329718,1892690,-0.965332,0.035645,-0.266602,0.853659,0.609756,0.731707,-4.793750,39.493752,-2.681250,0.0,1.000000,0.000000,0.000000,0.000000
1782117389.339718,1892700,-0.967285,0.037109,-0.270996,0.487805,0.670732,0.792683,-4.793750,39.493752,-2.681250,0.0,1.000000,0.000000,0.000000,0.000000
1782117389.349718,1892710,-0.966797,0.035645,-0.271484,0.304878,0.548781,0.792683,-4.837500,39.450001,-2.706250,0.0,1.000000,0.000000,0.000000,0.000000
1782117389.361718,1892722,-0.968262,0.035645,-0.271484,0.243902,0.609756,0.792683,-4.837500,39.450001,-2.706250,0.0,1.000000,0.000000,0.000000,0.000000
1782117389.369718,1892730,-0.968262,0.035645,-0.271484,0.243902,0.609756,0.792683,-4.806250,39.456249,-2.712500,0.0,1.000000,0.000000,0.000000,0.000000
1782117389.379718,1892740,-0.969238,0.034180,-0.268066,0.426829,0.487805,0.792683,-4.806250,39.456249,-2.712500,0.0,1.000000,0.000000,0.000000,0.000000
1782117389.389718,1892750,-0.967285,0.032227,-0.266113,0.670732,0.182927,0.731707,-4.631250,39.625000,-2.700000,0.0,1.000000,0.000000,0.000000,0.000000
1782117389.402718,1892763,-0.967285,0.029785,-0.266602,1.280488,0.304878,0.731707,-4.631250,39.625000,-2.700000,0.0,1.000000,0.000000,0.000000,0.000000
1782117389.409718,1892770,-0.967285,0.029785,-0.266602,1.280488,0.304878,0.731707,-4.875000,39.406250,-2.700000,0.0,1.000000,0.000000,0.000000,0.000000
1782117389.420718,1892781,-0.967285,0.028809,-0.268555,1.463415,0.243902,0.914634,-4.875000,39.406250,-2.700000,0.0,1.000000,0.000000,0.000000,0.000000
1782117389.429718,1892790,-0.967285,0.029785,-0.270020,1.463415,0.304878,0.975610,-4.818750,39.475002,-2.656250,0.0,1.000000,0.000000,0.000000,0.000000
1782117389.441718,1892802,-0.966797,0.031738,-0.271973,1.341463,0.304878,0.914634,-4.818750,39.475002,-2.656250,0.0,1.000000,0.000000,0.000000,0.000000
1782117389.449718,1892810,-0.967773,0.033203,-0.272461,1.341463,0.426829,0.975610,-4.762500,39.487499,-2.750000,0.0,1.000000,0.000000,0.000000,0.000000
1782117389.459718,1892820,-0.967773,0.035645,-0.269043,1.280488,0.365854,0.853659,-4.762500,39.487499,-2.750000,0.0,1.000000,0.000000,0.000000,0.000000
1782117389.469718,1892830,-0.966797,0.035156,-0.266602,1.463415,0.243902,0.731707,-4.831250,39.443752,-2.700000,0.0,1.000000,0.000000,0.000000,0.000000
1782117389.482718,1892843,-0.968750,0.035645,-0.265625,1.524390,0.182927,0.792683,-4.831250,39.443752,-2.700000,0.0,1.000000,0.000000,0.000000,0.000000
1782117389.490718,1892851,-0.968262,0.034668,-0.265625,1.463415,0.121951,0.914634,-4.787500,39.481251,-2.662500,0.0,1.000000,0.000000,0.000000,0.000000
1782117389.499718,1892860,-0.967773,0.033691,-0.268066,1.219512,0.121951,0.975610,-4.787500,39.481251,-2.662500,0.0,1.000000,0.000000,0.000000,0.000000
1782117389.509718,1892870,-0.968262,0.031738,-0.268555,1.036585,0.060976,0.914634,-4.862500,39.443752,-2.712500,0.0,1.000000,0.000000,0.000000,0.000000
1782117389.523718,1892884,-0.965820,0.034668,-0.269043,1.158537,0.060976,0.853659,-4.781250,39.493752,-2.743750,0.0,1.000000,0.000000,0.000000,0.000000
1782117389.531718,1892892,-0.965820,0.034668,-0.269043,1.158537,0.060976,0.853659,-4.781250,39.493752,-2.743750,0.0,1.000000,0.000000,0.000000,0.000000
1782117389.539718,1892900,-0.966797,0.034668,-0.266602,1.402439,0.243902,0.853659,-4.781250,39.493752,-2.743750,0.0,1.000000,0.000000,0.000000,0.000000
1782117389.549718,1892910,-0.970215,0.034180,-0.266602,1.402439,0.182927,0.914634,-4.812500,39.468750,-2.681250,0.0,1.000000,0.000000,0.000000,0.000000
1782117389.560718,1892921,-0.970215,0.035156,-0.267578,1.097561,0.000000,0.975610,-4.812500,39.468750,-2.681250,0.0,1.000000,0.000000,0.000000,0.000000
1782117389.569718,1892930,-0.967285,0.036621,-0.269043,0.914634,-0.182927,0.975610,-4.862500,39.456249,-2.650000,0.0,1.000000,0.000000,0.000000,0.000000
1782117389.579718,1892940,-0.968262,0.033691,-0.269531,0.853659,-0.243902,1.097561,-4.862500,39.456249,-2.650000,0.0,1.000000,0.000000,0.000000,0.000000
1782117389.589718,1892950,-0.968262,0.030762,-0.269531,1.158537,-0.548781,1.158537,-4.887500,39.412502,-2.718750,0.0,1.000000,0.000000,0.000000,0.000000
1782117389.600718,1892961,-0.967285,0.028809,-0.270508,1.524390,-0.670732,1.036585,-4.887500,39.412502,-2.718750,0.0,1.000000,0.000000,0.000000,0.000000
1782117389.609718,1892970,-0.967773,0.028320,-0.270996,1.585366,-0.548781,0.853659,-4.837500,39.418751,-2.681250,0.0,1.000000,0.000000,0.000000,0.000000
1782117389.619718,1892980,-0.966797,0.027832,-0.271973,1.524390,-0.304878,0.731707,-4.812500,39.424999,-2.656250,0.0,1.000000,0.000000,0.000000,0.000000
1782117389.629718,1892990,-0.966797,0.028809,-0.270996,1.463415,-0.243902,0.670732,-4.812500,39.424999,-2.656250,0.0,1.000000,0.000000,0.000000,0.000000
1782117389.640718,1893001,-0.965820,0.031738,-0.270508,1.402439,-0.304878,0.670732,-4.893750,39.381252,-2.681250,0.0,1.000000,0.000000,0.000000,0.000000
1782117389.650718,1893011,-0.964355,0.033203,-0.270996,1.219512,-0.365854,0.731707,-4.893750,39.381252,-2.681250,0.0,1.000000,0.000000,0.000000,0.000000
1782117389.659718,1893020,-0.962891,0.033691,-0.270996,1.158537,-0.304878,0.792683,-4.825000,39.431252,-2.637500,0.0,1.000000,0.000000,0.000000,0.000000
1782117389.669718,1893030,-0.961914,0.032715,-0.271973,0.975610,-0.121951,0.914634,-4.825000,39.431252,-2.637500,0.0,1.000000,0.000000,0.000000,0.000000
1782117389.679718,1893040,-0.963867,0.031250,-0.272949,0.853659,0.000000,0.975610,-4.800000,39.456249,-2.650000,0.0,1.000000,0.000000,0.000000,0.000000
1782117389.689718,1893050,-0.963867,0.030762,-0.272949,0.670732,-0.060976,0.975610,-4.800000,39.456249,-2.650000,0.0,1.000000,0.000000,0.000000,0.000000
1782117389.700718,1893061,-0.964844,0.030273,-0.272949,0.670732,0.000000,0.853659,-4.531250,39.700001,-2.606250,0.0,1.000000,0.000000,0.000000,0.000000
1782117389.709718,1893070,-0.964844,0.030273,-0.271973,0.792683,0.000000,0.853659,-4.531250,39.700001,-2.606250,0.0,1.000000,0.000000,0.000000,0.000000
1782117389.722718,1893083,-0.965820,0.031738,-0.271973,1.219512,-0.060976,0.792683,-4.787500,39.456249,-2.662500,0.0,1.000000,0.000000,0.000000,0.000000
1782117389.729718,1893090,-0.964844,0.030273,-0.272949,1.280488,0.060976,0.731707,-4.787500,39.456249,-2.662500,0.0,1.000000,0.000000,0.000000,0.000000
1782117389.739718,1893100,-0.965332,0.032227,-0.270996,1.158537,0.121951,0.792683,-4.706250,39.562500,-2.575000,0.0,1.000000,0.000000,0.000000,0.000000
1782117389.749718,1893110,-0.964355,0.032227,-0.272461,0.853659,0.060976,0.853659,-4.706250,39.562500,-2.575000,0.0,1.000000,0.000000,0.000000,0.000000
1782117389.763718,1893124,-0.964844,0.031738,-0.272949,0.487805,0.182927,0.914634,-4.800000,39.500000,-2.643750,0.0,1.000000,0.000000,0.000000,0.000000
1782117389.769718,1893130,-0.966797,0.032715,-0.274414,0.182927,0.121951,0.975610,-4.800000,39.500000,-2.643750,0.0,1.000000,0.000000,0.000000,0.000000
1782117389.779718,1893140,-0.965820,0.034180,-0.274902,0.121951,0.060976,0.975610,-4.793750,39.543751,-2.631250,0.0,1.000000,0.000000,0.000000,0.000000
1782117389.789718,1893150,-0.965332,0.034668,-0.272949,0.182927,0.000000,0.914634,-4.793750,39.543751,-2.631250,0.0,1.000000,0.000000,0.000000,0.000000
1782117389.799718,1893160,-0.963379,0.032227,-0.273438,0.426829,0.060976,0.914634,-4.818750,39.418751,-2.650000,0.0,1.000000,0.000000,0.000000,0.000000
1782117389.809718,1893170,-0.964355,0.032227,-0.273926,0.487805,0.121951,0.975610,-4.818750,39.418751,-2.650000,0.0,1.000000,0.000000,0.000000,0.000000
1782117389.819718,1893180,-0.964355,0.031738,-0.274902,0.426829,0.182927,0.914634,-4.750000,39.512501,-2.656250,0.0,1.000000,0.000000,0.000000,0.000000
1782117389.829718,1893190,-0.964355,0.032715,-0.274902,0.243902,0.243902,0.914634,-4.750000,39.512501,-2.656250,0.0,1.000000,0.000000,0.000000,0.000000
1782117389.841718,1893202,-0.965332,0.030762,-0.274902,0.121951,0.304878,0.853659,-4.793750,39.424999,-2.656250,0.0,1.000000,0.000000,0.000000,0.000000
1782117389.850718,1893211,-0.967285,0.031738,-0.273438,0.121951,0.304878,0.792683,-4.793750,39.424999,-2.656250,0.0,1.000000,0.000000,0.000000,0.000000
1782117389.859718,1893220,-0.966797,0.030762,-0.270508,0.365854,0.243902,0.792683,-4.493750,39.762501,-2.606250,0.0,1.000000,0.000000,0.000000,0.000000
1782117389.869718,1893230,-0.967773,0.031250,-0.270508,0.670732,0.243902,0.853659,-4.493750,39.762501,-2.606250,0.0,1.000000,0.000000,0.000000,0.000000
1782117389.880718,1893241,-0.970215,0.032227,-0.269043,0.548781,0.243902,0.853659,-4.868750,39.381252,-2.743750,0.0,1.000000,0.000000,0.000000,0.000000
1782117389.889718,1893250,-0.968750,0.033203,-0.269531,0.304878,0.182927,0.853659,-4.868750,39.381252,-2.743750,0.0,1.000000,0.000000,0.000000,0.000000
1782117389.899718,1893260,-0.968750,0.035156,-0.268555,0.121951,0.000000,0.792683,-4.768750,39.450001,-2.687500,0.0,1.000000,0.000000,0.000000,0.000000
1782117389.909718,1893270,-0.968750,0.035156,-0.266113,0.060976,-0.121951,0.792683,-4.887500,39.368752,-2.712500,0.0,1.000000,0.000000,0.000000,0.000000
1782117389.921718,1893282,-0.967285,0.034668,-0.263184,0.060976,-0.243902,0.731707,-4.887500,39.368752,-2.712500,0.0,1.000000,0.000000,0.000000,0.000000
1782117389.930718,1893291,-0.966309,0.035156,-0.265625,0.060976,-0.060976,0.853659,-4.831250,39.468750,-2.662500,0.0,1.000000,0.000000,0.000000,0.000000
1782117389.940718,1893301,-0.966309,0.033691,-0.268066,0.060976,0.000000,0.975610,-4.831250,39.468750,-2.662500,0.0,1.000000,0.000000,0.000000,0.000000
1782117389.949718,1893310,-0.964844,0.029785,-0.272461,0.060976,-0.182927,0.853659,-4.812500,39.468750,-2.775000,0.0,1.000000,0.000000,0.000000,0.000000
1782117389.959718,1893320,-0.967773,0.030762,-0.274414,0.121951,-0.121951,0.853659,-4.812500,39.468750,-2.775000,0.0,1.000000,0.000000,0.000000,0.000000
1782117389.969718,1893330,-0.966309,0.031738,-0.274414,0.121951,-0.243902,0.853659,-4.768750,39.556252,-2.681250,0.0,1.000000,0.000000,0.000000,0.000000
1782117389.979718,1893340,-0.966309,0.034668,-0.273926,0.243902,-0.304878,0.792683,-4.768750,39.556252,-2.681250,0.0,1.000000,0.000000,0.000000,0.000000
1782117389.989718,1893350,-0.966797,0.033203,-0.270020,0.487805,-0.243902,0.853659,-4.768750,39.487499,-2.737500,0.0,1.000000,0.000000,0.000000,0.000000
1782117389.999718,1893360,-0.965820,0.031250,-0.268555,0.670732,-0.121951,0.914634,-4.768750,39.487499,-2.737500,0.0,1.000000,0.000000,0.000000,0.000000
1782117390.009718,1893370,-0.965820,0.030762,-0.269043,0.853659,-0.121951,0.975610,-4.737500,39.562500,-2.700000,0.0,1.000000,0.000000,0.000000,0.000000
1782117390.019718,1893380,-0.966797,0.031250,-0.270996,0.914634,-0.121951,1.158537,-4.737500,39.562500,-2.700000,0.0,1.000000,0.000000,0.000000,0.000000
1782117390.029718,1893390,-0.968262,0.030273,-0.271973,0.853659,-0.243902,1.158537,-4.750000,39.487499,-2.706250,0.0,1.000000,0.000000,0.000000,0.000000
1782117390.040718,1893401,-0.965820,0.031738,-0.272949,0.731707,-0.243902,1.097561,-4.750000,39.487499,-2.706250,0.0,1.000000,0.000000,0.000000,0.000000
1782117390.050718,1893411,-0.968750,0.033203,-0.274902,0.731707,-0.243902,1.097561,-4.775000,39.462502,-2.706250,0.0,1.000000,0.000000,0.000000,0.000000
1782117390.060718,1893421,-0.967285,0.035645,-0.275391,0.670732,-0.365854,0.914634,-4.775000,39.462502,-2.706250,0.0,1.000000,0.000000,0.000000,0.000000
1782117390.070718,1893431,-0.962891,0.036621,-0.272461,0.792683,-0.426829,0.731707,-4.756250,39.537502,-2.668750,0.0,1.000000,0.000000,0.000000,0.000000
1782117390.080718,1893441,-0.964355,0.035645,-0.272949,1.036585,-0.304878,0.792683,-4.756250,39.537502,-2.668750,0.0,1.000000,0.000000,0.000000,0.000000
1782117390.089718,1893450,-0.965820,0.032227,-0.273926,1.158537,-0.304878,0.975610,-4.643750,39.643749,-2.612500,0.0,1.000000,0.000000,0.000000,0.000000
1782117390.099718,1893460,-0.965820,0.029785,-0.276855,1.036585,-0.487805,1.097561,-4.643750,39.643749,-2.612500,0.0,1.000000,0.000000,0.000000,0.000000
1782117390.110718,1893471,-0.967285,0.028320,-0.276367,0.975610,-0.426829,1.097561,-4.825000,39.406250,-2.618750,0.0,1.000000,0.000000,0.000000,0.000000
1782117390.119718,1893480,-0.966797,0.027344,-0.274902,0.975610,-0.548781,1.097561,-4.825000,39.406250,-2.618750,0.0,1.000000,0.000000,0.000000,0.000000
1782117390.129718,1893490,-0.966797,0.027344,-0.274414,1.341463,-0.609756,1.158537,-4.781250,39.443752,-2.650000,0.0,1.000000,0.000000,0.000000,0.000000
1782117390.141718,1893502,-0.970703,0.027832,-0.273926,1.829268,-0.731707,1.280488,-4.781250,39.443752,-2.650000,0.0,1.000000,0.000000,0.000000,0.000000
1782117390.149718,1893510,-0.973145,0.029297,-0.273438,2.378049,-0.975610,1.402439,-4.631250,39.631252,-2.581250,0.0,1.000000,0.000000,0.000000,0.000000
1782117390.159718,1893520,-0.970703,0.030762,-0.276855,2.560976,-1.097561,1.463415,-4.631250,39.631252,-2.581250,0.0,1.000000,0.000000,0.000000,0.000000
1782117390.169718,1893530,-0.963867,0.030273,-0.281250,2.256098,-1.036585,1.463415,-4.768750,39.475002,-2.625000,0.0,1.000000,0.000000,0.000000,0.000000
1782117390.179718,1893540,-0.954590,0.029785,-0.287598,1.646341,-0.731707,1.280488,-4.768750,39.475002,-2.625000,0.0,1.000000,0.000000,0.000000,0.000000
1782117390.189718,1893550,-0.954590,0.030273,-0.292969,0.853659,0.121951,0.975610,-4.768750,39.443752,-2.568750,0.0,1.000000,0.000000,0.000000,0.000000
1782117390.199718,1893560,-0.957520,0.031738,-0.291504,0.853659,0.121951,0.975610,-4.768750,39.443752,-2.568750,0.0,1.000000,0.000000,0.000000,0.000000
1782117390.209718,1893570,-0.957520,0.031738,-0.291504,0.853659,0.121951,0.975610,-4.818750,39.375000,-2.675000,0.0,1.000000,0.000000,0.000000,0.000000
1782117390.219718,1893580,-0.960938,0.032227,-0.289062,1.158537,-0.121951,1.097561,-4.700000,39.518749,-2.587500,0.0,1.000000,0.000000,0.000000,0.000000
1782117390.229718,1893590,-0.964844,0.032715,-0.284180,0.792683,-1.219512,1.524390,-4.700000,39.518749,-2.587500,0.0,1.000000,0.000000,0.000000,0.000000
1782117390.239718,1893600,-0.964844,0.032715,-0.284180,0.792683,-1.219512,1.524390,-4.712500,39.481251,-2.587500,0.0,1.000000,0.000000,0.000000,0.000000
1782117390.249718,1893610,-0.966309,0.032227,-0.281738,0.243902,-1.707317,1.646341,-4.712500,39.481251,-2.587500,0.0,1.000000,0.000000,0.000000,0.000000
1782117390.259718,1893620,-0.964355,0.031738,-0.281738,-0.304878,-1.951220,1.768293,-4.387500,39.818752,-2.500000,0.0,1.000000,0.000000,0.000000,0.000000
1782117390.269718,1893630,-0.965820,0.028809,-0.287109,-0.304878,-1.951220,2.134146,-4.387500,39.818752,-2.500000,0.0,1.000000,0.000000,0.000000,0.000000
1782117390.279718,1893640,-0.973145,0.021484,-0.292480,0.243902,-2.012195,2.500000,-4.450000,39.731251,-2.550000,0.0,1.000000,0.000000,0.000000,0.000000
1782117390.289718,1893650,-0.975586,0.015137,-0.296387,0.731707,-2.195122,2.439024,-4.450000,39.731251,-2.550000,0.0,1.000000,0.000000,0.000000,0.000000
1782117390.299718,1893660,-0.980957,0.013184,-0.305664,1.585366,-2.012195,2.926829,-4.381250,39.750000,-2.450000,0.0,1.000000,0.000000,0.000000,0.000000
1782117390.309718,1893670,-0.981934,0.008301,-0.322266,1.829268,-1.829268,3.414634,-4.381250,39.750000,-2.450000,0.0,1.000000,0.000000,0.000000,0.000000
1782117390.319718,1893680,-0.962891,0.002930,-0.336914,1.646341,-1.341463,2.926829,-4.618750,39.500000,-2.512500,0.0,1.000000,0.000000,0.000000,0.000000
1782117390.330718,1893691,-0.946289,0.008301,-0.344727,1.280488,0.000000,2.317073,-4.618750,39.500000,-2.512500,0.0,1.000000,0.000000,0.000000,0.000000
1782117390.339718,1893700,-0.944824,0.012695,-0.339355,1.402439,0.914634,2.195122,-4.493750,39.543751,-2.456250,0.0,1.000000,0.000000,0.000000,0.000000
1782117390.349718,1893710,-0.944824,0.014160,-0.327637,1.890244,0.304878,2.195122,-4.493750,39.543751,-2.456250,0.0,1.000000,0.000000,0.000000,0.000000
1782117390.359718,1893720,-0.944336,0.017578,-0.313477,2.195122,-1.097561,2.560976,-4.506250,39.568752,-2.456250,0.0,1.000000,0.000000,0.000000,0.000000
1782117390.370718,1893731,-0.944824,0.015137,-0.299316,2.560976,-2.865854,3.475610,-4.506250,39.568752,-2.456250,0.0,1.000000,0.000000,0.000000,0.000000
1782117390.379718,1893740,-0.950195,0.003906,-0.293457,3.414634,-4.451220,4.268293,-4.450000,39.631252,-2.475000,0.0,1.000000,0.000000,0.000000,0.000000
1782117390.389718,1893750,-0.965820,-0.008789,-0.294434,5.182927,-6.036585,4.817073,-4.450000,39.631252,-2.475000,0.0,1.000000,0.000000,0.000000,0.000000
1782117390.399718,1893760,-0.966797,-0.005859,-0.298340,7.865854,-8.902439,5.000000,-4.381250,39.568752,-2.362500,0.0,1.000000,0.000000,0.000000,0.000000
1782117390.409718,1893770,-0.954102,-0.007324,-0.299805,9.268292,-11.280488,4.390244,-4.381250,39.568752,-2.362500,0.0,1.000000,0.000000,0.000000,0.000000
1782117390.419718,1893780,-0.943359,-0.008301,-0.309082,9.085366,-11.951220,3.475610,-4.350000,39.581249,-2.112500,0.0,1.000000,0.000000,0.000000,0.000000
1782117390.429718,1893790,-0.953125,-0.005859,-0.322754,8.353659,-12.256098,2.621951,-4.350000,39.581249,-2.112500,0.0,1.000000,0.000000,0.000000,0.000000
1782117390.439718,1893800,-0.960938,0.001465,-0.338867,8.475610,-13.719513,2.195122,-4.068750,39.775002,-1.893750,0.0,1.000000,0.000000,0.000000,0.000000
1782117390.449718,1893810,-0.967285,0.015137,-0.346191,10.670732,-16.768293,2.560976,-4.068750,39.775002,-1.893750,0.0,1.000000,0.000000,0.000000,0.000000
1782117390.459718,1893820,-0.977539,0.027832,-0.336426,13.780488,-21.097561,3.536585,-4.250000,39.518749,-1.643750,0.0,1.000000,0.000000,0.000000,0.000000
1782117390.469718,1893830,-0.984375,0.039062,-0.314941,17.134148,-26.829269,5.060976,-4.250000,39.518749,-1.643750,0.0,1.000000,0.000000,0.000000,0.000000
1782117390.479718,1893840,-0.984863,0.045410,-0.286621,19.756098,-33.048782,6.524390,-4.168750,39.400002,-1.262500,0.0,1.000000,0.000000,0.000000,0.000000
1782117390.490718,1893851,-0.981934,0.049805,-0.268555,20.121952,-38.109756,7.195122,-3.975000,39.387501,-0.681250,0.0,1.000000,0.000000,0.000000,0.000000
1782117390.500718,1893861,-0.976562,0.057129,-0.259277,18.048780,-41.219513,7.195122,-3.975000,39.387501,-0.681250,0.0,1.000000,0.000000,0.000000,0.000000
1782117390.510718,1893871,-0.966309,0.057617,-0.249023,13.780488,-41.585365,5.731708,-3.775000,39.437500,-0.162500,0.0,1.000000,0.000000,0.000000,0.000000
1782117390.520718,1893881,-0.952637,0.064941,-0.250488,9.695122,-37.378048,4.512195,-3.775000,39.437500,-0.162500,0.0,1.000000,0.000000,0.000000,0.000000
1782117390.530718,1893891,-0.970215,0.061035,-0.229492,4.512195,-33.109756,2.804878,-3.650000,39.525002,0.231250,0.0,1.000000,0.000000,0.000000,0.000000
1782117390.539718,1893900,-0.977539,0.055664,-0.219727,-0.853659,-31.280489,0.853659,-3.650000,39.525002,0.231250,0.0,1.000000,0.000000,0.000000,0.000000
1782117390.549718,1893910,-0.989258,0.061523,-0.207031,-4.085366,-28.719513,0.121951,-3.825000,39.162502,0.537500,0.0,1.000000,0.000000,0.000000,0.000000
1782117390.559718,1893920,-1.013672,0.063477,-0.188965,-5.853659,-26.890245,-0.182927,-3.825000,39.162502,0.537500,0.0,1.000000,0.000000,0.000000,0.000000
1782117390.569718,1893930,-1.041504,0.059082,-0.176270,-6.463415,-26.829269,0.121951,-4.168750,38.700001,0.625000,0.0,1.000000,0.000000,0.000000,0.000000
1782117390.579718,1893940,-1.050781,0.056152,-0.168945,-6.402439,-28.292683,0.670732,-4.168750,38.700001,0.625000,0.0,1.000000,0.000000,0.000000,0.000000
1782117390.589718,1893950,-1.044434,0.052734,-0.158203,-7.195122,-29.939026,0.426829,-4.350000,38.450001,0.806250,0.0,1.000000,0.000000,0.000000,0.000000
1782117390.599718,1893960,-1.016113,0.039062,-0.154297,-9.878049,-30.914635,-0.609756,-4.350000,38.450001,0.806250,0.0,1.000000,0.000000,0.000000,0.000000
1782117390.609718,1893970,-0.980957,0.034180,-0.162598,-13.475610,-28.597561,-2.256098,-4.537500,38.256252,1.000000,0.0,1.000000,0.000000,0.000000,0.000000
1782117390.619718,1893980,-0.952637,0.014160,-0.186035,-16.890244,-22.804878,-3.658537,-4.537500,38.256252,1.000000,0.0,1.000000,0.000000,0.000000,0.000000
1782117390.629718,1893990,-0.937500,-0.000977,-0.210938,-18.292683,-15.304878,-4.451220,-4.756250,38.125000,1.081250,0.0,1.000000,0.000000,0.000000,0.000000
1782117390.639718,1894000,-0.939453,-0.011230,-0.232422,-16.280489,-8.048780,-4.146341,-4.756250,38.125000,1.081250,0.0,1.000000,0.000000,0.000000,0.000000
1782117390.649718,1894010,-0.947266,-0.030273,-0.240723,-12.560976,-2.926829,-3.048780,-4.975000,38.112499,1.018750,0.0,1.000000,0.000000,0.000000,0.000000
1782117390.659718,1894020,-0.952637,-0.041016,-0.244629,-7.987805,0.000000,-2.439024,-4.975000,38.112499,1.018750,0.0,1.000000,0.000000,0.000000,0.000000
1782117390.669718,1894030,-0.959961,-0.035156,-0.242188,-3.231707,2.439024,-1.646341,-4.762500,38.575001,1.025000,0.0,1.000000,0.000000,0.000000,0.000000
1782117390.679718,1894040,-0.967773,-0.029297,-0.235840,3.109756,3.780488,-0.609756,-4.762500,38.575001,1.025000,0.0,1.000000,0.000000,0.000000,0.000000
1782117390.689718,1894050,-0.966309,-0.014648,-0.218262,9.512196,4.085366,0.060976,-4.975000,38.481251,0.887500,0.0,1.000000,0.000000,0.000000,0.000000
1782117390.699718,1894060,-0.967285,-0.019531,-0.200195,16.219513,4.756098,0.609756,-4.975000,38.481251,0.887500,0.0,1.000000,0.000000,0.000000,0.000000
1782117390.710718,1894071,-0.975098,-0.020020,-0.183594,24.085367,4.329268,1.219512,-4.881250,38.637501,0.900000,0.0,1.000000,0.000000,0.000000,0.000000
1782117390.719718,1894080,-0.984375,-0.019043,-0.164062,32.378048,2.926829,1.951220,-4.881250,38.637501,0.900000,0.0,1.000000,0.000000,0.000000,0.000000
1782117390.730718,1894091,-1.001953,-0.014648,-0.145020,40.121952,1.463415,2.926829,-4.806250,38.637501,0.850000,0.0,1.000000,0.000000,0.000000,0.000000
1782117390.739718,1894100,-1.022949,0.001953,-0.125488,46.097561,-0.487805,4.146341,-4.806250,38.637501,0.850000,0.0,1.000000,0.000000,0.000000,0.000000
1782117390.749718,1894110,-1.028809,0.027344,-0.100098,49.695122,-2.926829,5.060976,-4.675000,38.600002,0.993750,0.0,1.000000,0.000000,0.000000,0.000000
1782117390.759718,1894120,-1.014160,0.062500,-0.088867,50.792683,-4.573171,5.792683,-4.675000,38.600002,0.993750,0.0,1.000000,0.000000,0.000000,0.000000
1782117390.770718,1894131,-1.007812,0.103027,-0.081055,49.268295,-4.878049,5.304878,-4.468750,38.606251,1.175000,0.0,1.000000,0.000000,0.000000,0.000000
1782117390.779718,1894140,-0.988281,0.140137,-0.072754,44.695122,-5.426829,4.451220,-4.468750,38.606251,1.175000,0.0,1.000000,0.000000,0.000000,0.000000
1782117390.789718,1894150,-0.967773,0.166016,-0.065918,38.170734,-5.060976,3.292683,-4.237500,38.718750,1.493750,0.0,1.000000,0.000000,0.000000,0.000000
1782117390.799718,1894160,-0.943848,0.183105,-0.061035,30.304878,-2.621951,2.073171,-4.237500,38.718750,1.493750,0.0,1.000000,0.000000,0.000000,0.000000
1782117390.809718,1894170,-0.936523,0.187500,-0.058105,21.280489,1.341463,0.731707,-4.237500,38.612499,1.575000,0.0,1.000000,0.000000,0.000000,0.000000
1782117390.819718,1894180,-0.938477,0.186035,-0.062988,12.682927,5.000000,-0.609756,-4.106250,38.712502,1.562500,0.0,1.000000,0.000000,0.000000,0.000000
1782117390.830718,1894191,-0.949219,0.180176,-0.066895,4.695122,8.170732,-1.463415,-4.106250,38.712502,1.562500,0.0,1.000000,0.000000,0.000000,0.000000
1782117390.839718,1894200,-0.967773,0.170898,-0.068848,-2.621951,10.426829,-1.463415,-3.962500,38.875000,1.425000,0.0,1.000000,0.000000,0.000000,0.000000
1782117390.850718,1894211,-0.980957,0.151855,-0.064941,-9.146341,10.609756,-1.829268,-3.962500,38.875000,1.425000,0.0,1.000000,0.000000,0.000000,0.000000
1782117390.859718,1894220,-0.982910,0.123047,-0.058105,-14.207317,10.548780,-2.804878,-4.187500,38.768749,1.150000,0.0,1.000000,0.000000,0.000000,0.000000
1782117390.869718,1894230,-0.973633,0.091309,-0.051758,-17.439024,11.280488,-4.146341,-4.187500,38.768749,1.150000,0.0,1.000000,0.000000,0.000000,0.000000
1782117390.879718,1894240,-0.967773,0.063477,-0.047852,-18.902439,13.109756,-5.243903,-4.331250,38.768749,0.900000,0.0,1.000000,0.000000,0.000000,0.000000
1782117390.889718,1894250,-0.965820,0.045898,-0.048340,-18.536585,14.756098,-5.365854,-4.331250,38.768749,0.900000,0.0,1.000000,0.000000,0.000000,0.000000
1782117390.900718,1894261,-0.982910,0.032227,-0.040527,-16.463415,15.975610,-4.207317,-4.268750,38.850002,0.643750,0.0,1.000000,0.000000,0.000000,0.000000
1782117390.910718,1894271,-1.017578,0.020508,-0.037598,-12.621951,16.402439,-1.768293,-4.268750,38.850002,0.643750,0.0,1.000000,0.000000,0.000000,0.000000
1782117390.920718,1894281,-1.058105,0.009766,-0.029297,-6.219512,15.182927,1.219512,-4.443750,38.818752,0.381250,0.0,1.000000,0.000000,0.000000,0.000000
1782117390.931718,1894292,-1.086426,0.013184,-0.009277,1.463415,11.829268,3.414634,-4.443750,38.818752,0.381250,0.0,1.000000,0.000000,0.000000,0.000000
1782117390.939718,1894300,-1.097168,0.027832,0.000488,8.170732,8.353659,4.878049,-4.325000,38.962502,0.237500,0.0,1.000000,0.000000,0.000000,0.000000
1782117390.949718,1894310,-1.099121,0.052734,0.000977,12.621951,4.573171,6.158537,-4.325000,38.962502,0.237500,0.0,1.000000,0.000000,0.000000,0.000000
1782117390.959718,1894320,-1.082031,0.081055,-0.012695,14.634147,0.426829,7.500000,-4.112500,39.018749,0.275000,0.0,1.000000,0.000000,0.000000,0.000000
1782117390.969718,1894330,-1.042969,0.100098,-0.019531,14.268293,-2.987805,8.048780,-4.112500,39.018749,0.275000,0.0,1.000000,0.000000,0.000000,0.000000
1782117390.979718,1894340,-0.998047,0.120117,-0.023926,12.012196,-4.085366,7.256098,-4.118750,39.000000,0.362500,0.0,1.000000,0.000000,0.000000,0.000000
1782117390.989718,1894350,-0.971191,0.137695,-0.026367,8.536586,-2.317073,5.670732,-4.118750,39.000000,0.362500,0.0,1.000000,0.000000,0.000000,0.000000
1782117390.999718,1894360,-0.971680,0.151367,-0.037109,3.597561,1.036585,4.329268,-4.025000,38.924999,0.475000,0.0,1.000000,0.000000,0.000000,0.000000
1782117391.010718,1894371,-0.992188,0.146484,-0.057129,-2.134146,3.841464,3.536585,-4.025000,38.924999,0.475000,0.0,1.000000,0.000000,0.000000,0.000000
1782117391.019718,1894380,-1.002930,0.133301,-0.067871,-6.646342,4.085366,2.804878,-3.906250,39.012501,0.475000,0.0,1.000000,0.000000,0.000000,0.000000
1782117391.029718,1894390,-0.997070,0.112793,-0.069336,-9.634147,3.841464,1.707317,-3.906250,39.012501,0.475000,0.0,1.000000,0.000000,0.000000,0.000000
1782117391.039718,1894400,-0.990723,0.094238,-0.069336,-12.195122,4.756098,0.609756,-3.750000,39.043751,0.456250,0.0,1.000000,0.000000,0.000000,0.000000
1782117391.050718,1894411,-0.994629,0.079590,-0.076660,-14.024390,6.280488,-0.060976,-3.750000,39.043751,0.456250,0.0,1.000000,0.000000,0.000000,0.000000
1782117391.059718,1894420,-0.994629,0.079590,-0.076660,-14.024390,6.280488,-0.060976,-3.900000,38.850002,0.318750,0.0,1.000000,0.000000,0.000000,0.000000
1782117391.069718,1894430,-1.018066,0.073242,-0.089355,-15.548780,6.890244,0.670732,-3.900000,38.850002,0.318750,0.0,1.000000,0.000000,0.000000,0.000000
1782117391.079718,1894440,-1.048340,0.065918,-0.105957,-16.036585,5.487805,2.682927,-3.975000,38.775002,0.268750,0.0,1.000000,0.000000,0.000000,0.000000
1782117391.091718,1894452,-1.041016,0.047852,-0.117676,-12.926829,-1.280488,4.207317,-3.800000,38.868752,0.262500,0.0,1.000000,0.000000,0.000000,0.000000
1782117391.100718,1894461,-1.010742,0.042969,-0.123047,-12.804878,-3.048780,2.500000,-3.800000,38.868752,0.262500,0.0,1.000000,0.000000,0.000000,0.000000
1782117391.109718,1894470,-1.010742,0.042969,-0.123047,-12.804878,-3.048780,2.500000,-3.437500,39.287502,0.418750,0.0,1.000000,0.000000,0.000000,0.000000
1782117391.119718,1894480,-0.983398,0.040039,-0.139160,-13.719513,-2.378049,0.548781,-3.437500,39.287502,0.418750,0.0,1.000000,0.000000,0.000000,0.000000
1782117391.130718,1894491,-0.974121,0.039551,-0.159180,-14.085366,-0.670732,0.000000,-3.825000,38.818752,0.356250,0.0,1.000000,0.000000,0.000000,0.000000
1782117391.140718,1894501,-0.985352,0.032227,-0.173828,-12.987805,0.243902,0.914634,-3.825000,38.818752,0.356250,0.0,1.000000,0.000000,0.000000,0.000000
1782117391.149718,1894510,-0.992676,0.024414,-0.170898,-10.243902,-0.670732,1.951220,-3.843750,38.718750,0.387500,0.0,1.000000,0.000000,0.000000,0.000000
1782117391.160718,1894521,-0.995117,0.009766,-0.160156,-6.829268,-1.890244,2.317073,-3.843750,38.718750,0.387500,0.0,1.000000,0.000000,0.000000,0.000000
1782117391.171718,1894532,-1.001953,0.019043,-0.165039,-2.195122,-1.158537,2.195122,-3.762500,38.693752,0.512500,0.0,1.000000,0.000000,0.000000,0.000000
1782117391.179718,1894540,-1.001953,0.019043,-0.165039,-2.195122,-1.158537,2.195122,-3.762500,38.693752,0.512500,0.0,1.000000,0.000000,0.000000,0.000000
1782117391.189718,1894550,-1.005371,0.028320,-0.177734,-1.829268,-2.500000,2.743902,-3.762500,38.681252,0.593750,0.0,1.000000,0.000000,0.000000,0.000000
1782117391.199718,1894560,-1.000488,0.027832,-0.186035,-1.402439,-3.902439,3.902439,-3.762500,38.681252,0.593750,0.0,1.000000,0.000000,0.000000,0.000000
1782117391.211718,1894572,-0.985352,0.028809,-0.188477,-0.060976,-5.182927,4.512195,-3.662500,38.693752,0.781250,0.0,1.000000,0.000000,0.000000,0.000000
1782117391.219718,1894580,-0.978027,0.031250,-0.189453,1.402439,-4.329268,4.695122,-3.662500,38.693752,0.781250,0.0,1.000000,0.000000,0.000000,0.000000
1782117391.229718,1894590,-0.983887,0.037109,-0.196777,1.158537,-3.719512,3.963415,-3.481250,38.768749,0.968750,0.0,1.000000,0.000000,0.000000,0.000000
1782117391.239718,1894600,-0.978516,0.041992,-0.207520,0.548781,-3.475610,3.170732,-3.481250,38.768749,0.968750,0.0,1.000000,0.000000,0.000000,0.000000
1782117391.249718,1894610,-0.971680,0.035156,-0.221680,0.853659,-2.743902,2.317073,-3.568750,38.725002,1.025000,0.0,1.000000,0.000000,0.000000,0.000000
1782117391.259718,1894620,-0.969238,0.038086,-0.229492,1.707317,-2.378049,1.341463,-3.568750,38.725002,1.025000,0.0,1.000000,0.000000,0.000000,0.000000
1782117391.269718,1894630,-0.982910,0.049316,-0.223145,2.134146,-2.195122,0.121951,-3.468750,38.825001,1.200000,0.0,1.000000,0.000000,0.000000,0.000000
1782117391.279718,1894640,-0.967773,0.071777,-0.221680,1.829268,-2.682927,-0.304878,-3.468750,38.825001,1.200000,0.0,1.000000,0.000000,0.000000,0.000000
1782117391.291718,1894652,-0.962402,0.082520,-0.212891,1.158537,-1.524390,-0.548781,-3.543750,38.731251,1.250000,0.0,1.000000,0.000000,0.000000,0.000000
1782117391.299718,1894660,-0.952637,0.087402,-0.216309,0.000000,0.487805,-0.426829,-3.543750,38.731251,1.250000,0.0,1.000000,0.000000,0.000000,0.000000
1782117391.309718,1894670,-0.949219,0.102051,-0.227051,-3.292683,2.926829,-0.609756,-3.525000,38.856251,1.300000,0.0,1.000000,0.000000,0.000000,0.000000
1782117391.319718,1894680,-0.957031,0.122070,-0.236328,-7.926829,4.268293,-0.487805,-3.525000,38.856251,1.300000,0.0,1.000000,0.000000,0.000000,0.000000
1782117391.332718,1894693,-0.992676,0.141113,-0.252441,-13.231708,7.134147,1.768293,-3.618750,38.750000,1.256250,0.0,1.000000,0.000000,0.000000,0.000000
1782117391.340718,1894701,-1.004395,0.127441,-0.256348,-16.707317,7.743903,3.780488,-3.618750,38.750000,1.256250,0.0,1.000000,0.000000,0.000000,0.000000
1782117391.350718,1894711,-0.978027,0.104492,-0.244629,-20.121952,5.792683,1.280488,-3.518750,38.918751,1.050000,0.0,1.000000,0.000000,0.000000,0.000000
1782117391.360718,1894721,-0.940918,0.100098,-0.251953,-26.158537,7.378049,-1.951220,-3.518750,38.918751,1.050000,0.0,1.000000,0.000000,0.000000,0.000000
1782117391.371718,1894732,-0.945801,0.091309,-0.265137,-29.634148,15.914635,-1.951220,-3.756250,38.768749,0.825000,0.0,1.000000,0.000000,0.000000,0.000000
1782117391.379718,1894740,-0.953125,0.066895,-0.273438,-31.524391,22.317074,-2.439024,-3.756250,38.768749,0.825000,0.0,1.000000,0.000000,0.000000,0.000000
1782117391.389718,1894750,-0.966797,0.029785,-0.270996,-32.012196,24.878050,-3.170732,-3.800000,38.868752,0.468750,0.0,1.000000,0.000000,0.000000,0.000000
1782117391.399718,1894760,-0.987793,-0.017578,-0.270996,-29.329269,25.853659,-3.292683,-3.975000,38.856251,-0.100000,0.0,1.000000,0.000000,0.000000,0.000000
1782117391.413718,1894774,-1.013672,-0.041992,-0.262695,-25.487806,22.743902,-4.329268,-3.975000,38.856251,-0.100000,0.0,1.000000,0.000000,0.000000,0.000000
1782117391.419718,1894780,-1.015625,-0.041504,-0.258789,-23.048780,18.597561,-5.426829,-4.100000,38.912502,-0.450000,0.0,1.000000,0.000000,0.000000,0.000000
1782117391.429718,1894790,-1.000977,-0.014648,-0.259277,-21.951220,14.878049,-6.524390,-4.100000,38.912502,-0.450000,0.0,1.000000,0.000000,0.000000,0.000000
1782117391.439718,1894800,-0.984863,0.017090,-0.259277,-20.365854,12.439025,-6.646342,-4.306250,38.924999,-0.700000,0.0,1.000000,0.000000,0.000000,0.000000
1782117391.452718,1894813,-0.958008,0.041504,-0.265625,-19.024391,10.000000,-6.280488,-4.306250,38.924999,-0.700000,0.0,1.000000,0.000000,0.000000,0.000000
1782117391.459718,1894820,-0.960449,0.048828,-0.257324,-19.390244,7.073171,-6.890244,-4.331250,39.087502,-0.843750,0.0,1.000000,0.000000,0.000000,0.000000
1782117391.469718,1894830,-0.895020,0.050781,-0.276855,-19.146341,5.670732,-5.914634,-4.331250,39.087502,-0.843750,0.0,1.000000,0.000000,0.000000,0.000000
1782117391.479718,1894840,-0.908203,0.030273,-0.275879,-15.426829,10.487805,-4.207317,-4.493750,38.993752,-1.056250,0.0,1.000000,0.000000,0.000000,0.000000
1782117391.491718,1894852,-0.938477,0.001953,-0.262207,-13.353659,12.195122,-3.658537,-4.493750,38.993752,-1.056250,0.0,1.000000,0.000000,0.000000,0.000000
1782117391.499718,1894860,-0.953125,-0.040527,-0.265137,-11.768293,13.109756,-3.536585,-4.468750,39.181252,-1.212500,0.0,1.000000,0.000000,0.000000,0.000000
1782117391.510718,1894871,-0.957520,-0.074707,-0.278809,-9.695122,14.512196,-4.207317,-4.468750,39.181252,-1.212500,0.0,1.000000,0.000000,0.000000,0.000000
1782117391.519718,1894880,-0.959473,-0.085449,-0.282227,-7.500000,15.487805,-5.121951,-4.675000,39.118752,-1.400000,0.0,1.000000,0.000000,0.000000,0.000000
1782117391.532718,1894893,-0.963867,-0.072754,-0.282227,-5.365854,15.792684,-5.792683,-4.675000,39.118752,-1.400000,0.0,1.000000,0.000000,0.000000,0.000000
1782117391.539718,1894900,-0.976562,-0.044922,-0.277344,-3.719512,15.853659,-6.097561,-4.793750,39.075001,-1.693750,0.0,1.000000,0.000000,0.000000,0.000000
1782117391.549718,1894910,-0.978516,-0.008301,-0.273438,-2.439024,14.878049,-5.914634,-4.793750,39.075001,-1.693750,0.0,1.000000,0.000000,0.000000,0.000000
1782117391.560718,1894921,-0.974609,0.021973,-0.266113,-0.914634,13.170732,-5.182927,-4.862500,39.181252,-1.837500,0.0,1.000000,0.000000,0.000000,0.000000
1782117391.571718,1894932,-0.968750,0.039062,-0.263184,0.670732,11.341464,-4.268293,-4.862500,39.181252,-1.837500,0.0,1.000000,0.000000,0.000000,0.000000
1782117391.579718,1894940,-0.967773,0.041016,-0.264648,1.951220,9.817074,-3.780488,-4.975000,39.106251,-1.950000,0.0,1.000000,0.000000,0.000000,0.000000
1782117391.589718,1894950,-0.964844,0.045898,-0.266113,3.597561,8.841464,-3.536585,-4.975000,39.106251,-1.950000,0.0,1.000000,0.000000,0.000000,0.000000
1782117391.600718,1894961,-0.968750,0.036621,-0.263184,6.158537,8.536586,-2.987805,-5.168750,39.049999,-2.131250,0.0,1.000000,0.000000,0.000000,0.000000
1782117391.611718,1894972,-0.979980,0.022949,-0.264648,7.865854,8.475610,-2.621951,-5.168750,39.049999,-2.131250,0.0,1.000000,0.000000,0.000000,0.000000
1782117391.619718,1894980,-0.985840,0.018066,-0.270020,7.378049,8.109756,-2.926829,-5.200000,39.093750,-2.206250,0.0,1.000000,0.000000,0.000000,0.000000
1782117391.629718,1894990,-0.979004,0.020508,-0.281738,4.634146,7.621952,-3.597561,-5.200000,39.093750,-2.206250,0.0,1.000000,0.000000,0.000000,0.000000
1782117391.639718,1895000,-0.968750,0.029785,-0.291992,1.158537,7.804878,-4.207317,-5.256250,39.087502,-2.275000,0.0,1.000000,0.000000,0.000000,0.000000
1782117391.652718,1895013,-0.962891,0.046387,-0.299316,-2.073171,7.804878,-4.878049,-5.331250,39.100002,-2.387500,0.0,1.000000,0.000000,0.000000,0.000000
1782117391.659718,1895020,-0.951172,0.062988,-0.297852,-3.963415,7.865854,-4.939024,-5.331250,39.100002,-2.387500,0.0,1.000000,0.000000,0.000000,0.000000
1782117391.669718,1895030,-0.948242,0.066406,-0.290039,-5.121951,8.170732,-4.390244,-5.331250,39.100002,-2.387500,0.0,1.000000,0.000000,0.000000,0.000000
1782117391.679718,1895040,-0.949707,0.060547,-0.288574,-6.524390,8.475610,-3.719512,-5.406250,39.081249,-2.518750,0.0,1.000000,0.000000,0.000000,0.000000
1782117391.691718,1895052,-0.959961,0.047363,-0.294434,-7.865854,8.719512,-2.743902,-5.406250,39.081249,-2.518750,0.0,1.000000,0.000000,0.000000,0.000000
1782117391.699718,1895060,-0.968262,0.030762,-0.303711,-8.048780,7.987805,-2.073171,-5.468750,39.081249,-2.643750,0.0,1.000000,0.000000,0.000000,0.000000
1782117391.709718,1895070,-0.972168,0.018555,-0.308594,-7.073171,6.585366,-1.768293,-5.406250,39.250000,-2.793750,0.0,1.000000,0.000000,0.000000,0.000000
1782117391.719718,1895080,-0.974609,0.010742,-0.312500,-5.182927,4.939024,-1.707317,-5.406250,39.250000,-2.793750,0.0,1.000000,0.000000,0.000000,0.000000
1782117391.730718,1895091,-0.972168,0.008301,-0.313477,-2.621951,3.353659,-1.524390,-5.581250,39.100002,-2.875000,0.0,1.000000,0.000000,0.000000,0.000000
1782117391.739718,1895100,-0.962891,0.004883,-0.313965,0.487805,2.256098,-1.402439,-5.581250,39.100002,-2.875000,0.0,1.000000,0.000000,0.000000,0.000000
1782117391.749718,1895110,-0.958984,0.002441,-0.312988,3.536585,2.012195,-1.219512,-5.618750,39.125000,-2.906250,0.0,1.000000,0.000000,0.000000,0.000000
1782117391.759718,1895120,-0.954102,0.001465,-0.311523,5.548780,2.012195,-1.036585,-5.618750,39.125000,-2.906250,0.0,1.000000,0.000000,0.000000,0.000000
1782117391.772718,1895133,-0.946777,-0.000488,-0.314453,6.158537,2.012195,-0.792683,-5.612500,39.131252,-2.925000,0.0,1.000000,0.000000,0.000000,0.000000
1782117391.779718,1895140,-0.943848,0.004395,-0.316895,5.548780,2.073171,-0.609756,-5.612500,39.131252,-2.925000,0.0,1.000000,0.000000,0.000000,0.000000
1782117391.789718,1895150,-0.939453,0.020020,-0.318359,4.512195,2.256098,-0.731707,-5.525000,39.225002,-2.856250,0.0,1.000000,0.000000,0.000000,0.000000
1782117391.799718,1895160,-0.939941,0.033203,-0.317383,3.658537,2.804878,-0.670732,-5.525000,39.225002,-2.856250,0.0,1.000000,0.000000,0.000000,0.000000
1782117391.811718,1895172,-0.940430,0.037109,-0.317383,2.804878,3.719512,-0.548781,-5.618750,39.118752,-2.956250,0.0,1.000000,0.000000,0.000000,0.000000
1782117391.819718,1895180,-0.940918,0.035645,-0.318359,1.829268,4.512195,-0.670732,-5.618750,39.118752,-2.956250,0.0,1.000000,0.000000,0.000000,0.000000
1782117391.829718,1895190,-0.943359,0.029297,-0.318359,0.548781,5.365854,-0.853659,-5.637500,39.118752,-2.975000,0.0,1.000000,0.000000,0.000000,0.000000
1782117391.839718,1895200,-0.941895,0.023926,-0.318848,-0.609756,6.097561,-0.975610,-5.637500,39.118752,-2.975000,0.0,1.000000,0.000000,0.000000,0.000000
1782117391.852718,1895213,-0.941895,0.016602,-0.316895,-1.219512,6.646342,-0.792683,-5.675000,39.112499,-3.137500,0.0,1.000000,0.000000,0.000000,0.000000
1782117391.859718,1895220,-0.946289,0.011719,-0.314941,-1.280488,7.317073,-0.548781,-5.675000,39.112499,-3.137500,0.0,1.000000,0.000000,0.000000,0.000000
1782117391.869718,1895230,-0.953613,0.011230,-0.314941,-0.853659,7.682927,-0.060976,-5.675000,39.137501,-3.250000,0.0,1.000000,0.000000,0.000000,0.000000
1782117391.879718,1895240,-0.962402,0.013184,-0.312500,0.121951,7.439024,0.365854,-5.675000,39.137501,-3.250000,0.0,1.000000,0.000000,0.000000,0.000000
1782117391.892718,1895253,-0.969238,0.015137,-0.307617,1.585366,7.073171,0.792683,-5.768750,39.081249,-3.287500,0.0,1.000000,0.000000,0.000000,0.000000
1782117391.899718,1895260,-0.974609,0.016113,-0.301758,3.109756,6.646342,1.097561,-5.768750,39.081249,-3.287500,0.0,1.000000,0.000000,0.000000,0.000000
1782117391.909718,1895270,-0.977539,0.015625,-0.294434,4.512195,6.036585,1.280488,-5.668750,39.156250,-3.412500,0.0,1.000000,0.000000,0.000000,0.000000
1782117391.919718,1895280,-0.977539,0.015625,-0.294434,4.512195,6.036585,1.280488,-5.668750,39.156250,-3.412500,0.0,1.000000,0.000000,0.000000,0.000000
1782117391.932718,1895293,-0.977539,0.008301,-0.283691,6.707317,4.939024,1.585366,-5.762500,39.062500,-3.512500,0.0,1.000000,0.000000,0.000000,0.000000
1782117391.939718,1895300,-0.977539,0.008301,-0.283691,6.707317,4.939024,1.585366,-5.762500,39.062500,-3.512500,0.0,1.000000,0.000000,0.000000,0.000000
1782117391.949718,1895310,-0.980469,0.005371,-0.279297,7.439024,4.451220,1.829268,-5.581250,39.212502,-3.575000,0.0,1.000000,0.000000,0.000000,0.000000
1782117391.959718,1895320,-0.981934,0.004395,-0.273926,8.048780,4.268293,1.951220,-5.581250,39.212502,-3.575000,0.0,1.000000,0.000000,0.000000,0.000000
1782117391.972718,1895333,-0.975098,0.016113,-0.267090,7.987805,2.682927,1.280488,-5.712500,39.125000,-3.593750,0.0,1.000000,0.000000,0.000000,0.000000
1782117391.979718,1895340,-0.975098,0.016113,-0.267090,7.987805,2.682927,1.280488,-5.712500,39.125000,-3.593750,0.0,1.000000,0.000000,0.000000,0.000000
1782117391.989718,1895350,-0.966797,0.030762,-0.259766,7.500000,2.317073,0.914634,-5.543750,39.275002,-3.618750,0.0,1.000000,0.000000,0.000000,0.000000
1782117392.000718,1895361,-0.962402,0.041992,-0.253906,6.585366,2.439024,1.036585,-5.606250,39.168751,-3.600000,0.0,1.000000,0.000000,0.000000,0.000000
1782117392.009718,1895370,-0.967285,0.041504,-0.253906,5.365854,2.987805,1.463415,-5.606250,39.168751,-3.600000,0.0,1.000000,0.000000,0.000000,0.000000
1782117392.019718,1895380,-0.975098,0.037109,-0.256836,3.841464,3.109756,1.890244,-5.487500,39.275002,-3.618750,0.0,1.000000,0.000000,0.000000,0.000000
1782117392.029718,1895390,-0.980469,0.031738,-0.260254,2.012195,2.500000,1.951220,-5.487500,39.275002,-3.618750,0.0,1.000000,0.000000,0.000000,0.000000
1782117392.039718,1895400,-0.976562,0.027832,-0.259277,0.548781,1.890244,1.585366,-5.537500,39.168751,-3.675000,0.0,1.000000,0.000000,0.000000,0.000000
1782117392.049718,1895410,-0.972656,0.023926,-0.257324,-0.426829,1.585366,1.280488,-5.537500,39.168751,-3.675000,0.0,1.000000,0.000000,0.000000,0.000000
1782117392.059718,1895420,-0.972656,0.020020,-0.262207,-0.670732,1.463415,1.219512,-5.387500,39.375000,-3.693750,0.0,1.000000,0.000000,0.000000,0.000000
1782117392.069718,1895430,-0.972656,0.019531,-0.265625,-0.243902,1.219512,1.158537,-5.387500,39.375000,-3.693750,0.0,1.000000,0.000000,0.000000,0.000000
1782117392.079718,1895440,-0.969727,0.019531,-0.266113,0.243902,0.975610,1.036585,-5.543750,39.168751,-3.800000,0.0,1.000000,0.000000,0.000000,0.000000
1782117392.089718,1895450,-0.970703,0.018555,-0.262695,0.731707,0.975610,0.975610,-5.543750,39.168751,-3.800000,0.0,1.000000,0.000000,0.000000,0.000000
1782117392.099718,1895460,-0.973633,0.016602,-0.259766,1.097561,0.853659,1.036585,-5.450000,39.250000,-3.793750,0.0,1.000000,0.000000,0.000000,0.000000
1782117392.110718,1895471,-0.972656,0.016113,-0.257812,0.914634,0.609756,0.975610,-5.450000,39.250000,-3.793750,0.0,1.000000,0.000000,0.000000,0.000000
1782117392.119718,1895480,-0.969238,0.016602,-0.263184,0.731707,0.487805,1.036585,-5.406250,39.362499,-3.756250,0.0,1.000000,0.000000,0.000000,0.000000
1782117392.129718,1895490,-0.969727,0.019531,-0.264648,0.731707,0.365854,1.036585,-5.406250,39.362499,-3.756250,0.0,1.000000,0.000000,0.000000,0.000000
1782117392.139718,1895500,-0.971680,0.021484,-0.263672,0.792683,0.426829,1.036585,-5.468750,39.287502,-3.762500,0.0,1.000000,0.000000,0.000000,0.000000
1782117392.149718,1895510,-0.970215,0.021484,-0.262207,1.036585,0.426829,1.158537,-5.468750,39.287502,-3.762500,0.0,1.000000,0.000000,0.000000,0.000000
1782117392.160718,1895521,-0.970703,0.019043,-0.261719,1.341463,0.304878,1.219512,-5.462500,39.262501,-3.793750,0.0,1.000000,0.000000,0.000000,0.000000
1782117392.169718,1895530,-0.971680,0.017090,-0.264648,1.707317,0.365854,1.341463,-5.462500,39.262501,-3.793750,0.0,1.000000,0.000000,0.000000,0.000000
1782117392.180718,1895541,-0.973633,0.013184,-0.270996,1.646341,0.182927,1.341463,-5.481250,39.262501,-3.775000,0.0,1.000000,0.000000,0.000000,0.000000
1782117392.190718,1895551,-0.969727,0.016602,-0.277344,1.341463,0.000000,1.158537,-5.481250,39.262501,-3.775000,0.0,1.000000,0.000000,0.000000,0.000000
1782117392.199718,1895560,-0.965332,0.021484,-0.277832,1.280488,-0.121951,1.036585,-5.425000,39.293751,-3.812500,0.0,1.000000,0.000000,0.000000,0.000000
1782117392.212718,1895573,-0.961914,0.024414,-0.276367,1.280488,0.000000,0.914634,-5.425000,39.293751,-3.812500,0.0,1.000000,0.000000,0.000000,0.000000
1782117392.219718,1895580,-0.959961,0.020996,-0.275879,1.524390,0.304878,0.975610,-5.450000,39.281250,-3.781250,0.0,1.000000,0.000000,0.000000,0.000000
1782117392.230718,1895591,-0.960449,0.019043,-0.277344,1.585366,0.548781,0.975610,-5.450000,39.281250,-3.781250,0.0,1.000000,0.000000,0.000000,0.000000
1782117392.239718,1895600,-0.962891,0.017578,-0.282227,1.280488,0.670732,1.097561,-5.512500,39.212502,-3.793750,0.0,1.000000,0.000000,0.000000,0.000000
1782117392.249718,1895610,-0.963867,0.018066,-0.283203,0.914634,0.609756,1.280488,-5.512500,39.212502,-3.793750,0.0,1.000000,0.000000,0.000000,0.000000
1782117392.259718,1895620,-0.962891,0.018066,-0.287109,0.609756,0.609756,1.341463,-5.556250,39.181252,-3.787500,0.0,1.000000,0.000000,0.000000,0.000000
1782117392.269718,1895630,-0.966309,0.020020,-0.288574,0.487805,0.426829,1.402439,-5.556250,39.181252,-3.787500,0.0,1.000000,0.000000,0.000000,0.000000
1782117392.279718,1895640,-0.969238,0.025879,-0.286621,0.548781,0.182927,1.402439,-5.425000,39.275002,-3.743750,0.0,1.000000,0.000000,0.000000,0.000000
1782117392.289718,1895650,-0.967773,0.029297,-0.285156,0.731707,-0.243902,1.280488,-5.275000,39.437500,-3.787500,0.0,1.000000,0.000000,0.000000,0.000000
1782117392.299718,1895660,-0.965820,0.028809,-0.287109,0.792683,-0.243902,1.158537,-5.275000,39.437500,-3.787500,0.0,1.000000,0.000000,0.000000,0.000000
1782117392.309718,1895670,-0.962891,0.028320,-0.289062,0.670732,-0.304878,1.036585,-5.481250,39.268749,-3.737500,0.0,1.000000,0.000000,0.000000,0.000000
1782117392.319718,1895680,-0.960449,0.029297,-0.290039,0.182927,-0.304878,0.853659,-5.481250,39.268749,-3.737500,0.0,1.000000,0.000000,0.000000,0.000000
1782117392.329718,1895690,-0.959473,0.032227,-0.290039,-0.487805,-0.304878,0.792683,-5.481250,39.225002,-3.793750,0.0,1.000000,0.000000,0.000000,0.000000
1782117392.339718,1895700,-0.959473,0.031738,-0.291016,-0.914634,-0.243902,0.853659,-5.481250,39.225002,-3.793750,0.0,1.000000,0.000000,0.000000,0.000000
1782117392.349718,1895710,-0.960938,0.032227,-0.291992,-1.097561,-0.304878,0.975610,-5.375000,39.393749,-3.781250,0.0,1.000000,0.000000,0.000000,0.000000
1782117392.359718,1895720,-0.960449,0.031738,-0.293457,-1.097561,-0.487805,1.158537,-5.375000,39.393749,-3.781250,0.0,1.000000,0.000000,0.000000,0.000000
1782117392.369718,1895730,-0.959961,0.029785,-0.291992,-1.280488,-0.609756,1.219512,-5.406250,39.306252,-3.781250,0.0,1.000000,0.000000,0.000000,0.000000
1782117392.380718,1895741,-0.959961,0.028320,-0.291016,-1.585366,-0.548781,1.219512,-5.406250,39.306252,-3.781250,0.0,1.000000,0.000000,0.000000,0.000000
1782117392.389718,1895750,-0.957031,0.025391,-0.294922,-1.768293,-0.426829,1.158537,-5.275000,39.456249,-3.762500,0.0,1.000000,0.000000,0.000000,0.000000
1782117392.400718,1895761,-0.958496,0.024414,-0.295898,-1.707317,-0.243902,1.036585,-5.275000,39.456249,-3.762500,0.0,1.000000,0.000000,0.000000,0.000000
1782117392.409718,1895770,-0.956543,0.023926,-0.294434,-1.585366,-0.304878,0.975610,-5.437500,39.306252,-3.781250,0.0,1.000000,0.000000,0.000000,0.000000
1782117392.420718,1895781,-0.957520,0.026367,-0.290039,-1.524390,-0.121951,0.914634,-5.437500,39.306252,-3.781250,0.0,1.000000,0.000000,0.000000,0.000000
1782117392.430718,1895791,-0.961426,0.024902,-0.288086,-1.280488,0.121951,1.219512,-5.393750,39.375000,-3.806250,0.0,1.000000,0.000000,0.000000,0.000000
1782117392.440718,1895801,-0.962402,0.020996,-0.288574,-1.158537,0.121951,1.341463,-5.393750,39.375000,-3.806250,0.0,1.000000,0.000000,0.000000,0.000000
1782117392.450718,1895811,-0.963867,0.020508,-0.290039,-1.158537,0.000000,1.280488,-5.256250,39.518749,-3.700000,0.0,1.000000,0.000000,0.000000,0.000000
1782117392.460718,1895821,-0.964355,0.020020,-0.292480,-1.158537,-0.121951,1.158537,-5.256250,39.518749,-3.700000,0.0,1.000000,0.000000,0.000000,0.000000
1782117392.469718,1895830,-0.965820,0.021484,-0.288574,-0.853659,-0.304878,1.036585,-5.481250,39.281250,-3.831250,0.0,1.000000,0.000000,0.000000,0.000000
1782117392.479718,1895840,-0.961914,0.027344,-0.283203,-0.243902,-0.609756,1.036585,-5.481250,39.281250,-3.831250,0.0,1.000000,0.000000,0.000000,0.000000
1782117392.489718,1895850,-0.959473,0.030762,-0.278320,0.121951,-0.609756,1.036585,-5.500000,39.299999,-3.856250,0.0,1.000000,0.000000,0.000000,0.000000
1782117392.499718,1895860,-0.960449,0.031738,-0.279297,0.243902,-0.426829,1.280488,-5.500000,39.299999,-3.856250,0.0,1.000000,0.000000,0.000000,0.000000
1782117392.509718,1895870,-0.960938,0.030762,-0.283203,0.000000,-0.304878,1.524390,-5.475000,39.331249,-3.831250,0.0,1.000000,0.000000,0.000000,0.000000
1782117392.520718,1895881,-0.963379,0.028809,-0.287109,-0.243902,-0.243902,1.646341,-5.475000,39.331249,-3.831250,0.0,1.000000,0.000000,0.000000,0.000000
1782117392.529718,1895890,-0.964355,0.027832,-0.291016,-0.487805,-0.365854,1.646341,-5.450000,39.256252,-3.843750,0.0,1.000000,0.000000,0.000000,0.000000
1782117392.539718,1895900,-0.963867,0.024414,-0.292969,-0.426829,-0.426829,1.585366,-5.450000,39.256252,-3.843750,0.0,1.000000,0.000000,0.000000,0.000000
1782117392.549718,1895910,-0.962402,0.025879,-0.291016,-0.182927,-0.731707,1.280488,-5.381250,39.381252,-3.812500,0.0,1.000000,0.000000,0.000000,0.000000
1782117392.559718,1895920,-0.956543,0.026367,-0.288086,0.426829,-0.670732,1.097561,-5.381250,39.381252,-3.812500,0.0,1.000000,0.000000,0.000000,0.000000
1782117392.569718,1895930,-0.957031,0.026367,-0.285156,0.914634,-0.365854,1.036585,-5.425000,39.262501,-3.793750,0.0,1.000000,0.000000,0.000000,0.000000
1782117392.580718,1895941,-0.958984,0.026367,-0.287598,0.975610,-0.243902,1.280488,-5.400000,39.325001,-3.756250,0.0,1.000000,0.000000,0.000000,0.000000
1782117392.590718,1895951,-0.958496,0.025391,-0.290039,0.731707,-0.121951,1.463415,-5.400000,39.325001,-3.756250,0.0,1.000000,0.000000,0.000000,0.000000
1782117392.600718,1895961,-0.958496,0.022949,-0.291992,0.609756,0.000000,1.646341,-5.281250,39.418751,-3.750000,0.0,1.000000,0.000000,0.000000,0.000000
1782117392.610718,1895971,-0.961914,0.023926,-0.294922,0.914634,0.000000,1.585366,-5.281250,39.418751,-3.750000,0.0,1.000000,0.000000,0.000000,0.000000
1782117392.620718,1895981,-0.962891,0.025879,-0.294434,1.463415,-0.121951,1.646341,-5.325000,39.406250,-3.762500,0.0,1.000000,0.000000,0.000000,0.000000
1782117392.630718,1895991,-0.961914,0.025391,-0.292969,2.500000,-0.365854,1.646341,-5.325000,39.406250,-3.762500,0.0,1.000000,0.000000,0.000000,0.000000
1782117392.639718,1896000,-0.960449,0.023926,-0.290039,3.292683,-0.487805,1.585366,-5.437500,39.325001,-3.762500,0.0,1.000000,0.000000,0.000000,0.000000
1782117392.649718,1896010,-0.961426,0.027832,-0.288574,3.414634,-0.304878,1.402439,-5.437500,39.325001,-3.762500,0.0,1.000000,0.000000,0.000000,0.000000
1782117392.659718,1896020,-0.958008,0.029785,-0.284180,3.414634,-0.060976,1.341463,-5.362500,39.418751,-3.706250,0.0,1.000000,0.000000,0.000000,0.000000
1782117392.669718,1896030,-0.958008,0.029785,-0.283203,3.231707,0.243902,1.402439,-5.362500,39.418751,-3.706250,0.0,1.000000,0.000000,0.000000,0.000000
1782117392.679718,1896040,-0.959961,0.029785,-0.286621,3.048780,0.365854,1.524390,-5.368750,39.406250,-3.675000,0.0,1.000000,0.000000,0.000000,0.000000
1782117392.689718,1896050,-0.960938,0.032715,-0.291504,2.865854,0.487805,1.646341,-5.368750,39.406250,-3.675000,0.0,1.000000,0.000000,0.000000,0.000000
1782117392.699718,1896060,-0.961914,0.036133,-0.293945,2.560976,0.304878,1.707317,-5.287500,39.393749,-3.637500,0.0,1.000000,0.000000,0.000000,0.000000
1782117392.709718,1896070,-0.962402,0.034180,-0.295410,2.256098,0.243902,1.707317,-5.287500,39.393749,-3.637500,0.0,1.000000,0.000000,0.000000,0.000000
1782117392.719718,1896080,-0.963379,0.034180,-0.291992,2.378049,0.060976,1.585366,-5.387500,39.331249,-3.706250,0.0,1.000000,0.000000,0.000000,0.000000
1782117392.729718,1896090,-0.959961,0.034180,-0.287598,2.621951,-0.121951,1.341463,-5.387500,39.331249,-3.706250,0.0,1.000000,0.000000,0.000000,0.000000
1782117392.739718,1896100,-0.957520,0.033691,-0.284180,2.621951,0.000000,1.219512,-5.206250,39.500000,-3.693750,0.0,1.000000,0.000000,0.000000,0.000000
1782117392.749718,1896110,-0.960938,0.030273,-0.285156,2.439024,0.365854,1.219512,-5.206250,39.500000,-3.693750,0.0,1.000000,0.000000,0.000000,0.000000
1782117392.759718,1896120,-0.960938,0.030273,-0.285156,2.439024,0.365854,1.219512,-5.325000,39.375000,-3.681250,0.0,1.000000,0.000000,0.000000,0.000000
1782117392.769718,1896130,-0.961426,0.027832,-0.288574,2.012195,0.487805,1.402439,-5.325000,39.375000,-3.681250,0.0,1.000000,0.000000,0.000000,0.000000
1782117392.779718,1896140,-0.960938,0.024902,-0.291992,1.585366,0.670732,1.402439,-5.362500,39.362499,-3.693750,0.0,1.000000,0.000000,0.000000,0.000000
1782117392.789718,1896150,-0.959473,0.024414,-0.293945,1.463415,0.853659,1.402439,-5.362500,39.362499,-3.693750,0.0,1.000000,0.000000,0.000000,0.000000
1782117392.800718,1896161,-0.960938,0.025391,-0.293945,1.646341,0.914634,1.402439,-5.331250,39.362499,-3.725000,0.0,1.000000,0.000000,0.000000,0.000000
1782117392.809718,1896170,-0.958496,0.027832,-0.292480,2.073171,0.853659,1.280488,-5.331250,39.362499,-3.725000,0.0,1.000000,0.000000,0.000000,0.000000
1782117392.820718,1896181,-0.958496,0.030273,-0.292969,2.439024,0.975610,1.219512,-5.281250,39.400002,-3.712500,0.0,1.000000,0.000000,0.000000,0.000000
1782117392.829718,1896190,-0.960449,0.032715,-0.291504,2.621951,0.975610,1.280488,-5.281250,39.400002,-3.712500,0.0,1.000000,0.000000,0.000000,0.000000
1782117392.839718,1896200,-0.960449,0.032715,-0.289551,2.500000,0.975610,1.341463,-5.281250,39.412502,-3.756250,0.0,1.000000,0.000000,0.000000,0.000000
1782117392.850718,1896211,-0.959961,0.033691,-0.291504,2.012195,1.036585,1.341463,-5.281250,39.412502,-3.756250,0.0,1.000000,0.000000,0.000000,0.000000
1782117392.859718,1896220,-0.959961,0.032715,-0.291992,1.951220,1.097561,1.463415,-5.312500,39.350002,-3.743750,0.0,1.000000,0.000000,0.000000,0.000000
1782117392.869718,1896230,-0.960449,0.031250,-0.292480,2.134146,1.036585,1.463415,-5.312500,39.350002,-3.743750,0.0,1.000000,0.000000,0.000000,0.000000
1782117392.879718,1896240,-0.959961,0.032227,-0.292480,2.195122,0.975610,1.463415,-5.200000,39.456249,-3.718750,0.0,1.000000,0.000000,0.000000,0.000000
1782117392.889718,1896250,-0.960449,0.031738,-0.291504,2.256098,0.914634,1.463415,-5.275000,39.400002,-3.743750,0.0,1.000000,0.000000,0.000000,0.000000
1782117392.901718,1896262,-0.962402,0.031738,-0.290527,2.378049,0.914634,1.463415,-5.275000,39.400002,-3.743750,0.0,1.000000,0.000000,0.000000,0.000000
1782117392.909718,1896270,-0.962891,0.030273,-0.290039,2.378049,0.853659,1.524390,-5.162500,39.525002,-3.737500,0.0,1.000000,0.000000,0.000000,0.000000
1782117392.920718,1896281,-0.963379,0.031250,-0.287598,2.378049,0.670732,1.463415,-5.162500,39.525002,-3.737500,0.0,1.000000,0.000000,0.000000,0.000000
1782117392.929718,1896290,-0.960938,0.028320,-0.288574,2.317073,0.609756,1.463415,-5.156250,39.525002,-3.725000,0.0,1.000000,0.000000,0.000000,0.000000
1782117392.939718,1896300,-0.962402,0.029297,-0.287109,2.195122,0.670732,1.402439,-5.156250,39.525002,-3.725000,0.0,1.000000,0.000000,0.000000,0.000000
1782117392.949718,1896310,-0.958984,0.030762,-0.284668,2.317073,0.548781,1.402439,-4.925000,39.662502,-3.706250,0.0,1.000000,0.000000,0.000000,0.000000
1782117392.959718,1896320,-0.960938,0.029785,-0.285645,2.378049,0.670732,1.463415,-4.925000,39.662502,-3.706250,0.0,1.000000,0.000000,0.000000,0.000000
1782117392.969718,1896330,-0.961426,0.028320,-0.287109,2.256098,0.670732,1.585366,-5.175000,39.493752,-3.750000,0.0,1.000000,0.000000,0.000000,0.000000
1782117392.981718,1896342,-0.961914,0.030273,-0.290527,2.073171,0.670732,1.585366,-5.175000,39.493752,-3.750000,0.0,1.000000,0.000000,0.000000,0.000000
1782117392.989718,1896350,-0.960449,0.029297,-0.291504,1.829268,0.670732,1.585366,-5.125000,39.450001,-3.706250,0.0,1.000000,0.000000,0.000000,0.000000
1782117393.000718,1896361,-0.960938,0.028809,-0.292480,1.829268,0.670732,1.524390,-5.125000,39.450001,-3.706250,0.0,1.000000,0.000000,0.000000,0.000000
1782117393.009718,1896370,-0.963379,0.029297,-0.289062,1.951220,0.792683,1.341463,-5.125000,39.512501,-3.725000,0.0,1.000000,0.000000,0.000000,0.000000
1782117393.019718,1896380,-0.960938,0.030273,-0.284668,2.134146,0.670732,1.280488,-5.125000,39.512501,-3.725000,0.0,1.000000,0.000000,0.000000,0.000000
1782117393.030718,1896391,-0.960449,0.027832,-0.284180,2.743902,1.036585,1.219512,-4.981250,39.687500,-3.675000,0.0,1.000000,0.000000,0.000000,0.000000
1782117393.040718,1896401,-0.963867,0.026367,-0.282227,2.987805,1.097561,1.280488,-4.981250,39.687500,-3.675000,0.0,1.000000,0.000000,0.000000,0.000000
1782117393.049718,1896410,-0.964355,0.028809,-0.284180,2.926829,0.792683,1.402439,-5.125000,39.525002,-3.725000,0.0,1.000000,0.000000,0.000000,0.000000
1782117393.059718,1896420,-0.963867,0.027832,-0.285156,2.621951,0.487805,1.463415,-5.125000,39.525002,-3.725000,0.0,1.000000,0.000000,0.000000,0.000000
1782117393.069718,1896430,-0.961914,0.028809,-0.287598,2.317073,0.487805,1.524390,-4.950000,39.668751,-3.681250,0.0,1.000000,0.000000,0.000000,0.000000
1782117393.079718,1896440,-0.960938,0.031250,-0.289551,2.134146,0.731707,1.402439,-4.950000,39.668751,-3.681250,0.0,1.000000,0.000000,0.000000,0.000000
1782117393.089718,1896450,-0.960938,0.032715,-0.289551,2.256098,0.853659,1.341463,-5.093750,39.462502,-3.756250,0.0,1.000000,0.000000,0.000000,0.000000
1782117393.099718,1896460,-0.959473,0.031738,-0.288574,2.682927,0.914634,1.280488,-5.093750,39.462502,-3.756250,0.0,1.000000,0.000000,0.000000,0.000000
1782117393.109718,1896470,-0.958496,0.028320,-0.287598,2.865854,0.975610,1.219512,-5.093750,39.512501,-3.737500,0.0,1.000000,0.000000,0.000000,0.000000
1782117393.119718,1896480,-0.958496,0.025391,-0.285645,2.926829,1.097561,1.219512,-5.093750,39.512501,-3.737500,0.0,1.000000,0.000000,0.000000,0.000000
1782117393.129718,1896490,-0.961426,0.023926,-0.285156,2.560976,1.158537,1.219512,-5.168750,39.424999,-3.756250,0.0,1.000000,0.000000,0.000000,0.000000
1782117393.139718,1896500,-0.966309,0.024414,-0.287109,2.317073,0.914634,1.341463,-5.168750,39.424999,-3.756250,0.0,1.000000,0.000000,0.000000,0.000000
1782117393.149718,1896510,-0.965820,0.022461,-0.289551,2.378049,0.548781,1.463415,-4.987500,39.575001,-3.768750,0.0,1.000000,0.000000,0.000000,0.000000
1782117393.159718,1896520,-0.966309,0.023926,-0.293457,2.378049,0.243902,1.402439,-4.987500,39.575001,-3.768750,0.0,1.000000,0.000000,0.000000,0.000000
1782117393.169718,1896530,-0.968750,0.028320,-0.292480,2.439024,0.000000,1.219512,-5.100000,39.481251,-3.762500,0.0,1.000000,0.000000,0.000000,0.000000
1782117393.179718,1896540,-0.966309,0.033691,-0.285645,2.743902,-0.243902,1.158537,-5.087500,39.537502,-3.706250,0.0,1.000000,0.000000,0.000000,0.000000
1782117393.189718,1896550,-0.961426,0.032715,-0.280762,2.865854,-0.243902,1.158537,-5.087500,39.537502,-3.706250,0.0,1.000000,0.000000,0.000000,0.000000
1782117393.199718,1896560,-0.961914,0.031738,-0.280762,2.743902,-0.060976,1.280488,-5.081250,39.506252,-3.681250,0.0,1.000000,0.000000,0.000000,0.000000
1782117393.209718,1896570,-0.964355,0.029785,-0.283203,2.317073,-0.060976,1.463415,-5.081250,39.506252,-3.681250,0.0,1.000000,0.000000,0.000000,0.000000
1782117393.220718,1896581,-0.962891,0.029785,-0.287598,1.585366,-0.304878,1.463415,-5.037500,39.543751,-3.668750,0.0,1.000000,0.000000,0.000000,0.000000
1782117393.229718,1896590,-0.960938,0.029785,-0.291504,1.036585,-0.426829,1.524390,-5.037500,39.543751,-3.668750,0.0,1.000000,0.000000,0.000000,0.000000
1782117393.239718,1896600,-0.961914,0.028809,-0.295898,0.609756,-0.548781,1.524390,-4.800000,39.731251,-3.600000,0.0,1.000000,0.000000,0.000000,0.000000
1782117393.249718,1896610,-0.962891,0.029785,-0.294434,0.548781,-0.731707,1.402439,-4.800000,39.731251,-3.600000,0.0,1.000000,0.000000,0.000000,0.000000
1782117393.260718,1896621,-0.962402,0.028320,-0.291504,0.670732,-0.914634,1.341463,-4.956250,39.593750,-3.650000,0.0,1.000000,0.000000,0.000000,0.000000
1782117393.269718,1896630,-0.961426,0.028320,-0.290527,0.670732,-1.036585,1.280488,-4.956250,39.593750,-3.650000,0.0,1.000000,0.000000,0.000000,0.000000
1782117393.280718,1896641,-0.963379,0.027832,-0.289062,0.609756,-1.036585,1.280488,-5.043750,39.537502,-3.675000,0.0,1.000000,0.000000,0.000000,0.000000
1782117393.289718,1896650,-0.961426,0.027832,-0.289551,0.304878,-1.158537,1.280488,-5.043750,39.537502,-3.675000,0.0,1.000000,0.000000,0.000000,0.000000
1782117393.301718,1896662,-0.961914,0.027832,-0.292969,-0.182927,-1.158537,1.341463,-4.962500,39.618752,-3.587500,0.0,1.000000,0.000000,0.000000,0.000000
1782117393.309718,1896670,-0.959961,0.029297,-0.294434,-0.609756,-1.158537,1.341463,-4.962500,39.618752,-3.587500,0.0,1.000000,0.000000,0.000000,0.000000
1782117393.319718,1896680,-0.959961,0.031250,-0.295410,-0.792683,-1.097561,1.280488,-4.881250,39.643749,-3.631250,0.0,1.000000,0.000000,0.000000,0.000000
1782117393.330718,1896691,-0.960449,0.033203,-0.293457,-0.792683,-1.097561,1.280488,-4.881250,39.643749,-3.631250,0.0,1.000000,0.000000,0.000000,0.000000
1782117393.341718,1896702,-0.959473,0.033203,-0.291992,-0.670732,-1.280488,1.280488,-4.981250,39.618752,-3.587500,0.0,1.000000,0.000000,0.000000,0.000000
1782117393.349718,1896710,-0.957031,0.032227,-0.292969,-0.670732,-1.219512,1.219512,-4.981250,39.618752,-3.587500,0.0,1.000000,0.000000,0.000000,0.000000
1782117393.359718,1896720,-0.957031,0.030273,-0.294434,-0.914634,-1.158537,1.280488,-5.012500,39.531250,-3.637500,0.0,1.000000,0.000000,0.000000,0.000000
1782117393.370718,1896731,-0.957520,0.028320,-0.296875,-1.158537,-1.219512,1.341463,-5.012500,39.531250,-3.637500,0.0,1.000000,0.000000,0.000000,0.000000
1782117393.381718,1896742,-0.957031,0.029297,-0.299316,-1.402439,-1.280488,1.402439,-4.968750,39.606251,-3.618750,0.0,1.000000,0.000000,0.000000,0.000000
1782117393.389718,1896750,-0.957031,0.026855,-0.299805,-1.463415,-1.341463,1.402439,-4.968750,39.606251,-3.618750,0.0,1.000000,0.000000,0.000000,0.000000
1782117393.399718,1896760,-0.960449,0.026855,-0.299316,-1.524390,-1.341463,1.280488,-4.962500,39.606251,-3.575000,0.0,1.000000,0.000000,0.000000,0.000000
1782117393.410718,1896771,-0.962402,0.026855,-0.297363,-1.280488,-1.463415,1.219512,-4.962500,39.606251,-3.575000,0.0,1.000000,0.000000,0.000000,0.000000
1782117393.420718,1896781,-0.959961,0.028320,-0.292480,-0.975610,-1.585366,1.097561,-5.025000,39.437500,-3.581250,0.0,1.000000,0.000000,0.000000,0.000000
1782117393.429718,1896790,-0.958008,0.028809,-0.289551,-0.670732,-1.524390,1.097561,-5.025000,39.437500,-3.581250,0.0,1.000000,0.000000,0.000000,0.000000
1782117393.439718,1896800,-0.956055,0.028809,-0.287598,-0.548781,-1.463415,1.219512,-4.925000,39.606251,-3.556250,0.0,1.000000,0.000000,0.000000,0.000000
1782117393.449718,1896810,-0.956543,0.031250,-0.289551,-0.731707,-1.158537,1.341463,-4.925000,39.606251,-3.556250,0.0,1.000000,0.000000,0.000000,0.000000
1782117393.462718,1896823,-0.958008,0.033691,-0.291504,-1.158537,-1.036585,1.463415,-5.043750,39.468750,-3.587500,0.0,1.000000,0.000000,0.000000,0.000000
1782117393.469718,1896830,-0.958984,0.034180,-0.293457,-1.463415,-1.036585,1.524390,-5.043750,39.468750,-3.587500,0.0,1.000000,0.000000,0.000000,0.000000
1782117393.479718,1896840,-0.959473,0.036621,-0.297852,-1.646341,-0.914634,1.524390,-4.987500,39.512501,-3.593750,0.0,1.000000,0.000000,0.000000,0.000000
1782117393.489718,1896850,-0.958984,0.034668,-0.299316,-1.646341,-0.853659,1.646341,-5.031250,39.537502,-3.612500,0.0,1.000000,0.000000,0.000000,0.000000
1782117393.500718,1896861,-0.962402,0.029785,-0.299805,-1.524390,-1.036585,1.646341,-5.031250,39.537502,-3.612500,0.0,1.000000,0.000000,0.000000,0.000000
1782117393.509718,1896870,-0.960449,0.030762,-0.296387,-1.280488,-1.280488,1.402439,-4.943750,39.612499,-3.550000,0.0,1.000000,0.000000,0.000000,0.000000
1782117393.519718,1896880,-0.958008,0.028809,-0.289551,-0.731707,-1.341463,1.341463,-4.943750,39.612499,-3.550000,0.0,1.000000,0.000000,0.000000,0.000000
1782117393.529718,1896890,-0.958984,0.026855,-0.288574,-0.426829,-1.158537,1.524390,-4.956250,39.618752,-3.575000,0.0,1.000000,0.000000,0.000000,0.000000
1782117393.542718,1896903,-0.959473,0.024414,-0.287598,-0.243902,-1.158537,1.646341,-4.956250,39.618752,-3.575000,0.0,1.000000,0.000000,0.000000,0.000000
1782117393.549718,1896910,-0.959473,0.024414,-0.290039,-0.121951,-1.097561,1.707317,-4.981250,39.606251,-3.481250,0.0,1.000000,0.000000,0.000000,0.000000
1782117393.559718,1896920,-0.958984,0.027832,-0.289551,-0.182927,-0.914634,1.707317,-4.981250,39.606251,-3.481250,0.0,1.000000,0.000000,0.000000,0.000000
1782117393.569718,1896930,-0.958984,0.032227,-0.291504,-0.304878,-0.914634,1.646341,-4.918750,39.593750,-3.493750,0.0,1.000000,0.000000,0.000000,0.000000
1782117393.580718,1896941,-0.958984,0.033203,-0.292969,-0.304878,-0.914634,1.707317,-4.918750,39.593750,-3.493750,0.0,1.000000,0.000000,0.000000,0.000000
1782117393.589718,1896950,-0.959961,0.034668,-0.289551,0.000000,-0.914634,1.768293,-4.868750,39.650002,-3.487500,0.0,1.000000,0.000000,0.000000,0.000000
1782117393.599718,1896960,-0.960449,0.035156,-0.291504,0.304878,-0.853659,1.890244,-4.868750,39.650002,-3.487500,0.0,1.000000,0.000000,0.000000,0.000000
1782117393.610718,1896971,-0.960449,0.035156,-0.291504,0.304878,-0.853659,1.890244,-4.950000,39.606251,-3.543750,0.0,1.000000,0.000000,0.000000,0.000000
1782117393.622718,1896983,-0.962891,0.036133,-0.284668,0.853659,-1.097561,1.768293,-4.950000,39.606251,-3.543750,0.0,1.000000,0.000000,0.000000,0.000000
1782117393.629718,1896990,-0.962891,0.036133,-0.284668,0.853659,-1.097561,1.768293,-4.818750,39.674999,-3.468750,0.0,1.000000,0.000000,0.000000,0.000000
1782117393.639718,1897000,-0.961426,0.034180,-0.281250,1.097561,-1.158537,1.707317,-4.818750,39.674999,-3.468750,0.0,1.000000,0.000000,0.000000,0.000000
1782117393.649718,1897010,-0.962891,0.033691,-0.279785,1.158537,-0.975610,1.646341,-4.887500,39.618752,-3.493750,0.0,1.000000,0.000000,0.000000,0.000000
1782117393.661718,1897022,-0.963379,0.036133,-0.278809,0.792683,-0.670732,1.707317,-4.887500,39.618752,-3.493750,0.0,1.000000,0.000000,0.000000,0.000000
1782117393.670718,1897031,-0.963379,0.036133,-0.278809,0.792683,-0.670732,1.707317,-4.862500,39.643749,-3.475000,0.0,1.000000,0.000000,0.000000,0.000000
1782117393.679718,1897040,-0.966797,0.036621,-0.278809,0.609756,-0.609756,1.829268,-4.862500,39.643749,-3.475000,0.0,1.000000,0.000000,0.000000,0.000000
1782117393.689718,1897050,-0.967285,0.037598,-0.278320,0.609756,-0.731707,1.829268,-4.900000,39.562500,-3.531250,0.0,1.000000,0.000000,0.000000,0.000000
1782117393.701718,1897062,-0.968262,0.040527,-0.283691,0.609756,-1.036585,1.768293,-4.806250,39.637501,-3.468750,0.0,1.000000,0.000000,0.000000,0.000000
1782117393.709718,1897070,-0.968262,0.040527,-0.283691,0.609756,-1.036585,1.768293,-4.806250,39.637501,-3.468750,0.0,1.000000,0.000000,0.000000,0.000000
1782117393.719718,1897080,-0.965332,0.041504,-0.282715,0.853659,-1.280488,1.707317,-4.806250,39.637501,-3.468750,0.0,1.000000,0.000000,0.000000,0.000000
1782117393.729718,1897090,-0.961426,0.043457,-0.279785,1.219512,-1.402439,1.707317,-4.900000,39.562500,-3.425000,0.0,1.000000,0.000000,0.000000,0.000000
1782117393.742718,1897103,-0.958984,0.038574,-0.278809,1.768293,-1.097561,1.829268,-4.881250,39.525002,-3.456250,0.0,1.000000,0.000000,0.000000,0.000000
1782117393.749718,1897110,-0.958984,0.038574,-0.278809,1.768293,-1.097561,1.829268,-4.881250,39.525002,-3.456250,0.0,1.000000,0.000000,0.000000,0.000000
1782117393.759718,1897120,-0.959961,0.036133,-0.279785,1.707317,-0.853659,1.890244,-4.825000,39.575001,-3.425000,0.0,1.000000,0.000000,0.000000,0.000000
1782117393.769718,1897130,-0.962402,0.035645,-0.284180,1.402439,-0.670732,1.890244,-4.825000,39.575001,-3.425000,0.0,1.000000,0.000000,0.000000,0.000000
1782117393.782718,1897143,-0.964355,0.037598,-0.285156,1.158537,-0.487805,1.890244,-4.825000,39.568752,-3.443750,0.0,1.000000,0.000000,0.000000,0.000000
1782117393.789718,1897150,-0.964355,0.039062,-0.288086,0.914634,-0.548781,1.829268,-4.825000,39.568752,-3.443750,0.0,1.000000,0.000000,0.000000,0.000000
1782117393.799718,1897160,-0.963379,0.038574,-0.285645,0.975610,-0.609756,1.585366,-4.768750,39.631252,-3.368750,0.0,1.000000,0.000000,0.000000,0.000000
1782117393.809718,1897170,-0.962402,0.041992,-0.281250,1.036585,-0.609756,1.402439,-4.768750,39.631252,-3.368750,0.0,1.000000,0.000000,0.000000,0.000000
1782117393.822718,1897183,-0.961914,0.043945,-0.276855,1.280488,-0.670732,1.463415,-4.812500,39.625000,-3.375000,0.0,1.000000,0.000000,0.000000,0.000000
1782117393.830718,1897191,-0.963867,0.043457,-0.276367,1.341463,-0.548781,1.646341,-4.812500,39.625000,-3.375000,0.0,1.000000,0.000000,0.000000,0.000000
1782117393.839718,1897200,-0.966797,0.043457,-0.276855,1.219512,-0.548781,1.829268,-4.662500,39.687500,-3.418750,0.0,1.000000,0.000000,0.000000,0.000000
1782117393.850718,1897211,-0.965820,0.040039,-0.279785,1.097561,-0.609756,1.890244,-4.662500,39.687500,-3.418750,0.0,1.000000,0.000000,0.000000,0.000000
1782117393.861718,1897222,-0.967773,0.039551,-0.282715,0.853659,-0.609756,1.707317,-4.706250,39.625000,-3.418750,0.0,1.000000,0.000000,0.000000,0.000000
1782117393.870718,1897231,-0.963867,0.043945,-0.281738,0.853659,-0.670732,1.463415,-4.706250,39.625000,-3.418750,0.0,1.000000,0.000000,0.000000,0.000000
1782117393.879718,1897240,-0.962402,0.040527,-0.278809,0.975610,-0.670732,1.341463,-4.687500,39.700001,-3.375000,0.0,1.000000,0.000000,0.000000,0.000000
1782117393.889718,1897250,-0.961914,0.041504,-0.277832,1.036585,-0.609756,1.341463,-4.687500,39.700001,-3.375000,0.0,1.000000,0.000000,0.000000,0.000000
1782117393.902718,1897263,-0.960449,0.041016,-0.277344,1.097561,-0.365854,1.341463,-4.643750,39.687500,-3.343750,0.0,1.000000,0.000000,0.000000,0.000000
1782117393.909718,1897270,-0.960449,0.040527,-0.277832,0.853659,-0.182927,1.280488,-4.643750,39.687500,-3.343750,0.0,1.000000,0.000000,0.000000,0.000000
1782117393.919718,1897280,-0.961914,0.038574,-0.281738,0.487805,0.000000,1.341463,-4.662500,39.662502,-3.312500,0.0,1.000000,0.000000,0.000000,0.000000
1782117393.929718,1897290,-0.964355,0.036621,-0.285156,0.304878,0.060976,1.341463,-4.662500,39.662502,-3.312500,0.0,1.000000,0.000000,0.000000,0.000000
1782117393.941718,1897302,-0.966309,0.038086,-0.283203,0.304878,-0.182927,1.219512,-4.675000,39.587502,-3.375000,0.0,1.000000,0.000000,0.000000,0.000000
1782117393.949718,1897310,-0.965332,0.042969,-0.278809,0.365854,-0.487805,1.219512,-4.675000,39.587502,-3.375000,0.0,1.000000,0.000000,0.000000,0.000000
1782117393.959718,1897320,-0.962891,0.044434,-0.273438,0.304878,-0.670732,1.158537,-4.656250,39.718750,-3.362500,0.0,1.000000,0.000000,0.000000,0.000000
1782117393.969718,1897330,-0.964355,0.044922,-0.272461,0.243902,-0.609756,1.219512,-4.656250,39.718750,-3.362500,0.0,1.000000,0.000000,0.000000,0.000000
1782117393.981718,1897342,-0.964355,0.044434,-0.273438,0.060976,-0.426829,1.219512,-4.681250,39.662502,-3.356250,0.0,1.000000,0.000000,0.000000,0.000000
1782117393.989718,1897350,-0.964355,0.044434,-0.275879,-0.060976,-0.365854,1.219512,-4.681250,39.662502,-3.356250,0.0,1.000000,0.000000,0.000000,0.000000
1782117394.000718,1897361,-0.965332,0.044922,-0.277832,-0.304878,-0.365854,1.158537,-4.443750,39.881252,-3.268750,0.0,1.000000,0.000000,0.000000,0.000000
1782117394.010718,1897371,-0.967285,0.042969,-0.279785,-0.426829,-0.426829,1.036585,-4.443750,39.881252,-3.268750,0.0,1.000000,0.000000,0.000000,0.000000
1782117394.021718,1897382,-0.965332,0.043945,-0.279785,-0.487805,-0.426829,0.975610,-4.737500,39.618752,-3.381250,0.0,1.000000,0.000000,0.000000,0.000000
1782117394.029718,1897390,-0.964355,0.044434,-0.278809,-0.365854,-0.487805,0.853659,-4.737500,39.618752,-3.381250,0.0,1.000000,0.000000,0.000000,0.000000
1782117394.039718,1897400,-0.962891,0.041992,-0.278320,-0.182927,-0.487805,0.792683,-4.625000,39.731251,-3.350000,0.0,1.000000,0.000000,0.000000,0.000000
1782117394.050718,1897411,-0.964355,0.042969,-0.278809,-0.060976,-0.487805,0.792683,-4.506250,39.850002,-3.306250,0.0,1.000000,0.000000,0.000000,0.000000
1782117394.059718,1897420,-0.964355,0.042969,-0.279297,0.060976,-0.487805,1.036585,-4.506250,39.850002,-3.306250,0.0,1.000000,0.000000,0.000000,0.000000
1782117394.069718,1897430,-0.965332,0.040527,-0.282227,0.121951,-0.670732,1.036585,-4.475000,39.906250,-3.300000,0.0,1.000000,0.000000,0.000000,0.000000
1782117394.080718,1897441,-0.963867,0.042480,-0.283691,0.304878,-0.670732,1.036585,-4.475000,39.906250,-3.300000,0.0,1.000000,0.000000,0.000000,0.000000
1782117394.089718,1897450,-0.960938,0.043945,-0.280273,0.548781,-0.731707,0.914634,-4.731250,39.643749,-3.381250,0.0,1.000000,0.000000,0.000000,0.000000
1782117394.099718,1897460,-0.960449,0.043945,-0.276855,0.548781,-0.487805,0.975610,-4.731250,39.643749,-3.381250,0.0,1.000000,0.000000,0.000000,0.000000
1782117394.109718,1897470,-0.961914,0.043457,-0.279297,0.548781,-0.304878,1.097561,-4.625000,39.687500,-3.325000,0.0,1.000000,0.000000,0.000000,0.000000
1782117394.120718,1897481,-0.962402,0.042480,-0.281738,0.426829,-0.304878,1.036585,-4.625000,39.687500,-3.325000,0.0,1.000000,0.000000,0.000000,0.000000
1782117394.129718,1897490,-0.963867,0.042969,-0.283691,0.487805,-0.304878,1.036585,-4.737500,39.593750,-3.368750,0.0,1.000000,0.000000,0.000000,0.000000
1782117394.139718,1897500,-0.962891,0.040527,-0.284180,0.670732,-0.304878,0.914634,-4.737500,39.593750,-3.368750,0.0,1.000000,0.000000,0.000000,0.000000
1782117394.149718,1897510,-0.963867,0.040527,-0.284668,0.731707,-0.243902,0.792683,-4.762500,39.531250,-3.400000,0.0,1.000000,0.000000,0.000000,0.000000
1782117394.159718,1897520,-0.964355,0.042969,-0.284180,0.853659,-0.365854,0.792683,-4.762500,39.531250,-3.400000,0.0,1.000000,0.000000,0.000000,0.000000
1782117394.170718,1897531,-0.961426,0.044434,-0.281250,0.914634,-0.426829,0.731707,-4.681250,39.700001,-3.293750,0.0,1.000000,0.000000,0.000000,0.000000
1782117394.183718,1897544,-0.960449,0.046387,-0.280762,0.975610,-0.365854,0.670732,-4.681250,39.700001,-3.293750,0.0,1.000000,0.000000,0.000000,0.000000
1782117394.189718,1897550,-0.959961,0.044922,-0.277344,0.853659,-0.243902,0.670732,-4.531250,39.762501,-3.306250,0.0,1.000000,0.000000,0.000000,0.000000
1782117394.199718,1897560,-0.962891,0.044434,-0.280273,0.548781,-0.182927,0.670732,-4.531250,39.762501,-3.306250,0.0,1.000000,0.000000,0.000000,0.000000
1782117394.209718,1897570,-0.963867,0.043945,-0.281738,0.670732,-0.304878,0.914634,-4.393750,39.981251,-3.268750,0.0,1.000000,0.000000,0.000000,0.000000
1782117394.219718,1897580,-0.964844,0.042480,-0.282227,0.792683,-0.304878,0.975610,-4.393750,39.981251,-3.268750,0.0,1.000000,0.000000,0.000000,0.000000
1782117394.230718,1897591,-0.967773,0.041992,-0.284668,0.914634,-0.487805,1.036585,-4.656250,39.687500,-3.312500,0.0,1.000000,0.000000,0.000000,0.000000
1782117394.240718,1897601,-0.967773,0.042969,-0.282715,0.975610,-0.609756,0.853659,-4.656250,39.687500,-3.312500,0.0,1.000000,0.000000,0.000000,0.000000
1782117394.249718,1897610,-0.964355,0.042969,-0.280273,1.158537,-0.731707,0.670732,-4.725000,39.581249,-3.306250,0.0,1.000000,0.000000,0.000000,0.000000
1782117394.260718,1897621,-0.960938,0.041992,-0.281738,1.280488,-0.487805,0.548781,-4.725000,39.581249,-3.306250,0.0,1.000000,0.000000,0.000000,0.000000
1782117394.270718,1897631,-0.961914,0.046387,-0.281250,1.341463,-0.182927,0.609756,-4.712500,39.606251,-3.256250,0.0,1.000000,0.000000,0.000000,0.000000
1782117394.280718,1897641,-0.960938,0.045898,-0.284180,1.524390,-0.182927,0.792683,-4.712500,39.606251,-3.256250,0.0,1.000000,0.000000,0.000000,0.000000
1782117394.290718,1897651,-0.959961,0.046875,-0.284180,1.158537,-0.182927,0.792683,-4.731250,39.587502,-3.262500,0.0,1.000000,0.000000,0.000000,0.000000
1782117394.299718,1897660,-0.961914,0.047363,-0.286133,0.670732,-0.243902,0.792683,-4.731250,39.587502,-3.262500,0.0,1.000000,0.000000,0.000000,0.000000
1782117394.309718,1897670,-0.964355,0.046387,-0.282227,0.426829,-0.365854,0.670732,-4.737500,39.593750,-3.318750,0.0,1.000000,0.000000,0.000000,0.000000
1782117394.319718,1897680,-0.962891,0.045898,-0.279785,0.426829,-0.548781,0.548781,-4.737500,39.593750,-3.318750,0.0,1.000000,0.000000,0.000000,0.000000
1782117394.329718,1897690,-0.961914,0.043457,-0.278320,0.731707,-0.487805,0.487805,-4.737500,39.581249,-3.275000,0.0,1.000000,0.000000,0.000000,0.000000
1782117394.339718,1897700,-0.960449,0.041992,-0.278320,0.914634,-0.426829,0.426829,-4.737500,39.581249,-3.275000,0.0,1.000000,0.000000,0.000000,0.000000
