Unix_Time_s,EMG_t_s,sample_idx,fs,gain,flags,emg_valid,ch1_raw_uV,ch1_filt_uV,ch1_env_uV,ch2_raw_uV,ch2_filt_uV,ch2_env_uV
1782117388.241718,0.000000,1834000,1000,12,0,1,611.686,36.634,10.947,453.799,8.668,7.109
1782117388.242718,0.001000,1834001,1000,12,0,1,614.521,34.784,11.993,450.604,5.069,7.145
1782117388.243718,0.002000,1834002,1000,12,0,1,612.335,26.223,12.513,449.475,2.448,7.140
1782117388.244718,0.003000,1834003,1000,12,0,1,612.359,20.886,12.814,448.922,1.886,7.117
1782117388.245718,0.004000,1834004,1000,12,0,1,614.473,18.305,13.037,447.577,-0.297,7.058
1782117388.246718,0.005000,1834005,1000,12,0,1,611.855,12.608,13.117,446.328,-1.692,6.976
1782117388.247718,0.006000,1834006,1000,12,0,1,611.855,8.189,13.108,446.328,-2.264,6.941
1782117388.248718,0.007000,1834007,1000,12,0,1,602.823,-0.321,13.064,447.769,-1.076,6.925
1782117388.249718,0.008000,1834008,1000,12,0,1,600.397,-6.683,13.092,447.962,-0.863,6.926
1782117388.250718,0.009000,1834009,1000,12,0,1,600.949,-4.715,13.108,449.979,0.269,6.915
1782117388.251718,0.010000,1834010,1000,12,0,1,598.307,-7.932,13.155,450.796,1.478,6.905
1782117388.252718,0.011000,1834011,1000,12,0,1,597.082,-9.118,13.216,450.820,0.926,6.872
1782117388.253718,0.012000,1834012,1000,12,0,1,602.054,-5.066,13.232,451.300,1.558,6.855
1782117388.254718,0.013000,1834013,1000,12,0,1,605.873,-1.382,13.227,448.514,-0.355,6.831
1782117388.255718,0.014000,1834014,1000,12,0,1,611.422,1.767,13.218,448.010,-1.047,6.813
1782117388.256718,0.015000,1834015,1000,12,0,1,615.097,3.917,13.227,447.841,0.258,6.804
1782117388.257718,0.016000,1834016,1000,12,0,1,613.944,0.883,13.223,449.571,1.768,6.788
1782117388.258718,0.017000,1834017,1000,12,0,1,607.603,-6.393,13.245,450.388,3.664,6.799
1782117388.259718,0.018000,1834018,1000,12,0,1,604.192,-10.912,13.327,449.643,2.768,6.808
1782117388.260718,0.019000,1834019,1000,12,0,1,600.853,-13.046,13.453,448.130,1.627,6.812
1782117388.261718,0.020000,1834020,1000,12,0,1,601.454,-12.460,13.544,449.907,2.546,6.816
1782117388.262718,0.021000,1834021,1000,12,0,1,603.543,-8.887,13.592,448.850,2.234,6.818
1782117388.263718,0.022000,1834022,1000,12,0,1,606.546,-5.617,13.612,449.979,1.635,6.821
1782117388.264718,0.023000,1834023,1000,12,0,1,608.035,-3.241,13.605,451.420,3.004,6.833
1782117388.265718,0.024000,1834024,1000,12,0,1,607.339,-3.425,13.597,449.739,0.542,6.833
1782117388.266718,0.025000,1834025,1000,12,0,1,604.528,-5.299,13.598,450.364,-0.300,6.820
1782117388.267718,0.026000,1834026,1000,12,0,1,600.517,-7.858,13.594,452.309,1.103,6.791
1782117388.268718,0.027000,1834027,1000,12,0,1,599.052,-8.274,13.609,456.417,3.204,6.784
1782117388.269718,0.028000,1834028,1000,12,0,1,599.628,-5.879,13.615,455.336,2.393,6.790
1782117388.270718,0.029000,1834029,1000,12,0,1,596.385,-6.920,13.640,457.354,1.433,6.703
1782117388.271718,0.030000,1834030,1000,12,0,1,596.241,-6.508,13.610,456.681,1.742,6.149
1782117388.272718,0.031000,1834031,1000,12,0,1,594.127,-5.904,13.627,455.960,-0.833,5.597
1782117388.273718,0.032000,1834032,1000,12,0,1,595.304,-4.922,13.645,455.528,-0.542,5.308
1782117388.274718,0.033000,1834033,1000,12,0,1,594.103,-3.556,13.652,455.456,-1.004,5.245
1782117388.275718,0.034000,1834034,1000,12,0,1,594.368,-3.804,13.638,456.969,0.658,5.246
1782117388.276718,0.035000,1834035,1000,12,0,1,594.656,-1.995,13.598,459.323,2.981,5.247
1782117388.277718,0.036000,1834036,1000,12,0,1,589.323,-5.907,13.565,462.014,5.034,5.259
1782117388.278718,0.037000,1834037,1000,12,0,1,581.156,-12.260,13.571,465.184,7.399,5.349
1782117388.279718,0.038000,1834038,1000,12,0,1,576.977,-14.236,13.579,465.905,7.128,5.441
1782117388.280718,0.039000,1834039,1000,12,0,1,586.273,-4.808,13.429,463.839,4.192,5.468
1782117388.281718,0.040000,1834040,1000,12,0,1,593.118,5.090,13.311,462.230,1.274,5.349
1782117388.282718,0.041000,1834041,1000,12,0,1,597.586,7.883,13.263,459.732,-1.291,5.072
1782117388.283718,0.042000,1834042,1000,12,0,1,588.699,2.447,13.209,464.007,0.532,4.545
1782117388.284718,0.043000,1834043,1000,12,0,1,578.874,-8.256,13.169,469.028,5.207,4.137
1782117388.285718,0.044000,1834044,1000,12,0,1,579.042,-5.870,13.089,473.063,6.304,4.186
1782117388.286718,0.045000,1834045,1000,12,0,1,584.663,1.053,13.084,476.402,7.431,4.302
1782117388.287718,0.046000,1834046,1000,12,0,1,582.285,1.798,13.044,484.497,10.888,4.399
1782117388.288718,0.047000,1834047,1000,12,0,1,587.329,4.993,12.726,489.301,13.125,4.403
1782117388.289718,0.048000,1834048,1000,12,0,1,599.340,16.860,12.232,489.781,9.342,4.332
1782117388.290718,0.049000,1834049,1000,12,0,1,597.586,15.762,11.539,490.670,6.658,4.261
1782117388.291718,0.050000,1834050,1000,12,0,1,591.005,6.672,10.354,487.908,2.075,4.091
1782117388.292718,0.051000,1834051,1000,12,0,1,586.537,2.541,9.118,483.488,-4.301,4.074
1782117388.293718,0.052000,1834052,1000,12,0,1,587.618,2.056,8.335,475.513,-11.135,4.354
1782117388.294718,0.053000,1834053,1000,12,0,1,589.972,4.998,7.826,468.235,-17.711,5.016
1782117388.295718,0.054000,1834054,1000,12,0,1,594.920,7.664,7.464,460.428,-21.545,5.868
1782117388.296718,0.055000,1834055,1000,12,0,1,603.712,14.325,7.526,445.968,-30.473,7.277
1782117388.297718,0.056000,1834056,1000,12,0,1,610.798,18.288,7.873,434.270,-36.615,8.925
1782117388.298718,0.057000,1834057,1000,12,0,1,605.417,11.499,8.039,433.909,-31.054,9.946
1782117388.299718,0.058000,1834058,1000,12,0,1,597.610,0.598,7.984,438.714,-20.219,10.348
1782117388.300718,0.059000,1834059,1000,12,0,1,587.786,-8.219,8.041,439.242,-14.273,10.543
1782117388.301718,0.060000,1834060,1000,12,0,1,580.436,-15.188,8.247,444.094,-7.700,10.597
1782117388.302718,0.061000,1834061,1000,12,0,1,577.865,-15.308,8.428,450.219,0.985,10.597
1782117388.303718,0.062000,1834062,1000,12,0,1,585.120,-7.542,8.465,455.624,5.932,10.628
1782117388.304718,0.063000,1834063,1000,12,0,1,593.263,2.340,8.469,463.215,12.054,10.764
1782117388.305718,0.064000,1834064,1000,12,0,1,593.166,3.057,8.477,470.757,17.044,11.030
1782117388.306718,0.065000,1834065,1000,12,0,1,597.106,4.795,8.486,475.753,18.682,11.342
1782117388.307718,0.066000,1834066,1000,12,0,1,600.493,8.625,8.572,478.107,17.444,11.604
1782117388.308718,0.067000,1834067,1000,12,0,1,598.451,5.256,8.556,481.470,16.504,11.825
1782117388.309718,0.068000,1834068,1000,12,0,1,594.343,0.956,8.417,487.235,18.315,12.099
1782117388.310718,0.069000,1834069,1000,12,0,1,592.086,-1.977,8.217,490.526,18.198,12.368
1782117388.311718,0.070000,1834070,1000,12,0,1,591.221,-2.375,8.033,481.110,8.055,12.415
1782117388.312718,0.071000,1834071,1000,12,0,1,595.977,1.119,7.936,462.446,-10.253,12.495
1782117388.313718,0.072000,1834072,1000,12,0,1,611.710,13.828,8.134,436.480,-30.631,13.223
1782117388.314718,0.073000,1834073,1000,12,0,1,616.875,18.566,8.535,427.088,-36.685,14.198
1782117388.315718,0.074000,1834074,1000,12,0,1,608.948,7.483,8.587,440.491,-17.703,14.417
1782117388.316718,0.075000,1834075,1000,12,0,1,598.547,-3.960,8.573,450.219,-2.013,14.419
1782117388.317718,0.076000,1834076,1000,12,0,1,593.791,-9.651,8.609,452.694,2.253,14.422
1782117388.318718,0.077000,1834077,1000,12,0,1,599.220,-4.769,8.556,452.766,4.008,14.426
1782117388.319718,0.078000,1834078,1000,12,0,1,601.309,-1.177,8.517,448.826,1.074,14.423
1782117388.320718,0.079000,1834079,1000,12,0,1,601.358,-2.244,8.467,446.496,-1.109,14.422
1782117388.321718,0.080000,1834080,1000,12,0,1,603.688,-0.042,8.416,439.266,-5.974,14.445
1782117388.322718,0.081000,1834081,1000,12,0,1,607.939,2.988,8.386,432.156,-12.433,14.551
1782117388.323718,0.082000,1834082,1000,12,0,1,603.591,-0.068,8.357,434.005,-9.683,14.615
1782117388.324718,0.083000,1834083,1000,12,0,1,598.571,-6.268,8.388,438.329,-3.933,14.625
1782117388.325718,0.084000,1834084,1000,12,0,1,595.088,-8.074,8.449,443.758,0.982,14.625
1782117388.326718,0.085000,1834085,1000,12,0,1,590.380,-11.223,8.592,448.298,5.305,14.639
1782117388.327718,0.086000,1834086,1000,12,0,1,581.757,-16.469,8.863,453.006,8.132,14.666
1782117388.328718,0.087000,1834087,1000,12,0,1,574.502,-20.690,9.171,455.336,9.653,14.693
1782117388.329718,0.088000,1834088,1000,12,0,1,568.161,-22.179,9.481,457.258,9.552,14.720
1782117388.330718,0.089000,1834089,1000,12,0,1,564.654,-21.427,9.930,457.858,9.551,14.770
1782117388.331718,0.090000,1834090,1000,12,0,1,573.542,-10.562,10.016,457.906,8.539,14.818
1782117388.332718,0.091000,1834091,1000,12,0,1,587.498,5.575,9.985,454.039,5.528,14.838
1782117388.333718,0.092000,1834092,1000,12,0,1,596.121,13.798,10.168,448.490,0.637,14.838
1782117388.334718,0.093000,1834093,1000,12,0,1,601.454,17.022,10.384,449.643,2.131,14.823
1782117388.335718,0.094000,1834094,1000,12,0,1,601.742,15.355,10.576,450.820,5.432,14.816
1782117388.336718,0.095000,1834095,1000,12,0,1,598.835,10.099,10.671,450.844,5.643,14.800
1782117388.337718,0.096000,1834096,1000,12,0,1,594.007,4.231,10.684,450.532,6.162,14.745
1782117388.338718,0.097000,1834097,1000,12,0,1,593.527,2.043,10.665,447.721,3.690,14.637
1782117388.339718,0.098000,1834098,1000,12,0,1,592.782,1.916,10.399,447.505,2.785,14.583
1782117388.340718,0.099000,1834099,1000,12,0,1,589.035,-1.601,10.159,448.202,3.362,14.560
1782117388.341718,0.100000,1834100,1000,12,0,1,584.927,-4.650,10.137,451.445,4.614,14.572
1782117388.342718,0.101000,1834101,1000,12,0,1,581.829,-6.189,10.168,453.847,5.804,14.582
1782117388.343718,0.102000,1834102,1000,12,0,1,577.721,-7.821,10.224,453.078,2.875,14.503
1782117388.344718,0.103000,1834103,1000,12,0,1,576.160,-7.532,10.255,455.264,2.120,14.288
1782117388.345718,0.104000,1834104,1000,12,0,1,576.040,-5.108,10.223,452.381,-1.154,13.960
1782117388.346718,0.105000,1834105,1000,12,0,1,577.073,-2.477,10.027,453.294,-3.622,13.288
1782117388.347718,0.106000,1834106,1000,12,0,1,580.195,1.600,9.690,453.414,-2.888,12.245
1782117388.348718,0.107000,1834107,1000,12,0,1,581.877,4.173,9.571,453.294,-4.650,11.449
1782117388.349718,0.108000,1834108,1000,12,0,1,584.855,6.164,9.610,452.405,-4.607,11.105
1782117388.350718,0.109000,1834109,1000,12,0,1,584.423,6.174,9.579,452.549,-4.575,10.940
1782117388.351718,0.110000,1834110,1000,12,0,1,586.873,6.114,9.375,452.525,-3.163,10.894
1782117388.352718,0.111000,1834111,1000,12,0,1,593.815,11.467,9.265,453.991,-1.050,10.895
1782117388.353718,0.112000,1834112,1000,12,0,1,597.178,12.837,9.381,455.960,2.083,10.866
1782117388.354718,0.113000,1834113,1000,12,0,1,592.446,6.736,9.423,455.744,3.126,10.741
1782117388.355718,0.114000,1834114,1000,12,0,1,587.402,-0.217,9.413,457.522,4.713,10.488
1782117388.356718,0.115000,1834115,1000,12,0,1,582.093,-5.020,9.416,458.050,6.392,10.190
1782117388.357718,0.116000,1834116,1000,12,0,1,583.991,-4.276,9.356,457.546,5.254,9.915
1782117388.358718,0.117000,1834117,1000,12,0,1,588.290,1.058,9.327,457.690,5.291,9.665
1782117388.359718,0.118000,1834118,1000,12,0,1,592.182,4.181,9.345,454.807,2.297,9.317
1782117388.360718,0.119000,1834119,1000,12,0,1,591.533,4.073,9.359,454.807,0.784,8.955
1782117388.361718,0.120000,1834120,1000,12,0,1,590.933,2.438,9.359,455.408,1.065,8.884
1782117388.362718,0.121000,1834121,1000,12,0,1,591.845,3.304,9.369,454.543,-1.097,8.766
1782117388.363718,0.122000,1834122,1000,12,0,1,590.452,2.236,9.168,455.048,-1.984,7.626
1782117388.364718,0.123000,1834123,1000,12,0,1,586.633,-1.309,8.786,458.483,-0.413,5.590
1782117388.365718,0.124000,1834124,1000,12,0,1,587.257,-1.004,8.724,459.107,-0.640,4.999
1782117388.366718,0.125000,1834125,1000,12,0,1,588.362,0.811,8.706,462.854,0.150,4.991
1782117388.367718,0.126000,1834126,1000,12,0,1,587.017,-0.336,8.599,465.184,1.842,4.987
1782117388.368718,0.127000,1834127,1000,12,0,1,588.122,-0.014,8.572,464.007,-0.905,4.957
1782117388.369718,0.128000,1834128,1000,12,0,1,589.131,1.188,8.572,469.388,2.031,4.963
1782117388.370718,0.129000,1834129,1000,12,0,1,590.933,1.598,8.569,473.351,5.980,5.032
1782117388.371718,0.130000,1834130,1000,12,0,1,590.212,0.957,8.571,481.038,10.034,5.159
1782117388.372718,0.131000,1834131,1000,12,0,1,589.804,-1.013,8.561,483.560,12.743,5.174
1782117388.373718,0.132000,1834132,1000,12,0,1,589.419,-1.449,8.564,483.848,9.720,5.176
1782117388.374718,0.133000,1834133,1000,12,0,1,588.482,-3.001,8.528,478.876,5.430,5.203
1782117388.375718,0.134000,1834134,1000,12,0,1,584.759,-5.906,8.493,479.308,2.963,5.218
1782117388.376718,0.135000,1834135,1000,12,0,1,585.312,-6.022,8.386,474.504,0.711,5.164
1782117388.377718,0.136000,1834136,1000,12,0,1,584.351,-4.992,8.087,469.532,-5.470,5.094
1782117388.378718,0.137000,1834137,1000,12,0,1,575.511,-11.520,7.714,471.958,-2.729,4.923
1782117388.379718,0.138000,1834138,1000,12,0,1,585.816,-3.954,7.069,462.422,-8.587,4.887
1782117388.380718,0.139000,1834139,1000,12,0,1,604.552,15.943,6.773,443.350,-25.562,5.927
1782117388.381718,0.140000,1834140,1000,12,0,1,605.657,16.592,7.011,437.008,-29.427,7.141
1782117388.382718,0.141000,1834141,1000,12,0,1,600.181,8.493,7.069,439.194,-23.125,7.815
1782117388.383718,0.142000,1834142,1000,12,0,1,597.394,4.519,6.824,442.365,-16.867,8.170
1782117388.384718,0.143000,1834143,1000,12,0,1,594.127,1.019,6.387,444.527,-12.598,8.357
1782117388.385718,0.144000,1834144,1000,12,0,1,591.893,-1.425,6.010,447.457,-8.661,8.411
1782117388.386718,0.145000,1834145,1000,12,0,1,582.621,-8.092,5.949,453.654,-2.737,8.382
1782117388.387718,0.146000,1834146,1000,12,0,1,576.136,-14.158,6.248,456.225,0.547,8.337
1782117388.388718,0.147000,1834147,1000,12,0,1,577.193,-10.797,6.426,457.450,0.526,8.321
1782117388.389718,0.148000,1834148,1000,12,0,1,578.850,-7.111,6.498,460.140,2.907,8.322
1782117388.390718,0.149000,1834149,1000,12,0,1,577.889,-6.358,6.556,457.834,1.336,8.310
1782117388.391718,0.150000,1834150,1000,12,0,1,583.726,-1.297,6.526,456.345,-0.406,8.285
1782117388.392718,0.151000,1834151,1000,12,0,1,589.611,5.212,6.509,455.744,0.702,8.245
1782117388.393718,0.152000,1834152,1000,12,0,1,592.494,6.553,6.481,452.501,-0.656,8.235
1782117388.394718,0.153000,1834153,1000,12,0,1,589.179,3.117,6.408,452.718,0.802,8.231
1782117388.395718,0.154000,1834154,1000,12,0,1,587.377,-0.553,6.367,451.925,2.912,8.239
1782117388.396718,0.155000,1834155,1000,12,0,1,593.935,4.304,6.387,452.934,4.636,8.249
1782117388.397718,0.156000,1834156,1000,12,0,1,603.471,12.128,6.609,453.222,7.042,8.299
1782117388.398718,0.157000,1834157,1000,12,0,1,605.969,13.014,6.835,452.525,6.667,8.327
1782117388.399718,0.158000,1834158,1000,12,0,1,605.729,9.938,6.924,452.862,7.313,8.365
1782117388.400718,0.159000,1834159,1000,12,0,1,609.597,10.818,7.037,454.111,8.025,8.417
1782117388.401718,0.160000,1834160,1000,12,0,1,608.516,9.138,7.102,454.807,7.807,8.478
1782117388.402718,0.161000,1834161,1000,12,0,1,604.672,3.207,6.929,457.618,8.407,8.559
1782117388.403718,0.162000,1834162,1000,12,0,1,597.394,-3.035,6.701,458.915,7.991,8.628
1782117388.404718,0.163000,1834163,1000,12,0,1,597.130,-4.832,6.668,461.101,6.888,8.672
1782117388.405718,0.164000,1834164,1000,12,0,1,603.063,1.848,6.673,459.515,3.800,8.663
1782117388.406718,0.165000,1834165,1000,12,0,1,604.865,3.727,6.656,456.825,-1.485,8.618
1782117388.407718,0.166000,1834166,1000,12,0,1,601.694,0.347,6.629,457.017,-2.839,8.596
1782117388.408718,0.167000,1834167,1000,12,0,1,602.847,-0.042,6.627,455.456,-4.570,8.587
1782117388.409718,0.168000,1834168,1000,12,0,1,599.748,-1.997,6.607,453.678,-6.843,8.636
1782117388.410718,0.169000,1834169,1000,12,0,1,596.577,-6.353,6.642,460.044,-1.494,8.637
1782117388.411718,0.170000,1834170,1000,12,0,1,587.762,-12.519,6.866,467.875,6.383,8.683
1782117388.412718,0.171000,1834171,1000,12,0,1,580.772,-19.143,7.365,469.124,7.476,8.746
1782117388.413718,0.172000,1834172,1000,12,0,1,595.857,-5.929,7.406,467.418,5.026,8.770
1782117388.414718,0.173000,1834173,1000,12,0,1,609.404,9.379,7.522,464.680,2.737,8.779
1782117388.415718,0.174000,1834174,1000,12,0,1,608.083,6.135,7.570,465.617,3.155,8.790
1782117388.416718,0.175000,1834175,1000,12,0,1,602.823,-0.530,7.570,467.154,5.590,8.825
1782117388.417718,0.176000,1834176,1000,12,0,1,598.331,-5.749,7.613,469.916,7.393,8.883
1782117388.418718,0.177000,1834177,1000,12,0,1,598.619,-5.853,7.658,469.748,7.553,8.946
1782117388.419718,0.178000,1834178,1000,12,0,1,607.459,1.830,7.661,464.512,1.956,8.946
1782117388.420718,0.179000,1834179,1000,12,0,1,613.032,7.778,7.736,458.411,-4.179,8.925
1782117388.421718,0.180000,1834180,1000,12,0,1,611.831,5.536,7.774,456.129,-6.583,8.861
1782117388.422718,0.181000,1834181,1000,12,0,1,608.732,1.940,7.778,458.507,-4.536,8.699
1782117388.423718,0.182000,1834182,1000,12,0,1,604.696,-1.684,7.779,462.374,-1.229,8.592
1782117388.424718,0.183000,1834183,1000,12,0,1,607.435,0.090,7.767,461.413,-2.571,8.565
1782117388.425718,0.184000,1834184,1000,12,0,1,612.863,6.043,7.769,455.720,-8.650,8.642
1782117388.426718,0.185000,1834185,1000,12,0,1,611.062,4.550,7.749,456.441,-9.566,8.746
1782117388.427718,0.186000,1834186,1000,12,0,1,609.428,1.687,7.721,454.255,-9.756,8.821
1782117388.428718,0.187000,1834187,1000,12,0,1,605.057,-1.566,7.550,450.940,-13.318,9.011
1782117388.429718,0.188000,1834188,1000,12,0,1,604.048,-3.831,7.549,448.922,-13.179,9.121
1782117388.430718,0.189000,1834189,1000,12,0,1,607.723,-0.062,7.204,449.523,-11.354,8.527
1782117388.431718,0.190000,1834190,1000,12,0,1,607.339,-0.331,6.811,450.292,-7.983,7.528
1782117388.432718,0.191000,1834191,1000,12,0,1,603.784,-4.396,6.733,451.420,-5.099,6.818
1782117388.433718,0.192000,1834192,1000,12,0,1,599.460,-8.340,6.806,452.670,-1.746,6.392
1782117388.434718,0.193000,1834193,1000,12,0,1,598.307,-9.685,6.941,454.351,1.552,6.143
1782117388.435718,0.194000,1834194,1000,12,0,1,596.409,-9.905,7.078,456.753,5.087,6.062
1782117388.436718,0.195000,1834195,1000,12,0,1,595.400,-10.562,7.143,460.500,9.335,6.192
1782117388.437718,0.196000,1834196,1000,12,0,1,594.848,-9.332,6.982,459.804,9.587,6.339
1782117388.438718,0.197000,1834197,1000,12,0,1,594.464,-8.619,6.922,460.404,9.076,6.467
1782117388.439718,0.198000,1834198,1000,12,0,1,599.892,-3.010,6.861,459.275,8.472,6.564
1782117388.440718,0.199000,1834199,1000,12,0,1,601.021,0.345,6.802,460.644,7.898,6.656
1782117388.441718,0.200000,1834200,1000,12,0,1,601.550,0.231,6.800,455.816,4.255,6.683
1782117388.442718,0.201000,1834201,1000,12,0,1,599.700,0.415,6.760,456.345,1.590,6.686
1782117388.443718,0.202000,1834202,1000,12,0,1,589.852,-7.127,6.772,460.308,5.413,6.729
1782117388.444718,0.203000,1834203,1000,12,0,1,585.912,-9.980,6.903,462.350,5.296,6.769
1782117388.445718,0.204000,1834204,1000,12,0,1,592.806,-1.299,6.905,461.725,3.144,6.771
1782117388.446718,0.205000,1834205,1000,12,0,1,594.800,3.547,6.897,460.308,-0.034,6.740
1782117388.447718,0.206000,1834206,1000,12,0,1,589.659,-0.237,6.680,459.708,-2.125,6.672
1782117388.448718,0.207000,1834207,1000,12,0,1,586.849,-2.250,6.429,462.926,-0.412,6.606
1782117388.449718,0.208000,1834208,1000,12,0,1,588.651,0.501,6.274,463.311,-0.252,6.524
1782117388.450718,0.209000,1834209,1000,12,0,1,592.782,4.793,6.122,465.473,0.211,6.425
1782117388.451718,0.210000,1834210,1000,12,0,1,596.746,8.313,6.099,462.494,-1.513,6.333
1782117388.452718,0.211000,1834211,1000,12,0,1,592.182,4.325,6.113,459.780,-4.888,6.259
1782117388.453718,0.212000,1834212,1000,12,0,1,588.314,-1.146,6.100,463.815,-0.618,6.156
1782117388.454718,0.213000,1834213,1000,12,0,1,585.216,-3.169,6.078,466.986,3.635,6.100
1782117388.455718,0.214000,1834214,1000,12,0,1,580.748,-7.044,6.153,467.394,3.967,6.103
1782117388.456718,0.215000,1834215,1000,12,0,1,577.553,-8.895,6.259,469.124,5.508,6.149
1782117388.457718,0.216000,1834216,1000,12,0,1,579.547,-6.128,6.318,466.337,3.566,6.156
1782117388.458718,0.217000,1834217,1000,12,0,1,591.365,4.815,6.355,461.341,-1.277,6.125
1782117388.459718,0.218000,1834218,1000,12,0,1,603.255,16.287,6.753,459.660,-2.676,6.060
1782117388.460718,0.219000,1834219,1000,12,0,1,603.639,15.533,7.045,459.107,-2.312,6.065
1782117388.461718,0.220000,1834220,1000,12,0,1,600.469,9.959,6.962,460.380,-1.336,6.000
1782117388.462718,0.221000,1834221,1000,12,0,1,601.502,9.089,6.542,459.227,-1.669,5.911
1782117388.463718,0.222000,1834222,1000,12,0,1,602.751,9.500,6.626,457.690,-3.994,5.895
1782117388.464718,0.223000,1834223,1000,12,0,1,600.493,6.623,6.559,459.924,-2.413,5.892
1782117388.465718,0.224000,1834224,1000,12,0,1,599.340,4.448,6.532,459.852,-2.410,5.885
1782117388.466718,0.225000,1834225,1000,12,0,1,597.947,3.264,6.547,460.500,-3.197,5.850
1782117388.467718,0.226000,1834226,1000,12,0,1,594.824,0.286,6.497,459.972,-3.497,5.777
1782117388.468718,0.227000,1834227,1000,12,0,1,593.671,-0.929,6.445,463.815,-1.699,5.682
1782117388.469718,0.228000,1834228,1000,12,0,1,589.371,-3.605,6.460,464.824,0.205,5.675
1782117388.470718,0.229000,1834229,1000,12,0,1,586.441,-6.567,6.433,465.112,-1.051,5.646
1782117388.471718,0.230000,1834230,1000,12,0,1,584.279,-6.940,6.460,466.073,0.223,5.569
1782117388.472718,0.231000,1834231,1000,12,0,1,578.994,-10.578,6.626,470.661,3.516,5.554
1782117388.473718,0.232000,1834232,1000,12,0,1,573.445,-14.249,6.921,475.369,8.067,5.668
1782117388.474718,0.233000,1834233,1000,12,0,1,572.965,-13.249,7.170,476.954,8.850,5.793
1782117388.475718,0.234000,1834234,1000,12,0,1,574.598,-9.521,7.245,477.123,7.985,5.774
1782117388.476718,0.235000,1834235,1000,12,0,1,579.619,-4.161,7.241,472.318,3.839,5.639
1782117388.477718,0.236000,1834236,1000,12,0,1,584.039,1.060,7.238,468.067,-1.056,5.470
1782117388.478718,0.237000,1834237,1000,12,0,1,586.249,2.808,7.246,462.662,-4.296,5.171
1782117388.479718,0.238000,1834238,1000,12,0,1,585.816,2.335,7.233,462.854,-4.616,4.868
1782117388.480718,0.239000,1834239,1000,12,0,1,583.606,0.119,7.233,463.383,-1.802,4.602
1782117388.481718,0.240000,1834240,1000,12,0,1,578.490,-3.767,7.253,462.134,-3.058,4.483
1782117388.482718,0.241000,1834241,1000,12,0,1,576.112,-5.391,7.266,461.893,-2.866,4.443
1782117388.483718,0.242000,1834242,1000,12,0,1,572.437,-6.021,7.220,464.416,-1.031,4.438
1782117388.484718,0.243000,1834243,1000,12,0,1,570.971,-5.942,7.139,468.139,1.805,4.440
1782117388.485718,0.244000,1834244,1000,12,0,1,571.428,-2.647,7.010,467.995,1.060,4.384
1782117388.486718,0.245000,1834245,1000,12,0,1,572.004,-0.117,6.849,467.226,-1.584,4.187
1782117388.487718,0.246000,1834246,1000,12,0,1,571.332,1.270,6.723,467.779,-1.890,3.970
1782117388.488718,0.247000,1834247,1000,12,0,1,573.590,4.084,6.637,470.277,-1.005,3.759
1782117388.489718,0.248000,1834248,1000,12,0,1,575.247,6.880,6.694,472.102,0.289,3.564
1782117388.490718,0.249000,1834249,1000,12,0,1,575.031,6.647,6.759,474.048,0.789,3.386
1782117388.491718,0.250000,1834250,1000,12,0,1,572.220,4.172,6.785,472.198,-0.620,3.333
1782117388.492718,0.251000,1834251,1000,12,0,1,572.725,3.603,6.804,474.072,-0.391,3.326
1782117388.493718,0.252000,1834252,1000,12,0,1,572.917,4.056,6.753,478.708,4.506,3.299
1782117388.494718,0.253000,1834253,1000,12,0,1,577.361,6.231,6.663,478.588,4.572,3.277
1782117388.495718,0.254000,1834254,1000,12,0,1,582.838,10.555,6.825,477.771,3.171,3.278
1782117388.496718,0.255000,1834255,1000,12,0,1,582.477,8.640,6.916,475.441,1.809,3.288
1782117388.497718,0.256000,1834256,1000,12,0,1,577.313,2.122,6.922,471.141,-1.865,3.284
1782117388.498718,0.257000,1834257,1000,12,0,1,578.634,1.122,6.917,463.263,-7.230,3.439
1782117388.499718,0.258000,1834258,1000,12,0,1,578.106,1.324,6.919,456.561,-12.196,3.848
1782117388.500718,0.259000,1834259,1000,12,0,1,580.051,1.310,6.888,460.789,-7.000,3.973
1782117388.501718,0.260000,1834260,1000,12,0,1,588.050,8.156,6.884,464.800,-0.529,3.968
1782117388.502718,0.261000,1834261,1000,12,0,1,588.218,8.700,6.967,468.115,1.949,3.917
1782117388.503718,0.262000,1834262,1000,12,0,1,578.394,-1.140,6.967,468.932,3.067,3.940
1782117388.504718,0.263000,1834263,1000,12,0,1,565.711,-11.877,7.152,473.135,4.415,3.956
1782117388.505718,0.264000,1834264,1000,12,0,1,557.736,-17.448,7.500,479.453,8.958,4.115
1782117388.506718,0.265000,1834265,1000,12,0,1,549.016,-20.391,7.936,481.110,8.180,4.203
1782117388.507718,0.266000,1834266,1000,12,0,1,540.946,-23.747,8.574,482.119,5.811,4.253
1782117388.508718,0.267000,1834267,1000,12,0,1,535.565,-22.904,9.140,484.977,5.931,4.331
1782117388.509718,0.268000,1834268,1000,12,0,1,536.694,-17.428,9.182,486.106,4.755,4.367
1782117388.510718,0.269000,1834269,1000,12,0,1,551.106,-1.171,8.917,480.005,-1.710,4.361
1782117388.511718,0.270000,1834270,1000,12,0,1,578.154,24.030,9.438,468.235,-12.890,4.723
1782117388.512718,0.271000,1834271,1000,12,0,1,592.446,36.718,10.695,463.095,-16.978,5.293
1782117388.513718,0.272000,1834272,1000,12,0,1,593.911,31.669,11.517,465.761,-11.743,5.519
1782117388.514718,0.273000,1834273,1000,12,0,1,588.603,21.717,11.883,469.436,-5.420,5.561
1782117388.515718,0.274000,1834274,1000,12,0,1,579.162,8.291,11.924,472.463,-0.666,5.552
1782117388.516718,0.275000,1834275,1000,12,0,1,577.529,2.606,11.920,469.508,-0.896,5.535
1782117388.517718,0.276000,1834276,1000,12,0,1,580.484,4.223,11.935,458.771,-8.702,5.648
1782117388.518718,0.277000,1834277,1000,12,0,1,580.484,2.753,11.941,458.771,-8.318,5.764
1782117388.519718,0.278000,1834278,1000,12,0,1,576.880,-1.117,11.931,456.225,-5.679,5.820
1782117388.520718,0.279000,1834279,1000,12,0,1,575.199,-3.540,11.905,454.687,-6.944,5.900
1782117388.521718,0.280000,1834280,1000,12,0,1,580.003,0.886,11.866,452.213,-5.754,5.956
1782117388.522718,0.281000,1834281,1000,12,0,1,578.610,1.386,11.773,444.238,-11.467,6.153
1782117388.523718,0.282000,1834282,1000,12,0,1,576.856,-1.139,11.600,439.794,-14.078,6.366
1782117388.524718,0.283000,1834283,1000,12,0,1,570.899,-4.138,11.463,441.380,-10.290,6.409
1782117388.525718,0.284000,1834284,1000,12,0,1,567.632,-7.341,11.430,443.854,-6.157,6.368
1782117388.526718,0.285000,1834285,1000,12,0,1,565.903,-6.065,11.447,451.685,1.224,6.347
1782117388.527718,0.286000,1834286,1000,12,0,1,568.954,-2.982,11.454,456.705,6.714,6.416
1782117388.528718,0.287000,1834287,1000,12,0,1,572.437,1.960,11.451,458.819,7.225,6.469
1782117388.529718,0.288000,1834288,1000,12,0,1,576.040,4.492,11.464,459.972,7.368,6.520
1782117388.530718,0.289000,1834289,1000,12,0,1,575.439,3.846,11.476,462.038,7.957,6.611
1782117388.531718,0.290000,1834290,1000,12,0,1,576.304,2.402,11.469,460.332,6.363,6.658
1782117388.532718,0.291000,1834291,1000,12,0,1,578.802,3.500,11.454,457.450,3.120,6.660
1782117388.533718,0.292000,1834292,1000,12,0,1,575.079,-0.637,11.423,452.742,-0.018,6.659
1782117388.534718,0.293000,1834293,1000,12,0,1,572.341,-5.489,11.419,449.907,-1.705,6.658
1782117388.535718,0.294000,1834294,1000,12,0,1,567.272,-9.057,11.484,451.781,1.703,6.661
1782117388.536718,0.295000,1834295,1000,12,0,1,565.134,-12.032,11.609,454.543,6.175,6.714
1782117388.537718,0.296000,1834296,1000,12,0,1,562.204,-11.968,11.731,461.845,12.633,6.943
1782117388.538718,0.297000,1834297,1000,12,0,1,560.642,-12.720,11.854,468.691,19.297,7.458
1782117388.539718,0.298000,1834298,1000,12,0,1,564.149,-7.220,11.858,470.565,19.062,7.930
1782117388.540718,0.299000,1834299,1000,12,0,1,561.699,-6.250,11.854,475.033,19.797,8.409
1782117388.541718,0.300000,1834300,1000,12,0,1,562.756,-4.921,11.859,481.422,22.347,8.983
1782117388.542718,0.301000,1834301,1000,12,0,1,559.946,-3.267,11.857,487.427,23.169,9.562
1782117388.543718,0.302000,1834302,1000,12,0,1,556.799,-5.513,11.869,494.201,23.813,10.118
1782117388.544718,0.303000,1834303,1000,12,0,1,558.793,-0.963,11.837,494.177,18.928,10.446
1782117388.545718,0.304000,1834304,1000,12,0,1,568.569,8.432,11.803,485.194,5.532,10.465
1782117388.546718,0.305000,1834305,1000,12,0,1,575.007,15.865,11.952,470.037,-11.371,10.585
1782117388.547718,0.306000,1834306,1000,12,0,1,579.715,17.747,12.209,462.902,-20.403,10.968
1782117388.548718,0.307000,1834307,1000,12,0,1,584.135,19.772,12.524,463.791,-18.285,11.222
1782117388.549718,0.308000,1834308,1000,12,0,1,588.002,19.827,12.833,463.167,-17.042,11.348
1782117388.550718,0.309000,1834309,1000,12,0,1,588.603,17.035,13.056,463.022,-15.919,11.527
1782117388.551718,0.310000,1834310,1000,12,0,1,581.036,7.450,13.047,460.692,-15.259,11.727
1782117388.552718,0.311000,1834311,1000,12,0,1,577.961,0.359,12.989,463.335,-11.992,11.845
1782117388.553718,0.312000,1834312,1000,12,0,1,575.751,-1.740,12.991,472.463,-1.485,11.839
1782117388.554718,0.313000,1834313,1000,12,0,1,574.118,-5.270,12.903,480.846,7.001,11.864
1782117388.555718,0.314000,1834314,1000,12,0,1,578.970,-1.564,12.667,475.825,3.854,11.809
1782117388.556718,0.315000,1834315,1000,12,0,1,585.696,3.836,12.346,461.341,-9.527,11.829
1782117388.557718,0.316000,1834316,1000,12,0,1,583.126,1.427,11.882,456.153,-13.876,11.963
1782117388.558718,0.317000,1834317,1000,12,0,1,579.234,-4.128,11.447,450.580,-14.333,12.104
1782117388.559718,0.318000,1834318,1000,12,0,1,577.265,-5.523,11.206,442.076,-19.479,12.395
1782117388.560718,0.319000,1834319,1000,12,0,1,576.232,-6.110,11.238,433.165,-22.880,12.809
1782117388.561718,0.320000,1834320,1000,12,0,1,571.716,-8.458,10.779,433.405,-19.776,12.983
1782117388.562718,0.321000,1834321,1000,12,0,1,565.447,-12.694,9.614,436.720,-11.507,12.862
1782117388.563718,0.322000,1834322,1000,12,0,1,569.314,-8.308,8.588,437.753,-7.893,12.803
1782117388.564718,0.323000,1834323,1000,12,0,1,571.956,-2.217,8.026,438.521,-5.083,12.801
1782117388.565718,0.324000,1834324,1000,12,0,1,573.854,-0.667,7.941,441.212,-1.443,12.802
1782117388.566718,0.325000,1834325,1000,12,0,1,577.529,3.745,7.950,441.572,0.188,12.801
1782117388.567718,0.326000,1834326,1000,12,0,1,575.800,2.462,7.935,443.782,1.968,12.745
1782117388.568718,0.327000,1834327,1000,12,0,1,574.406,0.131,7.926,448.514,6.452,12.723
1782117388.569718,0.328000,1834328,1000,12,0,1,576.040,1.426,7.927,452.357,9.708,12.772
1782117388.570718,0.329000,1834329,1000,12,0,1,576.136,1.175,7.912,452.381,9.202,12.801
1782117388.571718,0.330000,1834330,1000,12,0,1,573.205,-1.871,7.916,453.582,9.100,12.839
1782117388.572718,0.331000,1834331,1000,12,0,1,572.485,-3.492,7.929,455.336,10.443,12.822
1782117388.573718,0.332000,1834332,1000,12,0,1,581.613,3.556,7.943,451.372,7.221,12.707
1782117388.574718,0.333000,1834333,1000,12,0,1,589.707,10.843,8.069,445.175,1.444,12.626
1782117388.575718,0.334000,1834334,1000,12,0,1,584.759,5.228,8.036,444.358,1.421,12.597
1782117388.576718,0.335000,1834335,1000,12,0,1,574.863,-5.682,8.030,448.274,6.210,12.626
1782117388.577718,0.336000,1834336,1000,12,0,1,564.750,-14.092,8.263,452.021,10.590,12.679
1782117388.578718,0.337000,1834337,1000,12,0,1,564.750,-13.736,8.484,452.021,10.721,12.729
1782117388.579718,0.338000,1834338,1000,12,0,1,544.525,-24.230,9.127,469.796,22.661,13.085
1782117388.580718,0.339000,1834339,1000,12,0,1,549.257,-23.285,9.688,470.997,26.162,13.551
1782117388.581718,0.340000,1834340,1000,12,0,1,588.098,17.415,9.990,462.734,11.513,13.619
1782117388.582718,0.341000,1834341,1000,12,0,1,615.314,42.908,11.678,457.666,5.383,13.633
1782117388.583718,0.342000,1834342,1000,12,0,1,607.171,32.683,12.560,463.311,6.193,13.661
1782117388.584718,0.343000,1834343,1000,12,0,1,592.758,12.126,12.652,470.997,12.021,13.764
1782117388.585718,0.344000,1834344,1000,12,0,1,593.094,8.446,12.644,474.024,11.252,13.854
1782117388.586718,0.345000,1834345,1000,12,0,1,605.561,17.221,12.763,470.709,5.024,13.845
1782117388.587718,0.346000,1834346,1000,12,0,1,612.551,21.146,12.999,465.785,-2.405,13.733
1782117388.588718,0.347000,1834347,1000,12,0,1,616.851,19.877,13.177,455.744,-12.332,13.572
1782117388.589718,0.348000,1834348,1000,12,0,1,607.074,8.618,13.194,450.700,-17.724,13.535
1782117388.590718,0.349000,1834349,1000,12,0,1,595.136,-6.982,13.202,456.008,-11.981,13.351
1782117388.591718,0.350000,1834350,1000,12,0,1,592.806,-10.459,13.266,456.681,-8.207,13.023
1782117388.592718,0.351000,1834351,1000,12,0,1,597.586,-6.354,13.288,452.886,-11.204,12.703
1782117388.593718,0.352000,1834352,1000,12,0,1,606.114,0.478,13.266,443.374,-16.290,12.463
1782117388.594718,0.353000,1834353,1000,12,0,1,600.493,-3.217,13.273,439.602,-18.605,12.454
1782117388.595718,0.354000,1834354,1000,12,0,1,587.161,-17.350,13.445,437.969,-14.698,12.602
1782117388.596718,0.355000,1834355,1000,12,0,1,574.743,-26.335,13.770,440.947,-9.916,12.577
1782117388.597718,0.356000,1834356,1000,12,0,1,568.761,-29.645,14.173,445.367,-1.980,12.245
1782117388.598718,0.357000,1834357,1000,12,0,1,576.352,-19.350,14.161,447.962,1.781,11.971
1782117388.599718,0.358000,1834358,1000,12,0,1,588.362,-4.848,13.898,446.136,1.623,11.729
1782117388.600718,0.359000,1834359,1000,12,0,1,594.944,2.659,13.693,447.409,2.255,11.515
1782117388.601718,0.360000,1834360,1000,12,0,1,593.767,1.946,13.655,453.775,7.896,11.366
1782117388.602718,0.361000,1834361,1000,12,0,1,590.092,-2.116,13.658,457.810,11.131,11.348
1782117388.603718,0.362000,1834362,1000,12,0,1,587.113,-4.464,13.671,457.690,8.960,11.417
1782117388.604718,0.363000,1834363,1000,12,0,1,588.122,-3.550,13.659,461.461,9.654,11.456
1782117388.605718,0.364000,1834364,1000,12,0,1,581.901,-6.627,13.690,462.854,9.471,11.521
1782117388.606718,0.365000,1834365,1000,12,0,1,572.965,-14.338,13.828,466.866,9.529,11.521
1782117388.607718,0.366000,1834366,1000,12,0,1,567.681,-16.283,14.017,465.905,7.789,11.406
1782117388.608718,0.367000,1834367,1000,12,0,1,583.774,-1.869,14.008,455.000,-3.714,11.236
1782117388.609718,0.368000,1834368,1000,12,0,1,598.379,15.535,14.157,445.559,-13.135,11.051
1782117388.610718,0.369000,1834369,1000,12,0,1,593.815,10.544,14.210,447.457,-10.600,10.672
1782117388.611718,0.370000,1834370,1000,12,0,1,587.738,2.534,14.164,454.687,-1.954,10.303
1782117388.612718,0.371000,1834371,1000,12,0,1,583.774,-0.690,14.050,456.777,1.798,10.177
1782117388.613718,0.372000,1834372,1000,12,0,1,582.573,-2.341,14.004,453.606,-0.649,10.116
1782117388.614718,0.373000,1834373,1000,12,0,1,582.525,-1.019,14.002,452.742,-1.079,10.091
1782117388.615718,0.374000,1834374,1000,12,0,1,582.958,-0.622,14.002,448.442,-3.030,10.098
1782117388.616718,0.375000,1834375,1000,12,0,1,583.510,0.779,13.992,443.902,-6.522,10.140
1782117388.617718,0.376000,1834376,1000,12,0,1,585.192,2.084,13.991,449.859,-0.630,10.137
1782117388.618718,0.377000,1834377,1000,12,0,1,583.606,1.557,13.993,454.952,6.065,10.132
1782117388.619718,0.378000,1834378,1000,12,0,1,583.678,0.714,13.991,462.710,10.910,10.157
1782117388.620718,0.379000,1834379,1000,12,0,1,581.685,0.126,13.990,473.279,19.171,10.431
1782117388.621718,0.380000,1834380,1000,12,0,1,578.298,-3.143,13.995,485.602,25.811,10.976
1782117388.622718,0.381000,1834381,1000,12,0,1,579.090,-2.051,13.989,492.232,27.719,11.561
1782117388.623718,0.382000,1834382,1000,12,0,1,581.204,0.828,13.981,502.200,28.676,12.209
1782117388.624718,0.383000,1834383,1000,12,0,1,580.724,0.814,13.897,509.983,30.182,12.932
1782117388.625718,0.384000,1834384,1000,12,0,1,579.066,-0.440,13.877,513.874,25.636,13.430
1782117388.626718,0.385000,1834385,1000,12,0,1,589.059,6.834,13.888,501.456,10.121,13.477
1782117388.627718,0.386000,1834386,1000,12,0,1,604.432,20.601,14.049,474.672,-18.333,13.642
1782117388.628718,0.387000,1834387,1000,12,0,1,607.435,21.423,14.241,459.491,-33.891,14.380
1782117388.629718,0.388000,1834388,1000,12,0,1,605.657,15.199,13.988,454.855,-33.473,14.796
1782117388.630718,0.389000,1834389,1000,12,0,1,598.619,6.923,13.630,451.709,-31.822,15.016
1782117388.631718,0.390000,1834390,1000,12,0,1,590.716,-2.952,13.412,447.361,-29.777,15.510
1782117388.632718,0.391000,1834391,1000,12,0,1,590.933,-3.675,11.973,437.753,-32.524,16.160
1782117388.633718,0.392000,1834392,1000,12,0,1,591.653,-2.149,11.049,429.490,-34.222,16.846
1782117388.634718,0.393000,1834393,1000,12,0,1,585.360,-7.125,10.961,431.868,-26.392,17.171
1782117388.635718,0.394000,1834394,1000,12,0,1,577.529,-13.535,11.063,437.224,-14.979,17.228
1782117388.636718,0.395000,1834395,1000,12,0,1,576.760,-13.035,10.948,439.458,-8.872,17.259
1782117388.637718,0.396000,1834396,1000,12,0,1,578.490,-8.677,10.602,440.203,-5.393,17.272
1782117388.638718,0.397000,1834397,1000,12,0,1,583.198,-3.550,10.235,440.563,-3.189,17.190
1782117388.639718,0.398000,1834398,1000,12,0,1,590.044,3.683,10.176,440.275,-2.109,17.009
1782117388.640718,0.399000,1834399,1000,12,0,1,591.965,5.562,10.158,442.605,0.411,16.924
1782117388.641718,0.400000,1834400,1000,12,0,1,590.716,3.243,10.061,443.013,1.871,16.887
1782117388.642718,0.401000,1834401,1000,12,0,1,587.858,0.121,10.020,441.812,0.640,16.812
1782117388.643718,0.402000,1834402,1000,12,0,1,584.087,-3.786,10.034,442.965,1.777,16.656
1782117388.644718,0.403000,1834403,1000,12,0,1,586.321,-2.438,10.030,446.016,4.859,16.461
1782117388.645718,0.404000,1834404,1000,12,0,1,586.176,-1.204,9.727,447.697,6.702,16.357
1782117388.646718,0.405000,1834405,1000,12,0,1,587.450,-1.215,8.987,448.538,7.388,16.330
1782117388.647718,0.406000,1834406,1000,12,0,1,587.233,-0.253,7.949,449.475,8.287,16.369
1782117388.648718,0.407000,1834407,1000,12,0,1,590.476,1.304,7.466,451.060,9.779,16.426
1782117388.649718,0.408000,1834408,1000,12,0,1,593.407,4.751,7.465,449.715,9.143,16.475
1782117388.650718,0.409000,1834409,1000,12,0,1,593.887,4.204,7.479,449.259,8.358,16.514
1782117388.651718,0.410000,1834410,1000,12,0,1,594.704,4.220,7.497,449.715,9.374,16.530
1782117388.652718,0.411000,1834411,1000,12,0,1,595.016,4.083,7.514,447.193,7.545,16.489
1782117388.653718,0.412000,1834412,1000,12,0,1,592.518,1.401,7.490,448.154,7.634,16.476
1782117388.654718,0.413000,1834413,1000,12,0,1,588.891,-1.976,7.478,448.778,8.920,16.467
1782117388.655718,0.414000,1834414,1000,12,0,1,587.089,-3.617,7.437,445.680,5.434,16.431
1782117388.656718,0.415000,1834415,1000,12,0,1,586.128,-3.479,7.172,444.430,3.362,16.382
1782117388.657718,0.416000,1834416,1000,12,0,1,582.693,-5.610,6.838,448.082,5.596,16.365
1782117388.658718,0.417000,1834417,1000,12,0,1,579.234,-7.813,6.922,449.090,6.051,16.378
1782117388.659718,0.418000,1834418,1000,12,0,1,572.917,-11.407,6.759,447.889,2.901,16.278
1782117388.660718,0.419000,1834419,1000,12,0,1,562.396,-18.494,7.093,453.318,5.243,16.226
1782117388.661718,0.420000,1834420,1000,12,0,1,564.149,-15.809,7.428,454.903,6.089,16.246
1782117388.662718,0.421000,1834421,1000,12,0,1,579.835,1.089,7.429,450.748,-0.263,16.244
1782117388.663718,0.422000,1834422,1000,12,0,1,597.634,17.648,7.830,453.366,-0.296,16.244
1782117388.664718,0.423000,1834423,1000,12,0,1,612.911,28.872,8.830,451.180,-1.548,16.245
1782117388.665718,0.424000,1834424,1000,12,0,1,613.152,26.213,9.576,452.093,-3.228,16.246
1782117388.666718,0.425000,1834425,1000,12,0,1,608.780,15.827,9.833,458.170,2.847,16.224
1782117388.667718,0.426000,1834426,1000,12,0,1,603.784,8.526,9.903,463.119,6.610,16.251
1782117388.668718,0.427000,1834427,1000,12,0,1,591.653,-4.186,9.918,467.514,9.519,16.284
1782117388.669718,0.428000,1834428,1000,12,0,1,581.084,-14.638,10.131,467.827,9.121,16.262
1782117388.670718,0.429000,1834429,1000,12,0,1,585.960,-9.959,10.229,464.944,5.064,16.050
1782117388.671718,0.430000,1834430,1000,12,0,1,599.364,4.068,10.235,459.299,-0.035,15.630
1782117388.672718,0.431000,1834431,1000,12,0,1,603.159,8.819,10.307,454.327,-4.807,15.146
1782117388.673718,0.432000,1834432,1000,12,0,1,608.372,10.467,10.412,452.622,-5.297,14.612
1782117388.674718,0.433000,1834433,1000,12,0,1,607.675,10.394,10.514,451.805,-4.869,13.991
1782117388.675718,0.434000,1834434,1000,12,0,1,601.622,2.152,10.519,450.075,-5.303,13.534
1782117388.676718,0.435000,1834435,1000,12,0,1,596.193,-3.090,10.483,449.883,-5.077,13.478
1782117388.677718,0.436000,1834436,1000,12,0,1,592.013,-7.061,10.120,450.940,-3.555,13.235
1782117388.678718,0.437000,1834437,1000,12,0,1,586.729,-10.663,9.773,452.573,-2.261,12.341
1782117388.679718,0.438000,1834438,1000,12,0,1,585.984,-10.890,9.657,451.036,-3.579,11.408
1782117388.680718,0.439000,1834439,1000,12,0,1,592.758,-3.949,9.623,454.471,-2.373,10.489
1782117388.681718,0.440000,1834440,1000,12,0,1,602.030,4.823,9.638,459.131,1.778,9.609
1782117388.682718,0.441000,1834441,1000,12,0,1,600.973,3.937,9.640,461.125,1.871,8.441
1782117388.683718,0.442000,1834442,1000,12,0,1,599.028,-0.531,9.636,462.974,1.855,6.921
1782117388.684718,0.443000,1834443,1000,12,0,1,593.575,-5.045,9.610,463.911,1.431,5.832
1782117388.685718,0.444000,1834444,1000,12,0,1,596.385,-4.979,9.443,460.644,-2.257,5.443
1782117388.686718,0.445000,1834445,1000,12,0,1,611.134,8.071,9.332,457.041,-6.062,5.365
1782117388.687718,0.446000,1834446,1000,12,0,1,616.707,13.141,9.436,456.465,-6.082,5.380
1782117388.688718,0.447000,1834447,1000,12,0,1,611.110,5.177,9.451,457.306,-3.917,5.390
1782117388.689718,0.448000,1834448,1000,12,0,1,601.454,-4.633,9.459,457.834,-2.125,5.390
1782117388.690718,0.449000,1834449,1000,12,0,1,598.355,-8.772,9.507,459.347,0.410,5.390
1782117388.691718,0.450000,1834450,1000,12,0,1,597.010,-7.617,9.557,459.852,2.162,5.392
1782117388.692718,0.451000,1834451,1000,12,0,1,598.451,-6.003,9.595,459.876,2.795,5.406
1782117388.693718,0.452000,1834452,1000,12,0,1,596.073,-5.203,9.608,460.140,3.563,5.423
1782117388.694718,0.453000,1834453,1000,12,0,1,593.503,-7.163,9.655,461.461,4.733,5.421
1782117388.695718,0.454000,1834454,1000,12,0,1,590.812,-7.074,9.705,463.335,6.094,5.407
1782117388.696718,0.455000,1834455,1000,12,0,1,591.293,-5.754,9.738,464.031,5.935,5.371
1782117388.697718,0.456000,1834456,1000,12,0,1,594.343,-1.274,9.740,463.911,4.388,5.278
1782117388.698718,0.457000,1834457,1000,12,0,1,600.493,4.401,9.758,460.909,0.671,5.094
1782117388.699718,0.458000,1834458,1000,12,0,1,599.436,4.393,9.754,460.092,-2.096,4.937
1782117388.700718,0.459000,1834459,1000,12,0,1,597.778,0.939,9.737,461.533,-1.500,4.798
1782117388.701718,0.460000,1834460,1000,12,0,1,597.778,0.713,9.719,464.560,-0.287,4.611
1782117388.702718,0.461000,1834461,1000,12,0,1,595.040,-2.071,9.707,466.025,0.214,4.486
1782117388.703718,0.462000,1834462,1000,12,0,1,595.689,-2.783,9.713,465.617,-1.615,4.360
1782117388.704718,0.463000,1834463,1000,12,0,1,597.010,-0.959,9.709,466.313,-2.126,4.184
1782117388.705718,0.464000,1834464,1000,12,0,1,597.538,-1.342,9.698,465.713,-2.789,4.132
1782117388.706718,0.465000,1834465,1000,12,0,1,599.460,0.302,9.685,465.905,-3.241,4.130
1782117388.707718,0.466000,1834466,1000,12,0,1,598.115,-0.747,9.653,464.392,-3.576,4.085
1782117388.708718,0.467000,1834467,1000,12,0,1,591.293,-6.339,9.632,463.335,-4.385,4.042
1782117388.709718,0.468000,1834468,1000,12,0,1,583.438,-12.446,9.658,464.151,-2.296,4.035
1782117388.710718,0.469000,1834469,1000,12,0,1,574.238,-17.635,9.625,466.193,0.457,3.966
1782117388.711718,0.470000,1834470,1000,12,0,1,568.930,-19.387,9.755,467.899,3.015,3.895
1782117388.712718,0.471000,1834471,1000,12,0,1,569.938,-14.050,9.954,465.497,1.795,3.903
1782117388.713718,0.472000,1834472,1000,12,0,1,578.081,-3.394,9.648,463.239,-0.338,3.903
1782117388.714718,0.473000,1834473,1000,12,0,1,590.380,10.104,8.858,462.422,-0.241,3.897
1782117388.715718,0.474000,1834474,1000,12,0,1,593.503,14.547,8.304,462.350,-0.117,3.871
1782117388.716718,0.475000,1834475,1000,12,0,1,590.092,9.932,8.119,461.581,-0.381,3.850
1782117388.717718,0.476000,1834476,1000,12,0,1,589.035,7.865,8.105,462.974,0.153,3.735
1782117388.718718,0.477000,1834477,1000,12,0,1,594.728,11.317,8.241,465.977,2.499,3.502
1782117388.719718,0.478000,1834478,1000,12,0,1,596.169,12.453,8.168,463.839,0.166,3.255
1782117388.720718,0.479000,1834479,1000,12,0,1,593.527,7.469,8.115,462.062,-3.273,3.209
1782117388.721718,0.480000,1834480,1000,12,0,1,594.416,6.259,8.143,461.893,-3.692,3.251
1782117388.722718,0.481000,1834481,1000,12,0,1,600.469,9.727,8.164,462.254,-4.116,3.232
1782117388.723718,0.482000,1834482,1000,12,0,1,605.945,12.898,8.233,462.398,-4.021,3.195
1782117388.724718,0.483000,1834483,1000,12,0,1,607.507,11.775,8.270,460.548,-5.564,3.218
1782117388.725718,0.484000,1834484,1000,12,0,1,601.886,4.738,8.292,461.797,-4.695,3.199
1782117388.726718,0.485000,1834485,1000,12,0,1,595.689,-3.035,8.291,464.824,-0.976,3.121
1782117388.727718,0.486000,1834486,1000,12,0,1,601.069,0.131,8.231,464.680,-0.376,3.080
1782117388.728718,0.487000,1834487,1000,12,0,1,615.578,12.685,8.288,461.389,-2.549,3.085
1782117388.729718,0.488000,1834488,1000,12,0,1,618.196,14.883,8.411,461.125,-2.318,3.060
1782117388.730718,0.489000,1834489,1000,12,0,1,612.911,6.675,8.446,462.446,0.590,3.043
1782117388.731718,0.490000,1834490,1000,12,0,1,603.087,-2.849,8.428,464.224,2.993,3.062
1782117388.732718,0.491000,1834491,1000,12,0,1,598.187,-8.770,8.500,464.848,4.564,3.118
1782117388.733718,0.492000,1834492,1000,12,0,1,595.569,-9.142,8.598,465.304,4.997,3.187
1782117388.734718,0.493000,1834493,1000,12,0,1,594.584,-9.300,8.668,464.752,4.755,3.250
1782117388.735718,0.494000,1834494,1000,12,0,1,596.289,-6.318,8.686,463.022,2.917,3.261
1782117388.736718,0.495000,1834495,1000,12,0,1,597.851,-3.778,8.627,463.647,2.740,3.170
1782117388.737718,0.496000,1834496,1000,12,0,1,599.268,-2.381,8.431,463.599,2.670,3.074
1782117388.738718,0.497000,1834497,1000,12,0,1,600.733,-0.904,8.400,462.902,0.891,3.027
1782117388.739718,0.498000,1834498,1000,12,0,1,602.270,-0.281,8.375,462.350,-0.230,3.012
1782117388.740718,0.499000,1834499,1000,12,0,1,602.943,-0.115,8.283,459.491,-3.343,3.048
1782117388.741718,0.500000,1834500,1000,12,0,1,601.021,-2.664,8.221,460.572,-3.656,3.077
1782117388.742718,0.501000,1834501,1000,12,0,1,596.986,-6.641,8.231,463.215,-1.073,3.055
1782117388.743718,0.502000,1834502,1000,12,0,1,597.058,-7.294,8.262,461.149,-3.078,3.044
1782117388.744718,0.503000,1834503,1000,12,0,1,599.412,-4.329,8.223,459.539,-5.222,3.060
1782117388.745718,0.504000,1834504,1000,12,0,1,597.442,-5.342,8.197,460.380,-4.004,2.990
1782117388.746718,0.505000,1834505,1000,12,0,1,587.329,-12.938,8.359,464.968,0.093,2.870
1782117388.747718,0.506000,1834506,1000,12,0,1,579.715,-18.762,8.768,467.586,3.445,2.844
1782117388.748718,0.507000,1834507,1000,12,0,1,577.817,-16.857,9.065,466.265,2.090,2.858
1782117388.749718,0.508000,1834508,1000,12,0,1,577.673,-13.214,9.235,466.578,2.148,2.859
1782117388.750718,0.509000,1834509,1000,12,0,1,582.045,-6.404,9.278,466.626,2.935,2.881
1782117388.751718,0.510000,1834510,1000,12,0,1,591.365,4.434,9.299,468.547,4.317,2.945
1782117388.752718,0.511000,1834511,1000,12,0,1,602.751,15.319,9.543,468.475,5.161,3.034
1782117388.753718,0.512000,1834512,1000,12,0,1,609.765,21.230,9.997,466.914,3.172,3.058
1782117388.754718,0.513000,1834513,1000,12,0,1,613.464,21.629,10.453,463.983,0.979,3.047
1782117388.755718,0.514000,1834514,1000,12,0,1,618.340,22.603,10.929,463.191,-0.260,3.021
1782117388.756718,0.515000,1834515,1000,12,0,1,620.358,21.143,11.331,464.560,1.266,2.992
1782117388.757718,0.516000,1834516,1000,12,0,1,614.545,12.647,11.471,464.752,1.310,2.954
1782117388.758718,0.517000,1834517,1000,12,0,1,607.387,2.731,11.442,466.217,1.571,2.897
1782117388.759718,0.518000,1834518,1000,12,0,1,605.849,-0.706,11.306,466.073,1.179,2.884
1782117388.760718,0.519000,1834519,1000,12,0,1,605.057,-1.798,11.031,463.935,-2.010,2.897
1782117388.761718,0.520000,1834520,1000,12,0,1,602.366,-4.842,10.707,463.095,-3.528,2.908
1782117388.762718,0.521000,1834521,1000,12,0,1,597.610,-8.849,10.595,464.704,-2.785,2.924
1782117388.763718,0.522000,1834522,1000,12,0,1,593.455,-12.199,10.724,463.503,-3.564,2.967
1782117388.764718,0.523000,1834523,1000,12,0,1,589.203,-14.206,10.816,464.007,-4.153,3.024
1782117388.765718,0.524000,1834524,1000,12,0,1,585.096,-15.986,10.857,464.944,-2.601,3.046
1782117388.766718,0.525000,1834525,1000,12,0,1,582.958,-15.403,10.984,465.376,-2.353,3.064
1782117388.767718,0.526000,1834526,1000,12,0,1,589.563,-7.860,10.984,465.641,-1.588,3.072
1782117388.768718,0.527000,1834527,1000,12,0,1,599.028,3.033,10.875,463.719,-2.524,3.073
1782117388.769718,0.528000,1834528,1000,12,0,1,607.699,10.586,10.835,463.215,-2.632,3.095
1782117388.770718,0.529000,1834529,1000,12,0,1,608.299,11.087,10.897,461.053,-2.683,3.084
1782117388.771718,0.530000,1834530,1000,12,0,1,603.183,4.512,10.880,460.572,-2.678,3.062
1782117388.772718,0.531000,1834531,1000,12,0,1,603.231,2.844,10.800,459.828,-1.212,3.012
1782117388.773718,0.532000,1834532,1000,12,0,1,611.422,9.170,10.724,459.059,-1.221,2.962
1782117388.774718,0.533000,1834533,1000,12,0,1,609.957,8.394,10.660,459.323,0.262,2.856
1782117388.775718,0.534000,1834534,1000,12,0,1,603.976,0.486,10.639,460.981,2.177,2.795
1782117388.776718,0.535000,1834535,1000,12,0,1,599.364,-3.696,10.643,462.734,4.052,2.850
1782117388.777718,0.536000,1834536,1000,12,0,1,589.852,-11.025,10.757,465.929,6.150,2.979
1782117388.778718,0.537000,1834537,1000,12,0,1,588.747,-12.299,10.748,464.968,5.054,3.042
1782117388.779718,0.538000,1834538,1000,12,0,1,600.469,0.152,10.540,460.332,-0.455,3.025
1782117388.780718,0.539000,1834539,1000,12,0,1,603.808,5.348,10.524,456.825,-4.403,3.088
1782117388.781718,0.540000,1834540,1000,12,0,1,598.091,-0.592,10.517,460.260,-2.134,3.073
1782117388.782718,0.541000,1834541,1000,12,0,1,592.134,-6.016,10.478,464.272,1.882,3.017
1782117388.783718,0.542000,1834542,1000,12,0,1,583.750,-11.995,10.536,464.127,1.136,2.937
1782117388.784718,0.543000,1834543,1000,12,0,1,579.427,-14.894,10.663,466.433,1.709,2.869
1782117388.785718,0.544000,1834544,1000,12,0,1,583.846,-8.614,10.695,463.695,0.040,2.839
1782117388.786718,0.545000,1834545,1000,12,0,1,591.629,0.326,10.682,460.741,-4.043,2.870
1782117388.787718,0.546000,1834546,1000,12,0,1,595.809,5.184,10.702,460.068,-3.486,2.888
1782117388.788718,0.547000,1834547,1000,12,0,1,599.244,7.334,10.751,460.188,-2.840,2.913
1782117388.789718,0.548000,1834548,1000,12,0,1,605.417,11.672,10.877,460.716,-1.136,2.917
1782117388.790718,0.549000,1834549,1000,12,0,1,617.211,19.649,11.227,455.288,-4.091,2.936
1782117388.791718,0.550000,1834550,1000,12,0,1,620.550,21.272,11.617,453.534,-5.571,2.996
1782117388.792718,0.551000,1834551,1000,12,0,1,618.484,14.726,11.764,453.991,-2.381,3.011
1782117388.793718,0.552000,1834552,1000,12,0,1,622.640,14.692,11.902,457.209,0.958,2.982
1782117388.794718,0.553000,1834553,1000,12,0,1,626.723,15.983,12.099,461.461,6.149,3.017
1782117388.795718,0.554000,1834554,1000,12,0,1,616.274,5.049,12.097,463.815,7.904,3.168
1782117388.796718,0.555000,1834555,1000,12,0,1,608.444,-5.638,11.984,466.169,8.961,3.412
1782117388.797718,0.556000,1834556,1000,12,0,1,605.417,-7.351,11.733,465.641,7.587,3.543
1782117388.798718,0.557000,1834557,1000,12,0,1,603.231,-8.884,11.556,463.599,3.837,3.572
1782117388.799718,0.558000,1834558,1000,12,0,1,602.270,-8.450,11.467,463.215,2.194,3.573
1782117388.800718,0.559000,1834559,1000,12,0,1,603.928,-6.011,11.462,462.734,0.734,3.550
1782117388.801718,0.560000,1834560,1000,12,0,1,604.456,-4.291,11.461,460.741,-1.784,3.506
1782117388.802718,0.561000,1834561,1000,12,0,1,604.432,-3.963,11.269,460.789,-2.775,3.452
1782117388.803718,0.562000,1834562,1000,12,0,1,605.657,-2.782,10.869,461.173,-2.288,3.438
1782117388.804718,0.563000,1834563,1000,12,0,1,607.603,-0.960,10.430,458.122,-4.863,3.503
1782117388.805718,0.564000,1834564,1000,12,0,1,610.918,1.158,9.930,459.612,-4.143,3.552
1782117388.806718,0.565000,1834565,1000,12,0,1,612.383,2.108,9.473,461.749,-0.829,3.549
1782117388.807718,0.566000,1834566,1000,12,0,1,611.758,0.077,9.303,459.251,-2.564,3.563
1782117388.808718,0.567000,1834567,1000,12,0,1,611.014,-1.496,9.297,459.612,-2.267,3.570
1782117388.809718,0.568000,1834568,1000,12,0,1,614.785,0.348,9.297,463.359,2.063,3.578
1782117388.810718,0.569000,1834569,1000,12,0,1,620.430,4.885,9.319,464.752,3.990,3.611
1782117388.811718,0.570000,1834570,1000,12,0,1,615.626,0.542,9.294,467.731,6.012,3.676
1782117388.812718,0.571000,1834571,1000,12,0,1,610.678,-6.013,9.249,469.316,7.654,3.812
1782117388.813718,0.572000,1834572,1000,12,0,1,614.064,-2.814,9.095,465.569,3.761,3.816
1782117388.814718,0.573000,1834573,1000,12,0,1,616.322,0.258,8.871,462.950,0.362,3.771
1782117388.815718,0.574000,1834574,1000,12,0,1,617.668,1.076,8.579,460.452,-1.412,3.758
1782117388.816718,0.575000,1834575,1000,12,0,1,617.884,1.716,8.301,460.212,-2.172,3.756
1782117388.817718,0.576000,1834576,1000,12,0,1,611.302,-3.513,8.242,462.254,0.042,3.749
1782117388.818718,0.577000,1834577,1000,12,0,1,609.549,-5.795,8.271,464.344,1.518,3.738
1782117388.819718,0.578000,1834578,1000,12,0,1,609.332,-3.760,8.152,462.302,-0.338,3.720
1782117388.820718,0.579000,1834579,1000,12,0,1,607.387,-4.903,8.030,463.071,-1.286,3.705
1782117388.821718,0.580000,1834580,1000,12,0,1,605.873,-5.115,8.037,462.782,-1.060,3.689
1782117388.822718,0.581000,1834581,1000,12,0,1,605.945,-4.322,8.050,463.935,-1.451,3.690
1782117388.823718,0.582000,1834582,1000,12,0,1,606.498,-3.006,7.956,463.935,-1.039,3.689
1782117388.824718,0.583000,1834583,1000,12,0,1,608.828,-0.845,7.868,462.854,-2.735,3.709
1782117388.825718,0.584000,1834584,1000,12,0,1,613.344,2.885,7.878,466.578,-0.012,3.697
1782117388.826718,0.585000,1834585,1000,12,0,1,620.046,7.778,7.938,466.505,1.015,3.655
1782117388.827718,0.586000,1834586,1000,12,0,1,624.706,10.448,7.922,469.028,1.483,3.556
1782117388.828718,0.587000,1834587,1000,12,0,1,624.129,7.831,7.808,473.279,6.007,3.585
1782117388.829718,0.588000,1834588,1000,12,0,1,628.237,7.893,7.887,474.865,6.397,3.697
1782117388.830718,0.589000,1834589,1000,12,0,1,627.372,6.724,7.908,475.946,6.534,3.760
1782117388.831718,0.590000,1834590,1000,12,0,1,617.379,-4.223,7.930,476.522,6.122,3.846
1782117388.832718,0.591000,1834591,1000,12,0,1,608.588,-12.582,8.083,476.402,5.069,3.903
1782117388.833718,0.592000,1834592,1000,12,0,1,598.139,-19.407,8.366,476.906,4.559,3.953
1782117388.834718,0.593000,1834593,1000,12,0,1,598.931,-17.663,8.473,474.721,2.195,3.958
1782117388.835718,0.594000,1834594,1000,12,0,1,600.277,-10.746,8.521,473.928,0.218,3.958
1782117388.836718,0.595000,1834595,1000,12,0,1,601.165,-8.369,8.603,474.624,0.600,3.917
1782117388.837718,0.596000,1834596,1000,12,0,1,601.165,-4.743,8.598,474.624,-0.002,3.886
1782117388.838718,0.597000,1834597,1000,12,0,1,601.165,-3.370,8.548,474.624,-0.801,3.867
1782117388.839718,0.598000,1834598,1000,12,0,1,615.626,9.215,8.488,469.460,-5.186,3.933
1782117388.840718,0.599000,1834599,1000,12,0,1,619.229,15.589,8.318,466.626,-9.036,4.095
1782117388.841718,0.600000,1834600,1000,12,0,1,624.586,14.883,8.035,464.464,-9.528,4.238
1782117388.842718,0.601000,1834601,1000,12,0,1,623.961,15.217,8.054,464.632,-9.540,4.435
1782117388.843718,0.602000,1834602,1000,12,0,1,618.797,5.792,7.824,467.418,-5.842,4.509
1782117388.844718,0.603000,1834603,1000,12,0,1,611.686,-0.997,7.492,469.388,-3.557,4.453
1782117388.845718,0.604000,1834604,1000,12,0,1,608.996,-5.605,7.500,469.124,-3.378,4.337
1782117388.846718,0.605000,1834605,1000,12,0,1,607.579,-5.922,7.504,469.052,-3.366,4.175
1782117388.847718,0.606000,1834606,1000,12,0,1,610.317,-4.065,7.454,467.923,-3.668,4.067
1782117388.848718,0.607000,1834607,1000,12,0,1,611.879,-1.643,7.351,470.277,-1.619,4.038
1782117388.849718,0.608000,1834608,1000,12,0,1,610.029,-3.169,7.267,469.460,-0.705,4.027
1782117388.850718,0.609000,1834609,1000,12,0,1,608.900,-4.335,7.243,469.796,-0.890,4.028
1782117388.851718,0.610000,1834610,1000,12,0,1,606.186,-5.194,7.255,472.583,2.557,4.036
1782117388.852718,0.611000,1834611,1000,12,0,1,611.302,-1.515,7.236,474.072,4.196,4.060
1782117388.853718,0.612000,1834612,1000,12,0,1,621.655,9.363,7.346,470.805,1.688,4.054
1782117388.854718,0.613000,1834613,1000,12,0,1,619.445,7.906,7.429,469.028,-0.415,3.996
1782117388.855718,0.614000,1834614,1000,12,0,1,613.056,0.512,7.428,467.755,-0.672,3.954
1782117388.856718,0.615000,1834615,1000,12,0,1,608.660,-3.057,7.434,468.523,-0.040,3.952
1782117388.857718,0.616000,1834616,1000,12,0,1,607.867,-3.442,7.450,470.613,2.252,3.949
1782117388.858718,0.617000,1834617,1000,12,0,1,613.968,2.443,7.455,471.045,2.645,3.953
1782117388.859718,0.618000,1834618,1000,12,0,1,621.223,9.426,7.573,468.427,-0.023,3.942
1782117388.860718,0.619000,1834619,1000,12,0,1,617.980,6.536,7.598,467.803,-1.331,3.906
1782117388.861718,0.620000,1834620,1000,12,0,1,617.668,3.264,7.612,469.196,-0.168,3.813
1782117388.862718,0.621000,1834621,1000,12,0,1,616.346,2.631,7.573,466.578,-2.125,3.668
1782117388.863718,0.622000,1834622,1000,12,0,1,617.644,1.369,7.565,466.746,-3.162,3.657
1782117388.864718,0.623000,1834623,1000,12,0,1,614.497,-0.545,7.566,467.827,-1.269,3.661
1782117388.865718,0.624000,1834624,1000,12,0,1,611.999,-4.790,7.594,471.358,0.912,3.658
1782117388.866718,0.625000,1834625,1000,12,0,1,617.139,-0.491,7.591,471.045,1.631,3.652
1782117388.867718,0.626000,1834626,1000,12,0,1,625.594,6.605,7.632,471.502,0.508,3.653
1782117388.868718,0.627000,1834627,1000,12,0,1,630.975,10.074,7.720,473.952,3.035,3.672
1782117388.869718,0.628000,1834628,1000,12,0,1,629.246,7.023,7.766,478.348,6.064,3.770
1782117388.870718,0.629000,1834629,1000,12,0,1,616.322,-5.617,7.776,478.564,6.411,3.873
1782117388.871718,0.630000,1834630,1000,12,0,1,605.657,-16.148,8.072,475.801,2.783,3.891
1782117388.872718,0.631000,1834631,1000,12,0,1,608.155,-12.791,8.249,475.825,2.039,3.896
1782117388.873718,0.632000,1834632,1000,12,0,1,614.257,-4.267,8.260,475.321,2.038,3.904
1782117388.874718,0.633000,1834633,1000,12,0,1,621.943,3.013,8.270,470.181,-2.426,3.900
1782117388.875718,0.634000,1834634,1000,12,0,1,623.481,5.947,8.303,466.073,-5.936,3.989
1782117388.876718,0.635000,1834635,1000,12,0,1,618.532,0.583,8.230,469.580,-2.576,4.003
1782117388.877718,0.636000,1834636,1000,12,0,1,608.396,-7.559,8.167,469.340,-0.618,3.998
1782117388.878718,0.637000,1834637,1000,12,0,1,605.561,-10.529,8.227,469.916,-1.286,3.911
1782117388.879718,0.638000,1834638,1000,12,0,1,602.535,-9.643,8.265,473.183,2.287,3.819
1782117388.880718,0.639000,1834639,1000,12,0,1,597.298,-12.955,8.412,474.817,3.106,3.731
1782117388.881718,0.640000,1834640,1000,12,0,1,590.164,-16.146,8.696,475.273,2.629,3.649
1782117388.882718,0.641000,1834641,1000,12,0,1,586.609,-17.084,8.848,476.162,2.265,3.592
1782117388.883718,0.642000,1834642,1000,12,0,1,589.876,-11.156,8.558,477.315,2.186,3.547
1782117388.884718,0.643000,1834643,1000,12,0,1,595.641,-3.188,8.198,478.468,2.175,3.547
1782117388.885718,0.644000,1834644,1000,12,0,1,608.660,8.280,8.140,479.837,2.173,3.560
1782117388.886718,0.645000,1834645,1000,12,0,1,628.861,25.565,8.828,480.966,2.309,3.574
1782117388.887718,0.646000,1834646,1000,12,0,1,641.808,34.327,10.052,480.101,0.744,3.575
1782117388.888718,0.647000,1834647,1000,12,0,1,638.421,26.814,10.733,479.909,-0.288,3.574
1782117388.889718,0.648000,1834648,1000,12,0,1,635.515,17.240,10.929,480.317,-0.063,3.498
1782117388.890718,0.649000,1834649,1000,12,0,1,640.848,18.077,11.006,480.870,0.253,3.256
1782117388.891718,0.650000,1834650,1000,12,0,1,643.105,17.107,11.070,475.657,-3.446,3.004
1782117388.892718,0.651000,1834651,1000,12,0,1,638.566,9.816,10.947,472.583,-6.689,2.846
1782117388.893718,0.652000,1834652,1000,12,0,1,629.510,-0.332,10.917,474.528,-3.503,2.768
1782117388.894718,0.653000,1834653,1000,12,0,1,618.724,-10.529,11.017,474.985,-1.736,2.733
1782117388.895718,0.654000,1834654,1000,12,0,1,611.566,-15.950,11.218,475.729,-0.833,2.694
1782117388.896718,0.655000,1834655,1000,12,0,1,604.024,-19.308,11.515,474.312,-1.001,2.655
1782117388.897718,0.656000,1834656,1000,12,0,1,596.145,-23.017,11.952,472.511,-2.866,2.635
1782117388.898718,0.657000,1834657,1000,12,0,1,592.806,-22.035,12.349,475.417,-0.215,2.625
1782117388.899718,0.658000,1834658,1000,12,0,1,597.226,-14.367,12.507,474.769,0.090,2.624
1782117388.900718,0.659000,1834659,1000,12,0,1,612.551,1.404,12.494,474.120,-1.653,2.631
1782117388.901718,0.660000,1834660,1000,12,0,1,628.165,16.620,12.692,472.174,-2.780,2.635
1782117388.902718,0.661000,1834661,1000,12,0,1,627.804,15.245,12.872,470.709,-4.799,2.656
1782117388.903718,0.662000,1834662,1000,12,0,1,617.355,2.354,12.808,475.321,-0.926,2.648
1782117388.904718,0.663000,1834663,1000,12,0,1,613.104,-4.350,12.774,475.777,0.522,2.649
1782117388.905718,0.664000,1834664,1000,12,0,1,618.989,-0.302,12.774,476.522,-0.419,2.648
1782117388.906718,0.665000,1834665,1000,12,0,1,626.675,5.873,12.793,476.330,0.168,2.648
1782117388.907718,0.666000,1834666,1000,12,0,1,632.440,9.013,12.848,476.810,-0.438,2.629
1782117388.908718,0.667000,1834667,1000,12,0,1,636.380,10.154,12.923,478.107,1.236,2.608
1782117388.909718,0.668000,1834668,1000,12,0,1,639.502,10.242,12.935,478.468,1.433,2.616
1782117388.910718,0.669000,1834669,1000,12,0,1,638.205,7.308,12.944,477.891,1.096,2.614
1782117388.911718,0.670000,1834670,1000,12,0,1,635.851,2.989,12.942,476.522,0.181,2.614
1782117388.912718,0.671000,1834671,1000,12,0,1,631.047,-1.373,12.938,476.210,0.057,2.597
1782117388.913718,0.672000,1834672,1000,12,0,1,628.477,-4.226,12.951,475.057,0.017,2.558
1782117388.914718,0.673000,1834673,1000,12,0,1,634.674,1.646,12.953,471.982,-2.220,2.571
1782117388.915718,0.674000,1834674,1000,12,0,1,634.194,3.511,12.944,472.318,-1.577,2.577
1782117388.916718,0.675000,1834675,1000,12,0,1,626.651,-3.724,12.955,475.393,1.937,2.582
1782117388.917718,0.676000,1834676,1000,12,0,1,618.821,-9.521,12.991,476.690,3.471,2.627
1782117388.918718,0.677000,1834677,1000,12,0,1,616.923,-10.437,12.997,478.107,3.933,2.651
1782117388.919718,0.678000,1834678,1000,12,0,1,618.460,-6.767,12.994,474.480,0.976,2.512
1782117388.920718,0.679000,1834679,1000,12,0,1,627.828,1.317,12.971,471.910,-2.920,2.379
1782117388.921718,0.680000,1834680,1000,12,0,1,639.142,11.646,12.874,470.781,-3.350,2.393
1782117388.922718,0.681000,1834681,1000,12,0,1,638.806,9.901,12.823,474.576,-0.988,2.380
1782117388.923718,0.682000,1834682,1000,12,0,1,629.173,-1.805,12.812,475.393,0.816,2.365
1782117388.924718,0.683000,1834683,1000,12,0,1,621.127,-11.100,12.900,473.712,-1.878,2.355
1782117388.925718,0.684000,1834684,1000,12,0,1,616.635,-15.297,13.054,476.978,0.347,2.201
1782117388.926718,0.685000,1834685,1000,12,0,1,613.224,-17.182,13.278,478.155,1.990,2.189
1782117388.927718,0.686000,1834686,1000,12,0,1,608.179,-19.710,13.525,480.365,2.412,2.214
1782117388.928718,0.687000,1834687,1000,12,0,1,600.373,-23.657,13.853,480.558,3.210,2.252
1782117388.929718,0.688000,1834688,1000,12,0,1,600.541,-21.116,14.105,483.344,3.858,2.295
1782117388.930718,0.689000,1834689,1000,12,0,1,602.342,-14.092,14.127,483.128,4.631,2.346
1782117388.931718,0.690000,1834690,1000,12,0,1,601.502,-11.426,14.034,480.966,1.334,2.324
1782117388.932718,0.691000,1834691,1000,12,0,1,599.244,-9.382,13.888,482.695,2.695,2.333
1782117388.933718,0.692000,1834692,1000,12,0,1,591.845,-11.633,13.896,486.611,6.032,2.465
1782117388.934718,0.693000,1834693,1000,12,0,1,581.564,-16.558,14.085,486.419,5.778,2.578
1782117388.935718,0.694000,1834694,1000,12,0,1,573.037,-18.834,14.287,487.283,5.013,2.656
1782117388.936718,0.695000,1834695,1000,12,0,1,576.256,-11.522,13.917,482.143,0.951,2.639
1782117388.937718,0.696000,1834696,1000,12,0,1,585.047,2.162,13.047,482.071,-1.458,2.645
1782117388.938718,0.697000,1834697,1000,12,0,1,606.378,21.492,12.848,480.870,-0.999,2.649
1782117388.939718,0.698000,1834698,1000,12,0,1,622.111,37.386,13.678,478.564,-4.257,2.716
1782117388.940718,0.699000,1834699,1000,12,0,1,621.991,33.004,14.225,478.276,-4.235,2.781
1782117388.941718,0.700000,1834700,1000,12,0,1,620.742,26.255,14.501,481.687,-1.647,2.748
1782117388.942718,0.701000,1834701,1000,12,0,1,619.085,20.860,14.733,482.287,-0.755,2.583
1782117388.943718,0.702000,1834702,1000,12,0,1,618.148,15.245,14.889,485.073,0.188,2.535
1782117388.944718,0.703000,1834703,1000,12,0,1,619.709,13.421,14.936,483.392,-0.888,2.526
1782117388.945718,0.704000,1834704,1000,12,0,1,613.296,5.682,14.786,485.025,-1.592,2.533
1782117388.946718,0.705000,1834705,1000,12,0,1,606.690,-3.155,14.539,488.580,1.819,2.542
1782117388.947718,0.706000,1834706,1000,12,0,1,607.555,-3.123,14.177,492.616,4.112,2.576
1782117388.948718,0.707000,1834707,1000,12,0,1,607.699,-2.075,13.833,494.177,4.864,2.666
1782117388.949718,0.708000,1834708,1000,12,0,1,607.555,-2.412,13.687,495.042,4.149,2.730
1782117388.950718,0.709000,1834709,1000,12,0,1,607.147,-1.655,13.688,495.090,3.298,2.760
1782117388.951718,0.710000,1834710,1000,12,0,1,608.468,-0.308,13.485,493.264,1.161,2.737
1782117388.952718,0.711000,1834711,1000,12,0,1,617.163,7.473,13.353,488.653,-3.174,2.689
1782117388.953718,0.712000,1834712,1000,12,0,1,614.233,7.002,13.386,487.956,-3.990,2.744
1782117388.954718,0.713000,1834713,1000,12,0,1,608.131,-0.747,13.372,487.259,-3.251,2.782
1782117388.955718,0.714000,1834714,1000,12,0,1,603.615,-3.365,13.380,486.419,-3.580,2.827
1782117388.956718,0.715000,1834715,1000,12,0,1,599.580,-6.590,13.387,486.563,-2.683,2.852
1782117388.957718,0.716000,1834716,1000,12,0,1,601.742,-3.910,13.338,486.611,-2.003,2.865
1782117388.958718,0.717000,1834717,1000,12,0,1,605.825,1.047,13.261,486.371,-2.018,2.874
1782117388.959718,0.718000,1834718,1000,12,0,1,611.831,5.540,13.205,487.764,-0.827,2.869
1782117388.960718,0.719000,1834719,1000,12,0,1,615.169,8.252,13.216,486.082,-1.950,2.878
1782117388.961718,0.720000,1834720,1000,12,0,1,618.100,7.960,13.257,484.497,-4.130,2.937
1782117388.962718,0.721000,1834721,1000,12,0,1,619.950,7.928,13.303,485.650,-3.183,2.971
1782117388.963718,0.722000,1834722,1000,12,0,1,621.343,6.094,13.317,489.373,-0.250,2.971
1782117388.964718,0.723000,1834723,1000,12,0,1,629.438,10.070,13.391,492.448,2.141,2.970
1782117388.965718,0.724000,1834724,1000,12,0,1,631.720,10.779,13.469,492.496,1.401,2.968
1782117388.966718,0.725000,1834725,1000,12,0,1,620.838,-1.484,13.460,492.400,0.067,2.956
1782117388.967718,0.726000,1834726,1000,12,0,1,608.251,-14.383,13.546,495.090,1.652,2.924
1782117388.968718,0.727000,1834727,1000,12,0,1,598.667,-21.545,13.806,497.636,3.470,2.912
1782117388.969718,0.728000,1834728,1000,12,0,1,592.206,-24.270,14.194,501.215,5.502,3.011
1782117388.970718,0.729000,1834729,1000,12,0,1,591.581,-20.928,14.498,502.032,5.879,3.097
1782117388.971718,0.730000,1834730,1000,12,0,1,599.988,-9.753,14.470,497.804,1.340,3.066
1782117388.972718,0.731000,1834731,1000,12,0,1,605.753,-0.310,14.402,496.483,-0.860,3.065
1782117388.973718,0.732000,1834732,1000,12,0,1,611.230,5.058,14.418,496.531,-0.011,3.063
1782117388.974718,0.733000,1834733,1000,12,0,1,610.750,6.555,14.362,496.339,-0.172,3.052
1782117388.975718,0.734000,1834734,1000,12,0,1,604.744,0.594,14.198,495.811,-0.091,3.051
1782117388.976718,0.735000,1834735,1000,12,0,1,598.331,-4.561,14.004,497.756,1.291,3.044
1782117388.977718,0.736000,1834736,1000,12,0,1,599.340,-3.688,13.733,495.018,-0.079,3.025
1782117388.978718,0.737000,1834737,1000,12,0,1,600.084,-1.059,13.320,493.289,-2.887,3.018
1782117388.979718,0.738000,1834738,1000,12,0,1,603.231,1.032,12.982,493.000,-2.423,2.988
1782117388.980718,0.739000,1834739,1000,12,0,1,607.747,5.317,12.850,491.439,-3.964,2.969
1782117388.981718,0.740000,1834740,1000,12,0,1,608.468,5.208,12.770,488.989,-6.013,3.082
1782117388.982718,0.741000,1834741,1000,12,0,1,611.903,5.970,12.729,488.340,-6.612,3.199
1782117388.983718,0.742000,1834742,1000,12,0,1,613.992,7.328,12.664,487.403,-6.818,3.230
1782117388.984718,0.743000,1834743,1000,12,0,1,614.761,5.536,12.470,486.491,-7.312,3.292
1782117388.985718,0.744000,1834744,1000,12,0,1,618.172,7.103,12.224,487.476,-6.072,3.327
1782117388.986718,0.745000,1834745,1000,12,0,1,643.250,24.361,12.595,491.415,-2.157,3.338
1782117388.987718,0.746000,1834746,1000,12,0,1,643.250,27.084,13.161,491.415,-1.230,3.336
1782117388.988718,0.747000,1834747,1000,12,0,1,639.382,13.314,12.943,488.364,-4.019,3.382
1782117388.989718,0.748000,1834748,1000,12,0,1,628.597,5.171,11.837,488.917,-3.357,3.361
1782117388.990718,0.749000,1834749,1000,12,0,1,618.220,-8.778,10.948,487.307,-2.937,3.333
1782117388.991718,0.750000,1834750,1000,12,0,1,612.311,-11.698,10.431,486.130,-3.682,3.366
1782117388.992718,0.751000,1834751,1000,12,0,1,610.341,-12.354,10.157,488.893,0.207,3.364
1782117388.993718,0.752000,1834752,1000,12,0,1,615.506,-6.110,9.963,488.556,1.552,3.371
1782117388.994718,0.753000,1834753,1000,12,0,1,616.322,-2.064,9.785,486.563,0.263,3.369
1782117388.995718,0.754000,1834754,1000,12,0,1,615.986,-3.325,9.763,486.779,1.270,3.366
1782117388.996718,0.755000,1834755,1000,12,0,1,615.986,-1.525,9.755,487.307,2.639,3.377
1782117388.997718,0.756000,1834756,1000,12,0,1,617.259,-1.674,9.748,484.833,1.248,3.332
1782117388.998718,0.757000,1834757,1000,12,0,1,613.440,-3.573,9.757,486.010,1.769,3.269
1782117388.999718,0.758000,1834758,1000,12,0,1,608.131,-9.828,9.849,489.685,5.594,3.312
1782117389.000718,0.759000,1834759,1000,12,0,1,608.179,-9.260,9.933,491.199,6.398,3.402
1782117389.001718,0.760000,1834760,1000,12,0,1,609.308,-7.660,9.992,493.529,6.976,3.538
1782117389.002718,0.761000,1834761,1000,12,0,1,607.819,-8.380,10.007,494.321,6.701,3.635
1782117389.003718,0.762000,1834762,1000,12,0,1,603.688,-11.389,10.087,496.411,6.181,3.696
1782117389.004718,0.763000,1834763,1000,12,0,1,605.897,-9.516,10.176,494.922,4.181,3.715
1782117389.005718,0.764000,1834764,1000,12,0,1,607.219,-5.783,10.197,496.219,2.478,3.697
1782117389.006718,0.765000,1834765,1000,12,0,1,599.604,-11.106,10.275,494.730,1.404,3.682
1782117389.007718,0.766000,1834766,1000,12,0,1,591.197,-16.864,10.534,495.667,-0.139,3.672
1782117389.008718,0.767000,1834767,1000,12,0,1,592.710,-13.085,10.694,494.201,-0.521,3.661
1782117389.009718,0.768000,1834768,1000,12,0,1,602.871,-0.591,10.666,490.814,-4.435,3.713
1782117389.010718,0.769000,1834769,1000,12,0,1,608.396,7.485,10.655,491.655,-3.434,3.734
1782117389.011718,0.770000,1834770,1000,12,0,1,612.503,10.995,10.708,493.120,-0.941,3.691
1782117389.012718,0.771000,1834771,1000,12,0,1,614.185,13.307,10.815,489.926,-2.915,3.686
1782117389.013718,0.772000,1834772,1000,12,0,1,616.467,13.827,10.956,488.100,-4.115,3.732
1782117389.014718,0.773000,1834773,1000,12,0,1,616.274,13.550,11.031,486.154,-4.259,3.768
1782117389.015718,0.774000,1834774,1000,12,0,1,615.193,10.664,11.029,485.650,-3.815,3.801
1782117389.016718,0.775000,1834775,1000,12,0,1,614.016,8.698,11.095,484.713,-3.064,3.826
1782117389.017718,0.776000,1834776,1000,12,0,1,612.311,5.859,10.938,484.041,-2.887,3.840
1782117389.018718,0.777000,1834777,1000,12,0,1,613.056,4.990,10.529,481.158,-4.115,3.853
1782117389.019718,0.778000,1834778,1000,12,0,1,620.358,9.660,10.047,483.080,-2.622,3.792
1782117389.020718,0.779000,1834779,1000,12,0,1,632.777,18.186,9.940,483.824,-0.341,3.700
1782117389.021718,0.780000,1834780,1000,12,0,1,639.887,21.686,10.311,488.268,2.273,3.709
1782117389.022718,0.781000,1834781,1000,12,0,1,629.077,8.742,10.384,489.685,4.396,3.759
1782117389.023718,0.782000,1834782,1000,12,0,1,615.770,-7.865,10.419,493.937,5.538,3.839
1782117389.024718,0.783000,1834783,1000,12,0,1,619.853,-6.604,10.420,495.378,6.858,3.960
1782117389.025718,0.784000,1834784,1000,12,0,1,621.367,-3.127,10.429,495.907,4.708,4.016
1782117389.026718,0.785000,1834785,1000,12,0,1,612.551,-11.557,10.536,496.171,4.027,4.052
1782117389.027718,0.786000,1834786,1000,12,0,1,606.138,-16.736,10.786,497.708,3.807,4.087
1782117389.028718,0.787000,1834787,1000,12,0,1,606.738,-14.295,10.973,493.216,-0.032,4.067
1782117389.029718,0.788000,1834788,1000,12,0,1,615.121,-4.915,10.994,489.854,-4.254,4.097
1782117389.030718,0.789000,1834789,1000,12,0,1,622.952,4.251,10.985,487.788,-4.860,4.116
1782117389.031718,0.790000,1834790,1000,12,0,1,618.268,1.313,10.962,486.755,-4.889,4.086
1782117389.032718,0.791000,1834791,1000,12,0,1,605.465,-9.945,11.019,489.085,-1.790,3.986
1782117389.033718,0.792000,1834792,1000,12,0,1,592.086,-19.940,11.327,490.454,1.169,3.871
1782117389.034718,0.793000,1834793,1000,12,0,1,581.036,-26.126,11.889,491.919,2.424,3.746
1782117389.035718,0.794000,1834794,1000,12,0,1,580.411,-22.817,12.278,492.784,4.041,3.691
1782117389.036718,0.795000,1834795,1000,12,0,1,588.290,-10.796,11.883,491.151,2.284,3.692
1782117389.037718,0.796000,1834796,1000,12,0,1,596.313,-0.315,11.249,491.655,2.226,3.701
1782117389.038718,0.797000,1834797,1000,12,0,1,603.976,7.470,11.140,491.367,2.039,3.669
1782117389.039718,0.798000,1834798,1000,12,0,1,619.205,19.295,11.446,489.325,-0.402,3.639
1782117389.040718,0.799000,1834799,1000,12,0,1,634.242,30.728,12.180,489.733,-0.835,3.617
1782117389.041718,0.800000,1834800,1000,12,0,1,633.137,26.136,12.621,491.919,0.760,3.581
1782117389.042718,0.801000,1834801,1000,12,0,1,625.714,13.376,12.642,490.382,-0.845,3.582
1782117389.043718,0.802000,1834802,1000,12,0,1,623.192,7.329,12.655,492.904,-0.423,3.576
1782117389.044718,0.803000,1834803,1000,12,0,1,617.187,0.689,12.652,496.411,2.795,3.598
1782117389.045718,0.804000,1834804,1000,12,0,1,605.633,-10.391,12.728,498.261,3.006,3.618
1782117389.046718,0.805000,1834805,1000,12,0,1,593.887,-19.682,13.027,500.615,3.920,3.642
1782117389.047718,0.806000,1834806,1000,12,0,1,587.161,-22.836,13.419,499.222,2.110,3.649
1782117389.048718,0.807000,1834807,1000,12,0,1,589.563,-16.837,13.620,498.477,-0.102,3.641
1782117389.049718,0.808000,1834808,1000,12,0,1,590.740,-10.424,13.629,496.099,-1.602,3.561
1782117389.050718,0.809000,1834809,1000,12,0,1,598.019,-2.290,13.569,496.243,-2.291,3.459
1782117389.051718,0.810000,1834810,1000,12,0,1,609.597,10.917,13.614,497.084,-0.223,3.316
1782117389.052718,0.811000,1834811,1000,12,0,1,620.478,20.070,13.856,494.778,-1.799,3.188
1782117389.053718,0.812000,1834812,1000,12,0,1,627.108,24.431,14.189,490.934,-4.408,3.128
1782117389.054718,0.813000,1834813,1000,12,0,1,637.100,28.468,14.688,488.124,-5.887,3.183
1782117389.055718,0.814000,1834814,1000,12,0,1,634.962,24.310,15.063,486.851,-5.629,3.262
1782117389.056718,0.815000,1834815,1000,12,0,1,619.397,5.319,14.999,487.139,-3.992,3.305
1782117389.057718,0.816000,1834816,1000,12,0,1,607.363,-8.736,14.860,483.968,-5.109,3.383
1782117389.058718,0.817000,1834817,1000,12,0,1,598.307,-16.237,14.922,484.185,-4.885,3.452
1782117389.059718,0.818000,1834818,1000,12,0,1,590.981,-21.789,15.237,485.242,-2.340,3.410
1782117389.060718,0.819000,1834819,1000,12,0,1,586.441,-22.795,15.538,484.689,-2.662,3.397
1782117389.061718,0.820000,1834820,1000,12,0,1,586.945,-19.759,15.710,480.437,-5.632,3.486
1782117389.062718,0.821000,1834821,1000,12,0,1,582.333,-18.882,15.824,475.681,-9.669,3.722
1782117389.063718,0.822000,1834822,1000,12,0,1,586.441,-14.426,15.835,476.258,-8.487,3.867
1782117389.064718,0.823000,1834823,1000,12,0,1,597.010,-0.764,15.719,478.852,-4.506,3.873
1782117389.065718,0.824000,1834824,1000,12,0,1,600.733,4.182,15.658,482.888,-0.578,3.836
1782117389.066718,0.825000,1834825,1000,12,0,1,604.432,6.956,15.640,485.242,2.499,3.828
1782117389.067718,0.826000,1834826,1000,12,0,1,620.310,19.422,15.858,483.368,0.843,3.808
1782117389.068718,0.827000,1834827,1000,12,0,1,649.735,42.220,16.930,483.728,0.876,3.765
1782117389.069718,0.828000,1834828,1000,12,0,1,674.885,59.843,18.878,485.602,3.304,3.776
1782117389.070718,0.829000,1834829,1000,12,0,1,675.437,52.417,20.118,489.902,6.924,3.900
1782117389.071718,0.830000,1834830,1000,12,0,1,668.423,34.755,20.481,495.090,11.686,4.224
1782117389.072718,0.831000,1834831,1000,12,0,1,669.672,27.378,20.807,492.328,9.381,4.383
1782117389.073718,0.832000,1834832,1000,12,0,1,663.499,17.151,20.918,492.112,7.032,4.426
1782117389.074718,0.833000,1834833,1000,12,0,1,651.849,0.817,20.898,492.256,7.854,4.459
1782117389.075718,0.834000,1834834,1000,12,0,1,640.439,-11.417,20.955,492.496,6.706,4.510
1782117389.076718,0.835000,1834835,1000,12,0,1,640.055,-14.032,20.986,492.232,6.435,4.565
1782117389.077718,0.836000,1834836,1000,12,0,1,637.965,-13.383,20.937,490.790,4.181,4.572
1782117389.078718,0.837000,1834837,1000,12,0,1,626.940,-22.712,21.086,491.727,3.950,4.606
1782117389.079718,0.838000,1834838,1000,12,0,1,614.040,-32.236,21.562,494.345,5.519,4.633
1782117389.080718,0.839000,1834839,1000,12,0,1,604.336,-37.488,22.196,495.883,5.522,4.647
1782117389.081718,0.840000,1834840,1000,12,0,1,608.516,-30.706,22.616,494.249,2.816,4.613
1782117389.082718,0.841000,1834841,1000,12,0,1,611.951,-21.409,22.774,495.474,1.449,4.611
1782117389.083718,0.842000,1834842,1000,12,0,1,607.987,-22.480,22.821,497.588,2.540,4.622
1782117389.084718,0.843000,1834843,1000,12,0,1,605.753,-21.813,22.731,498.573,1.527,4.614
1782117389.085718,0.844000,1834844,1000,12,0,1,609.717,-16.024,22.614,498.045,-0.087,4.578
1782117389.086718,0.845000,1834845,1000,12,0,1,616.467,-7.529,22.588,497.276,-2.178,4.577
1782117389.087718,0.846000,1834846,1000,12,0,1,618.388,-4.004,22.595,495.570,-4.075,4.603
1782117389.088718,0.847000,1834847,1000,12,0,1,621.319,-1.684,22.571,497.468,-3.254,4.617
1782117389.089718,0.848000,1834848,1000,12,0,1,624.201,2.013,22.408,500.134,-0.331,4.617
1782117389.090718,0.849000,1834849,1000,12,0,1,620.070,-0.959,21.983,499.053,-1.170,4.618
1782117389.091718,0.850000,1834850,1000,12,0,1,608.540,-9.844,21.714,501.408,0.084,4.617
1782117389.092718,0.851000,1834851,1000,12,0,1,602.150,-14.216,21.725,501.720,1.569,4.621
1782117389.093718,0.852000,1834852,1000,12,0,1,608.468,-5.463,21.714,499.318,-1.146,4.623
1782117389.094718,0.853000,1834853,1000,12,0,1,614.064,3.799,21.721,496.507,-2.976,4.625
1782117389.095718,0.854000,1834854,1000,12,0,1,610.197,2.683,21.674,498.741,-1.332,4.610
1782117389.096718,0.855000,1834855,1000,12,0,1,605.105,-0.628,21.495,498.333,-0.017,4.576
1782117389.097718,0.856000,1834856,1000,12,0,1,598.691,-3.589,21.257,496.723,-2.145,4.576
1782117389.098718,0.857000,1834857,1000,12,0,1,596.145,-4.294,21.132,498.237,-0.655,4.577
1782117389.099718,0.858000,1834858,1000,12,0,1,601.982,2.994,21.085,500.495,1.275,4.575
1782117389.100718,0.859000,1834859,1000,12,0,1,609.428,11.167,21.141,499.510,0.077,4.564
1782117389.101718,0.860000,1834860,1000,12,0,1,618.124,17.760,21.234,498.621,-1.782,4.571
1782117389.102718,0.861000,1834861,1000,12,0,1,618.989,17.791,21.193,499.774,-1.486,4.568
1782117389.103718,0.862000,1834862,1000,12,0,1,611.782,8.190,20.942,500.783,-1.016,4.528
1782117389.104718,0.863000,1834863,1000,12,0,1,607.555,1.847,20.553,500.591,-1.995,4.460
1782117389.105718,0.864000,1834864,1000,12,0,1,601.430,-3.702,20.270,502.536,-1.166,4.391
1782117389.106718,0.865000,1834865,1000,12,0,1,600.373,-6.179,20.275,504.626,0.337,4.355
1782117389.107718,0.866000,1834866,1000,12,0,1,600.397,-4.422,20.247,505.251,0.268,4.295
1782117389.108718,0.867000,1834867,1000,12,0,1,597.658,-6.496,20.137,505.131,-0.401,4.239
1782117389.109718,0.868000,1834868,1000,12,0,1,604.144,-0.868,19.900,503.497,-1.856,4.234
1782117389.110718,0.869000,1834869,1000,12,0,1,623.408,16.282,19.772,496.003,-7.614,4.353
1782117389.111718,0.870000,1834870,1000,12,0,1,629.294,22.584,19.832,492.880,-10.352,4.523
1782117389.112718,0.871000,1834871,1000,12,0,1,618.724,10.159,19.704,493.072,-7.413,4.437
1782117389.113718,0.872000,1834872,1000,12,0,1,611.062,0.946,19.599,496.964,-2.806,4.290
1782117389.114718,0.873000,1834873,1000,12,0,1,610.101,0.466,19.599,500.255,2.242,4.254
1782117389.115718,0.874000,1834874,1000,12,0,1,600.709,-5.466,19.605,501.624,3.696,4.285
1782117389.116718,0.875000,1834875,1000,12,0,1,591.605,-12.997,19.666,500.735,3.259,4.296
1782117389.117718,0.876000,1834876,1000,12,0,1,597.250,-6.096,19.493,500.831,2.751,4.311
1782117389.118718,0.877000,1834877,1000,12,0,1,594.247,-3.530,18.562,501.480,3.182,4.333
1782117389.119718,0.878000,1834878,1000,12,0,1,593.743,-5.133,16.537,501.095,2.369,4.321
1782117389.120718,0.879000,1834879,1000,12,0,1,589.323,-4.705,14.797,500.182,0.751,4.210
1782117389.121718,0.880000,1834880,1000,12,0,1,590.740,-5.094,13.976,500.735,0.504,3.872
1782117389.122718,0.881000,1834881,1000,12,0,1,603.856,7.947,13.475,498.357,-1.736,3.646
1782117389.123718,0.882000,1834882,1000,12,0,1,612.671,15.494,13.435,502.993,0.421,3.509
1782117389.124718,0.883000,1834883,1000,12,0,1,618.028,16.643,13.639,504.674,2.992,3.355
1782117389.125718,0.884000,1834884,1000,12,0,1,615.410,12.215,13.653,505.179,1.187,3.222
1782117389.126718,0.885000,1834885,1000,12,0,1,613.776,5.640,13.532,504.410,0.577,3.092
1782117389.127718,0.886000,1834886,1000,12,0,1,617.427,7.081,13.436,502.585,-2.026,3.049
1782117389.128718,0.887000,1834887,1000,12,0,1,619.517,6.654,13.080,501.552,-2.906,3.025
1782117389.129718,0.888000,1834888,1000,12,0,1,627.732,10.812,12.355,499.486,-4.012,2.977
1782117389.130718,0.889000,1834889,1000,12,0,1,640.295,19.770,11.505,495.691,-6.607,3.021
1782117389.131718,0.890000,1834890,1000,12,0,1,640.607,18.068,10.956,496.483,-5.034,3.078
1782117389.132718,0.891000,1834891,1000,12,0,1,637.557,10.582,10.635,493.697,-4.893,3.149
1782117389.133718,0.892000,1834892,1000,12,0,1,634.122,6.012,10.184,490.142,-7.180,3.289
1782117389.134718,0.893000,1834893,1000,12,0,1,629.894,0.530,9.706,489.133,-6.003,3.390
1782117389.135718,0.894000,1834894,1000,12,0,1,629.462,-0.511,9.438,488.869,-4.295,3.444
1782117389.136718,0.895000,1834895,1000,12,0,1,623.889,-4.117,9.396,490.670,-1.479,3.436
1782117389.137718,0.896000,1834896,1000,12,0,1,622.376,-6.670,9.426,491.127,0.570,3.388
1782117389.138718,0.897000,1834897,1000,12,0,1,625.498,-2.264,9.429,490.718,0.278,3.357
1782117389.139718,0.898000,1834898,1000,12,0,1,624.513,-2.820,9.433,492.112,1.799,3.367
1782117389.140718,0.899000,1834899,1000,12,0,1,625.618,-2.851,9.441,492.328,2.075,3.375
1782117389.141718,0.900000,1834900,1000,12,0,1,629.894,0.393,9.337,493.793,2.581,3.395
1782117389.142718,0.901000,1834901,1000,12,0,1,631.648,0.746,9.119,496.003,4.144,3.438
1782117389.143718,0.902000,1834902,1000,12,0,1,631.335,-1.595,9.089,498.093,4.937,3.504
1782117389.144718,0.903000,1834903,1000,12,0,1,630.639,-4.202,9.093,501.191,6.429,3.596
1782117389.145718,0.904000,1834904,1000,12,0,1,624.417,-10.493,9.205,502.825,6.824,3.718
1782117389.146718,0.905000,1834905,1000,12,0,1,617.908,-17.594,9.535,503.185,5.572,3.801
1782117389.147718,0.906000,1834906,1000,12,0,1,624.153,-12.564,9.686,498.741,1.254,3.793
1782117389.148718,0.907000,1834907,1000,12,0,1,635.851,-0.851,9.668,495.546,-2.844,3.813
1782117389.149718,0.908000,1834908,1000,12,0,1,637.100,0.836,9.659,497.252,-0.814,3.811
1782117389.150718,0.909000,1834909,1000,12,0,1,633.930,-3.501,9.542,496.940,0.043,3.811
1782117389.151718,0.910000,1834910,1000,12,0,1,629.173,-7.018,9.259,495.811,-0.770,3.804
1782117389.152718,0.911000,1834911,1000,12,0,1,620.238,-13.501,9.113,498.717,2.218,3.811
1782117389.153718,0.912000,1834912,1000,12,0,1,612.359,-18.165,9.397,499.102,3.671,3.843
1782117389.154718,0.913000,1834913,1000,12,0,1,607.675,-18.250,9.741,500.375,4.017,3.875
1782117389.155718,0.914000,1834914,1000,12,0,1,619.901,-5.253,9.755,498.981,3.521,3.903
1782117389.156718,0.915000,1834915,1000,12,0,1,630.735,9.796,9.814,495.595,-0.302,3.903
1782117389.157718,0.916000,1834916,1000,12,0,1,631.576,10.389,9.904,493.481,-2.141,3.915
1782117389.158718,0.917000,1834917,1000,12,0,1,626.123,5.784,9.895,493.385,-2.240,3.927
1782117389.159718,0.918000,1834918,1000,12,0,1,623.024,1.656,9.897,495.474,-0.476,3.919
1782117389.160718,0.919000,1834919,1000,12,0,1,618.773,-1.228,9.627,496.219,0.315,3.768
1782117389.161718,0.920000,1834920,1000,12,0,1,615.097,-4.994,9.110,497.973,0.651,3.474
1782117389.162718,0.921000,1834921,1000,12,0,1,614.593,-5.086,9.024,499.486,1.696,3.320
1782117389.163718,0.922000,1834922,1000,12,0,1,614.593,-4.519,9.046,502.777,2.905,3.322
1782117389.164718,0.923000,1834923,1000,12,0,1,610.029,-8.018,9.116,502.729,2.663,3.328
1782117389.165718,0.924000,1834924,1000,12,0,1,609.669,-8.816,9.169,499.966,-1.393,3.293
1782117389.166718,0.925000,1834925,1000,12,0,1,618.028,-1.116,8.984,499.606,-2.346,3.277
1782117389.167718,0.926000,1834926,1000,12,0,1,618.508,1.114,8.944,500.855,-1.210,3.259
1782117389.168718,0.927000,1834927,1000,12,0,1,613.824,-4.457,8.952,502.128,-0.027,3.227
1782117389.169718,0.928000,1834928,1000,12,0,1,610.317,-6.589,8.971,503.425,1.264,3.215
1782117389.170718,0.929000,1834929,1000,12,0,1,602.631,-11.487,9.093,506.428,3.621,3.254
1782117389.171718,0.930000,1834930,1000,12,0,1,591.701,-18.394,9.430,505.347,3.379,3.288
1782117389.172718,0.931000,1834931,1000,12,0,1,587.594,-18.690,9.729,507.389,3.648,3.319
1782117389.173718,0.932000,1834932,1000,12,0,1,597.562,-5.805,9.514,506.116,3.829,3.362
1782117389.174718,0.933000,1834933,1000,12,0,1,610.029,9.833,9.323,501.816,-1.084,3.339
1782117389.175718,0.934000,1834934,1000,12,0,1,619.253,18.965,9.546,500.206,-2.281,3.351
1782117389.176718,0.935000,1834935,1000,12,0,1,623.024,22.287,10.021,499.894,-2.093,3.363
1782117389.177718,0.936000,1834936,1000,12,0,1,622.280,19.630,10.350,498.693,-2.754,3.373
1782117389.178718,0.937000,1834937,1000,12,0,1,616.443,13.036,10.471,503.017,0.443,3.348
1782117389.179718,0.938000,1834938,1000,12,0,1,607.675,3.657,10.372,507.196,4.507,3.361
1782117389.180718,0.939000,1834939,1000,12,0,1,612.984,5.844,10.022,507.052,3.219,3.260
1782117389.181718,0.940000,1834940,1000,12,0,1,630.879,21.057,10.138,500.543,-3.298,3.216
1782117389.182718,0.941000,1834941,1000,12,0,1,635.443,23.865,10.579,496.459,-8.415,3.358
1782117389.183718,0.942000,1834942,1000,12,0,1,630.495,13.917,10.727,497.396,-7.176,3.358
1782117389.184718,0.943000,1834943,1000,12,0,1,630.687,9.580,10.812,495.643,-7.535,3.419
1782117389.185718,0.944000,1834944,1000,12,0,1,629.918,6.423,10.850,495.282,-7.997,3.550
1782117389.186718,0.945000,1834945,1000,12,0,1,623.721,-1.672,10.837,500.783,-2.281,3.558
1782117389.187718,0.946000,1834946,1000,12,0,1,615.602,-10.281,10.893,502.777,0.728,3.559
1782117389.188718,0.947000,1834947,1000,12,0,1,607.675,-17.090,11.154,506.932,3.357,3.590
1782117389.189718,0.948000,1834948,1000,12,0,1,602.871,-19.801,11.493,509.214,6.177,3.686
1782117389.190718,0.949000,1834949,1000,12,0,1,607.723,-13.615,11.646,509.262,5.045,3.743
1782117389.191718,0.950000,1834950,1000,12,0,1,615.602,-3.407,11.656,506.908,3.042,3.750
1782117389.192718,0.951000,1834951,1000,12,0,1,622.063,3.379,11.665,511.064,5.145,3.775
1782117389.193718,0.952000,1834952,1000,12,0,1,619.037,2.326,11.668,514.307,8.936,3.919
1782117389.194718,0.953000,1834953,1000,12,0,1,611.927,-4.522,11.670,515.988,8.662,4.004
1782117389.195718,0.954000,1834954,1000,12,0,1,608.828,-6.253,11.609,516.276,8.135,4.053
1782117389.196718,0.955000,1834955,1000,12,0,1,621.367,4.549,11.358,513.058,4.081,4.017
1782117389.197718,0.956000,1834956,1000,12,0,1,633.737,17.485,11.487,512.457,1.719,4.021
1782117389.198718,0.957000,1834957,1000,12,0,1,632.897,15.032,11.682,509.502,-0.537,4.001
1782117389.199718,0.958000,1834958,1000,12,0,1,635.059,12.657,11.817,499.342,-9.918,4.238
1782117389.200718,0.959000,1834959,1000,12,0,1,636.115,12.349,11.935,491.871,-16.420,4.833
1782117389.201718,0.960000,1834960,1000,12,0,1,633.521,6.443,11.929,493.553,-13.680,5.204
1782117389.202718,0.961000,1834961,1000,12,0,1,631.768,2.754,11.782,497.973,-7.427,5.300
1782117389.203718,0.962000,1834962,1000,12,0,1,630.038,-0.724,11.498,502.248,-2.970,5.291
1782117389.204718,0.963000,1834963,1000,12,0,1,630.711,-1.748,11.208,503.689,-0.978,5.263
1782117389.205718,0.964000,1834964,1000,12,0,1,628.213,-4.169,11.199,508.974,2.306,5.249
1782117389.206718,0.965000,1834965,1000,12,0,1,626.459,-7.145,11.159,514.835,7.508,5.355
1782117389.207718,0.966000,1834966,1000,12,0,1,622.760,-9.376,11.141,520.240,10.199,5.538
1782117389.208718,0.967000,1834967,1000,12,0,1,620.526,-11.583,11.231,518.750,8.072,5.645
1782117389.209718,0.968000,1834968,1000,12,0,1,612.239,-15.875,11.450,518.871,4.995,5.689
1782117389.210718,0.969000,1834969,1000,12,0,1,614.305,-14.553,11.633,513.826,1.098,5.691
1782117389.211718,0.970000,1834970,1000,12,0,1,628.453,1.107,11.612,498.405,-12.634,5.964
1782117389.212718,0.971000,1834971,1000,12,0,1,631.648,6.223,11.623,491.247,-18.824,6.527
1782117389.213718,0.972000,1834972,1000,12,0,1,619.998,-4.307,11.622,502.729,-6.082,6.571
1782117389.214718,0.973000,1834973,1000,12,0,1,613.992,-10.357,11.659,510.247,4.630,6.592
1782117389.215718,0.974000,1834974,1000,12,0,1,623.216,-1.270,11.593,500.903,-2.246,6.597
1782117389.216718,0.975000,1834975,1000,12,0,1,625.330,3.957,11.606,493.409,-9.649,6.729
1782117389.217718,0.976000,1834976,1000,12,0,1,617.932,-3.426,11.615,496.796,-4.791,6.760
1782117389.218718,0.977000,1834977,1000,12,0,1,608.588,-10.512,11.692,497.540,-1.675,6.765
1782117389.219718,0.978000,1834978,1000,12,0,1,616.082,-4.950,11.676,490.718,-6.535,6.825
1782117389.220718,0.979000,1834979,1000,12,0,1,631.744,11.524,11.677,483.008,-12.483,7.031
1782117389.221718,0.980000,1834980,1000,12,0,1,631.119,11.293,11.495,479.741,-13.574,7.273
1782117389.222718,0.981000,1834981,1000,12,0,1,629.678,6.019,11.219,480.389,-10.668,7.410
1782117389.223718,0.982000,1834982,1000,12,0,1,630.903,6.617,11.228,483.248,-6.096,7.440
1782117389.224718,0.983000,1834983,1000,12,0,1,630.350,4.103,11.157,484.641,-3.096,7.451
1782117389.225718,0.984000,1834984,1000,12,0,1,630.278,2.934,10.838,486.707,-0.773,7.445
1782117389.226718,0.985000,1834985,1000,12,0,1,631.071,2.408,10.375,489.950,2.780,7.450
1782117389.227718,0.986000,1834986,1000,12,0,1,627.684,-0.657,9.997,489.085,2.691,7.449
1782117389.228718,0.987000,1834987,1000,12,0,1,626.051,-3.311,9.837,489.950,2.748,7.459
1782117389.229718,0.988000,1834988,1000,12,0,1,625.138,-3.181,9.833,488.532,2.866,7.443
1782117389.230718,0.989000,1834989,1000,12,0,1,623.553,-4.261,9.817,489.325,2.912,7.440
1782117389.231718,0.990000,1834990,1000,12,0,1,624.946,-2.535,9.361,492.232,6.740,7.486
1782117389.232718,0.991000,1834991,1000,12,0,1,625.907,-0.425,8.732,495.570,9.616,7.515
1782117389.233718,0.992000,1834992,1000,12,0,1,627.468,0.868,8.508,497.276,11.368,7.618
1782117389.234718,0.993000,1834993,1000,12,0,1,625.594,0.372,8.400,498.141,11.392,7.713
1782117389.235718,0.994000,1834994,1000,12,0,1,623.408,-2.162,8.356,497.973,10.691,7.778
1782117389.236718,0.995000,1834995,1000,12,0,1,623.505,-1.378,8.355,496.267,8.503,7.864
1782117389.237718,0.996000,1834996,1000,12,0,1,624.489,-0.309,8.228,498.069,8.639,7.958
1782117389.238718,0.997000,1834997,1000,12,0,1,620.358,-2.975,7.876,499.894,10.005,8.069
1782117389.239718,0.998000,1834998,1000,12,0,1,613.920,-8.715,7.464,500.855,8.955,8.121
1782117389.240718,0.999000,1834999,1000,12,0,1,614.641,-7.736,7.294,500.663,7.512,8.159
1782117389.241718,1.000000,1835000,1000,12,0,1,613.992,-5.867,7.325,499.966,4.803,8.176
1782117389.242718,1.001000,1835001,1000,12,0,1,606.354,-11.479,7.487,504.002,6.117,8.189
1782117389.243718,1.002000,1835002,1000,12,0,1,599.532,-16.071,7.818,508.902,8.859,8.187
1782117389.244718,1.003000,1835003,1000,12,0,1,605.729,-9.356,7.903,506.212,4.601,8.121
1782117389.245718,1.004000,1835004,1000,12,0,1,614.233,1.594,7.857,495.306,-6.891,8.098
1782117389.246718,1.005000,1835005,1000,12,0,1,612.863,1.567,7.834,493.048,-11.203,8.231
1782117389.247718,1.006000,1835006,1000,12,0,1,609.477,-1.716,7.437,492.184,-9.771,8.343
1782117389.248718,1.007000,1835007,1000,12,0,1,610.365,-0.316,7.127,491.775,-10.294,8.469
1782117389.249718,1.008000,1835008,1000,12,0,1,615.386,4.633,6.929,492.087,-8.126,8.431
1782117389.250718,1.009000,1835009,1000,12,0,1,622.231,10.973,6.883,490.286,-8.456,8.192
1782117389.251718,1.010000,1835010,1000,12,0,1,623.072,11.707,7.020,491.847,-6.188,8.008
1782117389.252718,1.011000,1835011,1000,12,0,1,611.782,1.559,7.013,500.255,2.370,7.946
1782117389.253718,1.012000,1835012,1000,12,0,1,593.839,-14.132,7.292,505.131,7.938,8.014
1782117389.254718,1.013000,1835013,1000,12,0,1,583.822,-21.275,7.884,508.950,9.969,8.136
1782117389.255718,1.014000,1835014,1000,12,0,1,575.007,-23.256,8.522,509.430,9.984,8.251
1782117389.256718,1.015000,1835015,1000,12,0,1,578.274,-17.443,8.814,509.214,7.741,8.256
1782117389.257718,1.016000,1835016,1000,12,0,1,605.777,10.217,8.833,501.816,1.296,8.131
1782117389.258718,1.017000,1835017,1000,12,0,1,633.329,36.978,10.133,492.520,-8.267,8.135
1782117389.259718,1.018000,1835018,1000,12,0,1,638.373,38.673,11.294,491.679,-8.757,8.198
1782117389.260718,1.019000,1835019,1000,12,0,1,645.748,36.376,12.239,491.919,-6.396,8.246
1782117389.261718,1.020000,1835020,1000,12,0,1,644.595,31.854,13.040,494.321,-4.297,8.073
1782117389.262718,1.021000,1835021,1000,12,0,1,637.340,17.359,13.240,496.027,-1.342,7.624
1782117389.263718,1.022000,1835022,1000,12,0,1,638.926,13.669,13.367,499.390,0.550,7.576
1782117389.264718,1.023000,1835023,1000,12,0,1,644.306,14.905,13.452,499.222,1.144,7.549
1782117389.265718,1.024000,1835024,1000,12,0,1,642.169,9.957,13.525,498.981,-0.849,7.543
1782117389.266718,1.025000,1835025,1000,12,0,1,638.301,2.763,13.519,502.152,1.589,7.422
1782117389.267718,1.026000,1835026,1000,12,0,1,636.932,-0.614,13.510,504.506,3.096,7.404
1782117389.268718,1.027000,1835027,1000,12,0,1,636.260,-2.159,13.432,506.524,3.636,7.418
1782117389.269718,1.028000,1835028,1000,12,0,1,634.770,-4.257,13.427,505.131,2.105,7.367
1782117389.270718,1.029000,1835029,1000,12,0,1,633.809,-5.259,13.349,504.386,-0.073,7.152
1782117389.271718,1.030000,1835030,1000,12,0,1,629.125,-8.755,13.310,505.107,0.791,6.890
1782117389.272718,1.031000,1835031,1000,12,0,1,622.496,-14.006,13.430,504.939,0.433,6.723
1782117389.273718,1.032000,1835032,1000,12,0,1,617.163,-17.182,13.616,507.341,2.283,6.676
1782117389.274718,1.033000,1835033,1000,12,0,1,616.106,-16.144,13.794,511.040,5.631,6.709
1782117389.275718,1.034000,1835034,1000,12,0,1,615.914,-13.628,13.922,514.042,7.671,6.795
1782117389.276718,1.035000,1835035,1000,12,0,1,624.201,-5.783,13.941,513.778,6.830,6.852
1782117389.277718,1.036000,1835036,1000,12,0,1,635.947,6.025,13.967,509.647,2.173,6.848
1782117389.278718,1.037000,1835037,1000,12,0,1,639.935,8.826,14.015,508.950,0.222,6.837
1782117389.279718,1.038000,1835038,1000,12,0,1,635.731,2.978,14.014,509.935,1.197,6.828
1782117389.280718,1.039000,1835039,1000,12,0,1,628.597,-5.207,14.021,508.830,-0.272,6.815
1782117389.281718,1.040000,1835040,1000,12,0,1,627.924,-7.448,14.055,508.253,-1.552,6.752
1782117389.282718,1.041000,1835041,1000,12,0,1,632.056,-3.318,14.063,510.391,-0.355,6.614
1782117389.283718,1.042000,1835042,1000,12,0,1,635.059,-0.815,14.063,507.461,-2.698,6.427
1782117389.284718,1.043000,1835043,1000,12,0,1,624.081,-8.939,14.120,510.127,-2.639,6.233
1782117389.285718,1.044000,1835044,1000,12,0,1,619.325,-15.089,14.277,511.905,-0.044,6.046
1782117389.286718,1.045000,1835045,1000,12,0,1,629.750,-3.484,14.284,508.470,-4.338,5.957
1782117389.287718,1.046000,1835046,1000,12,0,1,625.354,-3.241,14.291,512.649,-2.174,5.839
1782117389.288718,1.047000,1835047,1000,12,0,1,621.030,-8.659,14.337,517.621,2.903,5.680
1782117389.289718,1.048000,1835048,1000,12,0,1,638.037,7.297,14.322,511.688,-2.653,5.549
1782117389.290718,1.049000,1835049,1000,12,0,1,643.274,15.315,14.443,507.917,-7.508,5.549
1782117389.291718,1.050000,1835050,1000,12,0,1,640.775,9.620,14.483,507.461,-6.633,5.587
1782117389.292718,1.051000,1835051,1000,12,0,1,639.622,8.077,14.437,506.380,-6.600,5.598
1782117389.293718,1.052000,1835052,1000,12,0,1,642.769,8.574,14.309,507.100,-4.957,5.501
1782117389.294718,1.053000,1835053,1000,12,0,1,644.547,9.719,14.314,507.581,-2.920,5.478
1782117389.295718,1.054000,1835054,1000,12,0,1,638.229,2.770,14.317,510.704,0.144,5.390
1782117389.296718,1.055000,1835055,1000,12,0,1,634.866,-2.637,14.320,511.136,2.140,5.161
1782117389.297718,1.056000,1835056,1000,12,0,1,629.894,-6.026,14.344,510.151,0.770,4.974
1782117389.298718,1.057000,1835057,1000,12,0,1,628.405,-8.820,14.398,512.649,3.044,4.775
1782117389.299718,1.058000,1835058,1000,12,0,1,633.641,-3.233,14.390,512.433,3.278,4.658
1782117389.300718,1.059000,1835059,1000,12,0,1,630.687,-4.663,14.321,510.151,0.444,4.502
1782117389.301718,1.060000,1835060,1000,12,0,1,623.673,-11.510,14.318,510.511,0.262,4.417
1782117389.302718,1.061000,1835061,1000,12,0,1,625.811,-9.501,14.379,510.872,0.499,4.405
1782117389.303718,1.062000,1835062,1000,12,0,1,624.033,-8.190,14.287,514.018,2.178,4.270
1782117389.304718,1.063000,1835063,1000,12,0,1,619.541,-11.871,14.067,519.639,6.415,4.132
1782117389.305718,1.064000,1835064,1000,12,0,1,617.187,-11.751,13.778,523.627,8.509,4.065
1782117389.306718,1.065000,1835065,1000,12,0,1,620.478,-7.367,13.595,525.164,7.776,4.066
1782117389.307718,1.066000,1835066,1000,12,0,1,630.927,3.487,13.527,524.972,5.495,4.136
1782117389.308718,1.067000,1835067,1000,12,0,1,637.989,11.208,12.575,521.969,1.234,3.971
1782117389.309718,1.068000,1835068,1000,12,0,1,636.764,9.418,11.402,519.255,-2.595,3.791
1782117389.310718,1.069000,1835069,1000,12,0,1,631.696,4.092,10.192,519.783,-2.664,3.701
1782117389.311718,1.070000,1835070,1000,12,0,1,624.393,-2.440,9.149,524.828,1.441,3.656
1782117389.312718,1.071000,1835071,1000,12,0,1,622.712,-3.977,8.831,521.561,-0.178,3.651
1782117389.313718,1.072000,1835072,1000,12,0,1,619.637,-4.211,8.638,519.039,-4.161,3.697
1782117389.314718,1.073000,1835073,1000,12,0,1,613.464,-8.560,8.463,521.753,-0.820,3.696
1782117389.315718,1.074000,1835074,1000,12,0,1,609.837,-9.930,8.463,526.725,3.489,3.727
1782117389.316718,1.075000,1835075,1000,12,0,1,610.557,-7.178,8.515,528.167,5.062,3.788
1782117389.317718,1.076000,1835076,1000,12,0,1,617.884,0.618,8.515,525.044,1.480,3.769
1782117389.318718,1.077000,1835077,1000,12,0,1,619.205,4.154,8.529,523.002,-1.379,3.738
1782117389.319718,1.078000,1835078,1000,12,0,1,613.032,-1.821,8.512,520.360,-3.343,3.756
1782117389.320718,1.079000,1835079,1000,12,0,1,610.221,-4.400,8.502,513.994,-8.807,3.957
1782117389.321718,1.080000,1835080,1000,12,0,1,627.804,9.466,8.517,500.927,-18.593,4.750
1782117389.322718,1.081000,1835081,1000,12,0,1,648.102,28.331,9.202,488.244,-28.200,6.202
1782117389.323718,1.082000,1835082,1000,12,0,1,647.093,24.750,9.541,490.838,-23.164,7.007
1782117389.324718,1.083000,1835083,1000,12,0,1,637.605,10.717,9.387,495.763,-13.325,7.212
1782117389.325718,1.084000,1835084,1000,12,0,1,630.278,1.647,9.190,496.699,-10.118,7.272
1782117389.326718,1.085000,1835085,1000,12,0,1,626.819,-2.983,9.163,502.777,-3.384,7.223
1782117389.327718,1.086000,1835086,1000,12,0,1,627.852,-1.929,9.127,506.884,2.365,7.224
1782117389.328718,1.087000,1835087,1000,12,0,1,629.462,0.021,9.041,507.124,2.398,7.232
1782117389.329718,1.088000,1835088,1000,12,0,1,631.696,2.116,9.037,503.017,-0.471,7.231
1782117389.330718,1.089000,1835089,1000,12,0,1,633.209,3.751,9.022,501.528,-2.302,7.238
1782117389.331718,1.090000,1835090,1000,12,0,1,631.239,2.108,8.965,502.344,0.005,7.235
1782117389.332718,1.091000,1835091,1000,12,0,1,626.123,-2.337,8.959,502.729,1.183,7.236
1782117389.333718,1.092000,1835092,1000,12,0,1,622.111,-5.646,8.994,503.137,2.540,7.235
1782117389.334718,1.093000,1835093,1000,12,0,1,617.283,-8.345,8.983,503.497,3.760,7.245
1782117389.335718,1.094000,1835094,1000,12,0,1,612.335,-11.464,8.875,502.464,3.714,7.264
1782117389.336718,1.095000,1835095,1000,12,0,1,607.435,-13.559,9.066,503.065,4.636,7.268
1782117389.337718,1.096000,1835096,1000,12,0,1,607.122,-12.281,9.220,504.626,6.712,7.323
1782117389.338718,1.097000,1835097,1000,12,0,1,612.599,-5.420,9.170,501.576,4.833,7.343
1782117389.339718,1.098000,1835098,1000,12,0,1,617.043,0.062,9.112,497.420,0.849,7.335
1782117389.340718,1.099000,1835099,1000,12,0,1,611.662,-3.679,8.866,501.408,4.150,7.281
1782117389.341718,1.100000,1835100,1000,12,0,1,604.937,-10.195,8.879,504.650,8.118,7.311
1782117389.342718,1.101000,1835101,1000,12,0,1,607.747,-7.195,8.864,506.332,8.208,7.344
1782117389.343718,1.102000,1835102,1000,12,0,1,617.523,2.674,8.788,506.812,7.857,7.394
1782117389.344718,1.103000,1835103,1000,12,0,1,618.124,4.733,8.706,505.539,5.159,7.419
1782117389.345718,1.104000,1835104,1000,12,0,1,613.560,-0.506,8.697,505.587,3.651,7.437
1782117389.346718,1.105000,1835105,1000,12,0,1,609.549,-3.457,8.703,510.752,6.564,7.488
1782117389.347718,1.106000,1835106,1000,12,0,1,607.387,-4.486,8.685,516.156,10.157,7.624
1782117389.348718,1.107000,1835107,1000,12,0,1,612.431,0.867,8.595,518.078,9.774,7.736
1782117389.349718,1.108000,1835108,1000,12,0,1,617.595,7.562,8.650,517.477,6.890,7.784
1782117389.350718,1.109000,1835109,1000,12,0,1,616.154,6.817,8.678,518.270,5.343,7.820
1782117389.351718,1.110000,1835110,1000,12,0,1,619.998,9.136,8.621,518.342,4.188,7.842
1782117389.352718,1.111000,1835111,1000,12,0,1,634.170,20.905,9.015,515.291,0.498,7.842
1782117389.353718,1.112000,1835112,1000,12,0,1,640.103,25.834,9.658,511.472,-3.553,7.852
1782117389.354718,1.113000,1835113,1000,12,0,1,643.153,23.479,10.074,510.151,-4.582,7.826
1782117389.355718,1.114000,1835114,1000,12,0,1,646.709,23.382,10.471,507.677,-5.527,7.773
1782117389.356718,1.115000,1835115,1000,12,0,1,649.807,21.259,10.845,506.740,-5.803,7.738
1782117389.357718,1.116000,1835116,1000,12,0,1,644.210,13.253,10.994,505.995,-4.780,7.729
1782117389.358718,1.117000,1835117,1000,12,0,1,637.965,2.729,10.886,506.524,-3.650,7.744
1782117389.359718,1.118000,1835118,1000,12,0,1,632.080,-4.012,10.819,509.382,-0.279,7.735
1782117389.360718,1.119000,1835119,1000,12,0,1,623.625,-12.605,10.950,511.544,2.059,7.732
1782117389.361718,1.120000,1835120,1000,12,0,1,613.704,-20.971,11.339,514.114,3.567,7.746
1782117389.362718,1.121000,1835121,1000,12,0,1,609.236,-23.692,11.811,515.820,4.486,7.771
1782117389.363718,1.122000,1835122,1000,12,0,1,625.618,-8.853,11.862,514.114,1.759,7.753
1782117389.364718,1.123000,1835123,1000,12,0,1,633.689,3.162,11.808,514.066,-0.000,7.752
1782117389.365718,1.124000,1835124,1000,12,0,1,633.978,0.371,11.725,514.955,0.054,7.737
1782117389.366718,1.125000,1835125,1000,12,0,1,629.558,-2.604,11.686,513.418,-2.101,7.709
1782117389.367718,1.126000,1835126,1000,12,0,1,626.579,-7.126,11.729,514.331,-2.574,7.715
1782117389.368718,1.127000,1835127,1000,12,0,1,629.246,-3.953,11.728,514.835,-1.924,7.717
1782117389.369718,1.128000,1835128,1000,12,0,1,628.525,-3.336,11.735,515.628,-2.069,7.708
1782117389.370718,1.129000,1835129,1000,12,0,1,628.020,-4.144,11.733,517.477,-0.363,7.607
1782117389.371718,1.130000,1835130,1000,12,0,1,627.132,-3.305,11.666,515.147,-2.036,7.144
1782117389.372718,1.131000,1835131,1000,12,0,1,622.183,-6.944,11.000,516.661,-1.626,5.932
1782117389.373718,1.132000,1835132,1000,12,0,1,616.346,-10.519,10.534,517.862,0.909,4.947
1782117389.374718,1.133000,1835133,1000,12,0,1,613.920,-11.094,10.542,518.510,0.976,4.576
1782117389.375718,1.134000,1835134,1000,12,0,1,616.467,-6.499,10.579,519.735,2.610,4.362
1782117389.376718,1.135000,1835135,1000,12,0,1,623.096,0.885,10.571,516.901,0.505,4.336
1782117389.377718,1.136000,1835136,1000,12,0,1,624.634,3.984,10.583,516.781,-0.333,4.324
1782117389.378718,1.137000,1835137,1000,12,0,1,619.974,-0.415,10.583,517.333,1.163,4.313
1782117389.379718,1.138000,1835138,1000,12,0,1,618.124,-2.497,10.585,517.237,0.622,4.314
1782117389.380718,1.139000,1835139,1000,12,0,1,613.320,-5.210,10.597,518.871,1.910,4.310
1782117389.381718,1.140000,1835140,1000,12,0,1,605.945,-11.315,10.713,521.441,3.557,4.339
1782117389.382718,1.141000,1835141,1000,12,0,1,601.358,-13.599,10.879,524.107,4.900,4.391
1782117389.383718,1.142000,1835142,1000,12,0,1,600.373,-12.240,10.987,523.146,3.078,4.398
1782117389.384718,1.143000,1835143,1000,12,0,1,601.598,-8.582,10.991,525.813,2.853,4.384
1782117389.385718,1.144000,1835144,1000,12,0,1,614.233,3.107,10.879,523.146,0.713,4.354
1782117389.386718,1.145000,1835145,1000,12,0,1,632.560,20.400,11.091,515.436,-8.015,4.451
1782117389.387718,1.146000,1835146,1000,12,0,1,628.693,17.618,11.234,515.916,-8.412,4.508
1782117389.388718,1.147000,1835147,1000,12,0,1,615.626,1.751,11.210,520.048,-3.612,4.485
1782117389.389718,1.148000,1835148,1000,12,0,1,610.629,-3.172,11.219,522.954,-1.036,4.486
1782117389.390718,1.149000,1835149,1000,12,0,1,618.364,3.302,11.217,523.579,-0.229,4.448
1782117389.391718,1.150000,1835150,1000,12,0,1,614.545,3.479,11.135,525.476,0.654,4.298
1782117389.392718,1.151000,1835151,1000,12,0,1,609.236,-3.315,11.098,526.437,1.941,4.147
1782117389.393718,1.152000,1835152,1000,12,0,1,618.388,5.484,11.119,526.869,1.667,4.003
1782117389.394718,1.153000,1835153,1000,12,0,1,621.775,10.706,11.201,528.551,3.043,3.959
1782117389.395718,1.154000,1835154,1000,12,0,1,612.551,1.780,11.204,535.997,8.469,4.104
1782117389.396718,1.155000,1835155,1000,12,0,1,596.553,-11.525,11.311,544.284,15.223,4.540
1782117389.397718,1.156000,1835156,1000,12,0,1,595.809,-12.948,11.441,548.176,16.425,4.894
1782117389.398718,1.157000,1835157,1000,12,0,1,611.470,4.046,11.455,544.885,11.081,4.949
1782117389.399718,1.158000,1835158,1000,12,0,1,623.793,16.086,11.629,540.105,3.752,4.881
1782117389.400718,1.159000,1835159,1000,12,0,1,624.754,15.621,11.798,539.216,0.975,4.824
1782117389.401718,1.160000,1835160,1000,12,0,1,624.513,11.737,11.844,540.105,0.728,4.789
1782117389.402718,1.161000,1835161,1000,12,0,1,629.870,13.521,11.627,535.637,-3.739,4.817
1782117389.403718,1.162000,1835162,1000,12,0,1,636.812,16.879,11.294,532.274,-8.208,4.930
1782117389.404718,1.163000,1835163,1000,12,0,1,634.002,11.926,10.925,535.925,-5.377,4.946
1782117389.405718,1.164000,1835164,1000,12,0,1,623.649,-0.563,10.413,539.961,-1.506,4.888
1782117389.406718,1.165000,1835165,1000,12,0,1,614.761,-10.109,10.072,547.047,2.927,4.837
1782117389.407718,1.166000,1835166,1000,12,0,1,604.384,-17.883,10.214,550.482,5.582,4.854
1782117389.408718,1.167000,1835167,1000,12,0,1,603.039,-18.531,10.538,546.855,0.089,4.826
1782117389.409718,1.168000,1835168,1000,12,0,1,606.354,-11.363,10.644,539.192,-7.819,4.951
1782117389.410718,1.169000,1835169,1000,12,0,1,614.833,-2.735,10.501,529.608,-16.370,5.458
1782117389.411718,1.170000,1835170,1000,12,0,1,621.295,5.619,10.105,526.533,-18.423,6.027
1782117389.412718,1.171000,1835171,1000,12,0,1,621.631,5.645,9.567,524.131,-16.976,6.456
1782117389.413718,1.172000,1835172,1000,12,0,1,616.010,0.845,9.485,527.734,-12.555,6.691
1782117389.414718,1.173000,1835173,1000,12,0,1,618.244,1.182,9.476,531.121,-5.719,6.740
1782117389.415718,1.174000,1835174,1000,12,0,1,621.415,5.382,9.506,535.397,-1.536,6.744
1782117389.416718,1.175000,1835175,1000,12,0,1,617.115,1.250,9.501,542.315,5.725,6.785
1782117389.417718,1.176000,1835176,1000,12,0,1,612.815,-3.515,9.460,545.774,8.814,6.889
1782117389.418718,1.177000,1835177,1000,12,0,1,614.016,-2.348,9.450,539.817,3.239,6.899
1782117389.419718,1.178000,1835178,1000,12,0,1,625.330,6.573,9.484,520.672,-13.090,7.137
1782117389.420718,1.179000,1835179,1000,12,0,1,628.285,10.505,9.581,512.073,-21.652,7.766
1782117389.421718,1.180000,1835180,1000,12,0,1,621.151,1.244,9.572,519.111,-11.439,7.928
1782117389.422718,1.181000,1835181,1000,12,0,1,620.646,-1.219,9.523,519.639,-6.908,7.984
1782117389.423718,1.182000,1835182,1000,12,0,1,621.895,-0.001,9.406,513.466,-10.848,8.129
1782117389.424718,1.183000,1835183,1000,12,0,1,624.850,1.256,9.276,510.103,-11.971,8.303
1782117389.425718,1.184000,1835184,1000,12,0,1,626.411,2.718,9.238,511.064,-8.784,8.387
1782117389.426718,1.185000,1835185,1000,12,0,1,626.411,1.384,9.239,511.064,-6.063,8.430
1782117389.427718,1.186000,1835186,1000,12,0,1,611.494,-9.921,9.328,523.074,4.127,8.450
1782117389.428718,1.187000,1835187,1000,12,0,1,603.688,-18.920,9.704,523.627,8.626,8.536
1782117389.429718,1.188000,1835188,1000,12,0,1,608.468,-10.797,9.817,520.216,2.403,8.543
1782117389.430718,1.189000,1835189,1000,12,0,1,611.782,-5.071,9.816,519.495,2.990,8.549
1782117389.431718,1.190000,1835190,1000,12,0,1,613.032,-2.435,9.691,525.356,6.804,8.588
1782117389.432718,1.191000,1835191,1000,12,0,1,620.358,4.426,9.518,519.951,4.609,8.585
1782117389.433718,1.192000,1835192,1000,12,0,1,621.247,6.853,9.410,519.111,0.906,8.575
1782117389.434718,1.193000,1835193,1000,12,0,1,612.263,-1.520,9.334,521.801,5.522,8.601
1782117389.435718,1.194000,1835194,1000,12,0,1,603.567,-9.442,9.418,527.974,9.888,8.713
1782117389.436718,1.195000,1835195,1000,12,0,1,606.378,-6.379,9.011,526.893,10.206,8.759
1782117389.437718,1.196000,1835196,1000,12,0,1,619.565,6.298,8.705,522.930,4.995,8.706
1782117389.438718,1.197000,1835197,1000,12,0,1,633.521,18.633,9.092,520.120,2.466,8.698
1782117389.439718,1.198000,1835198,1000,12,0,1,634.386,17.874,9.426,523.915,5.290,8.729
1782117389.440718,1.199000,1835199,1000,12,0,1,629.702,9.544,9.511,531.241,11.577,8.881
1782117389.441718,1.200000,1835200,1000,12,0,1,628.573,5.723,9.532,539.769,17.757,9.229
1782117389.442718,1.201000,1835201,1000,12,0,1,625.114,1.607,9.524,551.731,24.722,9.865
1782117389.443718,1.202000,1835202,1000,12,0,1,622.568,-2.568,9.499,561.988,30.312,10.754
1782117389.444718,1.203000,1835203,1000,12,0,1,611.879,-10.330,9.491,570.251,30.973,11.604
1782117389.445718,1.204000,1835204,1000,12,0,1,606.474,-16.356,9.765,574.382,28.889,12.244
1782117389.446718,1.205000,1835205,1000,12,0,1,618.484,-3.846,9.644,579.331,25.228,12.570
1782117389.447718,1.206000,1835206,1000,12,0,1,633.545,11.324,9.603,582.021,21.978,12.738
1782117389.448718,1.207000,1835207,1000,12,0,1,651.417,24.743,10.204,570.659,6.793,12.678
1782117389.449718,1.208000,1835208,1000,12,0,1,656.629,28.166,10.715,559.610,-8.679,12.726
1782117389.450718,1.209000,1835209,1000,12,0,1,638.349,7.984,10.546,559.682,-10.527,12.812
1782117389.451718,1.210000,1835210,1000,12,0,1,623.264,-9.909,10.508,555.118,-13.536,12.954
1782117389.452718,1.211000,1835211,1000,12,0,1,614.881,-15.933,10.576,550.145,-18.748,13.212
1782117389.453718,1.212000,1835212,1000,12,0,1,615.265,-14.992,10.519,542.651,-22.633,13.545
1782117389.454718,1.213000,1835213,1000,12,0,1,634.362,2.797,10.390,516.805,-40.988,14.713
1782117389.455718,1.214000,1835214,1000,12,0,1,646.228,15.806,10.627,495.643,-56.604,16.748
1782117389.456718,1.215000,1835215,1000,12,0,1,630.326,0.715,10.531,504.338,-42.040,17.768
1782117389.457718,1.216000,1835216,1000,12,0,1,606.882,-22.361,10.701,521.225,-17.693,17.926
1782117389.458718,1.217000,1835217,1000,12,0,1,588.915,-35.840,11.547,527.758,-6.935,17.952
1782117389.459718,1.218000,1835218,1000,12,0,1,588.434,-33.073,12.354,524.876,-7.007,17.946
1782117389.460718,1.219000,1835219,1000,12,0,1,613.824,-6.568,12.383,514.379,-14.193,17.909
1782117389.461718,1.220000,1835220,1000,12,0,1,637.557,18.809,12.641,507.269,-19.059,17.922
1782117389.462718,1.221000,1835221,1000,12,0,1,643.610,22.407,13.007,511.977,-12.140,17.843
1782117389.463718,1.222000,1835222,1000,12,0,1,639.214,14.875,13.176,516.060,-4.621,17.767
1782117389.464718,1.223000,1835223,1000,12,0,1,634.410,6.846,13.210,516.613,-2.759,17.752
1782117389.465718,1.224000,1835224,1000,12,0,1,633.161,3.630,13.198,518.462,0.075,17.751
1782117389.466718,1.225000,1835225,1000,12,0,1,626.075,-2.592,13.202,520.648,3.136,17.738
1782117389.467718,1.226000,1835226,1000,12,0,1,621.391,-8.143,13.243,520.864,4.199,17.704
1782117389.468718,1.227000,1835227,1000,12,0,1,621.991,-5.982,13.266,518.462,2.933,17.703
1782117389.469718,1.228000,1835228,1000,12,0,1,619.733,-6.199,13.262,517.718,2.781,17.611
1782117389.470718,1.229000,1835229,1000,12,0,1,618.893,-6.010,13.206,517.718,4.409,17.353
1782117389.471718,1.230000,1835230,1000,12,0,1,624.850,0.500,13.205,516.156,4.290,17.289
1782117389.472718,1.231000,1835231,1000,12,0,1,631.119,7.340,13.245,517.477,6.269,17.284
1782117389.473718,1.232000,1835232,1000,12,0,1,630.471,7.019,13.282,519.015,9.149,17.264
1782117389.474718,1.233000,1835233,1000,12,0,1,627.852,3.452,13.290,520.240,10.454,17.244
1782117389.475718,1.234000,1835234,1000,12,0,1,624.057,0.132,13.284,522.065,12.199,17.286
1782117389.476718,1.235000,1835235,1000,12,0,1,620.958,-3.143,13.290,523.266,12.783,17.359
1782117389.477718,1.236000,1835236,1000,12,0,1,618.845,-4.416,13.231,527.206,14.703,17.473
1782117389.478718,1.237000,1835237,1000,12,0,1,617.716,-5.121,12.978,526.917,13.808,17.540
1782117389.479718,1.238000,1835238,1000,12,0,1,618.676,-3.823,12.899,527.230,10.890,17.604
1782117389.480718,1.239000,1835239,1000,12,0,1,616.370,-4.796,12.897,530.088,11.715,17.677
1782117389.481718,1.240000,1835240,1000,12,0,1,621.631,-1.520,12.894,532.082,10.954,17.718
1782117389.482718,1.241000,1835241,1000,12,0,1,622.640,1.592,12.881,535.709,11.114,17.776
1782117389.483718,1.242000,1835242,1000,12,0,1,613.680,-7.069,12.883,543.300,14.583,17.895
1782117389.484718,1.243000,1835243,1000,12,0,1,605.849,-13.611,13.024,546.110,14.395,17.993
1782117389.485718,1.244000,1835244,1000,12,0,1,601.333,-15.418,13.138,549.761,12.743,18.029
1782117389.486718,1.245000,1835245,1000,12,0,1,603.543,-11.406,13.206,548.776,9.612,18.023
1782117389.487718,1.246000,1835246,1000,12,0,1,612.839,-0.493,13.176,545.726,2.975,18.014
1782117389.488718,1.247000,1835247,1000,12,0,1,624.561,11.065,13.004,546.134,1.322,18.011
1782117389.489718,1.248000,1835248,1000,12,0,1,631.383,17.375,12.990,549.617,2.918,18.000
1782117389.490718,1.249000,1835249,1000,12,0,1,624.057,10.283,13.002,552.788,4.622,17.938
1782117389.491718,1.250000,1835250,1000,12,0,1,622.472,5.402,12.999,554.133,4.583,17.773
1782117389.492718,1.251000,1835251,1000,12,0,1,623.841,7.712,13.043,556.607,4.908,17.439
1782117389.493718,1.252000,1835252,1000,12,0,1,626.795,8.564,13.094,555.070,3.136,16.910
1782117389.494718,1.253000,1835253,1000,12,0,1,621.631,5.103,13.032,554.109,0.008,16.333
1782117389.495718,1.254000,1835254,1000,12,0,1,615.938,-2.059,12.828,546.542,-5.751,15.835
1782117389.496718,1.255000,1835255,1000,12,0,1,619.517,1.101,12.818,530.905,-19.834,15.680
1782117389.497718,1.256000,1835256,1000,12,0,1,603.736,-9.007,12.781,530.112,-20.760,15.647
1782117389.498718,1.257000,1835257,1000,12,0,1,597.298,-18.245,12.561,532.562,-14.054,15.744
1782117389.499718,1.258000,1835258,1000,12,0,1,619.181,3.807,11.924,521.273,-21.465,15.987
1782117389.500718,1.259000,1835259,1000,12,0,1,628.237,14.989,12.059,519.159,-23.196,16.252
1782117389.501718,1.260000,1835260,1000,12,0,1,621.919,6.381,12.011,528.118,-11.683,16.223
1782117389.502718,1.261000,1835261,1000,12,0,1,620.166,2.358,11.802,536.766,-2.478,16.008
1782117389.503718,1.262000,1835262,1000,12,0,1,621.583,2.787,11.617,542.939,3.041,15.691
1782117389.504718,1.263000,1835263,1000,12,0,1,618.965,0.018,11.610,549.857,7.511,14.620
1782117389.505718,1.264000,1835264,1000,12,0,1,618.148,-2.096,11.397,558.072,12.653,12.364
1782117389.506718,1.265000,1835265,1000,12,0,1,618.484,-1.375,11.398,563.261,14.756,11.040
1782117389.507718,1.266000,1835266,1000,12,0,1,610.726,-7.236,10.998,572.100,18.066,11.052
1782117389.508718,1.267000,1835267,1000,12,0,1,607.555,-10.601,9.875,571.764,16.245,11.245
1782117389.509718,1.268000,1835268,1000,12,0,1,620.886,2.079,8.702,569.362,8.862,11.271
1782117389.510718,1.269000,1835269,1000,12,0,1,635.035,16.238,8.952,571.644,9.044,11.165
1782117389.511718,1.270000,1835270,1000,12,0,1,634.242,14.880,8.803,584.759,17.045,11.099
1782117389.512718,1.271000,1835271,1000,12,0,1,622.808,2.586,8.221,595.112,25.106,11.526
1782117389.513718,1.272000,1835272,1000,12,0,1,628.717,4.149,7.969,594.127,20.125,11.854
1782117389.514718,1.273000,1835273,1000,12,0,1,627.996,6.821,7.968,596.001,16.353,12.072
1782117389.515718,1.274000,1835274,1000,12,0,1,619.877,-3.289,7.966,598.811,16.044,12.283
1782117389.516718,1.275000,1835275,1000,12,0,1,626.315,1.404,7.960,586.417,2.641,12.281
1782117389.517718,1.276000,1835276,1000,12,0,1,623.649,1.730,7.880,570.347,-14.884,12.446
1782117389.518718,1.277000,1835277,1000,12,0,1,605.537,-15.115,8.120,557.280,-25.890,12.966
1782117389.519718,1.278000,1835278,1000,12,0,1,604.552,-16.975,8.422,532.851,-43.189,14.328
1782117389.520718,1.279000,1835279,1000,12,0,1,616.082,-3.441,8.394,504.098,-64.266,16.956
1782117389.521718,1.280000,1835280,1000,12,0,1,615.217,-1.693,8.397,494.417,-65.665,19.323
1782117389.522718,1.281000,1835281,1000,12,0,1,604.816,-11.214,8.482,499.366,-50.664,20.589
1782117389.523718,1.282000,1835282,1000,12,0,1,598.955,-15.664,8.710,509.214,-33.356,21.083
1782117389.524718,1.283000,1835283,1000,12,0,1,606.018,-8.330,8.776,507.509,-26.503,21.362
1782117389.525718,1.284000,1835284,1000,12,0,1,608.612,-2.291,8.782,506.692,-24.203,21.566
1782117389.526718,1.285000,1835285,1000,12,0,1,615.025,1.778,8.774,504.242,-19.852,21.673
1782117389.527718,1.286000,1835286,1000,12,0,1,615.602,4.928,8.779,500.014,-19.981,21.757
1782117389.528718,1.287000,1835287,1000,12,0,1,611.446,-0.521,8.750,508.085,-9.353,21.709
1782117389.529718,1.288000,1835288,1000,12,0,1,612.143,0.333,8.733,514.451,2.014,21.657
1782117389.530718,1.289000,1835289,1000,12,0,1,608.011,-1.628,8.710,515.700,4.783,21.604
1782117389.531718,1.290000,1835290,1000,12,0,1,610.221,-0.869,8.708,515.724,7.574,21.575
1782117389.532718,1.291000,1835291,1000,12,0,1,611.518,3.361,8.718,514.018,7.910,21.546
1782117389.533718,1.292000,1835292,1000,12,0,1,607.819,-0.214,8.661,515.556,11.155,21.506
1782117389.534718,1.293000,1835293,1000,12,0,1,604.792,-1.632,8.447,517.910,15.599,21.522
1782117389.535718,1.294000,1835294,1000,12,0,1,605.177,-0.661,8.161,519.711,18.448,21.605
1782117389.536718,1.295000,1835295,1000,12,0,1,599.148,-3.320,8.014,523.002,21.973,21.785
1782117389.537718,1.296000,1835296,1000,12,0,1,601.213,-2.499,8.022,524.708,23.739,22.038
1782117389.538718,1.297000,1835297,1000,12,0,1,609.957,7.518,7.939,525.428,23.230,22.281
1782117389.539718,1.298000,1835298,1000,12,0,1,612.623,10.073,7.683,529.079,24.572,22.546
1782117389.540718,1.299000,1835299,1000,12,0,1,608.540,5.451,7.583,532.298,25.418,22.822
1782117389.541718,1.300000,1835300,1000,12,0,1,604.384,0.590,7.545,535.733,24.710,23.079
1782117389.542718,1.301000,1835301,1000,12,0,1,605.537,0.627,7.466,536.958,22.327,23.283
1782117389.543718,1.302000,1835302,1000,12,0,1,627.684,17.491,7.771,539.961,19.745,23.446
1782117389.544718,1.303000,1835303,1000,12,0,1,627.684,20.337,8.255,539.961,16.157,23.557
1782117389.545718,1.304000,1835304,1000,12,0,1,622.159,7.386,8.316,546.903,15.839,23.649
1782117389.546718,1.305000,1835305,1000,12,0,1,612.623,-0.148,8.314,559.802,23.099,23.708
1782117389.547718,1.306000,1835306,1000,12,0,1,609.669,-6.762,8.272,567.512,24.419,23.778
1782117389.548718,1.307000,1835307,1000,12,0,1,616.755,0.719,7.860,562.708,14.706,23.786
1782117389.549718,1.308000,1835308,1000,12,0,1,622.280,5.872,7.885,553.628,0.914,23.592
1782117389.550718,1.309000,1835309,1000,12,0,1,620.790,3.884,7.614,549.233,-6.216,23.379
1782117389.551718,1.310000,1835310,1000,12,0,1,621.151,2.976,7.573,541.090,-13.006,23.393
1782117389.552718,1.311000,1835311,1000,12,0,1,620.910,2.504,7.573,533.956,-19.614,23.554
1782117389.553718,1.312000,1835312,1000,12,0,1,612.623,-3.962,7.584,529.007,-20.635,23.731
1782117389.554718,1.313000,1835313,1000,12,0,1,606.690,-10.251,7.721,523.915,-21.899,23.908
1782117389.555718,1.314000,1835314,1000,12,0,1,594.824,-16.555,8.063,530.809,-13.146,23.914
1782117389.556718,1.315000,1835315,1000,12,0,1,572.461,-33.611,9.358,541.882,0.867,23.823
1782117389.557718,1.316000,1835316,1000,12,0,1,559.393,-40.688,10.938,547.263,6.824,23.705
1782117389.558718,1.317000,1835317,1000,12,0,1,565.903,-28.686,11.569,548.056,7.203,23.615
1782117389.559718,1.318000,1835318,1000,12,0,1,581.060,-8.455,11.627,546.326,4.472,23.590
1782117389.560718,1.319000,1835319,1000,12,0,1,592.974,5.706,11.426,544.212,1.181,23.556
1782117389.561718,1.320000,1835320,1000,12,0,1,627.732,32.649,12.143,536.982,-5.561,23.446
1782117389.562718,1.321000,1835321,1000,12,0,1,651.681,54.583,14.384,530.304,-12.828,23.246
1782117389.563718,1.322000,1835322,1000,12,0,1,650.792,44.101,15.667,527.326,-14.765,23.166
1782117389.564718,1.323000,1835323,1000,12,0,1,646.661,31.348,16.254,524.563,-16.150,23.163
1782117389.565718,1.324000,1835324,1000,12,0,1,643.898,21.717,16.535,528.551,-12.363,23.118
1782117389.566718,1.325000,1835325,1000,12,0,1,642.457,14.487,16.660,540.897,-0.699,23.115
1782117389.567718,1.326000,1835326,1000,12,0,1,643.370,11.180,16.733,556.583,12.411,23.086
1782117389.568718,1.327000,1835327,1000,12,0,1,644.210,8.481,16.639,571.188,22.834,23.021
1782117389.569718,1.328000,1835328,1000,12,0,1,642.145,4.628,16.478,591.533,35.001,22.741
1782117389.570718,1.329000,1835329,1000,12,0,1,640.127,0.499,16.471,610.365,46.112,21.842
1782117389.571718,1.330000,1835330,1000,12,0,1,637.773,-1.850,16.471,617.668,44.516,20.748
1782117389.572718,1.331000,1835331,1000,12,0,1,636.884,-3.465,16.402,618.869,36.368,20.140
1782117389.573718,1.332000,1835332,1000,12,0,1,636.908,-2.877,16.257,615.602,26.119,19.925
1782117389.574718,1.333000,1835333,1000,12,0,1,633.089,-5.777,16.235,599.580,7.005,19.594
1782117389.575718,1.334000,1835334,1000,12,0,1,629.846,-8.769,16.279,574.839,-17.992,19.460
1782117389.576718,1.335000,1835335,1000,12,0,1,642.217,0.869,16.278,538.688,-47.095,20.376
1782117389.577718,1.336000,1835336,1000,12,0,1,662.923,18.810,16.479,491.127,-81.961,23.271
1782117389.578718,1.337000,1835337,1000,12,0,1,656.197,12.437,16.572,464.608,-95.832,26.897
1782117389.579718,1.338000,1835338,1000,12,0,1,615.338,-26.828,17.001,483.920,-64.995,28.423
1782117389.580718,1.339000,1835339,1000,12,0,1,585.288,-55.853,18.745,505.659,-28.633,28.702
1782117389.581718,1.340000,1835340,1000,12,0,1,583.342,-51.871,20.129,514.571,-14.106,28.751
1782117389.582718,1.341000,1835341,1000,12,0,1,583.270,-42.786,21.013,516.396,-7.687,28.750
