Unix_Time_s,EMG_t_s,sample_idx,fs,gain,flags,emg_valid,ch1_raw_uV,ch1_filt_uV,ch1_env_uV,ch2_raw_uV,ch2_filt_uV,ch2_env_uV
1782117388.241718,0.000000,1833640,1000,12,0,1,372.296,16.746,10.017,560.066,0.123,1.084
1782117388.242718,0.001000,1833641,1000,12,0,1,368.765,9.010,10.085,560.234,-0.559,1.057
1782117388.243718,0.002000,1833642,1000,12,0,1,373.425,12.496,10.237,559.465,-0.560,1.059
1782117388.244718,0.003000,1833643,1000,12,0,1,385.484,20.229,10.628,559.273,-1.271,1.074
1782117388.245718,0.004000,1833644,1000,12,0,1,395.020,27.425,11.272,560.066,-0.141,1.073
1782117388.246718,0.005000,1833645,1000,12,0,1,390.144,19.779,11.575,561.435,0.949,1.070
1782117388.247718,0.006000,1833646,1000,12,0,1,383.898,9.760,11.643,560.426,0.406,1.069
1782117388.248718,0.007000,1833647,1000,12,0,1,376.188,2.057,11.646,560.691,0.037,1.069
1782117388.249718,0.008000,1833648,1000,12,0,1,366.988,-7.056,11.669,562.900,2.114,1.108
1782117388.250718,0.009000,1833649,1000,12,0,1,366.459,-7.296,11.702,558.865,-0.715,1.113
1782117388.251718,0.010000,1833650,1000,12,0,1,368.045,-3.605,11.600,559.153,-2.030,1.143
1782117388.252718,0.011000,1833651,1000,12,0,1,367.901,-2.906,11.483,559.754,0.208,1.123
1782117388.253718,0.012000,1833652,1000,12,0,1,365.018,-4.187,11.350,561.219,0.485,1.037
1782117388.254718,0.013000,1833653,1000,12,0,1,365.931,-3.627,11.222,561.435,1.590,1.022
1782117388.255718,0.014000,1833654,1000,12,0,1,370.759,1.437,11.095,558.649,-1.324,1.039
1782117388.256718,0.015000,1833655,1000,12,0,1,372.513,3.017,11.041,560.114,-0.600,1.039
1782117388.257718,0.016000,1833656,1000,12,0,1,366.940,-2.310,10.976,561.555,1.502,1.060
1782117388.258718,0.017000,1833657,1000,12,0,1,363.937,-6.481,10.986,559.706,-0.516,1.062
1782117388.259718,0.018000,1833658,1000,12,0,1,362.880,-6.673,11.000,558.120,-1.990,1.094
1782117388.260718,0.019000,1833659,1000,12,0,1,362.064,-7.303,10.993,557.712,-2.284,1.138
1782117388.261718,0.020000,1833660,1000,12,0,1,360.646,-7.698,11.041,559.345,-0.647,1.140
1782117388.262718,0.021000,1833661,1000,12,0,1,360.598,-7.229,11.088,560.594,0.806,1.144
1782117388.263718,0.022000,1833662,1000,12,0,1,357.452,-8.251,11.148,558.192,-1.049,1.150
1782117388.264718,0.023000,1833663,1000,12,0,1,351.879,-11.888,11.268,558.553,-1.434,1.152
1782117388.265718,0.024000,1833664,1000,12,0,1,352.599,-9.830,11.345,559.706,0.436,1.151
1782117388.266718,0.025000,1833665,1000,12,0,1,346.522,-10.639,11.434,560.955,1.162,1.157
1782117388.267718,0.026000,1833666,1000,12,0,1,342.391,-13.372,11.570,561.507,1.904,1.177
1782117388.268718,0.027000,1833667,1000,12,0,1,359.109,3.421,11.561,561.003,1.115,1.141
1782117388.269718,0.028000,1833668,1000,12,0,1,367.588,15.549,11.750,558.745,-0.774,1.133
1782117388.270718,0.029000,1833669,1000,12,0,1,363.265,10.123,11.812,560.018,-0.237,1.080
1782117388.271718,0.030000,1833670,1000,12,0,1,358.100,5.213,11.798,561.099,1.505,1.097
1782117388.272718,0.031000,1833671,1000,12,0,1,361.943,7.222,11.801,558.312,-0.933,1.100
1782117388.273718,0.032000,1833672,1000,12,0,1,368.309,13.509,11.867,558.312,-1.486,1.119
1782117388.274718,0.033000,1833673,1000,12,0,1,371.167,14.543,11.918,556.991,-1.450,1.125
1782117388.275718,0.034000,1833674,1000,12,0,1,368.093,10.320,11.880,557.760,-1.474,1.133
1782117388.276718,0.035000,1833675,1000,12,0,1,361.775,2.758,11.832,558.697,0.493,1.135
1782117388.277718,0.036000,1833676,1000,12,0,1,355.626,-3.724,11.830,558.409,-0.103,1.128
1782117388.278718,0.037000,1833677,1000,12,0,1,346.162,-11.205,11.934,558.288,-0.016,1.127
1782117388.279718,0.038000,1833678,1000,12,0,1,336.145,-19.184,12.238,557.712,-0.486,1.126
1782117388.280718,0.039000,1833679,1000,12,0,1,327.546,-23.500,12.672,557.304,-0.884,1.122
1782117388.281718,0.040000,1833680,1000,12,0,1,339.004,-12.467,12.765,557.135,-0.793,1.119
1782117388.282718,0.041000,1833681,1000,12,0,1,363.072,12.713,12.850,558.240,0.039,1.117
1782117388.283718,0.042000,1833682,1000,12,0,1,389.351,34.095,13.635,558.697,0.855,1.098
1782117388.284718,0.043000,1833683,1000,12,0,1,385.244,30.348,14.062,559.057,0.770,1.103
1782117388.285718,0.044000,1833684,1000,12,0,1,374.146,11.450,13.805,556.847,-0.673,1.066
1782117388.286718,0.045000,1833685,1000,12,0,1,369.510,5.746,13.479,559.922,0.843,1.063
1782117388.287718,0.046000,1833686,1000,12,0,1,370.831,4.162,13.119,558.553,1.412,1.081
1782117388.288718,0.047000,1833687,1000,12,0,1,371.936,5.097,12.854,559.465,0.304,1.067
1782117388.289718,0.048000,1833688,1000,12,0,1,373.473,5.061,12.874,558.505,1.053,1.073
1782117388.290718,0.049000,1833689,1000,12,0,1,376.260,6.527,12.546,556.271,-1.870,1.105
1782117388.291718,0.050000,1833690,1000,12,0,1,375.683,5.742,12.347,556.031,-1.532,1.126
1782117388.292718,0.051000,1833691,1000,12,0,1,376.860,4.487,12.298,556.583,-0.631,1.127
1782117388.293718,0.052000,1833692,1000,12,0,1,377.149,4.918,12.190,559.009,1.427,1.142
1782117388.294718,0.053000,1833693,1000,12,0,1,373.642,0.214,11.849,559.489,2.565,1.184
1782117388.295718,0.054000,1833694,1000,12,0,1,373.353,-1.030,11.198,557.616,0.249,1.185
1782117388.296718,0.055000,1833695,1000,12,0,1,372.585,-1.870,10.846,559.057,1.200,1.189
1782117388.297718,0.056000,1833696,1000,12,0,1,373.569,-2.149,10.762,560.618,2.673,1.247
1782117388.298718,0.057000,1833697,1000,12,0,1,375.755,-0.603,10.758,559.129,1.195,1.258
1782117388.299718,0.058000,1833698,1000,12,0,1,374.795,-2.172,10.716,558.961,0.175,1.222
1782117388.300718,0.059000,1833699,1000,12,0,1,374.795,-3.669,10.679,560.955,1.898,1.247
1782117388.301718,0.060000,1833700,1000,12,0,1,373.377,-5.034,10.691,560.642,1.531,1.233
1782117388.302718,0.061000,1833701,1000,12,0,1,373.113,-6.476,10.722,559.105,-0.387,1.234
1782117388.303718,0.062000,1833702,1000,12,0,1,375.755,-4.197,10.722,559.057,-0.729,1.236
1782117388.304718,0.063000,1833703,1000,12,0,1,377.101,-3.060,10.719,558.961,-0.642,1.219
1782117388.305718,0.064000,1833704,1000,12,0,1,379.719,-1.560,10.719,557.472,-1.863,1.233
1782117388.306718,0.065000,1833705,1000,12,0,1,379.334,-1.448,10.712,558.144,-1.466,1.247
1782117388.307718,0.066000,1833706,1000,12,0,1,369.654,-9.569,10.793,558.312,-0.592,1.232
1782117388.308718,0.067000,1833707,1000,12,0,1,360.454,-17.357,11.030,557.976,-1.018,1.238
1782117388.309718,0.068000,1833708,1000,12,0,1,365.330,-11.600,11.112,559.850,0.684,1.210
1782117388.310718,0.069000,1833709,1000,12,0,1,374.747,0.178,11.064,559.658,1.033,1.175
1782117388.311718,0.070000,1833710,1000,12,0,1,377.341,3.901,11.024,559.201,0.068,1.171
1782117388.312718,0.071000,1833711,1000,12,0,1,376.332,2.915,10.984,559.153,0.285,1.167
1782117388.313718,0.072000,1833712,1000,12,0,1,373.377,0.585,10.922,560.378,0.983,1.165
1782117388.314718,0.073000,1833713,1000,12,0,1,368.261,-3.644,10.804,561.315,1.990,1.182
1782117388.315718,0.074000,1833714,1000,12,0,1,358.292,-10.945,10.826,560.667,1.073,1.190
1782117388.316718,0.075000,1833715,1000,12,0,1,351.350,-16.174,10.962,559.898,0.037,1.178
1782117388.317718,0.076000,1833716,1000,12,0,1,354.857,-10.803,10.905,558.336,-1.275,1.161
1782117388.318718,0.077000,1833717,1000,12,0,1,353.608,-7.956,10.952,557.856,-1.973,1.184
1782117388.319718,0.078000,1833718,1000,12,0,1,355.290,-6.552,10.769,559.057,-0.627,1.182
1782117388.320718,0.079000,1833719,1000,12,0,1,369.702,7.045,10.720,561.339,1.294,1.196
1782117388.321718,0.080000,1833720,1000,12,0,1,382.385,18.592,11.013,559.105,-0.109,1.177
1782117388.322718,0.081000,1833721,1000,12,0,1,385.364,18.703,11.280,561.003,0.066,1.169
1782117388.323718,0.082000,1833722,1000,12,0,1,382.265,12.606,11.259,561.387,1.664,1.174
1782117388.324718,0.083000,1833723,1000,12,0,1,377.965,5.765,11.100,558.697,-1.578,1.177
1782117388.325718,0.084000,1833724,1000,12,0,1,381.472,6.160,11.038,558.264,-1.986,1.192
1782117388.326718,0.085000,1833725,1000,12,0,1,384.259,8.362,11.094,560.258,-0.032,1.190
1782117388.327718,0.086000,1833726,1000,12,0,1,382.313,4.936,11.104,562.468,2.005,1.224
1782117388.328718,0.087000,1833727,1000,12,0,1,378.398,0.672,10.990,560.354,0.542,1.226
1782117388.329718,0.088000,1833728,1000,12,0,1,377.677,-0.699,10.651,557.232,-2.912,1.291
1782117388.330718,0.089000,1833729,1000,12,0,1,378.710,0.837,10.120,559.297,-1.042,1.294
1782117388.331718,0.090000,1833730,1000,12,0,1,377.581,0.385,9.965,560.667,0.987,1.296
1782117388.332718,0.091000,1833731,1000,12,0,1,377.869,0.441,9.802,560.426,0.523,1.299
1782117388.333718,0.092000,1833732,1000,12,0,1,376.788,0.456,8.534,560.546,0.555,1.295
1782117388.334718,0.093000,1833733,1000,12,0,1,377.533,0.403,7.376,558.985,-0.623,1.294
1782117388.335718,0.094000,1833734,1000,12,0,1,379.070,2.283,7.203,561.243,0.563,1.293
1782117388.336718,0.095000,1833735,1000,12,0,1,379.647,2.005,7.163,560.138,0.789,1.292
1782117388.337718,0.096000,1833736,1000,12,0,1,381.592,2.748,7.149,558.216,-2.012,1.308
1782117388.338718,0.097000,1833737,1000,12,0,1,382.169,2.407,7.121,557.808,-1.763,1.331
1782117388.339718,0.098000,1833738,1000,12,0,1,378.590,-1.928,7.090,559.297,-0.634,1.325
1782117388.340718,0.099000,1833739,1000,12,0,1,379.238,-3.280,7.045,559.538,0.206,1.299
1782117388.341718,0.100000,1833740,1000,12,0,1,378.758,-3.419,7.015,559.033,-0.520,1.283
1782117388.342718,0.101000,1833741,1000,12,0,1,379.142,-4.583,7.016,560.018,0.243,1.280
1782117388.343718,0.102000,1833742,1000,12,0,1,377.077,-5.767,7.029,561.699,1.800,1.290
1782117388.344718,0.103000,1833743,1000,12,0,1,373.377,-9.461,7.155,561.988,1.844,1.265
1782117388.345718,0.104000,1833744,1000,12,0,1,371.312,-10.407,7.304,561.099,0.809,1.269
1782117388.346718,0.105000,1833745,1000,12,0,1,369.174,-10.613,7.452,559.153,-1.105,1.268
1782117388.347718,0.106000,1833746,1000,12,0,1,370.183,-8.493,7.542,560.354,-0.421,1.212
1782117388.348718,0.107000,1833747,1000,12,0,1,373.065,-3.597,7.558,558.865,-0.776,1.205
1782117388.349718,0.108000,1833748,1000,12,0,1,375.131,-0.456,7.552,557.736,-2.360,1.250
1782117388.350718,0.109000,1833749,1000,12,0,1,373.089,-0.516,7.535,558.216,-1.223,1.233
1782117388.351718,0.110000,1833750,1000,12,0,1,369.318,-3.194,7.515,559.273,-0.135,1.214
1782117388.352718,0.111000,1833751,1000,12,0,1,364.346,-5.688,7.502,559.634,0.535,1.215
1782117388.353718,0.112000,1833752,1000,12,0,1,361.703,-6.744,7.539,558.216,-0.542,1.213
1782117388.354718,0.113000,1833753,1000,12,0,1,349.813,-13.139,7.753,557.232,-1.559,1.230
1782117388.355718,0.114000,1833754,1000,12,0,1,351.206,-12.522,7.949,558.745,-0.021,1.201
1782117388.356718,0.115000,1833755,1000,12,0,1,368.093,6.236,7.995,559.922,1.311,1.197
1782117388.357718,0.116000,1833756,1000,12,0,1,368.933,9.721,7.999,558.985,0.516,1.197
1782117388.358718,0.117000,1833757,1000,12,0,1,360.622,0.038,7.613,558.985,0.036,1.188
1782117388.359718,0.118000,1833758,1000,12,0,1,359.782,-1.221,7.436,560.835,1.669,1.207
1782117388.360718,0.119000,1833759,1000,12,0,1,362.784,1.597,7.440,560.642,1.557,1.219
1782117388.361718,0.120000,1833760,1000,12,0,1,364.370,3.168,7.433,561.483,1.489,1.237
1782117388.362718,0.121000,1833761,1000,12,0,1,369.054,5.890,7.468,560.618,1.036,1.245
1782117388.363718,0.122000,1833762,1000,12,0,1,375.996,11.378,7.639,558.361,-1.522,1.255
1782117388.364718,0.123000,1833763,1000,12,0,1,376.428,10.671,7.769,558.553,-1.434,1.240
1782117388.365718,0.124000,1833764,1000,12,0,1,379.262,10.090,7.746,559.634,-0.089,1.231
1782117388.366718,0.125000,1833765,1000,12,0,1,379.431,9.909,7.532,560.474,0.652,1.234
1782117388.367718,0.126000,1833766,1000,12,0,1,376.764,5.361,7.415,559.706,0.231,1.222
1782117388.368718,0.127000,1833767,1000,12,0,1,373.762,2.355,7.336,559.922,-0.025,1.189
1782117388.369718,0.128000,1833768,1000,12,0,1,372.032,0.406,7.278,560.378,0.755,1.191
1782117388.370718,0.129000,1833769,1000,12,0,1,371.023,0.168,7.209,559.610,-0.014,1.177
1782117388.371718,0.130000,1833770,1000,12,0,1,375.059,3.597,6.732,558.913,-0.643,1.180
1782117388.372718,0.131000,1833771,1000,12,0,1,379.431,8.214,6.299,559.009,-0.487,1.182
1782117388.373718,0.132000,1833772,1000,12,0,1,377.485,6.282,6.106,559.682,0.201,1.159
1782117388.374718,0.133000,1833773,1000,12,0,1,378.470,5.109,6.094,560.066,0.639,1.141
1782117388.375718,0.134000,1833774,1000,12,0,1,378.205,5.122,6.075,559.730,0.253,1.106
1782117388.376718,0.135000,1833775,1000,12,0,1,375.035,0.594,5.959,560.114,0.362,1.107
1782117388.377718,0.136000,1833776,1000,12,0,1,373.353,-1.717,5.923,558.601,-0.681,1.075
1782117388.378718,0.137000,1833777,1000,12,0,1,371.095,-4.179,5.952,558.937,-1.005,1.081
1782117388.379718,0.138000,1833778,1000,12,0,1,370.591,-5.433,6.001,558.817,-0.428,1.002
1782117388.380718,0.139000,1833779,1000,12,0,1,370.831,-5.132,6.043,557.472,-1.819,1.024
1782117388.381718,0.140000,1833780,1000,12,0,1,368.885,-6.959,6.123,558.072,-1.260,1.030
1782117388.382718,0.141000,1833781,1000,12,0,1,365.547,-9.762,6.276,558.865,-0.113,1.027
1782117388.383718,0.142000,1833782,1000,12,0,1,367.829,-7.964,6.376,559.730,0.495,1.026
1782117388.384718,0.143000,1833783,1000,12,0,1,370.975,-3.679,6.397,559.850,0.841,1.029
1782117388.385718,0.144000,1833784,1000,12,0,1,371.143,-3.230,6.405,561.243,1.513,1.048
1782117388.386718,0.145000,1833785,1000,12,0,1,375.899,0.587,6.399,560.066,1.020,1.052
1782117388.387718,0.146000,1833786,1000,12,0,1,374.939,1.487,6.391,560.522,0.380,1.015
1782117388.388718,0.147000,1833787,1000,12,0,1,371.552,-2.474,6.391,560.354,0.957,0.993
1782117388.389718,0.148000,1833788,1000,12,0,1,364.826,-6.365,6.449,559.994,0.021,0.989
1782117388.390718,0.149000,1833789,1000,12,0,1,358.677,-11.029,6.618,559.225,-0.270,0.989
1782117388.391718,0.150000,1833790,1000,12,0,1,353.800,-12.054,6.817,559.754,-0.127,0.986
1782117388.392718,0.151000,1833791,1000,12,0,1,354.545,-9.216,6.910,560.618,0.936,0.995
1782117388.393718,0.152000,1833792,1000,12,0,1,357.572,-3.057,6.876,560.258,0.617,0.966
1782117388.394718,0.153000,1833793,1000,12,0,1,358.292,-0.336,6.744,559.754,-0.091,0.930
1782117388.395718,0.154000,1833794,1000,12,0,1,354.833,-1.823,6.587,560.931,0.833,0.930
1782117388.396718,0.155000,1833795,1000,12,0,1,352.816,-2.971,6.427,558.745,-0.658,0.922
1782117388.397718,0.156000,1833796,1000,12,0,1,351.254,-2.919,6.328,559.514,-0.938,0.929
1782117388.398718,0.157000,1833797,1000,12,0,1,354.929,0.378,6.307,559.898,0.317,0.924
1782117388.399718,0.158000,1833798,1000,12,0,1,353.897,1.250,6.310,559.321,-0.721,0.867
1782117388.400718,0.159000,1833799,1000,12,0,1,352.888,-0.899,6.310,559.177,-0.692,0.856
1782117388.401718,0.160000,1833800,1000,12,0,1,351.663,-1.064,6.296,558.697,-1.045,0.868
1782117388.402718,0.161000,1833801,1000,12,0,1,351.783,-1.436,6.248,558.072,-1.573,0.893
1782117388.403718,0.162000,1833802,1000,12,0,1,349.405,-2.391,6.184,557.400,-1.829,0.927
1782117388.404718,0.163000,1833803,1000,12,0,1,347.963,-3.689,5.921,559.586,-0.165,0.900
1782117388.405718,0.164000,1833804,1000,12,0,1,349.861,-1.001,5.652,559.778,0.947,0.910
1782117388.406718,0.165000,1833805,1000,12,0,1,353.488,3.240,5.601,559.273,-0.195,0.891
1782117388.407718,0.166000,1833806,1000,12,0,1,356.275,6.286,5.502,560.018,0.729,0.894
1782117388.408718,0.167000,1833807,1000,12,0,1,356.082,6.728,5.584,561.747,1.973,0.937
1782117388.409718,0.168000,1833808,1000,12,0,1,356.875,6.878,5.665,559.321,0.386,0.908
1782117388.410718,0.169000,1833809,1000,12,0,1,355.122,6.424,5.733,559.417,-0.660,0.886
1782117388.411718,0.170000,1833810,1000,12,0,1,351.398,2.851,5.730,560.234,0.929,0.871
1782117388.412718,0.171000,1833811,1000,12,0,1,350.894,2.930,5.684,559.682,0.156,0.859
1782117388.413718,0.172000,1833812,1000,12,0,1,350.966,3.896,5.480,559.393,-0.084,0.831
1782117388.414718,0.173000,1833813,1000,12,0,1,350.558,3.872,5.296,559.994,0.446,0.809
1782117388.415718,0.174000,1833814,1000,12,0,1,349.597,3.322,5.122,559.393,0.069,0.809
1782117388.416718,0.175000,1833815,1000,12,0,1,350.702,3.825,4.956,557.736,-1.364,0.826
1782117388.417718,0.176000,1833816,1000,12,0,1,351.687,4.730,4.943,560.522,0.505,0.829
1782117388.418718,0.177000,1833817,1000,12,0,1,351.158,3.370,4.955,562.324,2.953,0.928
1782117388.419718,0.178000,1833818,1000,12,0,1,353.368,3.973,4.986,562.636,2.226,0.974
1782117388.420718,0.179000,1833819,1000,12,0,1,357.067,6.248,5.064,559.946,0.104,0.974
1782117388.421718,0.180000,1833820,1000,12,0,1,357.187,5.076,5.089,559.946,-1.139,0.983
1782117388.422718,0.181000,1833821,1000,12,0,1,355.818,1.951,4.962,560.354,0.008,0.981
1782117388.423718,0.182000,1833822,1000,12,0,1,355.650,0.504,4.883,561.555,0.392,0.982
1782117388.424718,0.183000,1833823,1000,12,0,1,354.257,-1.246,4.832,560.979,0.380,0.979
1782117388.425718,0.184000,1833824,1000,12,0,1,350.870,-4.538,4.821,559.586,-1.341,0.997
1782117388.426718,0.185000,1833825,1000,12,0,1,339.724,-12.809,5.149,560.450,-0.669,1.000
1782117388.427718,0.186000,1833826,1000,12,0,1,333.023,-18.328,5.759,560.114,-0.374,0.997
1782117388.428718,0.187000,1833827,1000,12,0,1,328.555,-17.602,6.246,560.210,-0.765,0.992
1782117388.429718,0.188000,1833828,1000,12,0,1,328.795,-14.680,6.537,560.378,-0.044,0.991
1782117388.430718,0.189000,1833829,1000,12,0,1,327.041,-10.871,6.676,559.297,-1.096,0.969
1782117388.431718,0.190000,1833830,1000,12,0,1,343.472,3.439,6.621,560.739,0.060,0.953
1782117388.432718,0.191000,1833831,1000,12,0,1,366.988,27.662,7.566,561.315,1.082,0.965
1782117388.433718,0.192000,1833832,1000,12,0,1,365.619,26.182,8.348,559.249,-0.835,0.969
1782117388.434718,0.193000,1833833,1000,12,0,1,353.873,10.575,8.465,560.210,-0.464,0.964
1782117388.435718,0.194000,1833834,1000,12,0,1,346.042,2.021,8.457,560.546,0.568,0.944
1782117388.436718,0.195000,1833835,1000,12,0,1,353.704,5.750,8.496,560.546,0.049,0.933
1782117388.437718,0.196000,1833836,1000,12,0,1,361.727,14.114,8.724,560.570,0.308,0.932
1782117388.438718,0.197000,1833837,1000,12,0,1,360.622,10.175,8.835,558.577,-1.417,0.944
1782117388.439718,0.198000,1833838,1000,12,0,1,353.993,2.447,8.796,559.634,-0.994,0.954
1782117388.440718,0.199000,1833839,1000,12,0,1,346.931,-5.770,8.695,561.916,1.587,0.979
1782117388.441718,0.200000,1833840,1000,12,0,1,341.862,-10.324,8.651,561.627,1.177,0.993
1782117388.442718,0.201000,1833841,1000,12,0,1,354.041,-1.039,8.553,563.261,1.871,1.019
1782117388.443718,0.202000,1833842,1000,12,0,1,372.176,16.183,8.843,562.660,1.700,1.044
1782117388.444718,0.203000,1833843,1000,12,0,1,367.660,12.033,9.006,558.649,-2.337,1.095
1782117388.445718,0.204000,1833844,1000,12,0,1,362.304,1.699,9.005,560.907,-1.130,1.100
1782117388.446718,0.205000,1833845,1000,12,0,1,362.208,1.758,8.999,559.826,-0.402,1.098
1782117388.447718,0.206000,1833846,1000,12,0,1,365.739,2.770,8.998,559.441,-1.966,1.124
1782117388.448718,0.207000,1833847,1000,12,0,1,373.305,9.028,9.088,558.192,-1.645,1.147
1782117388.449718,0.208000,1833848,1000,12,0,1,376.524,10.711,9.211,559.538,-1.252,1.156
1782117388.450718,0.209000,1833849,1000,12,0,1,382.529,12.677,9.383,560.234,0.625,1.156
1782117388.451718,0.210000,1833850,1000,12,0,1,383.178,12.353,9.543,559.105,-0.662,1.150
1782117388.452718,0.211000,1833851,1000,12,0,1,377.557,3.943,9.558,558.505,-1.037,1.138
1782117388.453718,0.212000,1833852,1000,12,0,1,373.497,-1.453,9.554,560.234,0.533,1.111
1782117388.454718,0.213000,1833853,1000,12,0,1,368.669,-6.332,9.581,560.787,1.358,1.127
1782117388.455718,0.214000,1833854,1000,12,0,1,360.238,-13.513,9.769,560.474,0.853,1.125
1782117388.456718,0.215000,1833855,1000,12,0,1,347.339,-23.363,10.303,560.979,0.964,1.133
1782117388.457718,0.216000,1833856,1000,12,0,1,341.958,-26.798,10.941,559.610,0.084,1.129
1782117388.458718,0.217000,1833857,1000,12,0,1,349.237,-17.022,11.163,559.586,-0.700,1.098
1782117388.459718,0.218000,1833858,1000,12,0,1,367.949,1.156,11.121,559.273,-0.287,1.097
1782117388.460718,0.219000,1833859,1000,12,0,1,371.264,7.120,11.130,560.042,-0.215,1.094
1782117388.461718,0.220000,1833860,1000,12,0,1,362.088,-3.913,11.136,560.931,1.055,1.096
1782117388.462718,0.221000,1833861,1000,12,0,1,350.414,-14.029,11.304,560.667,0.519,1.098
1782117388.463718,0.222000,1833862,1000,12,0,1,347.675,-16.803,11.538,558.264,-1.376,1.115
1782117388.464718,0.223000,1833863,1000,12,0,1,367.732,1.262,11.526,560.306,-0.340,1.115
1782117388.465718,0.224000,1833864,1000,12,0,1,381.112,16.453,11.749,561.075,1.456,1.133
1782117388.466718,0.225000,1833865,1000,12,0,1,386.228,16.729,11.973,559.658,-0.349,1.118
1782117388.467718,0.226000,1833866,1000,12,0,1,378.422,9.538,12.030,559.922,-0.171,1.116
1782117388.468718,0.227000,1833867,1000,12,0,1,370.903,-1.667,12.023,561.147,1.073,1.046
1782117388.469718,0.228000,1833868,1000,12,0,1,365.715,-4.951,12.030,560.114,0.322,0.999
1782117388.470718,0.229000,1833869,1000,12,0,1,360.815,-9.115,12.067,558.697,-1.104,1.011
1782117388.471718,0.230000,1833870,1000,12,0,1,360.742,-7.619,12.094,559.706,-0.324,0.999
1782117388.472718,0.231000,1833871,1000,12,0,1,362.424,-3.806,12.102,561.435,1.573,1.023
1782117388.473718,0.232000,1833872,1000,12,0,1,359.133,-4.821,12.121,562.180,2.001,1.060
1782117388.474718,0.233000,1833873,1000,12,0,1,359.974,-3.528,12.130,562.060,1.692,1.085
1782117388.475718,0.234000,1833874,1000,12,0,1,357.380,-3.265,12.122,560.835,0.285,1.070
1782117388.476718,0.235000,1833875,1000,12,0,1,356.058,-4.515,12.003,561.315,0.233,1.066
1782117388.477718,0.236000,1833876,1000,12,0,1,355.290,-3.449,11.730,559.922,-0.561,1.067
1782117388.478718,0.237000,1833877,1000,12,0,1,355.866,-2.751,11.469,560.402,-0.914,1.070
1782117388.479718,0.238000,1833878,1000,12,0,1,354.881,-2.626,11.286,560.018,-0.462,1.072
1782117388.480718,0.239000,1833879,1000,12,0,1,357.572,-0.922,11.182,559.369,-1.509,1.082
1782117388.481718,0.240000,1833880,1000,12,0,1,356.971,-0.427,11.171,561.147,0.160,1.082
1782117388.482718,0.241000,1833881,1000,12,0,1,356.683,-1.904,10.467,560.787,0.327,1.072
1782117388.483718,0.242000,1833882,1000,12,0,1,359.373,0.450,9.791,559.273,-1.429,1.085
1782117388.484718,0.243000,1833883,1000,12,0,1,358.460,0.028,9.676,559.129,-1.350,1.099
1782117388.485718,0.244000,1833884,1000,12,0,1,359.974,0.045,9.672,559.946,-0.525,1.099
1782117388.486718,0.245000,1833885,1000,12,0,1,362.448,3.097,9.647,562.660,1.858,1.130
1782117388.487718,0.246000,1833886,1000,12,0,1,363.361,3.289,9.450,561.747,1.542,1.150
1782117388.488718,0.247000,1833887,1000,12,0,1,364.898,4.674,9.363,559.369,-1.245,1.146
1782117388.489718,0.248000,1833888,1000,12,0,1,364.898,4.692,9.380,559.369,-1.204,1.150
1782117388.490718,0.249000,1833889,1000,12,0,1,361.559,2.029,9.349,560.594,0.124,1.128
1782117388.491718,0.250000,1833890,1000,12,0,1,364.009,3.443,9.247,560.234,0.108,1.116
1782117388.492718,0.251000,1833891,1000,12,0,1,361.151,3.170,9.257,559.850,-0.427,1.085
1782117388.493718,0.252000,1833892,1000,12,0,1,358.244,-0.548,8.970,561.555,0.980,1.068
1782117388.494718,0.253000,1833893,1000,12,0,1,357.476,0.298,8.807,560.811,0.806,1.021
1782117388.495718,0.254000,1833894,1000,12,0,1,356.467,-0.230,8.804,560.474,-0.246,1.009
1782117388.496718,0.255000,1833895,1000,12,0,1,359.205,2.216,8.806,561.099,0.612,1.012
1782117388.497718,0.256000,1833896,1000,12,0,1,358.869,2.895,8.807,558.889,-1.203,0.987
1782117388.498718,0.257000,1833897,1000,12,0,1,357.091,0.038,8.714,558.697,-1.853,0.995
1782117388.499718,0.258000,1833898,1000,12,0,1,357.644,0.312,8.581,561.363,0.887,0.987
1782117388.500718,0.259000,1833899,1000,12,0,1,358.965,0.689,8.392,561.315,1.180,0.997
1782117388.501718,0.260000,1833900,1000,12,0,1,359.878,0.894,8.210,562.300,1.256,1.008
1782117388.502718,0.261000,1833901,1000,12,0,1,358.845,-0.858,8.192,560.979,0.638,1.002
1782117388.503718,0.262000,1833902,1000,12,0,1,357.356,-3.004,8.200,560.138,-1.001,1.009
1782117388.504718,0.263000,1833903,1000,12,0,1,352.768,-6.777,8.207,560.618,-0.167,0.991
1782117388.505718,0.264000,1833904,1000,12,0,1,348.612,-10.467,8.118,562.252,0.995,0.993
1782117388.506718,0.265000,1833905,1000,12,0,1,352.816,-6.099,7.465,562.396,1.407,1.004
1782117388.507718,0.266000,1833906,1000,12,0,1,361.007,2.723,6.443,561.483,0.194,1.004
1782117388.508718,0.267000,1833907,1000,12,0,1,360.286,3.480,5.996,560.546,-0.689,1.004
1782117388.509718,0.268000,1833908,1000,12,0,1,358.436,0.785,5.995,559.465,-1.503,1.025
1782117388.510718,0.269000,1833909,1000,12,0,1,357.500,1.072,5.912,560.258,-0.931,1.033
1782117388.511718,0.270000,1833910,1000,12,0,1,353.200,-1.864,5.892,561.027,0.323,1.024
1782117388.512718,0.271000,1833911,1000,12,0,1,351.206,-3.028,5.564,558.697,-1.558,1.044
1782117388.513718,0.272000,1833912,1000,12,0,1,349.909,-2.150,5.041,559.465,-1.330,1.043
1782117388.514718,0.273000,1833913,1000,12,0,1,354.137,1.787,5.044,558.529,-1.019,1.052
1782117388.515718,0.274000,1833914,1000,12,0,1,356.515,5.932,4.553,558.192,-1.867,1.065
1782117388.516718,0.275000,1833915,1000,12,0,1,355.098,3.964,3.930,560.186,0.426,1.065
1782117388.517718,0.276000,1833916,1000,12,0,1,353.272,2.209,3.705,560.498,0.965,1.074
1782117388.518718,0.277000,1833917,1000,12,0,1,340.757,-7.625,3.851,561.795,1.524,1.085
1782117388.519718,0.278000,1833918,1000,12,0,1,340.757,-10.080,4.047,561.795,1.859,1.115
1782117388.520718,0.279000,1833919,1000,12,0,1,340.949,-5.430,3.912,559.874,-0.405,1.106
1782117388.521718,0.280000,1833920,1000,12,0,1,348.468,-1.157,3.764,561.435,0.507,1.107
1782117388.522718,0.281000,1833921,1000,12,0,1,355.842,7.894,3.889,560.018,0.049,1.085
1782117388.523718,0.282000,1833922,1000,12,0,1,354.929,5.245,3.900,559.033,-1.684,1.074
1782117388.524718,0.283000,1833923,1000,12,0,1,352.143,1.452,3.873,561.747,0.997,1.056
1782117388.525718,0.284000,1833924,1000,12,0,1,346.907,-3.313,3.874,562.468,1.994,1.092
1782117388.526718,0.285000,1833925,1000,12,0,1,343.640,-6.842,3.942,560.715,0.095,1.092
1782117388.527718,0.286000,1833926,1000,12,0,1,341.574,-6.656,4.023,560.018,-0.734,1.094
1782117388.528718,0.287000,1833927,1000,12,0,1,341.166,-6.217,4.100,560.426,-0.255,1.087
1782117388.529718,0.288000,1833928,1000,12,0,1,345.754,-0.280,4.083,560.402,-0.033,1.085
1782117388.530718,0.289000,1833929,1000,12,0,1,350.678,5.433,4.153,562.756,1.617,1.088
1782117388.531718,0.290000,1833930,1000,12,0,1,340.877,-0.644,4.153,562.228,1.836,1.118
1782117388.532718,0.291000,1833931,1000,12,0,1,325.888,-13.963,4.591,561.099,-0.123,1.118
1782117388.533718,0.292000,1833932,1000,12,0,1,339.220,-2.333,4.602,560.618,-0.263,1.100
1782117388.534718,0.293000,1833933,1000,12,0,1,365.643,24.698,5.778,560.306,-0.743,1.088
1782117388.535718,0.294000,1833934,1000,12,0,1,373.786,31.408,7.288,561.940,0.582,1.089
1782117388.536718,0.295000,1833935,1000,12,0,1,372.681,24.981,8.087,561.387,0.547,1.059
1782117388.537718,0.296000,1833936,1000,12,0,1,368.381,17.378,8.439,562.084,0.256,1.037
1782117388.538718,0.297000,1833937,1000,12,0,1,363.024,8.410,8.497,561.339,0.258,1.023
1782117388.539718,0.298000,1833938,1000,12,0,1,358.773,2.210,8.477,561.603,-0.456,1.011
1782117388.540718,0.299000,1833939,1000,12,0,1,356.803,-1.512,8.475,560.955,-0.350,1.012
1782117388.541718,0.300000,1833940,1000,12,0,1,359.325,-0.680,8.461,561.579,-0.547,1.015
1782117388.542718,0.301000,1833941,1000,12,0,1,360.863,0.243,8.449,561.868,0.268,1.014
1782117388.543718,0.302000,1833942,1000,12,0,1,358.076,-3.285,8.462,562.108,0.042,1.004
1782117388.544718,0.303000,1833943,1000,12,0,1,358.653,-4.163,8.482,561.988,0.094,0.998
1782117388.545718,0.304000,1833944,1000,12,0,1,359.181,-3.320,8.495,563.021,0.665,1.002
1782117388.546718,0.305000,1833945,1000,12,0,1,357.956,-4.822,8.517,563.021,0.865,1.005
1782117388.547718,0.306000,1833946,1000,12,0,1,356.082,-6.142,8.551,561.219,-0.840,0.998
1782117388.548718,0.307000,1833947,1000,12,0,1,358.557,-4.100,8.571,561.795,-0.772,0.969
1782117388.549718,0.308000,1833948,1000,12,0,1,360.358,-1.195,8.572,563.501,1.209,0.976
1782117388.550718,0.309000,1833949,1000,12,0,1,361.223,-0.622,8.572,562.396,0.256,0.962
1782117388.551718,0.310000,1833950,1000,12,0,1,359.349,-1.520,8.574,562.108,-0.418,0.948
1782117388.552718,0.311000,1833951,1000,12,0,1,356.923,-3.754,8.590,562.564,0.169,0.944
1782117388.553718,0.312000,1833952,1000,12,0,1,354.281,-5.157,8.610,562.900,0.364,0.934
1782117388.554718,0.313000,1833953,1000,12,0,1,348.636,-8.815,8.647,561.627,-0.605,0.938
1782117388.555718,0.314000,1833954,1000,12,0,1,346.738,-9.906,8.634,559.249,-2.743,1.005
1782117388.556718,0.315000,1833955,1000,12,0,1,352.960,-2.917,8.600,561.099,-1.405,1.005
1782117388.557718,0.316000,1833956,1000,12,0,1,358.244,3.169,8.603,562.156,0.525,1.008
1782117388.558718,0.317000,1833957,1000,12,0,1,358.292,3.080,8.600,561.771,-0.278,1.004
1782117388.559718,0.318000,1833958,1000,12,0,1,356.923,0.908,8.601,561.123,-0.632,0.985
1782117388.560718,0.319000,1833959,1000,12,0,1,357.764,0.855,8.600,559.465,-2.063,1.019
1782117388.561718,0.320000,1833960,1000,12,0,1,360.935,2.915,8.606,561.387,-0.693,1.022
1782117388.562718,0.321000,1833961,1000,12,0,1,357.764,0.314,8.595,563.021,1.522,1.021
1782117388.563718,0.322000,1833962,1000,12,0,1,357.163,-2.292,8.596,563.741,1.585,1.029
1782117388.564718,0.323000,1833963,1000,12,0,1,358.460,-0.395,8.593,561.555,0.029,1.018
1782117388.565718,0.324000,1833964,1000,12,0,1,358.460,-0.890,8.552,561.940,-0.648,0.988
1782117388.566718,0.325000,1833965,1000,12,0,1,356.611,-2.147,8.539,562.060,0.356,0.987
1782117388.567718,0.326000,1833966,1000,12,0,1,357.259,-1.882,8.538,563.597,0.947,0.987
1782117388.568718,0.327000,1833967,1000,12,0,1,356.347,-1.453,8.472,565.543,3.023,1.054
1782117388.569718,0.328000,1833968,1000,12,0,1,355.626,-2.036,8.356,563.597,1.193,1.034
1782117388.570718,0.329000,1833969,1000,12,0,1,354.737,-1.683,8.324,562.228,-0.810,1.039
1782117388.571718,0.330000,1833970,1000,12,0,1,357.187,0.633,8.323,561.819,-0.742,1.042
1782117388.572718,0.331000,1833971,1000,12,0,1,360.190,4.239,8.270,564.174,0.798,1.048
1782117388.573718,0.332000,1833972,1000,12,0,1,360.070,4.238,8.258,563.501,1.177,1.034
1782117388.574718,0.333000,1833973,1000,12,0,1,359.493,3.071,8.267,561.075,-1.795,1.055
1782117388.575718,0.334000,1833974,1000,12,0,1,359.013,2.562,8.262,561.916,-0.985,1.026
1782117388.576718,0.335000,1833975,1000,12,0,1,352.888,-2.603,8.213,562.348,-0.138,1.027
1782117388.577718,0.336000,1833976,1000,12,0,1,347.291,-7.978,8.236,563.525,0.495,1.024
1782117388.578718,0.337000,1833977,1000,12,0,1,343.424,-10.018,8.311,563.333,0.739,1.028
1782117388.579718,0.338000,1833978,1000,12,0,1,348.924,-5.087,8.342,564.149,0.617,1.032
1782117388.580718,0.339000,1833979,1000,12,0,1,348.252,-2.467,8.314,563.117,0.240,1.007
1782117388.581718,0.340000,1833980,1000,12,0,1,345.393,-6.101,8.358,562.852,-0.895,0.981
1782117388.582718,0.341000,1833981,1000,12,0,1,343.712,-5.983,8.165,563.237,-0.140,0.981
1782117388.583718,0.342000,1833982,1000,12,0,1,342.223,-6.647,8.213,562.060,-1.235,0.996
1782117388.584718,0.343000,1833983,1000,12,0,1,342.223,-5.482,7.473,562.228,-1.305,1.007
1782117388.585718,0.344000,1833984,1000,12,0,1,342.078,-4.071,6.037,564.678,1.017,1.014
1782117388.586718,0.345000,1833985,1000,12,0,1,339.148,-5.357,4.954,564.942,1.486,1.033
1782117388.587718,0.346000,1833986,1000,12,0,1,339.844,-3.841,4.336,563.189,-0.347,1.033
1782117388.588718,0.347000,1833987,1000,12,0,1,345.922,2.743,4.188,562.804,-0.977,1.042
1782117388.589718,0.348000,1833988,1000,12,0,1,349.164,7.142,4.296,559.658,-2.878,1.117
1782117388.590718,0.349000,1833989,1000,12,0,1,357.356,12.652,4.649,560.138,-3.131,1.200
1782117388.591718,0.350000,1833990,1000,12,0,1,361.943,17.442,5.262,561.123,-0.719,1.202
1782117388.592718,0.351000,1833991,1000,12,0,1,357.380,11.177,5.494,563.981,1.204,1.214
1782117388.593718,0.352000,1833992,1000,12,0,1,356.275,7.860,5.586,563.813,2.134,1.251
1782117388.594718,0.353000,1833993,1000,12,0,1,354.017,5.847,5.616,561.267,-0.890,1.257
1782117388.595718,0.354000,1833994,1000,12,0,1,351.470,2.107,5.605,562.060,-0.392,1.255
1782117388.596718,0.355000,1833995,1000,12,0,1,347.411,-0.909,5.564,562.852,0.842,1.254
1782117388.597718,0.356000,1833996,1000,12,0,1,344.192,-4.273,5.529,562.252,0.013,1.249
1782117388.598718,0.357000,1833997,1000,12,0,1,343.303,-4.134,5.530,562.876,0.472,1.246
1782117388.599718,0.358000,1833998,1000,12,0,1,341.574,-4.795,5.569,562.588,0.287,1.234
1782117388.600718,0.359000,1833999,1000,12,0,1,339.220,-6.160,5.636,563.141,0.403,1.235
1782117388.601718,0.360000,1834000,1000,12,0,1,339.772,-5.072,5.677,563.525,0.844,1.240
1782117388.602718,0.361000,1834001,1000,12,0,1,340.157,-3.560,5.675,563.525,0.565,1.242
1782117388.603718,0.362000,1834002,1000,12,0,1,337.947,-4.793,5.668,563.717,0.568,1.243
1782117388.604718,0.363000,1834003,1000,12,0,1,338.571,-4.198,5.561,563.861,0.597,1.243
1782117388.605718,0.364000,1834004,1000,12,0,1,340.349,-1.472,5.386,563.525,0.182,1.182
1782117388.606718,0.365000,1834005,1000,12,0,1,346.354,3.249,5.390,562.324,-0.811,1.170
1782117388.607718,0.366000,1834006,1000,12,0,1,351.326,8.270,5.497,563.861,0.122,1.168
1782117388.608718,0.367000,1834007,1000,12,0,1,352.479,7.946,5.594,563.357,0.527,1.170
1782117388.609718,0.368000,1834008,1000,12,0,1,352.335,6.680,5.671,561.003,-1.967,1.199
1782117388.610718,0.369000,1834009,1000,12,0,1,349.525,3.492,5.692,562.660,-0.588,1.166
1782117388.611718,0.370000,1834010,1000,12,0,1,348.732,1.648,5.681,563.069,0.646,1.166
1782117388.612718,0.371000,1834011,1000,12,0,1,342.847,-2.166,5.689,563.429,0.396,1.147
1782117388.613718,0.372000,1834012,1000,12,0,1,340.661,-5.137,5.727,563.549,0.909,1.132
1782117388.614718,0.373000,1834013,1000,12,0,1,345.826,1.058,5.728,563.597,0.505,1.134
1782117388.615718,0.374000,1834014,1000,12,0,1,347.891,4.031,5.755,561.795,-0.724,1.135
1782117388.616718,0.375000,1834015,1000,12,0,1,350.606,5.622,5.802,561.315,-1.680,1.159
1782117388.617718,0.376000,1834016,1000,12,0,1,361.823,14.252,6.136,561.892,-0.678,1.155
1782117388.618718,0.377000,1834017,1000,12,0,1,361.487,14.340,6.459,564.702,1.437,1.092
1782117388.619718,0.378000,1834018,1000,12,0,1,352.071,2.511,6.463,562.108,0.077,1.079
1782117388.620718,0.379000,1834019,1000,12,0,1,355.962,2.935,6.472,561.507,-1.878,1.105
1782117388.621718,0.380000,1834020,1000,12,0,1,362.160,8.764,6.589,564.966,1.716,1.127
1782117388.622718,0.381000,1834021,1000,12,0,1,357.476,3.001,6.575,562.276,0.001,1.121
1782117388.623718,0.382000,1834022,1000,12,0,1,354.953,-1.966,6.554,561.988,-1.686,1.134
1782117388.624718,0.383000,1834023,1000,12,0,1,354.737,-2.444,6.548,563.213,0.522,1.108
1782117388.625718,0.384000,1834024,1000,12,0,1,350.077,-6.757,6.608,563.717,0.421,1.100
1782117388.626718,0.385000,1834025,1000,12,0,1,342.391,-13.369,6.863,562.948,0.231,1.101
1782117388.627718,0.386000,1834026,1000,12,0,1,356.539,-2.830,6.781,564.342,0.725,1.103
1782117388.628718,0.387000,1834027,1000,12,0,1,365.643,9.411,6.764,564.149,1.299,1.114
1782117388.629718,0.388000,1834028,1000,12,0,1,364.370,5.099,6.764,562.636,-0.583,1.113
1782117388.630718,0.389000,1834029,1000,12,0,1,362.976,2.964,6.768,566.143,2.020,1.149
1782117388.631718,0.390000,1834030,1000,12,0,1,360.983,0.116,6.713,563.789,1.264,1.156
1782117388.632718,0.391000,1834031,1000,12,0,1,358.460,-2.608,6.670,561.267,-2.556,1.211
1782117388.633718,0.392000,1834032,1000,12,0,1,356.179,-4.311,6.631,562.612,-0.596,1.201
1782117388.634718,0.393000,1834033,1000,12,0,1,351.759,-7.564,6.672,563.885,0.558,1.189
1782117388.635718,0.394000,1834034,1000,12,0,1,352.527,-6.495,6.710,563.861,0.701,1.185
1782117388.636718,0.395000,1834035,1000,12,0,1,354.329,-3.185,6.683,562.396,-0.694,1.170
1782117388.637718,0.396000,1834036,1000,12,0,1,351.374,-4.634,6.693,562.708,-0.803,1.175
1782117388.638718,0.397000,1834037,1000,12,0,1,345.081,-9.462,6.814,565.639,1.844,1.195
1782117388.639718,0.398000,1834038,1000,12,0,1,341.382,-11.577,6.935,564.726,1.340,1.140
1782117388.640718,0.399000,1834039,1000,12,0,1,339.292,-11.357,6.890,565.399,0.735,1.055
1782117388.641718,0.400000,1834040,1000,12,0,1,336.746,-11.441,6.634,565.591,1.331,1.067
1782117388.642718,0.401000,1834041,1000,12,0,1,339.364,-7.966,6.540,564.101,-0.585,1.057
1782117388.643718,0.402000,1834042,1000,12,0,1,346.810,0.359,6.445,563.237,-1.460,1.034
1782117388.644718,0.403000,1834043,1000,12,0,1,359.301,10.906,6.575,564.149,-0.695,1.031
1782117388.645718,0.404000,1834044,1000,12,0,1,360.911,13.048,6.823,564.198,-0.308,1.030
1782117388.646718,0.405000,1834045,1000,12,0,1,354.737,4.356,6.849,564.222,-0.429,1.025
1782117388.647718,0.406000,1834046,1000,12,0,1,354.497,2.369,6.831,564.990,0.290,1.026
1782117388.648718,0.407000,1834047,1000,12,0,1,353.200,1.499,6.809,563.861,-0.351,1.025
1782117388.649718,0.408000,1834048,1000,12,0,1,351.927,-0.683,6.776,563.957,-0.753,1.029
1782117388.650718,0.409000,1834049,1000,12,0,1,354.281,1.668,6.724,564.558,0.326,1.029
1782117388.651718,0.410000,1834050,1000,12,0,1,354.689,2.485,6.695,564.005,-0.251,1.023
1782117388.652718,0.411000,1834051,1000,12,0,1,357.091,3.999,6.700,564.558,0.146,1.020
1782117388.653718,0.412000,1834052,1000,12,0,1,361.703,8.120,6.764,564.558,0.387,1.018
1782117388.654718,0.413000,1834053,1000,12,0,1,364.538,10.035,6.885,564.678,0.191,1.015
1782117388.655718,0.414000,1834054,1000,12,0,1,363.769,8.369,6.983,564.726,0.344,1.016
1782117388.656718,0.415000,1834055,1000,12,0,1,362.208,5.543,7.012,563.981,-0.447,1.011
1782117388.657718,0.416000,1834056,1000,12,0,1,363.337,5.276,6.954,565.351,0.388,1.012
1782117388.658718,0.417000,1834057,1000,12,0,1,360.502,2.693,6.873,563.789,-0.352,1.011
1782117388.659718,0.418000,1834058,1000,12,0,1,356.179,-2.552,6.817,562.756,-2.080,1.015
1782117388.660718,0.419000,1834059,1000,12,0,1,354.761,-3.988,6.823,562.756,-1.459,1.033
1782117388.661718,0.420000,1834060,1000,12,0,1,354.209,-4.346,6.847,563.957,-0.603,1.032
1782117388.662718,0.421000,1834061,1000,12,0,1,348.276,-8.680,6.949,565.471,1.059,1.042
1782117388.663718,0.422000,1834062,1000,12,0,1,338.211,-16.943,7.315,564.990,0.643,1.038
1782117388.664718,0.423000,1834063,1000,12,0,1,330.861,-21.787,7.936,564.654,-0.077,1.035
1782117388.665718,0.424000,1834064,1000,12,0,1,327.834,-21.339,8.471,564.510,-0.010,1.030
1782117388.666718,0.425000,1834065,1000,12,0,1,327.738,-18.012,8.810,564.558,-0.162,1.003
1782117388.667718,0.426000,1834066,1000,12,0,1,338.908,-6.216,8.621,565.302,0.611,1.002
1782117388.668718,0.427000,1834067,1000,12,0,1,368.333,20.137,8.850,566.191,1.300,0.998
1782117388.669718,0.428000,1834068,1000,12,0,1,383.922,35.147,10.144,567.681,2.394,1.054
1782117388.670718,0.429000,1834069,1000,12,0,1,378.950,25.031,10.736,565.831,0.965,1.029
1782117388.671718,0.430000,1834070,1000,12,0,1,371.528,13.374,10.831,565.351,-0.401,1.002
1782117388.672718,0.431000,1834071,1000,12,0,1,372.633,10.383,10.921,563.501,-1.218,1.016
1782117388.673718,0.432000,1834072,1000,12,0,1,371.672,8.712,10.987,565.879,-0.178,0.988
1782117388.674718,0.433000,1834073,1000,12,0,1,365.475,1.398,10.983,565.182,0.729,0.991
1782117388.675718,0.434000,1834074,1000,12,0,1,360.742,-3.643,10.954,565.615,-0.314,0.990
1782117388.676718,0.435000,1834075,1000,12,0,1,358.941,-4.657,10.810,565.591,0.592,0.993
1782117388.677718,0.436000,1834076,1000,12,0,1,362.928,-1.019,10.803,565.639,-0.139,0.988
1782117388.678718,0.437000,1834077,1000,12,0,1,366.435,3.487,10.732,566.023,0.372,0.972
1782117388.679718,0.438000,1834078,1000,12,0,1,362.664,0.116,10.708,565.158,-0.434,0.971
1782117388.680718,0.439000,1834079,1000,12,0,1,361.871,-1.782,10.703,564.870,-1.102,0.941
1782117388.681718,0.440000,1834080,1000,12,0,1,360.766,-1.965,10.706,565.110,-0.556,0.927
1782117388.682718,0.441000,1834081,1000,12,0,1,361.007,-2.803,10.707,564.342,-1.334,0.874
1782117388.683718,0.442000,1834082,1000,12,0,1,361.487,-2.089,10.694,564.870,-0.848,0.878
1782117388.684718,0.443000,1834083,1000,12,0,1,362.448,-2.246,10.645,566.480,0.601,0.879
1782117388.685718,0.444000,1834084,1000,12,0,1,361.703,-3.083,10.614,566.119,0.595,0.877
1782117388.686718,0.445000,1834085,1000,12,0,1,357.115,-7.582,10.659,565.879,-0.155,0.872
1782117388.687718,0.446000,1834086,1000,12,0,1,354.233,-10.681,10.745,566.984,0.923,0.874
1782117388.688718,0.447000,1834087,1000,12,0,1,350.678,-12.362,10.804,565.831,0.091,0.835
1782117388.689718,0.448000,1834088,1000,12,0,1,345.681,-15.717,10.908,566.143,-0.200,0.813
1782117388.690718,0.449000,1834089,1000,12,0,1,343.712,-15.438,11.008,564.558,-0.807,0.815
1782117388.691718,0.450000,1834090,1000,12,0,1,355.458,-4.150,10.904,563.405,-2.324,0.858
1782117388.692718,0.451000,1834091,1000,12,0,1,368.573,10.360,10.944,563.117,-1.811,0.892
1782117388.693718,0.452000,1834092,1000,12,0,1,365.787,8.385,11.008,564.558,-0.577,0.871
1782117388.694718,0.453000,1834093,1000,12,0,1,366.027,5.644,10.929,565.543,0.910,0.875
1782117388.695718,0.454000,1834094,1000,12,0,1,371.624,11.053,10.885,566.143,1.177,0.890
1782117388.696718,0.455000,1834095,1000,12,0,1,372.777,11.209,10.982,565.182,0.472,0.890
1782117388.697718,0.456000,1834096,1000,12,0,1,365.595,4.462,10.995,564.558,-0.477,0.892
1782117388.698718,0.457000,1834097,1000,12,0,1,358.941,-2.796,11.001,564.678,-0.290,0.891
1782117388.699718,0.458000,1834098,1000,12,0,1,358.893,-2.374,11.005,562.540,-1.784,0.920
1782117388.700718,0.459000,1834099,1000,12,0,1,361.727,1.053,11.004,564.222,-1.044,0.931
1782117388.701718,0.460000,1834100,1000,12,0,1,362.976,2.559,11.004,565.567,1.247,0.947
1782117388.702718,0.461000,1834101,1000,12,0,1,365.619,4.166,11.005,566.119,0.984,0.957
1782117388.703718,0.462000,1834102,1000,12,0,1,370.231,7.327,10.994,566.095,1.217,0.971
1782117388.704718,0.463000,1834103,1000,12,0,1,369.078,5.610,10.931,565.999,0.598,0.974
1782117388.705718,0.464000,1834104,1000,12,0,1,364.394,-0.740,10.867,565.399,0.174,0.973
1782117388.706718,0.465000,1834105,1000,12,0,1,359.662,-5.695,10.869,565.038,-0.368,0.972
1782117388.707718,0.466000,1834106,1000,12,0,1,357.259,-8.454,10.909,565.230,-0.117,0.971
1782117388.708718,0.467000,1834107,1000,12,0,1,351.326,-12.238,11.039,566.672,1.098,0.982
1782117388.709718,0.468000,1834108,1000,12,0,1,344.649,-17.514,11.307,564.246,-0.452,0.939
1782117388.710718,0.469000,1834109,1000,12,0,1,355.362,-7.808,11.347,564.894,-0.839,0.924
1782117388.711718,0.470000,1834110,1000,12,0,1,360.262,1.133,11.332,566.480,1.474,0.943
1782117388.712718,0.471000,1834111,1000,12,0,1,352.071,-6.495,11.302,565.495,0.451,0.933
1782117388.713718,0.472000,1834112,1000,12,0,1,346.162,-10.935,11.153,565.278,-0.047,0.929
1782117388.714718,0.473000,1834113,1000,12,0,1,343.664,-10.768,10.827,566.504,1.118,0.942
1782117388.715718,0.474000,1834114,1000,12,0,1,345.129,-7.269,10.448,565.951,0.687,0.947
1782117388.716718,0.475000,1834115,1000,12,0,1,347.747,-2.015,10.137,565.278,-0.235,0.948
1782117388.717718,0.476000,1834116,1000,12,0,1,358.124,7.407,10.153,565.999,0.227,0.944
1782117388.718718,0.477000,1834117,1000,12,0,1,363.913,14.815,9.968,566.455,0.733,0.932
1782117388.719718,0.478000,1834118,1000,12,0,1,358.220,8.591,8.726,566.311,0.287,0.869
1782117388.720718,0.479000,1834119,1000,12,0,1,356.563,5.201,8.009,566.239,0.098,0.858
1782117388.721718,0.480000,1834120,1000,12,0,1,355.314,4.740,7.811,567.512,0.815,0.864
1782117388.722718,0.481000,1834121,1000,12,0,1,349.333,-0.933,7.673,565.879,-0.202,0.847
1782117388.723718,0.482000,1834122,1000,12,0,1,345.105,-4.722,7.603,567.056,-0.302,0.848
1782117388.724718,0.483000,1834123,1000,12,0,1,343.255,-5.415,7.639,565.423,-0.544,0.845
1782117388.725718,0.484000,1834124,1000,12,0,1,341.430,-5.852,7.666,564.318,-2.563,0.919
1782117388.726718,0.485000,1834125,1000,12,0,1,337.923,-7.596,7.713,567.320,0.543,0.918
1782117388.727718,0.486000,1834126,1000,12,0,1,342.703,-3.410,7.727,568.593,2.062,0.963
1782117388.728718,0.487000,1834127,1000,12,0,1,357.404,10.258,7.847,568.353,1.314,0.979
1782117388.729718,0.488000,1834128,1000,12,0,1,375.899,25.146,8.615,566.528,-0.139,0.978
1782117388.730718,0.489000,1834129,1000,12,0,1,388.630,33.300,9.815,565.807,-1.366,0.984
1782117388.731718,0.490000,1834130,1000,12,0,1,393.651,31.953,10.801,565.134,-1.277,0.998
1782117388.732718,0.491000,1834131,1000,12,0,1,391.321,24.158,11.322,565.327,-1.342,0.998
1782117388.733718,0.492000,1834132,1000,12,0,1,384.835,13.018,11.467,566.143,-0.084,0.991
1782117388.734718,0.493000,1834133,1000,12,0,1,379.334,4.269,11.478,567.705,1.093,0.999
1782117388.735718,0.494000,1834134,1000,12,0,1,373.666,-2.299,11.475,566.311,0.345,0.997
1782117388.736718,0.495000,1834135,1000,12,0,1,369.054,-7.317,11.471,566.480,-0.397,0.998
1782117388.737718,0.496000,1834136,1000,12,0,1,366.603,-8.815,11.439,565.999,-0.152,0.990
1782117388.738718,0.497000,1834137,1000,12,0,1,365.066,-9.112,11.378,566.744,-0.190,0.990
1782117388.739718,0.498000,1834138,1000,12,0,1,371.023,-3.548,11.170,566.263,-0.028,0.990
1782117388.740718,0.499000,1834139,1000,12,0,1,377.389,3.553,10.966,566.552,-0.415,0.985
1782117388.741718,0.500000,1834140,1000,12,0,1,379.743,4.722,10.971,565.519,-0.802,0.935
1782117388.742718,0.501000,1834141,1000,12,0,1,376.260,0.946,10.874,565.062,-1.615,0.928
1782117388.743718,0.502000,1834142,1000,12,0,1,373.978,-3.205,10.818,565.014,-1.239,0.941
1782117388.744718,0.503000,1834143,1000,12,0,1,369.822,-6.705,10.830,565.399,-0.819,0.939
1782117388.745718,0.504000,1834144,1000,12,0,1,364.442,-12.246,10.856,566.071,-0.069,0.924
1782117388.746718,0.505000,1834145,1000,12,0,1,358.412,-16.664,10.995,565.663,-0.108,0.922
1782117388.747718,0.506000,1834146,1000,12,0,1,353.921,-19.620,11.322,566.744,0.425,0.922
1782117388.748718,0.507000,1834147,1000,12,0,1,346.738,-23.097,11.777,565.591,0.219,0.921
1782117388.749718,0.508000,1834148,1000,12,0,1,339.772,-26.727,12.364,564.966,-1.047,0.898
1782117388.750718,0.509000,1834149,1000,12,0,1,344.048,-20.239,12.691,564.798,-0.443,0.888
1782117388.751718,0.510000,1834150,1000,12,0,1,361.439,-1.769,12.688,564.029,-1.147,0.886
1782117388.752718,0.511000,1834151,1000,12,0,1,369.150,8.354,12.729,563.189,-1.457,0.898
1782117388.753718,0.512000,1834152,1000,12,0,1,367.805,5.858,12.714,565.903,0.722,0.888
1782117388.754718,0.513000,1834153,1000,12,0,1,363.072,1.706,12.691,567.560,2.910,0.975
1782117388.755718,0.514000,1834154,1000,12,0,1,356.851,-3.669,12.702,567.056,1.940,1.012
1782117388.756718,0.515000,1834155,1000,12,0,1,354.017,-5.237,12.698,564.990,0.009,1.011
1782117388.757718,0.516000,1834156,1000,12,0,1,351.374,-4.957,12.661,565.927,0.155,1.011
1782117388.758718,0.517000,1834157,1000,12,0,1,349.357,-5.023,12.562,566.960,1.508,1.022
1782117388.759718,0.518000,1834158,1000,12,0,1,347.651,-3.712,12.326,566.143,0.496,1.022
1782117388.760718,0.519000,1834159,1000,12,0,1,351.230,0.581,12.277,565.230,-0.574,1.018
1782117388.761718,0.520000,1834160,1000,12,0,1,364.225,13.092,12.415,563.981,-1.494,1.019
1782117388.762718,0.521000,1834161,1000,12,0,1,376.572,24.026,12.839,565.182,-0.793,1.023
1782117388.763718,0.522000,1834162,1000,12,0,1,375.059,21.069,13.089,565.663,0.401,1.025
1782117388.764718,0.523000,1834163,1000,12,0,1,372.489,13.915,13.148,566.263,0.377,1.014
1782117388.765718,0.524000,1834164,1000,12,0,1,372.008,11.321,13.205,568.041,2.084,1.051
1782117388.766718,0.525000,1834165,1000,12,0,1,369.870,6.746,13.237,567.248,1.383,1.069
1782117388.767718,0.526000,1834166,1000,12,0,1,366.291,1.658,13.197,565.591,-0.547,1.071
1782117388.768718,0.527000,1834167,1000,12,0,1,362.064,-3.405,13.039,567.729,0.955,1.075
1782117388.769718,0.528000,1834168,1000,12,0,1,360.238,-5.926,13.009,566.215,0.497,1.076
1782117388.770718,0.529000,1834169,1000,12,0,1,358.364,-6.944,13.025,566.816,-0.218,1.076
1782117388.771718,0.530000,1834170,1000,12,0,1,361.943,-4.444,13.023,565.615,-0.083,1.070
1782117388.772718,0.531000,1834171,1000,12,0,1,366.051,0.599,13.023,564.101,-2.195,1.114
1782117388.773718,0.532000,1834172,1000,12,0,1,368.357,1.980,13.009,565.951,-0.229,1.114
1782117388.774718,0.533000,1834173,1000,12,0,1,368.237,2.033,12.989,566.480,0.765,1.116
1782117388.775718,0.534000,1834174,1000,12,0,1,367.108,0.397,12.963,566.672,0.445,1.058
1782117388.776718,0.535000,1834175,1000,12,0,1,363.433,-2.320,12.923,566.383,0.488,1.057
1782117388.777718,0.536000,1834176,1000,12,0,1,363.745,-2.472,12.918,565.110,-0.973,1.026
1782117388.778718,0.537000,1834177,1000,12,0,1,361.343,-2.604,12.842,565.567,-0.629,1.012
1782117388.779718,0.538000,1834178,1000,12,0,1,361.127,-3.194,12.348,566.480,0.303,1.013
1782117388.780718,0.539000,1834179,1000,12,0,1,356.539,-4.738,11.434,566.480,0.310,0.996
1782117388.781718,0.540000,1834180,1000,12,0,1,351.879,-8.849,10.578,564.918,-1.071,0.991
1782117388.782718,0.541000,1834181,1000,12,0,1,353.080,-6.181,10.049,565.639,-0.837,0.980
1782117388.783718,0.542000,1834182,1000,12,0,1,349.285,-6.850,9.926,567.753,1.348,0.998
1782117388.784718,0.543000,1834183,1000,12,0,1,337.779,-15.610,10.151,567.921,1.480,1.008
1782117388.785718,0.544000,1834184,1000,12,0,1,341.910,-11.794,10.282,565.278,-0.942,1.015
1782117388.786718,0.545000,1834185,1000,12,0,1,354.089,2.439,10.236,568.545,0.892,1.022
1782117388.787718,0.546000,1834186,1000,12,0,1,355.290,4.842,10.182,569.554,3.015,1.107
1782117388.788718,0.547000,1834187,1000,12,0,1,367.853,12.082,10.244,567.104,-0.133,1.107
1782117388.789718,0.548000,1834188,1000,12,0,1,367.853,14.711,10.441,567.104,-0.391,1.108
1782117388.790718,0.549000,1834189,1000,12,0,1,385.195,20.755,10.834,566.984,-0.134,1.107
1782117388.791718,0.550000,1834190,1000,12,0,1,389.135,27.606,11.497,567.536,-0.013,1.101
1782117388.792718,0.551000,1834191,1000,12,0,1,378.710,9.875,11.580,566.888,-0.029,1.077
1782117388.793718,0.552000,1834192,1000,12,0,1,366.459,-1.915,11.575,564.558,-2.291,1.111
1782117388.794718,0.553000,1834193,1000,12,0,1,358.340,-11.031,11.641,565.471,-1.534,1.126
1782117388.795718,0.554000,1834194,1000,12,0,1,353.608,-13.345,11.665,568.161,1.256,1.140
1782117388.796718,0.555000,1834195,1000,12,0,1,350.438,-13.489,11.583,568.401,1.647,1.163
1782117388.797718,0.556000,1834196,1000,12,0,1,355.362,-7.810,11.300,567.993,0.717,1.166
1782117388.798718,0.557000,1834197,1000,12,0,1,363.937,3.300,10.827,568.089,0.634,1.169
1782117388.799718,0.558000,1834198,1000,12,0,1,362.640,3.233,10.156,566.600,-0.705,1.164
1782117388.800718,0.559000,1834199,1000,12,0,1,363.721,3.371,9.756,566.840,-1.016,1.171
1782117388.801718,0.560000,1834200,1000,12,0,1,365.090,5.083,9.780,568.617,0.777,1.165
1782117388.802718,0.561000,1834201,1000,12,0,1,358.196,-0.741,9.708,566.239,-0.968,1.155
1782117388.803718,0.562000,1834202,1000,12,0,1,348.612,-9.927,9.774,565.230,-2.606,1.208
1782117388.804718,0.563000,1834203,1000,12,0,1,346.834,-10.990,9.894,568.161,0.336,1.137
1782117388.805718,0.564000,1834204,1000,12,0,1,348.516,-7.718,9.941,566.383,-0.391,1.104
1782117388.806718,0.565000,1834205,1000,12,0,1,346.402,-7.970,9.977,567.128,-0.883,1.111
1782117388.807718,0.566000,1834206,1000,12,0,1,353.056,-3.036,9.962,565.687,-0.700,1.116
1782117388.808718,0.567000,1834207,1000,12,0,1,368.141,10.954,10.056,565.591,-1.812,1.125
1782117388.809718,0.568000,1834208,1000,12,0,1,376.812,17.551,10.345,565.399,-0.734,1.127
1782117388.810718,0.569000,1834209,1000,12,0,1,373.786,12.256,10.489,566.888,0.016,1.124
1782117388.811718,0.570000,1834210,1000,12,0,1,374.290,8.305,10.390,566.672,0.772,1.110
1782117388.812718,0.571000,1834211,1000,12,0,1,373.353,6.803,9.866,564.318,-1.543,1.125
1782117388.813718,0.572000,1834212,1000,12,0,1,367.252,-0.412,9.406,564.222,-1.681,1.149
1782117388.814718,0.573000,1834213,1000,12,0,1,358.701,-7.887,9.265,566.792,1.010,1.156
1782117388.815718,0.574000,1834214,1000,12,0,1,357.211,-9.084,9.216,566.383,1.070,1.128
1782117388.816718,0.575000,1834215,1000,12,0,1,370.111,3.292,9.178,566.744,0.784,1.117
1782117388.817718,0.576000,1834216,1000,12,0,1,372.272,8.712,9.257,565.879,0.409,1.116
1782117388.818718,0.577000,1834217,1000,12,0,1,365.018,0.472,9.245,565.903,-0.141,1.108
1782117388.819718,0.578000,1834218,1000,12,0,1,361.247,-2.469,9.213,565.399,-0.178,1.106
1782117388.820718,0.579000,1834219,1000,12,0,1,357.812,-4.512,9.183,563.741,-1.699,1.131
1782117388.821718,0.580000,1834220,1000,12,0,1,359.109,-3.092,9.172,564.678,-1.057,1.141
1782117388.822718,0.581000,1834221,1000,12,0,1,362.256,1.012,9.173,565.903,0.675,1.102
1782117388.823718,0.582000,1834222,1000,12,0,1,364.634,2.707,9.177,566.792,1.132,1.113
1782117388.824718,0.583000,1834223,1000,12,0,1,358.965,-1.715,9.175,566.143,0.875,1.115
1782117388.825718,0.584000,1834224,1000,12,0,1,346.090,-13.728,9.378,565.927,0.109,1.113
1782117388.826718,0.585000,1834225,1000,12,0,1,331.509,-25.158,10.025,566.816,1.082,1.121
1782117388.827718,0.586000,1834226,1000,12,0,1,343.327,-15.436,10.254,566.816,1.043,1.123
1782117388.828718,0.587000,1834227,1000,12,0,1,371.816,13.460,10.423,564.630,-0.769,1.124
1782117388.829718,0.588000,1834228,1000,12,0,1,390.168,28.829,11.183,566.528,0.221,1.124
1782117388.830718,0.589000,1834229,1000,12,0,1,396.053,29.222,11.903,565.591,0.634,1.127
1782117388.831718,0.590000,1834230,1000,12,0,1,383.298,14.184,12.006,566.119,-0.056,1.117
1782117388.832718,0.591000,1834231,1000,12,0,1,366.363,-6.243,12.006,564.630,-0.168,1.111
1782117388.833718,0.592000,1834232,1000,12,0,1,360.694,-11.938,12.086,564.029,-1.559,1.116
1782117388.834718,0.593000,1834233,1000,12,0,1,363.385,-8.300,11.940,565.062,0.032,1.096
1782117388.835718,0.594000,1834234,1000,12,0,1,370.303,-0.438,11.823,567.729,2.109,1.128
1782117388.836718,0.595000,1834235,1000,12,0,1,385.268,12.624,11.952,565.495,0.806,1.127
1782117388.837718,0.596000,1834236,1000,12,0,1,393.915,21.040,12.298,565.230,-0.686,1.048
1782117388.838718,0.597000,1834237,1000,12,0,1,398.479,21.177,12.542,567.392,1.638,1.073
1782117388.839718,0.598000,1834238,1000,12,0,1,397.158,17.961,12.626,566.239,0.758,1.077
1782117388.840718,0.599000,1834239,1000,12,0,1,393.435,10.548,12.370,564.678,-1.318,1.093
1782117388.841718,0.600000,1834240,1000,12,0,1,382.793,0.011,11.738,567.705,1.164,1.105
1782117388.842718,0.601000,1834241,1000,12,0,1,361.175,-19.633,11.981,565.663,0.230,1.105
1782117388.843718,0.602000,1834242,1000,12,0,1,358.893,-23.565,12.433,565.110,-1.526,1.079
1782117388.844718,0.603000,1834243,1000,12,0,1,360.863,-15.897,12.538,565.278,-0.482,1.059
1782117388.845718,0.604000,1834244,1000,12,0,1,372.128,-7.483,12.440,564.726,-1.182,1.057
1782117388.846718,0.605000,1834245,1000,12,0,1,381.712,4.344,12.308,565.663,-0.258,1.032
1782117388.847718,0.606000,1834246,1000,12,0,1,391.801,9.204,12.328,566.239,0.640,1.031
1782117388.848718,0.607000,1834247,1000,12,0,1,391.008,8.428,12.376,566.840,0.849,1.034
1782117388.849718,0.608000,1834248,1000,12,0,1,368.213,-13.978,12.525,564.918,-0.278,1.030
1782117388.850718,0.609000,1834249,1000,12,0,1,365.426,-21.122,12.867,564.702,-1.248,1.035
1782117388.851718,0.610000,1834250,1000,12,0,1,377.341,-6.255,12.878,565.471,0.236,1.029
1782117388.852718,0.611000,1834251,1000,12,0,1,375.155,-6.690,12.912,566.768,1.007,1.030
1782117388.853718,0.612000,1834252,1000,12,0,1,373.714,-8.527,12.892,566.119,0.934,0.971
1782117388.854718,0.613000,1834253,1000,12,0,1,365.018,-12.738,12.924,566.167,0.257,0.971
1782117388.855718,0.614000,1834254,1000,12,0,1,353.368,-21.765,13.240,566.215,0.629,0.973
1782117388.856718,0.615000,1834255,1000,12,0,1,344.553,-24.665,13.646,567.200,0.991,0.975
1782117388.857718,0.616000,1834256,1000,12,0,1,340.973,-22.968,14.020,564.582,-0.735,0.976
1782117388.858718,0.617000,1834257,1000,12,0,1,337.707,-19.186,14.196,565.375,-1.184,0.956
1782117388.859718,0.618000,1834258,1000,12,0,1,339.724,-12.879,14.096,566.480,0.776,0.957
1782117388.860718,0.619000,1834259,1000,12,0,1,346.594,-1.842,13.991,566.504,0.284,0.958
1782117388.861718,0.620000,1834260,1000,12,0,1,354.089,7.686,13.984,567.368,0.926,0.960
1782117388.862718,0.621000,1834261,1000,12,0,1,362.688,15.845,14.130,566.720,0.485,0.938
1782117388.863718,0.622000,1834262,1000,12,0,1,370.062,21.788,14.462,565.471,-1.078,0.920
1782117388.864718,0.623000,1834263,1000,12,0,1,373.762,22.357,14.761,564.342,-1.739,0.941
1782117388.865718,0.624000,1834264,1000,12,0,1,371.312,17.422,14.910,565.110,-1.294,0.947
1782117388.866718,0.625000,1834265,1000,12,0,1,365.138,8.371,14.950,564.510,-0.904,0.949
1782117388.867718,0.626000,1834266,1000,12,0,1,359.469,1.201,14.900,567.969,1.202,0.963
1782117388.868718,0.627000,1834267,1000,12,0,1,352.720,-5.508,14.920,567.777,2.461,1.023
1782117388.869718,0.628000,1834268,1000,12,0,1,347.699,-10.026,14.983,566.335,-0.186,1.023
1782117388.870718,0.629000,1834269,1000,12,0,1,348.516,-8.330,15.016,566.359,0.228,0.995
1782117388.871718,0.630000,1834270,1000,12,0,1,360.454,2.758,15.015,564.654,-1.181,0.998
1782117388.872718,0.631000,1834271,1000,12,0,1,378.061,18.904,15.250,564.726,-1.430,1.014
1782117388.873718,0.632000,1834272,1000,12,0,1,382.433,22.464,15.573,564.798,-0.583,1.004
1782117388.874718,0.633000,1834273,1000,12,0,1,375.347,12.795,15.676,563.765,-1.598,1.022
1782117388.875718,0.634000,1834274,1000,12,0,1,363.096,0.602,15.555,565.495,-0.019,1.022
1782117388.876718,0.635000,1834275,1000,12,0,1,348.828,-11.974,15.237,564.918,0.149,1.011
1782117388.877718,0.636000,1834276,1000,12,0,1,338.643,-18.897,15.315,564.654,-0.644,1.004
1782117388.878718,0.637000,1834277,1000,12,0,1,335.689,-17.789,15.403,565.495,0.421,1.000
1782117388.879718,0.638000,1834278,1000,12,0,1,336.145,-12.875,14.965,565.543,0.440,1.001
1782117388.880718,0.639000,1834279,1000,12,0,1,335.353,-9.562,14.447,565.038,-0.092,0.997
1782117388.881718,0.640000,1834280,1000,12,0,1,337.226,-5.560,14.328,566.287,0.745,1.003
1782117388.882718,0.641000,1834281,1000,12,0,1,333.623,-5.162,14.320,565.879,0.731,1.008
1782117388.883718,0.642000,1834282,1000,12,0,1,331.389,-6.859,14.253,564.990,-0.490,0.986
1782117388.884718,0.643000,1834283,1000,12,0,1,328.579,-6.467,14.234,565.206,-0.242,0.987
1782117388.885718,0.644000,1834284,1000,12,0,1,328.867,-5.979,14.259,565.230,-0.048,0.940
1782117388.886718,0.645000,1834285,1000,12,0,1,330.332,-2.631,14.151,566.239,0.634,0.938
1782117388.887718,0.646000,1834286,1000,12,0,1,322.189,-8.023,13.882,562.660,-1.605,0.960
1782117388.888718,0.647000,1834287,1000,12,0,1,312.725,-15.878,13.739,563.597,-2.034,0.975
1782117388.889718,0.648000,1834288,1000,12,0,1,308.233,-16.746,13.709,564.029,0.158,0.969
1782117388.890718,0.649000,1834289,1000,12,0,1,306.912,-14.496,13.781,565.495,0.478,0.954
1782117388.891718,0.650000,1834290,1000,12,0,1,302.805,-13.315,13.909,563.429,0.022,0.939
1782117388.892718,0.651000,1834291,1000,12,0,1,298.889,-13.276,13.757,563.957,-0.804,0.946
1782117388.893718,0.652000,1834292,1000,12,0,1,302.733,-5.840,13.373,564.294,0.717,0.926
1782117388.894718,0.653000,1834293,1000,12,0,1,323.775,14.862,13.349,565.302,0.888,0.932
1782117388.895718,0.654000,1834294,1000,12,0,1,344.913,36.323,14.264,565.351,1.379,0.938
1782117388.896718,0.655000,1834295,1000,12,0,1,348.756,38.061,15.234,565.735,1.167,0.951
1782117388.897718,0.656000,1834296,1000,12,0,1,338.187,25.182,15.590,566.335,1.569,0.973
1782117388.898718,0.657000,1834297,1000,12,0,1,325.552,10.867,15.620,566.263,1.361,0.984
1782117388.899718,0.658000,1834298,1000,12,0,1,319.547,4.357,15.507,565.182,0.010,0.983
1782117388.900718,0.659000,1834299,1000,12,0,1,322.429,7.087,15.250,566.023,0.462,0.970
1782117388.901718,0.660000,1834300,1000,12,0,1,340.253,21.405,15.522,565.759,0.391,0.971
1782117388.902718,0.661000,1834301,1000,12,0,1,367.372,43.275,16.658,566.263,0.382,0.962
1782117388.903718,0.662000,1834302,1000,12,0,1,387.525,55.489,18.374,565.879,0.273,0.953
1782117388.904718,0.663000,1834303,1000,12,0,1,385.724,46.153,19.416,566.191,0.116,0.953
1782117388.905718,0.664000,1834304,1000,12,0,1,372.344,23.847,19.465,566.023,0.216,0.949
1782117388.906718,0.665000,1834305,1000,12,0,1,357.644,4.130,19.159,562.660,-2.492,1.003
1782117388.907718,0.666000,1834306,1000,12,0,1,350.125,-7.547,18.911,565.471,-0.954,1.006
1782117388.908718,0.667000,1834307,1000,12,0,1,347.267,-11.208,18.783,565.567,1.005,1.003
1782117388.909718,0.668000,1834308,1000,12,0,1,348.372,-11.401,18.764,566.239,0.143,0.997
1782117388.910718,0.669000,1834309,1000,12,0,1,352.215,-8.034,18.796,566.840,1.657,1.023
1782117388.911718,0.670000,1834310,1000,12,0,1,360.022,-2.055,18.767,565.759,0.057,1.015
1782117388.912718,0.671000,1834311,1000,12,0,1,368.141,4.318,18.643,564.510,-0.945,1.021
1782117388.913718,0.672000,1834312,1000,12,0,1,361.199,-1.853,18.388,566.576,0.448,1.012
1782117388.914718,0.673000,1834313,1000,12,0,1,345.681,-17.615,18.285,566.047,0.708,0.987
1782117388.915718,0.674000,1834314,1000,12,0,1,329.876,-29.700,18.598,565.591,-0.484,0.972
1782117388.916718,0.675000,1834315,1000,12,0,1,335.208,-24.400,18.879,564.294,-1.162,0.977
1782117388.917718,0.676000,1834316,1000,12,0,1,344.745,-9.364,18.924,562.228,-3.055,1.055
1782117388.918718,0.677000,1834317,1000,12,0,1,342.871,-9.038,18.952,564.077,-1.572,1.020
1782117388.919718,0.678000,1834318,1000,12,0,1,336.626,-12.928,18.987,566.552,1.441,1.040
1782117388.920718,0.679000,1834319,1000,12,0,1,339.244,-9.875,19.001,566.359,1.053,1.050
1782117388.921718,0.680000,1834320,1000,12,0,1,337.899,-7.480,19.027,564.942,-0.267,1.038
1782117388.922718,0.681000,1834321,1000,12,0,1,331.317,-12.456,18.920,565.903,0.037,1.018
1782117388.923718,0.682000,1834322,1000,12,0,1,321.180,-18.804,18.840,564.870,-0.099,1.014
1782117388.924718,0.683000,1834323,1000,12,0,1,323.078,-16.214,18.893,564.870,-0.872,0.997
1782117388.925718,0.684000,1834324,1000,12,0,1,327.186,-7.982,18.926,565.903,0.640,1.001
1782117388.926718,0.685000,1834325,1000,12,0,1,324.759,-8.162,18.886,564.414,-0.560,1.004
1782117388.927718,0.686000,1834326,1000,12,0,1,328.699,-4.361,18.706,564.462,-0.861,1.007
1782117388.928718,0.687000,1834327,1000,12,0,1,332.470,1.721,18.538,565.495,0.559,1.008
1782117388.929718,0.688000,1834328,1000,12,0,1,332.710,1.672,18.449,564.342,-0.311,1.007
1782117388.930718,0.689000,1834329,1000,12,0,1,333.311,2.880,18.404,564.366,-0.512,1.010
1782117388.931718,0.690000,1834330,1000,12,0,1,332.734,2.568,18.391,564.750,0.208,1.005
1782117388.932718,0.691000,1834331,1000,12,0,1,323.751,-3.635,18.384,563.909,-0.436,1.001
1782117388.933718,0.692000,1834332,1000,12,0,1,321.541,-6.266,18.380,565.399,0.541,1.002
1782117388.934718,0.693000,1834333,1000,12,0,1,319.835,-3.658,18.364,564.726,0.667,1.006
1782117388.935718,0.694000,1834334,1000,12,0,1,318.826,-3.587,18.352,562.468,-1.811,1.038
1782117388.936718,0.695000,1834335,1000,12,0,1,321.012,1.039,18.348,565.182,0.299,1.035
1782117388.937718,0.696000,1834336,1000,12,0,1,330.741,10.151,18.370,564.798,1.025,1.020
1782117388.938718,0.697000,1834337,1000,12,0,1,334.224,15.271,18.359,565.302,0.264,0.979
1782117388.939718,0.698000,1834338,1000,12,0,1,329.299,9.629,18.257,563.741,-0.107,0.979
1782117388.940718,0.699000,1834339,1000,12,0,1,322.862,3.194,18.147,563.957,-1.033,0.988
1782117388.941718,0.700000,1834340,1000,12,0,1,313.446,-4.327,18.059,564.510,0.358,0.989
1782117388.942718,0.701000,1834341,1000,12,0,1,303.837,-12.130,18.043,562.828,-1.256,0.998
1782117388.943718,0.702000,1834342,1000,12,0,1,302.877,-11.118,18.093,563.957,-0.561,0.996
1782117388.944718,0.703000,1834343,1000,12,0,1,312.821,-0.553,17.970,564.798,0.957,0.997
1782117388.945718,0.704000,1834344,1000,12,0,1,317.121,6.172,17.243,563.021,-0.779,0.984
1782117388.946718,0.705000,1834345,1000,12,0,1,318.826,6.048,16.403,562.780,-1.012,0.981
1782117388.947718,0.706000,1834346,1000,12,0,1,324.231,10.332,16.079,565.735,1.561,0.981
1782117388.948718,0.707000,1834347,1000,12,0,1,328.315,12.656,16.105,564.870,1.634,0.989
1782117388.949718,0.708000,1834348,1000,12,0,1,334.224,15.270,16.237,564.077,-0.088,0.989
1782117388.950718,0.709000,1834349,1000,12,0,1,353.320,28.010,16.683,562.468,-0.734,0.992
1782117388.951718,0.710000,1834350,1000,12,0,1,360.911,33.253,17.067,563.189,-0.793,0.997
1782117388.952718,0.711000,1834351,1000,12,0,1,340.925,11.085,16.009,565.759,2.075,1.038
1782117388.953718,0.712000,1834352,1000,12,0,1,321.733,-11.012,14.040,564.438,1.112,1.049
1782117388.954718,0.713000,1834353,1000,12,0,1,308.810,-20.470,12.764,564.822,0.473,1.051
1782117388.955718,0.714000,1834354,1000,12,0,1,295.863,-28.757,12.964,565.158,1.353,1.068
1782117388.956718,0.715000,1834355,1000,12,0,1,300.739,-21.372,13.299,564.582,0.204,1.009
1782117388.957718,0.716000,1834356,1000,12,0,1,327.474,6.305,13.286,563.021,-0.877,1.007
1782117388.958718,0.717000,1834357,1000,12,0,1,345.513,25.737,13.684,564.822,-0.045,0.997
1782117388.959718,0.718000,1834358,1000,12,0,1,341.406,20.019,13.881,564.125,0.401,0.999
1782117388.960718,0.719000,1834359,1000,12,0,1,337.394,11.580,13.931,563.741,-0.918,0.979
1782117388.961718,0.720000,1834360,1000,12,0,1,334.272,7.484,13.968,563.549,-0.430,0.981
1782117388.962718,0.721000,1834361,1000,12,0,1,328.411,0.041,13.955,566.792,1.645,0.999
1782117388.963718,0.722000,1834362,1000,12,0,1,323.582,-5.245,13.972,566.912,2.635,1.065
1782117388.964718,0.723000,1834363,1000,12,0,1,326.393,-3.979,13.759,563.981,-0.792,1.066
1782117388.965718,0.724000,1834364,1000,12,0,1,329.684,-0.459,13.103,563.669,-1.376,1.081
1782117388.966718,0.725000,1834365,1000,12,0,1,335.929,3.107,12.648,562.948,-1.303,1.085
1782117388.967718,0.726000,1834366,1000,12,0,1,333.503,1.526,12.580,564.702,-0.342,0.996
1782117388.968718,0.727000,1834367,1000,12,0,1,329.227,-5.119,12.536,564.462,0.624,0.975
1782117388.969718,0.728000,1834368,1000,12,0,1,333.287,-2.168,12.406,563.813,-0.795,0.960
1782117388.970718,0.729000,1834369,1000,12,0,1,334.848,-0.029,12.327,565.158,0.789,0.955
1782117388.971718,0.730000,1834370,1000,12,0,1,329.996,-4.831,12.301,564.918,0.656,0.959
1782117388.972718,0.731000,1834371,1000,12,0,1,317.385,-14.459,12.344,565.543,0.757,0.965
1782117388.973718,0.732000,1834372,1000,12,0,1,317.842,-14.853,12.236,567.921,2.751,1.040
1782117388.974718,0.733000,1834373,1000,12,0,1,338.643,6.090,12.050,564.918,0.445,1.035
1782117388.975718,0.734000,1834374,1000,12,0,1,352.191,20.201,12.333,565.591,-0.515,1.033
1782117388.976718,0.735000,1834375,1000,12,0,1,360.742,23.974,12.738,565.711,0.718,1.035
1782117388.977718,0.736000,1834376,1000,12,0,1,353.632,16.840,12.944,562.828,-2.375,1.081
1782117388.978718,0.737000,1834377,1000,12,0,1,331.677,-6.238,12.972,564.534,-1.238,1.093
1782117388.979718,0.738000,1834378,1000,12,0,1,312.965,-23.277,13.381,563.285,-1.021,1.101
1782117388.980718,0.739000,1834379,1000,12,0,1,301.459,-30.329,14.046,561.940,-3.044,1.180
1782117388.981718,0.740000,1834380,1000,12,0,1,299.778,-27.778,14.580,563.525,-0.884,1.186
1782117388.982718,0.741000,1834381,1000,12,0,1,296.343,-24.149,14.966,563.429,-0.587,1.188
1782117388.983718,0.742000,1834382,1000,12,0,1,297.136,-20.550,15.220,564.558,0.178,1.186
1782117388.984718,0.743000,1834383,1000,12,0,1,306.576,-7.887,15.252,565.182,1.183,1.194
1782117388.985718,0.744000,1834384,1000,12,0,1,335.761,17.240,15.437,565.639,1.134,1.177
1782117388.986718,0.745000,1834385,1000,12,0,1,371.384,48.166,16.872,564.318,0.290,1.177
1782117388.987718,0.746000,1834386,1000,12,0,1,373.233,46.134,18.033,565.855,0.754,1.173
1782117388.988718,0.747000,1834387,1000,12,0,1,360.502,23.657,18.213,564.390,0.509,1.174
1782117388.989718,0.748000,1834388,1000,12,0,1,356.275,13.722,18.265,563.861,-1.079,1.184
1782117388.990718,0.749000,1834389,1000,12,0,1,350.606,5.256,18.275,563.861,-0.253,1.176
1782117388.991718,0.750000,1834390,1000,12,0,1,336.313,-8.964,18.309,564.101,-0.360,1.176
1782117388.992718,0.751000,1834391,1000,12,0,1,330.356,-15.969,18.368,566.143,1.486,1.181
1782117388.993718,0.752000,1834392,1000,12,0,1,336.746,-8.203,18.337,565.302,1.186,1.190
1782117388.994718,0.753000,1834393,1000,12,0,1,348.876,3.914,18.345,564.750,-0.188,1.183
1782117388.995718,0.754000,1834394,1000,12,0,1,343.520,2.189,18.327,563.621,-0.552,1.180
1782117388.996718,0.755000,1834395,1000,12,0,1,321.108,-17.668,18.477,563.357,-1.355,1.187
1782117388.997718,0.756000,1834396,1000,12,0,1,321.108,-18.565,18.605,563.357,-0.682,1.170
1782117388.998718,0.757000,1834397,1000,12,0,1,309.699,-19.165,18.716,564.077,-0.322,1.148
1782117388.999718,0.758000,1834398,1000,12,0,1,315.560,-17.030,18.746,564.606,0.544,1.151
1782117389.000718,0.759000,1834399,1000,12,0,1,313.206,-8.413,18.362,565.182,0.769,1.151
1782117389.001718,0.760000,1834400,1000,12,0,1,308.449,-15.079,17.877,566.263,1.620,1.168
1782117389.002718,0.761000,1834401,1000,12,0,1,325.792,2.571,17.812,566.191,1.476,1.150
1782117389.003718,0.762000,1834402,1000,12,0,1,338.043,15.756,17.883,564.750,-0.123,1.139
1782117389.004718,0.763000,1834403,1000,12,0,1,336.193,11.103,17.717,564.222,-0.801,1.143
1782117389.005718,0.764000,1834404,1000,12,0,1,329.107,2.828,17.248,562.732,-1.767,1.154
1782117389.006718,0.765000,1834405,1000,12,0,1,328.146,-1.714,16.983,564.029,-0.980,1.162
1782117389.007718,0.766000,1834406,1000,12,0,1,328.002,-0.959,16.960,565.110,0.750,1.160
1782117389.008718,0.767000,1834407,1000,12,0,1,318.538,-9.825,16.623,563.741,-0.535,1.163
1782117389.009718,0.768000,1834408,1000,12,0,1,312.773,-14.807,16.514,563.957,-0.604,1.165
1782117389.010718,0.769000,1834409,1000,12,0,1,316.689,-9.534,16.487,564.005,-0.043,1.157
1782117389.011718,0.770000,1834410,1000,12,0,1,319.979,-3.307,16.460,565.038,0.470,1.158
1782117389.012718,0.771000,1834411,1000,12,0,1,312.341,-7.270,16.492,565.351,1.206,1.147
1782117389.013718,0.772000,1834412,1000,12,0,1,311.284,-7.617,16.511,566.335,1.416,1.103
1782117389.014718,0.773000,1834413,1000,12,0,1,309.194,-4.366,16.513,563.789,-0.175,1.097
1782117389.015718,0.774000,1834414,1000,12,0,1,313.422,-0.017,16.512,564.582,-0.765,1.085
1782117389.016718,0.775000,1834415,1000,12,0,1,319.619,9.335,16.559,563.837,-0.100,1.070
1782117389.017718,0.776000,1834416,1000,12,0,1,318.586,9.321,16.610,564.894,-0.306,1.070
1782117389.018718,0.777000,1834417,1000,12,0,1,313.566,5.167,16.611,564.918,0.717,1.071
1782117389.019718,0.778000,1834418,1000,12,0,1,312.557,4.094,16.618,563.501,-1.072,1.076
1782117389.020718,0.779000,1834419,1000,12,0,1,307.849,1.338,16.619,563.477,-1.049,1.080
1782117389.021718,0.780000,1834420,1000,12,0,1,303.621,-2.824,16.610,563.741,-0.467,1.078
1782117389.022718,0.781000,1834421,1000,12,0,1,304.006,-1.894,16.485,563.045,-1.051,1.083
1782117389.023718,0.782000,1834422,1000,12,0,1,309.554,3.075,16.357,565.038,0.578,1.014
1782117389.024718,0.783000,1834423,1000,12,0,1,315.175,7.801,16.371,567.440,2.857,1.090
1782117389.025718,0.784000,1834424,1000,12,0,1,310.900,3.751,16.129,564.510,0.568,1.090
1782117389.026718,0.785000,1834425,1000,12,0,1,299.826,-7.681,15.806,562.204,-2.494,1.141
1782117389.027718,0.786000,1834426,1000,12,0,1,294.445,-12.630,15.727,562.228,-1.794,1.120
1782117389.028718,0.787000,1834427,1000,12,0,1,298.265,-8.039,15.744,564.270,-0.094,1.106
1782117389.029718,0.788000,1834428,1000,12,0,1,304.366,-0.484,15.396,565.399,1.550,1.118
1782117389.030718,0.789000,1834429,1000,12,0,1,310.707,5.619,14.808,565.999,1.585,1.056
1782117389.031718,0.790000,1834430,1000,12,0,1,309.915,6.254,14.304,565.375,1.148,1.061
1782117389.032718,0.791000,1834431,1000,12,0,1,307.561,3.224,13.898,564.942,0.265,1.059
1782117389.033718,0.792000,1834432,1000,12,0,1,308.041,4.485,13.606,564.222,-0.223,1.059
1782117389.034718,0.793000,1834433,1000,12,0,1,290.362,-7.554,13.602,564.630,-0.146,1.046
1782117389.035718,0.794000,1834434,1000,12,0,1,293.076,-8.286,13.433,563.981,-0.323,1.034
1782117389.036718,0.795000,1834435,1000,12,0,1,324.255,23.113,12.030,564.798,-0.048,1.034
1782117389.037718,0.796000,1834436,1000,12,0,1,335.953,35.520,11.287,565.086,0.657,1.032
1782117389.038718,0.797000,1834437,1000,12,0,1,342.991,34.313,11.821,564.149,-0.388,1.031
1782117389.039718,0.798000,1834438,1000,12,0,1,346.642,34.491,12.640,562.108,-2.016,1.059
1782117389.040718,0.799000,1834439,1000,12,0,1,327.954,13.246,12.757,562.972,-1.493,1.079
1782117389.041718,0.800000,1834440,1000,12,0,1,312.773,-6.271,12.724,563.789,-0.033,1.078
1782117389.042718,0.801000,1834441,1000,12,0,1,300.234,-16.286,12.732,565.110,0.832,1.064
1782117389.043718,0.802000,1834442,1000,12,0,1,290.314,-25.127,13.168,564.077,0.402,1.052
1782117389.044718,0.803000,1834443,1000,12,0,1,289.161,-23.302,13.563,562.300,-1.585,1.075
1782117389.045718,0.804000,1834444,1000,12,0,1,299.922,-11.897,13.663,564.318,0.019,1.073
1782117389.046718,0.805000,1834445,1000,12,0,1,308.209,-1.387,13.434,564.125,0.736,1.060
1782117389.047718,0.806000,1834446,1000,12,0,1,300.379,-7.236,13.215,565.327,0.771,1.062
1782117389.048718,0.807000,1834447,1000,12,0,1,289.065,-17.826,13.177,563.477,0.242,1.061
1782117389.049718,0.808000,1834448,1000,12,0,1,292.716,-13.721,13.100,563.789,-0.837,1.065
1782117389.050718,0.809000,1834449,1000,12,0,1,301.988,-2.395,13.050,563.549,0.172,1.060
1782117389.051718,0.810000,1834450,1000,12,0,1,309.723,5.330,12.897,562.276,-1.498,1.056
1782117389.052718,0.811000,1834451,1000,12,0,1,303.429,1.575,12.894,562.612,-0.880,1.043
1782117389.053718,0.812000,1834452,1000,12,0,1,296.199,-6.297,12.731,561.219,-1.491,1.064
1782117389.054718,0.813000,1834453,1000,12,0,1,309.723,5.425,12.657,561.795,-1.375,1.075
1782117389.055718,0.814000,1834454,1000,12,0,1,332.951,27.135,13.220,562.636,0.336,1.047
1782117389.056718,0.815000,1834455,1000,12,0,1,330.861,25.651,13.706,563.837,0.947,1.046
1782117389.057718,0.816000,1834456,1000,12,0,1,317.481,8.450,13.758,562.997,0.877,1.048
1782117389.058718,0.817000,1834457,1000,12,0,1,311.980,1.784,13.690,564.702,1.314,1.062
1782117389.059718,0.818000,1834458,1000,12,0,1,307.681,-1.510,13.530,565.543,2.791,1.130
1782117389.060718,0.819000,1834459,1000,12,0,1,307.585,-2.158,13.466,564.318,0.944,1.138
1782117389.061718,0.820000,1834460,1000,12,0,1,310.299,1.476,13.460,565.038,1.164,1.148
1782117389.062718,0.821000,1834461,1000,12,0,1,314.743,4.640,13.436,564.342,0.813,1.141
1782117389.063718,0.822000,1834462,1000,12,0,1,310.803,2.087,13.396,561.988,-1.663,1.147
1782117389.064718,0.823000,1834463,1000,12,0,1,309.386,-2.061,13.385,563.501,-0.578,1.150
1782117389.065718,0.824000,1834464,1000,12,0,1,319.187,5.918,13.412,565.951,2.002,1.179
1782117389.066718,0.825000,1834465,1000,12,0,1,323.078,9.127,13.409,564.942,1.190,1.191
1782117389.067718,0.826000,1834466,1000,12,0,1,321.204,4.283,13.357,565.158,0.538,1.193
1782117389.068718,0.827000,1834467,1000,12,0,1,319.787,1.037,13.338,564.846,0.701,1.193
1782117389.069718,0.828000,1834468,1000,12,0,1,316.088,-3.618,13.336,563.117,-1.200,1.195
1782117389.070718,0.829000,1834469,1000,12,0,1,313.686,-6.882,13.370,563.165,-1.191,1.198
1782117389.071718,0.830000,1834470,1000,12,0,1,311.068,-8.692,13.420,565.230,0.727,1.200
1782117389.072718,0.831000,1834471,1000,12,0,1,304.582,-13.326,13.549,563.597,-0.113,1.191
1782117389.073718,0.832000,1834472,1000,12,0,1,300.066,-16.099,13.732,564.438,-0.376,1.190
1782117389.074718,0.833000,1834473,1000,12,0,1,300.547,-13.020,13.811,562.924,-0.536,1.121
1782117389.075718,0.834000,1834474,1000,12,0,1,308.209,-4.213,13.814,563.813,-0.922,1.126
1782117389.076718,0.835000,1834475,1000,12,0,1,310.227,0.965,13.772,564.702,0.904,1.077
1782117389.077718,0.836000,1834476,1000,12,0,1,311.620,1.729,13.658,565.351,0.787,1.053
1782117389.078718,0.837000,1834477,1000,12,0,1,311.020,2.978,13.617,563.717,-0.211,1.053
1782117389.079718,0.838000,1834478,1000,12,0,1,313.278,3.991,13.628,564.390,-0.455,1.032
1782117389.080718,0.839000,1834479,1000,12,0,1,313.182,5.186,13.625,563.093,-0.737,1.013
1782117389.081718,0.840000,1834480,1000,12,0,1,312.413,3.294,13.604,564.198,-0.640,1.004
1782117389.082718,0.841000,1834481,1000,12,0,1,314.118,4.458,13.611,565.206,1.007,1.013
1782117389.083718,0.842000,1834482,1000,12,0,1,317.361,6.522,13.627,566.287,1.395,1.032
1782117389.084718,0.843000,1834483,1000,12,0,1,315.103,3.999,13.597,565.423,0.832,1.038
1782117389.085718,0.844000,1834484,1000,12,0,1,313.398,0.516,13.547,563.357,-1.316,1.054
1782117389.086718,0.845000,1834485,1000,12,0,1,315.536,1.487,13.148,561.675,-2.771,1.124
1782117389.087718,0.846000,1834486,1000,12,0,1,318.130,3.084,12.159,563.477,-1.079,1.131
1782117389.088718,0.847000,1834487,1000,12,0,1,320.316,3.581,11.160,563.237,-0.413,1.131
1782117389.089718,0.848000,1834488,1000,12,0,1,319.883,2.431,10.043,563.357,-0.667,1.098
1782117389.090718,0.849000,1834489,1000,12,0,1,315.295,-2.705,9.875,565.951,1.731,1.105
1782117389.091718,0.850000,1834490,1000,12,0,1,305.135,-11.200,9.961,563.741,0.520,1.108
1782117389.092718,0.851000,1834491,1000,12,0,1,301.171,-14.921,9.918,563.237,-1.178,1.114
1782117389.093718,0.852000,1834492,1000,12,0,1,311.980,-3.690,9.275,563.021,-0.287,1.113
1782117389.094718,0.853000,1834493,1000,12,0,1,317.866,4.639,8.694,562.588,-1.181,1.103
1782117389.095718,0.854000,1834494,1000,12,0,1,324.207,8.422,8.613,564.798,0.982,1.112
1782117389.096718,0.855000,1834495,1000,12,0,1,324.976,10.227,8.731,564.149,0.883,1.114
1782117389.097718,0.856000,1834496,1000,12,0,1,315.463,0.375,8.671,564.582,0.382,1.110
1782117389.098718,0.857000,1834497,1000,12,0,1,300.595,-12.350,8.478,564.582,0.950,1.118
1782117389.099718,0.858000,1834498,1000,12,0,1,287.239,-22.576,8.849,564.029,-0.138,1.112
1782117389.100718,0.859000,1834499,1000,12,0,1,279.625,-25.600,9.555,563.333,-0.490,1.113
1782117389.101718,0.860000,1834500,1000,12,0,1,295.815,-9.211,9.614,564.318,-0.017,1.093
1782117389.102718,0.861000,1834501,1000,12,0,1,317.265,14.624,9.832,563.837,0.137,1.086
1782117389.103718,0.862000,1834502,1000,12,0,1,333.743,27.294,10.525,561.795,-1.876,1.098
1782117389.104718,0.863000,1834503,1000,12,0,1,339.436,29.664,11.304,563.189,-0.834,1.087
1782117389.105718,0.864000,1834504,1000,12,0,1,338.860,23.104,11.123,563.621,0.428,1.088
1782117389.106718,0.865000,1834505,1000,12,0,1,331.677,12.622,10.666,563.501,-0.129,1.080
1782117389.107718,0.866000,1834506,1000,12,0,1,318.562,-2.470,10.604,562.900,-0.180,1.073
1782117389.108718,0.867000,1834507,1000,12,0,1,312.461,-10.527,10.705,564.822,0.916,1.064
1782117389.109718,0.868000,1834508,1000,12,0,1,329.107,2.801,10.710,562.756,0.201,0.989
1782117389.110718,0.869000,1834509,1000,12,0,1,335.761,11.397,10.827,563.357,-0.644,0.984
1782117389.111718,0.870000,1834510,1000,12,0,1,326.417,0.232,10.825,564.942,1.778,1.002
1782117389.112718,0.871000,1834511,1000,12,0,1,318.971,-7.855,10.862,565.471,1.653,1.023
1782117389.113718,0.872000,1834512,1000,12,0,1,314.431,-10.821,10.965,564.198,0.657,1.000
1782117389.114718,0.873000,1834513,1000,12,0,1,309.867,-13.349,11.123,564.702,0.404,0.998
1782117389.115718,0.874000,1834514,1000,12,0,1,305.735,-14.359,11.275,563.549,-0.112,0.957
1782117389.116718,0.875000,1834515,1000,12,0,1,315.175,-5.443,11.228,563.093,-1.069,0.954
1782117389.117718,0.876000,1834516,1000,12,0,1,320.148,3.459,11.222,564.149,0.078,0.951
1782117389.118718,0.877000,1834517,1000,12,0,1,318.442,0.759,11.222,564.438,0.513,0.949
1782117389.119718,0.878000,1834518,1000,12,0,1,311.980,-3.591,11.221,562.780,-1.005,0.944
1782117389.120718,0.879000,1834519,1000,12,0,1,309.723,-6.674,11.219,564.798,0.284,0.930
1782117389.121718,0.880000,1834520,1000,12,0,1,309.458,-4.981,11.174,565.783,1.786,0.958
1782117389.122718,0.881000,1834521,1000,12,0,1,309.723,-4.540,11.032,564.462,0.195,0.958
1782117389.123718,0.882000,1834522,1000,12,0,1,313.902,-0.673,10.795,562.876,-1.319,0.975
1782117389.124718,0.883000,1834523,1000,12,0,1,317.217,2.779,10.644,565.062,0.248,0.973
1782117389.125718,0.884000,1834524,1000,12,0,1,325.144,7.576,10.681,565.351,1.233,0.980
1782117389.126718,0.885000,1834525,1000,12,0,1,333.959,14.703,10.881,563.021,-1.194,0.986
1782117389.127718,0.886000,1834526,1000,12,0,1,333.743,12.063,11.011,563.525,-1.076,0.991
1782117389.128718,0.887000,1834527,1000,12,0,1,332.951,7.849,11.059,564.270,0.221,0.991
1782117389.129718,0.888000,1834528,1000,12,0,1,329.588,3.579,11.056,562.948,-0.992,0.999
1782117389.130718,0.889000,1834529,1000,12,0,1,329.732,1.195,11.033,562.924,-1.069,1.005
1782117389.131718,0.890000,1834530,1000,12,0,1,327.089,-0.328,11.023,563.957,0.069,1.001
1782117389.132718,0.891000,1834531,1000,12,0,1,319.883,-7.161,11.052,563.093,-0.338,0.992
1782117389.133718,0.892000,1834532,1000,12,0,1,313.998,-11.308,11.129,563.861,-0.151,0.972
1782117389.134718,0.893000,1834533,1000,12,0,1,306.816,-14.933,11.313,562.660,-0.400,0.967
1782117389.135718,0.894000,1834534,1000,12,0,1,297.760,-19.930,11.659,563.765,-0.322,0.950
1782117389.136718,0.895000,1834535,1000,12,0,1,295.550,-18.594,11.950,565.999,2.301,0.924
1782117389.137718,0.896000,1834536,1000,12,0,1,297.088,-12.630,12.075,564.870,1.133,0.926
1782117389.138718,0.897000,1834537,1000,12,0,1,304.126,-3.898,12.077,563.789,-0.382,0.925
1782117389.139718,0.898000,1834538,1000,12,0,1,311.188,4.956,12.092,562.108,-1.501,0.945
1782117389.140718,0.899000,1834539,1000,12,0,1,327.258,17.246,12.330,563.117,-1.135,0.927
1782117389.141718,0.900000,1834540,1000,12,0,1,343.664,30.790,12.980,563.357,0.064,0.924
1782117389.142718,0.901000,1834541,1000,12,0,1,346.234,28.749,13.437,563.237,-0.530,0.912
1782117389.143718,0.902000,1834542,1000,12,0,1,350.149,24.601,13.870,560.979,-1.723,0.943
1782117389.144718,0.903000,1834543,1000,12,0,1,351.158,21.448,14.183,561.147,-2.150,0.976
1782117389.145718,0.904000,1834544,1000,12,0,1,345.129,10.260,14.207,562.180,-0.226,0.967
1782117389.146718,0.905000,1834545,1000,12,0,1,338.812,0.911,14.134,563.021,0.421,0.961
1782117389.147718,0.906000,1834546,1000,12,0,1,335.040,-4.849,14.150,563.021,0.730,0.965
1782117389.148718,0.907000,1834547,1000,12,0,1,330.717,-8.854,14.098,561.507,-0.549,0.959
1782117389.149718,0.908000,1834548,1000,12,0,1,333.383,-7.350,13.771,561.147,-1.071,0.970
1782117389.150718,0.909000,1834549,1000,12,0,1,332.758,-5.424,13.308,561.099,-0.545,0.971
1782117389.151718,0.910000,1834550,1000,12,0,1,328.483,-9.128,13.307,562.204,0.207,0.971
1782117389.152718,0.911000,1834551,1000,12,0,1,326.777,-9.150,13.209,562.828,1.279,0.988
1782117389.153718,0.912000,1834552,1000,12,0,1,325.216,-8.437,12.689,563.621,1.486,0.974
1782117389.154718,0.913000,1834553,1000,12,0,1,331.317,-2.632,11.981,563.309,1.450,0.989
1782117389.155718,0.914000,1834554,1000,12,0,1,334.776,3.146,11.536,562.900,0.544,0.990
1782117389.156718,0.915000,1834555,1000,12,0,1,331.870,-0.130,11.397,563.069,0.713,0.995
1782117389.157718,0.916000,1834556,1000,12,0,1,329.347,-2.493,11.397,561.075,-0.853,1.002
1782117389.158718,0.917000,1834557,1000,12,0,1,328.459,-3.521,11.310,560.763,-1.572,1.018
1782117389.159718,0.918000,1834558,1000,12,0,1,326.057,-5.285,11.328,561.267,-0.442,1.019
1782117389.160718,0.919000,1834559,1000,12,0,1,324.543,-7.014,11.256,562.156,0.205,1.016
1782117389.161718,0.920000,1834560,1000,12,0,1,319.379,-10.486,11.354,562.108,0.603,0.988
1782117389.162718,0.921000,1834561,1000,12,0,1,317.337,-12.715,11.441,562.708,0.726,0.965
1782117389.163718,0.922000,1834562,1000,12,0,1,326.225,-4.372,11.355,561.555,0.207,0.961
1782117389.164718,0.923000,1834563,1000,12,0,1,331.461,2.006,11.201,561.027,-0.769,0.966
1782117389.165718,0.924000,1834564,1000,12,0,1,330.669,0.071,11.015,561.964,0.374,0.967
1782117389.166718,0.925000,1834565,1000,12,0,1,327.162,-3.045,10.997,561.940,0.521,0.958
1782117389.167718,0.926000,1834566,1000,12,0,1,328.218,-3.069,10.994,562.900,1.004,0.968
1782117389.168718,0.927000,1834567,1000,12,0,1,329.395,-0.463,10.994,562.156,0.797,0.972
1782117389.169718,0.928000,1834568,1000,12,0,1,327.690,-1.643,10.985,562.348,0.196,0.962
1782117389.170718,0.929000,1834569,1000,12,0,1,324.615,-3.214,10.954,562.348,0.691,0.966
1782117389.171718,0.930000,1834570,1000,12,0,1,319.499,-6.070,10.965,562.516,0.313,0.934
1782117389.172718,0.931000,1834571,1000,12,0,1,315.463,-7.902,11.003,560.907,-0.632,0.938
1782117389.173718,0.932000,1834572,1000,12,0,1,316.592,-4.597,11.021,560.186,-1.754,0.952
1782117389.174718,0.933000,1834573,1000,12,0,1,320.148,0.909,11.015,561.243,-0.415,0.953
1782117389.175718,0.934000,1834574,1000,12,0,1,317.577,0.999,10.964,561.483,0.070,0.937
1782117389.176718,0.935000,1834575,1000,12,0,1,309.506,-5.242,10.790,561.459,-0.068,0.922
1782117389.177718,0.936000,1834576,1000,12,0,1,304.726,-8.329,10.720,562.876,1.138,0.923
1782117389.178718,0.937000,1834577,1000,12,0,1,291.251,-16.186,10.905,563.189,1.515,0.947
1782117389.179718,0.938000,1834578,1000,12,0,1,289.881,-17.622,11.175,563.093,1.053,0.948
1782117389.180718,0.939000,1834579,1000,12,0,1,310.371,3.690,11.186,561.267,-0.433,0.938
1782117389.181718,0.940000,1834580,1000,12,0,1,327.234,20.603,11.559,561.892,-0.494,0.941
1782117389.182718,0.941000,1834581,1000,12,0,1,332.686,22.629,11.951,562.036,0.323,0.941
1782117389.183718,0.942000,1834582,1000,12,0,1,325.504,13.555,11.997,562.900,0.533,0.944
1782117389.184718,0.943000,1834583,1000,12,0,1,320.075,3.858,11.823,561.579,-0.012,0.942
1782117389.185718,0.944000,1834584,1000,12,0,1,317.505,1.079,11.483,562.948,0.249,0.941
1782117389.186718,0.945000,1834585,1000,12,0,1,317.938,-0.151,11.178,562.564,0.857,0.892
1782117389.187718,0.946000,1834586,1000,12,0,1,318.298,0.907,11.035,561.819,-0.588,0.881
1782117389.188718,0.947000,1834587,1000,12,0,1,317.938,0.364,11.021,563.141,0.686,0.885
1782117389.189718,0.948000,1834588,1000,12,0,1,313.686,-2.092,11.003,563.285,1.007,0.871
1782117389.190718,0.949000,1834589,1000,12,0,1,314.094,-1.799,10.732,562.348,-0.205,0.856
1782117389.191718,0.950000,1834590,1000,12,0,1,322.309,6.777,9.856,561.435,-0.890,0.865
1782117389.192718,0.951000,1834591,1000,12,0,1,326.897,12.223,9.143,560.378,-1.870,0.902
1782117389.193718,0.952000,1834592,1000,12,0,1,322.598,8.045,8.531,564.149,1.123,0.883
1782117389.194718,0.953000,1834593,1000,12,0,1,318.971,3.783,7.992,564.029,2.047,0.878
1782117389.195718,0.954000,1834594,1000,12,0,1,310.419,-2.532,7.867,563.789,0.508,0.880
1782117389.196718,0.955000,1834595,1000,12,0,1,304.174,-8.487,7.957,563.261,0.533,0.881
1782117389.197718,0.956000,1834596,1000,12,0,1,310.371,-2.219,7.934,563.933,0.332,0.876
1782117389.198718,0.957000,1834597,1000,12,0,1,316.665,5.183,7.868,564.318,0.996,0.884
1782117389.199718,0.958000,1834598,1000,12,0,1,316.448,4.154,7.822,565.567,1.466,0.896
1782117389.200718,0.959000,1834599,1000,12,0,1,324.135,8.166,7.869,562.756,-0.489,0.895
1782117389.201718,0.960000,1834600,1000,12,0,1,334.200,15.744,8.076,561.868,-2.296,0.952
1782117389.202718,0.961000,1834601,1000,12,0,1,336.025,14.228,8.221,562.084,-1.289,0.952
1782117389.203718,0.962000,1834602,1000,12,0,1,330.861,5.876,8.177,561.195,-1.935,0.968
1782117389.204718,0.963000,1834603,1000,12,0,1,325.240,-2.216,8.174,562.300,-1.022,0.957
1782117389.205718,0.964000,1834604,1000,12,0,1,323.558,-5.440,8.198,562.516,-0.049,0.954
1782117389.206718,0.965000,1834605,1000,12,0,1,326.633,-3.270,8.211,560.594,-1.878,0.985
1782117389.207718,0.966000,1834606,1000,12,0,1,334.632,3.159,8.216,560.426,-1.887,1.013
1782117389.208718,0.967000,1834607,1000,12,0,1,336.193,5.178,8.233,561.339,-0.725,0.994
1782117389.209718,0.968000,1834608,1000,12,0,1,333.647,1.195,8.201,562.684,0.653,0.996
1782117389.210718,0.969000,1834609,1000,12,0,1,332.182,-0.177,8.141,564.558,2.183,1.042
1782117389.211718,0.970000,1834610,1000,12,0,1,329.660,-2.035,8.010,561.507,-0.008,1.039
1782117389.212718,0.971000,1834611,1000,12,0,1,324.375,-5.710,7.847,562.564,-0.561,1.037
1782117389.213718,0.972000,1834612,1000,12,0,1,325.000,-4.878,7.853,562.060,0.460,1.039
1782117389.214718,0.973000,1834613,1000,12,0,1,322.381,-4.305,7.871,561.459,-1.160,1.046
1782117389.215718,0.974000,1834614,1000,12,0,1,320.772,-5.834,7.915,562.060,0.020,1.044
1782117389.216718,0.975000,1834615,1000,12,0,1,317.289,-6.498,7.956,560.979,-0.858,1.049
1782117389.217718,0.976000,1834616,1000,12,0,1,316.256,-7.488,8.014,562.468,0.046,1.039
1782117389.218718,0.977000,1834617,1000,12,0,1,318.106,-4.421,8.039,561.819,0.458,1.035
1782117389.219718,0.978000,1834618,1000,12,0,1,319.571,-2.790,8.045,561.627,-0.593,1.038
1782117389.220718,0.979000,1834619,1000,12,0,1,319.787,-2.787,8.042,562.348,0.732,1.039
1782117389.221718,0.980000,1834620,1000,12,0,1,316.929,-5.285,8.031,561.940,0.166,1.038
1782117389.222718,0.981000,1834621,1000,12,0,1,315.728,-7.366,8.020,563.093,1.054,1.045
1782117389.223718,0.982000,1834622,1000,12,0,1,314.214,-7.720,8.068,562.300,0.761,1.021
1782117389.224718,0.983000,1834623,1000,12,0,1,312.701,-9.167,8.171,563.117,0.695,1.024
1782117389.225718,0.984000,1834624,1000,12,0,1,314.623,-6.543,8.222,561.940,0.455,1.026
1782117389.226718,0.985000,1834625,1000,12,0,1,311.668,-7.198,8.251,562.204,-0.296,1.027
1782117389.227718,0.986000,1834626,1000,12,0,1,310.203,-8.124,8.247,561.267,-0.199,1.014
1782117389.228718,0.987000,1834627,1000,12,0,1,308.522,-6.660,7.979,561.819,-0.523,0.994
1782117389.229718,0.988000,1834628,1000,12,0,1,306.600,-6.637,7.638,562.948,1.078,0.995
1782117389.230718,0.989000,1834629,1000,12,0,1,300.691,-8.203,7.708,560.210,-1.184,1.007
1782117389.231718,0.990000,1834630,1000,12,0,1,294.926,-10.862,7.299,561.627,-0.879,1.012
1782117389.232718,0.991000,1834631,1000,12,0,1,301.339,-2.604,6.571,562.156,0.869,1.018
1782117389.233718,0.992000,1834632,1000,12,0,1,307.489,7.238,6.367,561.219,-0.750,1.021
1782117389.234718,0.993000,1834633,1000,12,0,1,316.208,14.492,6.667,562.132,0.289,1.022
1782117389.235718,0.994000,1834634,1000,12,0,1,325.912,23.617,7.455,562.060,0.314,1.022
1782117389.236718,0.995000,1834635,1000,12,0,1,324.303,20.620,8.005,562.252,0.222,1.016
1782117389.237718,0.996000,1834636,1000,12,0,1,321.252,14.013,8.246,563.789,1.510,1.034
1782117389.238718,0.997000,1834637,1000,12,0,1,319.115,10.261,8.372,561.435,-0.168,1.030
1782117389.239718,0.998000,1834638,1000,12,0,1,320.027,8.036,8.444,560.090,-2.106,1.063
1782117389.240718,0.999000,1834639,1000,12,0,1,319.643,6.548,8.491,560.522,-1.105,1.074
1782117389.241718,1.000000,1834640,1000,12,0,1,315.319,0.575,8.437,560.258,-1.067,1.077
1782117389.242718,1.001000,1834641,1000,12,0,1,313.302,-2.941,8.268,561.171,-0.240,1.045
1782117389.243718,1.002000,1834642,1000,12,0,1,314.310,-2.634,8.198,561.555,0.590,1.036
1782117389.244718,1.003000,1834643,1000,12,0,1,322.045,2.780,8.190,561.387,0.237,0.995
1782117389.245718,1.004000,1834644,1000,12,0,1,329.299,9.101,8.283,558.553,-1.680,1.021
1782117389.246718,1.005000,1834645,1000,12,0,1,327.065,5.734,8.236,560.378,-0.961,1.027
1782117389.247718,1.006000,1834646,1000,12,0,1,325.624,1.912,8.234,562.396,2.090,1.068
1782117389.248718,1.007000,1834647,1000,12,0,1,327.666,3.181,8.214,562.636,1.658,1.084
1782117389.249718,1.008000,1834648,1000,12,0,1,329.996,4.523,8.218,563.501,2.245,1.110
1782117389.250718,1.009000,1834649,1000,12,0,1,327.522,2.437,8.143,560.715,-0.022,1.108
1782117389.251718,1.010000,1834650,1000,12,0,1,324.231,-1.351,7.835,560.859,-1.035,1.070
1782117389.252718,1.011000,1834651,1000,12,0,1,324.327,-1.004,7.574,561.795,0.711,1.059
1782117389.253718,1.012000,1834652,1000,12,0,1,321.252,-2.487,7.536,560.787,-0.548,1.026
1782117389.254718,1.013000,1834653,1000,12,0,1,319.931,-3.957,7.551,562.156,0.457,1.017
1782117389.255718,1.014000,1834654,1000,12,0,1,318.058,-3.932,7.532,563.957,2.206,1.064
1782117389.256718,1.015000,1834655,1000,12,0,1,317.385,-4.661,7.547,563.117,1.333,1.048
1782117389.257718,1.016000,1834656,1000,12,0,1,317.793,-3.249,7.547,562.612,0.308,1.014
1782117389.258718,1.017000,1834657,1000,12,0,1,318.418,-2.777,7.522,562.924,0.556,1.012
1782117389.259718,1.018000,1834658,1000,12,0,1,315.896,-4.515,7.547,560.546,-1.272,1.024
1782117389.260718,1.019000,1834659,1000,12,0,1,314.046,-6.827,7.609,561.795,-0.957,0.985
1782117389.261718,1.020000,1834660,1000,12,0,1,310.059,-9.404,7.719,562.516,0.764,0.991
1782117389.262718,1.021000,1834661,1000,12,0,1,306.288,-12.637,7.881,559.898,-1.781,1.020
1782117389.263718,1.022000,1834662,1000,12,0,1,320.964,-0.831,7.852,563.333,0.554,1.021
1782117389.264718,1.023000,1834663,1000,12,0,1,328.170,8.966,7.931,561.051,0.339,1.008
1782117389.265718,1.024000,1834664,1000,12,0,1,321.589,0.454,7.888,559.850,-2.491,1.068
1782117389.266718,1.025000,1834665,1000,12,0,1,312.653,-7.686,7.909,558.385,-2.111,1.102
1782117389.267718,1.026000,1834666,1000,12,0,1,309.362,-10.740,7.984,559.321,-2.149,1.144
1782117389.268718,1.027000,1834667,1000,12,0,1,310.347,-7.521,8.030,560.739,0.341,1.143
1782117389.269718,1.028000,1834668,1000,12,0,1,311.620,-4.290,8.043,561.219,0.476,1.142
1782117389.270718,1.029000,1834669,1000,12,0,1,310.659,-3.057,8.045,559.489,-0.693,1.141
1782117389.271718,1.030000,1834670,1000,12,0,1,305.831,-5.040,8.042,558.216,-2.044,1.177
1782117389.272718,1.031000,1834671,1000,12,0,1,296.151,-11.119,8.128,558.649,-1.430,1.185
1782117389.273718,1.032000,1834672,1000,12,0,1,285.462,-17.291,8.417,561.723,1.429,1.197
1782117389.274718,1.033000,1834673,1000,12,0,1,281.378,-17.356,8.671,561.988,2.097,1.229
1782117389.275718,1.034000,1834674,1000,12,0,1,272.947,-18.302,9.002,562.036,1.434,1.244
1782117389.276718,1.035000,1834675,1000,12,0,1,271.410,-17.106,9.266,561.627,1.127,1.254
1782117389.277718,1.036000,1834676,1000,12,0,1,297.592,8.529,9.273,561.627,0.730,1.258
1782117389.278718,1.037000,1834677,1000,12,0,1,315.560,28.956,10.093,562.396,1.304,1.269
1782117389.279718,1.038000,1834678,1000,12,0,1,311.668,22.111,10.524,560.907,0.256,1.260
1782117389.280718,1.039000,1834679,1000,12,0,1,306.816,13.429,10.631,560.955,-0.397,1.250
1782117389.281718,1.040000,1834680,1000,12,0,1,315.656,17.059,10.793,561.603,0.784,1.249
1782117389.282718,1.041000,1834681,1000,12,0,1,307.200,10.509,10.888,561.195,0.203,1.243
1782117389.283718,1.042000,1834682,1000,12,0,1,286.471,-11.921,10.971,560.570,-0.202,1.239
1782117389.284718,1.043000,1834683,1000,12,0,1,284.165,-14.887,10.981,561.099,0.090,1.239
1782117389.285718,1.044000,1834684,1000,12,0,1,303.453,3.799,10.475,559.754,-0.558,1.240
1782117389.286718,1.045000,1834685,1000,12,0,1,327.378,25.728,10.698,559.634,-1.138,1.250
1782117389.287718,1.046000,1834686,1000,12,0,1,337.226,33.062,11.506,560.546,0.163,1.232
1782117389.288718,1.047000,1834687,1000,12,0,1,326.297,19.437,11.740,561.099,0.581,1.235
1782117389.289718,1.048000,1834688,1000,12,0,1,316.737,5.956,11.716,563.237,2.117,1.235
1782117389.290718,1.049000,1834689,1000,12,0,1,313.566,2.429,11.684,561.988,1.410,1.241
1782117389.291718,1.050000,1834690,1000,12,0,1,307.825,-2.136,11.688,559.273,-1.840,1.259
1782117389.292718,1.051000,1834691,1000,12,0,1,305.327,-4.501,11.698,560.186,-1.133,1.269
1782117389.293718,1.052000,1834692,1000,12,0,1,303.861,-3.675,11.703,560.955,-0.002,1.266
1782117389.294718,1.053000,1834693,1000,12,0,1,309.530,0.890,11.697,561.291,0.069,1.266
1782117389.295718,1.054000,1834694,1000,12,0,1,318.778,10.236,11.716,561.099,0.042,1.243
1782117389.296718,1.055000,1834695,1000,12,0,1,318.826,9.595,11.766,559.297,-1.508,1.254
1782117389.297718,1.056000,1834696,1000,12,0,1,315.896,4.212,11.778,560.426,-0.866,1.225
1782117389.298718,1.057000,1834697,1000,12,0,1,312.029,-0.523,11.770,561.219,0.610,1.205
1782117389.299718,1.058000,1834698,1000,12,0,1,305.014,-8.012,11.807,559.586,-0.904,1.170
1782117389.300718,1.059000,1834699,1000,12,0,1,302.444,-11.389,11.911,562.180,0.880,1.177
1782117389.301718,1.060000,1834700,1000,12,0,1,301.988,-11.005,12.011,563.045,2.560,1.222
1782117389.302718,1.061000,1834701,1000,12,0,1,299.201,-12.862,12.147,562.060,0.886,1.225
1782117389.303718,1.062000,1834702,1000,12,0,1,296.367,-14.608,12.317,561.507,0.452,1.224
1782117389.304718,1.063000,1834703,1000,12,0,1,296.367,-13.334,12.448,561.507,0.208,1.222
1782117389.305718,1.064000,1834704,1000,12,0,1,318.274,4.707,12.453,560.066,-0.751,1.187
1782117389.306718,1.065000,1834705,1000,12,0,1,320.628,12.138,12.553,560.234,-0.990,1.180
1782117389.307718,1.066000,1834706,1000,12,0,1,324.711,8.495,12.602,560.498,-0.218,1.180
1782117389.308718,1.067000,1834707,1000,12,0,1,0.312,-225.028,34.226,560.498,-0.353,1.178
1782117389.309718,1.068000,1834708,1000,12,0,1,317.097,-58.430,35.204,562.732,1.389,1.181
1782117389.310718,1.069000,1834709,1000,12,0,1,312.413,133.348,39.925,563.549,2.387,1.220
1782117389.311718,1.070000,1834710,1000,12,0,1,308.401,-21.445,40.018,561.579,0.123,1.216
1782117389.312718,1.071000,1834711,1000,12,0,1,297.568,64.899,41.018,560.835,-0.962,1.197
1782117389.313718,1.072000,1834712,1000,12,0,1,289.569,-6.708,41.029,560.258,-1.270,1.208
1782117389.314718,1.073000,1834713,1000,12,0,1,291.034,24.356,41.153,559.826,-1.672,1.230
1782117389.315718,1.074000,1834714,1000,12,0,1,302.877,23.020,41.282,561.795,0.011,1.178
1782117389.316718,1.075000,1834715,1000,12,0,1,314.695,26.915,41.443,562.684,1.256,1.154
1782117389.317718,1.076000,1834716,1000,12,0,1,317.866,39.257,41.785,559.538,-1.497,1.133
1782117389.318718,1.077000,1834717,1000,12,0,1,313.614,12.111,41.807,559.922,-1.824,1.161
1782117389.319718,1.078000,1834718,1000,12,0,1,311.860,25.088,41.953,560.955,0.072,1.159
1782117389.320718,1.079000,1834719,1000,12,0,1,310.948,2.036,41.952,562.828,1.252,1.168
1782117389.321718,1.080000,1834720,1000,12,0,1,309.434,14.777,41.998,561.555,0.898,1.139
1782117389.322718,1.081000,1834721,1000,12,0,1,308.497,-2.950,41.970,559.754,-1.434,1.139
1782117389.323718,1.082000,1834722,1000,12,0,1,308.401,7.006,41.911,560.498,-0.527,1.124
1782117389.324718,1.083000,1834723,1000,12,0,1,308.041,-3.486,41.842,559.826,-0.567,1.087
1782117389.325718,1.084000,1834724,1000,12,0,1,308.137,2.118,41.763,560.354,-0.497,1.070
1782117389.326718,1.085000,1834725,1000,12,0,1,304.414,-5.483,41.700,561.171,0.831,1.065
1782117389.327718,1.086000,1834726,1000,12,0,1,303.333,-4.724,41.688,560.378,-0.036,1.060
1782117389.328718,1.087000,1834727,1000,12,0,1,306.624,-2.536,41.488,560.234,-0.231,1.044
1782117389.329718,1.088000,1834728,1000,12,0,1,307.272,-0.923,41.370,558.985,-1.043,1.054
1782117389.330718,1.089000,1834729,1000,12,0,1,305.591,-2.460,41.328,558.793,-1.437,1.072
1782117389.331718,1.090000,1834730,1000,12,0,1,305.231,-3.465,41.260,560.546,0.372,1.067
1782117389.332718,1.091000,1834731,1000,12,0,1,302.324,-4.571,41.238,562.636,2.208,1.112
1782117389.333718,1.092000,1834732,1000,12,0,1,300.330,-7.432,41.217,560.306,0.465,1.113
1782117389.334718,1.093000,1834733,1000,12,0,1,302.492,-4.200,41.168,562.588,0.993,1.122
1782117389.335718,1.094000,1834734,1000,12,0,1,302.276,-4.158,41.168,561.339,1.339,1.135
1782117389.336718,1.095000,1834735,1000,12,0,1,299.682,-5.960,41.016,560.739,-0.823,1.130
1782117389.337718,1.096000,1834736,1000,12,0,1,300.282,-5.927,40.757,561.339,0.539,1.132
1782117389.338718,1.097000,1834737,1000,12,0,1,302.156,-3.300,40.667,559.610,-1.094,1.139
1782117389.339718,1.098000,1834738,1000,12,0,1,302.709,-2.913,40.660,559.465,-1.442,1.118
1782117389.340718,1.099000,1834739,1000,12,0,1,299.898,-4.839,40.665,560.018,-0.299,1.101
1782117389.341718,1.100000,1834740,1000,12,0,1,299.946,-5.358,40.671,561.747,0.902,1.077
1782117389.342718,1.101000,1834741,1000,12,0,1,303.189,-1.602,40.666,560.426,0.627,1.069
1782117389.343718,1.102000,1834742,1000,12,0,1,303.886,-0.366,40.663,562.156,0.841,1.076
1782117389.344718,1.103000,1834743,1000,12,0,1,302.925,-1.244,40.663,561.291,1.434,1.095
1782117389.345718,1.104000,1834744,1000,12,0,1,296.823,-5.371,40.645,559.369,-1.406,1.113
1782117389.346718,1.105000,1834745,1000,12,0,1,289.401,-11.391,40.654,556.967,-2.664,1.155
1782117389.347718,1.106000,1834746,1000,12,0,1,301.123,-1.147,40.650,557.544,-2.566,1.205
1782117389.348718,1.107000,1834747,1000,12,0,1,314.671,14.165,40.699,559.177,-0.148,1.202
1782117389.349718,1.108000,1834748,1000,12,0,1,312.485,11.697,40.717,560.258,0.804,1.200
1782117389.350718,1.109000,1834749,1000,12,0,1,307.200,4.644,40.690,560.114,0.750,1.198
1782117389.351718,1.110000,1834750,1000,12,0,1,306.720,3.350,40.663,562.012,1.899,1.174
1782117389.352718,1.111000,1834751,1000,12,0,1,305.879,2.490,40.624,561.363,1.651,1.190
1782117389.353718,1.112000,1834752,1000,12,0,1,304.702,0.907,40.572,560.402,-0.002,1.188
1782117389.354718,1.113000,1834753,1000,12,0,1,294.806,-6.658,40.539,559.682,-0.534,1.190
1782117389.355718,1.114000,1834754,1000,12,0,1,282.459,-17.601,40.610,561.459,0.611,1.189
1782117389.356718,1.115000,1834755,1000,12,0,1,274.652,-21.891,40.691,560.162,0.177,1.181
1782117389.357718,1.116000,1834756,1000,12,0,1,263.723,-26.871,40.851,559.441,-1.226,1.193
1782117389.358718,1.117000,1834757,1000,12,0,1,259.447,-27.469,25.906,558.072,-1.658,1.215
1782117389.359718,1.118000,1834758,1000,12,0,1,274.004,-10.474,24.598,557.544,-2.266,1.241
1782117389.360718,1.119000,1834759,1000,12,0,1,298.769,14.536,15.926,560.234,0.409,1.196
1782117389.361718,1.120000,1834760,1000,12,0,1,297.688,16.764,15.813,560.114,1.199,1.207
1782117389.362718,1.121000,1834761,1000,12,0,1,294.445,7.983,12.926,560.907,0.981,1.208
1782117389.363718,1.122000,1834762,1000,12,0,1,307.008,18.021,13.141,560.282,1.285,1.208
1782117389.364718,1.123000,1834763,1000,12,0,1,316.424,24.857,13.160,560.811,0.710,1.189
1782117389.365718,1.124000,1834764,1000,12,0,1,318.226,22.588,13.145,557.880,-0.743,1.193
1782117389.366718,1.125000,1834765,1000,12,0,1,315.223,16.553,12.798,559.105,-1.130,1.191
1782117389.367718,1.126000,1834766,1000,12,0,1,310.275,8.770,11.597,558.937,0.392,1.173
1782117389.368718,1.127000,1834767,1000,12,0,1,304.774,2.560,11.476,560.282,0.316,1.145
1782117389.369718,1.128000,1834768,1000,12,0,1,303.069,-0.329,10.914,560.618,1.540,1.166
1782117389.370718,1.129000,1834769,1000,12,0,1,302.252,-0.144,10.910,561.147,1.075,1.162
1782117389.371718,1.130000,1834770,1000,12,0,1,302.853,0.065,10.708,561.267,1.313,1.170
1782117389.372718,1.131000,1834771,1000,12,0,1,298.817,-1.936,10.703,560.979,0.641,1.156
1782117389.373718,1.132000,1834772,1000,12,0,1,298.817,-3.009,10.666,560.979,0.300,1.154
1782117389.374718,1.133000,1834773,1000,12,0,1,298.817,-1.087,10.655,560.979,0.346,1.153
1782117389.375718,1.134000,1834774,1000,12,0,1,298.217,-2.137,10.656,559.850,-0.858,1.157
1782117389.376718,1.135000,1834775,1000,12,0,1,294.710,-4.257,10.644,560.426,-0.469,1.153
1782117389.377718,1.136000,1834776,1000,12,0,1,293.605,-5.941,10.657,559.994,-0.493,1.155
1782117389.378718,1.137000,1834777,1000,12,0,1,293.869,-4.868,10.673,561.123,0.148,1.155
1782117389.379718,1.138000,1834778,1000,12,0,1,294.902,-4.092,10.688,561.339,0.826,1.151
1782117389.380718,1.139000,1834779,1000,12,0,1,293.100,-5.235,10.708,559.586,-0.849,1.139
1782117389.381718,1.140000,1834780,1000,12,0,1,291.010,-7.374,10.747,559.898,-0.837,1.144
1782117389.382718,1.141000,1834781,1000,12,0,1,293.388,-5.367,10.754,558.817,-0.970,1.109
1782117389.383718,1.142000,1834782,1000,12,0,1,292.932,-4.323,10.720,559.249,-1.135,1.119
1782117389.384718,1.143000,1834783,1000,12,0,1,290.842,-6.501,10.743,560.787,0.926,1.118
1782117389.385718,1.144000,1834784,1000,12,0,1,291.251,-5.093,10.751,560.330,0.475,1.104
1782117389.386718,1.145000,1834785,1000,12,0,1,289.305,-5.363,10.745,559.345,-0.508,1.100
1782117389.387718,1.146000,1834786,1000,12,0,1,290.482,-3.739,10.725,559.369,-0.561,1.100
1782117389.388718,1.147000,1834787,1000,12,0,1,289.761,-1.893,10.719,558.649,-0.916,1.097
1782117389.389718,1.148000,1834788,1000,12,0,1,288.176,-2.536,10.717,559.129,-0.723,1.083
1782117389.390718,1.149000,1834789,1000,12,0,1,289.137,-0.025,10.695,559.922,0.291,1.083
1782117389.391718,1.150000,1834790,1000,12,0,1,288.584,1.231,10.669,559.682,0.041,1.075
1782117389.392718,1.151000,1834791,1000,12,0,1,287.816,1.372,10.669,562.156,1.664,1.097
1782117389.393718,1.152000,1834792,1000,12,0,1,288.320,2.916,10.677,561.627,1.837,1.121
1782117389.394718,1.153000,1834793,1000,12,0,1,290.146,4.919,10.698,560.787,-0.034,1.102
1782117389.395718,1.154000,1834794,1000,12,0,1,293.172,7.697,10.726,560.450,0.025,1.084
1782117389.396718,1.155000,1834795,1000,12,0,1,286.591,2.663,10.611,561.075,0.114,1.017
1782117389.397718,1.156000,1834796,1000,12,0,1,279.865,-4.956,10.633,562.972,1.870,0.986
1782117389.398718,1.157000,1834797,1000,12,0,1,279.192,-4.751,10.464,561.555,0.867,0.994
1782117389.399718,1.158000,1834798,1000,12,0,1,275.661,-6.418,10.372,561.147,-0.354,0.988
1782117389.400718,1.159000,1834799,1000,12,0,1,272.947,-8.604,10.423,558.505,-1.717,1.012
1782117389.401718,1.160000,1834800,1000,12,0,1,284.597,1.464,10.414,558.577,-2.510,1.038
1782117389.402718,1.161000,1834801,1000,12,0,1,293.052,10.936,10.522,562.636,1.878,1.046
1782117389.403718,1.162000,1834802,1000,12,0,1,293.413,9.099,10.600,559.946,0.336,1.047
1782117389.404718,1.163000,1834803,1000,12,0,1,290.242,4.980,10.582,558.913,-1.881,1.078
1782117389.405718,1.164000,1834804,1000,12,0,1,286.999,0.693,10.285,560.090,0.119,1.074
1782117389.406718,1.165000,1834805,1000,12,0,1,285.486,-0.899,9.809,560.426,0.167,1.074
1782117389.407718,1.166000,1834806,1000,12,0,1,278.976,-5.233,9.073,560.739,0.547,1.063
1782117389.408718,1.167000,1834807,1000,12,0,1,272.851,-10.249,8.327,561.339,0.817,1.043
1782117389.409718,1.168000,1834808,1000,12,0,1,271.410,-8.869,8.289,559.538,-0.570,0.996
1782117389.410718,1.169000,1834809,1000,12,0,1,273.860,-4.429,8.055,558.336,-2.116,1.039
1782117389.411718,1.170000,1834810,1000,12,0,1,281.114,3.987,7.719,559.273,-1.070,1.036
1782117389.412718,1.171000,1834811,1000,12,0,1,282.651,7.490,7.709,559.538,-0.465,1.029
1782117389.413718,1.172000,1834812,1000,12,0,1,285.462,8.692,7.378,560.546,0.131,1.013
1782117389.414718,1.173000,1834813,1000,12,0,1,294.950,16.538,6.896,561.099,0.956,1.017
1782117389.415718,1.174000,1834814,1000,12,0,1,293.605,15.243,6.480,561.411,0.804,1.018
1782117389.416718,1.175000,1834815,1000,12,0,1,287.479,6.264,6.107,560.883,0.510,1.008
1782117389.417718,1.176000,1834816,1000,12,0,1,281.258,-0.013,5.980,559.057,-1.231,1.021
1782117389.418718,1.177000,1834817,1000,12,0,1,277.679,-4.577,6.004,561.075,0.162,1.020
1782117389.419718,1.178000,1834818,1000,12,0,1,278.472,-3.696,6.027,561.868,1.725,1.026
1782117389.420718,1.179000,1834819,1000,12,0,1,283.660,0.526,6.027,561.315,0.655,1.019
1782117389.421718,1.180000,1834820,1000,12,0,1,290.314,6.002,6.087,562.540,1.642,1.029
1782117389.422718,1.181000,1834821,1000,12,0,1,289.233,4.635,6.116,561.219,0.780,1.030
1782117389.423718,1.182000,1834822,1000,12,0,1,284.669,-1.540,6.105,559.225,-1.472,1.050
1782117389.424718,1.183000,1834823,1000,12,0,1,281.762,-4.475,6.135,559.946,-0.750,1.055
1782117389.425718,1.184000,1834824,1000,12,0,1,276.814,-8.268,6.239,561.579,0.921,1.056
1782117389.426718,1.185000,1834825,1000,12,0,1,275.973,-8.712,6.331,561.459,0.952,1.062
1782117389.427718,1.186000,1834826,1000,12,0,1,283.252,-1.052,6.276,561.099,0.221,1.060
1782117389.428718,1.187000,1834827,1000,12,0,1,283.132,1.360,6.241,561.483,0.451,1.062
1782117389.429718,1.188000,1834828,1000,12,0,1,273.283,-6.978,6.292,561.579,0.412,1.057
1782117389.430718,1.189000,1834829,1000,12,0,1,277.967,-3.677,6.270,561.171,-0.139,1.051
1782117389.431718,1.190000,1834830,1000,12,0,1,288.801,8.850,6.308,560.594,-0.775,1.050
1782117389.432718,1.191000,1834831,1000,12,0,1,288.488,8.993,6.390,560.835,-0.727,1.046
1782117389.433718,1.192000,1834832,1000,12,0,1,286.591,5.540,6.409,561.699,0.079,1.033
1782117389.434718,1.193000,1834833,1000,12,0,1,284.357,3.560,6.363,559.417,-1.561,1.048
1782117389.435718,1.194000,1834834,1000,12,0,1,282.988,1.226,6.324,559.994,-1.782,1.076
1782117389.436718,1.195000,1834835,1000,12,0,1,283.660,1.738,6.283,559.225,-1.239,1.088
1782117389.437718,1.196000,1834836,1000,12,0,1,284.309,1.806,6.266,559.489,-1.624,1.109
1782117389.438718,1.197000,1834837,1000,12,0,1,278.352,-3.092,6.276,560.883,0.392,1.103
1782117389.439718,1.198000,1834838,1000,12,0,1,271.866,-9.702,6.414,562.564,1.678,1.124
1782117389.440718,1.199000,1834839,1000,12,0,1,271.121,-9.610,6.556,562.324,1.728,1.149
1782117389.441718,1.200000,1834840,1000,12,0,1,267.975,-10.242,6.712,561.147,0.301,1.150
1782117389.442718,1.201000,1834841,1000,12,0,1,261.777,-14.467,7.015,561.315,0.243,1.126
1782117389.443718,1.202000,1834842,1000,12,0,1,275.181,-3.140,7.016,561.123,0.380,1.097
1782117389.444718,1.203000,1834843,1000,12,0,1,298.601,19.680,7.516,560.042,-0.733,1.102
1782117389.445718,1.204000,1834844,1000,12,0,1,309.939,28.274,8.444,559.586,-0.992,1.111
1782117389.446718,1.205000,1834845,1000,12,0,1,311.044,24.523,9.120,559.081,-1.246,1.125
1782117389.447718,1.206000,1834846,1000,12,0,1,308.714,17.955,9.441,558.769,-1.307,1.109
1782117389.448718,1.207000,1834847,1000,12,0,1,306.071,11.611,9.559,559.538,-0.546,1.104
1782117389.449718,1.208000,1834848,1000,12,0,1,304.366,7.495,9.575,559.033,-0.515,1.106
1782117389.450718,1.209000,1834849,1000,12,0,1,302.636,4.083,9.515,559.177,-0.709,1.083
1782117389.451718,1.210000,1834850,1000,12,0,1,299.250,0.197,9.513,561.531,1.451,1.044
1782117389.452718,1.211000,1834851,1000,12,0,1,301.363,0.487,9.387,559.850,0.465,1.012
1782117389.453718,1.212000,1834852,1000,12,0,1,300.090,0.486,9.298,559.273,-1.032,1.021
1782117389.454718,1.213000,1834853,1000,12,0,1,296.992,-3.618,9.286,562.636,2.105,1.030
1782117389.455718,1.214000,1834854,1000,12,0,1,296.223,-4.026,9.302,560.306,0.725,1.035
1782117389.456718,1.215000,1834855,1000,12,0,1,295.718,-4.388,9.322,560.715,-0.443,1.036
1782117389.457718,1.216000,1834856,1000,12,0,1,290.962,-7.950,9.361,561.603,1.414,1.053
1782117389.458718,1.217000,1834857,1000,12,0,1,289.954,-9.493,9.345,561.147,0.343,1.047
1782117389.459718,1.218000,1834858,1000,12,0,1,292.548,-6.268,9.302,562.492,1.475,1.065
1782117389.460718,1.219000,1834859,1000,12,0,1,293.845,-4.848,9.307,560.691,0.326,1.023
1782117389.461718,1.220000,1834860,1000,12,0,1,295.214,-4.188,9.308,560.426,-0.788,1.018
1782117389.462718,1.221000,1834861,1000,12,0,1,295.646,-3.863,9.264,561.339,0.729,1.021
1782117389.463718,1.222000,1834862,1000,12,0,1,294.157,-5.777,9.218,560.594,-0.058,1.021
1782117389.464718,1.223000,1834863,1000,12,0,1,293.917,-6.287,8.961,558.721,-1.474,1.033
1782117389.465718,1.224000,1834864,1000,12,0,1,294.854,-5.319,8.730,559.465,-1.101,1.039
1782117389.466718,1.225000,1834865,1000,12,0,1,293.413,-5.850,8.725,559.057,-0.566,1.039
1782117389.467718,1.226000,1834866,1000,12,0,1,292.091,-6.808,8.778,560.522,0.096,1.025
1782117389.468718,1.227000,1834867,1000,12,0,1,292.788,-5.058,8.783,560.354,0.785,1.030
1782117389.469718,1.228000,1834868,1000,12,0,1,288.104,-7.103,8.825,559.081,-0.935,1.010
1782117389.470718,1.229000,1834869,1000,12,0,1,287.720,-7.183,8.883,559.321,-0.673,1.010
1782117389.471718,1.230000,1834870,1000,12,0,1,290.842,-1.644,8.845,560.354,0.302,0.984
1782117389.472718,1.231000,1834871,1000,12,0,1,289.089,-1.378,8.823,561.027,0.801,0.984
1782117389.473718,1.232000,1834872,1000,12,0,1,283.516,-4.901,8.847,559.802,-0.165,0.962
1782117389.474718,1.233000,1834873,1000,12,0,1,284.477,-3.351,8.837,559.946,-0.663,0.961
1782117389.475718,1.234000,1834874,1000,12,0,1,287.359,1.540,8.762,559.393,-0.518,0.955
1782117389.476718,1.235000,1834875,1000,12,0,1,290.770,4.789,8.702,561.411,0.480,0.948
1782117389.477718,1.236000,1834876,1000,12,0,1,290.722,5.452,8.735,561.988,1.861,0.983
1782117389.478718,1.237000,1834877,1000,12,0,1,290.362,3.924,8.750,561.075,0.325,0.982
1782117389.479718,1.238000,1834878,1000,12,0,1,289.113,2.633,8.702,558.865,-1.238,0.996
1782117389.480718,1.239000,1834879,1000,12,0,1,292.572,3.976,8.705,559.321,-1.301,1.013
1782117389.481718,1.240000,1834880,1000,12,0,1,292.308,4.093,8.634,558.985,-0.593,1.010
1782117389.482718,1.241000,1834881,1000,12,0,1,292.067,1.600,8.543,559.105,-0.748,1.010
1782117389.483718,1.242000,1834882,1000,12,0,1,294.806,3.306,8.519,558.409,-0.646,1.014
1782117389.484718,1.243000,1834883,1000,12,0,1,292.644,1.130,8.506,559.658,0.143,0.990
1782117389.485718,1.244000,1834884,1000,12,0,1,294.133,0.287,8.504,561.579,2.261,1.010
1782117389.486718,1.245000,1834885,1000,12,0,1,295.262,2.215,8.507,557.664,-0.679,0.999
1782117389.487718,1.246000,1834886,1000,12,0,1,295.935,1.405,8.505,558.120,-1.693,1.001
1782117389.488718,1.247000,1834887,1000,12,0,1,296.031,2.042,8.499,559.658,1.084,1.011
1782117389.489718,1.248000,1834888,1000,12,0,1,296.487,1.776,8.391,560.835,1.253,0.999
1782117389.490718,1.249000,1834889,1000,12,0,1,295.166,1.350,8.282,559.946,1.031,0.980
1782117389.491718,1.250000,1834890,1000,12,0,1,293.340,-0.370,8.155,561.267,0.979,0.988
1782117389.492718,1.251000,1834891,1000,12,0,1,293.292,0.125,7.894,559.610,0.402,0.989
1782117389.493718,1.252000,1834892,1000,12,0,1,289.641,-1.753,7.886,560.306,-0.402,0.990
1782117389.494718,1.253000,1834893,1000,12,0,1,288.945,-2.720,7.388,562.276,1.974,1.023
1782117389.495718,1.254000,1834894,1000,12,0,1,288.080,-1.531,6.216,561.027,0.652,1.018
1782117389.496718,1.255000,1834895,1000,12,0,1,287.600,-2.141,5.168,560.691,-0.334,1.003
1782117389.497718,1.256000,1834896,1000,12,0,1,285.221,-2.856,4.519,562.468,1.382,1.005
1782117389.498718,1.257000,1834897,1000,12,0,1,277.102,-9.344,4.413,562.540,1.374,1.021
1782117389.499718,1.258000,1834898,1000,12,0,1,270.569,-14.475,4.747,560.835,-0.207,1.019
1782117389.500718,1.259000,1834899,1000,12,0,1,265.933,-16.053,5.231,559.465,-1.673,1.041
1782117389.501718,1.260000,1834900,1000,12,0,1,262.258,-17.018,5.758,557.880,-2.494,1.080
1782117389.502718,1.261000,1834901,1000,12,0,1,265.260,-12.141,6.008,559.754,-1.101,1.089
1782117389.503718,1.262000,1834902,1000,12,0,1,288.056,8.074,6.115,559.297,-0.140,1.079
1782117389.504718,1.263000,1834903,1000,12,0,1,303.285,24.298,6.996,561.387,0.637,1.041
1782117389.505718,1.264000,1834904,1000,12,0,1,295.791,14.617,7.272,560.955,1.550,1.059
1782117389.506718,1.265000,1834905,1000,12,0,1,288.849,4.208,7.270,559.105,-1.087,1.069
1782117389.507718,1.266000,1834906,1000,12,0,1,283.756,-0.356,7.183,559.970,-0.210,1.050
1782117389.508718,1.267000,1834907,1000,12,0,1,281.738,-3.072,7.070,559.417,-0.299,1.050
1782117389.509718,1.268000,1834908,1000,12,0,1,284.717,0.777,7.015,559.898,-0.494,1.031
1782117389.510718,1.269000,1834909,1000,12,0,1,284.621,1.998,6.987,559.489,-0.204,1.031
1782117389.511718,1.270000,1834910,1000,12,0,1,283.228,1.171,6.964,557.712,-2.191,1.070
1782117389.512718,1.271000,1834911,1000,12,0,1,282.795,1.760,6.947,557.448,-2.195,1.110
1782117389.513718,1.272000,1834912,1000,12,0,1,284.357,3.698,6.918,559.730,-0.196,1.110
1782117389.514718,1.273000,1834913,1000,12,0,1,284.525,4.869,6.895,560.378,1.002,1.100
1782117389.515718,1.274000,1834914,1000,12,0,1,285.414,5.246,6.894,558.745,-0.702,1.093
1782117389.516718,1.275000,1834915,1000,12,0,1,281.859,2.959,6.857,561.219,0.932,1.098
1782117389.517718,1.276000,1834916,1000,12,0,1,272.947,-5.157,6.828,561.099,1.786,1.127
1782117389.518718,1.277000,1834917,1000,12,0,1,267.879,-9.534,6.923,558.649,-1.096,1.132
1782117389.519718,1.278000,1834918,1000,12,0,1,265.693,-9.630,6.984,561.916,1.401,1.141
1782117389.520718,1.279000,1834919,1000,12,0,1,263.987,-9.807,7.048,560.739,1.639,1.161
1782117389.521718,1.280000,1834920,1000,12,0,1,263.339,-8.836,7.154,560.715,0.131,1.160
1782117389.522718,1.281000,1834921,1000,12,0,1,270.617,-2.282,7.158,560.835,1.272,1.168
1782117389.523718,1.282000,1834922,1000,12,0,1,286.302,11.730,7.315,560.186,0.063,1.168
1782117389.524718,1.283000,1834923,1000,12,0,1,294.013,18.147,7.738,562.324,1.870,1.194
1782117389.525718,1.284000,1834924,1000,12,0,1,289.905,11.406,7.901,562.060,2.033,1.226
1782117389.526718,1.285000,1834925,1000,12,0,1,286.735,5.192,7.906,560.594,-0.043,1.224
1782117389.527718,1.286000,1834926,1000,12,0,1,283.828,1.773,7.873,561.603,0.689,1.200
1782117389.528718,1.287000,1834927,1000,12,0,1,285.318,1.491,7.856,560.090,-0.353,1.200
1782117389.529718,1.288000,1834928,1000,12,0,1,285.798,2.898,7.858,560.018,-1.155,1.198
1782117389.530718,1.289000,1834929,1000,12,0,1,284.501,1.229,7.840,560.186,-0.502,1.186
1782117389.531718,1.290000,1834930,1000,12,0,1,280.513,-1.211,7.820,560.739,-0.425,1.185
1782117389.532718,1.291000,1834931,1000,12,0,1,277.631,-3.411,7.832,561.387,0.288,1.181
1782117389.533718,1.292000,1834932,1000,12,0,1,279.985,-0.174,7.818,560.739,-0.390,1.178
1782117389.534718,1.293000,1834933,1000,12,0,1,284.068,4.788,7.845,560.474,-0.932,1.185
1782117389.535718,1.294000,1834934,1000,12,0,1,284.501,5.675,7.886,561.627,0.097,1.142
1782117389.536718,1.295000,1834935,1000,12,0,1,283.996,4.658,7.908,561.219,-0.081,1.138
1782117389.537718,1.296000,1834936,1000,12,0,1,285.149,4.897,7.935,561.699,-0.074,1.112
1782117389.538718,1.297000,1834937,1000,12,0,1,288.224,6.572,7.984,561.219,-0.093,1.102
1782117389.539718,1.298000,1834938,1000,12,0,1,289.593,6.497,8.033,562.852,0.726,1.092
1782117389.540718,1.299000,1834939,1000,12,0,1,290.530,5.080,8.063,560.979,0.036,1.082
1782117389.541718,1.300000,1834940,1000,12,0,1,293.388,5.283,8.097,559.994,-1.786,1.103
1782117389.542718,1.301000,1834941,1000,12,0,1,291.467,2.172,8.103,561.075,-0.133,1.101
1782117389.543718,1.302000,1834942,1000,12,0,1,292.836,-0.038,8.099,560.979,-0.012,1.100
1782117389.544718,1.303000,1834943,1000,12,0,1,293.388,0.076,8.090,560.715,-0.296,1.065
1782117389.545718,1.304000,1834944,1000,12,0,1,294.085,-1.704,8.091,560.450,-0.256,1.061
1782117389.546718,1.305000,1834945,1000,12,0,1,293.725,-2.234,8.091,559.778,-0.874,1.068
1782117389.547718,1.306000,1834946,1000,12,0,1,293.629,-3.468,8.096,559.465,-0.939,1.058
1782117389.548718,1.307000,1834947,1000,12,0,1,299.153,0.808,7.988,559.562,-0.811,1.046
1782117389.549718,1.308000,1834948,1000,12,0,1,305.615,6.675,7.779,560.955,0.461,1.048
1782117389.550718,1.309000,1834949,1000,12,0,1,302.204,3.619,7.458,562.036,1.452,1.041
1782117389.551718,1.310000,1834950,1000,12,0,1,297.112,-2.346,7.067,559.297,-0.791,0.986
1782117389.552718,1.311000,1834951,1000,12,0,1,297.040,-2.249,6.863,559.105,-1.863,1.009
1782117389.553718,1.312000,1834952,1000,12,0,1,291.947,-4.858,6.802,561.027,0.449,1.010
1782117389.554718,1.313000,1834953,1000,12,0,1,285.462,-10.366,6.050,562.828,1.754,1.037
1782117389.555718,1.314000,1834954,1000,12,0,1,281.666,-11.506,5.914,561.771,1.025,1.023
1782117389.556718,1.315000,1834955,1000,12,0,1,280.273,-10.916,6.083,560.498,-0.777,1.018
1782117389.557718,1.316000,1834956,1000,12,0,1,282.171,-7.286,6.170,559.057,-1.701,1.045
1782117389.558718,1.317000,1834957,1000,12,0,1,285.702,-2.835,6.168,559.898,-1.182,1.058
1782117389.559718,1.318000,1834958,1000,12,0,1,284.981,-2.438,6.176,560.546,0.124,1.056
1782117389.560718,1.319000,1834959,1000,12,0,1,283.108,-4.624,6.204,560.594,0.112,1.055
1782117389.561718,1.320000,1834960,1000,12,0,1,284.789,-3.402,6.221,561.003,0.592,1.012
1782117389.562718,1.321000,1834961,1000,12,0,1,288.464,-0.324,6.216,558.841,-0.807,0.970
1782117389.563718,1.322000,1834962,1000,12,0,1,290.026,0.606,6.194,559.538,-0.843,0.977
1782117389.564718,1.323000,1834963,1000,12,0,1,288.152,-1.748,6.161,560.787,1.251,0.983
1782117389.565718,1.324000,1834964,1000,12,0,1,286.278,-4.208,6.145,560.354,0.589,0.981
1782117389.566718,1.325000,1834965,1000,12,0,1,285.221,-4.820,6.169,559.562,0.013,0.973
1782117389.567718,1.326000,1834966,1000,12,0,1,280.634,-7.701,6.221,559.898,0.073,0.939
1782117389.568718,1.327000,1834967,1000,12,0,1,280.778,-7.203,6.158,560.715,0.925,0.936
1782117389.569718,1.328000,1834968,1000,12,0,1,282.915,-2.621,6.017,557.352,-1.613,0.942
1782117389.570718,1.329000,1834969,1000,12,0,1,285.101,0.527,5.856,559.730,-0.824,0.921
1782117389.571718,1.330000,1834970,1000,12,0,1,285.918,3.056,5.737,560.354,1.397,0.942
1782117389.572718,1.331000,1834971,1000,12,0,1,279.577,-0.774,5.729,559.177,-0.800,0.931
1782117389.573718,1.332000,1834972,1000,12,0,1,276.022,-3.616,5.508,558.769,-0.718,0.937
1782117389.574718,1.333000,1834973,1000,12,0,1,276.982,-0.302,4.873,560.859,0.612,0.903
1782117389.575718,1.334000,1834974,1000,12,0,1,280.297,3.697,4.628,561.147,1.458,0.880
1782117389.576718,1.335000,1834975,1000,12,0,1,284.117,8.069,4.710,559.778,-0.236,0.881
1782117389.577718,1.336000,1834976,1000,12,0,1,288.152,10.940,4.951,562.516,1.576,0.903
1782117389.578718,1.337000,1834977,1000,12,0,1,280.513,4.706,4.991,560.546,1.012,0.913
1782117389.579718,1.338000,1834978,1000,12,0,1,274.268,-3.759,5.003,559.393,-1.507,0.923
1782117389.580718,1.339000,1834979,1000,12,0,1,274.244,-3.158,5.020,560.594,0.502,0.923
1782117389.581718,1.340000,1834980,1000,12,0,1,278.544,0.038,5.017,559.658,-0.328,0.923
1782117389.582718,1.341000,1834981,1000,12,0,1,282.387,3.512,5.018,558.937,-0.911,0.931
1782117389.583718,1.342000,1834982,1000,12,0,1,282.747,2.829,5.034,558.745,-0.757,0.935
1782117389.584718,1.343000,1834983,1000,12,0,1,278.520,-1.772,4.994,560.522,0.713,0.931
1782117389.585718,1.344000,1834984,1000,12,0,1,268.335,-10.521,5.149,561.868,2.350,0.989
1782117389.586718,1.345000,1834985,1000,12,0,1,276.742,-5.359,5.163,562.804,2.586,1.054
1782117389.587718,1.346000,1834986,1000,12,0,1,283.420,5.219,5.169,561.819,1.755,1.083
1782117389.588718,1.347000,1834987,1000,12,0,1,279.529,0.485,5.085,561.315,0.422,1.084
1782117389.589718,1.348000,1834988,1000,12,0,1,278.159,-0.409,5.002,560.474,-0.141,1.080
