Unix_Time_s,RelativeTime_s,P_1,P_2,P_3,P_4,P_5,P_6,P_7,P_8,P_9,P_10,P_11,P_12,P_13,P_14,P_15,P_16,P_17,P_18,P_19,P_20,P_21,P_22,P_23,P_24,P_25,P_26,P_27,P_28,P_29,P_30,P_31,P_32,P_33,P_34,P_35,P_36,P_37,P_38,P_39,P_40,P_41,P_42,P_43,P_44,P_45,P_46,P_47,P_48,P_49,P_50,P_51,P_52,P_53,P_54,P_55,P_56,P_57,P_58,P_59,P_60,P_61,P_62,P_63,P_64,P_65,P_66,P_67,P_68,P_69,P_70,P_71,P_72,P_73,P_74,P_75,P_76,P_77,P_78,P_79,P_80,P_81,P_82,P_83,P_84,P_85,P_86,P_87,P_88,P_89,P_90,P_91,P_92,P_93,P_94,P_95,P_96,P_97,P_98,P_99,P_100,P_101,P_102,P_103,P_104,P_105,P_106,P_107,P_108,P_109,P_110,P_111,P_112,P_113,P_114,P_115,P_116,P_117,P_118,P_119,P_120,P_121,P_122,P_123,P_124,P_125,P_126,P_127,P_128,P_129,P_130,P_131,P_132,P_133,P_134,P_135,P_136,P_137,P_138,P_139,P_140,P_141,P_142,P_143,P_144,P_145,P_146,P_147,P_148,P_149,P_150,P_151,P_152,P_153,P_154,P_155,P_156,P_157,P_158,P_159,P_160,P_161,P_162,P_163,P_164,P_165,P_166,P_167,P_168,P_169,P_170,P_171,P_172,P_173,P_174,P_175,P_176,P_177,P_178,P_179,P_180,P_181,P_182,P_183,P_184,P_185,P_186,P_187,P_188,P_189,P_190,P_191,P_192,P_193,P_194,P_195,P_196,P_197,P_198,P_199,P_200,P_201,P_202,P_203,P_204,P_205,P_206,P_207,P_208,P_209,P_210,P_211,P_212,P_213,P_214,P_215,P_216,P_217,P_218,P_219,P_220,P_221,P_222,P_223,P_224,P_225,P_226,P_227,P_228,P_229,P_230,P_231,P_232,P_233,Flex1,Flex2,Bat,IMU1_RefTime,IMU1_Ax,IMU1_Ay,IMU1_Az,IMU1_Wx,IMU1_Wy,IMU1_Wz,IMU1_Roll,IMU1_Pitch,IMU1_Yaw,IMU1_Hx,IMU1_Hy,IMU1_Hz,IMU1_Q0,IMU1_Q1,IMU1_Q2,IMU1_Q3,IMU2_RefTime,IMU2_Ax,IMU2_Ay,IMU2_Az,IMU2_Wx,IMU2_Wy,IMU2_Wz,IMU2_Roll,IMU2_Pitch,IMU2_Yaw,IMU2_Hx,IMU2_Hy,IMU2_Hz,IMU2_Q0,IMU2_Q1,IMU2_Q2,IMU2_Q3,IMU1_FusedRoll,IMU1_FusedPitch,IMU1_FusedYaw,IMU1_FusedQ0,IMU1_FusedQ1,IMU1_FusedQ2,IMU1_FusedQ3,IMU1_MagValid,IMU2_FusedRoll,IMU2_FusedPitch,IMU2_FusedYaw,IMU2_FusedQ0,IMU2_FusedQ1,IMU2_FusedQ2,IMU2_FusedQ3,IMU2_MagValid
1782117388.256590,0.015,1023.0,1023.0,1023.0,1023.0,1023.0,1023.0,1023.0,1024.0,1023.0,1023.0,1023.0,1024.0,1023.0,1024.0,1023.0,1023.0,1022.0,1024.0,1024.0,1023.0,1024.0,1023.0,1023.0,1024.0,1023.0,1024.0,1024.0,1023.0,1024.0,1023.0,1024.0,1024.0,1023.0,1023.0,1024.0,1023.0,1023.0,1024.0,1023.0,1023.0,1023.0,1022.0,1023.0,1023.0,1024.0,1023.0,1024.0,1022.0,1023.0,1022.0,1022.0,1023.0,1022.0,1024.0,1023.0,1023.0,1024.0,1023.0,1023.0,1022.0,1022.0,1023.0,1023.0,1023.0,1023.0,1024.0,1024.0,1023.0,1023.0,1022.0,1022.0,1024.0,1023.0,1023.0,1023.0,1023.0,1024.0,1023.0,1023.0,1022.0,1022.0,1023.0,1023.0,1024.0,1024.0,1023.0,1024.0,1024.0,1024.0,1024.0,1023.0,1024.0,1024.0,1024.0,1025.0,1024.0,1025.0,1024.0,1024.0,1026.0,1023.0,1023.0,1023.0,1024.0,1024.0,1024.0,1025.0,1024.0,1024.0,1023.0,1022.0,1023.0,1023.0,1023.0,1023.0,1023.0,1024.0,1023.0,1023.0,1021.0,1022.0,1023.0,1023.0,1024.0,1023.0,1024.0,1024.0,1023.0,1023.0,1023.0,1023.0,1023.0,1023.0,1024.0,1023.0,1022.0,1023.0,1024.0,1024.0,1024.0,1024.0,1024.0,1024.0,1023.0,1024.0,1024.0,1023.0,1025.0,1024.0,1024.0,1023.0,1024.0,1024.0,1024.0,1026.0,1025.0,1024.0,1025.0,1025.0,1025.0,1028.0,1026.0,1024.0,1027.0,1026.0,1026.0,1031.0,1028.0,1025.0,1028.0,1028.0,1029.0,1035.0,1029.0,1026.0,1031.0,1031.0,1030.0,1042.0,1030.0,1027.0,1034.0,1034.0,1030.0,1043.0,1034.0,1030.0,1037.0,1036.0,1030.0,1046.0,1035.0,1032.0,1040.0,1039.0,1030.0,1047.0,1035.0,1031.0,1036.0,1036.0,1028.0,1041.0,1033.0,1034.0,1036.0,1035.0,1029.0,1038.0,1033.0,1023.0,1023.0,1023.0,1022.0,1024.0,1023.0,1040.0,1042.0,1036.0,1031.0,1040.0,1038.0,1033.0,1036.0,1032.0,1031.0,1037.0,1035.0,1029.0,1031.0,1028.0,1028.0,1032.0,2045,2023,1909,	00:31:21.037,0.05322265625,0.0458984375,1.0166015625,-0.244140625,0.18310546875,0.06103515625,2.5653076171875,-3.01025390625,52.0257568359375,440.0,-1582.0,-2567.0,0.89788818359375,0.031646728515625,-0.0137939453125,0.4388427734375,2.566149262128247,-3.0102223980962424,47.526542120628804,0.9144360093508649,0.03106800883181164,-0.01501326737460043,0.4032569471595377,1,	00:31:21.038,0.02392578125,0.06884765625,1.0048828125,-1.03759765625,-1.3427734375,-0.48828125,3.9605712890625,-1.4227294921875,129.3255615234375,-414.0,-1275.0,-1933.0,-0.427276611328125,-0.0260009765625,-0.025909423828125,-0.90338134765625,3.959392727131697,-1.4243128210421838,129.8540496883744,-0.4230976832072798,-0.02588944784338027,-0.026023691379435297,-0.9053401871351924,1
1782117388.267037,0.025,1023.0,1023.0,1023.0,1022.0,1023.0,1023.0,1023.0,1023.0,1022.0,1023.0,1023.0,1023.0,1023.0,1023.0,1023.0,1023.0,1023.0,1023.0,1024.0,1024.0,1024.0,1023.0,1023.0,1023.0,1023.0,1024.0,1024.0,1023.0,1024.0,1023.0,1024.0,1024.0,1023.0,1023.0,1023.0,1023.0,1022.0,1024.0,1023.0,1023.0,1023.0,1022.0,1023.0,1023.0,1023.0,1023.0,1024.0,1023.0,1023.0,1023.0,1023.0,1024.0,1023.0,1024.0,1023.0,1023.0,1024.0,1023.0,1024.0,1023.0,1023.0,1023.0,1023.0,1023.0,1023.0,1023.0,1024.0,1023.0,1023.0,1022.0,1022.0,1023.0,1022.0,1024.0,1023.0,1022.0,1024.0,1023.0,1022.0,1022.0,1023.0,1023.0,1023.0,1024.0,1024.0,1023.0,1024.0,1024.0,1024.0,1024.0,1023.0,1023.0,1023.0,1024.0,1025.0,1024.0,1025.0,1024.0,1024.0,1026.0,1024.0,1024.0,1023.0,1024.0,1024.0,1024.0,1025.0,1024.0,1024.0,1024.0,1023.0,1023.0,1022.0,1023.0,1023.0,1023.0,1024.0,1023.0,1023.0,1021.0,1022.0,1022.0,1023.0,1023.0,1023.0,1024.0,1023.0,1023.0,1023.0,1023.0,1024.0,1023.0,1024.0,1024.0,1023.0,1023.0,1024.0,1024.0,1024.0,1024.0,1025.0,1024.0,1024.0,1023.0,1024.0,1024.0,1023.0,1025.0,1024.0,1024.0,1023.0,1024.0,1024.0,1024.0,1026.0,1024.0,1024.0,1025.0,1025.0,1025.0,1028.0,1026.0,1024.0,1026.0,1027.0,1027.0,1031.0,1027.0,1025.0,1029.0,1028.0,1029.0,1035.0,1029.0,1026.0,1031.0,1031.0,1030.0,1042.0,1031.0,1028.0,1033.0,1033.0,1030.0,1043.0,1034.0,1029.0,1037.0,1036.0,1030.0,1045.0,1035.0,1033.0,1040.0,1039.0,1031.0,1048.0,1036.0,1032.0,1035.0,1036.0,1028.0,1041.0,1033.0,1035.0,1036.0,1036.0,1029.0,1039.0,1032.0,1023.0,1023.0,1022.0,1022.0,1024.0,1022.0,1041.0,1042.0,1036.0,1032.0,1040.0,1037.0,1033.0,1036.0,1032.0,1031.0,1037.0,1035.0,1028.0,1031.0,1028.0,1027.0,1031.0,2045,2023,1909,	00:31:21.047,0.05322265625,0.04541015625,1.017578125,-0.244140625,0.18310546875,0.06103515625,2.515869140625,-2.9278564453125,52.03125,440.0,-1581.0,-2569.0,0.897918701171875,0.03094482421875,-0.013336181640625,0.4388427734375,2.5181929583200873,-2.929024374493095,47.52958915840078,0.9144612805926122,0.030400706192323865,-0.014532920342220167,0.40326809641509515,1,	00:31:21.048,0.02197265625,0.06787109375,1.0048828125,-1.03759765625,-1.28173828125,-0.48828125,3.9056396484375,-1.3568115234375,129.320068359375,-415.0,-1278.0,-1933.0,-0.427337646484375,-0.0252685546875,-0.025726318359375,-0.90338134765625,3.9052366626866637,-1.3564431403851713,129.84935116120423,-0.42316831359815055,-0.025154539216592022,-0.025845839752061693,-0.9053329885135132,1
1782117388.278590,0.037,1023.0,1023.0,1023.0,1023.0,1023.0,1023.0,1023.0,1023.0,1023.0,1023.0,1023.0,1023.0,1023.0,1024.0,1023.0,1023.0,1023.0,1023.0,1024.0,1024.0,1024.0,1023.0,1023.0,1023.0,1023.0,1024.0,1024.0,1023.0,1024.0,1023.0,1024.0,1024.0,1023.0,1023.0,1024.0,1023.0,1024.0,1024.0,1024.0,1023.0,1023.0,1022.0,1023.0,1024.0,1023.0,1023.0,1024.0,1023.0,1023.0,1023.0,1022.0,1023.0,1023.0,1023.0,1023.0,1023.0,1023.0,1023.0,1023.0,1023.0,1023.0,1024.0,1022.0,1024.0,1023.0,1023.0,1024.0,1024.0,1023.0,1023.0,1023.0,1023.0,1023.0,1023.0,1023.0,1023.0,1024.0,1023.0,1023.0,1022.0,1023.0,1023.0,1023.0,1024.0,1024.0,1023.0,1024.0,1023.0,1024.0,1024.0,1022.0,1023.0,1023.0,1024.0,1025.0,1024.0,1025.0,1024.0,1024.0,1026.0,1023.0,1023.0,1023.0,1024.0,1024.0,1024.0,1025.0,1024.0,1024.0,1023.0,1023.0,1024.0,1022.0,1023.0,1023.0,1023.0,1024.0,1023.0,1022.0,1021.0,1022.0,1023.0,1024.0,1023.0,1023.0,1024.0,1023.0,1023.0,1023.0,1022.0,1023.0,1023.0,1023.0,1024.0,1023.0,1023.0,1024.0,1024.0,1024.0,1024.0,1025.0,1024.0,1024.0,1023.0,1023.0,1024.0,1024.0,1025.0,1024.0,1024.0,1023.0,1024.0,1024.0,1024.0,1026.0,1024.0,1024.0,1025.0,1025.0,1025.0,1028.0,1027.0,1024.0,1026.0,1026.0,1026.0,1031.0,1027.0,1025.0,1028.0,1028.0,1029.0,1035.0,1029.0,1026.0,1031.0,1031.0,1030.0,1042.0,1031.0,1028.0,1034.0,1032.0,1029.0,1043.0,1033.0,1030.0,1037.0,1036.0,1030.0,1045.0,1035.0,1032.0,1039.0,1039.0,1030.0,1047.0,1035.0,1032.0,1035.0,1036.0,1029.0,1042.0,1033.0,1035.0,1036.0,1035.0,1029.0,1039.0,1032.0,1023.0,1023.0,1023.0,1023.0,1024.0,1022.0,1041.0,1042.0,1036.0,1032.0,1040.0,1037.0,1033.0,1035.0,1031.0,1030.0,1036.0,1034.0,1029.0,1031.0,1027.0,1028.0,1031.0,2045,2023,1909,	00:31:21.057,0.05419921875,0.0458984375,1.01806640625,-0.18310546875,0.18310546875,0.06103515625,2.559814453125,-3.0047607421875,52.0257568359375,442.0,-1578.0,-2567.0,0.89788818359375,0.031585693359375,-0.0137939453125,0.4388427734375,2.5602956459850974,-3.007463535188666,47.52800469171801,0.914433243235413,0.03101180597801809,-0.015011443846880272,0.4032676135143732,1,	00:31:21.059,0.0234375,0.068359375,1.0048828125,-1.03759765625,-1.28173828125,-0.48828125,3.8507080078125,-1.2908935546875,129.3145751953125,-417.0,-1278.0,-1934.0,-0.42742919921875,-0.0245361328125,-0.025543212890625,-0.903350830078125,3.8491222819174093,-1.2896753748882288,129.84465813008376,-0.4232382300412453,-0.02442104990384512,-0.025648488806850365,-0.9053260009383761,1
1782117388.288237,0.047,1023.0,1023.0,1023.0,1023.0,1023.0,1023.0,1023.0,1024.0,1023.0,1023.0,1023.0,1024.0,1023.0,1023.0,1023.0,1023.0,1023.0,1023.0,1024.0,1023.0,1024.0,1023.0,1023.0,1024.0,1023.0,1024.0,1024.0,1023.0,1024.0,1023.0,1023.0,1024.0,1023.0,1023.0,1023.0,1024.0,1023.0,1024.0,1023.0,1023.0,1023.0,1022.0,1022.0,1024.0,1023.0,1023.0,1024.0,1024.0,1023.0,1022.0,1023.0,1023.0,1023.0,1023.0,1024.0,1023.0,1024.0,1023.0,1023.0,1023.0,1022.0,1023.0,1023.0,1023.0,1023.0,1022.0,1023.0,1023.0,1023.0,1022.0,1022.0,1023.0,1023.0,1024.0,1023.0,1023.0,1024.0,1023.0,1023.0,1022.0,1022.0,1023.0,1023.0,1024.0,1024.0,1023.0,1024.0,1024.0,1024.0,1024.0,1023.0,1024.0,1024.0,1024.0,1025.0,1024.0,1025.0,1024.0,1024.0,1025.0,1024.0,1024.0,1023.0,1024.0,1024.0,1023.0,1025.0,1024.0,1024.0,1023.0,1023.0,1023.0,1022.0,1024.0,1023.0,1023.0,1024.0,1023.0,1022.0,1021.0,1022.0,1023.0,1023.0,1023.0,1024.0,1024.0,1024.0,1024.0,1023.0,1023.0,1024.0,1023.0,1023.0,1024.0,1023.0,1023.0,1023.0,1024.0,1024.0,1024.0,1025.0,1024.0,1024.0,1023.0,1024.0,1024.0,1024.0,1025.0,1024.0,1024.0,1023.0,1024.0,1024.0,1024.0,1026.0,1025.0,1024.0,1024.0,1024.0,1025.0,1029.0,1027.0,1024.0,1026.0,1026.0,1027.0,1031.0,1027.0,1025.0,1028.0,1028.0,1029.0,1035.0,1029.0,1026.0,1031.0,1031.0,1030.0,1042.0,1030.0,1028.0,1034.0,1033.0,1030.0,1042.0,1033.0,1030.0,1037.0,1036.0,1030.0,1046.0,1035.0,1033.0,1039.0,1040.0,1030.0,1047.0,1035.0,1032.0,1035.0,1035.0,1029.0,1042.0,1033.0,1035.0,1036.0,1035.0,1029.0,1038.0,1032.0,1023.0,1023.0,1023.0,1023.0,1024.0,1023.0,1041.0,1042.0,1037.0,1032.0,1040.0,1037.0,1033.0,1035.0,1032.0,1031.0,1037.0,1034.0,1029.0,1031.0,1027.0,1028.0,1032.0,2045,2023,1909,	00:31:21.068,0.05419921875,0.0458984375,1.01806640625,-0.18310546875,0.18310546875,0.06103515625,2.603759765625,-3.087158203125,52.0257568359375,442.0,-1580.0,-2568.0,0.897857666015625,0.0322265625,-0.01422119140625,0.4388427734375,2.603849389095973,-3.085081603221865,47.5262846229262,0.9144047706220508,0.03163153631629233,-0.015478345556147105,0.4032663911023954,1,	00:31:21.069,0.0224609375,0.0693359375,1.00439453125,-1.03759765625,-1.40380859375,-0.48828125,3.9276123046875,-1.2908935546875,129.30908203125,-414.0,-1277.0,-1936.0,-0.427459716796875,-0.024871826171875,-0.026153564453125,-0.9033203125,3.9297666382023904,-1.292755338738723,129.83679496817433,-0.4232820962361112,-0.024745026446595143,-0.026272517950774874,-0.9052787998581691,1
1782117388.297274,0.056,1023.0,1023.0,1023.0,1022.0,1023.0,1023.0,1023.0,1024.0,1023.0,1023.0,1024.0,1024.0,1023.0,1024.0,1023.0,1023.0,1023.0,1023.0,1024.0,1023.0,1024.0,1023.0,1024.0,1024.0,1023.0,1024.0,1024.0,1024.0,1024.0,1023.0,1023.0,1023.0,1023.0,1022.0,1024.0,1024.0,1023.0,1024.0,1023.0,1023.0,1023.0,1022.0,1023.0,1023.0,1023.0,1023.0,1024.0,1023.0,1023.0,1022.0,1023.0,1023.0,1023.0,1023.0,1024.0,1023.0,1024.0,1023.0,1023.0,1022.0,1023.0,1023.0,1023.0,1023.0,1024.0,1023.0,1024.0,1023.0,1024.0,1022.0,1023.0,1024.0,1023.0,1023.0,1023.0,1022.0,1024.0,1023.0,1022.0,1022.0,1022.0,1023.0,1023.0,1024.0,1024.0,1023.0,1024.0,1023.0,1024.0,1024.0,1023.0,1023.0,1024.0,1024.0,1025.0,1024.0,1025.0,1024.0,1024.0,1026.0,1023.0,1024.0,1023.0,1024.0,1024.0,1024.0,1025.0,1024.0,1024.0,1023.0,1023.0,1023.0,1022.0,1023.0,1023.0,1023.0,1024.0,1023.0,1022.0,1021.0,1022.0,1023.0,1024.0,1024.0,1023.0,1024.0,1023.0,1023.0,1022.0,1022.0,1024.0,1023.0,1023.0,1024.0,1024.0,1023.0,1023.0,1024.0,1024.0,1024.0,1025.0,1024.0,1024.0,1023.0,1024.0,1023.0,1024.0,1025.0,1024.0,1024.0,1023.0,1024.0,1024.0,1024.0,1026.0,1025.0,1023.0,1025.0,1025.0,1026.0,1028.0,1026.0,1024.0,1026.0,1027.0,1027.0,1031.0,1027.0,1025.0,1029.0,1029.0,1029.0,1035.0,1029.0,1026.0,1030.0,1032.0,1030.0,1042.0,1030.0,1027.0,1033.0,1032.0,1029.0,1043.0,1033.0,1030.0,1037.0,1036.0,1030.0,1046.0,1035.0,1033.0,1040.0,1039.0,1031.0,1047.0,1035.0,1032.0,1035.0,1036.0,1029.0,1042.0,1032.0,1035.0,1036.0,1035.0,1029.0,1038.0,1032.0,1023.0,1023.0,1023.0,1023.0,1024.0,1022.0,1041.0,1042.0,1036.0,1032.0,1040.0,1037.0,1033.0,1036.0,1031.0,1031.0,1037.0,1035.0,1029.0,1031.0,1027.0,1028.0,1032.0,2045,2023,1909,	00:31:21.078,0.05419921875,0.0458984375,1.01806640625,-0.244140625,0.18310546875,0.06103515625,2.559814453125,-3.0047607421875,52.03125,442.0,-1579.0,-2571.0,0.89788818359375,0.031524658203125,-0.013763427734375,0.438873291015625,2.5571954628838425,-3.0031605526491623,47.52932271725573,0.9144306820068977,0.03097213639247862,-0.014987642399668853,0.4032773551130604,1,	00:31:21.079,0.0234375,0.06884765625,1.00537109375,-1.03759765625,-1.40380859375,-0.54931640625,3.8946533203125,-1.395263671875,129.3035888671875,-415.0,-1279.0,-1932.0,-0.427490234375,-0.0255126953125,-0.025482177734375,-0.903289794921875,3.8923817579548436,-1.3939457145380436,129.83099663538414,-0.42330440858474716,-0.025407346901385287,-0.025601478259768762,-0.9052692465267251,1
1782117388.307809,0.066,1023.0,1023.0,1023.0,1023.0,1022.0,1023.0,1023.0,1023.0,1022.0,1023.0,1023.0,1024.0,1023.0,1024.0,1023.0,1023.0,1023.0,1023.0,1024.0,1023.0,1023.0,1023.0,1023.0,1023.0,1023.0,1023.0,1024.0,1023.0,1024.0,1024.0,1024.0,1023.0,1023.0,1023.0,1023.0,1023.0,1023.0,1024.0,1023.0,1023.0,1023.0,1022.0,1023.0,1023.0,1023.0,1023.0,1024.0,1023.0,1023.0,1022.0,1023.0,1023.0,1023.0,1023.0,1024.0,1023.0,1023.0,1023.0,1023.0,1022.0,1022.0,1023.0,1022.0,1024.0,1022.0,1023.0,1024.0,1023.0,1023.0,1022.0,1022.0,1024.0,1023.0,1023.0,1024.0,1023.0,1024.0,1023.0,1023.0,1022.0,1023.0,1023.0,1023.0,1024.0,1024.0,1024.0,1024.0,1023.0,1023.0,1024.0,1023.0,1023.0,1024.0,1024.0,1025.0,1023.0,1025.0,1024.0,1024.0,1026.0,1024.0,1024.0,1023.0,1024.0,1024.0,1024.0,1024.0,1023.0,1024.0,1024.0,1023.0,1023.0,1022.0,1024.0,1024.0,1022.0,1024.0,1023.0,1023.0,1021.0,1022.0,1023.0,1024.0,1024.0,1023.0,1024.0,1023.0,1023.0,1023.0,1023.0,1023.0,1024.0,1023.0,1024.0,1023.0,1023.0,1024.0,1024.0,1024.0,1024.0,1025.0,1024.0,1024.0,1023.0,1024.0,1024.0,1024.0,1026.0,1024.0,1024.0,1023.0,1024.0,1024.0,1024.0,1026.0,1024.0,1024.0,1025.0,1024.0,1026.0,1028.0,1026.0,1024.0,1027.0,1026.0,1027.0,1031.0,1028.0,1025.0,1028.0,1028.0,1029.0,1035.0,1029.0,1027.0,1030.0,1031.0,1030.0,1042.0,1031.0,1027.0,1032.0,1033.0,1029.0,1043.0,1033.0,1030.0,1036.0,1036.0,1030.0,1045.0,1035.0,1033.0,1039.0,1039.0,1030.0,1047.0,1035.0,1032.0,1036.0,1036.0,1029.0,1041.0,1033.0,1035.0,1036.0,1035.0,1029.0,1038.0,1032.0,1023.0,1023.0,1023.0,1023.0,1024.0,1022.0,1040.0,1042.0,1036.0,1032.0,1040.0,1037.0,1033.0,1035.0,1032.0,1031.0,1036.0,1033.0,1028.0,1031.0,1028.0,1028.0,1031.0,2045,2023,1909,	00:31:21.088,0.05419921875,0.04541015625,1.017578125,-0.244140625,0.18310546875,0.1220703125,2.548828125,-3.0926513671875,52.03125,441.0,-1579.0,-2569.0,0.897857666015625,0.031829833984375,-0.014495849609375,0.438873291015625,2.5503443751330575,-3.092837539283824,47.53085844836323,0.9144010679021854,0.031232427011080546,-0.01572731370762498,0.4032962609867368,1,	00:31:21.089,0.02294921875,0.068359375,1.00537109375,-0.9765625,-1.40380859375,-0.48828125,3.878173828125,-1.318359375,129.298095703125,-415.0,-1279.0,-1939.0,-0.42755126953125,-0.024871826171875,-0.025665283203125,-0.903289794921875,3.880097707582609,-1.316015706479864,129.82522665335884,-0.42337696903390143,-0.024747853319132818,-0.025791567295203145,-0.9052481874625427,1
1782117388.318101,0.076,1023.0,1024.0,1023.0,1022.0,1023.0,1023.0,1022.0,1024.0,1023.0,1023.0,1023.0,1023.0,1023.0,1023.0,1023.0,1023.0,1023.0,1023.0,1024.0,1023.0,1024.0,1023.0,1023.0,1023.0,1023.0,1023.0,1024.0,1024.0,1024.0,1023.0,1024.0,1024.0,1023.0,1022.0,1023.0,1023.0,1023.0,1024.0,1024.0,1024.0,1023.0,1023.0,1023.0,1024.0,1024.0,1023.0,1024.0,1023.0,1023.0,1023.0,1023.0,1023.0,1023.0,1023.0,1023.0,1023.0,1024.0,1023.0,1023.0,1022.0,1022.0,1023.0,1023.0,1023.0,1023.0,1022.0,1023.0,1023.0,1023.0,1022.0,1022.0,1024.0,1023.0,1024.0,1023.0,1023.0,1024.0,1023.0,1023.0,1022.0,1022.0,1023.0,1023.0,1024.0,1024.0,1023.0,1024.0,1023.0,1023.0,1024.0,1023.0,1023.0,1023.0,1024.0,1025.0,1024.0,1025.0,1024.0,1025.0,1026.0,1024.0,1023.0,1022.0,1024.0,1024.0,1024.0,1025.0,1024.0,1024.0,1024.0,1023.0,1024.0,1023.0,1024.0,1023.0,1023.0,1024.0,1023.0,1023.0,1021.0,1022.0,1023.0,1023.0,1024.0,1024.0,1024.0,1023.0,1023.0,1022.0,1023.0,1024.0,1023.0,1022.0,1024.0,1024.0,1023.0,1024.0,1024.0,1024.0,1024.0,1025.0,1024.0,1024.0,1023.0,1024.0,1024.0,1023.0,1025.0,1024.0,1024.0,1023.0,1024.0,1024.0,1024.0,1026.0,1025.0,1024.0,1025.0,1025.0,1025.0,1028.0,1026.0,1024.0,1026.0,1026.0,1027.0,1031.0,1027.0,1025.0,1028.0,1029.0,1029.0,1035.0,1028.0,1026.0,1030.0,1032.0,1030.0,1041.0,1030.0,1027.0,1033.0,1033.0,1030.0,1042.0,1033.0,1030.0,1036.0,1037.0,1030.0,1045.0,1035.0,1033.0,1039.0,1040.0,1031.0,1047.0,1035.0,1032.0,1036.0,1037.0,1029.0,1041.0,1033.0,1035.0,1036.0,1036.0,1030.0,1038.0,1033.0,1022.0,1023.0,1023.0,1023.0,1025.0,1023.0,1041.0,1042.0,1037.0,1032.0,1039.0,1037.0,1033.0,1036.0,1032.0,1031.0,1036.0,1033.0,1029.0,1031.0,1028.0,1028.0,1032.0,2045,2023,1909,	00:31:21.098,0.05419921875,0.044921875,1.017578125,-0.244140625,0.18310546875,0.06103515625,2.5103759765625,-3.01025390625,52.03125,441.0,-1582.0,-2567.0,0.89788818359375,0.03118896484375,-0.01397705078125,0.43890380859375,2.50815647435367,-3.008609520673368,47.53366221345117,0.9144270200296014,0.030600508503256567,-0.015202567987676819,0.4033059829034342,1,	00:31:21.100,0.0234375,0.068359375,1.0048828125,-1.03759765625,-1.40380859375,-0.54931640625,3.922119140625,-1.40625,129.287109375,-414.0,-1279.0,-1937.0,-0.427581787109375,-0.025726318359375,-0.025665283203125,-0.90325927734375,3.921385480119169,-1.405305120336088,129.81757942760143,-0.42340037164547195,-0.025607209130215716,-0.02578557153289648,-0.9052135109639932,1
1782117388.328216,0.086,1023.0,1024.0,1023.0,1023.0,1023.0,1023.0,1023.0,1024.0,1022.0,1023.0,1024.0,1023.0,1023.0,1023.0,1023.0,1023.0,1023.0,1023.0,1024.0,1022.0,1024.0,1024.0,1023.0,1024.0,1023.0,1024.0,1024.0,1024.0,1024.0,1023.0,1024.0,1023.0,1023.0,1023.0,1023.0,1023.0,1023.0,1024.0,1023.0,1023.0,1023.0,1023.0,1023.0,1023.0,1023.0,1023.0,1024.0,1023.0,1024.0,1022.0,1023.0,1023.0,1022.0,1024.0,1023.0,1023.0,1024.0,1023.0,1023.0,1022.0,1023.0,1023.0,1023.0,1023.0,1023.0,1023.0,1024.0,1023.0,1023.0,1022.0,1022.0,1024.0,1023.0,1023.0,1023.0,1023.0,1024.0,1023.0,1023.0,1023.0,1022.0,1024.0,1024.0,1024.0,1024.0,1023.0,1024.0,1024.0,1024.0,1024.0,1024.0,1024.0,1023.0,1024.0,1025.0,1024.0,1025.0,1024.0,1024.0,1026.0,1024.0,1024.0,1023.0,1024.0,1024.0,1024.0,1025.0,1024.0,1024.0,1024.0,1023.0,1023.0,1022.0,1024.0,1023.0,1023.0,1024.0,1023.0,1023.0,1020.0,1022.0,1023.0,1023.0,1023.0,1024.0,1024.0,1024.0,1023.0,1023.0,1023.0,1023.0,1023.0,1023.0,1024.0,1023.0,1023.0,1023.0,1024.0,1024.0,1024.0,1025.0,1024.0,1023.0,1023.0,1024.0,1024.0,1024.0,1025.0,1024.0,1024.0,1023.0,1024.0,1024.0,1023.0,1025.0,1025.0,1024.0,1025.0,1025.0,1025.0,1028.0,1026.0,1024.0,1026.0,1026.0,1028.0,1031.0,1028.0,1025.0,1029.0,1028.0,1029.0,1035.0,1029.0,1026.0,1031.0,1032.0,1030.0,1042.0,1030.0,1027.0,1033.0,1033.0,1030.0,1042.0,1033.0,1030.0,1037.0,1036.0,1031.0,1045.0,1035.0,1033.0,1040.0,1039.0,1031.0,1047.0,1035.0,1032.0,1036.0,1036.0,1028.0,1042.0,1033.0,1035.0,1036.0,1035.0,1029.0,1038.0,1032.0,1023.0,1023.0,1023.0,1023.0,1024.0,1022.0,1041.0,1043.0,1036.0,1032.0,1039.0,1037.0,1033.0,1036.0,1032.0,1031.0,1036.0,1034.0,1029.0,1031.0,1028.0,1028.0,1032.0,2045,2023,1909,	00:31:21.109,0.0537109375,0.0458984375,1.017578125,-0.244140625,0.18310546875,0.06103515625,2.5982666015625,-3.021240234375,52.03125,440.0,-1579.0,-2567.0,0.89788818359375,0.031890869140625,-0.01373291015625,0.438873291015625,2.5965779002937808,-3.018738660492405,47.529574302861334,0.9144145894553845,0.031341111919678394,-0.014973351124902883,0.40328586889558815,1,	00:31:21.110,0.02294921875,0.068359375,1.0048828125,-1.0986328125,-1.40380859375,-0.48828125,3.8836669921875,-1.329345703125,129.2816162109375,-415.0,-1280.0,-1932.0,-0.427642822265625,-0.024993896484375,-0.025665283203125,-0.903228759765625,3.8844634631696198,-1.3311743688872573,129.8123617473473,-0.42347294548450304,-0.024886582359901165,-0.02576716251546042,-0.9052001854822086,1
1782117388.338092,0.096,1024.0,1023.0,1023.0,1023.0,1022.0,1023.0,1023.0,1024.0,1023.0,1023.0,1023.0,1023.0,1023.0,1024.0,1023.0,1024.0,1023.0,1023.0,1024.0,1023.0,1024.0,1023.0,1024.0,1023.0,1023.0,1023.0,1024.0,1022.0,1024.0,1023.0,1024.0,1024.0,1023.0,1023.0,1023.0,1023.0,1023.0,1024.0,1023.0,1023.0,1023.0,1022.0,1023.0,1024.0,1023.0,1023.0,1024.0,1023.0,1023.0,1023.0,1022.0,1023.0,1023.0,1023.0,1023.0,1023.0,1024.0,1023.0,1023.0,1022.0,1023.0,1024.0,1023.0,1023.0,1023.0,1023.0,1024.0,1023.0,1023.0,1023.0,1023.0,1023.0,1022.0,1023.0,1023.0,1023.0,1024.0,1023.0,1023.0,1023.0,1022.0,1023.0,1023.0,1024.0,1024.0,1023.0,1024.0,1024.0,1024.0,1024.0,1023.0,1023.0,1024.0,1024.0,1025.0,1024.0,1025.0,1024.0,1024.0,1025.0,1023.0,1024.0,1023.0,1024.0,1024.0,1024.0,1024.0,1023.0,1024.0,1024.0,1023.0,1023.0,1023.0,1024.0,1022.0,1023.0,1024.0,1023.0,1023.0,1021.0,1022.0,1023.0,1023.0,1024.0,1023.0,1024.0,1023.0,1023.0,1023.0,1023.0,1024.0,1023.0,1023.0,1024.0,1023.0,1023.0,1023.0,1024.0,1024.0,1024.0,1024.0,1024.0,1024.0,1024.0,1024.0,1024.0,1024.0,1025.0,1024.0,1024.0,1024.0,1024.0,1024.0,1024.0,1025.0,1025.0,1024.0,1025.0,1025.0,1025.0,1028.0,1026.0,1024.0,1027.0,1026.0,1027.0,1031.0,1027.0,1025.0,1028.0,1028.0,1029.0,1035.0,1029.0,1026.0,1031.0,1032.0,1030.0,1041.0,1031.0,1027.0,1034.0,1032.0,1030.0,1042.0,1033.0,1029.0,1037.0,1036.0,1030.0,1045.0,1035.0,1033.0,1040.0,1039.0,1030.0,1047.0,1035.0,1032.0,1036.0,1036.0,1029.0,1041.0,1032.0,1035.0,1037.0,1035.0,1029.0,1038.0,1032.0,1022.0,1024.0,1023.0,1022.0,1025.0,1022.0,1041.0,1042.0,1036.0,1032.0,1039.0,1037.0,1033.0,1036.0,1032.0,1031.0,1036.0,1034.0,1029.0,1032.0,1027.0,1027.0,1031.0,2045,2023,1909,	00:31:21.119,0.0546875,0.044921875,1.01806640625,-0.18310546875,0.18310546875,0.06103515625,2.5213623046875,-3.0706787109375,52.0367431640625,440.0,-1577.0,-2568.0,0.897857666015625,0.031524658203125,-0.014434814453125,0.43890380859375,2.5215766611103083,-3.072348673211408,47.53415439059246,0.9144032650423162,0.030931405701598105,-0.015664088033786074,0.403316939102915,1,	00:31:21.120,0.02294921875,0.06689453125,1.00390625,-1.03759765625,-1.40380859375,-0.54931640625,3.790283203125,-1.3128662109375,129.276123046875,-414.0,-1277.0,-1935.0,-0.427703857421875,-0.024505615234375,-0.024932861328125,-0.903228759765625,3.787623368905609,-1.315412575240201,129.80792690737587,-0.4235336480601849,-0.024405204434208086,-0.025059579929277844,-0.9052047571743778,1
1782117388.349115,0.107,1023.0,1023.0,1023.0,1023.0,1023.0,1023.0,1022.0,1024.0,1022.0,1023.0,1023.0,1024.0,1023.0,1024.0,1023.0,1024.0,1023.0,1023.0,1024.0,1023.0,1024.0,1023.0,1024.0,1023.0,1023.0,1023.0,1024.0,1024.0,1024.0,1023.0,1024.0,1023.0,1023.0,1022.0,1023.0,1024.0,1023.0,1024.0,1023.0,1023.0,1022.0,1022.0,1023.0,1023.0,1023.0,1023.0,1024.0,1023.0,1023.0,1022.0,1022.0,1023.0,1023.0,1023.0,1022.0,1023.0,1024.0,1023.0,1023.0,1022.0,1022.0,1023.0,1023.0,1023.0,1023.0,1023.0,1023.0,1023.0,1022.0,1022.0,1022.0,1023.0,1022.0,1023.0,1023.0,1023.0,1024.0,1023.0,1022.0,1023.0,1022.0,1024.0,1023.0,1024.0,1024.0,1024.0,1024.0,1024.0,1024.0,1024.0,1023.0,1023.0,1023.0,1024.0,1025.0,1024.0,1025.0,1024.0,1024.0,1026.0,1024.0,1024.0,1023.0,1024.0,1024.0,1024.0,1025.0,1024.0,1024.0,1024.0,1023.0,1023.0,1022.0,1023.0,1023.0,1023.0,1024.0,1023.0,1022.0,1021.0,1022.0,1023.0,1024.0,1023.0,1024.0,1024.0,1023.0,1023.0,1022.0,1023.0,1024.0,1023.0,1023.0,1024.0,1023.0,1023.0,1023.0,1024.0,1024.0,1024.0,1025.0,1023.0,1024.0,1023.0,1024.0,1024.0,1024.0,1025.0,1024.0,1024.0,1023.0,1025.0,1024.0,1024.0,1026.0,1025.0,1024.0,1025.0,1025.0,1025.0,1028.0,1026.0,1024.0,1027.0,1026.0,1027.0,1030.0,1027.0,1025.0,1028.0,1028.0,1029.0,1035.0,1029.0,1027.0,1031.0,1032.0,1030.0,1042.0,1031.0,1027.0,1033.0,1033.0,1030.0,1043.0,1033.0,1029.0,1037.0,1036.0,1030.0,1045.0,1035.0,1032.0,1039.0,1039.0,1030.0,1047.0,1035.0,1032.0,1036.0,1036.0,1029.0,1041.0,1033.0,1035.0,1036.0,1036.0,1029.0,1038.0,1032.0,1023.0,1023.0,1023.0,1023.0,1024.0,1022.0,1040.0,1042.0,1037.0,1032.0,1039.0,1037.0,1033.0,1036.0,1032.0,1031.0,1036.0,1034.0,1028.0,1031.0,1028.0,1028.0,1032.0,2045,2023,1909,	00:31:21.129,0.0537109375,0.04638671875,1.017578125,-0.18310546875,0.1220703125,0.06103515625,2.5982666015625,-3.021240234375,52.03125,440.0,-1580.0,-2572.0,0.897857666015625,0.03192138671875,-0.013763427734375,0.438873291015625,2.598022750436048,-3.0233279216503006,47.530654141054704,0.9144090621690301,0.03136889023545429,-0.015004611122224476,0.4032950798033892,1,	00:31:21.130,0.0234375,0.068359375,1.0048828125,-1.0986328125,-1.46484375,-0.48828125,3.8671875,-1.3458251953125,129.2706298828125,-414.0,-1276.0,-1936.0,-0.427764892578125,-0.025054931640625,-0.02545166015625,-0.9031982421875,3.8669658383908203,-1.3449664183917887,129.79999491295942,-0.4235701557730561,-0.02493358853794595,-0.02557519685690417,-0.9051588526920232,1
1782117388.358445,0.117,1023.0,1023.0,1024.0,1022.0,1023.0,1023.0,1022.0,1023.0,1023.0,1023.0,1023.0,1024.0,1023.0,1024.0,1023.0,1023.0,1023.0,1023.0,1024.0,1024.0,1024.0,1023.0,1023.0,1023.0,1023.0,1024.0,1024.0,1023.0,1024.0,1024.0,1023.0,1023.0,1023.0,1023.0,1023.0,1023.0,1023.0,1024.0,1023.0,1023.0,1023.0,1023.0,1023.0,1024.0,1023.0,1023.0,1024.0,1023.0,1023.0,1023.0,1022.0,1023.0,1024.0,1023.0,1023.0,1023.0,1024.0,1023.0,1023.0,1023.0,1022.0,1023.0,1023.0,1023.0,1023.0,1023.0,1024.0,1023.0,1023.0,1022.0,1022.0,1023.0,1022.0,1024.0,1023.0,1023.0,1024.0,1023.0,1023.0,1022.0,1023.0,1023.0,1023.0,1024.0,1024.0,1023.0,1024.0,1023.0,1024.0,1024.0,1023.0,1023.0,1023.0,1024.0,1026.0,1024.0,1025.0,1024.0,1024.0,1026.0,1024.0,1024.0,1023.0,1024.0,1024.0,1024.0,1024.0,1024.0,1024.0,1024.0,1023.0,1023.0,1022.0,1023.0,1023.0,1023.0,1024.0,1023.0,1022.0,1021.0,1022.0,1023.0,1024.0,1023.0,1023.0,1024.0,1023.0,1023.0,1023.0,1023.0,1024.0,1023.0,1023.0,1024.0,1023.0,1022.0,1023.0,1024.0,1024.0,1024.0,1025.0,1024.0,1024.0,1023.0,1025.0,1024.0,1024.0,1024.0,1024.0,1024.0,1023.0,1024.0,1024.0,1024.0,1026.0,1025.0,1024.0,1025.0,1025.0,1025.0,1028.0,1026.0,1024.0,1027.0,1027.0,1027.0,1031.0,1028.0,1025.0,1028.0,1028.0,1029.0,1036.0,1029.0,1026.0,1031.0,1031.0,1030.0,1041.0,1030.0,1027.0,1033.0,1032.0,1030.0,1042.0,1033.0,1029.0,1037.0,1036.0,1030.0,1046.0,1035.0,1032.0,1039.0,1039.0,1031.0,1048.0,1035.0,1032.0,1036.0,1036.0,1029.0,1041.0,1033.0,1035.0,1036.0,1035.0,1029.0,1038.0,1032.0,1023.0,1023.0,1023.0,1023.0,1024.0,1022.0,1041.0,1042.0,1036.0,1032.0,1039.0,1037.0,1033.0,1036.0,1032.0,1031.0,1036.0,1034.0,1029.0,1031.0,1027.0,1028.0,1031.0,2045,2023,1909,	00:31:21.139,0.0537109375,0.0458984375,1.0185546875,-0.18310546875,0.18310546875,0.06103515625,2.5103759765625,-2.9827880859375,52.0367431640625,439.0,-1580.0,-2567.0,0.89788818359375,0.0311279296875,-0.0137939453125,0.43890380859375,2.512237515930534,-2.9847958670554373,47.53574508201031,0.9144254061153461,0.030549753087762633,-0.014997522811260343,0.4033211667475276,1,	00:31:21.140,0.0224609375,0.068359375,1.00537109375,-1.0986328125,-1.40380859375,-0.54931640625,3.8836669921875,-1.2744140625,129.26513671875,-414.0,-1277.0,-1933.0,-0.427825927734375,-0.0245361328125,-0.02587890625,-0.903167724609375,3.885267516815585,-1.2716802835066479,129.79289354755815,-0.42364498744592743,-0.024424174383226263,-0.02598959195996653,-0.9051259168907894,1
1782117388.369414,0.128,1023.0,1024.0,1023.0,1023.0,1023.0,1023.0,1023.0,1024.0,1023.0,1023.0,1023.0,1023.0,1024.0,1024.0,1023.0,1023.0,1023.0,1023.0,1024.0,1023.0,1024.0,1023.0,1023.0,1023.0,1023.0,1023.0,1024.0,1023.0,1024.0,1023.0,1023.0,1024.0,1023.0,1023.0,1023.0,1023.0,1023.0,1024.0,1023.0,1024.0,1022.0,1023.0,1023.0,1023.0,1023.0,1023.0,1024.0,1024.0,1024.0,1023.0,1023.0,1023.0,1023.0,1023.0,1024.0,1023.0,1023.0,1023.0,1023.0,1023.0,1022.0,1023.0,1023.0,1023.0,1023.0,1023.0,1024.0,1023.0,1023.0,1022.0,1022.0,1023.0,1023.0,1023.0,1023.0,1023.0,1024.0,1023.0,1023.0,1022.0,1022.0,1023.0,1023.0,1024.0,1024.0,1023.0,1024.0,1023.0,1024.0,1024.0,1023.0,1024.0,1023.0,1024.0,1025.0,1024.0,1025.0,1024.0,1024.0,1026.0,1024.0,1024.0,1023.0,1024.0,1024.0,1024.0,1025.0,1024.0,1024.0,1024.0,1023.0,1023.0,1022.0,1023.0,1023.0,1023.0,1024.0,1023.0,1023.0,1021.0,1022.0,1023.0,1023.0,1024.0,1023.0,1024.0,1023.0,1023.0,1023.0,1023.0,1024.0,1023.0,1023.0,1024.0,1023.0,1023.0,1024.0,1024.0,1024.0,1024.0,1025.0,1024.0,1024.0,1023.0,1024.0,1024.0,1024.0,1025.0,1024.0,1024.0,1023.0,1024.0,1024.0,1024.0,1025.0,1024.0,1024.0,1025.0,1025.0,1026.0,1028.0,1026.0,1024.0,1026.0,1026.0,1027.0,1030.0,1028.0,1025.0,1029.0,1028.0,1029.0,1035.0,1029.0,1026.0,1031.0,1032.0,1030.0,1041.0,1031.0,1027.0,1033.0,1033.0,1030.0,1042.0,1033.0,1029.0,1037.0,1036.0,1030.0,1045.0,1035.0,1032.0,1041.0,1040.0,1031.0,1047.0,1035.0,1031.0,1036.0,1037.0,1029.0,1041.0,1032.0,1035.0,1036.0,1035.0,1029.0,1038.0,1032.0,1023.0,1023.0,1023.0,1023.0,1024.0,1022.0,1040.0,1042.0,1036.0,1032.0,1039.0,1037.0,1033.0,1035.0,1032.0,1031.0,1036.0,1034.0,1028.0,1031.0,1028.0,1027.0,1031.0,2045,2023,1908,	00:31:21.150,0.0546875,0.04541015625,1.017578125,-0.244140625,0.18310546875,0.06103515625,2.548828125,-3.065185546875,52.0367431640625,442.0,-1580.0,-2573.0,0.897857666015625,0.031707763671875,-0.0142822265625,0.43890380859375,2.5497200092962795,-3.0653001046849018,47.53432896885895,0.9143970847188012,0.031131261818432534,-0.01550871227650168,0.4033215786923315,1,	00:31:21.151,0.02392578125,0.0673828125,1.0068359375,-1.0986328125,-1.40380859375,-0.54931640625,3.8232421875,-1.3623046875,129.2596435546875,-415.0,-1278.0,-1937.0,-0.4278564453125,-0.0250244140625,-0.025054931640625,-0.903167724609375,3.824364602420502,-1.362104718697883,129.78761914566724,-0.4236718829245701,-0.024914163520312328,-0.02517254048085261,-0.9051230652684598,1
1782117388.380644,0.139,1024.0,1024.0,1023.0,1022.0,1023.0,1022.0,1023.0,1024.0,1023.0,1023.0,1023.0,1023.0,1023.0,1023.0,1023.0,1023.0,1023.0,1023.0,1024.0,1023.0,1024.0,1023.0,1023.0,1023.0,1023.0,1024.0,1024.0,1023.0,1024.0,1023.0,1024.0,1023.0,1023.0,1023.0,1024.0,1023.0,1023.0,1024.0,1023.0,1024.0,1023.0,1023.0,1023.0,1024.0,1023.0,1023.0,1024.0,1023.0,1023.0,1023.0,1023.0,1023.0,1023.0,1023.0,1024.0,1023.0,1024.0,1023.0,1023.0,1023.0,1023.0,1023.0,1023.0,1023.0,1023.0,1023.0,1023.0,1023.0,1023.0,1022.0,1023.0,1023.0,1023.0,1023.0,1023.0,1023.0,1024.0,1023.0,1023.0,1022.0,1022.0,1023.0,1023.0,1023.0,1024.0,1024.0,1024.0,1024.0,1024.0,1024.0,1023.0,1024.0,1023.0,1024.0,1025.0,1024.0,1025.0,1024.0,1024.0,1026.0,1023.0,1023.0,1024.0,1024.0,1025.0,1024.0,1024.0,1024.0,1024.0,1024.0,1023.0,1023.0,1022.0,1024.0,1023.0,1023.0,1024.0,1023.0,1022.0,1021.0,1022.0,1023.0,1024.0,1024.0,1023.0,1024.0,1023.0,1023.0,1023.0,1023.0,1023.0,1024.0,1023.0,1024.0,1023.0,1023.0,1024.0,1024.0,1024.0,1024.0,1025.0,1024.0,1024.0,1023.0,1023.0,1024.0,1024.0,1024.0,1024.0,1024.0,1023.0,1024.0,1024.0,1024.0,1025.0,1024.0,1023.0,1024.0,1025.0,1026.0,1028.0,1026.0,1024.0,1026.0,1026.0,1027.0,1030.0,1028.0,1025.0,1028.0,1029.0,1029.0,1035.0,1029.0,1026.0,1030.0,1032.0,1030.0,1041.0,1030.0,1027.0,1033.0,1033.0,1030.0,1043.0,1033.0,1029.0,1037.0,1036.0,1030.0,1045.0,1035.0,1033.0,1039.0,1040.0,1031.0,1048.0,1035.0,1032.0,1036.0,1036.0,1029.0,1041.0,1033.0,1035.0,1036.0,1036.0,1029.0,1038.0,1032.0,1023.0,1023.0,1024.0,1022.0,1023.0,1022.0,1041.0,1042.0,1037.0,1032.0,1039.0,1037.0,1033.0,1036.0,1032.0,1030.0,1036.0,1034.0,1029.0,1031.0,1027.0,1027.0,1031.0,2045,2023,1909,	00:31:21.160,0.05322265625,0.04638671875,1.0185546875,-0.244140625,0.18310546875,0.1220703125,2.603759765625,-2.98828125,52.03125,440.0,-1580.0,-2567.0,0.897857666015625,0.031829833984375,-0.01348876953125,0.43890380859375,2.6021766626610763,-2.9901154395457574,47.53272681977304,0.9144102383043783,0.03128573146681796,-0.014724259219863338,0.4033092055497151,1,	00:31:21.161,0.0224609375,0.068359375,1.0048828125,-1.0986328125,-1.46484375,-0.48828125,3.8726806640625,-1.307373046875,129.2486572265625,-416.0,-1281.0,-1934.0,-0.42791748046875,-0.024749755859375,-0.025634765625,-0.903106689453125,3.8705799408676174,-1.30466654403777,129.78043536591278,-0.42373634159911017,-0.0246331311522017,-0.02574875332114249,-0.9050843736140004,1
1782117388.389828,0.148,1023.0,1023.0,1023.0,1023.0,1023.0,1022.0,1023.0,1024.0,1023.0,1023.0,1023.0,1023.0,1023.0,1024.0,1023.0,1023.0,1023.0,1023.0,1024.0,1023.0,1024.0,1023.0,1024.0,1023.0,1023.0,1023.0,1024.0,1023.0,1024.0,1023.0,1023.0,1024.0,1023.0,1023.0,1023.0,1023.0,1024.0,1024.0,1023.0,1023.0,1023.0,1022.0,1023.0,1023.0,1024.0,1022.0,1024.0,1023.0,1023.0,1022.0,1022.0,1023.0,1022.0,1023.0,1024.0,1023.0,1024.0,1022.0,1023.0,1023.0,1023.0,1023.0,1023.0,1023.0,1023.0,1023.0,1024.0,1023.0,1023.0,1022.0,1022.0,1023.0,1023.0,1023.0,1023.0,1023.0,1024.0,1023.0,1023.0,1023.0,1022.0,1023.0,1023.0,1024.0,1024.0,1023.0,1024.0,1024.0,1023.0,1024.0,1023.0,1023.0,1024.0,1024.0,1025.0,1024.0,1025.0,1024.0,1024.0,1026.0,1023.0,1024.0,1023.0,1024.0,1024.0,1024.0,1025.0,1024.0,1024.0,1023.0,1023.0,1023.0,1022.0,1023.0,1022.0,1023.0,1024.0,1023.0,1022.0,1021.0,1022.0,1023.0,1023.0,1024.0,1024.0,1024.0,1024.0,1023.0,1022.0,1023.0,1024.0,1023.0,1023.0,1024.0,1023.0,1023.0,1023.0,1024.0,1024.0,1024.0,1025.0,1024.0,1024.0,1024.0,1024.0,1024.0,1024.0,1025.0,1024.0,1024.0,1023.0,1024.0,1024.0,1024.0,1025.0,1025.0,1023.0,1024.0,1025.0,1025.0,1028.0,1026.0,1024.0,1026.0,1026.0,1027.0,1030.0,1028.0,1025.0,1029.0,1028.0,1028.0,1035.0,1029.0,1026.0,1031.0,1031.0,1030.0,1042.0,1030.0,1027.0,1033.0,1033.0,1031.0,1043.0,1033.0,1029.0,1037.0,1036.0,1031.0,1046.0,1035.0,1033.0,1039.0,1039.0,1032.0,1048.0,1035.0,1032.0,1036.0,1036.0,1029.0,1042.0,1032.0,1035.0,1036.0,1035.0,1029.0,1038.0,1032.0,1023.0,1022.0,1022.0,1022.0,1024.0,1022.0,1041.0,1042.0,1037.0,1032.0,1039.0,1037.0,1033.0,1036.0,1032.0,1031.0,1036.0,1034.0,1029.0,1030.0,1027.0,1027.0,1031.0,2045,2023,1909,	00:31:21.170,0.05419921875,0.0458984375,1.01806640625,-0.18310546875,0.18310546875,0.06103515625,2.5653076171875,-3.076171875,52.0367431640625,441.0,-1580.0,-2571.0,0.897857666015625,0.031890869140625,-0.0142822265625,0.43890380859375,2.5674673737511715,-3.0738660015976405,47.53515909752302,0.9143868239161315,0.03130305807657109,-0.015514409207848875,0.40333132522847226,1,	00:31:21.171,0.0234375,0.06884765625,1.0048828125,-1.03759765625,-1.3427734375,-0.42724609375,3.9385986328125,-1.3623046875,129.2431640625,-415.0,-1279.0,-1935.0,-0.427947998046875,-0.025482177734375,-0.02593994140625,-0.903076171875,3.9394422555087814,-1.3636646594824118,129.7734282761684,-0.42375823995869344,-0.025355165375080594,-0.026072573256703913,-0.9050449108081249,1
1782117388.405273,0.164,1023.0,1023.0,1023.0,1023.0,1023.0,1023.0,1023.0,1023.0,1022.0,1023.0,1023.0,1023.0,1022.0,1023.0,1023.0,1023.0,1023.0,1024.0,1024.0,1023.0,1024.0,1023.0,1024.0,1024.0,1023.0,1023.0,1023.0,1023.0,1024.0,1023.0,1024.0,1023.0,1023.0,1022.0,1024.0,1023.0,1023.0,1024.0,1023.0,1023.0,1023.0,1023.0,1023.0,1023.0,1023.0,1023.0,1024.0,1023.0,1023.0,1022.0,1023.0,1023.0,1023.0,1023.0,1023.0,1023.0,1024.0,1024.0,1023.0,1022.0,1022.0,1023.0,1023.0,1023.0,1023.0,1022.0,1024.0,1023.0,1023.0,1022.0,1022.0,1023.0,1023.0,1023.0,1023.0,1024.0,1024.0,1023.0,1023.0,1023.0,1022.0,1023.0,1023.0,1024.0,1024.0,1023.0,1024.0,1024.0,1024.0,1024.0,1023.0,1023.0,1023.0,1024.0,1024.0,1024.0,1025.0,1024.0,1024.0,1025.0,1024.0,1024.0,1023.0,1024.0,1024.0,1024.0,1025.0,1024.0,1024.0,1024.0,1023.0,1024.0,1023.0,1023.0,1023.0,1023.0,1024.0,1023.0,1023.0,1021.0,1023.0,1022.0,1024.0,1024.0,1023.0,1024.0,1023.0,1023.0,1022.0,1022.0,1023.0,1023.0,1023.0,1024.0,1023.0,1023.0,1023.0,1024.0,1024.0,1024.0,1025.0,1024.0,1024.0,1023.0,1024.0,1024.0,1024.0,1025.0,1024.0,1024.0,1024.0,1024.0,1024.0,1024.0,1026.0,1024.0,1024.0,1025.0,1025.0,1025.0,1028.0,1027.0,1024.0,1026.0,1026.0,1027.0,1031.0,1028.0,1025.0,1028.0,1028.0,1029.0,1035.0,1029.0,1026.0,1030.0,1032.0,1030.0,1041.0,1030.0,1027.0,1033.0,1032.0,1030.0,1042.0,1033.0,1030.0,1036.0,1036.0,1031.0,1046.0,1036.0,1032.0,1039.0,1039.0,1031.0,1047.0,1035.0,1032.0,1035.0,1036.0,1029.0,1041.0,1033.0,1035.0,1037.0,1035.0,1029.0,1038.0,1032.0,1023.0,1024.0,1023.0,1022.0,1024.0,1023.0,1041.0,1042.0,1036.0,1032.0,1039.0,1038.0,1033.0,1036.0,1032.0,1031.0,1036.0,1034.0,1028.0,1031.0,1028.0,1028.0,1031.0,2045,2023,1909,	00:31:21.181,0.0537109375,0.0458984375,1.01708984375,-0.18310546875,0.18310546875,0.06103515625,2.5927734375,-2.9827880859375,52.0367431640625,440.0,-1579.0,-2568.0,0.897857666015625,0.03173828125,-0.01348876953125,0.43890380859375,2.5921737772242355,-2.984383128774956,47.53444612041922,0.9144085634572486,0.031186010715306897,-0.014713230513302252,0.40332112845669044,1,	00:31:21.182,0.0234375,0.06787109375,1.00537109375,-1.03759765625,-1.40380859375,-0.48828125,3.84521484375,-1.3458251953125,129.2376708984375,-415.0,-1278.0,-1933.0,-0.428009033203125,-0.02496337890625,-0.0252685546875,-0.903076171875,3.8443998880934513,-1.3430864820369588,129.76959170028044,-0.42381577888344973,-0.024842071490710334,-0.02539731841001807,-0.905051398137722,1
1782117388.410700,0.169,1024.0,1024.0,1023.0,1022.0,1023.0,1023.0,1023.0,1024.0,1023.0,1023.0,1023.0,1023.0,1024.0,1024.0,1023.0,1023.0,1023.0,1023.0,1023.0,1023.0,1024.0,1023.0,1024.0,1024.0,1022.0,1024.0,1024.0,1023.0,1024.0,1023.0,1024.0,1024.0,1023.0,1023.0,1023.0,1023.0,1023.0,1024.0,1024.0,1023.0,1023.0,1023.0,1023.0,1023.0,1024.0,1023.0,1024.0,1023.0,1023.0,1022.0,1022.0,1023.0,1023.0,1023.0,1023.0,1023.0,1024.0,1023.0,1023.0,1022.0,1022.0,1023.0,1023.0,1023.0,1023.0,1023.0,1024.0,1023.0,1023.0,1022.0,1022.0,1023.0,1023.0,1023.0,1024.0,1023.0,1024.0,1023.0,1023.0,1023.0,1022.0,1023.0,1023.0,1024.0,1024.0,1023.0,1024.0,1023.0,1024.0,1024.0,1023.0,1023.0,1023.0,1024.0,1025.0,1024.0,1025.0,1024.0,1024.0,1026.0,1024.0,1023.0,1023.0,1024.0,1024.0,1024.0,1024.0,1024.0,1024.0,1024.0,1023.0,1023.0,1022.0,1023.0,1023.0,1023.0,1024.0,1023.0,1022.0,1021.0,1022.0,1023.0,1023.0,1024.0,1023.0,1024.0,1023.0,1023.0,1023.0,1023.0,1023.0,1024.0,1023.0,1024.0,1023.0,1023.0,1023.0,1024.0,1024.0,1024.0,1025.0,1024.0,1024.0,1023.0,1024.0,1024.0,1023.0,1025.0,1024.0,1023.0,1023.0,1024.0,1024.0,1024.0,1026.0,1025.0,1023.0,1024.0,1025.0,1026.0,1028.0,1026.0,1024.0,1026.0,1026.0,1027.0,1031.0,1028.0,1025.0,1028.0,1029.0,1029.0,1035.0,1029.0,1026.0,1031.0,1032.0,1031.0,1042.0,1031.0,1027.0,1034.0,1033.0,1030.0,1043.0,1033.0,1029.0,1037.0,1036.0,1031.0,1045.0,1035.0,1032.0,1040.0,1040.0,1031.0,1048.0,1035.0,1031.0,1035.0,1036.0,1029.0,1042.0,1033.0,1035.0,1036.0,1036.0,1029.0,1038.0,1033.0,1023.0,1023.0,1023.0,1022.0,1024.0,1023.0,1040.0,1042.0,1037.0,1032.0,1040.0,1038.0,1032.0,1035.0,1032.0,1031.0,1036.0,1035.0,1029.0,1031.0,1027.0,1027.0,1032.0,2045,2023,1909,	00:31:21.191,0.05419921875,0.0458984375,1.017578125,-0.18310546875,0.18310546875,0.06103515625,2.5762939453125,-3.0706787109375,52.0367431640625,442.0,-1578.0,-2568.0,0.897857666015625,0.031951904296875,-0.01422119140625,0.438934326171875,2.576205043947198,-3.0730720527123356,47.53588610236977,0.9143821082517556,0.031370091834218926,-0.01547711721288987,0.403338240550243,1,	00:31:21.192,0.02294921875,0.06787109375,1.0048828125,-1.0986328125,-1.3427734375,-0.48828125,3.878173828125,-1.2744140625,129.232177734375,-414.0,-1278.0,-1932.0,-0.428070068359375,-0.0245361328125,-0.025787353515625,-0.903045654296875,3.875696738866316,-1.2747472755292428,129.76284879695257,-0.4238833812085622,-0.024419798522736534,-0.025896236376858783,-0.9050170923893204,1
1782117388.420748,0.179,1023.0,1024.0,1023.0,1023.0,1023.0,1023.0,1023.0,1024.0,1023.0,1023.0,1023.0,1024.0,1023.0,1023.0,1023.0,1023.0,1023.0,1024.0,1024.0,1023.0,1023.0,1022.0,1023.0,1023.0,1023.0,1023.0,1024.0,1023.0,1024.0,1023.0,1023.0,1023.0,1023.0,1023.0,1023.0,1023.0,1023.0,1024.0,1023.0,1023.0,1023.0,1023.0,1023.0,1023.0,1023.0,1023.0,1023.0,1023.0,1023.0,1023.0,1022.0,1023.0,1023.0,1023.0,1024.0,1023.0,1024.0,1023.0,1023.0,1023.0,1023.0,1023.0,1022.0,1023.0,1023.0,1023.0,1023.0,1023.0,1023.0,1022.0,1023.0,1023.0,1022.0,1023.0,1024.0,1023.0,1024.0,1023.0,1023.0,1022.0,1023.0,1023.0,1023.0,1023.0,1024.0,1023.0,1024.0,1023.0,1024.0,1024.0,1023.0,1023.0,1024.0,1024.0,1025.0,1024.0,1025.0,1024.0,1024.0,1025.0,1024.0,1024.0,1023.0,1024.0,1024.0,1024.0,1025.0,1024.0,1024.0,1024.0,1023.0,1023.0,1022.0,1024.0,1023.0,1023.0,1024.0,1023.0,1022.0,1020.0,1022.0,1023.0,1023.0,1023.0,1023.0,1024.0,1023.0,1023.0,1023.0,1023.0,1023.0,1024.0,1023.0,1024.0,1023.0,1023.0,1023.0,1024.0,1024.0,1024.0,1024.0,1024.0,1023.0,1023.0,1024.0,1024.0,1024.0,1025.0,1024.0,1024.0,1023.0,1024.0,1024.0,1024.0,1026.0,1024.0,1024.0,1025.0,1025.0,1025.0,1028.0,1026.0,1024.0,1027.0,1027.0,1027.0,1031.0,1027.0,1025.0,1029.0,1029.0,1029.0,1035.0,1029.0,1026.0,1031.0,1032.0,1030.0,1042.0,1031.0,1027.0,1033.0,1033.0,1030.0,1042.0,1033.0,1029.0,1037.0,1036.0,1031.0,1046.0,1035.0,1033.0,1040.0,1039.0,1031.0,1048.0,1035.0,1032.0,1035.0,1036.0,1029.0,1041.0,1033.0,1035.0,1036.0,1035.0,1029.0,1038.0,1032.0,1023.0,1023.0,1023.0,1022.0,1024.0,1023.0,1041.0,1042.0,1036.0,1032.0,1039.0,1038.0,1033.0,1036.0,1032.0,1030.0,1036.0,1034.0,1029.0,1032.0,1028.0,1027.0,1031.0,2045,2023,1908,	00:31:21.201,0.05419921875,0.0458984375,1.017578125,-0.18310546875,0.18310546875,0.06103515625,2.5927734375,-2.9827880859375,52.0367431640625,439.0,-1579.0,-2568.0,0.897857666015625,0.031768798828125,-0.013458251953125,0.43890380859375,2.5952523640263885,-2.9820873896612814,47.535472986336394,0.9144047709906112,0.03120264998263789,-0.01468378651430391,0.4033295127278329,1,	00:31:21.202,0.0234375,0.06884765625,1.00439453125,-1.0986328125,-1.3427734375,-0.48828125,3.922119140625,-1.3623046875,129.2266845703125,-415.0,-1278.0,-1934.0,-0.428070068359375,-0.025390625,-0.02581787109375,-0.90301513671875,3.9208765075079506,-1.3601724431213587,129.75578807372773,-0.4239027579582192,-0.025262930692901937,-0.025934988603089227,-0.9049837636634035,1
1782117388.431051,0.189,1023.0,1024.0,1023.0,1023.0,1023.0,1023.0,1023.0,1023.0,1022.0,1023.0,1023.0,1024.0,1023.0,1024.0,1023.0,1023.0,1023.0,1023.0,1024.0,1023.0,1024.0,1023.0,1023.0,1023.0,1023.0,1024.0,1023.0,1023.0,1024.0,1023.0,1023.0,1024.0,1023.0,1023.0,1023.0,1024.0,1023.0,1024.0,1023.0,1023.0,1023.0,1022.0,1022.0,1023.0,1023.0,1023.0,1024.0,1023.0,1023.0,1022.0,1022.0,1023.0,1022.0,1023.0,1023.0,1023.0,1024.0,1023.0,1023.0,1022.0,1022.0,1024.0,1023.0,1023.0,1023.0,1023.0,1024.0,1023.0,1023.0,1022.0,1023.0,1023.0,1022.0,1023.0,1023.0,1023.0,1024.0,1023.0,1023.0,1022.0,1023.0,1023.0,1023.0,1024.0,1024.0,1023.0,1024.0,1024.0,1024.0,1024.0,1023.0,1023.0,1023.0,1024.0,1025.0,1024.0,1025.0,1024.0,1024.0,1025.0,1024.0,1024.0,1023.0,1024.0,1024.0,1024.0,1025.0,1024.0,1024.0,1024.0,1023.0,1023.0,1023.0,1023.0,1022.0,1023.0,1024.0,1023.0,1023.0,1021.0,1023.0,1023.0,1024.0,1024.0,1023.0,1025.0,1024.0,1023.0,1023.0,1023.0,1023.0,1023.0,1023.0,1024.0,1023.0,1023.0,1023.0,1024.0,1024.0,1024.0,1025.0,1024.0,1024.0,1023.0,1024.0,1024.0,1024.0,1024.0,1024.0,1024.0,1023.0,1024.0,1024.0,1024.0,1026.0,1024.0,1024.0,1025.0,1025.0,1025.0,1028.0,1026.0,1024.0,1027.0,1027.0,1027.0,1031.0,1028.0,1025.0,1028.0,1028.0,1029.0,1035.0,1029.0,1026.0,1031.0,1031.0,1030.0,1041.0,1031.0,1027.0,1034.0,1033.0,1030.0,1043.0,1033.0,1030.0,1037.0,1036.0,1031.0,1046.0,1035.0,1032.0,1040.0,1039.0,1032.0,1048.0,1036.0,1032.0,1036.0,1036.0,1029.0,1041.0,1033.0,1034.0,1037.0,1035.0,1029.0,1038.0,1032.0,1023.0,1023.0,1023.0,1023.0,1024.0,1022.0,1041.0,1042.0,1037.0,1032.0,1038.0,1037.0,1033.0,1036.0,1032.0,1031.0,1035.0,1034.0,1029.0,1031.0,1028.0,1027.0,1031.0,2045,2023,1908,	00:31:21.211,0.0537109375,0.0458984375,1.0166015625,-0.18310546875,0.18310546875,0.1220703125,2.57080078125,-3.0706787109375,52.0367431640625,441.0,-1580.0,-2571.0,0.8978271484375,0.031890869140625,-0.01422119140625,0.438934326171875,2.570343775379956,-3.0689856809847003,47.53799299004082,0.914377492217649,0.03130926229372769,-0.01546454746314497,0.40335391356988964,1,	00:31:21.212,0.0244140625,0.06884765625,1.00537109375,-1.03759765625,-1.3427734375,-0.48828125,3.900146484375,-1.4666748046875,129.22119140625,-417.0,-1278.0,-1933.0,-0.4281005859375,-0.026123046875,-0.0252685546875,-0.90301513671875,3.8995015610554633,-1.4642180432000242,129.750280709734,-0.42391824191692346,-0.026006458660453913,-0.02537936078990344,-0.9049712019307039,1
1782117388.440764,0.199,1023.0,1024.0,1023.0,1023.0,1023.0,1023.0,1023.0,1024.0,1023.0,1023.0,1023.0,1024.0,1023.0,1023.0,1023.0,1023.0,1022.0,1023.0,1024.0,1023.0,1024.0,1023.0,1024.0,1023.0,1023.0,1024.0,1024.0,1023.0,1024.0,1023.0,1023.0,1023.0,1023.0,1022.0,1023.0,1024.0,1023.0,1024.0,1023.0,1024.0,1023.0,1023.0,1023.0,1023.0,1023.0,1023.0,1023.0,1023.0,1023.0,1022.0,1023.0,1023.0,1023.0,1023.0,1023.0,1023.0,1024.0,1023.0,1024.0,1022.0,1022.0,1023.0,1022.0,1023.0,1023.0,1023.0,1024.0,1023.0,1023.0,1022.0,1022.0,1023.0,1023.0,1023.0,1023.0,1023.0,1023.0,1023.0,1023.0,1023.0,1022.0,1023.0,1023.0,1024.0,1024.0,1023.0,1024.0,1024.0,1024.0,1024.0,1023.0,1023.0,1023.0,1024.0,1026.0,1024.0,1024.0,1024.0,1024.0,1026.0,1024.0,1024.0,1023.0,1024.0,1024.0,1024.0,1025.0,1024.0,1024.0,1024.0,1023.0,1023.0,1023.0,1024.0,1022.0,1023.0,1024.0,1023.0,1023.0,1021.0,1022.0,1023.0,1024.0,1024.0,1023.0,1024.0,1023.0,1023.0,1023.0,1023.0,1023.0,1023.0,1023.0,1024.0,1024.0,1023.0,1024.0,1024.0,1024.0,1024.0,1025.0,1024.0,1024.0,1023.0,1024.0,1023.0,1023.0,1025.0,1024.0,1024.0,1023.0,1024.0,1024.0,1024.0,1026.0,1024.0,1024.0,1025.0,1025.0,1025.0,1028.0,1026.0,1025.0,1026.0,1027.0,1027.0,1031.0,1028.0,1025.0,1029.0,1028.0,1029.0,1035.0,1029.0,1026.0,1031.0,1032.0,1030.0,1042.0,1030.0,1027.0,1033.0,1033.0,1030.0,1043.0,1033.0,1029.0,1038.0,1036.0,1031.0,1046.0,1035.0,1032.0,1040.0,1039.0,1031.0,1048.0,1036.0,1031.0,1035.0,1036.0,1029.0,1042.0,1033.0,1035.0,1036.0,1036.0,1029.0,1038.0,1032.0,1023.0,1023.0,1023.0,1022.0,1024.0,1022.0,1041.0,1042.0,1036.0,1032.0,1039.0,1037.0,1033.0,1036.0,1032.0,1030.0,1035.0,1035.0,1028.0,1032.0,1028.0,1028.0,1032.0,2046,2023,1908,	00:31:21.222,0.0537109375,0.0458984375,1.01806640625,-0.244140625,0.1220703125,0.06103515625,2.5872802734375,-2.977294921875,52.0367431640625,440.0,-1583.0,-2567.0,0.897857666015625,0.03167724609375,-0.013458251953125,0.438934326171875,2.5868525912052243,-2.9781857486634835,47.537655036307854,0.9144004951434699,0.03112220587643784,-0.014681608566895257,0.40334550096988825,1,	00:31:21.223,0.0224609375,0.06787109375,1.00634765625,-1.0986328125,-1.3427734375,-0.48828125,3.8671875,-1.3897705078125,129.2156982421875,-416.0,-1281.0,-1930.0,-0.42816162109375,-0.025421142578125,-0.025299072265625,-0.902984619140625,3.8691250606179706,-1.3877851453714547,129.7449729402635,-0.423990944966554,-0.02529187667240816,-0.025421568787884697,-0.904956210764432,1
1782117388.450618,0.209,1023.0,1023.0,1023.0,1023.0,1023.0,1022.0,1023.0,1023.0,1023.0,1023.0,1023.0,1024.0,1023.0,1024.0,1023.0,1024.0,1023.0,1023.0,1024.0,1024.0,1024.0,1023.0,1023.0,1024.0,1023.0,1024.0,1024.0,1023.0,1024.0,1023.0,1024.0,1023.0,1023.0,1023.0,1023.0,1024.0,1023.0,1024.0,1023.0,1023.0,1023.0,1022.0,1022.0,1023.0,1023.0,1023.0,1024.0,1023.0,1023.0,1023.0,1022.0,1023.0,1022.0,1023.0,1023.0,1023.0,1024.0,1023.0,1024.0,1023.0,1023.0,1023.0,1022.0,1023.0,1023.0,1023.0,1024.0,1023.0,1023.0,1022.0,1022.0,1023.0,1023.0,1024.0,1024.0,1023.0,1024.0,1023.0,1023.0,1023.0,1023.0,1023.0,1023.0,1024.0,1024.0,1023.0,1024.0,1024.0,1024.0,1024.0,1023.0,1023.0,1023.0,1024.0,1025.0,1023.0,1025.0,1024.0,1024.0,1026.0,1023.0,1024.0,1024.0,1023.0,1024.0,1024.0,1024.0,1024.0,1024.0,1023.0,1023.0,1023.0,1023.0,1024.0,1023.0,1023.0,1024.0,1023.0,1022.0,1021.0,1022.0,1023.0,1023.0,1023.0,1023.0,1024.0,1023.0,1023.0,1022.0,1023.0,1024.0,1023.0,1023.0,1024.0,1023.0,1023.0,1023.0,1024.0,1024.0,1024.0,1025.0,1024.0,1024.0,1023.0,1024.0,1024.0,1024.0,1025.0,1024.0,1024.0,1024.0,1024.0,1024.0,1024.0,1026.0,1025.0,1024.0,1025.0,1024.0,1025.0,1028.0,1026.0,1024.0,1026.0,1026.0,1027.0,1031.0,1027.0,1025.0,1028.0,1029.0,1029.0,1035.0,1029.0,1026.0,1031.0,1032.0,1030.0,1042.0,1031.0,1027.0,1033.0,1033.0,1029.0,1042.0,1033.0,1029.0,1037.0,1036.0,1031.0,1046.0,1036.0,1032.0,1040.0,1039.0,1031.0,1048.0,1036.0,1032.0,1036.0,1036.0,1029.0,1041.0,1033.0,1035.0,1036.0,1036.0,1029.0,1038.0,1032.0,1023.0,1023.0,1023.0,1023.0,1024.0,1022.0,1041.0,1042.0,1037.0,1032.0,1038.0,1038.0,1033.0,1036.0,1032.0,1030.0,1036.0,1035.0,1028.0,1031.0,1028.0,1027.0,1031.0,2046,2023,1909,	00:31:21.232,0.0546875,0.04638671875,1.01806640625,-0.18310546875,0.18310546875,0.06103515625,2.603759765625,-3.065185546875,52.0367431640625,441.0,-1580.0,-2570.0,0.8978271484375,0.03216552734375,-0.014068603515625,0.438934326171875,2.6059044861777356,-3.0654672748600995,47.5372469632346,0.9143713912304521,0.03158056550166426,-0.01531149149642071,0.4033524327558191,1,	00:31:21.233,0.02294921875,0.06689453125,1.00439453125,-1.03759765625,-1.40380859375,-0.48828125,3.8067626953125,-1.329345703125,129.210205078125,-415.0,-1278.0,-1932.0,-0.428253173828125,-0.024688720703125,-0.0250244140625,-0.902984619140625,3.805480210115801,-1.3271352031406072,129.74041186678164,-0.4240595168608025,-0.024578589548243712,-0.025142763615968136,-0.9049515238582414,1
1782117388.460741,0.219,1023.0,1024.0,1023.0,1022.0,1023.0,1023.0,1023.0,1023.0,1023.0,1023.0,1023.0,1024.0,1023.0,1024.0,1023.0,1023.0,1023.0,1023.0,1024.0,1023.0,1024.0,1023.0,1024.0,1023.0,1023.0,1024.0,1023.0,1023.0,1024.0,1024.0,1024.0,1023.0,1022.0,1023.0,1023.0,1024.0,1023.0,1024.0,1023.0,1023.0,1023.0,1023.0,1023.0,1024.0,1024.0,1023.0,1024.0,1024.0,1023.0,1022.0,1022.0,1023.0,1023.0,1023.0,1023.0,1023.0,1024.0,1024.0,1023.0,1022.0,1022.0,1023.0,1023.0,1023.0,1023.0,1023.0,1024.0,1023.0,1022.0,1022.0,1023.0,1023.0,1023.0,1023.0,1023.0,1023.0,1023.0,1023.0,1023.0,1022.0,1023.0,1023.0,1023.0,1024.0,1024.0,1024.0,1024.0,1023.0,1023.0,1024.0,1023.0,1023.0,1024.0,1024.0,1026.0,1024.0,1024.0,1024.0,1024.0,1026.0,1024.0,1023.0,1023.0,1024.0,1024.0,1024.0,1024.0,1024.0,1024.0,1024.0,1022.0,1024.0,1022.0,1023.0,1022.0,1023.0,1024.0,1023.0,1023.0,1021.0,1023.0,1023.0,1023.0,1023.0,1023.0,1024.0,1024.0,1023.0,1023.0,1023.0,1023.0,1023.0,1023.0,1024.0,1023.0,1023.0,1024.0,1024.0,1024.0,1024.0,1024.0,1024.0,1024.0,1023.0,1024.0,1024.0,1024.0,1025.0,1024.0,1024.0,1024.0,1024.0,1024.0,1024.0,1026.0,1025.0,1023.0,1025.0,1025.0,1026.0,1028.0,1026.0,1024.0,1027.0,1027.0,1027.0,1032.0,1028.0,1025.0,1028.0,1028.0,1029.0,1035.0,1029.0,1026.0,1030.0,1032.0,1030.0,1042.0,1030.0,1027.0,1033.0,1033.0,1029.0,1042.0,1033.0,1029.0,1036.0,1036.0,1031.0,1046.0,1036.0,1033.0,1039.0,1038.0,1031.0,1048.0,1036.0,1032.0,1035.0,1035.0,1029.0,1041.0,1033.0,1035.0,1036.0,1035.0,1029.0,1038.0,1032.0,1023.0,1023.0,1023.0,1023.0,1024.0,1022.0,1041.0,1042.0,1036.0,1032.0,1039.0,1038.0,1033.0,1036.0,1032.0,1031.0,1036.0,1035.0,1029.0,1031.0,1027.0,1028.0,1031.0,2046,2023,1909,	00:31:21.242,0.05419921875,0.0458984375,1.01708984375,-0.18310546875,0.1220703125,0.06103515625,2.5323486328125,-3.0047607421875,52.042236328125,440.0,-1580.0,-2569.0,0.897857666015625,0.0313720703125,-0.01385498046875,0.43896484375,2.533497243794001,-3.005940529517591,47.54164790546362,0.9143928891749658,0.03079440686556435,-0.015089925612488682,0.40337283358831494,1,	00:31:21.243,0.02294921875,0.06787109375,1.0048828125,-1.03759765625,-1.40380859375,-0.48828125,3.8836669921875,-1.307373046875,129.2047119140625,-417.0,-1279.0,-1933.0,-0.42828369140625,-0.02484130859375,-0.02569580078125,-0.902923583984375,3.881013560951426,-1.3087942272909938,129.73263229633838,-0.4241103460228421,-0.02471506967833223,-0.025805565284893812,-0.9049053279363026,1
1782117388.471909,0.230,1023.0,1024.0,1023.0,1023.0,1023.0,1023.0,1024.0,1024.0,1023.0,1023.0,1023.0,1023.0,1023.0,1024.0,1022.0,1023.0,1023.0,1024.0,1024.0,1023.0,1024.0,1023.0,1024.0,1023.0,1023.0,1023.0,1024.0,1023.0,1024.0,1023.0,1024.0,1023.0,1023.0,1022.0,1023.0,1023.0,1023.0,1024.0,1023.0,1023.0,1023.0,1023.0,1023.0,1024.0,1024.0,1023.0,1024.0,1023.0,1023.0,1022.0,1022.0,1023.0,1023.0,1023.0,1023.0,1023.0,1024.0,1023.0,1023.0,1022.0,1023.0,1023.0,1023.0,1023.0,1024.0,1023.0,1024.0,1023.0,1023.0,1023.0,1022.0,1023.0,1023.0,1023.0,1024.0,1023.0,1024.0,1023.0,1023.0,1023.0,1023.0,1023.0,1023.0,1024.0,1024.0,1023.0,1024.0,1024.0,1023.0,1024.0,1023.0,1023.0,1023.0,1024.0,1025.0,1024.0,1025.0,1024.0,1024.0,1026.0,1023.0,1023.0,1023.0,1024.0,1024.0,1024.0,1025.0,1024.0,1024.0,1024.0,1023.0,1023.0,1022.0,1023.0,1023.0,1023.0,1024.0,1023.0,1023.0,1021.0,1022.0,1023.0,1024.0,1023.0,1023.0,1024.0,1023.0,1023.0,1023.0,1023.0,1023.0,1023.0,1023.0,1024.0,1024.0,1023.0,1023.0,1024.0,1024.0,1024.0,1025.0,1024.0,1024.0,1023.0,1024.0,1024.0,1024.0,1025.0,1024.0,1023.0,1024.0,1024.0,1024.0,1024.0,1026.0,1025.0,1023.0,1024.0,1025.0,1026.0,1028.0,1026.0,1024.0,1026.0,1026.0,1027.0,1031.0,1028.0,1025.0,1028.0,1028.0,1029.0,1034.0,1029.0,1026.0,1031.0,1032.0,1030.0,1041.0,1031.0,1026.0,1033.0,1033.0,1030.0,1042.0,1033.0,1029.0,1037.0,1036.0,1031.0,1046.0,1036.0,1032.0,1039.0,1039.0,1031.0,1047.0,1036.0,1031.0,1036.0,1035.0,1029.0,1042.0,1033.0,1035.0,1036.0,1035.0,1029.0,1038.0,1032.0,1023.0,1023.0,1023.0,1022.0,1024.0,1022.0,1041.0,1042.0,1036.0,1032.0,1039.0,1038.0,1033.0,1036.0,1032.0,1031.0,1036.0,1035.0,1029.0,1031.0,1027.0,1028.0,1031.0,2046,2024,1909,	00:31:21.252,0.0537109375,0.04541015625,1.017578125,-0.18310546875,0.18310546875,0.06103515625,2.6092529296875,-3.0487060546875,52.0367431640625,440.0,-1579.0,-2569.0,0.8978271484375,0.032135009765625,-0.013916015625,0.438934326171875,2.610946995247875,-3.04990601361889,47.53815049803523,0.914371381731583,0.031566298040872416,-0.015169257268873962,0.40335894527353816,1,	00:31:21.253,0.0234375,0.06884765625,1.0048828125,-0.9765625,-1.3427734375,-0.48828125,3.9495849609375,-1.373291015625,129.1937255859375,-416.0,-1278.0,-1935.0,-0.428314208984375,-0.02557373046875,-0.0260009765625,-0.90289306640625,3.9487649023373597,-1.3706233854793677,129.7250465751207,-0.4241360546286872,-0.02545560512230027,-0.026109679918332924,-0.904864025114509,1
1782117388.483579,0.242,1023.0,1024.0,1023.0,1022.0,1023.0,1023.0,1023.0,1024.0,1023.0,1023.0,1023.0,1024.0,1023.0,1023.0,1023.0,1023.0,1023.0,1023.0,1024.0,1023.0,1024.0,1023.0,1023.0,1024.0,1023.0,1024.0,1024.0,1024.0,1024.0,1024.0,1023.0,1023.0,1023.0,1023.0,1023.0,1024.0,1023.0,1024.0,1023.0,1023.0,1022.0,1023.0,1023.0,1023.0,1023.0,1023.0,1024.0,1023.0,1023.0,1022.0,1023.0,1023.0,1023.0,1023.0,1024.0,1024.0,1024.0,1023.0,1023.0,1022.0,1023.0,1023.0,1023.0,1023.0,1023.0,1023.0,1024.0,1023.0,1023.0,1022.0,1022.0,1024.0,1023.0,1024.0,1023.0,1023.0,1024.0,1023.0,1022.0,1023.0,1022.0,1023.0,1023.0,1024.0,1024.0,1024.0,1024.0,1023.0,1024.0,1024.0,1023.0,1024.0,1024.0,1024.0,1025.0,1024.0,1025.0,1024.0,1024.0,1026.0,1024.0,1023.0,1023.0,1024.0,1024.0,1024.0,1024.0,1024.0,1024.0,1024.0,1023.0,1023.0,1022.0,1023.0,1022.0,1023.0,1024.0,1023.0,1023.0,1021.0,1022.0,1023.0,1024.0,1023.0,1023.0,1024.0,1024.0,1024.0,1023.0,1023.0,1024.0,1023.0,1023.0,1024.0,1023.0,1023.0,1023.0,1024.0,1024.0,1024.0,1025.0,1024.0,1023.0,1023.0,1024.0,1024.0,1024.0,1025.0,1024.0,1024.0,1023.0,1024.0,1024.0,1024.0,1026.0,1024.0,1023.0,1025.0,1025.0,1026.0,1028.0,1027.0,1024.0,1026.0,1026.0,1027.0,1031.0,1028.0,1025.0,1028.0,1028.0,1029.0,1035.0,1029.0,1026.0,1031.0,1032.0,1030.0,1042.0,1031.0,1027.0,1033.0,1032.0,1030.0,1042.0,1034.0,1030.0,1037.0,1036.0,1031.0,1046.0,1036.0,1033.0,1040.0,1039.0,1032.0,1048.0,1036.0,1032.0,1035.0,1035.0,1029.0,1041.0,1033.0,1035.0,1035.0,1035.0,1030.0,1038.0,1033.0,1023.0,1023.0,1023.0,1022.0,1024.0,1022.0,1040.0,1042.0,1036.0,1032.0,1039.0,1038.0,1033.0,1036.0,1033.0,1031.0,1035.0,1035.0,1029.0,1031.0,1027.0,1027.0,1031.0,2046,2024,1909,	00:31:21.262,0.0537109375,0.0458984375,1.017578125,-0.18310546875,0.18310546875,0.06103515625,2.548828125,-2.9827880859375,52.042236328125,441.0,-1579.0,-2569.0,0.897857666015625,0.0313720703125,-0.01361083984375,0.43896484375,2.5479019614547664,-2.980048080538127,47.54206123663202,0.9143949792311094,0.03081849991675648,-0.014832391718814541,0.40337580762326314,1,	00:31:21.264,0.02392578125,0.06787109375,1.00537109375,-1.03759765625,-1.40380859375,-0.48828125,3.84521484375,-1.373291015625,129.1937255859375,-416.0,-1277.0,-1936.0,-0.428375244140625,-0.02520751953125,-0.025177001953125,-0.90289306640625,3.8477133483524613,-1.373345306000151,129.72138127897466,-0.42418643818243995,-0.025103869797373612,-0.025300828160312875,-0.9048732118245594,1
1782117388.491619,0.250,1023.0,1024.0,1023.0,1023.0,1023.0,1023.0,1023.0,1024.0,1023.0,1023.0,1023.0,1023.0,1023.0,1024.0,1023.0,1024.0,1022.0,1023.0,1024.0,1023.0,1024.0,1023.0,1024.0,1023.0,1023.0,1024.0,1024.0,1023.0,1024.0,1023.0,1024.0,1023.0,1023.0,1022.0,1024.0,1023.0,1023.0,1024.0,1023.0,1023.0,1023.0,1023.0,1023.0,1023.0,1023.0,1023.0,1024.0,1023.0,1023.0,1023.0,1023.0,1023.0,1022.0,1023.0,1024.0,1023.0,1024.0,1023.0,1023.0,1023.0,1023.0,1023.0,1022.0,1023.0,1023.0,1023.0,1024.0,1023.0,1022.0,1022.0,1022.0,1024.0,1023.0,1023.0,1023.0,1023.0,1024.0,1023.0,1023.0,1023.0,1022.0,1023.0,1023.0,1024.0,1024.0,1023.0,1024.0,1023.0,1024.0,1024.0,1023.0,1023.0,1024.0,1024.0,1025.0,1024.0,1025.0,1024.0,1025.0,1026.0,1024.0,1024.0,1023.0,1024.0,1024.0,1024.0,1024.0,1024.0,1024.0,1023.0,1023.0,1023.0,1022.0,1024.0,1022.0,1023.0,1024.0,1023.0,1023.0,1021.0,1022.0,1022.0,1023.0,1023.0,1024.0,1024.0,1024.0,1023.0,1023.0,1023.0,1024.0,1024.0,1023.0,1024.0,1023.0,1022.0,1024.0,1024.0,1024.0,1024.0,1025.0,1024.0,1024.0,1024.0,1024.0,1024.0,1024.0,1025.0,1024.0,1024.0,1023.0,1024.0,1024.0,1024.0,1026.0,1025.0,1024.0,1025.0,1024.0,1025.0,1028.0,1027.0,1024.0,1026.0,1026.0,1027.0,1031.0,1028.0,1025.0,1028.0,1028.0,1029.0,1035.0,1029.0,1026.0,1031.0,1031.0,1030.0,1041.0,1030.0,1027.0,1033.0,1033.0,1030.0,1042.0,1033.0,1029.0,1037.0,1036.0,1031.0,1046.0,1035.0,1033.0,1040.0,1038.0,1032.0,1048.0,1036.0,1032.0,1036.0,1035.0,1029.0,1041.0,1033.0,1035.0,1036.0,1035.0,1030.0,1038.0,1033.0,1023.0,1023.0,1023.0,1023.0,1024.0,1023.0,1040.0,1042.0,1036.0,1032.0,1038.0,1038.0,1033.0,1036.0,1032.0,1031.0,1035.0,1034.0,1029.0,1031.0,1028.0,1028.0,1030.0,2046,2024,1909,	00:31:21.273,0.05419921875,0.0458984375,1.01904296875,-0.244140625,0.18310546875,0.1220703125,2.5872802734375,-3.0596923828125,52.042236328125,440.0,-1578.0,-2570.0,0.8978271484375,0.031982421875,-0.01409912109375,0.43896484375,2.586647620880783,-3.0599370525615703,47.541192093357,0.9143644172917784,0.03140802235427786,-0.015334040899513159,0.40338085689847936,1,	00:31:21.274,0.02294921875,0.06884765625,1.00634765625,-0.9765625,-1.40380859375,-0.48828125,3.900146484375,-1.318359375,129.1827392578125,-417.0,-1278.0,-1933.0,-0.428436279296875,-0.024993896484375,-0.025787353515625,-0.902862548828125,3.9009401431043176,-1.3203269159187865,129.71408413172705,-0.4242489156262719,-0.024884051390638717,-0.02591613971061438,-0.904832578590548,1
1782117388.502073,0.260,1023.0,1023.0,1023.0,1023.0,1023.0,1023.0,1023.0,1023.0,1023.0,1023.0,1023.0,1023.0,1023.0,1024.0,1023.0,1023.0,1024.0,1023.0,1023.0,1024.0,1024.0,1023.0,1024.0,1023.0,1023.0,1024.0,1024.0,1023.0,1024.0,1023.0,1023.0,1024.0,1023.0,1022.0,1024.0,1023.0,1023.0,1024.0,1024.0,1024.0,1023.0,1023.0,1023.0,1024.0,1023.0,1023.0,1024.0,1023.0,1023.0,1022.0,1022.0,1024.0,1023.0,1023.0,1024.0,1023.0,1024.0,1023.0,1023.0,1022.0,1022.0,1023.0,1023.0,1023.0,1023.0,1023.0,1024.0,1023.0,1022.0,1022.0,1022.0,1023.0,1023.0,1023.0,1024.0,1023.0,1024.0,1023.0,1023.0,1022.0,1023.0,1023.0,1024.0,1024.0,1024.0,1023.0,1024.0,1023.0,1024.0,1024.0,1023.0,1024.0,1024.0,1024.0,1025.0,1024.0,1025.0,1024.0,1025.0,1026.0,1023.0,1023.0,1023.0,1024.0,1024.0,1024.0,1024.0,1024.0,1024.0,1024.0,1023.0,1024.0,1023.0,1023.0,1023.0,1023.0,1024.0,1023.0,1022.0,1021.0,1022.0,1022.0,1024.0,1023.0,1023.0,1024.0,1024.0,1024.0,1023.0,1023.0,1024.0,1023.0,1023.0,1024.0,1024.0,1023.0,1023.0,1024.0,1024.0,1024.0,1025.0,1024.0,1024.0,1023.0,1024.0,1024.0,1024.0,1025.0,1024.0,1024.0,1023.0,1024.0,1024.0,1024.0,1026.0,1024.0,1024.0,1024.0,1025.0,1025.0,1029.0,1026.0,1024.0,1026.0,1026.0,1027.0,1031.0,1028.0,1025.0,1029.0,1028.0,1029.0,1035.0,1029.0,1026.0,1031.0,1032.0,1030.0,1042.0,1030.0,1027.0,1034.0,1032.0,1030.0,1042.0,1033.0,1029.0,1037.0,1036.0,1031.0,1045.0,1035.0,1032.0,1040.0,1039.0,1032.0,1047.0,1036.0,1032.0,1035.0,1036.0,1029.0,1041.0,1033.0,1034.0,1036.0,1035.0,1029.0,1037.0,1033.0,1023.0,1024.0,1023.0,1023.0,1024.0,1022.0,1041.0,1042.0,1036.0,1033.0,1039.0,1038.0,1032.0,1036.0,1033.0,1031.0,1035.0,1035.0,1028.0,1031.0,1028.0,1027.0,1031.0,2046,2024,1908,	00:31:21.283,0.0537109375,0.046875,1.01708984375,-0.18310546875,0.1220703125,0.06103515625,2.65869140625,-3.0047607421875,52.0367431640625,439.0,-1579.0,-2566.0,0.8978271484375,0.032318115234375,-0.01336669921875,0.438934326171875,2.6573927155504604,-3.0026546358056776,47.538017119871235,0.9143727964655048,0.03177102422391165,-0.014628566916077008,0.4033596362225625,1,	00:31:21.284,0.02392578125,0.0673828125,1.005859375,-0.9765625,-1.3427734375,-0.48828125,3.812255859375,-1.3787841796875,129.1827392578125,-415.0,-1277.0,-1937.0,-0.428466796875,-0.025146484375,-0.024871826171875,-0.902862548828125,3.811856736331665,-1.3789626469635414,129.71017364136682,-0.42428104681489676,-0.02501792308879352,-0.024994408484903956,-0.9048397517695983,1
1782117388.512974,0.271,1023.0,1024.0,1023.0,1023.0,1023.0,1023.0,1023.0,1023.0,1023.0,1023.0,1023.0,1023.0,1023.0,1024.0,1022.0,1023.0,1023.0,1023.0,1024.0,1023.0,1024.0,1023.0,1023.0,1023.0,1023.0,1023.0,1024.0,1023.0,1024.0,1024.0,1024.0,1023.0,1023.0,1023.0,1023.0,1024.0,1023.0,1024.0,1024.0,1023.0,1023.0,1023.0,1023.0,1023.0,1023.0,1023.0,1024.0,1023.0,1023.0,1023.0,1023.0,1023.0,1023.0,1023.0,1023.0,1023.0,1024.0,1023.0,1023.0,1022.0,1023.0,1023.0,1023.0,1023.0,1022.0,1023.0,1024.0,1023.0,1023.0,1022.0,1022.0,1023.0,1023.0,1023.0,1023.0,1023.0,1024.0,1023.0,1023.0,1023.0,1023.0,1023.0,1023.0,1024.0,1024.0,1024.0,1024.0,1024.0,1024.0,1024.0,1023.0,1023.0,1023.0,1024.0,1025.0,1024.0,1025.0,1024.0,1024.0,1026.0,1024.0,1023.0,1023.0,1024.0,1024.0,1024.0,1025.0,1024.0,1024.0,1024.0,1023.0,1023.0,1023.0,1023.0,1023.0,1023.0,1024.0,1024.0,1022.0,1021.0,1022.0,1023.0,1024.0,1024.0,1024.0,1024.0,1024.0,1023.0,1023.0,1023.0,1023.0,1023.0,1023.0,1025.0,1023.0,1023.0,1024.0,1024.0,1024.0,1024.0,1024.0,1024.0,1024.0,1023.0,1024.0,1024.0,1024.0,1025.0,1024.0,1024.0,1023.0,1024.0,1024.0,1024.0,1026.0,1025.0,1024.0,1025.0,1025.0,1026.0,1029.0,1026.0,1025.0,1026.0,1026.0,1028.0,1031.0,1027.0,1025.0,1028.0,1028.0,1029.0,1035.0,1029.0,1026.0,1030.0,1032.0,1030.0,1042.0,1030.0,1027.0,1033.0,1033.0,1030.0,1043.0,1033.0,1029.0,1036.0,1036.0,1032.0,1046.0,1036.0,1033.0,1040.0,1039.0,1031.0,1048.0,1035.0,1032.0,1035.0,1036.0,1030.0,1041.0,1033.0,1035.0,1036.0,1035.0,1029.0,1038.0,1033.0,1023.0,1023.0,1023.0,1023.0,1024.0,1022.0,1040.0,1042.0,1036.0,1032.0,1039.0,1038.0,1033.0,1035.0,1032.0,1031.0,1035.0,1035.0,1028.0,1031.0,1028.0,1028.0,1031.0,2046,2024,1909,	00:31:21.293,0.05419921875,0.04638671875,1.017578125,-0.18310546875,0.18310546875,0.06103515625,2.5872802734375,-3.065185546875,52.042236328125,442.0,-1579.0,-2570.0,0.8978271484375,0.032012939453125,-0.01409912109375,0.43896484375,2.5876440509817544,-3.0625708870505175,47.54230485060525,0.914359456182207,0.03142536843110527,-0.015351255551333884,0.40339009663369974,1,	00:31:21.294,0.02392578125,0.06787109375,1.00537109375,-0.9765625,-1.3427734375,-0.48828125,3.88916015625,-1.3623046875,129.1717529296875,-417.0,-1275.0,-1934.0,-0.428497314453125,-0.0252685546875,-0.025543212890625,-0.90283203125,3.887985252624442,-1.3599517396991212,129.70235645104745,-0.42433199273294564,-0.02515148380840823,-0.025664322775169546,-0.904793404784769,1
1782117388.522376,0.281,1023.0,1023.0,1023.0,1023.0,1023.0,1023.0,1023.0,1023.0,1023.0,1023.0,1023.0,1024.0,1023.0,1023.0,1023.0,1023.0,1023.0,1023.0,1024.0,1023.0,1024.0,1023.0,1023.0,1022.0,1022.0,1024.0,1023.0,1023.0,1024.0,1023.0,1023.0,1023.0,1023.0,1023.0,1023.0,1023.0,1023.0,1024.0,1023.0,1023.0,1023.0,1023.0,1023.0,1023.0,1023.0,1023.0,1024.0,1023.0,1023.0,1022.0,1022.0,1023.0,1022.0,1023.0,1023.0,1023.0,1024.0,1023.0,1023.0,1023.0,1022.0,1023.0,1023.0,1023.0,1023.0,1023.0,1024.0,1023.0,1023.0,1022.0,1022.0,1023.0,1023.0,1023.0,1023.0,1023.0,1024.0,1024.0,1023.0,1023.0,1022.0,1023.0,1023.0,1024.0,1024.0,1023.0,1024.0,1024.0,1024.0,1024.0,1023.0,1023.0,1023.0,1024.0,1025.0,1024.0,1025.0,1024.0,1024.0,1026.0,1023.0,1023.0,1023.0,1024.0,1024.0,1024.0,1025.0,1024.0,1024.0,1024.0,1023.0,1023.0,1022.0,1023.0,1023.0,1023.0,1024.0,1023.0,1022.0,1021.0,1022.0,1023.0,1023.0,1023.0,1023.0,1024.0,1024.0,1023.0,1022.0,1023.0,1024.0,1024.0,1023.0,1024.0,1024.0,1023.0,1023.0,1024.0,1024.0,1024.0,1025.0,1024.0,1024.0,1023.0,1024.0,1024.0,1024.0,1025.0,1024.0,1024.0,1024.0,1024.0,1024.0,1024.0,1026.0,1024.0,1024.0,1024.0,1025.0,1025.0,1028.0,1026.0,1024.0,1027.0,1026.0,1027.0,1031.0,1028.0,1025.0,1028.0,1028.0,1030.0,1035.0,1029.0,1026.0,1031.0,1031.0,1031.0,1042.0,1030.0,1028.0,1033.0,1033.0,1030.0,1043.0,1033.0,1029.0,1037.0,1036.0,1030.0,1046.0,1036.0,1032.0,1039.0,1039.0,1031.0,1047.0,1036.0,1032.0,1036.0,1036.0,1029.0,1041.0,1033.0,1034.0,1037.0,1035.0,1029.0,1038.0,1032.0,1023.0,1023.0,1023.0,1023.0,1024.0,1022.0,1040.0,1042.0,1037.0,1033.0,1039.0,1037.0,1033.0,1035.0,1032.0,1032.0,1035.0,1034.0,1028.0,1031.0,1027.0,1028.0,1030.0,2046,2024,1908,	00:31:21.303,0.05419921875,0.04541015625,1.017578125,-0.244140625,0.18310546875,0.06103515625,2.5048828125,-3.021240234375,52.0477294921875,440.0,-1578.0,-2569.0,0.8978271484375,0.03118896484375,-0.014068603515625,0.438995361328125,2.5037526112968576,-3.018810776672478,47.547315887561375,0.9143772091000464,0.030602998687354402,-0.015295867157154685,0.40341518612672805,1,	00:31:21.304,0.0234375,0.0673828125,1.0048828125,-1.03759765625,-1.3427734375,-0.48828125,3.7957763671875,-1.329345703125,129.166259765625,-415.0,-1281.0,-1935.0,-0.428558349609375,-0.024688720703125,-0.024932861328125,-0.90283203125,3.7965537232303084,-1.3308992123178693,129.6984762316622,-0.4243914296130773,-0.024584439044108456,-0.025049322128328694,-0.9047983484118249,1
1782117388.533104,0.291,1023.0,1023.0,1023.0,1023.0,1023.0,1023.0,1023.0,1023.0,1023.0,1023.0,1023.0,1024.0,1023.0,1024.0,1023.0,1023.0,1023.0,1023.0,1024.0,1023.0,1024.0,1023.0,1024.0,1024.0,1023.0,1023.0,1024.0,1024.0,1024.0,1023.0,1024.0,1023.0,1023.0,1023.0,1023.0,1024.0,1023.0,1024.0,1023.0,1023.0,1023.0,1023.0,1023.0,1023.0,1024.0,1023.0,1024.0,1023.0,1023.0,1022.0,1022.0,1023.0,1023.0,1023.0,1023.0,1023.0,1024.0,1023.0,1024.0,1023.0,1023.0,1022.0,1023.0,1023.0,1023.0,1023.0,1024.0,1023.0,1023.0,1022.0,1022.0,1023.0,1022.0,1024.0,1024.0,1023.0,1024.0,1023.0,1023.0,1022.0,1023.0,1023.0,1023.0,1024.0,1024.0,1024.0,1024.0,1023.0,1024.0,1023.0,1023.0,1023.0,1024.0,1024.0,1025.0,1024.0,1025.0,1024.0,1024.0,1025.0,1024.0,1024.0,1023.0,1024.0,1024.0,1024.0,1024.0,1024.0,1024.0,1023.0,1023.0,1023.0,1022.0,1023.0,1023.0,1023.0,1024.0,1023.0,1022.0,1021.0,1022.0,1023.0,1023.0,1023.0,1023.0,1024.0,1023.0,1023.0,1023.0,1023.0,1024.0,1024.0,1023.0,1024.0,1023.0,1023.0,1024.0,1024.0,1024.0,1024.0,1024.0,1024.0,1024.0,1023.0,1023.0,1024.0,1023.0,1025.0,1024.0,1024.0,1023.0,1024.0,1024.0,1024.0,1026.0,1024.0,1024.0,1025.0,1025.0,1026.0,1028.0,1026.0,1024.0,1026.0,1026.0,1027.0,1031.0,1028.0,1025.0,1029.0,1028.0,1029.0,1035.0,1029.0,1026.0,1030.0,1031.0,1030.0,1042.0,1031.0,1027.0,1033.0,1033.0,1029.0,1042.0,1033.0,1029.0,1037.0,1036.0,1030.0,1045.0,1035.0,1032.0,1040.0,1038.0,1031.0,1047.0,1035.0,1032.0,1035.0,1036.0,1030.0,1041.0,1033.0,1034.0,1037.0,1035.0,1030.0,1037.0,1033.0,1023.0,1023.0,1023.0,1023.0,1024.0,1022.0,1041.0,1042.0,1036.0,1033.0,1039.0,1038.0,1033.0,1035.0,1032.0,1032.0,1035.0,1034.0,1029.0,1031.0,1028.0,1027.0,1030.0,2046,2024,1908,	00:31:21.314,0.0537109375,0.04638671875,1.017578125,-0.18310546875,0.18310546875,0.06103515625,2.5927734375,-3.0157470703125,52.042236328125,441.0,-1579.0,-2571.0,0.8978271484375,0.0318603515625,-0.01373291015625,0.43896484375,2.593595044788507,-3.0165832768514815,47.54317853555028,0.9143681454020977,0.031311521021569845,-0.014962923078352458,0.40339384509210796,1,	00:31:21.315,0.02392578125,0.068359375,1.0048828125,-1.03759765625,-1.3427734375,-0.48828125,3.8726806640625,-1.373291015625,129.1607666015625,-416.0,-1280.0,-1932.0,-0.4285888671875,-0.025299072265625,-0.025390625,-0.90277099609375,3.873575971669853,-1.3713846646505163,129.6906597636579,-0.42442394793671884,-0.02519096807908928,-0.025505569462812468,-0.904753664525005,1
1782117388.543050,0.301,1024.0,1024.0,1023.0,1023.0,1023.0,1023.0,1024.0,1024.0,1023.0,1023.0,1024.0,1024.0,1023.0,1024.0,1023.0,1023.0,1023.0,1024.0,1023.0,1023.0,1024.0,1023.0,1023.0,1023.0,1023.0,1023.0,1024.0,1023.0,1024.0,1023.0,1023.0,1023.0,1023.0,1022.0,1024.0,1023.0,1024.0,1024.0,1023.0,1023.0,1023.0,1023.0,1022.0,1023.0,1023.0,1024.0,1024.0,1023.0,1023.0,1022.0,1023.0,1024.0,1022.0,1023.0,1024.0,1024.0,1024.0,1023.0,1024.0,1023.0,1023.0,1023.0,1023.0,1023.0,1023.0,1023.0,1024.0,1023.0,1022.0,1023.0,1022.0,1023.0,1023.0,1023.0,1023.0,1023.0,1024.0,1023.0,1023.0,1023.0,1023.0,1023.0,1023.0,1024.0,1024.0,1023.0,1024.0,1024.0,1024.0,1024.0,1023.0,1023.0,1023.0,1024.0,1025.0,1024.0,1025.0,1024.0,1024.0,1025.0,1024.0,1023.0,1023.0,1024.0,1024.0,1023.0,1024.0,1023.0,1024.0,1023.0,1023.0,1023.0,1022.0,1023.0,1023.0,1023.0,1024.0,1023.0,1022.0,1020.0,1022.0,1023.0,1023.0,1024.0,1023.0,1024.0,1024.0,1023.0,1023.0,1022.0,1024.0,1023.0,1023.0,1025.0,1023.0,1023.0,1023.0,1024.0,1024.0,1024.0,1025.0,1024.0,1024.0,1024.0,1023.0,1024.0,1024.0,1025.0,1024.0,1024.0,1023.0,1024.0,1024.0,1024.0,1025.0,1024.0,1024.0,1025.0,1025.0,1025.0,1028.0,1026.0,1025.0,1026.0,1027.0,1027.0,1031.0,1028.0,1025.0,1028.0,1029.0,1029.0,1035.0,1029.0,1026.0,1031.0,1032.0,1030.0,1042.0,1030.0,1027.0,1033.0,1033.0,1030.0,1042.0,1033.0,1029.0,1037.0,1036.0,1030.0,1046.0,1036.0,1032.0,1040.0,1039.0,1031.0,1047.0,1035.0,1031.0,1036.0,1036.0,1029.0,1041.0,1033.0,1035.0,1036.0,1035.0,1030.0,1037.0,1033.0,1023.0,1023.0,1023.0,1023.0,1024.0,1022.0,1040.0,1042.0,1037.0,1032.0,1039.0,1038.0,1033.0,1035.0,1032.0,1031.0,1035.0,1034.0,1028.0,1031.0,1027.0,1027.0,1031.0,2046,2024,1909,	00:31:21.324,0.0537109375,0.04638671875,1.01708984375,-0.18310546875,0.18310546875,0.06103515625,2.6806640625,-3.0322265625,52.0367431640625,441.0,-1582.0,-2568.0,0.8978271484375,0.032623291015625,-0.01348876953125,0.43896484375,2.681946771770969,-3.0309714762845505,47.53911318718556,0.91435382803724,0.03206648867445903,-0.01476790177991313,0.403374176831828,1,	00:31:21.325,0.02294921875,0.068359375,1.00537109375,-1.03759765625,-1.40380859375,-0.48828125,3.8836669921875,-1.29638671875,129.1552734375,-416.0,-1278.0,-1935.0,-0.428680419921875,-0.024749755859375,-0.0257568359375,-0.902740478515625,3.884975431005569,-1.295978325335104,129.68432774236916,-0.4244948752331568,-0.024639474062562908,-0.025873977747781923,-0.9047251154324248,1
1782117388.552636,0.311,1023.0,1024.0,1023.0,1023.0,1023.0,1023.0,1023.0,1023.0,1023.0,1023.0,1023.0,1024.0,1023.0,1023.0,1023.0,1023.0,1023.0,1023.0,1024.0,1024.0,1024.0,1023.0,1024.0,1024.0,1023.0,1023.0,1024.0,1023.0,1024.0,1023.0,1024.0,1024.0,1023.0,1023.0,1024.0,1023.0,1023.0,1024.0,1024.0,1023.0,1023.0,1023.0,1023.0,1023.0,1023.0,1023.0,1024.0,1023.0,1023.0,1022.0,1022.0,1023.0,1023.0,1024.0,1023.0,1023.0,1024.0,1023.0,1023.0,1023.0,1023.0,1024.0,1022.0,1023.0,1023.0,1023.0,1024.0,1023.0,1024.0,1022.0,1022.0,1023.0,1023.0,1023.0,1024.0,1023.0,1024.0,1023.0,1023.0,1022.0,1023.0,1023.0,1023.0,1024.0,1024.0,1024.0,1024.0,1024.0,1024.0,1024.0,1023.0,1024.0,1023.0,1024.0,1025.0,1024.0,1024.0,1024.0,1024.0,1025.0,1023.0,1023.0,1023.0,1024.0,1025.0,1024.0,1024.0,1024.0,1024.0,1023.0,1023.0,1023.0,1022.0,1023.0,1023.0,1023.0,1024.0,1023.0,1022.0,1021.0,1022.0,1023.0,1023.0,1023.0,1024.0,1024.0,1023.0,1022.0,1023.0,1023.0,1023.0,1023.0,1024.0,1024.0,1023.0,1023.0,1024.0,1024.0,1024.0,1024.0,1025.0,1024.0,1024.0,1023.0,1024.0,1024.0,1024.0,1025.0,1024.0,1024.0,1023.0,1024.0,1024.0,1024.0,1026.0,1024.0,1024.0,1025.0,1025.0,1025.0,1028.0,1026.0,1024.0,1026.0,1026.0,1027.0,1031.0,1028.0,1025.0,1028.0,1029.0,1029.0,1035.0,1029.0,1026.0,1031.0,1032.0,1031.0,1041.0,1030.0,1027.0,1033.0,1033.0,1029.0,1043.0,1033.0,1029.0,1037.0,1036.0,1031.0,1045.0,1036.0,1032.0,1039.0,1039.0,1031.0,1047.0,1035.0,1032.0,1035.0,1036.0,1029.0,1041.0,1033.0,1035.0,1036.0,1035.0,1029.0,1038.0,1032.0,1023.0,1023.0,1023.0,1023.0,1024.0,1022.0,1040.0,1042.0,1037.0,1032.0,1039.0,1038.0,1032.0,1035.0,1032.0,1031.0,1036.0,1035.0,1028.0,1031.0,1027.0,1027.0,1031.0,2046,2024,1908,	00:31:21.334,0.05322265625,0.04638671875,1.017578125,-0.18310546875,0.18310546875,0.06103515625,2.5982666015625,-2.9827880859375,52.042236328125,439.0,-1579.0,-2570.0,0.8978271484375,0.03179931640625,-0.013458251953125,0.438995361328125,2.6000777527010377,-2.9846152083905397,47.544006603963986,0.9143726907152933,0.03125112206530184,-0.01468465695413078,0.40339845152637094,1,	00:31:21.335,0.0234375,0.06884765625,1.00537109375,-1.0986328125,-1.3427734375,-0.54931640625,3.93310546875,-1.3787841796875,129.144287109375,-416.0,-1274.0,-1935.0,-0.4287109375,-0.02557373046875,-0.025848388671875,-0.9027099609375,3.9351386443387835,-1.3772054701226852,129.67652080834202,-0.42452014461475535,-0.025468123740034394,-0.025966893281219743,-0.9046876488284512,1
1782117388.563372,0.322,1022.0,1023.0,1023.0,1023.0,1023.0,1023.0,1022.0,1024.0,1022.0,1023.0,1023.0,1024.0,1023.0,1023.0,1023.0,1024.0,1023.0,1024.0,1024.0,1023.0,1024.0,1023.0,1024.0,1023.0,1024.0,1024.0,1023.0,1023.0,1024.0,1024.0,1024.0,1023.0,1023.0,1022.0,1024.0,1023.0,1023.0,1024.0,1023.0,1024.0,1023.0,1023.0,1023.0,1023.0,1023.0,1023.0,1024.0,1023.0,1023.0,1022.0,1023.0,1023.0,1023.0,1023.0,1023.0,1023.0,1024.0,1023.0,1023.0,1023.0,1022.0,1024.0,1023.0,1023.0,1023.0,1023.0,1024.0,1023.0,1023.0,1022.0,1023.0,1023.0,1023.0,1024.0,1023.0,1023.0,1024.0,1023.0,1023.0,1023.0,1022.0,1023.0,1023.0,1024.0,1024.0,1024.0,1024.0,1024.0,1024.0,1024.0,1023.0,1023.0,1023.0,1024.0,1026.0,1024.0,1025.0,1024.0,1024.0,1026.0,1023.0,1024.0,1023.0,1024.0,1024.0,1024.0,1025.0,1024.0,1024.0,1023.0,1023.0,1023.0,1022.0,1023.0,1023.0,1023.0,1024.0,1023.0,1023.0,1021.0,1023.0,1023.0,1023.0,1023.0,1024.0,1024.0,1023.0,1023.0,1023.0,1023.0,1023.0,1023.0,1023.0,1024.0,1023.0,1023.0,1024.0,1024.0,1024.0,1023.0,1025.0,1024.0,1024.0,1023.0,1024.0,1024.0,1024.0,1025.0,1024.0,1024.0,1023.0,1024.0,1024.0,1024.0,1025.0,1025.0,1024.0,1025.0,1025.0,1025.0,1028.0,1026.0,1024.0,1026.0,1027.0,1027.0,1031.0,1028.0,1025.0,1028.0,1028.0,1029.0,1035.0,1029.0,1026.0,1031.0,1032.0,1030.0,1041.0,1031.0,1026.0,1033.0,1033.0,1029.0,1042.0,1033.0,1029.0,1037.0,1036.0,1031.0,1045.0,1035.0,1032.0,1040.0,1040.0,1031.0,1047.0,1036.0,1032.0,1035.0,1036.0,1029.0,1040.0,1033.0,1034.0,1036.0,1035.0,1030.0,1038.0,1033.0,1023.0,1023.0,1023.0,1023.0,1024.0,1023.0,1040.0,1042.0,1037.0,1032.0,1039.0,1038.0,1033.0,1035.0,1032.0,1032.0,1036.0,1034.0,1029.0,1030.0,1028.0,1028.0,1031.0,2046,2024,1909,	00:31:21.344,0.05419921875,0.04638671875,1.017578125,-0.18310546875,0.18310546875,0.1220703125,2.61474609375,-3.0706787109375,52.042236328125,439.0,-1576.0,-2567.0,0.897796630859375,0.032257080078125,-0.01409912109375,0.438995361328125,2.6129145010418635,-3.073162427989855,47.544533665647265,0.9143415447311959,0.03166448834169612,-0.015346238872348384,0.40341218711028315,1,	00:31:21.345,0.0224609375,0.068359375,1.00537109375,-1.03759765625,-1.3427734375,-0.42724609375,3.88916015625,-1.307373046875,129.144287109375,-416.0,-1277.0,-1935.0,-0.42877197265625,-0.02484130859375,-0.025726318359375,-0.9027099609375,3.887169005267893,-1.3068724826390985,129.67221230257306,-0.42458667812280027,-0.024736313535704713,-0.02584825874909899,-0.904680128594051,1
1782117388.573673,0.332,1023.0,1023.0,1023.0,1022.0,1023.0,1023.0,1022.0,1023.0,1023.0,1023.0,1023.0,1024.0,1023.0,1024.0,1023.0,1023.0,1023.0,1023.0,1024.0,1023.0,1024.0,1023.0,1024.0,1023.0,1023.0,1023.0,1024.0,1023.0,1024.0,1023.0,1024.0,1024.0,1023.0,1023.0,1023.0,1024.0,1023.0,1024.0,1024.0,1024.0,1022.0,1023.0,1023.0,1024.0,1023.0,1023.0,1024.0,1023.0,1023.0,1023.0,1022.0,1023.0,1022.0,1023.0,1024.0,1023.0,1023.0,1023.0,1023.0,1023.0,1023.0,1023.0,1023.0,1023.0,1023.0,1023.0,1023.0,1023.0,1023.0,1023.0,1022.0,1023.0,1023.0,1023.0,1023.0,1024.0,1024.0,1023.0,1023.0,1022.0,1022.0,1023.0,1023.0,1024.0,1024.0,1024.0,1024.0,1023.0,1024.0,1024.0,1023.0,1023.0,1024.0,1024.0,1025.0,1024.0,1025.0,1024.0,1024.0,1025.0,1024.0,1024.0,1024.0,1024.0,1024.0,1024.0,1025.0,1024.0,1024.0,1023.0,1023.0,1023.0,1023.0,1024.0,1023.0,1023.0,1024.0,1023.0,1022.0,1021.0,1022.0,1023.0,1023.0,1023.0,1024.0,1024.0,1024.0,1023.0,1023.0,1023.0,1023.0,1023.0,1024.0,1024.0,1023.0,1023.0,1023.0,1024.0,1024.0,1024.0,1025.0,1024.0,1024.0,1023.0,1024.0,1024.0,1024.0,1025.0,1024.0,1024.0,1023.0,1024.0,1024.0,1024.0,1026.0,1024.0,1023.0,1025.0,1025.0,1026.0,1028.0,1026.0,1024.0,1027.0,1026.0,1027.0,1031.0,1028.0,1025.0,1028.0,1029.0,1029.0,1036.0,1029.0,1026.0,1031.0,1032.0,1030.0,1042.0,1030.0,1027.0,1033.0,1033.0,1030.0,1042.0,1033.0,1029.0,1037.0,1036.0,1031.0,1046.0,1035.0,1032.0,1039.0,1039.0,1031.0,1047.0,1036.0,1031.0,1035.0,1036.0,1029.0,1041.0,1033.0,1034.0,1036.0,1035.0,1029.0,1037.0,1032.0,1023.0,1023.0,1023.0,1023.0,1024.0,1022.0,1041.0,1042.0,1037.0,1033.0,1039.0,1038.0,1033.0,1035.0,1032.0,1031.0,1035.0,1034.0,1028.0,1031.0,1028.0,1027.0,1031.0,2046,2024,1909,	00:31:21.354,0.05419921875,0.04541015625,1.017578125,-0.244140625,0.1220703125,0.06103515625,2.52685546875,-3.0322265625,52.0477294921875,441.0,-1579.0,-2566.0,0.8978271484375,0.03143310546875,-0.01409912109375,0.43902587890625,2.5276446829449806,-3.032788596450197,47.549608625092574,0.9143587061120828,0.030843028937612014,-0.015322730109690161,0.40343782428644076,1,	00:31:21.355,0.0234375,0.068359375,1.00537109375,-1.0986328125,-1.40380859375,-0.48828125,3.8836669921875,-1.4117431640625,129.1387939453125,-416.0,-1278.0,-1936.0,-0.42877197265625,-0.025665283203125,-0.02532958984375,-0.902679443359375,3.8856949933595937,-1.4116975480053777,129.66617511161002,-0.424601979405194,-0.025559457100396567,-0.025446224156635666,-0.904661463152982,1
1782117388.585116,0.343,1023.0,1024.0,1024.0,1023.0,1023.0,1023.0,1023.0,1024.0,1023.0,1023.0,1024.0,1023.0,1023.0,1024.0,1023.0,1023.0,1023.0,1024.0,1023.0,1023.0,1024.0,1023.0,1024.0,1023.0,1023.0,1023.0,1024.0,1023.0,1024.0,1024.0,1024.0,1024.0,1023.0,1023.0,1023.0,1023.0,1023.0,1024.0,1023.0,1023.0,1023.0,1023.0,1023.0,1023.0,1024.0,1023.0,1024.0,1023.0,1023.0,1022.0,1023.0,1023.0,1023.0,1024.0,1023.0,1023.0,1024.0,1023.0,1023.0,1022.0,1023.0,1023.0,1023.0,1023.0,1023.0,1023.0,1024.0,1023.0,1023.0,1022.0,1023.0,1023.0,1022.0,1023.0,1023.0,1023.0,1024.0,1023.0,1023.0,1022.0,1023.0,1023.0,1023.0,1024.0,1024.0,1023.0,1024.0,1024.0,1023.0,1024.0,1023.0,1023.0,1023.0,1024.0,1026.0,1024.0,1025.0,1024.0,1024.0,1025.0,1024.0,1024.0,1023.0,1024.0,1024.0,1024.0,1025.0,1024.0,1024.0,1023.0,1023.0,1023.0,1023.0,1023.0,1023.0,1023.0,1024.0,1023.0,1022.0,1021.0,1022.0,1023.0,1024.0,1023.0,1023.0,1024.0,1023.0,1024.0,1023.0,1022.0,1023.0,1023.0,1023.0,1024.0,1023.0,1023.0,1023.0,1024.0,1024.0,1024.0,1025.0,1024.0,1024.0,1023.0,1024.0,1024.0,1024.0,1024.0,1024.0,1024.0,1023.0,1024.0,1024.0,1024.0,1026.0,1025.0,1024.0,1025.0,1025.0,1025.0,1028.0,1026.0,1024.0,1026.0,1026.0,1027.0,1031.0,1028.0,1025.0,1028.0,1028.0,1029.0,1035.0,1029.0,1026.0,1030.0,1032.0,1030.0,1041.0,1030.0,1027.0,1033.0,1032.0,1030.0,1042.0,1033.0,1029.0,1037.0,1036.0,1030.0,1046.0,1036.0,1033.0,1040.0,1040.0,1031.0,1047.0,1035.0,1031.0,1035.0,1036.0,1029.0,1040.0,1033.0,1035.0,1036.0,1036.0,1029.0,1038.0,1032.0,1023.0,1023.0,1023.0,1022.0,1024.0,1023.0,1040.0,1042.0,1037.0,1032.0,1039.0,1038.0,1033.0,1036.0,1032.0,1031.0,1035.0,1034.0,1029.0,1030.0,1027.0,1028.0,1031.0,2046,2024,1909,	00:31:21.364,0.05419921875,0.0458984375,1.01806640625,-0.18310546875,0.1220703125,0.06103515625,2.61474609375,-3.0487060546875,52.0477294921875,440.0,-1580.0,-2570.0,0.897796630859375,0.03216552734375,-0.013916015625,0.438995361328125,2.6153975277419668,-3.0508228053698927,47.54551781758784,0.9143439519841946,0.0316060034264909,-0.01515887888192511,0.40341840117720545,1,	00:31:21.366,0.0224609375,0.0673828125,1.00537109375,-1.15966796875,-1.46484375,-0.48828125,3.8397216796875,-1.34033203125,129.13330078125,-416.0,-1281.0,-1937.0,-0.428863525390625,-0.02496337890625,-0.025238037109375,-0.902679443359375,3.8416489359151913,-1.3404006430541848,129.6610844387883,-0.42467401043796554,-0.024834718538501104,-0.02536203670626376,-0.9046502024029832,1
1782117388.595288,0.354,1023.0,1023.0,1023.0,1023.0,1023.0,1023.0,1023.0,1024.0,1023.0,1023.0,1023.0,1023.0,1023.0,1024.0,1023.0,1023.0,1023.0,1024.0,1024.0,1023.0,1024.0,1023.0,1023.0,1024.0,1023.0,1023.0,1024.0,1024.0,1024.0,1023.0,1024.0,1024.0,1023.0,1023.0,1023.0,1024.0,1023.0,1024.0,1023.0,1023.0,1023.0,1023.0,1023.0,1023.0,1023.0,1023.0,1024.0,1023.0,1023.0,1022.0,1023.0,1023.0,1023.0,1023.0,1023.0,1023.0,1024.0,1023.0,1023.0,1023.0,1022.0,1023.0,1023.0,1024.0,1023.0,1023.0,1023.0,1023.0,1023.0,1022.0,1022.0,1023.0,1023.0,1023.0,1024.0,1023.0,1024.0,1023.0,1023.0,1022.0,1023.0,1023.0,1023.0,1024.0,1024.0,1023.0,1024.0,1024.0,1024.0,1024.0,1023.0,1023.0,1024.0,1025.0,1025.0,1024.0,1025.0,1024.0,1024.0,1025.0,1024.0,1023.0,1023.0,1024.0,1024.0,1024.0,1024.0,1024.0,1024.0,1023.0,1023.0,1023.0,1022.0,1024.0,1023.0,1023.0,1024.0,1023.0,1022.0,1021.0,1022.0,1023.0,1024.0,1023.0,1023.0,1024.0,1023.0,1023.0,1022.0,1023.0,1023.0,1023.0,1023.0,1024.0,1023.0,1023.0,1023.0,1024.0,1024.0,1024.0,1025.0,1024.0,1024.0,1023.0,1024.0,1024.0,1024.0,1025.0,1024.0,1023.0,1023.0,1024.0,1024.0,1024.0,1026.0,1024.0,1024.0,1025.0,1025.0,1026.0,1028.0,1026.0,1024.0,1026.0,1026.0,1028.0,1030.0,1028.0,1025.0,1029.0,1028.0,1029.0,1035.0,1029.0,1026.0,1031.0,1032.0,1031.0,1042.0,1031.0,1027.0,1033.0,1034.0,1029.0,1042.0,1034.0,1030.0,1037.0,1036.0,1031.0,1046.0,1036.0,1032.0,1040.0,1039.0,1031.0,1047.0,1036.0,1031.0,1036.0,1036.0,1029.0,1041.0,1033.0,1034.0,1036.0,1035.0,1029.0,1038.0,1033.0,1022.0,1023.0,1023.0,1022.0,1024.0,1022.0,1040.0,1042.0,1037.0,1032.0,1039.0,1038.0,1032.0,1035.0,1032.0,1031.0,1036.0,1034.0,1029.0,1031.0,1028.0,1027.0,1031.0,2046,2024,1909,	00:31:21.375,0.0537109375,0.044921875,1.01806640625,-0.18310546875,0.1220703125,0.0,2.52685546875,-3.0157470703125,52.0477294921875,441.0,-1578.0,-2567.0,0.8978271484375,0.0313720703125,-0.01397705078125,0.43902587890625,2.5279153969197816,-3.017075737634565,47.550106212820005,0.9143614116303243,0.03079008161057296,-0.015196201270743176,0.4034405225838799,1,	00:31:21.376,0.0234375,0.068359375,1.0048828125,-1.220703125,-1.46484375,-0.48828125,3.922119140625,-1.34033203125,129.122314453125,-415.0,-1278.0,-1935.0,-0.42889404296875,-0.0252685546875,-0.025848388671875,-0.902618408203125,3.9201129335725717,-1.3413321658792374,129.65311143484942,-0.42471955494550545,-0.02513465717076951,-0.025976262931269648,-0.9046031076775743,1
1782117388.604539,0.363,1023.0,1024.0,1023.0,1023.0,1023.0,1023.0,1023.0,1024.0,1023.0,1023.0,1024.0,1023.0,1023.0,1024.0,1023.0,1023.0,1023.0,1023.0,1024.0,1023.0,1024.0,1022.0,1023.0,1024.0,1023.0,1023.0,1024.0,1023.0,1024.0,1024.0,1024.0,1024.0,1023.0,1023.0,1024.0,1024.0,1023.0,1024.0,1023.0,1023.0,1023.0,1023.0,1023.0,1024.0,1023.0,1023.0,1024.0,1023.0,1023.0,1022.0,1023.0,1023.0,1023.0,1024.0,1023.0,1023.0,1024.0,1023.0,1023.0,1022.0,1022.0,1023.0,1023.0,1023.0,1024.0,1022.0,1024.0,1024.0,1023.0,1022.0,1022.0,1023.0,1023.0,1023.0,1023.0,1023.0,1023.0,1023.0,1023.0,1022.0,1023.0,1023.0,1023.0,1024.0,1024.0,1023.0,1024.0,1023.0,1024.0,1024.0,1023.0,1023.0,1023.0,1024.0,1026.0,1024.0,1025.0,1024.0,1024.0,1025.0,1024.0,1023.0,1023.0,1024.0,1024.0,1024.0,1024.0,1023.0,1024.0,1023.0,1023.0,1023.0,1022.0,1023.0,1023.0,1023.0,1024.0,1023.0,1023.0,1021.0,1022.0,1023.0,1024.0,1023.0,1023.0,1024.0,1023.0,1023.0,1023.0,1023.0,1023.0,1024.0,1023.0,1024.0,1023.0,1023.0,1023.0,1024.0,1024.0,1024.0,1025.0,1024.0,1024.0,1023.0,1024.0,1023.0,1024.0,1026.0,1024.0,1024.0,1023.0,1024.0,1024.0,1024.0,1026.0,1025.0,1023.0,1025.0,1024.0,1025.0,1027.0,1026.0,1024.0,1027.0,1026.0,1028.0,1031.0,1028.0,1025.0,1029.0,1029.0,1029.0,1035.0,1029.0,1026.0,1031.0,1032.0,1031.0,1041.0,1030.0,1027.0,1034.0,1033.0,1030.0,1042.0,1033.0,1029.0,1038.0,1036.0,1031.0,1046.0,1035.0,1032.0,1040.0,1039.0,1031.0,1046.0,1035.0,1032.0,1036.0,1036.0,1029.0,1041.0,1033.0,1034.0,1036.0,1035.0,1028.0,1038.0,1033.0,1023.0,1024.0,1023.0,1022.0,1024.0,1022.0,1040.0,1042.0,1037.0,1032.0,1039.0,1038.0,1032.0,1036.0,1032.0,1031.0,1035.0,1034.0,1028.0,1030.0,1028.0,1027.0,1031.0,2046,2024,1909,	00:31:21.385,0.05419921875,0.0458984375,1.017578125,-0.18310546875,0.18310546875,0.06103515625,2.6092529296875,-3.0596923828125,52.0477294921875,440.0,-1578.0,-2569.0,0.897796630859375,0.032135009765625,-0.014007568359375,0.438995361328125,2.607149066474037,-3.057823008047746,47.54650088177152,0.9143407142127672,0.03156489465982216,-0.015243532323017039,0.40342576824035203,1,	00:31:21.386,0.0244140625,0.068359375,1.0048828125,-1.28173828125,-1.46484375,-0.48828125,3.8616943359375,-1.4337158203125,129.1168212890625,-417.0,-1279.0,-1939.0,-0.428924560546875,-0.0257568359375,-0.0250244140625,-0.902618408203125,3.8601385063568,-1.434141843866971,129.64839257046143,-0.4247410485482367,-0.025645786550313313,-0.025157171576455847,-0.9046018196027648,1
1782117388.614705,0.373,1023.0,1024.0,1023.0,1023.0,1024.0,1023.0,1023.0,1024.0,1023.0,1023.0,1023.0,1024.0,1023.0,1024.0,1023.0,1023.0,1023.0,1024.0,1024.0,1023.0,1024.0,1023.0,1023.0,1023.0,1023.0,1024.0,1024.0,1023.0,1024.0,1023.0,1024.0,1024.0,1023.0,1022.0,1023.0,1023.0,1023.0,1024.0,1023.0,1023.0,1023.0,1022.0,1023.0,1023.0,1023.0,1022.0,1023.0,1024.0,1023.0,1023.0,1022.0,1024.0,1023.0,1023.0,1024.0,1023.0,1024.0,1023.0,1023.0,1023.0,1022.0,1023.0,1022.0,1023.0,1024.0,1023.0,1024.0,1023.0,1023.0,1022.0,1022.0,1023.0,1023.0,1024.0,1023.0,1023.0,1023.0,1023.0,1023.0,1022.0,1022.0,1023.0,1023.0,1023.0,1024.0,1024.0,1024.0,1023.0,1024.0,1024.0,1023.0,1023.0,1024.0,1024.0,1025.0,1023.0,1025.0,1024.0,1024.0,1026.0,1024.0,1023.0,1023.0,1024.0,1024.0,1024.0,1025.0,1024.0,1024.0,1023.0,1023.0,1024.0,1022.0,1023.0,1023.0,1023.0,1024.0,1023.0,1023.0,1021.0,1022.0,1023.0,1024.0,1023.0,1023.0,1025.0,1023.0,1023.0,1023.0,1023.0,1024.0,1024.0,1023.0,1024.0,1023.0,1023.0,1023.0,1024.0,1024.0,1024.0,1025.0,1024.0,1024.0,1023.0,1024.0,1024.0,1024.0,1024.0,1024.0,1024.0,1023.0,1024.0,1024.0,1024.0,1026.0,1025.0,1024.0,1025.0,1025.0,1025.0,1028.0,1026.0,1024.0,1027.0,1027.0,1027.0,1031.0,1028.0,1024.0,1029.0,1029.0,1029.0,1035.0,1029.0,1026.0,1031.0,1032.0,1030.0,1041.0,1031.0,1027.0,1033.0,1033.0,1030.0,1042.0,1033.0,1029.0,1037.0,1036.0,1031.0,1045.0,1035.0,1032.0,1040.0,1040.0,1031.0,1047.0,1035.0,1031.0,1036.0,1036.0,1029.0,1040.0,1033.0,1034.0,1036.0,1035.0,1029.0,1038.0,1033.0,1023.0,1023.0,1023.0,1023.0,1024.0,1023.0,1040.0,1042.0,1036.0,1031.0,1038.0,1038.0,1033.0,1035.0,1032.0,1031.0,1035.0,1034.0,1028.0,1031.0,1028.0,1027.0,1031.0,2046,2024,1909,	00:31:21.395,0.0537109375,0.044921875,1.0185546875,-0.18310546875,0.1220703125,0.1220703125,2.5213623046875,-3.0157470703125,52.05322265625,439.0,-1578.0,-2568.0,0.8978271484375,0.03131103515625,-0.01397705078125,0.43902587890625,2.5238461522096998,-3.0146868577284325,47.55208879557629,0.9143562112102325,0.030749486297099102,-0.015190924395648833,0.4034556034184417,1,	00:31:21.397,0.02392578125,0.06787109375,1.00390625,-1.28173828125,-1.40380859375,-0.42724609375,3.856201171875,-1.3568115234375,129.111328125,-416.0,-1277.0,-1934.0,-0.428985595703125,-0.025146484375,-0.025299072265625,-0.902618408203125,3.8570351239220746,-1.356703246556921,129.64294107707684,-0.42480885575248833,-0.025024417689918827,-0.025419023611381483,-0.9045800615933263,1
1782117388.624299,0.383,1023.0,1023.0,1023.0,1023.0,1023.0,1023.0,1023.0,1024.0,1023.0,1023.0,1023.0,1023.0,1023.0,1024.0,1023.0,1023.0,1023.0,1023.0,1024.0,1023.0,1024.0,1023.0,1024.0,1024.0,1023.0,1024.0,1024.0,1024.0,1024.0,1023.0,1024.0,1023.0,1023.0,1023.0,1023.0,1023.0,1023.0,1024.0,1023.0,1024.0,1023.0,1023.0,1023.0,1024.0,1024.0,1023.0,1024.0,1022.0,1023.0,1023.0,1022.0,1023.0,1023.0,1024.0,1024.0,1023.0,1024.0,1023.0,1023.0,1022.0,1022.0,1023.0,1022.0,1023.0,1023.0,1023.0,1024.0,1023.0,1023.0,1022.0,1023.0,1023.0,1023.0,1023.0,1023.0,1023.0,1024.0,1023.0,1023.0,1022.0,1023.0,1024.0,1023.0,1023.0,1024.0,1024.0,1024.0,1024.0,1024.0,1024.0,1023.0,1024.0,1024.0,1024.0,1026.0,1024.0,1025.0,1024.0,1025.0,1026.0,1023.0,1024.0,1023.0,1024.0,1025.0,1024.0,1025.0,1024.0,1024.0,1023.0,1023.0,1023.0,1022.0,1023.0,1023.0,1023.0,1024.0,1023.0,1022.0,1021.0,1022.0,1022.0,1024.0,1024.0,1023.0,1024.0,1024.0,1023.0,1023.0,1023.0,1024.0,1023.0,1023.0,1024.0,1023.0,1023.0,1023.0,1024.0,1024.0,1024.0,1025.0,1024.0,1024.0,1023.0,1024.0,1024.0,1024.0,1025.0,1024.0,1024.0,1023.0,1024.0,1024.0,1024.0,1026.0,1025.0,1024.0,1025.0,1025.0,1025.0,1028.0,1026.0,1024.0,1027.0,1027.0,1028.0,1031.0,1028.0,1025.0,1029.0,1028.0,1029.0,1035.0,1029.0,1026.0,1030.0,1032.0,1030.0,1041.0,1031.0,1027.0,1034.0,1033.0,1029.0,1042.0,1033.0,1029.0,1038.0,1037.0,1030.0,1045.0,1036.0,1032.0,1040.0,1039.0,1030.0,1046.0,1036.0,1032.0,1036.0,1036.0,1029.0,1040.0,1033.0,1034.0,1036.0,1035.0,1029.0,1037.0,1033.0,1023.0,1023.0,1023.0,1023.0,1024.0,1022.0,1041.0,1042.0,1036.0,1032.0,1038.0,1038.0,1032.0,1035.0,1033.0,1031.0,1035.0,1035.0,1028.0,1031.0,1028.0,1027.0,1030.0,2046,2024,1909,	00:31:21.406,0.05419921875,0.0458984375,1.017578125,-0.18310546875,0.18310546875,0.06103515625,2.603759765625,-3.05419921875,52.0477294921875,439.0,-1577.0,-2570.0,0.897796630859375,0.0321044921875,-0.01397705078125,0.43902587890625,2.6029348953197835,-3.0557080875885885,47.5484941979764,0.9143354760131752,0.031524109132466116,-0.015240935908728642,0.40344092717495933,1,	00:31:21.407,0.02294921875,0.0673828125,1.0048828125,-1.28173828125,-1.3427734375,-0.48828125,3.812255859375,-1.285400390625,129.1058349609375,-415.0,-1276.0,-1935.0,-0.429046630859375,-0.0244140625,-0.02520751953125,-0.902587890625,3.809991708513994,-1.2848862204816434,129.6379483546175,-0.4248804299342905,-0.024284399703120386,-0.025313289940053222,-0.9045695802658424,1
1782117388.635176,0.393,1023.0,1024.0,1023.0,1022.0,1023.0,1024.0,1022.0,1023.0,1023.0,1023.0,1023.0,1024.0,1023.0,1024.0,1023.0,1023.0,1023.0,1023.0,1024.0,1023.0,1024.0,1023.0,1023.0,1024.0,1023.0,1023.0,1024.0,1023.0,1024.0,1024.0,1023.0,1023.0,1022.0,1022.0,1023.0,1023.0,1023.0,1024.0,1023.0,1023.0,1023.0,1022.0,1023.0,1024.0,1023.0,1023.0,1024.0,1023.0,1023.0,1023.0,1023.0,1023.0,1023.0,1023.0,1024.0,1023.0,1024.0,1023.0,1023.0,1023.0,1022.0,1023.0,1023.0,1023.0,1023.0,1023.0,1024.0,1023.0,1023.0,1022.0,1023.0,1023.0,1023.0,1023.0,1024.0,1023.0,1024.0,1023.0,1023.0,1022.0,1022.0,1023.0,1023.0,1024.0,1024.0,1024.0,1024.0,1023.0,1023.0,1024.0,1023.0,1023.0,1024.0,1024.0,1025.0,1024.0,1025.0,1024.0,1024.0,1026.0,1024.0,1023.0,1023.0,1025.0,1025.0,1024.0,1024.0,1024.0,1024.0,1023.0,1023.0,1023.0,1022.0,1023.0,1023.0,1023.0,1024.0,1023.0,1023.0,1021.0,1022.0,1023.0,1024.0,1024.0,1024.0,1024.0,1023.0,1024.0,1023.0,1023.0,1024.0,1023.0,1023.0,1024.0,1023.0,1023.0,1023.0,1024.0,1024.0,1024.0,1024.0,1024.0,1024.0,1023.0,1024.0,1024.0,1024.0,1025.0,1024.0,1024.0,1023.0,1024.0,1024.0,1024.0,1026.0,1025.0,1024.0,1025.0,1024.0,1025.0,1028.0,1025.0,1024.0,1027.0,1026.0,1027.0,1031.0,1028.0,1025.0,1029.0,1028.0,1029.0,1035.0,1029.0,1026.0,1031.0,1032.0,1030.0,1041.0,1031.0,1026.0,1034.0,1033.0,1029.0,1042.0,1034.0,1029.0,1037.0,1036.0,1031.0,1045.0,1036.0,1032.0,1040.0,1039.0,1031.0,1046.0,1036.0,1032.0,1036.0,1036.0,1029.0,1040.0,1033.0,1034.0,1036.0,1036.0,1029.0,1037.0,1033.0,1023.0,1023.0,1023.0,1023.0,1024.0,1022.0,1040.0,1042.0,1037.0,1032.0,1038.0,1038.0,1032.0,1035.0,1033.0,1031.0,1035.0,1035.0,1028.0,1031.0,1027.0,1027.0,1030.0,2046,2024,1908,	00:31:21.416,0.0537109375,0.0458984375,1.017578125,-0.18310546875,0.18310546875,0.06103515625,2.559814453125,-2.9718017578125,52.05322265625,441.0,-1581.0,-2566.0,0.8978271484375,0.03143310546875,-0.013519287109375,0.43902587890625,2.5573115893864875,-2.973554515530118,47.55148788972827,0.914361115653778,0.030871999908030183,-0.014744886643793708,0.4034516800311022,1,	00:31:21.417,0.0234375,0.06884765625,1.00439453125,-1.3427734375,-1.40380859375,-0.48828125,3.878173828125,-1.3348388671875,129.100341796875,-417.0,-1279.0,-1935.0,-0.4290771484375,-0.025054931640625,-0.02557373046875,-0.902557373046875,3.8804815081506363,-1.335255004418821,129.63023262128596,-0.42491071264764163,-0.024944937835845362,-0.025680987755766636,-0.9045270163027345,1
1782117388.645746,0.404,1023.0,1023.0,1023.0,1022.0,1023.0,1022.0,1023.0,1023.0,1022.0,1023.0,1024.0,1023.0,1023.0,1024.0,1023.0,1023.0,1023.0,1024.0,1024.0,1023.0,1024.0,1023.0,1024.0,1023.0,1023.0,1023.0,1024.0,1023.0,1024.0,1023.0,1024.0,1024.0,1023.0,1023.0,1024.0,1024.0,1023.0,1024.0,1023.0,1024.0,1023.0,1023.0,1023.0,1024.0,1023.0,1023.0,1024.0,1023.0,1023.0,1022.0,1022.0,1023.0,1023.0,1023.0,1023.0,1023.0,1024.0,1023.0,1023.0,1023.0,1022.0,1023.0,1022.0,1024.0,1023.0,1023.0,1024.0,1023.0,1023.0,1022.0,1022.0,1023.0,1022.0,1023.0,1023.0,1023.0,1024.0,1023.0,1023.0,1022.0,1023.0,1023.0,1023.0,1024.0,1024.0,1023.0,1024.0,1023.0,1024.0,1024.0,1023.0,1023.0,1023.0,1024.0,1025.0,1024.0,1024.0,1024.0,1025.0,1025.0,1024.0,1024.0,1023.0,1024.0,1024.0,1024.0,1024.0,1024.0,1024.0,1023.0,1023.0,1023.0,1022.0,1024.0,1023.0,1023.0,1024.0,1023.0,1022.0,1021.0,1022.0,1023.0,1024.0,1024.0,1023.0,1024.0,1024.0,1023.0,1022.0,1022.0,1023.0,1023.0,1023.0,1024.0,1023.0,1023.0,1023.0,1024.0,1024.0,1023.0,1025.0,1024.0,1024.0,1023.0,1024.0,1024.0,1023.0,1025.0,1024.0,1024.0,1023.0,1024.0,1024.0,1024.0,1026.0,1025.0,1024.0,1025.0,1024.0,1026.0,1028.0,1026.0,1024.0,1027.0,1026.0,1028.0,1031.0,1028.0,1025.0,1029.0,1029.0,1029.0,1035.0,1029.0,1026.0,1031.0,1032.0,1030.0,1041.0,1031.0,1027.0,1033.0,1033.0,1030.0,1042.0,1034.0,1029.0,1038.0,1036.0,1030.0,1045.0,1036.0,1032.0,1040.0,1040.0,1031.0,1046.0,1036.0,1031.0,1037.0,1035.0,1029.0,1040.0,1033.0,1034.0,1037.0,1035.0,1029.0,1037.0,1033.0,1023.0,1023.0,1023.0,1022.0,1024.0,1022.0,1040.0,1042.0,1036.0,1032.0,1038.0,1038.0,1033.0,1035.0,1032.0,1031.0,1034.0,1035.0,1029.0,1031.0,1027.0,1027.0,1029.0,2046,2024,1909,	00:31:21.426,0.0556640625,0.044921875,1.0185546875,-0.18310546875,0.18310546875,0.06103515625,2.537841796875,-3.0596923828125,52.05322265625,440.0,-1580.0,-2567.0,0.897796630859375,0.031585693359375,-0.0142822265625,0.439056396484375,2.5365173939028467,-3.0613724657414294,47.55317800964766,0.9143354553599476,0.031014676125820737,-0.015518721776134182,0.40346986778564103,1,	00:31:21.427,0.0244140625,0.0673828125,1.00390625,-1.220703125,-1.40380859375,-0.48828125,3.812255859375,-1.4227294921875,129.0948486328125,-416.0,-1276.0,-1939.0,-0.429107666015625,-0.0255126953125,-0.02471923828125,-0.902557373046875,3.8138737079717355,-1.4226050704690698,129.6257308783133,-0.42493382148939,-0.025388173454913832,-0.024829767043153365,-0.9045275953068702,1
1782117388.655455,0.414,1023.0,1024.0,1023.0,1023.0,1023.0,1023.0,1023.0,1024.0,1022.0,1023.0,1023.0,1023.0,1023.0,1024.0,1023.0,1023.0,1023.0,1023.0,1024.0,1023.0,1024.0,1023.0,1024.0,1023.0,1023.0,1024.0,1024.0,1024.0,1024.0,1023.0,1024.0,1023.0,1023.0,1023.0,1024.0,1023.0,1023.0,1024.0,1023.0,1023.0,1023.0,1022.0,1023.0,1023.0,1024.0,1023.0,1023.0,1023.0,1023.0,1022.0,1023.0,1023.0,1023.0,1023.0,1023.0,1023.0,1024.0,1023.0,1024.0,1022.0,1022.0,1024.0,1023.0,1023.0,1023.0,1023.0,1023.0,1023.0,1022.0,1022.0,1022.0,1023.0,1022.0,1023.0,1023.0,1023.0,1024.0,1023.0,1023.0,1022.0,1023.0,1023.0,1023.0,1024.0,1024.0,1023.0,1024.0,1023.0,1024.0,1024.0,1023.0,1024.0,1024.0,1024.0,1026.0,1024.0,1025.0,1024.0,1024.0,1026.0,1024.0,1024.0,1023.0,1024.0,1024.0,1024.0,1025.0,1024.0,1023.0,1023.0,1023.0,1023.0,1022.0,1024.0,1023.0,1023.0,1024.0,1023.0,1023.0,1021.0,1022.0,1023.0,1024.0,1024.0,1023.0,1024.0,1024.0,1024.0,1022.0,1023.0,1024.0,1023.0,1024.0,1024.0,1023.0,1023.0,1023.0,1024.0,1024.0,1024.0,1026.0,1024.0,1024.0,1023.0,1024.0,1024.0,1024.0,1025.0,1024.0,1024.0,1023.0,1024.0,1024.0,1024.0,1026.0,1024.0,1024.0,1025.0,1024.0,1025.0,1028.0,1025.0,1024.0,1026.0,1027.0,1027.0,1030.0,1028.0,1025.0,1029.0,1028.0,1029.0,1034.0,1029.0,1026.0,1031.0,1032.0,1030.0,1041.0,1030.0,1027.0,1033.0,1033.0,1030.0,1042.0,1034.0,1029.0,1038.0,1036.0,1031.0,1045.0,1035.0,1032.0,1040.0,1039.0,1031.0,1046.0,1036.0,1032.0,1037.0,1035.0,1028.0,1040.0,1033.0,1034.0,1036.0,1035.0,1029.0,1037.0,1032.0,1022.0,1023.0,1022.0,1023.0,1024.0,1022.0,1040.0,1042.0,1036.0,1032.0,1038.0,1038.0,1032.0,1036.0,1032.0,1031.0,1035.0,1035.0,1028.0,1031.0,1027.0,1027.0,1030.0,2046,2024,1909,	00:31:21.436,0.0537109375,0.04638671875,1.01806640625,-0.18310546875,0.18310546875,0.06103515625,2.61474609375,-3.01025390625,52.0477294921875,441.0,-1579.0,-2569.0,0.897796630859375,0.032012939453125,-0.01361083984375,0.43902587890625,2.6127897983295383,-3.0114633728691556,47.549729816928874,0.9143413093230417,0.03144755722124722,-0.014852679204828412,0.4034481616399818,1,	00:31:21.437,0.0224609375,0.068359375,1.00537109375,-1.15966796875,-1.40380859375,-0.48828125,3.84521484375,-1.3568115234375,129.08935546875,-416.0,-1274.0,-1934.0,-0.429168701171875,-0.02508544921875,-0.02520751953125,-0.90252685546875,3.844776058465557,-1.3549833120882424,129.61889008519523,-0.4250019101142532,-0.024970714761253603,-0.025323397498580515,-0.9044935407965484,1
1782117388.665114,0.423,1023.0,1023.0,1023.0,1022.0,1023.0,1023.0,1023.0,1023.0,1022.0,1023.0,1023.0,1023.0,1023.0,1024.0,1023.0,1023.0,1023.0,1023.0,1024.0,1023.0,1024.0,1023.0,1024.0,1023.0,1023.0,1023.0,1024.0,1023.0,1024.0,1023.0,1024.0,1023.0,1023.0,1023.0,1023.0,1023.0,1023.0,1024.0,1023.0,1023.0,1023.0,1023.0,1022.0,1023.0,1023.0,1023.0,1024.0,1023.0,1023.0,1023.0,1023.0,1023.0,1022.0,1023.0,1023.0,1023.0,1024.0,1023.0,1023.0,1022.0,1022.0,1023.0,1023.0,1023.0,1024.0,1023.0,1023.0,1023.0,1022.0,1022.0,1022.0,1023.0,1022.0,1024.0,1023.0,1024.0,1024.0,1023.0,1023.0,1022.0,1022.0,1023.0,1022.0,1023.0,1024.0,1024.0,1024.0,1024.0,1024.0,1024.0,1023.0,1023.0,1024.0,1024.0,1025.0,1024.0,1025.0,1024.0,1025.0,1025.0,1024.0,1023.0,1023.0,1024.0,1024.0,1024.0,1024.0,1024.0,1024.0,1023.0,1023.0,1023.0,1022.0,1024.0,1023.0,1023.0,1024.0,1023.0,1022.0,1021.0,1022.0,1023.0,1023.0,1023.0,1023.0,1024.0,1023.0,1023.0,1023.0,1023.0,1023.0,1023.0,1023.0,1024.0,1023.0,1023.0,1023.0,1024.0,1024.0,1024.0,1025.0,1024.0,1023.0,1023.0,1024.0,1024.0,1024.0,1025.0,1024.0,1024.0,1024.0,1024.0,1024.0,1024.0,1026.0,1024.0,1024.0,1025.0,1025.0,1025.0,1028.0,1026.0,1024.0,1027.0,1026.0,1027.0,1031.0,1028.0,1025.0,1029.0,1028.0,1029.0,1035.0,1029.0,1026.0,1032.0,1031.0,1030.0,1041.0,1030.0,1027.0,1033.0,1033.0,1030.0,1042.0,1034.0,1029.0,1038.0,1036.0,1030.0,1044.0,1036.0,1032.0,1040.0,1039.0,1031.0,1046.0,1036.0,1032.0,1036.0,1036.0,1029.0,1040.0,1034.0,1034.0,1036.0,1035.0,1029.0,1036.0,1033.0,1023.0,1023.0,1023.0,1023.0,1024.0,1022.0,1041.0,1042.0,1036.0,1032.0,1037.0,1038.0,1033.0,1036.0,1032.0,1031.0,1035.0,1035.0,1029.0,1030.0,1027.0,1027.0,1030.0,2046,2024,1910,	00:31:21.446,0.05419921875,0.04541015625,1.0166015625,-0.18310546875,0.18310546875,0.0,2.5323486328125,-3.0596923828125,52.05322265625,440.0,-1581.0,-2569.0,0.897796630859375,0.031585693359375,-0.0142822265625,0.439056396484375,2.5349303394957032,-3.06101577616293,47.55384100419939,0.9143336542544641,0.031000850172283795,-0.015521282794302082,0.40347491342919106,1,	00:31:21.448,0.02392578125,0.068359375,1.0048828125,-1.15966796875,-1.46484375,-0.42724609375,3.922119140625,-1.3787841796875,129.0838623046875,-417.0,-1278.0,-1934.0,-0.42919921875,-0.02557373046875,-0.025726318359375,-0.9024658203125,3.924087519717101,-1.380534676092798,129.61147942216687,-0.4250349775780528,-0.02546813482002428,-0.025852839160987223,-0.9044491542653624,1
1782117388.675887,0.434,1023.0,1023.0,1023.0,1023.0,1023.0,1023.0,1023.0,1024.0,1023.0,1023.0,1024.0,1023.0,1023.0,1024.0,1023.0,1024.0,1022.0,1023.0,1023.0,1023.0,1024.0,1023.0,1023.0,1024.0,1023.0,1024.0,1024.0,1023.0,1024.0,1023.0,1023.0,1023.0,1023.0,1023.0,1024.0,1024.0,1023.0,1024.0,1023.0,1023.0,1023.0,1022.0,1023.0,1024.0,1023.0,1023.0,1024.0,1023.0,1022.0,1022.0,1023.0,1023.0,1023.0,1024.0,1024.0,1023.0,1024.0,1023.0,1023.0,1023.0,1022.0,1023.0,1023.0,1024.0,1023.0,1023.0,1024.0,1023.0,1023.0,1022.0,1022.0,1024.0,1023.0,1024.0,1023.0,1023.0,1024.0,1023.0,1023.0,1022.0,1022.0,1024.0,1023.0,1024.0,1024.0,1024.0,1024.0,1024.0,1024.0,1024.0,1023.0,1023.0,1024.0,1025.0,1026.0,1024.0,1025.0,1024.0,1024.0,1026.0,1023.0,1023.0,1023.0,1024.0,1024.0,1024.0,1024.0,1024.0,1024.0,1024.0,1023.0,1023.0,1022.0,1024.0,1024.0,1023.0,1024.0,1023.0,1023.0,1021.0,1022.0,1023.0,1024.0,1023.0,1023.0,1024.0,1023.0,1023.0,1023.0,1023.0,1024.0,1024.0,1023.0,1024.0,1023.0,1023.0,1023.0,1024.0,1024.0,1024.0,1025.0,1024.0,1024.0,1023.0,1024.0,1024.0,1024.0,1025.0,1023.0,1024.0,1024.0,1024.0,1024.0,1024.0,1026.0,1024.0,1024.0,1025.0,1024.0,1025.0,1028.0,1026.0,1025.0,1027.0,1026.0,1027.0,1030.0,1028.0,1024.0,1028.0,1028.0,1029.0,1034.0,1030.0,1026.0,1031.0,1032.0,1029.0,1041.0,1031.0,1027.0,1034.0,1033.0,1029.0,1042.0,1034.0,1029.0,1037.0,1036.0,1030.0,1045.0,1036.0,1032.0,1040.0,1039.0,1030.0,1046.0,1036.0,1031.0,1036.0,1036.0,1029.0,1040.0,1033.0,1034.0,1037.0,1035.0,1029.0,1037.0,1033.0,1023.0,1024.0,1023.0,1023.0,1024.0,1022.0,1041.0,1042.0,1036.0,1032.0,1038.0,1038.0,1033.0,1036.0,1032.0,1030.0,1034.0,1035.0,1028.0,1031.0,1027.0,1027.0,1030.0,2046,2024,1909,	00:31:21.457,0.0546875,0.04638671875,1.01806640625,-0.18310546875,0.18310546875,0.06103515625,2.625732421875,-3.0706787109375,52.0477294921875,439.0,-1580.0,-2566.0,0.89776611328125,0.032318115234375,-0.0140380859375,0.43902587890625,2.6238088170490967,-3.0722451136245743,47.54967820129458,0.9143206884575327,0.03174888193535034,-0.015299137416723172,0.4034546115100223,1,	00:31:21.458,0.0244140625,0.06689453125,1.0048828125,-1.15966796875,-1.46484375,-0.48828125,3.8232421875,-1.4007568359375,129.078369140625,-416.0,-1274.0,-1937.0,-0.42926025390625,-0.025360107421875,-0.02484130859375,-0.902496337890625,3.8213565961881177,-1.40125439971686,129.60782119954953,-0.4250801246452379,-0.025251357944713285,-0.0249641992417351,-0.9044589793405535,1
1782117388.688379,0.447,1024.0,1023.0,1023.0,1023.0,1023.0,1023.0,1023.0,1023.0,1023.0,1023.0,1023.0,1024.0,1023.0,1023.0,1023.0,1023.0,1023.0,1023.0,1024.0,1024.0,1024.0,1023.0,1023.0,1024.0,1023.0,1023.0,1024.0,1023.0,1024.0,1023.0,1024.0,1024.0,1023.0,1023.0,1023.0,1023.0,1023.0,1023.0,1023.0,1024.0,1023.0,1023.0,1023.0,1023.0,1023.0,1023.0,1024.0,1023.0,1023.0,1023.0,1023.0,1023.0,1023.0,1023.0,1024.0,1023.0,1024.0,1023.0,1023.0,1023.0,1022.0,1023.0,1023.0,1024.0,1023.0,1023.0,1024.0,1023.0,1023.0,1022.0,1023.0,1023.0,1023.0,1023.0,1023.0,1023.0,1024.0,1023.0,1023.0,1022.0,1023.0,1023.0,1023.0,1024.0,1024.0,1023.0,1024.0,1023.0,1024.0,1024.0,1023.0,1023.0,1024.0,1024.0,1025.0,1024.0,1025.0,1024.0,1024.0,1026.0,1024.0,1023.0,1023.0,1024.0,1024.0,1024.0,1025.0,1024.0,1024.0,1024.0,1023.0,1024.0,1022.0,1023.0,1023.0,1023.0,1024.0,1023.0,1023.0,1021.0,1022.0,1023.0,1024.0,1023.0,1023.0,1024.0,1023.0,1023.0,1023.0,1023.0,1024.0,1023.0,1023.0,1024.0,1024.0,1023.0,1023.0,1024.0,1024.0,1023.0,1025.0,1024.0,1024.0,1023.0,1024.0,1023.0,1024.0,1025.0,1024.0,1024.0,1023.0,1025.0,1024.0,1024.0,1026.0,1025.0,1024.0,1025.0,1024.0,1025.0,1028.0,1026.0,1024.0,1027.0,1027.0,1027.0,1031.0,1028.0,1025.0,1029.0,1028.0,1028.0,1034.0,1029.0,1026.0,1032.0,1031.0,1030.0,1042.0,1031.0,1027.0,1033.0,1032.0,1030.0,1042.0,1034.0,1029.0,1038.0,1036.0,1030.0,1046.0,1036.0,1032.0,1040.0,1039.0,1031.0,1047.0,1036.0,1032.0,1036.0,1036.0,1029.0,1041.0,1033.0,1034.0,1036.0,1036.0,1029.0,1037.0,1033.0,1023.0,1024.0,1023.0,1022.0,1024.0,1022.0,1040.0,1042.0,1037.0,1032.0,1038.0,1038.0,1033.0,1036.0,1032.0,1031.0,1035.0,1035.0,1029.0,1031.0,1027.0,1027.0,1031.0,2046,2024,1909,	00:31:21.467,0.0546875,0.044921875,1.0185546875,-0.18310546875,0.1220703125,0.06103515625,2.5323486328125,-3.0706787109375,52.05322265625,438.0,-1580.0,-2568.0,0.897796630859375,0.031585693359375,-0.014373779296875,0.439056396484375,2.5302508794901524,-3.0692924348223323,47.55525656447064,0.914327525140461,0.030992769068518722,-0.015603450628978825,0.4034862542447441,1,	00:31:21.468,0.02392578125,0.06884765625,1.00439453125,-1.15966796875,-1.46484375,-0.48828125,3.8946533203125,-1.38427734375,129.0673828125,-416.0,-1277.0,-1939.0,-0.4293212890625,-0.025482177734375,-0.0255126953125,-0.902435302734375,3.894952394301528,-1.3816189618043109,129.5999042979865,-0.42513245842746356,-0.02537121053707135,-0.025616288886001315,-0.9044127930381202,1
1782117388.696452,0.455,1024.0,1024.0,1023.0,1022.0,1023.0,1023.0,1023.0,1024.0,1022.0,1023.0,1023.0,1023.0,1023.0,1024.0,1023.0,1023.0,1023.0,1023.0,1024.0,1023.0,1023.0,1023.0,1024.0,1024.0,1023.0,1024.0,1024.0,1023.0,1024.0,1024.0,1024.0,1023.0,1023.0,1023.0,1024.0,1023.0,1023.0,1024.0,1023.0,1024.0,1022.0,1022.0,1023.0,1024.0,1023.0,1023.0,1024.0,1023.0,1024.0,1023.0,1022.0,1023.0,1023.0,1023.0,1023.0,1023.0,1024.0,1023.0,1023.0,1022.0,1022.0,1023.0,1023.0,1024.0,1023.0,1022.0,1024.0,1023.0,1022.0,1022.0,1023.0,1023.0,1023.0,1023.0,1023.0,1023.0,1024.0,1023.0,1023.0,1022.0,1023.0,1023.0,1023.0,1024.0,1024.0,1023.0,1024.0,1024.0,1023.0,1024.0,1023.0,1024.0,1024.0,1024.0,1025.0,1024.0,1025.0,1024.0,1024.0,1026.0,1024.0,1023.0,1023.0,1024.0,1024.0,1024.0,1025.0,1024.0,1024.0,1023.0,1023.0,1024.0,1023.0,1023.0,1023.0,1023.0,1024.0,1023.0,1023.0,1020.0,1022.0,1023.0,1024.0,1023.0,1023.0,1024.0,1024.0,1024.0,1022.0,1023.0,1023.0,1024.0,1023.0,1024.0,1023.0,1023.0,1023.0,1024.0,1024.0,1024.0,1025.0,1024.0,1024.0,1023.0,1024.0,1024.0,1024.0,1025.0,1024.0,1024.0,1023.0,1024.0,1024.0,1024.0,1026.0,1024.0,1024.0,1025.0,1025.0,1025.0,1028.0,1027.0,1024.0,1027.0,1026.0,1028.0,1031.0,1027.0,1025.0,1029.0,1028.0,1029.0,1034.0,1029.0,1025.0,1031.0,1031.0,1030.0,1041.0,1031.0,1027.0,1033.0,1033.0,1031.0,1042.0,1033.0,1029.0,1037.0,1036.0,1030.0,1046.0,1036.0,1032.0,1040.0,1039.0,1031.0,1047.0,1036.0,1031.0,1036.0,1035.0,1029.0,1040.0,1034.0,1034.0,1036.0,1035.0,1029.0,1037.0,1033.0,1023.0,1023.0,1023.0,1023.0,1024.0,1023.0,1041.0,1041.0,1036.0,1032.0,1038.0,1038.0,1033.0,1035.0,1032.0,1031.0,1035.0,1035.0,1029.0,1031.0,1027.0,1027.0,1031.0,2046,2024,1909,	00:31:21.477,0.0546875,0.04638671875,1.01708984375,-0.244140625,0.18310546875,0.06103515625,2.6202392578125,-3.076171875,52.05322265625,439.0,-1579.0,-2568.0,0.89776611328125,0.03228759765625,-0.014068603515625,0.439056396484375,2.6192768942044595,-3.073438345668835,47.551045428332024,0.914316778217343,0.03171709420380313,-0.015324240898074486,0.4034650203504915,1,	00:31:21.478,0.0234375,0.068359375,1.0048828125,-1.15966796875,-1.3427734375,-0.42724609375,3.878173828125,-1.3018798828125,129.0673828125,-415.0,-1276.0,-1937.0,-0.42938232421875,-0.024810791015625,-0.025665283203125,-0.902435302734375,3.877313217126037,-1.303296018697481,129.5948646147224,-0.42520046168065884,-0.024688968238148836,-0.025767063539738257,-0.9043954227385438,1
1782117388.706552,0.465,1023.0,1024.0,1023.0,1023.0,1023.0,1023.0,1023.0,1024.0,1023.0,1023.0,1023.0,1023.0,1023.0,1024.0,1023.0,1023.0,1023.0,1024.0,1024.0,1023.0,1025.0,1023.0,1024.0,1023.0,1023.0,1024.0,1024.0,1023.0,1024.0,1023.0,1024.0,1024.0,1023.0,1023.0,1024.0,1023.0,1023.0,1024.0,1023.0,1023.0,1023.0,1022.0,1022.0,1024.0,1023.0,1023.0,1024.0,1023.0,1023.0,1023.0,1022.0,1023.0,1023.0,1023.0,1023.0,1023.0,1024.0,1023.0,1023.0,1022.0,1023.0,1024.0,1023.0,1024.0,1023.0,1023.0,1024.0,1024.0,1024.0,1023.0,1023.0,1023.0,1023.0,1023.0,1024.0,1023.0,1024.0,1023.0,1023.0,1022.0,1022.0,1024.0,1023.0,1024.0,1024.0,1023.0,1024.0,1024.0,1024.0,1024.0,1023.0,1024.0,1024.0,1024.0,1025.0,1024.0,1024.0,1024.0,1024.0,1025.0,1024.0,1024.0,1023.0,1024.0,1024.0,1024.0,1025.0,1024.0,1024.0,1023.0,1023.0,1024.0,1022.0,1023.0,1023.0,1023.0,1024.0,1023.0,1023.0,1021.0,1022.0,1022.0,1023.0,1024.0,1023.0,1024.0,1023.0,1023.0,1023.0,1023.0,1023.0,1023.0,1023.0,1024.0,1023.0,1023.0,1024.0,1024.0,1024.0,1023.0,1025.0,1024.0,1024.0,1023.0,1024.0,1024.0,1024.0,1025.0,1024.0,1024.0,1023.0,1024.0,1023.0,1024.0,1026.0,1024.0,1023.0,1025.0,1025.0,1025.0,1028.0,1027.0,1025.0,1026.0,1026.0,1027.0,1031.0,1028.0,1025.0,1028.0,1028.0,1029.0,1035.0,1029.0,1025.0,1030.0,1031.0,1030.0,1041.0,1031.0,1027.0,1033.0,1033.0,1030.0,1042.0,1034.0,1029.0,1037.0,1037.0,1031.0,1045.0,1036.0,1032.0,1040.0,1040.0,1032.0,1047.0,1036.0,1032.0,1036.0,1036.0,1029.0,1040.0,1033.0,1034.0,1036.0,1035.0,1030.0,1037.0,1033.0,1023.0,1023.0,1023.0,1022.0,1024.0,1023.0,1040.0,1042.0,1036.0,1032.0,1039.0,1037.0,1033.0,1035.0,1032.0,1030.0,1035.0,1035.0,1029.0,1031.0,1028.0,1027.0,1031.0,2046,2024,1909,	00:31:21.487,0.05322265625,0.04541015625,1.01708984375,-0.244140625,0.18310546875,0.06103515625,2.559814453125,-2.999267578125,52.05322265625,440.0,-1579.0,-2568.0,0.897796630859375,0.03155517578125,-0.013702392578125,0.439056396484375,2.560667018352099,-2.999375744422395,47.554711550939984,0.9143414596511151,0.0309898652259016,-0.014938341357968211,0.4034800730814613,1,	00:31:21.489,0.02392578125,0.06689453125,1.00537109375,-1.03759765625,-1.3427734375,-0.48828125,3.7957763671875,-1.373291015625,129.0618896484375,-416.0,-1276.0,-1934.0,-0.429412841796875,-0.025054931640625,-0.024749755859375,-0.902435302734375,3.795753489396412,-1.3738878896345235,129.59075559630546,-0.42522883547225226,-0.024944163908920784,-0.0248600938610712,-0.9044004654482526,1
1782117388.717288,0.476,1023.0,1024.0,1023.0,1023.0,1022.0,1023.0,1023.0,1023.0,1023.0,1023.0,1024.0,1023.0,1023.0,1024.0,1023.0,1023.0,1023.0,1024.0,1024.0,1023.0,1024.0,1023.0,1023.0,1024.0,1023.0,1024.0,1024.0,1023.0,1024.0,1023.0,1023.0,1024.0,1023.0,1022.0,1024.0,1023.0,1023.0,1024.0,1023.0,1023.0,1022.0,1022.0,1023.0,1023.0,1023.0,1023.0,1023.0,1023.0,1024.0,1023.0,1022.0,1023.0,1023.0,1023.0,1023.0,1023.0,1024.0,1023.0,1023.0,1022.0,1023.0,1024.0,1023.0,1024.0,1024.0,1023.0,1024.0,1023.0,1023.0,1022.0,1023.0,1023.0,1023.0,1024.0,1023.0,1023.0,1024.0,1023.0,1023.0,1022.0,1023.0,1023.0,1024.0,1024.0,1023.0,1024.0,1024.0,1023.0,1023.0,1024.0,1023.0,1024.0,1024.0,1024.0,1025.0,1024.0,1025.0,1024.0,1025.0,1025.0,1024.0,1024.0,1023.0,1024.0,1024.0,1024.0,1025.0,1024.0,1024.0,1023.0,1023.0,1023.0,1022.0,1023.0,1023.0,1023.0,1024.0,1023.0,1023.0,1021.0,1022.0,1023.0,1023.0,1024.0,1024.0,1024.0,1023.0,1023.0,1023.0,1023.0,1024.0,1023.0,1023.0,1024.0,1023.0,1023.0,1023.0,1024.0,1024.0,1024.0,1025.0,1024.0,1024.0,1023.0,1024.0,1024.0,1024.0,1025.0,1024.0,1024.0,1023.0,1024.0,1024.0,1024.0,1026.0,1025.0,1023.0,1025.0,1025.0,1026.0,1028.0,1026.0,1024.0,1026.0,1026.0,1027.0,1030.0,1028.0,1025.0,1028.0,1028.0,1029.0,1034.0,1029.0,1026.0,1030.0,1031.0,1030.0,1042.0,1031.0,1027.0,1034.0,1033.0,1030.0,1042.0,1034.0,1029.0,1038.0,1036.0,1031.0,1045.0,1036.0,1032.0,1040.0,1040.0,1032.0,1047.0,1036.0,1031.0,1036.0,1036.0,1029.0,1041.0,1033.0,1034.0,1036.0,1035.0,1029.0,1038.0,1033.0,1023.0,1023.0,1022.0,1022.0,1024.0,1022.0,1040.0,1042.0,1036.0,1032.0,1038.0,1038.0,1032.0,1035.0,1032.0,1030.0,1035.0,1035.0,1029.0,1030.0,1027.0,1027.0,1030.0,2046,2024,1908,	00:31:21.498,0.05419921875,0.04541015625,1.017578125,-0.18310546875,0.18310546875,0.1220703125,2.548828125,-3.087158203125,52.0587158203125,438.0,-1581.0,-2566.0,0.89776611328125,0.03179931640625,-0.01446533203125,0.4390869140625,2.5480071601463745,-3.088538578339019,47.55658746904459,0.9143123922253216,0.03120221274046099,-0.01569421157630001,0.40350088360040404,1,	00:31:21.499,0.0234375,0.06884765625,1.00439453125,-1.0986328125,-1.3427734375,-0.48828125,3.8726806640625,-1.3568115234375,129.0509033203125,-414.0,-1274.0,-1937.0,-0.429443359375,-0.025238037109375,-0.025390625,-0.902374267578125,3.872081858559588,-1.3589980836518671,129.58291291172944,-0.4252786523875229,-0.025111676448254742,-0.02551612869477158,-0.9043541334598093,1
1782117388.727644,0.486,1023.0,1023.0,1022.0,1022.0,1022.0,1022.0,1023.0,1024.0,1022.0,1023.0,1023.0,1024.0,1023.0,1023.0,1023.0,1023.0,1023.0,1023.0,1023.0,1023.0,1024.0,1023.0,1024.0,1024.0,1023.0,1024.0,1024.0,1023.0,1024.0,1023.0,1023.0,1024.0,1023.0,1023.0,1023.0,1023.0,1023.0,1024.0,1023.0,1023.0,1022.0,1023.0,1022.0,1024.0,1023.0,1024.0,1024.0,1023.0,1024.0,1022.0,1022.0,1023.0,1023.0,1024.0,1023.0,1023.0,1024.0,1023.0,1023.0,1022.0,1022.0,1023.0,1023.0,1024.0,1023.0,1023.0,1024.0,1023.0,1023.0,1022.0,1023.0,1023.0,1023.0,1023.0,1023.0,1023.0,1024.0,1023.0,1022.0,1022.0,1023.0,1024.0,1024.0,1023.0,1024.0,1023.0,1024.0,1023.0,1024.0,1024.0,1023.0,1023.0,1024.0,1024.0,1025.0,1024.0,1025.0,1024.0,1024.0,1026.0,1024.0,1023.0,1023.0,1024.0,1024.0,1024.0,1025.0,1024.0,1024.0,1023.0,1023.0,1023.0,1022.0,1024.0,1023.0,1023.0,1024.0,1022.0,1022.0,1021.0,1023.0,1023.0,1024.0,1023.0,1023.0,1024.0,1024.0,1023.0,1023.0,1023.0,1024.0,1023.0,1023.0,1024.0,1024.0,1023.0,1024.0,1024.0,1023.0,1024.0,1025.0,1024.0,1023.0,1023.0,1024.0,1024.0,1024.0,1025.0,1024.0,1024.0,1024.0,1024.0,1024.0,1024.0,1026.0,1024.0,1024.0,1025.0,1025.0,1026.0,1028.0,1026.0,1024.0,1027.0,1026.0,1027.0,1031.0,1028.0,1025.0,1028.0,1028.0,1029.0,1035.0,1029.0,1026.0,1030.0,1032.0,1030.0,1041.0,1031.0,1027.0,1033.0,1033.0,1030.0,1042.0,1033.0,1029.0,1037.0,1036.0,1031.0,1045.0,1036.0,1032.0,1040.0,1039.0,1031.0,1046.0,1036.0,1031.0,1036.0,1036.0,1029.0,1040.0,1033.0,1034.0,1036.0,1036.0,1029.0,1038.0,1033.0,1023.0,1024.0,1023.0,1022.0,1024.0,1022.0,1040.0,1041.0,1037.0,1032.0,1039.0,1038.0,1033.0,1036.0,1032.0,1031.0,1036.0,1034.0,1029.0,1031.0,1027.0,1027.0,1031.0,2046,2024,1909,	00:31:21.508,0.05419921875,0.046875,1.017578125,-0.18310546875,0.18310546875,0.06103515625,2.6312255859375,-3.0487060546875,52.05322265625,440.0,-1578.0,-2571.0,0.89776611328125,0.032257080078125,-0.013824462890625,0.439056396484375,2.628885153022351,-3.047062320729072,47.55285055180126,0.9143155108964255,0.03170138592678675,-0.0150793456484788,0.40347835381757874,1,	00:31:21.509,0.02392578125,0.06689453125,1.0048828125,-1.0986328125,-1.3427734375,-0.48828125,3.768310546875,-1.373291015625,129.0509033203125,-415.0,-1278.0,-1936.0,-0.42950439453125,-0.02496337890625,-0.0245361328125,-0.902374267578125,3.769773851041231,-1.374831501326532,129.57931577311416,-0.4253244785945691,-0.024857662960967628,-0.02464906302153871,-0.904363648203828,1
1782117388.738026,0.496,1023.0,1023.0,1023.0,1023.0,1023.0,1023.0,1023.0,1024.0,1022.0,1023.0,1023.0,1023.0,1023.0,1024.0,1023.0,1024.0,1023.0,1024.0,1023.0,1023.0,1024.0,1023.0,1023.0,1023.0,1023.0,1024.0,1023.0,1023.0,1024.0,1023.0,1024.0,1023.0,1023.0,1023.0,1023.0,1023.0,1024.0,1024.0,1023.0,1023.0,1023.0,1023.0,1022.0,1023.0,1023.0,1023.0,1024.0,1023.0,1023.0,1022.0,1023.0,1023.0,1023.0,1023.0,1022.0,1024.0,1024.0,1023.0,1023.0,1022.0,1023.0,1023.0,1023.0,1024.0,1023.0,1023.0,1023.0,1023.0,1023.0,1022.0,1022.0,1023.0,1023.0,1023.0,1023.0,1023.0,1024.0,1023.0,1023.0,1022.0,1023.0,1023.0,1023.0,1024.0,1024.0,1023.0,1024.0,1024.0,1023.0,1024.0,1023.0,1023.0,1024.0,1024.0,1025.0,1024.0,1025.0,1024.0,1024.0,1026.0,1024.0,1024.0,1023.0,1024.0,1024.0,1024.0,1025.0,1024.0,1024.0,1023.0,1023.0,1023.0,1022.0,1023.0,1023.0,1023.0,1024.0,1023.0,1022.0,1021.0,1022.0,1023.0,1023.0,1023.0,1023.0,1024.0,1023.0,1023.0,1023.0,1023.0,1024.0,1023.0,1023.0,1024.0,1023.0,1023.0,1023.0,1024.0,1024.0,1024.0,1025.0,1024.0,1024.0,1023.0,1024.0,1024.0,1024.0,1025.0,1024.0,1024.0,1023.0,1024.0,1024.0,1024.0,1026.0,1024.0,1024.0,1025.0,1025.0,1026.0,1028.0,1026.0,1024.0,1027.0,1026.0,1027.0,1031.0,1028.0,1025.0,1029.0,1027.0,1029.0,1035.0,1029.0,1026.0,1031.0,1032.0,1030.0,1042.0,1031.0,1026.0,1033.0,1032.0,1030.0,1042.0,1033.0,1029.0,1038.0,1036.0,1031.0,1045.0,1036.0,1032.0,1040.0,1039.0,1031.0,1046.0,1036.0,1032.0,1036.0,1036.0,1029.0,1041.0,1034.0,1035.0,1036.0,1035.0,1029.0,1038.0,1033.0,1022.0,1023.0,1023.0,1022.0,1024.0,1022.0,1041.0,1042.0,1037.0,1032.0,1038.0,1039.0,1033.0,1036.0,1032.0,1030.0,1035.0,1035.0,1028.0,1031.0,1028.0,1026.0,1031.0,2047,2024,1909,	00:31:21.518,0.05419921875,0.04541015625,1.01806640625,-0.244140625,0.18310546875,0.06103515625,2.5323486328125,-3.043212890625,52.0587158203125,438.0,-1579.0,-2566.0,0.89776611328125,0.031524658203125,-0.014129638671875,0.4390869140625,2.5347638126792416,-3.041980514310808,47.55841247641836,0.9143231299485378,0.03093329093441223,-0.0153686721348539,0.4035097885676226,1,	00:31:21.519,0.0234375,0.06689453125,1.005859375,-1.03759765625,-1.40380859375,-0.48828125,3.8177490234375,-1.318359375,129.0399169921875,-416.0,-1279.0,-1934.0,-0.4295654296875,-0.024688720703125,-0.025115966796875,-0.90234375,3.817491927433624,-1.317508471784295,129.57215234687706,-0.4253881984852682,-0.024584127060848247,-0.025237234864300132,-0.9043249323459561,1
