Unix_Time_s,RelativeTime_s,P_1,P_2,P_3,P_4,P_5,P_6,P_7,P_8,P_9,P_10,P_11,P_12,P_13,P_14,P_15,P_16,P_17,P_18,P_19,P_20,P_21,P_22,P_23,P_24,P_25,P_26,P_27,P_28,P_29,P_30,P_31,P_32,P_33,P_34,P_35,P_36,P_37,P_38,P_39,P_40,P_41,P_42,P_43,P_44,P_45,P_46,P_47,P_48,P_49,P_50,P_51,P_52,P_53,P_54,P_55,P_56,P_57,P_58,P_59,P_60,P_61,P_62,P_63,P_64,P_65,P_66,P_67,P_68,P_69,P_70,P_71,P_72,P_73,P_74,P_75,P_76,P_77,P_78,P_79,P_80,P_81,P_82,P_83,P_84,P_85,P_86,P_87,P_88,P_89,P_90,P_91,P_92,P_93,P_94,P_95,P_96,P_97,P_98,P_99,P_100,P_101,P_102,P_103,P_104,P_105,P_106,P_107,P_108,P_109,P_110,P_111,P_112,P_113,P_114,P_115,P_116,P_117,P_118,P_119,P_120,P_121,P_122,P_123,P_124,P_125,P_126,P_127,P_128,P_129,P_130,P_131,P_132,P_133,P_134,P_135,P_136,P_137,P_138,P_139,P_140,P_141,P_142,P_143,P_144,P_145,P_146,P_147,P_148,P_149,P_150,P_151,P_152,P_153,P_154,P_155,P_156,P_157,P_158,P_159,P_160,P_161,P_162,P_163,P_164,P_165,P_166,P_167,P_168,P_169,P_170,P_171,P_172,P_173,P_174,P_175,P_176,P_177,P_178,P_179,P_180,P_181,P_182,P_183,P_184,P_185,P_186,P_187,P_188,P_189,P_190,P_191,P_192,P_193,P_194,P_195,P_196,P_197,P_198,P_199,P_200,P_201,P_202,P_203,P_204,P_205,P_206,P_207,P_208,P_209,P_210,P_211,P_212,P_213,P_214,P_215,P_216,P_217,P_218,P_219,P_220,P_221,P_222,P_223,P_224,P_225,P_226,P_227,P_228,P_229,P_230,P_231,P_232,P_233,Flex1,Flex2,Bat,IMU1_RefTime,IMU1_Ax,IMU1_Ay,IMU1_Az,IMU1_Wx,IMU1_Wy,IMU1_Wz,IMU1_Roll,IMU1_Pitch,IMU1_Yaw,IMU1_Hx,IMU1_Hy,IMU1_Hz,IMU1_Q0,IMU1_Q1,IMU1_Q2,IMU1_Q3,IMU2_RefTime,IMU2_Ax,IMU2_Ay,IMU2_Az,IMU2_Wx,IMU2_Wy,IMU2_Wz,IMU2_Roll,IMU2_Pitch,IMU2_Yaw,IMU2_Hx,IMU2_Hy,IMU2_Hz,IMU2_Q0,IMU2_Q1,IMU2_Q2,IMU2_Q3,IMU1_FusedRoll,IMU1_FusedPitch,IMU1_FusedYaw,IMU1_FusedQ0,IMU1_FusedQ1,IMU1_FusedQ2,IMU1_FusedQ3,IMU1_MagValid,IMU2_FusedRoll,IMU2_FusedPitch,IMU2_FusedYaw,IMU2_FusedQ0,IMU2_FusedQ1,IMU2_FusedQ2,IMU2_FusedQ3,IMU2_MagValid
1782117388.252362,0.011,1020.0,1024.0,1021.0,1022.0,1022.0,1024.0,1021.0,1022.0,1007.0,1022.0,1023.0,1025.0,1021.0,1021.0,1006.0,1020.0,1022.0,1023.0,1024.0,1022.0,1022.0,1007.0,1020.0,1021.0,1023.0,1023.0,1025.0,1022.0,1022.0,1006.0,1020.0,1020.0,1020.0,1022.0,1023.0,1025.0,1022.0,1021.0,1007.0,1020.0,1020.0,1021.0,1023.0,1023.0,1025.0,1022.0,1022.0,1007.0,1020.0,1020.0,1021.0,1019.0,1023.0,1023.0,1025.0,1022.0,1022.0,1007.0,1019.0,1020.0,1021.0,1019.0,1023.0,1023.0,1025.0,1022.0,1023.0,1007.0,1019.0,1021.0,1021.0,1020.0,1023.0,1024.0,1024.0,1021.0,1023.0,1007.0,1019.0,1021.0,1021.0,1019.0,1023.0,1023.0,1025.0,1022.0,1023.0,1007.0,1020.0,1020.0,1021.0,1019.0,1023.0,1023.0,1025.0,1021.0,1023.0,1007.0,1019.0,1020.0,1021.0,1019.0,1024.0,1023.0,1025.0,1022.0,1022.0,1008.0,1019.0,1020.0,1021.0,1019.0,1024.0,1023.0,1026.0,1023.0,1024.0,1008.0,1020.0,1022.0,1022.0,1024.0,1024.0,1026.0,1022.0,1024.0,1009.0,1020.0,1022.0,1024.0,1024.0,1025.0,1022.0,1023.0,1008.0,1020.0,1024.0,1024.0,1026.0,1022.0,1025.0,1009.0,1020.0,1024.0,1024.0,1026.0,1022.0,1024.0,1009.0,1020.0,1024.0,1024.0,1026.0,1023.0,1024.0,1009.0,1023.0,1024.0,1025.0,1022.0,1022.0,1009.0,1024.0,1024.0,1027.0,1022.0,1024.0,1009.0,1025.0,1026.0,1028.0,1024.0,1026.0,1011.0,1024.0,1024.0,1026.0,1022.0,1023.0,1010.0,1025.0,1027.0,1028.0,1023.0,1025.0,1012.0,1027.0,1028.0,1030.0,1025.0,1027.0,1014.0,1027.0,1029.0,1030.0,1025.0,1027.0,1015.0,1029.0,1030.0,1032.0,1025.0,1028.0,1017.0,1035.0,1033.0,1035.0,1027.0,1028.0,1021.0,1039.0,1037.0,1042.0,1031.0,1029.0,1028.0,1038.0,1036.0,1041.0,1029.0,1027.0,1029.0,1044.0,1040.0,1059.0,1035.0,1031.0,1110.0,1041.0,1039.0,1057.0,1033.0,1031.0,2282,2219,1901,	00:31:19.124,-0.0107421875,0.06396484375,1.0205078125,0.0,0.3662109375,0.1220703125,3.6309814453125,0.5657958984375,-50.108642578125,35.0,-478.0,-4088.0,-0.9053955078125,-0.030792236328125,0.0089111328125,0.423370361328125,3.6302483129250116,0.5677794970596644,-54.31301988937757,-0.8892340742338606,-0.030442882345866208,0.01005044832630437,0.4563277118742243,1,	00:31:19.125,0.0224609375,0.044921875,1.021484375,-0.244140625,0.1220703125,0.48828125,2.5103759765625,-1.2469482421875,99.7064208984375,-64.0,735.0,-1802.0,0.644378662109375,0.022430419921875,0.009735107421875,0.764312744140625,2.5123508866410496,-1.2458307205070671,93.20263318432023,0.6866919226627647,0.022958898897088503,0.008460001127364154,0.7265366616297306,1
1782117388.262113,0.020,1020.0,1024.0,1021.0,1021.0,1023.0,1025.0,1021.0,1022.0,1007.0,1022.0,1023.0,1025.0,1021.0,1022.0,1006.0,1020.0,1023.0,1023.0,1024.0,1022.0,1022.0,1007.0,1020.0,1020.0,1023.0,1022.0,1025.0,1022.0,1021.0,1007.0,1020.0,1020.0,1020.0,1023.0,1023.0,1025.0,1022.0,1022.0,1007.0,1020.0,1020.0,1021.0,1022.0,1023.0,1025.0,1022.0,1022.0,1007.0,1020.0,1020.0,1021.0,1019.0,1023.0,1023.0,1025.0,1022.0,1022.0,1007.0,1020.0,1020.0,1021.0,1019.0,1023.0,1023.0,1025.0,1022.0,1023.0,1007.0,1019.0,1021.0,1022.0,1020.0,1023.0,1023.0,1025.0,1022.0,1022.0,1008.0,1020.0,1021.0,1021.0,1020.0,1023.0,1023.0,1025.0,1022.0,1022.0,1007.0,1019.0,1021.0,1022.0,1019.0,1023.0,1023.0,1025.0,1022.0,1022.0,1007.0,1020.0,1020.0,1021.0,1019.0,1023.0,1023.0,1025.0,1022.0,1022.0,1007.0,1020.0,1020.0,1021.0,1019.0,1024.0,1024.0,1025.0,1022.0,1024.0,1008.0,1020.0,1022.0,1024.0,1024.0,1024.0,1026.0,1022.0,1024.0,1009.0,1020.0,1022.0,1023.0,1024.0,1025.0,1022.0,1022.0,1008.0,1019.0,1024.0,1024.0,1026.0,1022.0,1025.0,1009.0,1020.0,1024.0,1024.0,1026.0,1022.0,1024.0,1009.0,1020.0,1024.0,1024.0,1026.0,1022.0,1024.0,1009.0,1023.0,1023.0,1025.0,1022.0,1022.0,1009.0,1024.0,1024.0,1026.0,1022.0,1024.0,1010.0,1025.0,1025.0,1028.0,1023.0,1026.0,1012.0,1024.0,1025.0,1026.0,1022.0,1023.0,1010.0,1026.0,1027.0,1028.0,1024.0,1026.0,1012.0,1026.0,1029.0,1030.0,1024.0,1028.0,1014.0,1027.0,1029.0,1031.0,1025.0,1027.0,1015.0,1029.0,1030.0,1032.0,1025.0,1027.0,1017.0,1035.0,1033.0,1036.0,1027.0,1028.0,1022.0,1039.0,1037.0,1042.0,1031.0,1029.0,1029.0,1038.0,1036.0,1041.0,1029.0,1026.0,1030.0,1044.0,1041.0,1059.0,1034.0,1032.0,1111.0,1041.0,1039.0,1057.0,1033.0,1031.0,2282,2219,1901,	00:31:19.134,-0.009765625,0.06396484375,1.02001953125,0.0,0.3662109375,0.1220703125,3.548583984375,0.5328369140625,-50.1031494140625,32.0,-476.0,-4085.0,-0.905426025390625,-0.029998779296875,0.0089111328125,0.423370361328125,3.547904941096482,0.5314677204580188,-54.31235964739161,-0.889264178424025,-0.029659426655410864,0.010004197483406755,0.456321657841296,1,	00:31:19.135,0.0234375,0.044921875,1.0205078125,-0.30517578125,0.1220703125,0.42724609375,2.5213623046875,-1.3348388671875,99.7119140625,-64.0,732.0,-1802.0,0.644317626953125,0.0230712890625,0.009307861328125,0.76434326171875,2.51999834171276,-1.3357994125329289,93.20671530865158,0.6866458884977867,0.023574599004019196,0.007969914452903426,0.7265659932549131,1
1782117388.272117,0.030,1020.0,1024.0,1021.0,1021.0,1023.0,1025.0,1021.0,1021.0,1007.0,1023.0,1023.0,1025.0,1021.0,1022.0,1007.0,1020.0,1023.0,1023.0,1025.0,1021.0,1022.0,1007.0,1019.0,1021.0,1023.0,1023.0,1025.0,1021.0,1022.0,1007.0,1020.0,1020.0,1020.0,1022.0,1023.0,1025.0,1021.0,1022.0,1007.0,1020.0,1021.0,1021.0,1022.0,1023.0,1025.0,1021.0,1022.0,1007.0,1019.0,1020.0,1021.0,1019.0,1023.0,1023.0,1025.0,1021.0,1022.0,1006.0,1019.0,1020.0,1021.0,1019.0,1023.0,1023.0,1025.0,1021.0,1023.0,1008.0,1019.0,1021.0,1021.0,1020.0,1023.0,1023.0,1025.0,1022.0,1023.0,1008.0,1020.0,1021.0,1022.0,1020.0,1023.0,1024.0,1025.0,1022.0,1022.0,1007.0,1020.0,1020.0,1021.0,1019.0,1024.0,1023.0,1025.0,1021.0,1022.0,1008.0,1020.0,1020.0,1021.0,1019.0,1024.0,1023.0,1025.0,1022.0,1022.0,1008.0,1020.0,1020.0,1021.0,1019.0,1024.0,1024.0,1025.0,1022.0,1024.0,1009.0,1020.0,1022.0,1023.0,1024.0,1024.0,1026.0,1022.0,1024.0,1008.0,1020.0,1021.0,1024.0,1023.0,1026.0,1022.0,1023.0,1008.0,1019.0,1024.0,1024.0,1026.0,1021.0,1025.0,1009.0,1020.0,1024.0,1024.0,1026.0,1023.0,1024.0,1009.0,1020.0,1024.0,1024.0,1026.0,1022.0,1024.0,1009.0,1024.0,1024.0,1025.0,1021.0,1022.0,1008.0,1024.0,1024.0,1026.0,1022.0,1024.0,1010.0,1025.0,1026.0,1027.0,1023.0,1026.0,1012.0,1024.0,1024.0,1026.0,1022.0,1023.0,1010.0,1025.0,1027.0,1028.0,1023.0,1025.0,1012.0,1027.0,1028.0,1030.0,1024.0,1027.0,1014.0,1028.0,1029.0,1031.0,1025.0,1027.0,1014.0,1029.0,1030.0,1032.0,1025.0,1027.0,1017.0,1035.0,1033.0,1036.0,1026.0,1028.0,1021.0,1039.0,1037.0,1042.0,1030.0,1029.0,1029.0,1038.0,1036.0,1042.0,1029.0,1027.0,1029.0,1044.0,1040.0,1060.0,1034.0,1031.0,1111.0,1042.0,1039.0,1057.0,1033.0,1031.0,2282,2219,1901,	00:31:19.145,-0.0107421875,0.0634765625,1.02001953125,0.0,0.3662109375,0.1220703125,3.5650634765625,0.626220703125,-50.1031494140625,33.0,-475.0,-4088.0,-0.9053955078125,-0.030487060546875,0.00823974609375,0.423370361328125,3.5645592925895766,0.6251767923400248,-54.31074664697658,-0.8892510031558508,-0.030161743709514962,0.009342775701039264,0.45632842903430276,1,	00:31:19.146,0.021484375,0.04443359375,1.0205078125,-0.244140625,0.1220703125,0.48828125,2.4993896484375,-1.2469482421875,99.7174072265625,-65.0,733.0,-1803.0,0.644317626953125,0.022369384765625,0.009674072265625,0.764373779296875,2.4990152886250834,-1.2450357466665254,93.21206148148414,0.6866349716007284,0.022873257294272864,0.00838209861624503,0.7265940890885394,1
1782117388.283718,0.042,1020.0,1025.0,1021.0,1022.0,1023.0,1025.0,1021.0,1021.0,1007.0,1022.0,1023.0,1025.0,1021.0,1022.0,1007.0,1020.0,1023.0,1023.0,1025.0,1021.0,1022.0,1008.0,1020.0,1021.0,1023.0,1023.0,1025.0,1021.0,1022.0,1007.0,1020.0,1020.0,1021.0,1023.0,1022.0,1025.0,1022.0,1021.0,1007.0,1020.0,1020.0,1021.0,1023.0,1023.0,1025.0,1021.0,1022.0,1006.0,1020.0,1020.0,1020.0,1018.0,1023.0,1023.0,1025.0,1021.0,1022.0,1008.0,1020.0,1020.0,1021.0,1018.0,1023.0,1023.0,1025.0,1021.0,1022.0,1008.0,1020.0,1021.0,1021.0,1020.0,1023.0,1023.0,1025.0,1021.0,1023.0,1008.0,1020.0,1020.0,1021.0,1019.0,1023.0,1023.0,1025.0,1022.0,1022.0,1008.0,1020.0,1020.0,1021.0,1019.0,1023.0,1023.0,1025.0,1021.0,1022.0,1008.0,1020.0,1020.0,1020.0,1019.0,1024.0,1023.0,1025.0,1021.0,1022.0,1008.0,1019.0,1021.0,1021.0,1019.0,1024.0,1024.0,1026.0,1022.0,1024.0,1009.0,1020.0,1022.0,1023.0,1024.0,1024.0,1025.0,1022.0,1024.0,1009.0,1021.0,1021.0,1024.0,1024.0,1025.0,1022.0,1023.0,1009.0,1020.0,1024.0,1024.0,1026.0,1022.0,1025.0,1009.0,1020.0,1024.0,1024.0,1026.0,1022.0,1024.0,1009.0,1020.0,1024.0,1024.0,1025.0,1022.0,1024.0,1009.0,1023.0,1024.0,1025.0,1021.0,1022.0,1008.0,1025.0,1024.0,1026.0,1022.0,1024.0,1010.0,1025.0,1026.0,1028.0,1022.0,1026.0,1012.0,1024.0,1024.0,1026.0,1022.0,1023.0,1010.0,1026.0,1026.0,1028.0,1023.0,1025.0,1012.0,1026.0,1029.0,1030.0,1024.0,1027.0,1014.0,1028.0,1029.0,1030.0,1024.0,1027.0,1015.0,1029.0,1029.0,1032.0,1025.0,1027.0,1017.0,1035.0,1033.0,1036.0,1026.0,1028.0,1022.0,1039.0,1037.0,1042.0,1030.0,1029.0,1030.0,1039.0,1035.0,1042.0,1029.0,1027.0,1029.0,1044.0,1041.0,1059.0,1034.0,1032.0,1111.0,1041.0,1039.0,1057.0,1033.0,1031.0,2282,2219,1901,	00:31:19.155,-0.0107421875,0.0634765625,1.0205078125,0.06103515625,0.3662109375,0.1220703125,3.5430908203125,0.538330078125,-50.1031494140625,34.0,-476.0,-4086.0,-0.905426025390625,-0.029998779296875,0.008819580078125,0.42333984375,3.5448418332571454,0.5393944695246272,-54.30950771935792,-0.8892750635698546,-0.029667451020013585,0.009929738308621483,0.45630154937270195,1,	00:31:19.156,0.02294921875,0.044921875,1.02001953125,-0.244140625,0.1220703125,0.42724609375,2.537841796875,-1.3238525390625,99.7174072265625,-65.0,734.0,-1803.0,0.644256591796875,0.02313232421875,0.009490966796875,0.764404296875,2.539527566469393,-1.3248609714464654,93.21542042557823,0.6865889624011188,0.023621679023052677,0.008161113377627002,0.7266161360839191,1
1782117388.292759,0.051,1020.0,1025.0,1020.0,1022.0,1023.0,1025.0,1021.0,1021.0,1007.0,1022.0,1023.0,1025.0,1021.0,1021.0,1007.0,1019.0,1022.0,1023.0,1025.0,1022.0,1022.0,1007.0,1020.0,1021.0,1023.0,1023.0,1025.0,1021.0,1022.0,1007.0,1019.0,1020.0,1020.0,1022.0,1023.0,1025.0,1022.0,1022.0,1007.0,1019.0,1020.0,1021.0,1023.0,1023.0,1025.0,1022.0,1022.0,1007.0,1020.0,1021.0,1020.0,1019.0,1022.0,1022.0,1025.0,1021.0,1022.0,1007.0,1020.0,1020.0,1021.0,1019.0,1023.0,1023.0,1025.0,1022.0,1022.0,1008.0,1020.0,1021.0,1022.0,1020.0,1023.0,1023.0,1025.0,1022.0,1023.0,1007.0,1020.0,1021.0,1021.0,1019.0,1023.0,1023.0,1025.0,1022.0,1022.0,1008.0,1020.0,1020.0,1021.0,1019.0,1023.0,1024.0,1024.0,1022.0,1022.0,1008.0,1020.0,1020.0,1021.0,1019.0,1024.0,1023.0,1025.0,1021.0,1022.0,1008.0,1020.0,1020.0,1021.0,1019.0,1024.0,1024.0,1025.0,1022.0,1024.0,1008.0,1020.0,1022.0,1023.0,1024.0,1024.0,1026.0,1022.0,1024.0,1009.0,1021.0,1022.0,1024.0,1024.0,1026.0,1023.0,1023.0,1008.0,1019.0,1024.0,1024.0,1026.0,1022.0,1024.0,1009.0,1020.0,1024.0,1024.0,1026.0,1022.0,1024.0,1009.0,1020.0,1024.0,1024.0,1025.0,1022.0,1024.0,1009.0,1023.0,1024.0,1025.0,1022.0,1021.0,1008.0,1024.0,1024.0,1026.0,1023.0,1024.0,1010.0,1025.0,1026.0,1028.0,1024.0,1026.0,1012.0,1024.0,1024.0,1026.0,1022.0,1023.0,1009.0,1026.0,1026.0,1028.0,1023.0,1025.0,1012.0,1027.0,1028.0,1029.0,1025.0,1027.0,1014.0,1028.0,1029.0,1031.0,1024.0,1027.0,1015.0,1029.0,1030.0,1032.0,1025.0,1027.0,1018.0,1035.0,1032.0,1036.0,1026.0,1028.0,1022.0,1039.0,1037.0,1042.0,1030.0,1029.0,1029.0,1038.0,1035.0,1042.0,1029.0,1027.0,1029.0,1043.0,1040.0,1060.0,1034.0,1031.0,1112.0,1041.0,1039.0,1057.0,1033.0,1031.0,2282,2219,1901,	00:31:19.165,-0.0107421875,0.064453125,1.02099609375,0.0,0.42724609375,0.1220703125,3.614501953125,0.604248046875,-50.09765625,33.0,-479.0,-4089.0,-0.9053955078125,-0.030792236328125,0.008544921875,0.42333984375,3.612090649885587,0.6057180289846491,-54.30735330796745,-0.8892551818774772,-0.03045344283796364,0.009682181124763921,0.45629383591282147,1,	00:31:19.166,0.02197265625,0.04541015625,1.02001953125,-0.244140625,0.18310546875,0.48828125,2.548828125,-1.23046875,99.722900390625,-64.0,734.0,-1804.0,0.644256591796875,0.022552490234375,0.01007080078125,0.764404296875,2.546420293223078,-1.2320769670971166,93.22016808440647,0.686576712593913,0.023074556938141512,0.008762000418105135,0.7266382937160117,1
1782117388.302799,0.061,1020.0,1024.0,1020.0,1022.0,1023.0,1025.0,1021.0,1021.0,1007.0,1022.0,1023.0,1025.0,1021.0,1022.0,1007.0,1020.0,1023.0,1023.0,1025.0,1022.0,1022.0,1007.0,1020.0,1020.0,1023.0,1023.0,1025.0,1022.0,1021.0,1007.0,1020.0,1020.0,1021.0,1023.0,1023.0,1025.0,1022.0,1022.0,1007.0,1019.0,1021.0,1021.0,1023.0,1023.0,1025.0,1021.0,1022.0,1007.0,1020.0,1021.0,1020.0,1019.0,1023.0,1023.0,1025.0,1021.0,1022.0,1007.0,1019.0,1020.0,1021.0,1019.0,1023.0,1023.0,1025.0,1021.0,1023.0,1007.0,1020.0,1021.0,1022.0,1020.0,1023.0,1024.0,1025.0,1022.0,1022.0,1007.0,1020.0,1021.0,1021.0,1020.0,1023.0,1023.0,1025.0,1022.0,1022.0,1007.0,1020.0,1021.0,1021.0,1019.0,1024.0,1024.0,1025.0,1022.0,1023.0,1007.0,1019.0,1021.0,1020.0,1019.0,1023.0,1024.0,1025.0,1022.0,1023.0,1008.0,1019.0,1021.0,1021.0,1020.0,1024.0,1024.0,1025.0,1022.0,1024.0,1009.0,1020.0,1022.0,1022.0,1024.0,1024.0,1026.0,1022.0,1024.0,1009.0,1020.0,1021.0,1024.0,1024.0,1025.0,1022.0,1023.0,1008.0,1020.0,1024.0,1024.0,1026.0,1022.0,1025.0,1009.0,1020.0,1024.0,1024.0,1026.0,1022.0,1024.0,1010.0,1020.0,1024.0,1024.0,1026.0,1022.0,1024.0,1009.0,1023.0,1024.0,1026.0,1021.0,1022.0,1008.0,1024.0,1024.0,1027.0,1022.0,1023.0,1010.0,1025.0,1025.0,1028.0,1023.0,1027.0,1012.0,1024.0,1024.0,1027.0,1022.0,1023.0,1010.0,1026.0,1027.0,1028.0,1023.0,1025.0,1012.0,1027.0,1028.0,1029.0,1024.0,1028.0,1014.0,1028.0,1029.0,1031.0,1024.0,1027.0,1015.0,1029.0,1029.0,1032.0,1025.0,1028.0,1017.0,1034.0,1032.0,1036.0,1026.0,1028.0,1021.0,1039.0,1038.0,1042.0,1030.0,1029.0,1030.0,1038.0,1036.0,1041.0,1029.0,1027.0,1030.0,1044.0,1040.0,1059.0,1034.0,1031.0,1112.0,1041.0,1039.0,1057.0,1033.0,1031.0,2282,2219,1901,	00:31:19.175,-0.009765625,0.0634765625,1.02099609375,0.0,0.42724609375,0.1220703125,3.548583984375,0.5438232421875,-50.09765625,34.0,-477.0,-4093.0,-0.905426025390625,-0.030059814453125,0.008819580078125,0.42333984375,3.5498319429283116,0.5427823112303981,-54.30648986408703,-0.8892852454740022,-0.029719920140464418,0.009922531264296958,0.4562784477732834,1,	00:31:19.177,0.021484375,0.044921875,1.02001953125,-0.30517578125,0.18310546875,0.42724609375,2.48291015625,-1.16455078125,99.7283935546875,-64.0,735.0,-1804.0,0.644256591796875,0.021728515625,0.010009765625,0.764434814453125,2.4809376691367655,-1.1633357161553455,93.22581995466652,0.6865676891398999,0.02224606987600558,0.008759936652300754,0.7266726801758941,1
1782117388.313914,0.072,1021.0,1024.0,1020.0,1022.0,1023.0,1024.0,1021.0,1022.0,1007.0,1022.0,1023.0,1025.0,1021.0,1022.0,1007.0,1019.0,1022.0,1023.0,1024.0,1021.0,1022.0,1007.0,1019.0,1021.0,1023.0,1023.0,1025.0,1021.0,1022.0,1007.0,1020.0,1020.0,1021.0,1023.0,1022.0,1025.0,1021.0,1022.0,1007.0,1020.0,1020.0,1021.0,1023.0,1023.0,1025.0,1021.0,1022.0,1007.0,1020.0,1020.0,1021.0,1018.0,1023.0,1023.0,1024.0,1021.0,1022.0,1007.0,1020.0,1020.0,1021.0,1019.0,1024.0,1023.0,1025.0,1021.0,1023.0,1008.0,1020.0,1021.0,1022.0,1020.0,1023.0,1023.0,1025.0,1022.0,1022.0,1007.0,1019.0,1021.0,1021.0,1020.0,1023.0,1023.0,1025.0,1021.0,1022.0,1008.0,1019.0,1021.0,1020.0,1019.0,1023.0,1023.0,1024.0,1021.0,1023.0,1008.0,1020.0,1021.0,1020.0,1019.0,1023.0,1023.0,1025.0,1021.0,1022.0,1008.0,1020.0,1020.0,1021.0,1019.0,1024.0,1024.0,1026.0,1022.0,1024.0,1009.0,1020.0,1022.0,1023.0,1024.0,1024.0,1025.0,1022.0,1024.0,1009.0,1020.0,1022.0,1023.0,1024.0,1026.0,1022.0,1023.0,1008.0,1020.0,1024.0,1024.0,1026.0,1022.0,1026.0,1009.0,1020.0,1024.0,1024.0,1026.0,1022.0,1025.0,1009.0,1020.0,1024.0,1024.0,1026.0,1022.0,1024.0,1009.0,1023.0,1024.0,1025.0,1022.0,1022.0,1008.0,1024.0,1024.0,1026.0,1022.0,1024.0,1009.0,1025.0,1025.0,1027.0,1023.0,1026.0,1011.0,1024.0,1025.0,1027.0,1022.0,1023.0,1009.0,1026.0,1026.0,1028.0,1023.0,1025.0,1012.0,1027.0,1029.0,1029.0,1025.0,1027.0,1014.0,1028.0,1029.0,1031.0,1024.0,1027.0,1015.0,1029.0,1029.0,1032.0,1024.0,1027.0,1017.0,1035.0,1033.0,1036.0,1026.0,1028.0,1021.0,1039.0,1037.0,1042.0,1030.0,1029.0,1030.0,1038.0,1036.0,1041.0,1028.0,1026.0,1029.0,1044.0,1041.0,1059.0,1033.0,1031.0,1112.0,1041.0,1039.0,1057.0,1033.0,1031.0,2282,2219,1901,	00:31:19.186,-0.009765625,0.0634765625,1.02099609375,0.06103515625,0.42724609375,0.1220703125,3.6309814453125,0.5877685546875,-50.09765625,32.0,-480.0,-4087.0,-0.905426025390625,-0.0308837890625,0.008758544921875,0.423309326171875,3.6310248901516506,0.5903689096613588,-54.30421001233934,-0.8892652120617931,-0.030539568087110423,0.009875869998774331,0.4562643801454528,1,	00:31:19.187,0.02294921875,0.044921875,1.01953125,-0.30517578125,0.244140625,0.48828125,2.5048828125,-1.2469482421875,99.73388671875,-63.0,735.0,-1803.0,0.644195556640625,0.022430419921875,0.00970458984375,0.76446533203125,2.506956789918713,-1.2479627481725513,93.23019328727702,0.6865178105270134,0.02293806206258223,0.008418535661912226,0.726702325161629,1
1782117388.323684,0.082,1020.0,1024.0,1021.0,1022.0,1023.0,1025.0,1021.0,1021.0,1006.0,1022.0,1023.0,1025.0,1021.0,1022.0,1007.0,1020.0,1023.0,1023.0,1025.0,1021.0,1022.0,1007.0,1020.0,1021.0,1022.0,1023.0,1024.0,1021.0,1022.0,1007.0,1020.0,1020.0,1020.0,1023.0,1023.0,1025.0,1021.0,1022.0,1007.0,1020.0,1020.0,1020.0,1023.0,1023.0,1025.0,1021.0,1021.0,1007.0,1020.0,1020.0,1020.0,1019.0,1023.0,1023.0,1025.0,1021.0,1021.0,1007.0,1019.0,1021.0,1020.0,1019.0,1023.0,1023.0,1024.0,1022.0,1023.0,1008.0,1020.0,1021.0,1021.0,1020.0,1023.0,1024.0,1025.0,1022.0,1022.0,1007.0,1019.0,1021.0,1021.0,1019.0,1023.0,1023.0,1025.0,1021.0,1022.0,1007.0,1020.0,1021.0,1021.0,1019.0,1024.0,1024.0,1025.0,1021.0,1023.0,1007.0,1020.0,1021.0,1021.0,1019.0,1023.0,1023.0,1025.0,1021.0,1023.0,1008.0,1020.0,1020.0,1021.0,1020.0,1024.0,1024.0,1025.0,1022.0,1024.0,1008.0,1020.0,1023.0,1023.0,1024.0,1024.0,1026.0,1021.0,1024.0,1008.0,1020.0,1022.0,1024.0,1024.0,1026.0,1022.0,1023.0,1008.0,1019.0,1024.0,1024.0,1026.0,1022.0,1025.0,1009.0,1020.0,1024.0,1024.0,1026.0,1022.0,1024.0,1009.0,1020.0,1024.0,1024.0,1026.0,1022.0,1024.0,1009.0,1024.0,1023.0,1025.0,1022.0,1022.0,1008.0,1025.0,1025.0,1026.0,1022.0,1024.0,1010.0,1025.0,1025.0,1028.0,1023.0,1026.0,1011.0,1024.0,1025.0,1026.0,1022.0,1024.0,1009.0,1026.0,1027.0,1028.0,1024.0,1025.0,1011.0,1027.0,1028.0,1030.0,1024.0,1027.0,1014.0,1029.0,1029.0,1031.0,1024.0,1027.0,1015.0,1030.0,1030.0,1032.0,1025.0,1027.0,1017.0,1036.0,1033.0,1036.0,1027.0,1028.0,1022.0,1040.0,1037.0,1041.0,1030.0,1029.0,1029.0,1039.0,1036.0,1042.0,1028.0,1026.0,1029.0,1044.0,1040.0,1059.0,1033.0,1032.0,1110.0,1042.0,1039.0,1057.0,1033.0,1031.0,2282,2219,1901,	00:31:19.196,-0.009765625,0.06396484375,1.02001953125,0.06103515625,0.3662109375,0.18310546875,3.5650634765625,0.52734375,-50.09765625,33.0,-478.0,-4087.0,-0.90545654296875,-0.0301513671875,0.009002685546875,0.423309326171875,3.5670488293752953,0.5290365970111974,-54.30278197184087,-0.8892977362513504,-0.029799156807589818,0.010096809638008885,0.4562451106443924,1,	00:31:19.197,0.0224609375,0.044921875,1.021484375,-0.3662109375,0.244140625,0.48828125,2.57080078125,-1.307373046875,99.7393798828125,-64.0,735.0,-1804.0,0.644134521484375,0.023193359375,0.009796142578125,0.764495849609375,2.5698686412733673,-1.308512141294549,93.23369367849853,0.686470256959627,0.02369850657271076,0.00845529138542231,0.7267224195960892,1
1782117388.333782,0.092,1020.0,1024.0,1020.0,1022.0,1023.0,1025.0,1021.0,1021.0,1007.0,1023.0,1023.0,1025.0,1021.0,1022.0,1007.0,1020.0,1023.0,1023.0,1025.0,1021.0,1022.0,1007.0,1021.0,1020.0,1023.0,1023.0,1025.0,1021.0,1022.0,1006.0,1020.0,1021.0,1020.0,1023.0,1023.0,1025.0,1021.0,1022.0,1006.0,1020.0,1020.0,1021.0,1024.0,1022.0,1025.0,1021.0,1022.0,1006.0,1020.0,1020.0,1021.0,1019.0,1023.0,1023.0,1025.0,1021.0,1022.0,1007.0,1019.0,1021.0,1020.0,1019.0,1023.0,1023.0,1025.0,1021.0,1023.0,1007.0,1020.0,1021.0,1022.0,1019.0,1024.0,1024.0,1024.0,1021.0,1023.0,1007.0,1020.0,1021.0,1021.0,1019.0,1024.0,1023.0,1025.0,1021.0,1022.0,1007.0,1020.0,1020.0,1021.0,1019.0,1024.0,1023.0,1025.0,1022.0,1022.0,1008.0,1020.0,1020.0,1021.0,1019.0,1024.0,1023.0,1025.0,1022.0,1023.0,1008.0,1020.0,1021.0,1021.0,1019.0,1024.0,1024.0,1026.0,1022.0,1024.0,1009.0,1020.0,1022.0,1023.0,1024.0,1024.0,1025.0,1021.0,1024.0,1009.0,1020.0,1021.0,1024.0,1024.0,1025.0,1021.0,1023.0,1008.0,1020.0,1024.0,1024.0,1026.0,1022.0,1025.0,1009.0,1020.0,1025.0,1024.0,1026.0,1021.0,1024.0,1009.0,1020.0,1024.0,1024.0,1026.0,1022.0,1023.0,1009.0,1024.0,1023.0,1026.0,1021.0,1022.0,1008.0,1025.0,1024.0,1026.0,1022.0,1024.0,1010.0,1026.0,1025.0,1028.0,1023.0,1026.0,1011.0,1024.0,1024.0,1026.0,1022.0,1023.0,1010.0,1026.0,1026.0,1028.0,1023.0,1025.0,1011.0,1028.0,1028.0,1030.0,1024.0,1028.0,1014.0,1028.0,1029.0,1031.0,1024.0,1027.0,1015.0,1029.0,1030.0,1033.0,1024.0,1028.0,1017.0,1036.0,1033.0,1036.0,1026.0,1028.0,1021.0,1040.0,1037.0,1042.0,1030.0,1029.0,1029.0,1040.0,1035.0,1042.0,1028.0,1026.0,1030.0,1045.0,1040.0,1059.0,1034.0,1032.0,1110.0,1042.0,1039.0,1057.0,1033.0,1031.0,2282,2219,1901,	00:31:19.206,-0.00927734375,0.06396484375,1.02001953125,0.06103515625,0.42724609375,0.18310546875,3.6529541015625,0.4998779296875,-50.0921630859375,35.0,-475.0,-4088.0,-0.905426025390625,-0.03070068359375,0.009552001953125,0.423248291015625,3.652030191283703,0.49762786124517033,-54.29993309451386,-0.8892918122967165,-0.030333938409668002,0.010678185614268376,0.4562081773867797,1,	00:31:19.207,0.02197265625,0.0439453125,1.0205078125,-0.3662109375,0.244140625,0.42724609375,2.493896484375,-1.25244140625,99.744873046875,-64.0,736.0,-1805.0,0.644134521484375,0.022369384765625,0.00958251953125,0.7645263671875,2.4922098281515885,-1.2521721791359126,93.23972194514332,0.6864594709209894,0.022875705532192942,0.008301685932054572,0.7267607439109279,1
1782117388.344353,0.103,1020.0,1024.0,1020.0,1022.0,1023.0,1025.0,1021.0,1022.0,1006.0,1023.0,1023.0,1025.0,1021.0,1022.0,1007.0,1019.0,1023.0,1024.0,1025.0,1021.0,1022.0,1007.0,1020.0,1021.0,1023.0,1023.0,1025.0,1021.0,1022.0,1007.0,1019.0,1020.0,1021.0,1023.0,1023.0,1025.0,1021.0,1021.0,1007.0,1019.0,1020.0,1021.0,1023.0,1023.0,1025.0,1021.0,1022.0,1006.0,1020.0,1020.0,1020.0,1019.0,1023.0,1023.0,1025.0,1021.0,1022.0,1007.0,1020.0,1020.0,1021.0,1019.0,1024.0,1024.0,1025.0,1022.0,1022.0,1007.0,1020.0,1021.0,1021.0,1020.0,1023.0,1024.0,1025.0,1021.0,1023.0,1007.0,1020.0,1021.0,1021.0,1019.0,1024.0,1023.0,1025.0,1021.0,1023.0,1007.0,1020.0,1020.0,1021.0,1019.0,1024.0,1024.0,1024.0,1021.0,1022.0,1007.0,1020.0,1020.0,1021.0,1019.0,1024.0,1023.0,1025.0,1022.0,1022.0,1008.0,1020.0,1021.0,1021.0,1019.0,1025.0,1024.0,1026.0,1022.0,1024.0,1008.0,1020.0,1022.0,1023.0,1024.0,1024.0,1026.0,1022.0,1025.0,1008.0,1020.0,1022.0,1024.0,1023.0,1025.0,1022.0,1023.0,1008.0,1019.0,1024.0,1024.0,1026.0,1022.0,1025.0,1009.0,1020.0,1024.0,1024.0,1026.0,1022.0,1024.0,1009.0,1020.0,1024.0,1024.0,1025.0,1022.0,1024.0,1009.0,1024.0,1024.0,1026.0,1021.0,1021.0,1008.0,1024.0,1024.0,1026.0,1022.0,1024.0,1010.0,1026.0,1026.0,1028.0,1023.0,1026.0,1011.0,1024.0,1024.0,1027.0,1022.0,1023.0,1009.0,1026.0,1026.0,1028.0,1024.0,1025.0,1012.0,1027.0,1028.0,1030.0,1024.0,1027.0,1014.0,1029.0,1029.0,1031.0,1024.0,1027.0,1015.0,1030.0,1029.0,1033.0,1025.0,1028.0,1017.0,1035.0,1033.0,1036.0,1026.0,1028.0,1021.0,1040.0,1037.0,1042.0,1030.0,1029.0,1029.0,1039.0,1035.0,1042.0,1028.0,1027.0,1029.0,1044.0,1040.0,1060.0,1033.0,1031.0,1110.0,1042.0,1039.0,1057.0,1032.0,1031.0,2282,2219,1901,	00:31:19.216,-0.01025390625,0.0634765625,1.02001953125,0.06103515625,0.42724609375,0.18310546875,3.58154296875,0.560302734375,-50.0921630859375,33.0,-476.0,-4091.0,-0.90545654296875,-0.0303955078125,0.0087890625,0.42327880859375,3.5827995292533106,0.5610132594263513,-54.29847849499762,-0.8893056046211318,-0.030049004923530392,0.009910198644088921,0.4562174775864944,1,	00:31:19.217,0.0224609375,0.04443359375,1.0205078125,-0.3662109375,0.244140625,0.42724609375,2.4993896484375,-1.34033203125,99.744873046875,-63.0,736.0,-1802.0,0.644073486328125,0.02301025390625,0.009124755859375,0.764556884765625,2.4995316150932827,-1.3408849164168508,93.24384969317259,0.6864135422274154,0.023481656707269847,0.007817265690286046,0.726790169995592,1
1782117388.353125,0.111,1020.0,1024.0,1020.0,1022.0,1023.0,1025.0,1022.0,1021.0,1007.0,1022.0,1023.0,1025.0,1021.0,1022.0,1007.0,1020.0,1022.0,1023.0,1025.0,1022.0,1022.0,1007.0,1020.0,1021.0,1023.0,1023.0,1025.0,1021.0,1022.0,1007.0,1019.0,1020.0,1021.0,1023.0,1023.0,1025.0,1022.0,1022.0,1007.0,1019.0,1020.0,1021.0,1023.0,1023.0,1024.0,1021.0,1022.0,1007.0,1019.0,1020.0,1020.0,1019.0,1023.0,1023.0,1025.0,1022.0,1022.0,1007.0,1019.0,1020.0,1020.0,1019.0,1023.0,1024.0,1025.0,1022.0,1023.0,1008.0,1020.0,1021.0,1021.0,1020.0,1023.0,1023.0,1025.0,1022.0,1023.0,1007.0,1020.0,1021.0,1021.0,1020.0,1024.0,1023.0,1025.0,1022.0,1022.0,1008.0,1020.0,1020.0,1021.0,1019.0,1023.0,1023.0,1025.0,1021.0,1023.0,1008.0,1019.0,1020.0,1021.0,1019.0,1024.0,1023.0,1025.0,1022.0,1023.0,1007.0,1020.0,1020.0,1021.0,1019.0,1025.0,1024.0,1026.0,1022.0,1025.0,1008.0,1020.0,1022.0,1023.0,1024.0,1024.0,1026.0,1022.0,1024.0,1009.0,1019.0,1022.0,1024.0,1024.0,1025.0,1021.0,1022.0,1008.0,1020.0,1024.0,1025.0,1026.0,1022.0,1025.0,1009.0,1020.0,1024.0,1024.0,1026.0,1022.0,1024.0,1009.0,1020.0,1024.0,1024.0,1026.0,1022.0,1024.0,1009.0,1024.0,1024.0,1025.0,1022.0,1021.0,1008.0,1025.0,1025.0,1026.0,1023.0,1024.0,1010.0,1025.0,1025.0,1028.0,1023.0,1026.0,1011.0,1024.0,1024.0,1026.0,1022.0,1023.0,1010.0,1026.0,1027.0,1028.0,1023.0,1025.0,1012.0,1027.0,1028.0,1029.0,1024.0,1027.0,1014.0,1028.0,1029.0,1031.0,1024.0,1027.0,1015.0,1029.0,1030.0,1033.0,1025.0,1027.0,1017.0,1036.0,1033.0,1036.0,1026.0,1028.0,1021.0,1040.0,1037.0,1042.0,1030.0,1029.0,1029.0,1038.0,1035.0,1042.0,1028.0,1027.0,1029.0,1044.0,1040.0,1059.0,1034.0,1031.0,1110.0,1041.0,1039.0,1057.0,1032.0,1031.0,2282,2219,1901,	00:31:19.227,-0.00927734375,0.0625,1.0205078125,0.1220703125,0.42724609375,0.1220703125,3.504638671875,0.5218505859375,-50.0921630859375,34.0,-480.0,-4088.0,-0.905487060546875,-0.029632568359375,0.008819580078125,0.423248291015625,3.503048224558535,0.5225804478835631,-54.297759269232444,-0.8893352536259557,-0.029277212192012313,0.009890818753885887,0.45621028397954705,1,	00:31:19.228,0.02197265625,0.04443359375,1.0205078125,-0.30517578125,0.244140625,0.48828125,2.4884033203125,-1.2469482421875,99.7503662109375,-64.0,734.0,-1803.0,0.644073486328125,0.0223388671875,0.009613037109375,0.76458740234375,2.4909677457116612,-1.2471731037779983,93.24895505542128,0.6864021743727129,0.022835903247538227,0.00832561039578142,0.7268158368877351,1
1782117388.364901,0.123,1020.0,1024.0,1020.0,1022.0,1023.0,1025.0,1020.0,1021.0,1007.0,1023.0,1023.0,1025.0,1021.0,1021.0,1007.0,1019.0,1023.0,1023.0,1025.0,1021.0,1022.0,1007.0,1019.0,1020.0,1023.0,1022.0,1025.0,1021.0,1022.0,1007.0,1020.0,1020.0,1020.0,1023.0,1023.0,1025.0,1021.0,1022.0,1007.0,1019.0,1020.0,1020.0,1023.0,1023.0,1025.0,1022.0,1022.0,1007.0,1019.0,1020.0,1021.0,1019.0,1023.0,1023.0,1025.0,1021.0,1022.0,1007.0,1020.0,1020.0,1020.0,1019.0,1023.0,1023.0,1025.0,1021.0,1023.0,1007.0,1020.0,1021.0,1021.0,1020.0,1024.0,1023.0,1025.0,1022.0,1023.0,1007.0,1020.0,1020.0,1021.0,1019.0,1023.0,1023.0,1025.0,1022.0,1022.0,1008.0,1020.0,1021.0,1021.0,1019.0,1024.0,1023.0,1025.0,1021.0,1023.0,1007.0,1020.0,1021.0,1021.0,1019.0,1023.0,1024.0,1025.0,1022.0,1023.0,1008.0,1020.0,1020.0,1020.0,1019.0,1024.0,1024.0,1025.0,1022.0,1025.0,1009.0,1020.0,1022.0,1023.0,1024.0,1024.0,1026.0,1022.0,1024.0,1009.0,1020.0,1022.0,1024.0,1024.0,1025.0,1022.0,1023.0,1009.0,1019.0,1024.0,1024.0,1026.0,1022.0,1026.0,1009.0,1020.0,1024.0,1024.0,1026.0,1022.0,1024.0,1009.0,1020.0,1023.0,1024.0,1025.0,1022.0,1024.0,1009.0,1023.0,1024.0,1025.0,1021.0,1022.0,1008.0,1024.0,1024.0,1026.0,1022.0,1024.0,1010.0,1025.0,1026.0,1027.0,1023.0,1026.0,1011.0,1024.0,1025.0,1026.0,1022.0,1023.0,1010.0,1026.0,1027.0,1028.0,1024.0,1026.0,1012.0,1027.0,1028.0,1029.0,1024.0,1028.0,1014.0,1028.0,1029.0,1031.0,1024.0,1028.0,1015.0,1029.0,1029.0,1032.0,1025.0,1028.0,1018.0,1035.0,1032.0,1035.0,1026.0,1028.0,1022.0,1039.0,1037.0,1042.0,1031.0,1029.0,1030.0,1038.0,1036.0,1042.0,1028.0,1027.0,1029.0,1044.0,1040.0,1059.0,1033.0,1032.0,1110.0,1041.0,1039.0,1057.0,1033.0,1031.0,2282,2219,1901,	00:31:19.237,-0.01025390625,0.06298828125,1.02099609375,0.06103515625,0.42724609375,0.1220703125,3.548583984375,0.6097412109375,-50.086669921875,34.0,-479.0,-4089.0,-0.90545654296875,-0.0302734375,0.00830078125,0.423248291015625,3.5463367364473597,0.6078393848112023,-54.29585843929528,-0.8893179291156041,-0.02995255825553336,0.009400883250148064,0.4562105748463085,1,	00:31:19.238,0.02197265625,0.04443359375,1.02099609375,-0.30517578125,0.18310546875,0.42724609375,2.493896484375,-1.153564453125,99.755859375,-64.0,735.0,-1802.0,0.644073486328125,0.021728515625,0.010162353515625,0.76458740234375,2.4935188007553917,-1.154048423707629,93.25318221970188,0.6863935521767005,0.022260454091056373,0.008900704390923988,0.7268350164757175,1
1782117388.375357,0.134,1021.0,1024.0,1020.0,1022.0,1023.0,1024.0,1020.0,1022.0,1007.0,1022.0,1023.0,1025.0,1021.0,1021.0,1007.0,1019.0,1023.0,1023.0,1025.0,1021.0,1022.0,1007.0,1019.0,1020.0,1022.0,1023.0,1025.0,1021.0,1022.0,1007.0,1020.0,1020.0,1021.0,1023.0,1023.0,1025.0,1021.0,1022.0,1007.0,1020.0,1021.0,1020.0,1022.0,1023.0,1025.0,1021.0,1022.0,1007.0,1020.0,1020.0,1021.0,1018.0,1023.0,1023.0,1025.0,1021.0,1022.0,1007.0,1019.0,1020.0,1020.0,1019.0,1023.0,1023.0,1025.0,1021.0,1023.0,1008.0,1020.0,1021.0,1021.0,1020.0,1023.0,1024.0,1025.0,1021.0,1023.0,1007.0,1020.0,1021.0,1021.0,1020.0,1023.0,1023.0,1024.0,1021.0,1023.0,1008.0,1020.0,1020.0,1021.0,1019.0,1024.0,1023.0,1025.0,1021.0,1023.0,1008.0,1020.0,1020.0,1021.0,1020.0,1023.0,1024.0,1025.0,1022.0,1023.0,1007.0,1020.0,1021.0,1021.0,1019.0,1024.0,1024.0,1025.0,1022.0,1025.0,1008.0,1020.0,1023.0,1023.0,1024.0,1024.0,1026.0,1022.0,1025.0,1009.0,1020.0,1022.0,1024.0,1023.0,1025.0,1021.0,1023.0,1008.0,1019.0,1024.0,1024.0,1026.0,1022.0,1025.0,1009.0,1020.0,1024.0,1024.0,1025.0,1022.0,1024.0,1009.0,1020.0,1023.0,1024.0,1025.0,1022.0,1024.0,1009.0,1023.0,1023.0,1026.0,1021.0,1022.0,1008.0,1024.0,1024.0,1026.0,1022.0,1024.0,1010.0,1025.0,1025.0,1028.0,1023.0,1027.0,1012.0,1024.0,1024.0,1026.0,1022.0,1023.0,1009.0,1026.0,1026.0,1029.0,1023.0,1026.0,1012.0,1027.0,1028.0,1030.0,1024.0,1028.0,1014.0,1028.0,1029.0,1031.0,1024.0,1028.0,1015.0,1030.0,1029.0,1033.0,1024.0,1028.0,1017.0,1036.0,1032.0,1036.0,1026.0,1028.0,1021.0,1039.0,1036.0,1042.0,1029.0,1029.0,1028.0,1039.0,1035.0,1042.0,1028.0,1027.0,1029.0,1044.0,1040.0,1059.0,1033.0,1032.0,1109.0,1042.0,1039.0,1057.0,1032.0,1032.0,2282,2219,1901,	00:31:19.247,-0.01123046875,0.06396484375,1.01904296875,0.06103515625,0.3662109375,0.06103515625,3.6309814453125,0.6536865234375,-50.086669921875,35.0,-479.0,-4088.0,-0.90545654296875,-0.031097412109375,0.00823974609375,0.423248291015625,3.6290630543388356,0.6518557872890408,-54.29411991063519,-0.8892955679053424,-0.030769830032172426,0.009388110940066885,0.4562000370853587,1,	00:31:19.248,0.0224609375,0.044921875,1.02001953125,-0.30517578125,0.18310546875,0.48828125,2.515869140625,-1.241455078125,99.7613525390625,-63.0,736.0,-1803.0,0.644012451171875,0.02239990234375,0.009796142578125,0.764617919921875,2.513858848737673,-1.2409983424425601,93.25765239088845,0.6863436935989076,0.022933227735323733,0.008509546638341078,0.726865867226312,1
1782117388.386331,0.145,1020.0,1024.0,1020.0,1022.0,1023.0,1024.0,1021.0,1022.0,1007.0,1023.0,1022.0,1025.0,1021.0,1022.0,1007.0,1020.0,1022.0,1023.0,1025.0,1021.0,1022.0,1007.0,1020.0,1020.0,1022.0,1023.0,1024.0,1021.0,1022.0,1007.0,1019.0,1020.0,1021.0,1022.0,1023.0,1025.0,1021.0,1022.0,1006.0,1019.0,1020.0,1021.0,1023.0,1022.0,1024.0,1021.0,1022.0,1007.0,1020.0,1020.0,1021.0,1019.0,1023.0,1023.0,1025.0,1021.0,1022.0,1007.0,1020.0,1021.0,1020.0,1019.0,1024.0,1023.0,1026.0,1021.0,1023.0,1007.0,1020.0,1021.0,1021.0,1020.0,1024.0,1023.0,1025.0,1021.0,1023.0,1007.0,1019.0,1021.0,1021.0,1019.0,1024.0,1023.0,1025.0,1021.0,1022.0,1007.0,1020.0,1020.0,1021.0,1019.0,1023.0,1023.0,1025.0,1022.0,1023.0,1008.0,1020.0,1021.0,1021.0,1019.0,1024.0,1023.0,1025.0,1022.0,1023.0,1007.0,1020.0,1021.0,1021.0,1019.0,1024.0,1024.0,1026.0,1021.0,1024.0,1008.0,1020.0,1022.0,1023.0,1024.0,1024.0,1025.0,1022.0,1025.0,1009.0,1020.0,1022.0,1024.0,1024.0,1025.0,1021.0,1024.0,1008.0,1020.0,1024.0,1024.0,1026.0,1022.0,1025.0,1009.0,1021.0,1024.0,1023.0,1026.0,1022.0,1024.0,1009.0,1019.0,1024.0,1024.0,1025.0,1022.0,1024.0,1009.0,1024.0,1023.0,1026.0,1021.0,1022.0,1008.0,1024.0,1024.0,1026.0,1022.0,1024.0,1010.0,1025.0,1026.0,1028.0,1023.0,1026.0,1012.0,1024.0,1024.0,1026.0,1022.0,1023.0,1010.0,1026.0,1025.0,1028.0,1023.0,1026.0,1012.0,1027.0,1028.0,1030.0,1024.0,1028.0,1014.0,1028.0,1029.0,1031.0,1024.0,1028.0,1015.0,1029.0,1029.0,1032.0,1024.0,1028.0,1017.0,1035.0,1033.0,1036.0,1026.0,1029.0,1021.0,1040.0,1037.0,1042.0,1030.0,1029.0,1028.0,1038.0,1035.0,1042.0,1028.0,1027.0,1029.0,1044.0,1040.0,1059.0,1033.0,1032.0,1109.0,1041.0,1038.0,1057.0,1032.0,1032.0,2282,2219,1901,	00:31:19.257,-0.00927734375,0.064453125,1.0205078125,0.0,0.3662109375,0.1220703125,3.6199951171875,0.5657958984375,-50.086669921875,33.0,-476.0,-4087.0,-0.90545654296875,-0.03070068359375,0.0089111328125,0.4232177734375,3.6186077807957324,0.5643745439782657,-54.292780894218545,-0.8893183029618205,-0.030340771387316428,0.010025161511070763,0.4561708997134815,1,	00:31:19.259,0.0224609375,0.04443359375,1.01904296875,-0.3662109375,0.18310546875,0.48828125,2.449951171875,-1.307373046875,99.766845703125,-65.0,736.0,-1804.0,0.64398193359375,0.02252197265625,0.009002685546875,0.764678955078125,2.4511892629018726,-1.3096361691350238,93.26392520048998,0.6863024534024712,0.02299262938514548,0.007701969107561297,0.7269119349134201,1
1782117388.395217,0.153,1021.0,1024.0,1020.0,1022.0,1023.0,1024.0,1021.0,1022.0,1007.0,1022.0,1023.0,1024.0,1021.0,1022.0,1007.0,1019.0,1022.0,1023.0,1025.0,1021.0,1022.0,1007.0,1020.0,1021.0,1022.0,1023.0,1025.0,1021.0,1022.0,1007.0,1019.0,1020.0,1021.0,1022.0,1022.0,1025.0,1021.0,1022.0,1007.0,1019.0,1020.0,1020.0,1022.0,1023.0,1025.0,1021.0,1022.0,1006.0,1019.0,1020.0,1021.0,1019.0,1023.0,1023.0,1025.0,1021.0,1022.0,1007.0,1020.0,1020.0,1020.0,1019.0,1023.0,1023.0,1025.0,1021.0,1023.0,1008.0,1020.0,1021.0,1022.0,1020.0,1023.0,1023.0,1025.0,1022.0,1023.0,1008.0,1020.0,1021.0,1021.0,1020.0,1023.0,1024.0,1025.0,1022.0,1022.0,1008.0,1020.0,1020.0,1021.0,1019.0,1024.0,1023.0,1025.0,1021.0,1023.0,1007.0,1020.0,1020.0,1021.0,1019.0,1024.0,1023.0,1025.0,1021.0,1023.0,1008.0,1020.0,1021.0,1021.0,1019.0,1024.0,1024.0,1026.0,1022.0,1025.0,1008.0,1020.0,1022.0,1023.0,1024.0,1024.0,1025.0,1022.0,1025.0,1009.0,1020.0,1021.0,1023.0,1024.0,1026.0,1021.0,1023.0,1008.0,1019.0,1024.0,1024.0,1026.0,1021.0,1026.0,1009.0,1020.0,1024.0,1024.0,1026.0,1022.0,1024.0,1008.0,1020.0,1024.0,1024.0,1026.0,1022.0,1024.0,1009.0,1023.0,1024.0,1025.0,1022.0,1022.0,1008.0,1025.0,1024.0,1026.0,1022.0,1025.0,1010.0,1025.0,1025.0,1027.0,1023.0,1026.0,1011.0,1024.0,1024.0,1027.0,1022.0,1023.0,1009.0,1026.0,1026.0,1028.0,1023.0,1026.0,1012.0,1027.0,1028.0,1029.0,1024.0,1028.0,1014.0,1027.0,1029.0,1031.0,1025.0,1028.0,1015.0,1029.0,1030.0,1032.0,1025.0,1028.0,1017.0,1035.0,1033.0,1035.0,1026.0,1029.0,1021.0,1039.0,1037.0,1041.0,1030.0,1030.0,1028.0,1038.0,1035.0,1041.0,1028.0,1028.0,1029.0,1043.0,1040.0,1059.0,1033.0,1033.0,1109.0,1040.0,1039.0,1056.0,1032.0,1033.0,2282,2219,1901,	00:31:19.268,-0.01025390625,0.06298828125,1.02001953125,0.0,0.3662109375,0.1220703125,3.526611328125,0.5767822265625,-50.086669921875,34.0,-478.0,-4087.0,-0.905487060546875,-0.030029296875,0.008453369140625,0.4232177734375,3.5278015817291655,0.5791623103933837,-54.29223765347486,-0.8893418443211544,-0.029694915223949122,0.009548747092089641,0.45617772564896386,1,	00:31:19.269,0.0224609375,0.04345703125,1.02001953125,-0.30517578125,0.18310546875,0.42724609375,2.427978515625,-1.219482421875,99.7723388671875,-64.0,734.0,-1804.0,0.643951416015625,0.02178955078125,0.00933837890625,0.764678955078125,2.4270158662445853,-1.2188037413364226,93.26873462601249,0.6862949857471253,0.0222715711331617,0.008093846198740807,0.7269371770045364,1
1782117388.406276,0.165,1020.0,1024.0,1020.0,1021.0,1023.0,1025.0,1021.0,1023.0,1007.0,1023.0,1022.0,1025.0,1021.0,1022.0,1007.0,1020.0,1023.0,1023.0,1025.0,1021.0,1022.0,1007.0,1019.0,1021.0,1022.0,1023.0,1025.0,1021.0,1021.0,1007.0,1020.0,1020.0,1021.0,1023.0,1023.0,1024.0,1021.0,1022.0,1007.0,1020.0,1020.0,1020.0,1023.0,1023.0,1025.0,1021.0,1022.0,1007.0,1020.0,1020.0,1021.0,1019.0,1023.0,1023.0,1025.0,1021.0,1022.0,1007.0,1019.0,1020.0,1021.0,1019.0,1023.0,1023.0,1025.0,1022.0,1023.0,1007.0,1020.0,1021.0,1022.0,1020.0,1024.0,1023.0,1025.0,1022.0,1023.0,1007.0,1020.0,1021.0,1021.0,1020.0,1023.0,1023.0,1025.0,1021.0,1022.0,1007.0,1020.0,1020.0,1021.0,1020.0,1023.0,1023.0,1025.0,1022.0,1022.0,1008.0,1019.0,1020.0,1021.0,1019.0,1023.0,1023.0,1025.0,1021.0,1023.0,1008.0,1020.0,1020.0,1021.0,1019.0,1024.0,1024.0,1026.0,1022.0,1025.0,1009.0,1020.0,1022.0,1023.0,1024.0,1024.0,1026.0,1022.0,1025.0,1009.0,1020.0,1021.0,1023.0,1023.0,1026.0,1022.0,1023.0,1008.0,1019.0,1024.0,1024.0,1026.0,1022.0,1025.0,1009.0,1020.0,1024.0,1023.0,1026.0,1022.0,1024.0,1009.0,1020.0,1024.0,1023.0,1026.0,1022.0,1024.0,1009.0,1023.0,1023.0,1025.0,1021.0,1022.0,1008.0,1024.0,1024.0,1026.0,1022.0,1025.0,1010.0,1025.0,1025.0,1028.0,1023.0,1026.0,1012.0,1024.0,1024.0,1026.0,1023.0,1023.0,1010.0,1026.0,1026.0,1027.0,1024.0,1025.0,1012.0,1027.0,1028.0,1029.0,1024.0,1028.0,1014.0,1028.0,1028.0,1031.0,1024.0,1028.0,1014.0,1029.0,1029.0,1032.0,1025.0,1028.0,1017.0,1035.0,1032.0,1036.0,1026.0,1029.0,1021.0,1039.0,1037.0,1042.0,1030.0,1029.0,1028.0,1038.0,1035.0,1042.0,1028.0,1028.0,1029.0,1044.0,1040.0,1059.0,1032.0,1033.0,1109.0,1040.0,1038.0,1057.0,1032.0,1032.0,2282,2219,1901,	00:31:19.278,-0.00927734375,0.0634765625,1.0205078125,0.06103515625,0.3662109375,0.1220703125,3.570556640625,0.4998779296875,-50.0811767578125,35.0,-477.0,-4089.0,-0.905487060546875,-0.03009033203125,0.00921630859375,0.423187255859375,3.571379293033066,0.5017755964721565,-54.290389128685135,-0.8893502800995494,-0.02972540100951719,0.010322428685835985,0.456142441883785,1,	00:31:19.279,0.0234375,0.0439453125,1.0205078125,-0.3662109375,0.18310546875,0.42724609375,2.4554443359375,-1.3018798828125,99.77783203125,-66.0,735.0,-1803.0,0.6439208984375,0.022491455078125,0.00909423828125,0.76470947265625,2.4576584895137437,-1.3020685638497398,93.27232774834863,0.6862493970334902,0.022982820241883417,0.00779003863287624,0.7269613953594776,1
1782117388.416226,0.175,1019.0,1024.0,1020.0,1022.0,1023.0,1025.0,1020.0,1022.0,1007.0,1022.0,1023.0,1025.0,1021.0,1021.0,1007.0,1019.0,1022.0,1023.0,1025.0,1021.0,1022.0,1007.0,1020.0,1021.0,1022.0,1023.0,1025.0,1021.0,1021.0,1007.0,1020.0,1020.0,1020.0,1023.0,1023.0,1025.0,1021.0,1022.0,1007.0,1020.0,1020.0,1020.0,1023.0,1023.0,1025.0,1021.0,1022.0,1007.0,1019.0,1020.0,1020.0,1019.0,1023.0,1023.0,1025.0,1021.0,1022.0,1007.0,1020.0,1020.0,1020.0,1019.0,1023.0,1023.0,1025.0,1022.0,1023.0,1007.0,1020.0,1021.0,1021.0,1020.0,1023.0,1023.0,1025.0,1022.0,1023.0,1008.0,1019.0,1021.0,1021.0,1020.0,1023.0,1023.0,1025.0,1022.0,1023.0,1007.0,1019.0,1020.0,1021.0,1020.0,1024.0,1023.0,1025.0,1022.0,1023.0,1008.0,1019.0,1021.0,1020.0,1019.0,1023.0,1023.0,1025.0,1022.0,1023.0,1008.0,1020.0,1021.0,1021.0,1019.0,1024.0,1024.0,1026.0,1022.0,1024.0,1009.0,1020.0,1022.0,1023.0,1024.0,1024.0,1026.0,1022.0,1024.0,1009.0,1020.0,1021.0,1024.0,1023.0,1025.0,1021.0,1024.0,1008.0,1019.0,1024.0,1024.0,1026.0,1022.0,1025.0,1009.0,1020.0,1024.0,1024.0,1026.0,1021.0,1024.0,1009.0,1020.0,1023.0,1024.0,1026.0,1022.0,1024.0,1009.0,1023.0,1024.0,1025.0,1021.0,1022.0,1008.0,1024.0,1024.0,1026.0,1022.0,1024.0,1010.0,1024.0,1025.0,1028.0,1023.0,1027.0,1012.0,1024.0,1024.0,1026.0,1022.0,1024.0,1009.0,1026.0,1026.0,1028.0,1024.0,1025.0,1012.0,1027.0,1028.0,1031.0,1024.0,1028.0,1014.0,1027.0,1028.0,1031.0,1024.0,1028.0,1015.0,1028.0,1029.0,1033.0,1025.0,1028.0,1017.0,1034.0,1033.0,1036.0,1026.0,1028.0,1021.0,1038.0,1036.0,1042.0,1029.0,1029.0,1029.0,1038.0,1035.0,1042.0,1028.0,1027.0,1029.0,1043.0,1040.0,1060.0,1033.0,1032.0,1109.0,1041.0,1039.0,1057.0,1032.0,1032.0,2282,2219,1901,	00:31:19.288,-0.0107421875,0.06298828125,1.0205078125,0.06103515625,0.42724609375,0.1220703125,3.53759765625,0.59326171875,-50.0811767578125,34.0,-481.0,-4090.0,-0.905487060546875,-0.0301513671875,0.008392333984375,0.4232177734375,3.5384352344852985,0.5912614476820356,-54.28922427472498,-0.8893491137318775,-0.029825828201968493,0.009496378401363807,0.4561561055972491,1,	00:31:19.289,0.0234375,0.044921875,1.0205078125,-0.30517578125,0.244140625,0.42724609375,2.5433349609375,-1.318359375,99.77783203125,-64.0,737.0,-1804.0,0.643890380859375,0.023101806640625,0.00958251953125,0.76470947265625,2.5443913896419903,-1.3174300182730163,93.27464784119537,0.6862138710906978,0.02359946468218481,0.008248700685670124,0.7269701144658093,1
1782117388.425207,0.183,1020.0,1025.0,1021.0,1021.0,1023.0,1025.0,1021.0,1021.0,1007.0,1022.0,1022.0,1025.0,1021.0,1022.0,1007.0,1020.0,1023.0,1023.0,1025.0,1021.0,1022.0,1007.0,1020.0,1020.0,1022.0,1023.0,1025.0,1021.0,1022.0,1007.0,1020.0,1020.0,1020.0,1023.0,1023.0,1025.0,1021.0,1022.0,1008.0,1020.0,1020.0,1021.0,1022.0,1022.0,1025.0,1021.0,1022.0,1007.0,1019.0,1020.0,1020.0,1019.0,1023.0,1023.0,1025.0,1021.0,1022.0,1007.0,1019.0,1020.0,1020.0,1018.0,1023.0,1023.0,1025.0,1022.0,1023.0,1007.0,1020.0,1021.0,1022.0,1020.0,1023.0,1023.0,1025.0,1021.0,1023.0,1008.0,1020.0,1021.0,1021.0,1019.0,1023.0,1023.0,1025.0,1021.0,1023.0,1008.0,1020.0,1020.0,1021.0,1019.0,1023.0,1024.0,1025.0,1021.0,1023.0,1008.0,1019.0,1021.0,1020.0,1019.0,1023.0,1023.0,1025.0,1021.0,1023.0,1008.0,1020.0,1021.0,1021.0,1019.0,1024.0,1024.0,1025.0,1022.0,1025.0,1008.0,1020.0,1022.0,1023.0,1024.0,1024.0,1025.0,1022.0,1024.0,1009.0,1020.0,1022.0,1024.0,1023.0,1026.0,1021.0,1023.0,1008.0,1020.0,1024.0,1024.0,1026.0,1022.0,1025.0,1010.0,1020.0,1024.0,1024.0,1026.0,1022.0,1025.0,1009.0,1020.0,1023.0,1024.0,1026.0,1021.0,1024.0,1009.0,1023.0,1023.0,1025.0,1021.0,1023.0,1008.0,1025.0,1024.0,1027.0,1022.0,1025.0,1010.0,1025.0,1025.0,1028.0,1023.0,1027.0,1012.0,1024.0,1024.0,1027.0,1022.0,1023.0,1010.0,1025.0,1026.0,1028.0,1023.0,1026.0,1012.0,1027.0,1028.0,1029.0,1024.0,1028.0,1014.0,1027.0,1029.0,1031.0,1024.0,1028.0,1015.0,1029.0,1029.0,1033.0,1024.0,1028.0,1017.0,1035.0,1033.0,1036.0,1026.0,1029.0,1021.0,1038.0,1036.0,1042.0,1030.0,1029.0,1029.0,1037.0,1035.0,1042.0,1027.0,1028.0,1029.0,1043.0,1040.0,1059.0,1032.0,1032.0,1109.0,1040.0,1038.0,1058.0,1032.0,1031.0,2282,2219,1901,	00:31:19.298,-0.0107421875,0.0634765625,1.01953125,0.06103515625,0.3662109375,0.1220703125,3.6199951171875,0.6317138671875,-50.0811767578125,33.0,-477.0,-4090.0,-0.905487060546875,-0.030975341796875,0.00836181640625,0.423187255859375,3.622071538730049,0.6333464627494338,-54.28689254388787,-0.889329349156592,-0.030642534984267528,0.009502013946659494,0.45614039013159985,1,	00:31:19.299,0.0224609375,0.0439453125,1.02001953125,-0.244140625,0.244140625,0.42724609375,2.4664306640625,-1.263427734375,99.7833251953125,-63.0,735.0,-1805.0,0.64385986328125,0.02227783203125,0.0093994140625,0.7647705078125,2.4681570474490204,-1.2608076278980005,93.28068243458466,0.6862026868668606,0.022783464573877914,0.00810552628193048,0.7270083126914059,1
1782117388.436302,0.195,1020.0,1024.0,1020.0,1021.0,1023.0,1025.0,1021.0,1022.0,1008.0,1022.0,1022.0,1025.0,1020.0,1022.0,1007.0,1020.0,1022.0,1023.0,1025.0,1021.0,1022.0,1007.0,1020.0,1020.0,1022.0,1023.0,1025.0,1021.0,1022.0,1006.0,1019.0,1020.0,1020.0,1023.0,1023.0,1025.0,1021.0,1022.0,1007.0,1019.0,1020.0,1021.0,1022.0,1022.0,1025.0,1021.0,1022.0,1007.0,1019.0,1020.0,1020.0,1019.0,1022.0,1023.0,1025.0,1021.0,1023.0,1007.0,1019.0,1020.0,1021.0,1019.0,1023.0,1023.0,1025.0,1021.0,1023.0,1007.0,1020.0,1021.0,1021.0,1020.0,1023.0,1023.0,1025.0,1021.0,1023.0,1007.0,1020.0,1021.0,1021.0,1020.0,1024.0,1023.0,1025.0,1021.0,1023.0,1007.0,1020.0,1020.0,1021.0,1019.0,1024.0,1023.0,1025.0,1021.0,1023.0,1007.0,1020.0,1020.0,1020.0,1019.0,1023.0,1023.0,1026.0,1021.0,1023.0,1008.0,1020.0,1020.0,1021.0,1019.0,1024.0,1023.0,1026.0,1022.0,1026.0,1009.0,1021.0,1022.0,1022.0,1024.0,1024.0,1025.0,1022.0,1025.0,1008.0,1020.0,1022.0,1023.0,1024.0,1026.0,1021.0,1023.0,1008.0,1019.0,1024.0,1024.0,1026.0,1022.0,1026.0,1009.0,1021.0,1024.0,1023.0,1026.0,1022.0,1024.0,1009.0,1020.0,1023.0,1023.0,1026.0,1022.0,1025.0,1009.0,1024.0,1023.0,1026.0,1021.0,1022.0,1009.0,1024.0,1024.0,1027.0,1022.0,1025.0,1010.0,1025.0,1025.0,1027.0,1023.0,1026.0,1012.0,1023.0,1024.0,1026.0,1022.0,1024.0,1010.0,1025.0,1026.0,1028.0,1023.0,1026.0,1011.0,1026.0,1028.0,1030.0,1024.0,1029.0,1014.0,1028.0,1029.0,1031.0,1024.0,1028.0,1015.0,1029.0,1029.0,1032.0,1024.0,1029.0,1017.0,1035.0,1032.0,1036.0,1025.0,1030.0,1021.0,1038.0,1036.0,1042.0,1029.0,1030.0,1028.0,1037.0,1034.0,1042.0,1028.0,1028.0,1028.0,1043.0,1040.0,1059.0,1032.0,1033.0,1109.0,1041.0,1039.0,1057.0,1031.0,1032.0,2282,2219,1901,	00:31:19.309,-0.01123046875,0.06396484375,1.0205078125,0.06103515625,0.3662109375,0.18310546875,3.5321044921875,0.626220703125,-50.0811767578125,36.0,-475.0,-4088.0,-0.905487060546875,-0.030242919921875,0.008087158203125,0.423187255859375,3.5318066847919565,0.6264417272304019,-54.28583288797621,-0.889358570417894,-0.029914610401254083,0.00919602580183245,0.4561380080833355,1,	00:31:19.310,0.021484375,0.0439453125,1.0205078125,-0.30517578125,0.244140625,0.42724609375,2.4609375,-1.16455078125,99.788818359375,-63.0,734.0,-1800.0,0.64385986328125,0.0216064453125,0.009857177734375,0.7647705078125,2.461082885653944,-1.166987413610096,93.28513780854723,0.6861945614500213,0.022145797346558575,0.008623604801148063,0.72702972493326,1
1782117388.445961,0.204,1021.0,1024.0,1019.0,1021.0,1022.0,1025.0,1021.0,1022.0,1007.0,1023.0,1023.0,1024.0,1021.0,1022.0,1007.0,1019.0,1023.0,1023.0,1025.0,1021.0,1022.0,1007.0,1020.0,1020.0,1022.0,1023.0,1024.0,1021.0,1022.0,1007.0,1020.0,1020.0,1020.0,1023.0,1023.0,1025.0,1021.0,1022.0,1007.0,1019.0,1020.0,1021.0,1023.0,1023.0,1025.0,1022.0,1022.0,1007.0,1019.0,1020.0,1021.0,1019.0,1023.0,1022.0,1024.0,1022.0,1022.0,1007.0,1020.0,1020.0,1020.0,1019.0,1023.0,1023.0,1025.0,1022.0,1023.0,1008.0,1020.0,1021.0,1022.0,1020.0,1023.0,1023.0,1025.0,1021.0,1023.0,1007.0,1019.0,1021.0,1021.0,1019.0,1023.0,1023.0,1025.0,1022.0,1022.0,1007.0,1020.0,1021.0,1021.0,1019.0,1023.0,1023.0,1025.0,1022.0,1023.0,1008.0,1020.0,1020.0,1021.0,1019.0,1023.0,1023.0,1025.0,1021.0,1023.0,1007.0,1020.0,1021.0,1021.0,1019.0,1024.0,1024.0,1025.0,1022.0,1025.0,1009.0,1020.0,1022.0,1023.0,1024.0,1024.0,1026.0,1021.0,1025.0,1008.0,1019.0,1021.0,1023.0,1024.0,1025.0,1021.0,1023.0,1008.0,1020.0,1024.0,1024.0,1026.0,1022.0,1026.0,1009.0,1020.0,1024.0,1024.0,1027.0,1022.0,1024.0,1009.0,1020.0,1024.0,1024.0,1026.0,1022.0,1024.0,1009.0,1024.0,1023.0,1025.0,1021.0,1022.0,1008.0,1024.0,1024.0,1026.0,1022.0,1024.0,1010.0,1026.0,1025.0,1028.0,1022.0,1026.0,1012.0,1024.0,1024.0,1026.0,1022.0,1024.0,1010.0,1026.0,1027.0,1028.0,1023.0,1025.0,1012.0,1027.0,1028.0,1029.0,1025.0,1028.0,1014.0,1028.0,1028.0,1031.0,1024.0,1027.0,1015.0,1029.0,1029.0,1032.0,1025.0,1028.0,1017.0,1035.0,1033.0,1036.0,1026.0,1029.0,1021.0,1039.0,1037.0,1042.0,1030.0,1030.0,1029.0,1037.0,1035.0,1042.0,1028.0,1028.0,1030.0,1043.0,1040.0,1059.0,1032.0,1032.0,1109.0,1040.0,1039.0,1057.0,1032.0,1031.0,2282,2219,1901,	00:31:19.319,-0.01025390625,0.0634765625,1.01953125,0.0,0.42724609375,0.1220703125,3.58154296875,0.5548095703125,-50.07568359375,34.0,-479.0,-4092.0,-0.905517578125,-0.03033447265625,0.00885009765625,0.42315673828125,3.579049713729144,0.5520856605527623,-54.28386555671165,-0.8893662044210827,-0.02998565242891967,0.009960740878790937,0.45610239938329056,1,	00:31:19.320,0.0224609375,0.0439453125,1.02099609375,-0.30517578125,0.30517578125,0.48828125,2.4609375,-1.2579345703125,99.7943115234375,-65.0,735.0,-1801.0,0.643798828125,0.022216796875,0.009368896484375,0.764801025390625,2.461404062713265,-1.2557317085900768,93.29007709312793,0.6861454485895927,0.02271017335689185,0.00809495603888234,0.7270647447735415,1
1782117388.456155,0.214,1020.0,1024.0,1020.0,1022.0,1023.0,1025.0,1021.0,1022.0,1007.0,1022.0,1023.0,1025.0,1021.0,1022.0,1007.0,1020.0,1022.0,1023.0,1025.0,1021.0,1022.0,1007.0,1020.0,1021.0,1022.0,1023.0,1025.0,1021.0,1022.0,1007.0,1020.0,1020.0,1021.0,1022.0,1023.0,1025.0,1021.0,1022.0,1007.0,1020.0,1020.0,1020.0,1022.0,1023.0,1025.0,1021.0,1022.0,1007.0,1020.0,1020.0,1020.0,1019.0,1022.0,1022.0,1025.0,1021.0,1022.0,1007.0,1019.0,1020.0,1020.0,1019.0,1022.0,1023.0,1025.0,1022.0,1023.0,1008.0,1019.0,1021.0,1022.0,1020.0,1023.0,1024.0,1025.0,1022.0,1023.0,1007.0,1020.0,1021.0,1021.0,1020.0,1023.0,1023.0,1025.0,1022.0,1022.0,1008.0,1020.0,1020.0,1021.0,1019.0,1023.0,1024.0,1025.0,1021.0,1023.0,1008.0,1020.0,1020.0,1021.0,1019.0,1024.0,1023.0,1025.0,1021.0,1023.0,1008.0,1020.0,1020.0,1021.0,1020.0,1024.0,1024.0,1026.0,1022.0,1025.0,1009.0,1020.0,1022.0,1023.0,1024.0,1024.0,1025.0,1022.0,1025.0,1009.0,1020.0,1021.0,1023.0,1024.0,1025.0,1021.0,1023.0,1008.0,1020.0,1024.0,1024.0,1026.0,1022.0,1025.0,1009.0,1020.0,1024.0,1024.0,1026.0,1022.0,1024.0,1009.0,1020.0,1023.0,1024.0,1026.0,1021.0,1024.0,1009.0,1023.0,1023.0,1026.0,1021.0,1022.0,1008.0,1024.0,1024.0,1026.0,1022.0,1024.0,1009.0,1025.0,1026.0,1028.0,1023.0,1027.0,1012.0,1024.0,1024.0,1027.0,1022.0,1024.0,1010.0,1025.0,1027.0,1028.0,1024.0,1026.0,1011.0,1027.0,1028.0,1030.0,1024.0,1028.0,1014.0,1028.0,1029.0,1031.0,1024.0,1028.0,1015.0,1029.0,1030.0,1032.0,1025.0,1028.0,1017.0,1035.0,1034.0,1036.0,1026.0,1029.0,1021.0,1038.0,1037.0,1041.0,1030.0,1030.0,1029.0,1037.0,1035.0,1041.0,1028.0,1027.0,1029.0,1043.0,1040.0,1059.0,1032.0,1032.0,1109.0,1041.0,1039.0,1057.0,1032.0,1032.0,2282,2219,1901,	00:31:19.329,-0.00927734375,0.06298828125,1.01953125,0.0,0.3662109375,0.18310546875,3.504638671875,0.4998779296875,-50.07568359375,35.0,-476.0,-4087.0,-0.905548095703125,-0.029571533203125,0.00897216796875,0.423126220703125,3.504982469081059,0.5018690293869613,-54.28249069042943,-0.889398778564567,-0.029211152175271364,0.010055389526204673,0.45608706451501757,1,	00:31:19.330,0.0224609375,0.0439453125,1.02001953125,-0.30517578125,0.244140625,0.48828125,2.52685546875,-1.3128662109375,99.7943115234375,-64.0,737.0,-1803.0,0.643768310546875,0.022979736328125,0.009521484375,0.76483154296875,2.528952049543807,-1.311704840200618,93.29347869577904,0.6860987669000577,0.02346935972188027,0.008188913026700977,0.7270836354339896,1
1782117388.466444,0.225,1020.0,1025.0,1020.0,1022.0,1023.0,1025.0,1021.0,1022.0,1006.0,1022.0,1023.0,1025.0,1021.0,1022.0,1007.0,1020.0,1023.0,1023.0,1024.0,1021.0,1022.0,1007.0,1020.0,1021.0,1022.0,1023.0,1025.0,1021.0,1022.0,1006.0,1020.0,1020.0,1021.0,1022.0,1023.0,1025.0,1021.0,1023.0,1007.0,1020.0,1020.0,1020.0,1022.0,1023.0,1025.0,1021.0,1022.0,1007.0,1020.0,1020.0,1020.0,1019.0,1022.0,1023.0,1025.0,1021.0,1022.0,1007.0,1019.0,1020.0,1020.0,1019.0,1023.0,1023.0,1025.0,1022.0,1023.0,1007.0,1020.0,1021.0,1022.0,1020.0,1023.0,1023.0,1025.0,1022.0,1023.0,1007.0,1020.0,1021.0,1021.0,1019.0,1023.0,1023.0,1025.0,1021.0,1023.0,1007.0,1020.0,1020.0,1021.0,1019.0,1024.0,1023.0,1026.0,1021.0,1023.0,1007.0,1020.0,1020.0,1020.0,1019.0,1023.0,1023.0,1025.0,1021.0,1023.0,1007.0,1020.0,1020.0,1021.0,1019.0,1024.0,1024.0,1026.0,1022.0,1025.0,1009.0,1020.0,1022.0,1023.0,1024.0,1024.0,1026.0,1021.0,1025.0,1009.0,1020.0,1021.0,1024.0,1024.0,1025.0,1021.0,1023.0,1008.0,1020.0,1024.0,1024.0,1026.0,1022.0,1025.0,1009.0,1020.0,1024.0,1024.0,1025.0,1022.0,1025.0,1009.0,1020.0,1024.0,1024.0,1026.0,1021.0,1024.0,1008.0,1023.0,1024.0,1025.0,1021.0,1023.0,1009.0,1024.0,1024.0,1027.0,1022.0,1024.0,1010.0,1025.0,1026.0,1028.0,1023.0,1026.0,1011.0,1024.0,1025.0,1027.0,1022.0,1024.0,1009.0,1026.0,1027.0,1028.0,1023.0,1026.0,1012.0,1027.0,1029.0,1030.0,1024.0,1028.0,1014.0,1028.0,1029.0,1031.0,1024.0,1027.0,1014.0,1029.0,1029.0,1032.0,1024.0,1029.0,1017.0,1035.0,1033.0,1036.0,1026.0,1029.0,1021.0,1038.0,1038.0,1041.0,1030.0,1029.0,1028.0,1037.0,1036.0,1041.0,1028.0,1027.0,1029.0,1043.0,1040.0,1059.0,1033.0,1032.0,1109.0,1041.0,1039.0,1057.0,1031.0,1032.0,2282,2219,1901,	00:31:19.339,-0.00927734375,0.06298828125,1.02001953125,0.0,0.42724609375,0.1220703125,3.58154296875,0.5548095703125,-50.07568359375,37.0,-480.0,-4088.0,-0.905517578125,-0.030364990234375,0.00885009765625,0.423126220703125,3.582205879362546,0.5552091867338002,-54.28029883900222,-0.8893790683940042,-0.030022882728683777,0.009948122724913343,0.45607514081511047,1,	00:31:19.340,0.02197265625,0.0439453125,1.01953125,-0.244140625,0.244140625,0.42724609375,2.471923828125,-1.2359619140625,99.7998046875,-63.0,734.0,-1802.0,0.64373779296875,0.022125244140625,0.009521484375,0.764862060546875,2.470182483493348,-1.23715287461077,93.2991049450234,0.6860901758802652,0.02264425800885451,0.008263738355226867,0.7271170598797772,1
1782117388.477552,0.236,1020.0,1024.0,1020.0,1022.0,1023.0,1025.0,1021.0,1022.0,1007.0,1022.0,1024.0,1025.0,1021.0,1022.0,1007.0,1019.0,1022.0,1023.0,1024.0,1021.0,1022.0,1007.0,1020.0,1021.0,1022.0,1023.0,1025.0,1021.0,1021.0,1006.0,1020.0,1020.0,1020.0,1022.0,1023.0,1025.0,1021.0,1022.0,1007.0,1020.0,1021.0,1020.0,1023.0,1023.0,1025.0,1021.0,1022.0,1007.0,1020.0,1020.0,1020.0,1019.0,1023.0,1024.0,1024.0,1021.0,1022.0,1007.0,1020.0,1020.0,1020.0,1019.0,1023.0,1024.0,1025.0,1022.0,1023.0,1007.0,1020.0,1021.0,1021.0,1020.0,1023.0,1024.0,1025.0,1021.0,1023.0,1008.0,1020.0,1021.0,1022.0,1019.0,1023.0,1023.0,1025.0,1021.0,1023.0,1008.0,1020.0,1020.0,1021.0,1020.0,1023.0,1023.0,1025.0,1021.0,1023.0,1008.0,1020.0,1020.0,1021.0,1020.0,1024.0,1023.0,1025.0,1021.0,1023.0,1008.0,1020.0,1020.0,1021.0,1019.0,1024.0,1024.0,1025.0,1021.0,1025.0,1009.0,1021.0,1022.0,1023.0,1024.0,1024.0,1026.0,1022.0,1025.0,1009.0,1020.0,1022.0,1023.0,1024.0,1026.0,1022.0,1023.0,1008.0,1020.0,1024.0,1024.0,1026.0,1022.0,1026.0,1009.0,1020.0,1024.0,1024.0,1026.0,1022.0,1024.0,1009.0,1020.0,1024.0,1024.0,1026.0,1022.0,1024.0,1009.0,1023.0,1023.0,1025.0,1021.0,1023.0,1008.0,1024.0,1025.0,1026.0,1022.0,1024.0,1010.0,1025.0,1026.0,1027.0,1023.0,1026.0,1012.0,1023.0,1025.0,1026.0,1022.0,1023.0,1010.0,1026.0,1026.0,1028.0,1023.0,1026.0,1012.0,1027.0,1029.0,1030.0,1024.0,1028.0,1014.0,1028.0,1029.0,1031.0,1024.0,1027.0,1015.0,1029.0,1029.0,1032.0,1024.0,1028.0,1017.0,1035.0,1033.0,1036.0,1026.0,1029.0,1021.0,1039.0,1037.0,1042.0,1030.0,1029.0,1028.0,1038.0,1035.0,1041.0,1028.0,1027.0,1029.0,1043.0,1041.0,1060.0,1033.0,1032.0,1109.0,1040.0,1040.0,1057.0,1032.0,1032.0,2282,2219,1901,	00:31:19.349,-0.01025390625,0.0634765625,1.02001953125,0.0,0.3662109375,0.18310546875,3.515625,0.6207275390625,-50.0701904296875,34.0,-478.0,-4092.0,-0.905548095703125,-0.03009033203125,0.008056640625,0.423126220703125,3.5149577094778777,0.6209351576881218,-54.278932792674865,-0.8893913288738787,-0.029762490452509383,0.00916990999191922,0.45608460951534047,1,	00:31:19.351,0.021484375,0.044921875,1.01904296875,-0.244140625,0.18310546875,0.48828125,2.548828125,-1.1920166015625,99.8052978515625,-64.0,736.0,-1802.0,0.643707275390625,0.022247314453125,0.01031494140625,0.764862060546875,2.5473843005575008,-1.1903639661242125,93.30237283762605,0.6860635961578397,0.022809468631816966,0.009034528225323869,0.7271278068314075,1
1782117388.488589,0.247,1020.0,1025.0,1020.0,1022.0,1023.0,1025.0,1021.0,1022.0,1007.0,1022.0,1023.0,1025.0,1021.0,1022.0,1006.0,1020.0,1022.0,1023.0,1025.0,1021.0,1022.0,1007.0,1020.0,1020.0,1023.0,1023.0,1024.0,1021.0,1022.0,1006.0,1019.0,1020.0,1020.0,1023.0,1023.0,1025.0,1021.0,1022.0,1007.0,1020.0,1020.0,1020.0,1023.0,1023.0,1025.0,1021.0,1022.0,1007.0,1020.0,1020.0,1020.0,1019.0,1023.0,1023.0,1025.0,1021.0,1022.0,1006.0,1019.0,1020.0,1020.0,1019.0,1023.0,1024.0,1025.0,1021.0,1023.0,1007.0,1020.0,1021.0,1021.0,1020.0,1023.0,1024.0,1025.0,1021.0,1023.0,1007.0,1020.0,1021.0,1021.0,1020.0,1023.0,1024.0,1025.0,1021.0,1022.0,1007.0,1019.0,1021.0,1021.0,1020.0,1023.0,1024.0,1025.0,1021.0,1023.0,1007.0,1020.0,1020.0,1021.0,1019.0,1024.0,1024.0,1025.0,1021.0,1023.0,1008.0,1020.0,1020.0,1021.0,1019.0,1024.0,1024.0,1025.0,1022.0,1025.0,1009.0,1020.0,1022.0,1023.0,1024.0,1024.0,1026.0,1022.0,1025.0,1009.0,1020.0,1021.0,1024.0,1024.0,1025.0,1022.0,1023.0,1008.0,1019.0,1024.0,1025.0,1026.0,1022.0,1025.0,1009.0,1020.0,1024.0,1024.0,1026.0,1021.0,1025.0,1009.0,1020.0,1024.0,1024.0,1025.0,1022.0,1024.0,1009.0,1023.0,1024.0,1025.0,1021.0,1022.0,1007.0,1024.0,1024.0,1026.0,1022.0,1024.0,1010.0,1025.0,1026.0,1028.0,1022.0,1027.0,1011.0,1024.0,1024.0,1026.0,1022.0,1024.0,1009.0,1026.0,1027.0,1028.0,1023.0,1026.0,1011.0,1027.0,1029.0,1029.0,1024.0,1029.0,1014.0,1028.0,1029.0,1031.0,1024.0,1028.0,1014.0,1030.0,1030.0,1032.0,1024.0,1028.0,1017.0,1035.0,1033.0,1035.0,1026.0,1029.0,1021.0,1039.0,1038.0,1041.0,1029.0,1030.0,1028.0,1038.0,1035.0,1041.0,1028.0,1028.0,1029.0,1044.0,1041.0,1059.0,1032.0,1032.0,1109.0,1041.0,1039.0,1057.0,1032.0,1031.0,2282,2219,1901,	00:31:19.360,-0.0107421875,0.0634765625,1.0205078125,0.0,0.3662109375,0.1220703125,3.5980224609375,0.5877685546875,-50.0701904296875,37.0,-479.0,-4088.0,-0.905517578125,-0.030609130859375,0.008636474609375,0.423095703125,3.599108163331906,0.5884226490170854,-54.27660193287463,-0.8893839053911491,-0.030286490428621932,0.009756597836153562,0.4560524159867678,1,	00:31:19.361,0.021484375,0.044921875,1.0205078125,-0.244140625,0.18310546875,0.42724609375,2.4664306640625,-1.23046875,99.810791015625,-64.0,735.0,-1805.0,0.6436767578125,0.022064208984375,0.009521484375,0.764923095703125,2.4641952996242584,-1.2322503894431174,93.30842949518703,0.6860331740332616,0.0225766451929642,0.008256952011967586,0.7271730206499356,1
1782117388.497221,0.256,1020.0,1025.0,1020.0,1022.0,1023.0,1025.0,1021.0,1022.0,1007.0,1022.0,1023.0,1025.0,1021.0,1022.0,1007.0,1020.0,1023.0,1023.0,1024.0,1021.0,1022.0,1007.0,1020.0,1021.0,1022.0,1023.0,1025.0,1021.0,1022.0,1007.0,1019.0,1020.0,1020.0,1023.0,1023.0,1025.0,1021.0,1022.0,1007.0,1020.0,1020.0,1021.0,1023.0,1023.0,1025.0,1021.0,1022.0,1007.0,1020.0,1020.0,1021.0,1019.0,1023.0,1023.0,1025.0,1021.0,1022.0,1007.0,1019.0,1020.0,1020.0,1019.0,1023.0,1023.0,1025.0,1021.0,1023.0,1007.0,1020.0,1021.0,1021.0,1020.0,1023.0,1023.0,1025.0,1021.0,1023.0,1007.0,1020.0,1021.0,1021.0,1019.0,1023.0,1023.0,1025.0,1021.0,1022.0,1007.0,1020.0,1021.0,1021.0,1019.0,1024.0,1024.0,1025.0,1021.0,1023.0,1008.0,1020.0,1020.0,1021.0,1019.0,1023.0,1023.0,1025.0,1021.0,1023.0,1007.0,1019.0,1021.0,1021.0,1020.0,1024.0,1023.0,1025.0,1022.0,1025.0,1009.0,1020.0,1022.0,1023.0,1024.0,1024.0,1026.0,1021.0,1025.0,1008.0,1020.0,1021.0,1024.0,1024.0,1025.0,1021.0,1023.0,1008.0,1019.0,1024.0,1024.0,1026.0,1022.0,1026.0,1009.0,1020.0,1024.0,1024.0,1026.0,1021.0,1025.0,1009.0,1020.0,1024.0,1024.0,1026.0,1021.0,1024.0,1009.0,1024.0,1024.0,1025.0,1021.0,1022.0,1008.0,1024.0,1024.0,1026.0,1022.0,1024.0,1009.0,1025.0,1026.0,1028.0,1023.0,1026.0,1011.0,1024.0,1025.0,1027.0,1022.0,1024.0,1010.0,1026.0,1027.0,1028.0,1023.0,1025.0,1011.0,1027.0,1029.0,1030.0,1024.0,1028.0,1014.0,1028.0,1030.0,1031.0,1024.0,1027.0,1014.0,1029.0,1030.0,1033.0,1024.0,1028.0,1017.0,1035.0,1034.0,1036.0,1026.0,1028.0,1021.0,1039.0,1038.0,1042.0,1029.0,1029.0,1028.0,1038.0,1036.0,1042.0,1028.0,1027.0,1029.0,1044.0,1040.0,1060.0,1032.0,1032.0,1109.0,1042.0,1040.0,1057.0,1032.0,1031.0,2282,2219,1901,	00:31:19.370,-0.01025390625,0.06396484375,1.02099609375,-0.06103515625,0.42724609375,0.1220703125,3.5321044921875,0.52734375,-50.0701904296875,34.0,-477.0,-4086.0,-0.905548095703125,-0.029876708984375,0.008880615234375,0.423095703125,3.5335437831421346,0.5280997343663254,-54.27574799849068,-0.8894141710617623,-0.029537760076678365,0.009963712798186562,0.4560380219580885,1,	00:31:19.371,0.0234375,0.04443359375,1.0205078125,-0.244140625,0.18310546875,0.42724609375,2.493896484375,-1.318359375,99.8162841796875,-64.0,737.0,-1804.0,0.643646240234375,0.022796630859375,0.009246826171875,0.764923095703125,2.4920841672664396,-1.3170243556576051,93.31210272282709,0.6859870038324238,0.023281066469530664,0.007926902782768539,0.7271980381775848,1
1782117388.508085,0.266,1020.0,1024.0,1020.0,1022.0,1024.0,1025.0,1021.0,1022.0,1007.0,1022.0,1023.0,1025.0,1021.0,1022.0,1006.0,1020.0,1022.0,1023.0,1025.0,1021.0,1022.0,1006.0,1020.0,1020.0,1022.0,1023.0,1025.0,1021.0,1022.0,1006.0,1020.0,1020.0,1020.0,1022.0,1023.0,1025.0,1021.0,1022.0,1006.0,1019.0,1021.0,1021.0,1022.0,1023.0,1025.0,1021.0,1022.0,1006.0,1019.0,1020.0,1020.0,1019.0,1022.0,1023.0,1025.0,1021.0,1022.0,1006.0,1020.0,1020.0,1020.0,1018.0,1023.0,1023.0,1025.0,1022.0,1023.0,1007.0,1020.0,1020.0,1022.0,1020.0,1023.0,1023.0,1025.0,1021.0,1023.0,1007.0,1020.0,1020.0,1021.0,1020.0,1023.0,1023.0,1025.0,1021.0,1022.0,1007.0,1020.0,1020.0,1021.0,1019.0,1023.0,1023.0,1025.0,1022.0,1022.0,1007.0,1019.0,1020.0,1021.0,1019.0,1023.0,1024.0,1025.0,1021.0,1023.0,1008.0,1020.0,1021.0,1021.0,1020.0,1024.0,1024.0,1026.0,1022.0,1025.0,1009.0,1020.0,1022.0,1023.0,1024.0,1024.0,1026.0,1022.0,1025.0,1008.0,1020.0,1021.0,1024.0,1023.0,1026.0,1021.0,1023.0,1008.0,1020.0,1024.0,1024.0,1026.0,1022.0,1025.0,1009.0,1019.0,1024.0,1024.0,1026.0,1022.0,1024.0,1008.0,1020.0,1023.0,1024.0,1026.0,1022.0,1024.0,1009.0,1024.0,1024.0,1026.0,1021.0,1023.0,1008.0,1024.0,1024.0,1026.0,1022.0,1024.0,1010.0,1026.0,1026.0,1028.0,1023.0,1026.0,1012.0,1024.0,1024.0,1026.0,1022.0,1023.0,1009.0,1026.0,1027.0,1028.0,1023.0,1025.0,1012.0,1028.0,1029.0,1030.0,1024.0,1028.0,1014.0,1028.0,1029.0,1031.0,1024.0,1027.0,1014.0,1029.0,1030.0,1033.0,1025.0,1027.0,1016.0,1035.0,1033.0,1036.0,1026.0,1029.0,1021.0,1039.0,1038.0,1042.0,1030.0,1029.0,1028.0,1038.0,1036.0,1042.0,1028.0,1027.0,1029.0,1044.0,1041.0,1059.0,1033.0,1032.0,1108.0,1041.0,1040.0,1057.0,1033.0,1031.0,2283,2219,1901,	00:31:19.380,-0.009765625,0.0634765625,1.02001953125,0.06103515625,0.3662109375,0.1220703125,3.6090087890625,0.582275390625,-50.064697265625,36.0,-479.0,-4085.0,-0.905548095703125,-0.03070068359375,0.008697509765625,0.423065185546875,3.6089267169460233,0.5844893072823064,-54.273577766050316,-0.8893939915953901,-0.030347310692646175,0.009825405837969809,0.45602722489766173,1,	00:31:19.381,0.021484375,0.0439453125,1.02099609375,-0.244140625,0.18310546875,0.42724609375,2.4664306640625,-1.2249755859375,99.82177734375,-63.0,733.0,-1802.0,0.64361572265625,0.022064208984375,0.00958251953125,0.76495361328125,2.467816879520933,-1.226365480474357,93.31693218361782,0.6859796843752057,0.022560381656148144,0.008316856603713554,0.7272233025008586,1
1782117388.517960,0.276,1020.0,1024.0,1020.0,1022.0,1023.0,1025.0,1021.0,1021.0,1007.0,1023.0,1023.0,1025.0,1021.0,1022.0,1007.0,1020.0,1022.0,1024.0,1025.0,1021.0,1022.0,1007.0,1020.0,1021.0,1023.0,1023.0,1025.0,1021.0,1022.0,1007.0,1020.0,1020.0,1020.0,1022.0,1023.0,1025.0,1021.0,1022.0,1007.0,1019.0,1020.0,1020.0,1023.0,1023.0,1025.0,1021.0,1021.0,1006.0,1019.0,1021.0,1020.0,1019.0,1023.0,1023.0,1025.0,1021.0,1022.0,1006.0,1020.0,1020.0,1021.0,1019.0,1023.0,1023.0,1025.0,1021.0,1023.0,1007.0,1020.0,1021.0,1021.0,1020.0,1022.0,1023.0,1026.0,1021.0,1022.0,1007.0,1019.0,1021.0,1021.0,1020.0,1023.0,1023.0,1025.0,1021.0,1023.0,1007.0,1019.0,1021.0,1021.0,1019.0,1023.0,1024.0,1025.0,1021.0,1023.0,1007.0,1020.0,1020.0,1021.0,1019.0,1023.0,1023.0,1025.0,1021.0,1023.0,1008.0,1020.0,1020.0,1021.0,1019.0,1024.0,1024.0,1026.0,1022.0,1024.0,1009.0,1020.0,1022.0,1023.0,1024.0,1024.0,1025.0,1022.0,1024.0,1009.0,1020.0,1021.0,1024.0,1024.0,1026.0,1022.0,1023.0,1008.0,1020.0,1024.0,1024.0,1026.0,1022.0,1025.0,1009.0,1021.0,1024.0,1024.0,1026.0,1022.0,1024.0,1009.0,1020.0,1024.0,1024.0,1026.0,1021.0,1024.0,1009.0,1024.0,1024.0,1026.0,1021.0,1022.0,1008.0,1024.0,1025.0,1027.0,1022.0,1024.0,1010.0,1025.0,1026.0,1028.0,1023.0,1026.0,1011.0,1024.0,1024.0,1027.0,1022.0,1023.0,1010.0,1026.0,1027.0,1028.0,1023.0,1025.0,1012.0,1027.0,1028.0,1030.0,1024.0,1027.0,1014.0,1028.0,1029.0,1031.0,1024.0,1028.0,1015.0,1029.0,1030.0,1033.0,1025.0,1028.0,1017.0,1035.0,1034.0,1036.0,1026.0,1028.0,1021.0,1038.0,1038.0,1042.0,1029.0,1029.0,1028.0,1037.0,1036.0,1042.0,1028.0,1027.0,1029.0,1044.0,1041.0,1060.0,1033.0,1031.0,1109.0,1041.0,1040.0,1057.0,1033.0,1031.0,2283,2219,1901,	00:31:19.391,-0.01025390625,0.06396484375,1.02099609375,0.0,0.3662109375,0.1220703125,3.526611328125,0.5548095703125,-50.064697265625,35.0,-478.0,-4087.0,-0.905548095703125,-0.0299072265625,0.008636474609375,0.423065185546875,3.524704853767666,0.5523240859527855,-54.27296448746029,-0.8894236722877681,-0.029565743729133877,0.009739770635162235,0.4560225157159,1,	00:31:19.392,0.0224609375,0.0439453125,1.02001953125,-0.244140625,0.18310546875,0.42724609375,2.4609375,-1.318359375,99.82177734375,-64.0,738.0,-1802.0,0.643585205078125,0.022613525390625,0.009033203125,0.764984130859375,2.4629047528606014,-1.3163421204913652,93.32133519432395,0.685934458185738,0.023101435462755348,0.0077476775194845,0.7272552620958148,1
1782117388.527963,0.286,1020.0,1024.0,1020.0,1022.0,1023.0,1025.0,1021.0,1021.0,1007.0,1022.0,1023.0,1025.0,1021.0,1021.0,1007.0,1019.0,1022.0,1023.0,1025.0,1021.0,1022.0,1007.0,1019.0,1020.0,1022.0,1023.0,1025.0,1021.0,1021.0,1006.0,1020.0,1020.0,1020.0,1023.0,1024.0,1025.0,1021.0,1022.0,1007.0,1020.0,1020.0,1021.0,1023.0,1023.0,1025.0,1021.0,1022.0,1007.0,1020.0,1020.0,1020.0,1019.0,1022.0,1023.0,1025.0,1021.0,1022.0,1006.0,1020.0,1020.0,1021.0,1019.0,1023.0,1023.0,1025.0,1021.0,1023.0,1007.0,1020.0,1021.0,1021.0,1020.0,1023.0,1023.0,1026.0,1022.0,1023.0,1007.0,1020.0,1020.0,1021.0,1020.0,1023.0,1023.0,1025.0,1021.0,1022.0,1008.0,1020.0,1020.0,1021.0,1019.0,1024.0,1024.0,1026.0,1021.0,1023.0,1007.0,1019.0,1020.0,1021.0,1019.0,1023.0,1023.0,1026.0,1021.0,1023.0,1008.0,1020.0,1021.0,1021.0,1018.0,1024.0,1024.0,1026.0,1021.0,1025.0,1009.0,1020.0,1022.0,1023.0,1024.0,1024.0,1026.0,1021.0,1024.0,1009.0,1020.0,1021.0,1024.0,1023.0,1026.0,1022.0,1023.0,1008.0,1020.0,1024.0,1025.0,1026.0,1022.0,1025.0,1009.0,1020.0,1024.0,1024.0,1026.0,1021.0,1024.0,1008.0,1020.0,1024.0,1024.0,1026.0,1022.0,1024.0,1009.0,1023.0,1024.0,1025.0,1021.0,1022.0,1009.0,1024.0,1024.0,1026.0,1022.0,1024.0,1010.0,1025.0,1026.0,1028.0,1023.0,1026.0,1011.0,1024.0,1025.0,1027.0,1022.0,1023.0,1010.0,1025.0,1026.0,1028.0,1023.0,1025.0,1012.0,1027.0,1028.0,1030.0,1024.0,1028.0,1014.0,1028.0,1029.0,1031.0,1024.0,1027.0,1015.0,1029.0,1030.0,1033.0,1025.0,1028.0,1017.0,1035.0,1033.0,1036.0,1026.0,1028.0,1021.0,1039.0,1038.0,1041.0,1030.0,1030.0,1029.0,1038.0,1036.0,1042.0,1028.0,1026.0,1028.0,1044.0,1041.0,1060.0,1033.0,1031.0,1109.0,1041.0,1039.0,1057.0,1033.0,1031.0,2283,2219,1901,	00:31:19.401,-0.01025390625,0.06396484375,1.01953125,0.06103515625,0.42724609375,0.18310546875,3.6090087890625,0.5877685546875,-50.064697265625,35.0,-477.0,-4083.0,-0.905548095703125,-0.030731201171875,0.008697509765625,0.42303466796875,3.6117323030433983,0.586610450446505,-54.27001535416102,-0.8894070746434667,-0.030377827277639817,0.009819160734813289,0.4559998105991981,1,	00:31:19.402,0.02197265625,0.04345703125,1.0205078125,-0.30517578125,0.244140625,0.48828125,2.4334716796875,-1.2249755859375,99.8272705078125,-64.0,736.0,-1804.0,0.6435546875,0.0218505859375,0.009368896484375,0.7650146484375,2.4340803964448887,-1.2261541942663499,93.32688660923525,0.6859231628081016,0.022356379534930155,0.00810596463164685,0.7272852950217068,1
1782117388.538829,0.297,1020.0,1024.0,1020.0,1022.0,1023.0,1024.0,1020.0,1021.0,1007.0,1023.0,1023.0,1025.0,1021.0,1021.0,1006.0,1019.0,1022.0,1023.0,1025.0,1021.0,1022.0,1007.0,1019.0,1020.0,1023.0,1023.0,1025.0,1021.0,1022.0,1007.0,1020.0,1020.0,1020.0,1023.0,1023.0,1025.0,1021.0,1022.0,1007.0,1020.0,1020.0,1021.0,1022.0,1023.0,1024.0,1021.0,1022.0,1007.0,1020.0,1020.0,1020.0,1019.0,1023.0,1023.0,1025.0,1021.0,1022.0,1007.0,1020.0,1021.0,1020.0,1019.0,1023.0,1023.0,1025.0,1021.0,1023.0,1007.0,1020.0,1021.0,1022.0,1020.0,1023.0,1024.0,1026.0,1021.0,1022.0,1007.0,1020.0,1020.0,1021.0,1019.0,1023.0,1023.0,1025.0,1021.0,1023.0,1008.0,1019.0,1021.0,1021.0,1019.0,1023.0,1023.0,1025.0,1021.0,1022.0,1007.0,1020.0,1021.0,1021.0,1019.0,1023.0,1023.0,1025.0,1021.0,1023.0,1007.0,1019.0,1021.0,1021.0,1019.0,1024.0,1024.0,1025.0,1022.0,1025.0,1009.0,1020.0,1022.0,1023.0,1024.0,1024.0,1026.0,1022.0,1024.0,1008.0,1020.0,1022.0,1023.0,1023.0,1026.0,1022.0,1023.0,1008.0,1020.0,1024.0,1024.0,1026.0,1022.0,1026.0,1009.0,1020.0,1024.0,1024.0,1026.0,1021.0,1024.0,1009.0,1019.0,1023.0,1024.0,1026.0,1022.0,1024.0,1009.0,1023.0,1024.0,1026.0,1022.0,1022.0,1008.0,1024.0,1024.0,1026.0,1022.0,1024.0,1009.0,1025.0,1026.0,1028.0,1024.0,1026.0,1011.0,1024.0,1024.0,1027.0,1022.0,1024.0,1010.0,1026.0,1027.0,1028.0,1024.0,1025.0,1012.0,1027.0,1028.0,1029.0,1024.0,1028.0,1014.0,1028.0,1029.0,1031.0,1024.0,1027.0,1015.0,1029.0,1029.0,1032.0,1025.0,1028.0,1017.0,1035.0,1033.0,1036.0,1026.0,1028.0,1022.0,1038.0,1037.0,1042.0,1030.0,1029.0,1029.0,1037.0,1036.0,1042.0,1028.0,1028.0,1030.0,1043.0,1041.0,1060.0,1033.0,1031.0,1110.0,1040.0,1040.0,1057.0,1032.0,1031.0,2283,2219,1901,	00:31:19.411,-0.009765625,0.064453125,1.01953125,0.06103515625,0.42724609375,0.1220703125,3.62548828125,0.4998779296875,-50.0592041015625,34.0,-477.0,-4087.0,-0.905548095703125,-0.030517578125,0.009429931640625,0.423004150390625,3.6254176722000335,0.5000591940593772,-54.26840448161895,-0.8894239324578381,-0.030139987109657696,0.01054507289114994,0.455966502043719,1,	00:31:19.412,0.02294921875,0.04345703125,1.0205078125,-0.30517578125,0.18310546875,0.48828125,2.43896484375,-1.318359375,99.832763671875,-64.0,736.0,-1804.0,0.643524169921875,0.022491455078125,0.008880615234375,0.765045166015625,2.4373917606488242,-1.3159479018785223,93.33170279366018,0.6858738639551393,0.02294552909839601,0.007590196148365562,0.7273190045365729,1
1782117388.548473,0.307,1020.0,1025.0,1020.0,1022.0,1023.0,1025.0,1021.0,1021.0,1007.0,1021.0,1022.0,1025.0,1021.0,1022.0,1007.0,1020.0,1023.0,1023.0,1025.0,1021.0,1021.0,1007.0,1020.0,1021.0,1022.0,1023.0,1025.0,1021.0,1021.0,1006.0,1020.0,1020.0,1021.0,1022.0,1023.0,1025.0,1021.0,1022.0,1007.0,1020.0,1020.0,1021.0,1022.0,1023.0,1025.0,1021.0,1021.0,1007.0,1020.0,1020.0,1020.0,1018.0,1023.0,1023.0,1025.0,1021.0,1022.0,1007.0,1020.0,1020.0,1020.0,1019.0,1023.0,1024.0,1025.0,1021.0,1023.0,1008.0,1020.0,1021.0,1021.0,1020.0,1024.0,1023.0,1025.0,1021.0,1023.0,1008.0,1020.0,1020.0,1021.0,1020.0,1023.0,1023.0,1025.0,1021.0,1022.0,1008.0,1020.0,1021.0,1021.0,1019.0,1023.0,1023.0,1025.0,1021.0,1023.0,1008.0,1020.0,1021.0,1021.0,1019.0,1024.0,1024.0,1025.0,1021.0,1023.0,1008.0,1019.0,1020.0,1020.0,1019.0,1024.0,1024.0,1026.0,1022.0,1025.0,1009.0,1020.0,1022.0,1023.0,1024.0,1024.0,1026.0,1022.0,1024.0,1009.0,1020.0,1021.0,1024.0,1024.0,1025.0,1022.0,1023.0,1008.0,1019.0,1024.0,1024.0,1026.0,1022.0,1025.0,1009.0,1020.0,1024.0,1024.0,1026.0,1022.0,1024.0,1009.0,1020.0,1024.0,1024.0,1026.0,1022.0,1024.0,1009.0,1023.0,1024.0,1026.0,1022.0,1022.0,1009.0,1024.0,1024.0,1026.0,1022.0,1024.0,1010.0,1025.0,1026.0,1028.0,1023.0,1026.0,1011.0,1024.0,1025.0,1026.0,1022.0,1023.0,1010.0,1026.0,1026.0,1028.0,1023.0,1025.0,1012.0,1027.0,1028.0,1029.0,1024.0,1028.0,1014.0,1028.0,1029.0,1031.0,1024.0,1027.0,1015.0,1029.0,1030.0,1032.0,1024.0,1027.0,1017.0,1035.0,1033.0,1036.0,1027.0,1028.0,1022.0,1039.0,1038.0,1042.0,1030.0,1028.0,1028.0,1038.0,1036.0,1042.0,1029.0,1027.0,1029.0,1043.0,1040.0,1060.0,1033.0,1031.0,1110.0,1041.0,1040.0,1057.0,1032.0,1031.0,2283,2219,1901,	00:31:19.421,-0.00927734375,0.0634765625,1.0205078125,0.0,0.42724609375,0.1220703125,3.53759765625,0.5328369140625,-50.0592041015625,36.0,-475.0,-4089.0,-0.90557861328125,-0.029937744140625,0.008880615234375,0.42303466796875,3.5377451764583405,0.5304829743328986,-54.267704491225864,-0.8894447176436033,-0.02958054804530027,0.009959856243980754,0.4559757523123678,1,	00:31:19.422,0.02294921875,0.04345703125,1.02099609375,-0.30517578125,0.18310546875,0.48828125,2.4334716796875,-1.2249755859375,99.8382568359375,-63.0,736.0,-1806.0,0.64349365234375,0.021820068359375,0.009368896484375,0.76507568359375,2.4337278404027587,-1.2226770342108946,93.33666891974879,0.6858618342396158,0.022331516301207856,0.008126457085146343,0.7273436659574357,1
1782117388.558153,0.316,1020.0,1025.0,1020.0,1022.0,1023.0,1024.0,1021.0,1021.0,1006.0,1022.0,1023.0,1025.0,1021.0,1022.0,1007.0,1020.0,1023.0,1023.0,1025.0,1021.0,1021.0,1007.0,1020.0,1020.0,1022.0,1023.0,1025.0,1021.0,1022.0,1007.0,1019.0,1021.0,1020.0,1022.0,1023.0,1025.0,1021.0,1022.0,1007.0,1019.0,1020.0,1020.0,1023.0,1023.0,1025.0,1021.0,1022.0,1006.0,1020.0,1020.0,1020.0,1018.0,1023.0,1023.0,1026.0,1022.0,1022.0,1007.0,1020.0,1020.0,1020.0,1019.0,1023.0,1024.0,1025.0,1021.0,1022.0,1007.0,1020.0,1021.0,1021.0,1020.0,1023.0,1024.0,1025.0,1021.0,1022.0,1007.0,1020.0,1021.0,1021.0,1019.0,1023.0,1023.0,1025.0,1022.0,1022.0,1007.0,1020.0,1021.0,1021.0,1020.0,1024.0,1023.0,1025.0,1022.0,1023.0,1007.0,1020.0,1020.0,1021.0,1019.0,1023.0,1023.0,1025.0,1021.0,1022.0,1008.0,1020.0,1020.0,1021.0,1019.0,1024.0,1024.0,1025.0,1022.0,1025.0,1008.0,1020.0,1022.0,1023.0,1024.0,1024.0,1026.0,1021.0,1025.0,1009.0,1020.0,1021.0,1024.0,1024.0,1025.0,1021.0,1023.0,1008.0,1019.0,1024.0,1024.0,1026.0,1022.0,1025.0,1009.0,1020.0,1024.0,1024.0,1025.0,1022.0,1024.0,1009.0,1020.0,1023.0,1024.0,1026.0,1022.0,1024.0,1009.0,1023.0,1024.0,1025.0,1021.0,1022.0,1008.0,1024.0,1024.0,1027.0,1023.0,1024.0,1009.0,1025.0,1026.0,1028.0,1023.0,1027.0,1012.0,1024.0,1024.0,1026.0,1022.0,1023.0,1010.0,1026.0,1026.0,1028.0,1023.0,1025.0,1012.0,1027.0,1029.0,1030.0,1024.0,1027.0,1014.0,1028.0,1029.0,1030.0,1024.0,1027.0,1015.0,1029.0,1030.0,1032.0,1025.0,1028.0,1017.0,1034.0,1033.0,1036.0,1026.0,1028.0,1022.0,1038.0,1038.0,1042.0,1030.0,1029.0,1028.0,1038.0,1036.0,1042.0,1028.0,1027.0,1030.0,1043.0,1041.0,1059.0,1033.0,1032.0,1108.0,1040.0,1040.0,1057.0,1032.0,1031.0,2283,2219,1901,	00:31:19.431,-0.009765625,0.0634765625,1.0205078125,0.06103515625,0.42724609375,0.1220703125,3.6090087890625,0.59326171875,-50.0592041015625,37.0,-481.0,-4086.0,-0.905548095703125,-0.030731201171875,0.0086669921875,0.423004150390625,3.610643409247766,0.5908448901346415,-54.26551492666383,-0.8894245715829181,-0.030386599621471846,0.009780763030833195,0.4559659227426118,1,	00:31:19.433,0.0224609375,0.04345703125,1.0205078125,-0.30517578125,0.18310546875,0.48828125,2.4444580078125,-1.3128662109375,99.84375,-64.0,736.0,-1805.0,0.643463134765625,0.022491455078125,0.008941650390625,0.765106201171875,2.442024762562258,-1.3119757635930047,93.34137522595863,0.6858123517527193,0.022947414361957942,0.007645326087503869,0.7273763698021272,1
1782117388.569061,0.327,1020.0,1024.0,1021.0,1021.0,1023.0,1024.0,1021.0,1022.0,1007.0,1023.0,1023.0,1024.0,1021.0,1022.0,1007.0,1020.0,1023.0,1023.0,1024.0,1021.0,1023.0,1007.0,1020.0,1020.0,1022.0,1023.0,1025.0,1022.0,1022.0,1006.0,1020.0,1019.0,1020.0,1022.0,1023.0,1025.0,1021.0,1022.0,1007.0,1020.0,1020.0,1020.0,1023.0,1023.0,1024.0,1021.0,1022.0,1007.0,1019.0,1020.0,1021.0,1019.0,1023.0,1023.0,1025.0,1021.0,1022.0,1007.0,1020.0,1020.0,1021.0,1019.0,1023.0,1023.0,1025.0,1022.0,1023.0,1007.0,1020.0,1021.0,1021.0,1020.0,1023.0,1023.0,1025.0,1021.0,1023.0,1007.0,1020.0,1021.0,1021.0,1020.0,1024.0,1023.0,1025.0,1021.0,1023.0,1008.0,1020.0,1020.0,1021.0,1019.0,1023.0,1024.0,1025.0,1021.0,1023.0,1007.0,1020.0,1020.0,1021.0,1018.0,1023.0,1023.0,1025.0,1021.0,1023.0,1008.0,1019.0,1020.0,1021.0,1019.0,1024.0,1024.0,1026.0,1022.0,1025.0,1009.0,1020.0,1022.0,1023.0,1024.0,1024.0,1026.0,1021.0,1025.0,1009.0,1020.0,1022.0,1023.0,1023.0,1026.0,1021.0,1023.0,1008.0,1020.0,1024.0,1024.0,1026.0,1022.0,1025.0,1009.0,1020.0,1024.0,1023.0,1026.0,1022.0,1024.0,1009.0,1020.0,1024.0,1024.0,1026.0,1022.0,1024.0,1008.0,1023.0,1023.0,1026.0,1022.0,1022.0,1008.0,1024.0,1024.0,1026.0,1022.0,1024.0,1010.0,1025.0,1026.0,1028.0,1023.0,1026.0,1012.0,1024.0,1024.0,1027.0,1022.0,1023.0,1010.0,1026.0,1026.0,1028.0,1023.0,1026.0,1011.0,1027.0,1028.0,1030.0,1024.0,1028.0,1014.0,1028.0,1029.0,1031.0,1024.0,1027.0,1015.0,1029.0,1030.0,1033.0,1024.0,1028.0,1017.0,1035.0,1033.0,1036.0,1026.0,1028.0,1021.0,1038.0,1038.0,1042.0,1030.0,1029.0,1029.0,1038.0,1036.0,1042.0,1028.0,1027.0,1029.0,1043.0,1041.0,1058.0,1032.0,1031.0,1109.0,1040.0,1039.0,1057.0,1032.0,1031.0,2283,2219,1901,	00:31:19.442,-0.0107421875,0.06396484375,1.02001953125,0.1220703125,0.3662109375,0.06103515625,3.5321044921875,0.63720703125,-50.0592041015625,37.0,-479.0,-4087.0,-0.90557861328125,-0.030242919921875,0.00799560546875,0.42303466796875,3.5302348885312567,0.6359157321776102,-54.26554855811959,-0.889438143183379,-0.029941711664618297,0.0091109275803581,0.455982756638583,1,	00:31:19.443,0.02294921875,0.0439453125,1.02001953125,-0.3662109375,0.18310546875,0.48828125,2.5048828125,-1.2469482421875,99.8492431640625,-64.0,735.0,-1800.0,0.6434326171875,0.02239990234375,0.00970458984375,0.765106201171875,2.5038761698892675,-1.2463443881783087,93.34486566523638,0.6857911981245516,0.02290092146512594,0.0084316211452986,0.7273890899207948,1
1782117388.580492,0.339,1020.0,1024.0,1020.0,1022.0,1023.0,1024.0,1021.0,1022.0,1007.0,1022.0,1022.0,1024.0,1021.0,1022.0,1007.0,1019.0,1022.0,1023.0,1025.0,1022.0,1022.0,1007.0,1020.0,1020.0,1022.0,1023.0,1025.0,1021.0,1022.0,1007.0,1019.0,1020.0,1020.0,1023.0,1022.0,1025.0,1021.0,1022.0,1007.0,1020.0,1020.0,1021.0,1023.0,1022.0,1025.0,1021.0,1021.0,1007.0,1019.0,1020.0,1020.0,1019.0,1023.0,1023.0,1024.0,1021.0,1022.0,1007.0,1020.0,1020.0,1020.0,1019.0,1024.0,1023.0,1025.0,1021.0,1023.0,1008.0,1020.0,1021.0,1021.0,1020.0,1023.0,1023.0,1025.0,1022.0,1023.0,1008.0,1020.0,1021.0,1021.0,1020.0,1023.0,1023.0,1025.0,1022.0,1022.0,1008.0,1020.0,1020.0,1021.0,1019.0,1023.0,1023.0,1025.0,1022.0,1022.0,1008.0,1020.0,1020.0,1021.0,1019.0,1024.0,1023.0,1025.0,1021.0,1023.0,1008.0,1020.0,1021.0,1021.0,1019.0,1024.0,1024.0,1026.0,1022.0,1025.0,1009.0,1020.0,1022.0,1023.0,1024.0,1023.0,1025.0,1022.0,1025.0,1009.0,1020.0,1021.0,1024.0,1023.0,1025.0,1022.0,1023.0,1008.0,1020.0,1024.0,1024.0,1026.0,1022.0,1024.0,1009.0,1020.0,1024.0,1024.0,1026.0,1022.0,1024.0,1009.0,1020.0,1024.0,1024.0,1026.0,1022.0,1024.0,1009.0,1023.0,1023.0,1025.0,1022.0,1022.0,1008.0,1024.0,1024.0,1026.0,1023.0,1024.0,1009.0,1025.0,1025.0,1028.0,1023.0,1026.0,1012.0,1024.0,1024.0,1027.0,1023.0,1023.0,1009.0,1026.0,1027.0,1028.0,1023.0,1025.0,1012.0,1027.0,1028.0,1030.0,1024.0,1027.0,1014.0,1027.0,1029.0,1031.0,1024.0,1027.0,1015.0,1029.0,1029.0,1033.0,1025.0,1027.0,1017.0,1035.0,1033.0,1036.0,1026.0,1028.0,1021.0,1038.0,1037.0,1042.0,1029.0,1028.0,1028.0,1037.0,1036.0,1042.0,1028.0,1026.0,1029.0,1043.0,1041.0,1059.0,1033.0,1031.0,1109.0,1041.0,1039.0,1057.0,1032.0,1030.0,2283,2220,1901,	00:31:19.452,-0.009765625,0.06494140625,1.02001953125,0.06103515625,0.3662109375,0.18310546875,3.603515625,0.582275390625,-50.0537109375,35.0,-477.0,-4087.0,-0.90557861328125,-0.0306396484375,0.008697509765625,0.4229736328125,3.6029044325077626,0.5828870865495936,-54.26272954786211,-0.8894390165481838,-0.030295125862362278,0.009811009245142817,0.4559431820834421,1,	00:31:19.453,0.0224609375,0.0439453125,1.01953125,-0.3662109375,0.18310546875,0.42724609375,2.4169921875,-1.2799072265625,99.854736328125,-64.0,737.0,-1801.0,0.643402099609375,0.0220947265625,0.008941650390625,0.765167236328125,2.415224484845546,-1.2792270855624497,93.35108717179155,0.6857626479246527,0.02257858719374266,0.00767322043198913,0.7274344780115289,1
1782117388.592704,0.351,1020.0,1024.0,1020.0,1022.0,1023.0,1025.0,1020.0,1022.0,1008.0,1022.0,1023.0,1025.0,1021.0,1022.0,1007.0,1020.0,1022.0,1023.0,1025.0,1021.0,1022.0,1007.0,1020.0,1021.0,1022.0,1023.0,1025.0,1021.0,1022.0,1006.0,1020.0,1020.0,1020.0,1022.0,1022.0,1025.0,1021.0,1022.0,1007.0,1020.0,1020.0,1021.0,1023.0,1023.0,1025.0,1021.0,1022.0,1007.0,1019.0,1019.0,1020.0,1019.0,1023.0,1023.0,1025.0,1021.0,1022.0,1007.0,1020.0,1020.0,1020.0,1019.0,1023.0,1023.0,1025.0,1021.0,1023.0,1007.0,1020.0,1021.0,1021.0,1020.0,1024.0,1023.0,1025.0,1021.0,1023.0,1008.0,1020.0,1021.0,1021.0,1019.0,1023.0,1023.0,1025.0,1021.0,1023.0,1007.0,1020.0,1021.0,1020.0,1019.0,1023.0,1023.0,1025.0,1021.0,1023.0,1007.0,1020.0,1020.0,1021.0,1019.0,1023.0,1023.0,1025.0,1021.0,1023.0,1008.0,1020.0,1020.0,1022.0,1019.0,1024.0,1024.0,1026.0,1022.0,1025.0,1009.0,1020.0,1022.0,1023.0,1024.0,1024.0,1026.0,1021.0,1024.0,1009.0,1020.0,1021.0,1024.0,1023.0,1026.0,1022.0,1023.0,1008.0,1020.0,1024.0,1023.0,1026.0,1022.0,1025.0,1009.0,1020.0,1024.0,1024.0,1026.0,1022.0,1024.0,1009.0,1020.0,1024.0,1024.0,1027.0,1021.0,1023.0,1009.0,1023.0,1023.0,1026.0,1021.0,1022.0,1008.0,1024.0,1024.0,1026.0,1022.0,1024.0,1010.0,1026.0,1026.0,1028.0,1023.0,1026.0,1012.0,1024.0,1024.0,1026.0,1022.0,1023.0,1010.0,1026.0,1027.0,1028.0,1023.0,1025.0,1012.0,1028.0,1028.0,1030.0,1024.0,1027.0,1014.0,1028.0,1028.0,1031.0,1024.0,1027.0,1015.0,1030.0,1029.0,1032.0,1024.0,1027.0,1017.0,1036.0,1033.0,1036.0,1026.0,1028.0,1022.0,1040.0,1036.0,1042.0,1029.0,1029.0,1029.0,1038.0,1035.0,1042.0,1028.0,1026.0,1029.0,1043.0,1039.0,1058.0,1033.0,1031.0,1108.0,1041.0,1039.0,1056.0,1032.0,1030.0,2283,2220,1901,	00:31:19.462,-0.01025390625,0.0634765625,1.0205078125,0.06103515625,0.42724609375,0.18310546875,3.515625,0.5712890625,-50.0537109375,37.0,-477.0,-4088.0,-0.905609130859375,-0.029876708984375,0.008453369140625,0.4229736328125,3.5136567412840614,0.5699060105566455,-54.26153765584322,-0.8894691746138814,-0.029550872244911864,0.00955637079491223,0.4559386023781003,1,	00:31:19.463,0.02197265625,0.0439453125,1.0205078125,-0.3662109375,0.18310546875,0.48828125,2.4774169921875,-1.2139892578125,99.8602294921875,-66.0,735.0,-1802.0,0.64337158203125,0.02203369140625,0.009735107421875,0.765167236328125,2.478635695181908,-1.2152321077513346,93.35457951379935,0.6857408349676006,0.022551744196511004,0.008459604844181415,0.7274471535290472,1
1782117388.599798,0.358,1021.0,1025.0,1020.0,1022.0,1022.0,1025.0,1021.0,1021.0,1007.0,1022.0,1023.0,1024.0,1021.0,1022.0,1007.0,1020.0,1023.0,1022.0,1025.0,1021.0,1022.0,1007.0,1020.0,1021.0,1023.0,1023.0,1025.0,1021.0,1022.0,1007.0,1019.0,1020.0,1020.0,1023.0,1023.0,1025.0,1021.0,1022.0,1007.0,1020.0,1020.0,1020.0,1023.0,1024.0,1025.0,1021.0,1021.0,1007.0,1019.0,1021.0,1020.0,1019.0,1023.0,1023.0,1025.0,1021.0,1022.0,1007.0,1020.0,1020.0,1021.0,1019.0,1023.0,1024.0,1025.0,1021.0,1022.0,1008.0,1020.0,1021.0,1022.0,1020.0,1023.0,1024.0,1025.0,1022.0,1023.0,1007.0,1020.0,1021.0,1022.0,1019.0,1024.0,1023.0,1025.0,1021.0,1022.0,1008.0,1020.0,1021.0,1020.0,1019.0,1024.0,1023.0,1025.0,1021.0,1023.0,1008.0,1020.0,1020.0,1021.0,1019.0,1023.0,1024.0,1025.0,1021.0,1023.0,1008.0,1020.0,1021.0,1021.0,1019.0,1024.0,1024.0,1025.0,1022.0,1025.0,1009.0,1020.0,1022.0,1022.0,1024.0,1023.0,1026.0,1022.0,1025.0,1009.0,1020.0,1021.0,1023.0,1024.0,1026.0,1022.0,1023.0,1008.0,1019.0,1024.0,1024.0,1026.0,1022.0,1025.0,1010.0,1020.0,1024.0,1024.0,1026.0,1022.0,1024.0,1009.0,1020.0,1024.0,1024.0,1026.0,1022.0,1024.0,1009.0,1023.0,1023.0,1025.0,1021.0,1022.0,1009.0,1024.0,1024.0,1026.0,1022.0,1024.0,1009.0,1025.0,1025.0,1028.0,1023.0,1026.0,1012.0,1024.0,1024.0,1027.0,1022.0,1024.0,1010.0,1026.0,1027.0,1028.0,1023.0,1025.0,1012.0,1028.0,1028.0,1029.0,1024.0,1027.0,1014.0,1028.0,1029.0,1031.0,1024.0,1027.0,1015.0,1029.0,1029.0,1032.0,1025.0,1028.0,1017.0,1035.0,1033.0,1036.0,1026.0,1028.0,1021.0,1038.0,1036.0,1041.0,1030.0,1029.0,1029.0,1037.0,1035.0,1040.0,1029.0,1026.0,1028.0,1043.0,1040.0,1058.0,1033.0,1031.0,1109.0,1040.0,1039.0,1056.0,1033.0,1031.0,2283,2220,1901,	00:31:19.473,-0.0107421875,0.064453125,1.02001953125,0.1220703125,0.3662109375,0.18310546875,3.603515625,0.5987548828125,-50.0537109375,38.0,-478.0,-4087.0,-0.90557861328125,-0.03070068359375,0.008544921875,0.4229736328125,3.6021324767185217,0.6010620980839187,-54.25859386403048,-0.8894526733857618,-0.030361753172665398,0.009665747531982781,0.45591521040194716,1,	00:31:19.474,0.02294921875,0.044921875,1.01953125,-0.3662109375,0.18310546875,0.48828125,2.5213623046875,-1.2908935546875,99.8602294921875,-63.0,736.0,-1804.0,0.643310546875,0.022796630859375,0.00958251953125,0.76519775390625,2.5223531516267896,-1.2919461184914218,93.3585015760709,0.6856915407400488,0.02329984611570113,0.008278630892678138,0.7274721248261444,1
1782117388.611107,0.369,1020.0,1025.0,1021.0,1022.0,1022.0,1025.0,1021.0,1021.0,1006.0,1022.0,1023.0,1024.0,1022.0,1022.0,1006.0,1019.0,1023.0,1023.0,1024.0,1021.0,1022.0,1007.0,1019.0,1020.0,1022.0,1022.0,1025.0,1021.0,1021.0,1007.0,1019.0,1020.0,1020.0,1023.0,1022.0,1025.0,1022.0,1022.0,1007.0,1020.0,1020.0,1020.0,1023.0,1023.0,1025.0,1022.0,1022.0,1007.0,1019.0,1020.0,1021.0,1019.0,1023.0,1023.0,1025.0,1022.0,1022.0,1007.0,1020.0,1020.0,1021.0,1019.0,1023.0,1023.0,1024.0,1022.0,1022.0,1007.0,1020.0,1021.0,1022.0,1020.0,1023.0,1023.0,1024.0,1022.0,1023.0,1007.0,1020.0,1021.0,1021.0,1020.0,1023.0,1023.0,1026.0,1021.0,1023.0,1008.0,1019.0,1020.0,1021.0,1019.0,1024.0,1024.0,1025.0,1021.0,1023.0,1007.0,1020.0,1021.0,1021.0,1019.0,1023.0,1023.0,1025.0,1021.0,1022.0,1007.0,1020.0,1020.0,1021.0,1020.0,1024.0,1024.0,1025.0,1021.0,1025.0,1009.0,1020.0,1022.0,1023.0,1024.0,1024.0,1026.0,1021.0,1024.0,1009.0,1020.0,1021.0,1023.0,1024.0,1026.0,1022.0,1023.0,1008.0,1020.0,1024.0,1024.0,1026.0,1022.0,1025.0,1010.0,1020.0,1024.0,1024.0,1026.0,1022.0,1024.0,1009.0,1019.0,1024.0,1024.0,1026.0,1022.0,1024.0,1009.0,1023.0,1024.0,1026.0,1022.0,1022.0,1008.0,1024.0,1024.0,1027.0,1022.0,1024.0,1010.0,1025.0,1026.0,1028.0,1023.0,1026.0,1011.0,1023.0,1024.0,1027.0,1022.0,1023.0,1010.0,1026.0,1027.0,1029.0,1023.0,1025.0,1012.0,1027.0,1029.0,1030.0,1024.0,1027.0,1014.0,1028.0,1029.0,1031.0,1024.0,1026.0,1015.0,1029.0,1030.0,1033.0,1024.0,1027.0,1017.0,1035.0,1033.0,1036.0,1026.0,1028.0,1021.0,1039.0,1037.0,1042.0,1029.0,1028.0,1028.0,1038.0,1035.0,1042.0,1028.0,1026.0,1029.0,1043.0,1040.0,1059.0,1033.0,1030.0,1108.0,1040.0,1039.0,1057.0,1032.0,1030.0,2283,2220,1901,	00:31:19.483,-0.009765625,0.06396484375,1.02001953125,0.06103515625,0.3662109375,0.1220703125,3.58154296875,0.516357421875,-50.0482177734375,36.0,-478.0,-4085.0,-0.905609130859375,-0.03021240234375,0.009124755859375,0.422943115234375,3.5798392421172056,0.5159076336369077,-54.257369241120834,-0.8894772411326829,-0.0298502338285183,0.010237808692867173,0.45588857007007977,1,	00:31:19.484,0.02197265625,0.0439453125,1.01953125,-0.3662109375,0.18310546875,0.48828125,2.4554443359375,-1.2249755859375,99.86572265625,-63.0,737.0,-1805.0,0.643310546875,0.02197265625,0.009521484375,0.765228271484375,2.4562909500026073,-1.2231856758792463,93.36482645360284,0.6856785783558178,0.022467757377403613,0.008272146324303106,0.7275105900655772,1
1782117388.620274,0.379,1020.0,1024.0,1020.0,1022.0,1023.0,1025.0,1021.0,1021.0,1007.0,1022.0,1023.0,1025.0,1020.0,1022.0,1007.0,1019.0,1023.0,1023.0,1025.0,1021.0,1021.0,1007.0,1020.0,1021.0,1022.0,1023.0,1024.0,1021.0,1022.0,1007.0,1019.0,1020.0,1020.0,1023.0,1023.0,1025.0,1021.0,1022.0,1007.0,1020.0,1020.0,1020.0,1022.0,1023.0,1025.0,1021.0,1021.0,1007.0,1020.0,1020.0,1020.0,1019.0,1023.0,1023.0,1025.0,1021.0,1022.0,1007.0,1020.0,1019.0,1021.0,1018.0,1023.0,1024.0,1025.0,1021.0,1022.0,1008.0,1020.0,1021.0,1022.0,1020.0,1023.0,1024.0,1025.0,1021.0,1023.0,1007.0,1020.0,1020.0,1021.0,1020.0,1023.0,1023.0,1025.0,1021.0,1022.0,1008.0,1020.0,1020.0,1021.0,1019.0,1023.0,1024.0,1025.0,1021.0,1023.0,1007.0,1020.0,1021.0,1022.0,1019.0,1024.0,1023.0,1025.0,1021.0,1023.0,1008.0,1020.0,1021.0,1022.0,1019.0,1024.0,1024.0,1026.0,1022.0,1025.0,1008.0,1020.0,1022.0,1023.0,1024.0,1024.0,1026.0,1021.0,1024.0,1008.0,1020.0,1022.0,1024.0,1024.0,1026.0,1021.0,1023.0,1008.0,1019.0,1024.0,1024.0,1027.0,1022.0,1025.0,1009.0,1020.0,1024.0,1024.0,1026.0,1022.0,1024.0,1009.0,1020.0,1024.0,1024.0,1026.0,1021.0,1024.0,1009.0,1024.0,1024.0,1026.0,1021.0,1022.0,1008.0,1024.0,1025.0,1027.0,1021.0,1024.0,1010.0,1025.0,1026.0,1028.0,1023.0,1026.0,1011.0,1023.0,1024.0,1027.0,1021.0,1023.0,1010.0,1026.0,1027.0,1028.0,1023.0,1025.0,1012.0,1027.0,1029.0,1030.0,1024.0,1027.0,1014.0,1028.0,1029.0,1031.0,1024.0,1027.0,1015.0,1028.0,1030.0,1033.0,1025.0,1028.0,1017.0,1035.0,1033.0,1037.0,1026.0,1028.0,1021.0,1038.0,1037.0,1042.0,1030.0,1028.0,1028.0,1037.0,1035.0,1042.0,1028.0,1027.0,1028.0,1042.0,1040.0,1059.0,1033.0,1031.0,1107.0,1040.0,1039.0,1057.0,1033.0,1031.0,2283,2220,1901,	00:31:19.493,-0.01025390625,0.0634765625,1.01904296875,0.06103515625,0.42724609375,0.18310546875,3.5595703125,0.6097412109375,-50.0482177734375,36.0,-479.0,-4087.0,-0.905609130859375,-0.030364990234375,0.008331298828125,0.422943115234375,3.5573977283460927,0.6087786351612338,-54.25550081264672,-0.8894754949152442,-0.03004545871905876,0.009427047563392375,0.455896638647271,1,	00:31:19.494,0.021484375,0.0439453125,1.01953125,-0.3662109375,0.244140625,0.48828125,2.5048828125,-1.1480712890625,99.8712158203125,-64.0,739.0,-1804.0,0.643280029296875,0.021728515625,0.010284423828125,0.7652587890625,2.5046708533174593,-1.1455552753840754,93.36873007640881,0.6856598225198636,0.022264296661838483,0.009044791394417656,0.727525326449062,1
1782117388.630109,0.388,1020.0,1025.0,1021.0,1021.0,1023.0,1025.0,1021.0,1021.0,1007.0,1022.0,1023.0,1025.0,1020.0,1022.0,1007.0,1020.0,1022.0,1023.0,1025.0,1021.0,1022.0,1007.0,1019.0,1020.0,1022.0,1023.0,1025.0,1021.0,1021.0,1007.0,1020.0,1020.0,1020.0,1023.0,1023.0,1025.0,1021.0,1022.0,1007.0,1020.0,1020.0,1020.0,1023.0,1023.0,1026.0,1021.0,1022.0,1007.0,1019.0,1020.0,1020.0,1019.0,1022.0,1023.0,1025.0,1020.0,1021.0,1007.0,1020.0,1020.0,1020.0,1019.0,1023.0,1024.0,1025.0,1021.0,1022.0,1008.0,1020.0,1021.0,1022.0,1020.0,1023.0,1024.0,1025.0,1021.0,1023.0,1008.0,1020.0,1021.0,1021.0,1019.0,1023.0,1023.0,1025.0,1022.0,1022.0,1008.0,1020.0,1020.0,1021.0,1020.0,1023.0,1024.0,1025.0,1021.0,1023.0,1008.0,1020.0,1020.0,1021.0,1019.0,1023.0,1023.0,1025.0,1021.0,1023.0,1007.0,1020.0,1021.0,1021.0,1019.0,1024.0,1025.0,1026.0,1022.0,1025.0,1009.0,1020.0,1022.0,1024.0,1023.0,1024.0,1026.0,1022.0,1024.0,1009.0,1020.0,1021.0,1024.0,1023.0,1026.0,1021.0,1023.0,1008.0,1020.0,1024.0,1024.0,1026.0,1022.0,1025.0,1009.0,1020.0,1023.0,1024.0,1026.0,1021.0,1023.0,1009.0,1020.0,1024.0,1024.0,1026.0,1022.0,1024.0,1009.0,1023.0,1023.0,1026.0,1021.0,1022.0,1008.0,1024.0,1024.0,1027.0,1022.0,1024.0,1009.0,1025.0,1026.0,1028.0,1023.0,1026.0,1012.0,1023.0,1024.0,1027.0,1022.0,1023.0,1010.0,1026.0,1026.0,1028.0,1023.0,1025.0,1012.0,1026.0,1029.0,1030.0,1024.0,1027.0,1013.0,1028.0,1029.0,1031.0,1024.0,1027.0,1015.0,1029.0,1029.0,1033.0,1024.0,1028.0,1017.0,1035.0,1033.0,1037.0,1026.0,1028.0,1020.0,1038.0,1037.0,1043.0,1029.0,1029.0,1028.0,1037.0,1035.0,1042.0,1028.0,1026.0,1029.0,1042.0,1041.0,1060.0,1033.0,1031.0,1107.0,1039.0,1039.0,1057.0,1032.0,1030.0,2283,2220,1901,	00:31:19.503,-0.009765625,0.0634765625,1.02099609375,0.06103515625,0.42724609375,0.18310546875,3.5595703125,0.5218505859375,-50.0482177734375,36.0,-476.0,-4086.0,-0.9056396484375,-0.030059814453125,0.009002685546875,0.42291259765625,3.5582826628843973,0.5212606139142434,-54.25340604578591,-0.8894977580113925,-0.02970454210307938,0.010109464067366587,0.45586091892969205,1,	00:31:19.504,0.0224609375,0.04345703125,1.0205078125,-0.3662109375,0.244140625,0.42724609375,2.4554443359375,-1.2249755859375,99.876708984375,-64.0,736.0,-1800.0,0.64324951171875,0.021942138671875,0.009521484375,0.765289306640625,2.4548883208727594,-1.2225853298737532,93.37405980368845,0.6856203510535002,0.022454888526352083,0.008268644788905556,0.7275659019744529,1
1782117388.641226,0.400,1020.0,1025.0,1021.0,1022.0,1023.0,1025.0,1021.0,1022.0,1007.0,1023.0,1023.0,1025.0,1021.0,1022.0,1007.0,1020.0,1022.0,1023.0,1025.0,1021.0,1022.0,1007.0,1020.0,1020.0,1022.0,1023.0,1025.0,1021.0,1022.0,1007.0,1020.0,1020.0,1021.0,1023.0,1023.0,1025.0,1021.0,1022.0,1007.0,1020.0,1020.0,1021.0,1022.0,1023.0,1025.0,1021.0,1022.0,1007.0,1020.0,1020.0,1021.0,1018.0,1022.0,1023.0,1025.0,1021.0,1022.0,1007.0,1020.0,1020.0,1021.0,1019.0,1023.0,1023.0,1025.0,1022.0,1023.0,1007.0,1020.0,1021.0,1021.0,1020.0,1023.0,1024.0,1025.0,1021.0,1023.0,1008.0,1020.0,1021.0,1021.0,1019.0,1022.0,1023.0,1025.0,1021.0,1023.0,1008.0,1020.0,1020.0,1021.0,1019.0,1023.0,1023.0,1025.0,1022.0,1023.0,1008.0,1019.0,1020.0,1021.0,1019.0,1023.0,1024.0,1026.0,1021.0,1023.0,1007.0,1020.0,1020.0,1021.0,1019.0,1024.0,1024.0,1026.0,1022.0,1024.0,1009.0,1021.0,1021.0,1023.0,1024.0,1024.0,1026.0,1022.0,1024.0,1009.0,1019.0,1021.0,1023.0,1024.0,1026.0,1021.0,1023.0,1008.0,1020.0,1024.0,1024.0,1026.0,1021.0,1025.0,1009.0,1020.0,1024.0,1024.0,1026.0,1021.0,1024.0,1009.0,1020.0,1024.0,1024.0,1026.0,1022.0,1024.0,1009.0,1024.0,1024.0,1026.0,1022.0,1022.0,1008.0,1024.0,1025.0,1026.0,1022.0,1024.0,1010.0,1025.0,1026.0,1028.0,1023.0,1026.0,1011.0,1024.0,1024.0,1026.0,1021.0,1023.0,1009.0,1026.0,1027.0,1028.0,1023.0,1025.0,1012.0,1027.0,1028.0,1030.0,1024.0,1027.0,1013.0,1027.0,1029.0,1031.0,1024.0,1027.0,1015.0,1029.0,1030.0,1033.0,1024.0,1028.0,1017.0,1034.0,1033.0,1036.0,1026.0,1028.0,1021.0,1038.0,1037.0,1043.0,1029.0,1029.0,1027.0,1037.0,1035.0,1042.0,1028.0,1027.0,1027.0,1042.0,1040.0,1059.0,1033.0,1031.0,1106.0,1039.0,1039.0,1057.0,1033.0,1031.0,2283,2220,1901,	00:31:19.513,-0.01025390625,0.0634765625,1.02001953125,0.1220703125,0.42724609375,0.1220703125,3.5650634765625,0.615234375,-50.042724609375,36.0,-478.0,-4086.0,-0.905609130859375,-0.03045654296875,0.008270263671875,0.42291259765625,3.564103271582165,0.6169997650836292,-54.251875895514374,-0.8894867977464762,-0.03013049116787292,0.00938894783076604,0.45586975968508064,1,	00:31:19.515,0.02294921875,0.04443359375,1.02099609375,-0.42724609375,0.18310546875,0.48828125,2.493896484375,-1.3018798828125,99.8822021484375,-64.0,738.0,-1804.0,0.6431884765625,0.022705078125,0.009368896484375,0.76531982421875,2.496483512126007,-1.300195965641142,93.37800845916121,0.6855712362260782,0.023196022931613908,0.008068957383318028,0.727591174016253,1
1782117388.650934,0.409,1020.0,1025.0,1021.0,1022.0,1023.0,1026.0,1021.0,1021.0,1007.0,1022.0,1023.0,1026.0,1021.0,1022.0,1006.0,1020.0,1022.0,1023.0,1026.0,1021.0,1022.0,1007.0,1019.0,1021.0,1022.0,1023.0,1026.0,1021.0,1021.0,1007.0,1020.0,1020.0,1021.0,1022.0,1023.0,1025.0,1021.0,1022.0,1006.0,1019.0,1020.0,1021.0,1022.0,1023.0,1025.0,1020.0,1021.0,1006.0,1020.0,1020.0,1021.0,1019.0,1022.0,1023.0,1026.0,1021.0,1022.0,1007.0,1020.0,1020.0,1021.0,1019.0,1023.0,1023.0,1026.0,1021.0,1022.0,1007.0,1020.0,1021.0,1022.0,1021.0,1023.0,1024.0,1026.0,1021.0,1022.0,1007.0,1020.0,1020.0,1022.0,1019.0,1023.0,1024.0,1025.0,1021.0,1022.0,1007.0,1019.0,1021.0,1021.0,1019.0,1023.0,1023.0,1025.0,1021.0,1022.0,1007.0,1019.0,1021.0,1021.0,1019.0,1022.0,1024.0,1025.0,1021.0,1022.0,1008.0,1019.0,1021.0,1022.0,1020.0,1024.0,1024.0,1026.0,1021.0,1024.0,1008.0,1019.0,1022.0,1023.0,1024.0,1024.0,1026.0,1021.0,1024.0,1009.0,1020.0,1022.0,1024.0,1024.0,1026.0,1021.0,1022.0,1008.0,1020.0,1024.0,1025.0,1027.0,1022.0,1025.0,1008.0,1020.0,1024.0,1024.0,1026.0,1022.0,1024.0,1009.0,1020.0,1024.0,1024.0,1026.0,1022.0,1024.0,1009.0,1023.0,1023.0,1026.0,1021.0,1021.0,1008.0,1024.0,1024.0,1027.0,1022.0,1024.0,1009.0,1025.0,1026.0,1028.0,1023.0,1026.0,1012.0,1024.0,1025.0,1026.0,1022.0,1023.0,1010.0,1025.0,1027.0,1029.0,1023.0,1024.0,1012.0,1027.0,1029.0,1030.0,1024.0,1027.0,1014.0,1027.0,1029.0,1031.0,1024.0,1027.0,1015.0,1029.0,1030.0,1033.0,1025.0,1027.0,1017.0,1035.0,1033.0,1037.0,1026.0,1028.0,1021.0,1038.0,1037.0,1042.0,1030.0,1028.0,1028.0,1037.0,1035.0,1043.0,1029.0,1027.0,1028.0,1041.0,1041.0,1059.0,1033.0,1031.0,1106.0,1040.0,1040.0,1057.0,1033.0,1030.0,2283,2220,1901,	00:31:19.524,-0.01025390625,0.064453125,1.0205078125,0.1220703125,0.42724609375,0.18310546875,3.636474609375,0.560302734375,-50.042724609375,37.0,-474.0,-4089.0,-0.905609130859375,-0.03082275390625,0.00897216796875,0.422882080078125,3.635031660769674,0.561699950976543,-54.24906655381127,-0.8894883393650683,-0.03046144738916766,0.010099682708766681,0.45582956328622676,1,	00:31:19.525,0.0224609375,0.04345703125,1.02001953125,-0.48828125,0.30517578125,0.48828125,2.4169921875,-1.2469482421875,99.8876953125,-63.0,735.0,-1805.0,0.6431884765625,0.021881103515625,0.0091552734375,0.765350341796875,2.416484777673407,-1.2448026962187633,93.38468424230648,0.6855559717756481,0.022365383693382868,0.007893890543458943,0.7276334830579765,1
1782117388.661614,0.420,1020.0,1025.0,1021.0,1021.0,1023.0,1025.0,1021.0,1021.0,1007.0,1023.0,1023.0,1025.0,1021.0,1021.0,1007.0,1020.0,1022.0,1023.0,1025.0,1021.0,1022.0,1007.0,1020.0,1020.0,1022.0,1023.0,1025.0,1021.0,1021.0,1007.0,1020.0,1020.0,1020.0,1022.0,1023.0,1025.0,1021.0,1022.0,1007.0,1020.0,1019.0,1021.0,1023.0,1023.0,1025.0,1021.0,1022.0,1007.0,1020.0,1020.0,1020.0,1019.0,1023.0,1023.0,1025.0,1021.0,1021.0,1007.0,1020.0,1020.0,1020.0,1019.0,1023.0,1023.0,1026.0,1021.0,1022.0,1007.0,1020.0,1021.0,1022.0,1021.0,1023.0,1024.0,1025.0,1021.0,1022.0,1008.0,1020.0,1021.0,1021.0,1020.0,1023.0,1023.0,1025.0,1021.0,1022.0,1007.0,1020.0,1020.0,1021.0,1019.0,1023.0,1023.0,1026.0,1021.0,1022.0,1007.0,1020.0,1020.0,1021.0,1019.0,1023.0,1024.0,1026.0,1021.0,1022.0,1008.0,1020.0,1020.0,1021.0,1019.0,1023.0,1024.0,1026.0,1022.0,1025.0,1008.0,1021.0,1021.0,1023.0,1024.0,1024.0,1026.0,1021.0,1024.0,1008.0,1020.0,1021.0,1023.0,1024.0,1026.0,1022.0,1023.0,1008.0,1020.0,1024.0,1024.0,1026.0,1022.0,1025.0,1009.0,1020.0,1024.0,1024.0,1027.0,1022.0,1024.0,1009.0,1019.0,1024.0,1024.0,1026.0,1022.0,1023.0,1008.0,1023.0,1024.0,1026.0,1021.0,1022.0,1008.0,1024.0,1024.0,1027.0,1022.0,1024.0,1010.0,1025.0,1026.0,1028.0,1023.0,1026.0,1011.0,1023.0,1025.0,1026.0,1022.0,1023.0,1009.0,1026.0,1027.0,1029.0,1023.0,1025.0,1012.0,1026.0,1029.0,1030.0,1025.0,1027.0,1014.0,1027.0,1029.0,1031.0,1024.0,1027.0,1014.0,1028.0,1030.0,1032.0,1024.0,1027.0,1017.0,1035.0,1033.0,1036.0,1026.0,1028.0,1021.0,1038.0,1037.0,1042.0,1029.0,1029.0,1028.0,1037.0,1036.0,1042.0,1029.0,1026.0,1029.0,1041.0,1041.0,1058.0,1033.0,1031.0,1106.0,1039.0,1039.0,1056.0,1033.0,1031.0,2283,2220,1902,	00:31:19.534,-0.0107421875,0.06396484375,1.02099609375,0.18310546875,0.42724609375,0.18310546875,3.5650634765625,0.6207275390625,-50.042724609375,38.0,-476.0,-4086.0,-0.9056396484375,-0.030487060546875,0.00823974609375,0.422882080078125,3.5652156829941366,0.6228826236560724,-54.24770799013019,-0.8895021102898737,-0.030162853861216705,0.009346604190202785,0.4558386107241463,1,	00:31:19.535,0.021484375,0.04345703125,1.0205078125,-0.48828125,0.244140625,0.48828125,2.4554443359375,-1.16455078125,99.8931884765625,-63.0,736.0,-1804.0,0.643157958984375,0.02154541015625,0.0098876953125,0.765350341796875,2.455670362868653,-1.1622370437046408,93.38873534619123,0.6855389834766822,0.022075459736389722,0.008637685165736972,0.7276498928785479,1
1782117388.671421,0.430,1020.0,1025.0,1020.0,1022.0,1023.0,1025.0,1021.0,1022.0,1007.0,1022.0,1023.0,1025.0,1021.0,1022.0,1007.0,1020.0,1022.0,1023.0,1025.0,1021.0,1022.0,1007.0,1020.0,1021.0,1022.0,1023.0,1025.0,1021.0,1022.0,1006.0,1019.0,1020.0,1020.0,1022.0,1023.0,1025.0,1021.0,1022.0,1007.0,1020.0,1020.0,1020.0,1022.0,1023.0,1025.0,1022.0,1022.0,1007.0,1020.0,1020.0,1020.0,1019.0,1022.0,1023.0,1025.0,1022.0,1021.0,1007.0,1020.0,1020.0,1020.0,1019.0,1022.0,1023.0,1025.0,1022.0,1023.0,1008.0,1020.0,1021.0,1022.0,1021.0,1022.0,1023.0,1025.0,1021.0,1023.0,1008.0,1020.0,1021.0,1021.0,1020.0,1023.0,1023.0,1025.0,1021.0,1022.0,1008.0,1020.0,1020.0,1021.0,1019.0,1023.0,1023.0,1025.0,1022.0,1022.0,1008.0,1020.0,1021.0,1021.0,1019.0,1023.0,1023.0,1025.0,1022.0,1022.0,1008.0,1020.0,1020.0,1021.0,1019.0,1023.0,1024.0,1026.0,1022.0,1025.0,1009.0,1020.0,1022.0,1024.0,1024.0,1024.0,1026.0,1022.0,1024.0,1009.0,1020.0,1021.0,1023.0,1024.0,1025.0,1022.0,1022.0,1009.0,1020.0,1024.0,1024.0,1026.0,1023.0,1025.0,1009.0,1021.0,1024.0,1024.0,1026.0,1022.0,1024.0,1009.0,1020.0,1023.0,1024.0,1026.0,1022.0,1024.0,1009.0,1023.0,1023.0,1026.0,1022.0,1022.0,1008.0,1024.0,1025.0,1026.0,1022.0,1024.0,1010.0,1025.0,1025.0,1028.0,1023.0,1026.0,1011.0,1024.0,1025.0,1027.0,1022.0,1023.0,1010.0,1025.0,1027.0,1028.0,1024.0,1025.0,1012.0,1026.0,1028.0,1030.0,1024.0,1027.0,1014.0,1027.0,1029.0,1030.0,1024.0,1026.0,1015.0,1029.0,1030.0,1033.0,1025.0,1027.0,1017.0,1034.0,1032.0,1036.0,1026.0,1028.0,1021.0,1038.0,1037.0,1042.0,1031.0,1028.0,1028.0,1037.0,1035.0,1041.0,1030.0,1026.0,1028.0,1042.0,1039.0,1058.0,1034.0,1031.0,1107.0,1039.0,1039.0,1055.0,1034.0,1030.0,2283,2221,1901,	00:31:19.544,-0.009765625,0.06396484375,1.0205078125,0.1220703125,0.42724609375,0.18310546875,3.592529296875,0.538330078125,-50.0372314453125,35.0,-480.0,-4088.0,-0.9056396484375,-0.0303955078125,0.009002685546875,0.4228515625,3.5913544899957963,0.5388068642288943,-54.245363221000176,-0.8895183236655932,-0.03003172626128329,0.010102701564901591,0.4557994983564714,1,	00:31:19.545,0.0224609375,0.0439453125,1.01953125,-0.42724609375,0.244140625,0.48828125,2.4609375,-1.25244140625,99.898681640625,-63.0,736.0,-1803.0,0.643096923828125,0.022186279296875,0.009429931640625,0.765380859375,2.4627650451792653,-1.2509285272120438,93.39348110017639,0.6854897879173846,0.02268051307037064,0.008152835363934872,0.7276832252177954,1
1782117388.681557,0.440,1020.0,1024.0,1021.0,1021.0,1023.0,1025.0,1021.0,1021.0,1007.0,1022.0,1023.0,1025.0,1021.0,1022.0,1007.0,1019.0,1022.0,1023.0,1025.0,1022.0,1022.0,1007.0,1020.0,1020.0,1022.0,1023.0,1025.0,1022.0,1021.0,1006.0,1020.0,1020.0,1020.0,1022.0,1023.0,1026.0,1021.0,1022.0,1007.0,1019.0,1020.0,1020.0,1022.0,1023.0,1025.0,1021.0,1021.0,1007.0,1020.0,1020.0,1020.0,1019.0,1022.0,1023.0,1025.0,1022.0,1021.0,1007.0,1020.0,1020.0,1020.0,1019.0,1023.0,1023.0,1025.0,1022.0,1022.0,1008.0,1021.0,1021.0,1021.0,1021.0,1023.0,1023.0,1025.0,1022.0,1022.0,1007.0,1020.0,1021.0,1021.0,1019.0,1022.0,1023.0,1025.0,1022.0,1022.0,1008.0,1020.0,1020.0,1021.0,1019.0,1023.0,1023.0,1026.0,1021.0,1022.0,1008.0,1020.0,1020.0,1020.0,1019.0,1023.0,1023.0,1025.0,1021.0,1022.0,1008.0,1019.0,1020.0,1021.0,1020.0,1024.0,1024.0,1026.0,1022.0,1024.0,1009.0,1021.0,1022.0,1023.0,1024.0,1024.0,1026.0,1022.0,1024.0,1009.0,1021.0,1021.0,1024.0,1024.0,1026.0,1021.0,1023.0,1008.0,1020.0,1024.0,1024.0,1026.0,1022.0,1025.0,1009.0,1020.0,1024.0,1024.0,1026.0,1022.0,1024.0,1009.0,1020.0,1023.0,1024.0,1026.0,1022.0,1024.0,1009.0,1023.0,1023.0,1025.0,1021.0,1021.0,1008.0,1024.0,1024.0,1026.0,1022.0,1024.0,1010.0,1025.0,1026.0,1028.0,1023.0,1026.0,1011.0,1023.0,1024.0,1026.0,1022.0,1022.0,1010.0,1025.0,1027.0,1027.0,1023.0,1025.0,1012.0,1026.0,1028.0,1030.0,1025.0,1027.0,1014.0,1027.0,1029.0,1031.0,1024.0,1026.0,1015.0,1028.0,1030.0,1032.0,1025.0,1027.0,1017.0,1034.0,1033.0,1036.0,1026.0,1028.0,1021.0,1038.0,1037.0,1042.0,1030.0,1029.0,1028.0,1037.0,1036.0,1041.0,1028.0,1026.0,1028.0,1041.0,1041.0,1058.0,1033.0,1031.0,1106.0,1038.0,1039.0,1056.0,1032.0,1031.0,2284,2221,1902,	00:31:19.554,-0.01025390625,0.064453125,1.0205078125,0.1220703125,0.42724609375,0.06103515625,3.6419677734375,0.6207275390625,-50.0372314453125,36.0,-476.0,-4085.0,-0.9056396484375,-0.03106689453125,0.008544921875,0.4228515625,3.6414340862619388,0.620511221760645,-54.24399134331985,-0.8894970348376686,-0.030745369359787313,0.009667207862460654,0.4558029095673585,1,	00:31:19.555,0.02197265625,0.04296875,1.02001953125,-0.42724609375,0.244140625,0.42724609375,2.373046875,-1.219482421875,99.9041748046875,-66.0,739.0,-1803.0,0.643096923828125,0.021453857421875,0.009002685546875,0.76544189453125,2.3720978160933135,-1.2179910010459971,93.39971368101007,0.6854743917371794,0.02192863474387747,0.007775399918303595,0.7277249043470507,1
1782117388.694428,0.453,1020.0,1025.0,1020.0,1021.0,1023.0,1025.0,1021.0,1021.0,1007.0,1022.0,1024.0,1025.0,1021.0,1021.0,1007.0,1019.0,1022.0,1024.0,1025.0,1021.0,1022.0,1007.0,1019.0,1020.0,1022.0,1023.0,1025.0,1021.0,1021.0,1007.0,1020.0,1019.0,1020.0,1022.0,1023.0,1024.0,1021.0,1021.0,1007.0,1019.0,1020.0,1020.0,1022.0,1023.0,1025.0,1021.0,1022.0,1007.0,1019.0,1020.0,1021.0,1019.0,1022.0,1023.0,1025.0,1022.0,1022.0,1008.0,1020.0,1020.0,1021.0,1019.0,1023.0,1023.0,1025.0,1022.0,1022.0,1007.0,1020.0,1021.0,1021.0,1021.0,1023.0,1024.0,1025.0,1021.0,1023.0,1008.0,1020.0,1021.0,1021.0,1020.0,1023.0,1024.0,1025.0,1021.0,1022.0,1008.0,1019.0,1020.0,1021.0,1020.0,1023.0,1024.0,1025.0,1021.0,1022.0,1008.0,1020.0,1020.0,1020.0,1019.0,1023.0,1023.0,1025.0,1021.0,1023.0,1008.0,1019.0,1020.0,1021.0,1019.0,1024.0,1024.0,1026.0,1021.0,1025.0,1009.0,1020.0,1022.0,1023.0,1024.0,1024.0,1026.0,1021.0,1024.0,1009.0,1020.0,1021.0,1024.0,1023.0,1026.0,1021.0,1023.0,1008.0,1020.0,1024.0,1024.0,1026.0,1022.0,1025.0,1009.0,1020.0,1023.0,1024.0,1026.0,1022.0,1024.0,1009.0,1020.0,1024.0,1024.0,1026.0,1022.0,1024.0,1009.0,1024.0,1023.0,1025.0,1021.0,1021.0,1009.0,1024.0,1025.0,1026.0,1022.0,1024.0,1010.0,1025.0,1026.0,1028.0,1022.0,1025.0,1012.0,1024.0,1024.0,1027.0,1022.0,1023.0,1010.0,1026.0,1027.0,1028.0,1023.0,1024.0,1012.0,1027.0,1029.0,1029.0,1024.0,1027.0,1014.0,1028.0,1029.0,1030.0,1024.0,1026.0,1015.0,1029.0,1031.0,1032.0,1024.0,1027.0,1017.0,1035.0,1034.0,1036.0,1025.0,1027.0,1021.0,1038.0,1036.0,1041.0,1030.0,1028.0,1028.0,1037.0,1035.0,1041.0,1027.0,1027.0,1028.0,1042.0,1040.0,1057.0,1032.0,1031.0,1107.0,1039.0,1039.0,1056.0,1032.0,1030.0,2284,2221,1901,	00:31:19.565,-0.009765625,0.0634765625,1.02099609375,0.1220703125,0.42724609375,0.1220703125,3.5760498046875,0.5657958984375,-50.0372314453125,36.0,-478.0,-4085.0,-0.905670166015625,-0.03033447265625,0.00872802734375,0.422821044921875,3.5738504187862823,0.5643344756205879,-54.24321377825958,-0.889527329513451,-0.029997514935683842,0.00983432513003478,0.4557900450817115,1,	00:31:19.566,0.02197265625,0.04541015625,1.01904296875,-0.30517578125,0.244140625,0.48828125,2.4609375,-1.2249755859375,99.9041748046875,-63.0,736.0,-1803.0,0.64306640625,0.02197265625,0.009552001953125,0.76544189453125,2.460182988681027,-1.2239007087207538,93.40275028185222,0.6854368661841403,0.022492837999629606,0.0083000196235065,0.7277372358129249,1
1782117388.703038,0.461,1020.0,1024.0,1020.0,1022.0,1023.0,1025.0,1020.0,1021.0,1007.0,1022.0,1023.0,1025.0,1021.0,1021.0,1007.0,1020.0,1022.0,1023.0,1025.0,1021.0,1022.0,1008.0,1020.0,1021.0,1022.0,1023.0,1025.0,1021.0,1022.0,1007.0,1020.0,1020.0,1020.0,1023.0,1023.0,1025.0,1021.0,1022.0,1007.0,1020.0,1020.0,1020.0,1022.0,1023.0,1025.0,1021.0,1021.0,1008.0,1020.0,1019.0,1020.0,1019.0,1022.0,1023.0,1025.0,1021.0,1022.0,1008.0,1020.0,1020.0,1021.0,1019.0,1023.0,1023.0,1026.0,1021.0,1022.0,1008.0,1020.0,1021.0,1021.0,1020.0,1023.0,1023.0,1024.0,1021.0,1023.0,1008.0,1020.0,1021.0,1021.0,1019.0,1023.0,1023.0,1025.0,1021.0,1023.0,1008.0,1020.0,1020.0,1021.0,1019.0,1023.0,1023.0,1025.0,1021.0,1022.0,1009.0,1020.0,1020.0,1020.0,1018.0,1023.0,1023.0,1025.0,1021.0,1023.0,1008.0,1019.0,1021.0,1021.0,1019.0,1024.0,1024.0,1025.0,1021.0,1025.0,1009.0,1020.0,1022.0,1023.0,1024.0,1024.0,1026.0,1022.0,1024.0,1009.0,1020.0,1021.0,1024.0,1023.0,1026.0,1022.0,1023.0,1008.0,1019.0,1024.0,1024.0,1026.0,1022.0,1025.0,1010.0,1020.0,1024.0,1024.0,1026.0,1021.0,1024.0,1010.0,1020.0,1024.0,1023.0,1026.0,1022.0,1023.0,1009.0,1023.0,1024.0,1026.0,1021.0,1021.0,1008.0,1024.0,1025.0,1027.0,1022.0,1024.0,1009.0,1026.0,1026.0,1028.0,1022.0,1025.0,1012.0,1024.0,1025.0,1027.0,1022.0,1023.0,1010.0,1026.0,1027.0,1029.0,1023.0,1024.0,1012.0,1027.0,1029.0,1030.0,1024.0,1027.0,1014.0,1027.0,1029.0,1031.0,1024.0,1026.0,1015.0,1029.0,1030.0,1034.0,1024.0,1027.0,1017.0,1035.0,1033.0,1036.0,1026.0,1028.0,1021.0,1038.0,1037.0,1042.0,1029.0,1028.0,1028.0,1037.0,1035.0,1042.0,1028.0,1026.0,1029.0,1041.0,1039.0,1059.0,1032.0,1031.0,1106.0,1039.0,1038.0,1056.0,1031.0,1030.0,2284,2221,1901,	00:31:19.575,-0.01025390625,0.06396484375,1.02099609375,0.1220703125,0.42724609375,0.1220703125,3.6419677734375,0.6317138671875,-50.03173828125,35.0,-479.0,-4087.0,-0.9056396484375,-0.0311279296875,0.008453369140625,0.422821044921875,3.6430326160945556,0.6298704533524713,-54.241020319652726,-0.8895068433269049,-0.030795229009116933,0.009600105574826295,0.4557818200826285,1,	00:31:19.576,0.02197265625,0.044921875,1.01953125,-0.30517578125,0.244140625,0.48828125,2.548828125,-1.2359619140625,99.90966796875,-63.0,738.0,-1801.0,0.64300537109375,0.022552490234375,0.01007080078125,0.76544189453125,2.547578924477207,-1.235442423600383,93.40579135929283,0.685397828603952,0.023088627165581542,0.008786585114705418,0.7277496326090575,1
1782117388.713070,0.471,1020.0,1025.0,1020.0,1021.0,1023.0,1025.0,1021.0,1021.0,1007.0,1022.0,1023.0,1024.0,1021.0,1021.0,1007.0,1020.0,1023.0,1023.0,1025.0,1021.0,1022.0,1008.0,1020.0,1021.0,1022.0,1023.0,1025.0,1021.0,1021.0,1007.0,1019.0,1020.0,1020.0,1022.0,1023.0,1025.0,1021.0,1022.0,1007.0,1020.0,1020.0,1020.0,1022.0,1023.0,1025.0,1021.0,1022.0,1007.0,1020.0,1020.0,1020.0,1019.0,1022.0,1023.0,1025.0,1021.0,1022.0,1007.0,1020.0,1020.0,1020.0,1019.0,1023.0,1023.0,1026.0,1021.0,1023.0,1008.0,1020.0,1021.0,1021.0,1020.0,1023.0,1023.0,1025.0,1021.0,1023.0,1008.0,1020.0,1020.0,1022.0,1020.0,1023.0,1023.0,1025.0,1021.0,1023.0,1008.0,1020.0,1021.0,1021.0,1020.0,1023.0,1023.0,1025.0,1021.0,1023.0,1008.0,1020.0,1021.0,1021.0,1019.0,1023.0,1023.0,1025.0,1022.0,1022.0,1008.0,1020.0,1020.0,1021.0,1019.0,1024.0,1024.0,1025.0,1021.0,1024.0,1009.0,1020.0,1022.0,1023.0,1024.0,1024.0,1026.0,1022.0,1024.0,1009.0,1020.0,1021.0,1023.0,1023.0,1026.0,1021.0,1022.0,1009.0,1020.0,1024.0,1024.0,1026.0,1022.0,1025.0,1010.0,1020.0,1023.0,1024.0,1026.0,1022.0,1024.0,1009.0,1020.0,1024.0,1024.0,1026.0,1022.0,1023.0,1010.0,1023.0,1023.0,1025.0,1021.0,1022.0,1008.0,1024.0,1024.0,1027.0,1022.0,1023.0,1010.0,1025.0,1026.0,1028.0,1023.0,1026.0,1012.0,1024.0,1025.0,1027.0,1022.0,1023.0,1010.0,1025.0,1027.0,1029.0,1023.0,1025.0,1012.0,1027.0,1028.0,1030.0,1024.0,1027.0,1014.0,1028.0,1029.0,1031.0,1024.0,1026.0,1015.0,1029.0,1030.0,1033.0,1025.0,1027.0,1017.0,1035.0,1032.0,1036.0,1027.0,1027.0,1021.0,1038.0,1037.0,1042.0,1030.0,1028.0,1028.0,1037.0,1035.0,1042.0,1028.0,1026.0,1029.0,1041.0,1040.0,1058.0,1033.0,1031.0,1107.0,1038.0,1038.0,1056.0,1032.0,1030.0,2284,2221,1901,	00:31:19.585,-0.01025390625,0.06298828125,1.02099609375,0.0,0.3662109375,0.18310546875,3.5595703125,0.59326171875,-50.03173828125,37.0,-477.0,-4086.0,-0.905670166015625,-0.03033447265625,0.008453369140625,0.422821044921875,3.560969946938681,0.5929671129053447,-54.23983599356948,-0.8895394691288484,-0.03001162885558882,0.009559908675358964,0.45577126186445743,1,	00:31:19.586,0.0224609375,0.0439453125,1.02001953125,-0.244140625,0.18310546875,0.42724609375,2.4554443359375,-1.263427734375,99.9151611328125,-64.0,734.0,-1801.0,0.642974853515625,0.022216796875,0.00933837890625,0.7655029296875,2.457468567700784,-1.2607795202993866,93.41205023756156,0.6853709204994066,0.022710051401848473,0.00806392335440279,0.7277952514541819,1
1782117388.723637,0.482,1020.0,1024.0,1021.0,1022.0,1022.0,1025.0,1021.0,1021.0,1007.0,1022.0,1022.0,1025.0,1021.0,1022.0,1007.0,1020.0,1022.0,1023.0,1025.0,1021.0,1022.0,1006.0,1020.0,1021.0,1022.0,1023.0,1025.0,1021.0,1021.0,1007.0,1019.0,1020.0,1020.0,1023.0,1022.0,1025.0,1021.0,1022.0,1007.0,1020.0,1020.0,1021.0,1022.0,1023.0,1025.0,1021.0,1021.0,1007.0,1019.0,1020.0,1020.0,1018.0,1022.0,1023.0,1025.0,1021.0,1022.0,1007.0,1020.0,1020.0,1020.0,1019.0,1023.0,1023.0,1025.0,1021.0,1023.0,1008.0,1020.0,1021.0,1022.0,1020.0,1023.0,1023.0,1025.0,1021.0,1023.0,1008.0,1020.0,1021.0,1021.0,1019.0,1023.0,1023.0,1025.0,1021.0,1023.0,1008.0,1019.0,1020.0,1021.0,1020.0,1023.0,1023.0,1026.0,1022.0,1022.0,1008.0,1020.0,1021.0,1021.0,1019.0,1023.0,1023.0,1025.0,1021.0,1023.0,1008.0,1020.0,1021.0,1021.0,1019.0,1024.0,1024.0,1026.0,1022.0,1024.0,1009.0,1020.0,1022.0,1023.0,1024.0,1024.0,1026.0,1022.0,1025.0,1009.0,1020.0,1021.0,1024.0,1023.0,1025.0,1021.0,1023.0,1008.0,1019.0,1024.0,1024.0,1026.0,1022.0,1024.0,1009.0,1021.0,1024.0,1023.0,1026.0,1022.0,1024.0,1009.0,1020.0,1024.0,1024.0,1026.0,1022.0,1024.0,1009.0,1023.0,1024.0,1026.0,1022.0,1022.0,1008.0,1024.0,1024.0,1027.0,1022.0,1023.0,1010.0,1025.0,1026.0,1028.0,1023.0,1026.0,1011.0,1024.0,1024.0,1026.0,1022.0,1022.0,1010.0,1025.0,1026.0,1028.0,1024.0,1025.0,1012.0,1027.0,1028.0,1030.0,1025.0,1026.0,1014.0,1027.0,1028.0,1030.0,1025.0,1026.0,1014.0,1029.0,1030.0,1032.0,1025.0,1027.0,1017.0,1035.0,1033.0,1036.0,1026.0,1027.0,1021.0,1039.0,1037.0,1042.0,1031.0,1028.0,1028.0,1037.0,1035.0,1041.0,1028.0,1026.0,1029.0,1042.0,1040.0,1058.0,1033.0,1031.0,1108.0,1039.0,1038.0,1055.0,1033.0,1030.0,2284,2222,1901,	00:31:19.595,-0.009765625,0.064453125,1.02001953125,0.0,0.42724609375,0.1220703125,3.6309814453125,0.538330078125,-50.03173828125,36.0,-479.0,-4087.0,-0.905670166015625,-0.03070068359375,0.0091552734375,0.42279052734375,3.6313514010887613,0.5385178091485682,-54.23765746999581,-0.889538482373704,-0.03034174199035815,0.010261996490578395,0.4557360623182077,1,	00:31:19.597,0.0224609375,0.04345703125,1.01953125,-0.244140625,0.244140625,0.48828125,2.362060546875,-1.2579345703125,99.920654296875,-65.0,736.0,-1805.0,0.6429443359375,0.02166748046875,0.00872802734375,0.765533447265625,2.3633054367510966,-1.25928357318238,93.41904912593658,0.6853451918591572,0.02213690141338963,0.007476174580635661,0.7278434120090589,1
1782117388.734014,0.492,1020.0,1024.0,1020.0,1022.0,1022.0,1024.0,1021.0,1022.0,1007.0,1022.0,1023.0,1024.0,1021.0,1021.0,1007.0,1020.0,1022.0,1023.0,1025.0,1022.0,1022.0,1007.0,1020.0,1020.0,1022.0,1023.0,1025.0,1021.0,1022.0,1007.0,1020.0,1020.0,1020.0,1022.0,1022.0,1025.0,1021.0,1022.0,1007.0,1020.0,1020.0,1020.0,1022.0,1023.0,1025.0,1021.0,1022.0,1008.0,1020.0,1020.0,1020.0,1019.0,1022.0,1023.0,1025.0,1021.0,1022.0,1007.0,1020.0,1020.0,1020.0,1018.0,1023.0,1023.0,1025.0,1021.0,1022.0,1008.0,1020.0,1021.0,1022.0,1020.0,1023.0,1023.0,1025.0,1021.0,1023.0,1008.0,1020.0,1021.0,1021.0,1020.0,1023.0,1023.0,1025.0,1022.0,1023.0,1008.0,1020.0,1020.0,1021.0,1019.0,1023.0,1023.0,1025.0,1021.0,1022.0,1008.0,1020.0,1020.0,1021.0,1019.0,1023.0,1023.0,1025.0,1022.0,1023.0,1008.0,1020.0,1020.0,1021.0,1019.0,1024.0,1024.0,1026.0,1022.0,1025.0,1010.0,1021.0,1022.0,1023.0,1024.0,1024.0,1026.0,1022.0,1024.0,1009.0,1020.0,1021.0,1024.0,1023.0,1025.0,1022.0,1022.0,1009.0,1020.0,1024.0,1024.0,1026.0,1022.0,1024.0,1009.0,1020.0,1024.0,1024.0,1026.0,1022.0,1023.0,1009.0,1020.0,1024.0,1024.0,1026.0,1022.0,1024.0,1009.0,1024.0,1024.0,1026.0,1022.0,1021.0,1008.0,1024.0,1024.0,1026.0,1022.0,1024.0,1010.0,1025.0,1026.0,1028.0,1023.0,1025.0,1012.0,1024.0,1024.0,1026.0,1022.0,1023.0,1010.0,1025.0,1027.0,1029.0,1024.0,1024.0,1011.0,1027.0,1029.0,1030.0,1024.0,1027.0,1014.0,1027.0,1029.0,1030.0,1024.0,1026.0,1015.0,1029.0,1030.0,1033.0,1025.0,1027.0,1017.0,1035.0,1033.0,1036.0,1026.0,1028.0,1021.0,1038.0,1037.0,1042.0,1030.0,1028.0,1028.0,1037.0,1035.0,1042.0,1028.0,1026.0,1029.0,1042.0,1040.0,1058.0,1033.0,1031.0,1107.0,1039.0,1039.0,1056.0,1033.0,1030.0,2284,2222,1901,	00:31:19.606,-0.0107421875,0.064453125,1.02001953125,0.0,0.3662109375,0.1220703125,3.6090087890625,0.6317138671875,-50.03173828125,36.0,-477.0,-4084.0,-0.905670166015625,-0.030853271484375,0.008331298828125,0.42279052734375,3.60935605807786,0.6310862976112613,-54.23643182564961,-0.8895339007685272,-0.0305390277368627,0.009455495951718233,0.45574927401447607,1,	00:31:19.607,0.0224609375,0.04443359375,1.02001953125,-0.244140625,0.244140625,0.48828125,2.449951171875,-1.2579345703125,99.9261474609375,-63.0,735.0,-1802.0,0.642913818359375,0.02215576171875,0.00933837890625,0.76556396484375,2.4523659793543096,-1.2577333827374093,93.42201737025003,0.6853092393619449,0.022659494503489367,0.008051714724279646,0.7278550430161198,1
1782117388.743612,0.502,1019.0,1024.0,1020.0,1022.0,1023.0,1025.0,1021.0,1021.0,1008.0,1022.0,1023.0,1025.0,1021.0,1021.0,1007.0,1019.0,1023.0,1022.0,1025.0,1021.0,1022.0,1007.0,1020.0,1020.0,1022.0,1023.0,1025.0,1021.0,1021.0,1007.0,1019.0,1020.0,1020.0,1023.0,1023.0,1024.0,1021.0,1022.0,1008.0,1020.0,1020.0,1020.0,1023.0,1023.0,1025.0,1021.0,1022.0,1007.0,1019.0,1020.0,1020.0,1019.0,1023.0,1022.0,1026.0,1021.0,1022.0,1008.0,1020.0,1020.0,1021.0,1019.0,1023.0,1023.0,1025.0,1021.0,1023.0,1007.0,1020.0,1021.0,1021.0,1020.0,1023.0,1023.0,1026.0,1021.0,1023.0,1008.0,1020.0,1020.0,1021.0,1020.0,1023.0,1023.0,1026.0,1021.0,1023.0,1007.0,1020.0,1020.0,1021.0,1019.0,1023.0,1023.0,1025.0,1021.0,1023.0,1008.0,1020.0,1020.0,1021.0,1019.0,1023.0,1024.0,1025.0,1022.0,1023.0,1008.0,1020.0,1020.0,1021.0,1019.0,1024.0,1024.0,1026.0,1021.0,1025.0,1009.0,1020.0,1022.0,1023.0,1024.0,1023.0,1026.0,1022.0,1024.0,1009.0,1021.0,1021.0,1024.0,1024.0,1026.0,1021.0,1022.0,1009.0,1020.0,1024.0,1024.0,1026.0,1021.0,1025.0,1010.0,1020.0,1024.0,1024.0,1026.0,1022.0,1023.0,1010.0,1020.0,1024.0,1024.0,1026.0,1022.0,1023.0,1009.0,1024.0,1024.0,1026.0,1021.0,1021.0,1008.0,1024.0,1025.0,1026.0,1022.0,1024.0,1010.0,1025.0,1026.0,1028.0,1023.0,1026.0,1012.0,1023.0,1024.0,1027.0,1022.0,1023.0,1010.0,1026.0,1027.0,1029.0,1023.0,1025.0,1012.0,1026.0,1029.0,1030.0,1024.0,1026.0,1014.0,1027.0,1029.0,1031.0,1024.0,1026.0,1015.0,1029.0,1030.0,1033.0,1024.0,1027.0,1017.0,1034.0,1033.0,1036.0,1026.0,1027.0,1021.0,1038.0,1037.0,1042.0,1029.0,1028.0,1028.0,1037.0,1036.0,1041.0,1028.0,1026.0,1028.0,1042.0,1040.0,1059.0,1032.0,1031.0,1107.0,1039.0,1039.0,1057.0,1032.0,1031.0,2284,2222,1901,	00:31:19.616,-0.0107421875,0.06298828125,1.0205078125,0.0,0.3662109375,0.1220703125,3.5211181640625,0.604248046875,-50.0262451171875,35.0,-478.0,-4085.0,-0.90570068359375,-0.03009033203125,0.00823974609375,0.42279052734375,3.523737687917826,0.6024243618272817,-54.23590463026171,-0.8895632697744438,-0.029760516530715715,0.009337374715793975,0.4557458877021733,1,	00:31:19.617,0.02197265625,0.0439453125,1.0205078125,-0.18310546875,0.244140625,0.42724609375,2.493896484375,-1.175537109375,99.9261474609375,-64.0,736.0,-1801.0,0.642913818359375,0.0218505859375,0.01007080078125,0.76556396484375,2.493169124448114,-1.174366357694325,93.42548319205177,0.6852959258766891,0.022373957028104692,0.008810378798947876,0.727867623437899,1
