Unix_Time_s,IMU1_RefTime,ax_g,ay_g,az_g,gx_dps,gy_dps,gz_dps,mx_uT,my_uT,mz_uT,temp_C,qw,qx,qy,qz
1782117357.511817,1860881,-0.967285,-0.003906,-0.279785,0.548781,0.000000,0.975610,-5.625000,38.924999,-2.293750,0.0,1.000000,0.000000,0.000000,0.000000
1782117357.520817,1860890,-0.966797,-0.003906,-0.279785,0.853659,0.000000,0.975610,-5.687500,38.900002,-2.250000,0.0,1.000000,0.000000,0.000000,0.000000
1782117357.530817,1860900,-0.966309,-0.005371,-0.277832,1.219512,-0.182927,0.914634,-5.687500,38.900002,-2.250000,0.0,1.000000,0.000000,0.000000,0.000000
1782117357.540817,1860910,-0.964844,-0.006348,-0.276367,1.524390,-0.243902,0.975610,-5.606250,38.875000,-2.293750,0.0,1.000000,0.000000,0.000000,0.000000
1782117357.550817,1860920,-0.963867,-0.005859,-0.276367,1.524390,-0.304878,1.036585,-5.606250,38.875000,-2.293750,0.0,1.000000,0.000000,0.000000,0.000000
1782117357.560817,1860930,-0.963867,-0.006836,-0.276367,1.341463,-0.243902,0.975610,-5.718750,38.818752,-2.256250,0.0,1.000000,0.000000,0.000000,0.000000
1782117357.570817,1860940,-0.964844,-0.006348,-0.279297,0.975610,-0.182927,0.975610,-5.718750,38.818752,-2.256250,0.0,1.000000,0.000000,0.000000,0.000000
1782117357.580817,1860950,-0.965820,-0.004395,-0.279297,0.609756,-0.121951,0.914634,-5.600000,38.887501,-2.262500,0.0,1.000000,0.000000,0.000000,0.000000
1782117357.590817,1860960,-0.966309,-0.004395,-0.280273,0.365854,-0.121951,0.914634,-5.600000,38.887501,-2.262500,0.0,1.000000,0.000000,0.000000,0.000000
1782117357.600817,1860970,-0.965820,-0.004395,-0.280273,0.426829,-0.243902,0.914634,-5.700000,38.787502,-2.343750,0.0,1.000000,0.000000,0.000000,0.000000
1782117357.610817,1860980,-0.963379,-0.002930,-0.279785,0.609756,-0.304878,0.792683,-5.700000,38.787502,-2.343750,0.0,1.000000,0.000000,0.000000,0.000000
1782117357.620817,1860990,-0.962891,-0.004883,-0.278320,0.731707,-0.304878,0.853659,-5.493750,39.049999,-2.262500,0.0,1.000000,0.000000,0.000000,0.000000
1782117357.630817,1861000,-0.964355,-0.005859,-0.277344,0.853659,-0.304878,0.975610,-5.493750,39.049999,-2.262500,0.0,1.000000,0.000000,0.000000,0.000000
1782117357.642817,1861012,-0.965332,-0.007324,-0.277832,0.853659,-0.426829,1.097561,-5.675000,38.837502,-2.268750,0.0,1.000000,0.000000,0.000000,0.000000
1782117357.650817,1861020,-0.964355,-0.008301,-0.277344,0.792683,-0.426829,1.097561,-5.568750,38.912502,-2.231250,0.0,1.000000,0.000000,0.000000,0.000000
1782117357.660817,1861030,-0.966309,-0.010742,-0.278320,0.853659,-0.426829,1.097561,-5.568750,38.912502,-2.231250,0.0,1.000000,0.000000,0.000000,0.000000
1782117357.670817,1861040,-0.966797,-0.009766,-0.277344,0.975610,-0.548781,1.097561,-5.675000,38.812500,-2.268750,0.0,1.000000,0.000000,0.000000,0.000000
1782117357.680817,1861050,-0.966309,-0.009277,-0.277344,1.280488,-0.609756,1.036585,-5.675000,38.812500,-2.268750,0.0,1.000000,0.000000,0.000000,0.000000
1782117357.690817,1861060,-0.962891,-0.008789,-0.278320,1.402439,-0.548781,1.036585,-5.537500,38.981251,-2.256250,0.0,1.000000,0.000000,0.000000,0.000000
1782117357.701817,1861071,-0.959473,-0.004883,-0.279297,1.219512,-0.426829,1.036585,-5.537500,38.981251,-2.256250,0.0,1.000000,0.000000,0.000000,0.000000
1782117357.711817,1861081,-0.961426,-0.001465,-0.279785,1.158537,-0.182927,1.036585,-5.431250,39.000000,-2.231250,0.0,1.000000,0.000000,0.000000,0.000000
1782117357.720817,1861090,-0.963379,-0.001465,-0.279297,1.097561,-0.060976,1.097561,-5.431250,39.000000,-2.231250,0.0,1.000000,0.000000,0.000000,0.000000
1782117357.730817,1861100,-0.964844,-0.003418,-0.277832,0.792683,0.000000,0.975610,-5.350000,39.112499,-2.212500,0.0,1.000000,0.000000,0.000000,0.000000
1782117357.740817,1861110,-0.964355,-0.004883,-0.278320,0.487805,0.060976,0.792683,-5.350000,39.112499,-2.212500,0.0,1.000000,0.000000,0.000000,0.000000
1782117357.750817,1861120,-0.964355,-0.005859,-0.276855,0.304878,0.182927,0.670732,-5.606250,38.900002,-2.250000,0.0,1.000000,0.000000,0.000000,0.000000
1782117357.760817,1861130,-0.964844,-0.006836,-0.275391,0.121951,0.182927,0.670732,-5.606250,38.900002,-2.250000,0.0,1.000000,0.000000,0.000000,0.000000
1782117357.770817,1861140,-0.966797,-0.005371,-0.276367,-0.060976,0.182927,0.792683,-5.606250,38.868752,-2.256250,0.0,1.000000,0.000000,0.000000,0.000000
1782117357.780817,1861150,-0.967285,-0.002930,-0.274902,0.060976,0.121951,0.853659,-5.606250,38.868752,-2.256250,0.0,1.000000,0.000000,0.000000,0.000000
1782117357.790817,1861160,-0.966797,-0.002441,-0.274414,0.304878,-0.060976,0.914634,-5.643750,38.893749,-2.287500,0.0,1.000000,0.000000,0.000000,0.000000
1782117357.800817,1861170,-0.966797,-0.003906,-0.273438,0.487805,0.000000,0.975610,-5.643750,38.893749,-2.287500,0.0,1.000000,0.000000,0.000000,0.000000
1782117357.810817,1861180,-0.966309,-0.003906,-0.273926,0.731707,0.060976,0.975610,-5.693750,38.850002,-2.268750,0.0,1.000000,0.000000,0.000000,0.000000
1782117357.820817,1861190,-0.968262,-0.003906,-0.274414,0.792683,0.121951,0.914634,-5.693750,38.850002,-2.268750,0.0,1.000000,0.000000,0.000000,0.000000
1782117357.830817,1861200,-0.966797,-0.002441,-0.273926,0.792683,-0.060976,0.853659,-5.687500,38.812500,-2.281250,0.0,1.000000,0.000000,0.000000,0.000000
1782117357.840817,1861210,-0.966309,-0.002930,-0.275391,0.609756,-0.121951,0.731707,-5.687500,38.812500,-2.281250,0.0,1.000000,0.000000,0.000000,0.000000
1782117357.850817,1861220,-0.964355,-0.000977,-0.275391,0.548781,-0.060976,0.670732,-5.687500,38.806252,-2.287500,0.0,1.000000,0.000000,0.000000,0.000000
1782117357.861817,1861231,-0.963379,-0.001465,-0.273926,0.487805,0.060976,0.670732,-5.687500,38.806252,-2.287500,0.0,1.000000,0.000000,0.000000,0.000000
1782117357.870817,1861240,-0.964844,-0.001465,-0.274414,0.426829,0.243902,0.792683,-5.687500,38.793751,-2.306250,0.0,1.000000,0.000000,0.000000,0.000000
1782117357.881817,1861251,-0.965820,-0.002930,-0.274902,0.304878,0.304878,0.853659,-5.687500,38.793751,-2.306250,0.0,1.000000,0.000000,0.000000,0.000000
1782117357.891817,1861261,-0.966309,-0.005859,-0.271973,0.487805,0.243902,0.853659,-5.675000,38.837502,-2.268750,0.0,1.000000,0.000000,0.000000,0.000000
1782117357.900817,1861270,-0.968750,-0.006836,-0.272461,0.487805,0.243902,0.914634,-5.675000,38.837502,-2.268750,0.0,1.000000,0.000000,0.000000,0.000000
1782117357.910817,1861280,-0.970215,-0.007324,-0.272949,0.670732,0.182927,0.914634,-5.537500,38.962502,-2.293750,0.0,1.000000,0.000000,0.000000,0.000000
1782117357.920817,1861290,-0.965820,-0.006836,-0.272461,0.914634,0.000000,0.853659,-5.537500,38.962502,-2.293750,0.0,1.000000,0.000000,0.000000,0.000000
1782117357.930817,1861300,-0.964844,-0.003906,-0.272461,1.158537,0.060976,0.792683,-5.531250,38.981251,-2.300000,0.0,1.000000,0.000000,0.000000,0.000000
1782117357.940817,1861310,-0.966309,-0.004395,-0.272461,1.219512,0.182927,0.731707,-5.643750,38.799999,-2.300000,0.0,1.000000,0.000000,0.000000,0.000000
1782117357.950817,1861320,-0.966797,-0.003418,-0.273438,1.219512,0.243902,0.853659,-5.643750,38.799999,-2.300000,0.0,1.000000,0.000000,0.000000,0.000000
1782117357.960817,1861330,-0.967285,-0.003418,-0.274414,1.158537,0.243902,0.914634,-5.656250,38.837502,-2.312500,0.0,1.000000,0.000000,0.000000,0.000000
1782117357.970817,1861340,-0.966309,-0.003418,-0.277344,0.975610,0.243902,0.853659,-5.656250,38.837502,-2.312500,0.0,1.000000,0.000000,0.000000,0.000000
1782117357.980817,1861350,-0.965820,-0.002441,-0.277832,0.670732,0.426829,0.731707,-5.531250,38.975002,-2.281250,0.0,1.000000,0.000000,0.000000,0.000000
1782117357.990817,1861360,-0.964844,-0.002441,-0.277832,0.670732,0.365854,0.731707,-5.531250,38.975002,-2.281250,0.0,1.000000,0.000000,0.000000,0.000000
1782117358.001817,1861371,-0.965332,-0.001953,-0.277344,0.609756,0.487805,0.670732,-5.431250,39.037502,-2.243750,0.0,1.000000,0.000000,0.000000,0.000000
1782117358.011817,1861381,-0.964844,-0.004395,-0.276367,0.670732,0.304878,0.731707,-5.431250,39.037502,-2.243750,0.0,1.000000,0.000000,0.000000,0.000000
1782117358.020817,1861390,-0.963867,-0.004883,-0.275879,0.853659,0.243902,0.731707,-5.468750,39.112499,-2.243750,0.0,1.000000,0.000000,0.000000,0.000000
1782117358.030817,1861400,-0.964355,-0.005371,-0.277832,0.792683,0.304878,0.731707,-5.468750,39.112499,-2.243750,0.0,1.000000,0.000000,0.000000,0.000000
1782117358.040817,1861410,-0.964355,-0.005859,-0.277832,0.792683,0.182927,0.731707,-5.631250,38.900002,-2.312500,0.0,1.000000,0.000000,0.000000,0.000000
1782117358.050817,1861420,-0.964355,-0.008301,-0.278809,0.914634,0.304878,0.670732,-5.631250,38.900002,-2.312500,0.0,1.000000,0.000000,0.000000,0.000000
1782117358.060817,1861430,-0.966309,-0.009766,-0.278809,1.036585,0.426829,0.731707,-5.406250,39.093750,-2.256250,0.0,1.000000,0.000000,0.000000,0.000000
1782117358.070817,1861440,-0.966309,-0.009766,-0.278809,1.036585,0.426829,0.731707,-5.406250,39.093750,-2.256250,0.0,1.000000,0.000000,0.000000,0.000000
1782117358.081817,1861451,-0.967773,-0.008301,-0.276367,1.097561,0.426829,0.487805,-5.643750,38.862499,-2.343750,0.0,1.000000,0.000000,0.000000,0.000000
1782117358.091817,1861461,-0.967773,-0.008301,-0.276367,1.097561,0.426829,0.487805,-5.643750,38.862499,-2.343750,0.0,1.000000,0.000000,0.000000,0.000000
1782117358.100817,1861470,-0.966309,-0.004883,-0.274414,1.036585,0.304878,0.426829,-5.606250,38.931252,-2.318750,0.0,1.000000,0.000000,0.000000,0.000000
1782117358.110817,1861480,-0.963379,-0.000977,-0.273926,0.731707,0.365854,0.304878,-5.606250,38.931252,-2.318750,0.0,1.000000,0.000000,0.000000,0.000000
1782117358.121817,1861491,-0.963379,0.001953,-0.277832,0.731707,0.548781,0.365854,-5.631250,38.881252,-2.256250,0.0,1.000000,0.000000,0.000000,0.000000
1782117358.131817,1861501,-0.964355,0.003418,-0.278320,0.792683,0.609756,0.487805,-5.631250,38.881252,-2.256250,0.0,1.000000,0.000000,0.000000,0.000000
1782117358.141817,1861511,-0.963867,0.000977,-0.276855,0.792683,0.548781,0.487805,-5.637500,38.887501,-2.293750,0.0,1.000000,0.000000,0.000000,0.000000
1782117358.150817,1861520,-0.966797,-0.000977,-0.275391,0.365854,0.548781,0.548781,-5.637500,38.887501,-2.293750,0.0,1.000000,0.000000,0.000000,0.000000
1782117358.160817,1861530,-0.967285,-0.002930,-0.272949,-0.060976,0.365854,0.487805,-5.718750,38.818752,-2.350000,0.0,1.000000,0.000000,0.000000,0.000000
1782117358.170817,1861540,-0.964844,-0.004395,-0.271973,-0.365854,0.243902,0.487805,-5.718750,38.818752,-2.350000,0.0,1.000000,0.000000,0.000000,0.000000
1782117358.180817,1861550,-0.965332,-0.005371,-0.276367,-0.487805,0.365854,0.548781,-5.631250,38.906250,-2.381250,0.0,1.000000,0.000000,0.000000,0.000000
1782117358.190817,1861560,-0.966797,-0.004395,-0.277832,-0.487805,0.487805,0.548781,-5.631250,38.906250,-2.381250,0.0,1.000000,0.000000,0.000000,0.000000
1782117358.200817,1861570,-0.966309,-0.004395,-0.279297,-0.548781,0.487805,0.487805,-5.643750,38.862499,-2.343750,0.0,1.000000,0.000000,0.000000,0.000000
1782117358.211817,1861581,-0.963379,-0.003906,-0.281738,-0.487805,0.365854,0.426829,-5.643750,38.862499,-2.343750,0.0,1.000000,0.000000,0.000000,0.000000
1782117358.220817,1861590,-0.964844,-0.004395,-0.282227,-0.487805,0.487805,0.304878,-5.550000,39.049999,-2.356250,0.0,1.000000,0.000000,0.000000,0.000000
1782117358.230817,1861600,-0.966309,-0.004883,-0.282715,-0.426829,0.365854,0.304878,-5.550000,39.049999,-2.356250,0.0,1.000000,0.000000,0.000000,0.000000
1782117358.240817,1861610,-0.964355,-0.006836,-0.283691,-0.365854,0.243902,0.243902,-5.687500,38.868752,-2.412500,0.0,1.000000,0.000000,0.000000,0.000000
1782117358.251817,1861621,-0.961914,-0.008789,-0.283203,-0.121951,0.304878,0.365854,-5.743750,38.862499,-2.425000,0.0,1.000000,0.000000,0.000000,0.000000
1782117358.260817,1861630,-0.962402,-0.009766,-0.282715,0.000000,0.365854,0.365854,-5.743750,38.862499,-2.425000,0.0,1.000000,0.000000,0.000000,0.000000
1782117358.271817,1861641,-0.961914,-0.007812,-0.284180,0.000000,0.426829,0.426829,-5.537500,39.037502,-2.325000,0.0,1.000000,0.000000,0.000000,0.000000
1782117358.280817,1861650,-0.962891,-0.007812,-0.285156,-0.060976,0.365854,0.548781,-5.537500,39.037502,-2.325000,0.0,1.000000,0.000000,0.000000,0.000000
1782117358.291817,1861661,-0.962891,-0.004883,-0.285645,0.060976,0.304878,0.548781,-5.456250,39.200001,-2.356250,0.0,1.000000,0.000000,0.000000,0.000000
1782117358.300817,1861670,-0.961914,-0.006348,-0.283691,0.182927,0.304878,0.548781,-5.456250,39.200001,-2.356250,0.0,1.000000,0.000000,0.000000,0.000000
1782117358.311817,1861681,-0.961914,-0.005371,-0.283691,0.243902,0.365854,0.487805,-5.668750,38.893749,-2.462500,0.0,1.000000,0.000000,0.000000,0.000000
1782117358.321817,1861691,-0.963379,-0.004395,-0.280762,0.121951,0.365854,0.548781,-5.668750,38.893749,-2.462500,0.0,1.000000,0.000000,0.000000,0.000000
1782117358.330817,1861700,-0.961914,-0.004395,-0.279785,0.121951,0.365854,0.487805,-5.756250,38.856251,-2.431250,0.0,1.000000,0.000000,0.000000,0.000000
1782117358.340817,1861710,-0.963867,-0.005371,-0.279297,0.060976,0.365854,0.487805,-5.756250,38.856251,-2.431250,0.0,1.000000,0.000000,0.000000,0.000000
1782117358.350817,1861720,-0.963867,-0.004395,-0.280273,-0.060976,0.304878,0.487805,-5.706250,38.868752,-2.443750,0.0,1.000000,0.000000,0.000000,0.000000
1782117358.360817,1861730,-0.963867,-0.004395,-0.281250,-0.121951,0.243902,0.487805,-5.706250,38.868752,-2.443750,0.0,1.000000,0.000000,0.000000,0.000000
1782117358.370817,1861740,-0.964355,-0.004395,-0.283203,-0.182927,0.304878,0.487805,-5.712500,38.956249,-2.431250,0.0,1.000000,0.000000,0.000000,0.000000
1782117358.381817,1861751,-0.966309,-0.004395,-0.282715,-0.243902,0.243902,0.548781,-5.712500,38.956249,-2.431250,0.0,1.000000,0.000000,0.000000,0.000000
1782117358.390817,1861760,-0.965332,-0.005371,-0.281738,-0.060976,0.060976,0.487805,-5.675000,38.918751,-2.475000,0.0,1.000000,0.000000,0.000000,0.000000
1782117358.400817,1861770,-0.963867,-0.006836,-0.280273,0.243902,0.060976,0.487805,-5.675000,38.918751,-2.475000,0.0,1.000000,0.000000,0.000000,0.000000
1782117358.411817,1861781,-0.964355,-0.009277,-0.280762,0.304878,0.243902,0.487805,-5.762500,38.831249,-2.462500,0.0,1.000000,0.000000,0.000000,0.000000
1782117358.420817,1861790,-0.963867,-0.009277,-0.279785,0.182927,0.365854,0.548781,-5.762500,38.831249,-2.462500,0.0,1.000000,0.000000,0.000000,0.000000
1782117358.430817,1861800,-0.962891,-0.009277,-0.281738,0.182927,0.426829,0.487805,-5.768750,38.893749,-2.493750,0.0,1.000000,0.000000,0.000000,0.000000
1782117358.440817,1861810,-0.962891,-0.009277,-0.282227,0.243902,0.548781,0.487805,-5.768750,38.893749,-2.493750,0.0,1.000000,0.000000,0.000000,0.000000
1782117358.450817,1861820,-0.964844,-0.007812,-0.280762,0.304878,0.487805,0.426829,-5.800000,38.825001,-2.518750,0.0,1.000000,0.000000,0.000000,0.000000
1782117358.460817,1861830,-0.962891,-0.006836,-0.279785,0.487805,0.365854,0.548781,-5.800000,38.825001,-2.518750,0.0,1.000000,0.000000,0.000000,0.000000
1782117358.470817,1861840,-0.966309,-0.008301,-0.279297,0.731707,0.304878,0.609756,-5.806250,38.868752,-2.481250,0.0,1.000000,0.000000,0.000000,0.000000
1782117358.481817,1861851,-0.966309,-0.008301,-0.279297,0.670732,0.182927,0.487805,-5.806250,38.868752,-2.481250,0.0,1.000000,0.000000,0.000000,0.000000
1782117358.491817,1861861,-0.964355,-0.008789,-0.279785,0.670732,0.121951,0.548781,-5.787500,38.831249,-2.525000,0.0,1.000000,0.000000,0.000000,0.000000
1782117358.500817,1861870,-0.965820,-0.008301,-0.279297,0.792683,0.121951,0.548781,-5.787500,38.831249,-2.525000,0.0,1.000000,0.000000,0.000000,0.000000
1782117358.510817,1861880,-0.965332,-0.005859,-0.279785,0.792683,0.121951,0.609756,-5.700000,38.943752,-2.493750,0.0,1.000000,0.000000,0.000000,0.000000
1782117358.520817,1861890,-0.962891,-0.004395,-0.282227,0.792683,0.000000,0.609756,-5.700000,38.943752,-2.493750,0.0,1.000000,0.000000,0.000000,0.000000
1782117358.531817,1861901,-0.961426,-0.002441,-0.282227,0.792683,0.121951,0.548781,-5.837500,38.837502,-2.500000,0.0,1.000000,0.000000,0.000000,0.000000
1782117358.540817,1861910,-0.961426,-0.003418,-0.281738,0.731707,0.243902,0.548781,-5.718750,38.975002,-2.518750,0.0,1.000000,0.000000,0.000000,0.000000
1782117358.550817,1861920,-0.961426,-0.004395,-0.283203,0.731707,0.365854,0.731707,-5.718750,38.975002,-2.518750,0.0,1.000000,0.000000,0.000000,0.000000
1782117358.560817,1861930,-0.962402,-0.006348,-0.284668,0.914634,0.487805,0.792683,-5.818750,38.831249,-2.525000,0.0,1.000000,0.000000,0.000000,0.000000
1782117358.571817,1861941,-0.965820,-0.008301,-0.283203,1.097561,0.487805,0.914634,-5.818750,38.831249,-2.525000,0.0,1.000000,0.000000,0.000000,0.000000
1782117358.580817,1861950,-0.967773,-0.008301,-0.283203,1.158537,0.304878,0.975610,-5.781250,38.918751,-2.493750,0.0,1.000000,0.000000,0.000000,0.000000
1782117358.590817,1861960,-0.966309,-0.008301,-0.286621,1.036585,0.060976,0.914634,-5.781250,38.918751,-2.493750,0.0,1.000000,0.000000,0.000000,0.000000
1782117358.600817,1861970,-0.964355,-0.006836,-0.286621,0.975610,-0.121951,0.792683,-5.750000,38.850002,-2.562500,0.0,1.000000,0.000000,0.000000,0.000000
1782117358.610817,1861980,-0.963867,-0.005859,-0.286133,0.914634,0.000000,0.731707,-5.750000,38.850002,-2.562500,0.0,1.000000,0.000000,0.000000,0.000000
1782117358.620817,1861990,-0.961426,-0.005859,-0.283691,0.975610,0.000000,0.609756,-5.325000,39.299999,-2.400000,0.0,1.000000,0.000000,0.000000,0.000000
1782117358.630817,1862000,-0.959961,-0.006348,-0.281738,1.158537,0.182927,0.548781,-5.325000,39.299999,-2.400000,0.0,1.000000,0.000000,0.000000,0.000000
1782117358.640817,1862010,-0.961426,-0.006836,-0.282227,1.219512,0.365854,0.609756,-5.768750,38.900002,-2.500000,0.0,1.000000,0.000000,0.000000,0.000000
1782117358.651817,1862021,-0.964355,-0.006836,-0.281738,0.975610,0.304878,0.670732,-5.768750,38.900002,-2.500000,0.0,1.000000,0.000000,0.000000,0.000000
1782117358.661817,1862031,-0.965332,-0.006348,-0.281250,0.731707,0.060976,0.731707,-5.731250,38.906250,-2.556250,0.0,1.000000,0.000000,0.000000,0.000000
1782117358.671817,1862041,-0.963867,-0.006348,-0.283203,0.609756,0.060976,0.792683,-5.731250,38.906250,-2.556250,0.0,1.000000,0.000000,0.000000,0.000000
1782117358.680817,1862050,-0.962402,-0.005859,-0.283691,0.548781,0.060976,0.731707,-5.718750,38.937500,-2.487500,0.0,1.000000,0.000000,0.000000,0.000000
1782117358.690817,1862060,-0.964355,-0.004883,-0.281738,0.670732,0.121951,0.792683,-5.718750,38.937500,-2.487500,0.0,1.000000,0.000000,0.000000,0.000000
1782117358.700817,1862070,-0.962891,-0.007324,-0.282227,0.914634,0.121951,0.792683,-5.456250,39.150002,-2.462500,0.0,1.000000,0.000000,0.000000,0.000000
1782117358.711817,1862081,-0.963867,-0.008789,-0.282227,0.975610,0.243902,0.731707,-5.456250,39.150002,-2.462500,0.0,1.000000,0.000000,0.000000,0.000000
1782117358.721817,1862091,-0.963867,-0.009277,-0.282227,0.914634,0.243902,0.792683,-5.806250,38.893749,-2.493750,0.0,1.000000,0.000000,0.000000,0.000000
1782117358.734817,1862104,-0.963379,-0.008789,-0.282227,0.853659,0.121951,0.731707,-5.656250,38.943752,-2.556250,0.0,1.000000,0.000000,0.000000,0.000000
1782117358.740817,1862110,-0.963379,-0.006348,-0.281250,0.670732,0.060976,0.731707,-5.656250,38.943752,-2.556250,0.0,1.000000,0.000000,0.000000,0.000000
1782117358.750817,1862120,-0.964844,-0.006836,-0.281738,0.548781,0.000000,0.731707,-5.656250,38.943752,-2.556250,0.0,1.000000,0.000000,0.000000,0.000000
1782117358.760817,1862130,-0.966309,-0.006348,-0.282227,0.548781,-0.060976,0.792683,-5.787500,38.850002,-2.518750,0.0,1.000000,0.000000,0.000000,0.000000
1782117358.771817,1862141,-0.966309,-0.008789,-0.281250,0.609756,-0.121951,0.792683,-5.787500,38.850002,-2.518750,0.0,1.000000,0.000000,0.000000,0.000000
1782117358.780817,1862150,-0.965332,-0.008301,-0.282715,0.792683,-0.182927,0.731707,-5.775000,38.862499,-2.550000,0.0,1.000000,0.000000,0.000000,0.000000
1782117358.790817,1862160,-0.963379,-0.008301,-0.282227,0.792683,-0.182927,0.609756,-5.775000,38.862499,-2.550000,0.0,1.000000,0.000000,0.000000,0.000000
1782117358.800817,1862170,-0.960938,-0.007812,-0.281250,0.731707,0.000000,0.487805,-5.800000,38.850002,-2.518750,0.0,1.000000,0.000000,0.000000,0.000000
1782117358.810817,1862180,-0.961426,-0.006836,-0.281738,0.731707,0.060976,0.609756,-5.800000,38.850002,-2.518750,0.0,1.000000,0.000000,0.000000,0.000000
1782117358.820817,1862190,-0.962891,-0.005859,-0.282227,0.609756,0.000000,0.670732,-5.793750,38.868752,-2.525000,0.0,1.000000,0.000000,0.000000,0.000000
1782117358.830817,1862200,-0.962891,-0.005371,-0.283203,0.426829,0.000000,0.670732,-5.781250,38.887501,-2.550000,0.0,1.000000,0.000000,0.000000,0.000000
1782117358.840817,1862210,-0.964355,-0.006348,-0.283691,0.243902,0.060976,0.670732,-5.781250,38.887501,-2.550000,0.0,1.000000,0.000000,0.000000,0.000000
1782117358.852817,1862222,-0.964355,-0.007812,-0.286621,0.365854,0.000000,0.731707,-5.662500,38.993752,-2.506250,0.0,1.000000,0.000000,0.000000,0.000000
1782117358.861817,1862231,-0.963379,-0.008789,-0.288086,0.426829,-0.121951,0.731707,-5.662500,38.993752,-2.506250,0.0,1.000000,0.000000,0.000000,0.000000
1782117358.870817,1862240,-0.964355,-0.008301,-0.285156,0.609756,-0.426829,0.853659,-5.475000,39.225002,-2.493750,0.0,1.000000,0.000000,0.000000,0.000000
1782117358.880817,1862250,-0.961914,-0.008789,-0.284180,0.609756,-0.426829,0.731707,-5.475000,39.225002,-2.493750,0.0,1.000000,0.000000,0.000000,0.000000
1782117358.890817,1862260,-0.961914,-0.007324,-0.283691,0.609756,-0.304878,0.670732,-5.781250,38.924999,-2.581250,0.0,1.000000,0.000000,0.000000,0.000000
1782117358.900817,1862270,-0.961914,-0.007324,-0.283691,0.609756,-0.304878,0.670732,-5.781250,38.924999,-2.581250,0.0,1.000000,0.000000,0.000000,0.000000
1782117358.910817,1862280,-0.961426,-0.012207,-0.284668,0.792683,-0.243902,0.670732,-5.756250,38.900002,-2.531250,0.0,1.000000,0.000000,0.000000,0.000000
1782117358.920817,1862290,-0.963379,-0.012207,-0.284668,0.914634,-0.060976,0.670732,-5.756250,38.900002,-2.531250,0.0,1.000000,0.000000,0.000000,0.000000
1782117358.932817,1862302,-0.961914,-0.009766,-0.283203,0.853659,-0.121951,0.670732,-5.787500,38.893749,-2.556250,0.0,1.000000,0.000000,0.000000,0.000000
1782117358.940817,1862310,-0.961914,-0.009766,-0.283203,0.853659,-0.121951,0.670732,-5.787500,38.893749,-2.556250,0.0,1.000000,0.000000,0.000000,0.000000
1782117358.950817,1862320,-0.960938,-0.009277,-0.283203,0.975610,-0.243902,0.670732,-5.762500,38.881252,-2.493750,0.0,1.000000,0.000000,0.000000,0.000000
1782117358.960817,1862330,-0.963379,-0.008301,-0.283691,1.158537,-0.304878,0.731707,-5.762500,38.881252,-2.493750,0.0,1.000000,0.000000,0.000000,0.000000
1782117358.971817,1862341,-0.963867,-0.006348,-0.285645,1.219512,-0.243902,0.792683,-5.787500,38.881252,-2.506250,0.0,1.000000,0.000000,0.000000,0.000000
1782117358.980817,1862350,-0.962891,-0.006348,-0.288086,0.975610,-0.304878,0.792683,-5.787500,38.881252,-2.506250,0.0,1.000000,0.000000,0.000000,0.000000
1782117358.990817,1862360,-0.961914,-0.007324,-0.289062,0.731707,-0.304878,0.792683,-5.812500,38.887501,-2.487500,0.0,1.000000,0.000000,0.000000,0.000000
1782117359.000817,1862370,-0.963867,-0.008789,-0.289551,0.487805,-0.121951,0.792683,-5.812500,38.887501,-2.487500,0.0,1.000000,0.000000,0.000000,0.000000
1782117359.012817,1862382,-0.963867,-0.011230,-0.287598,0.487805,-0.243902,0.731707,-5.743750,38.881252,-2.506250,0.0,1.000000,0.000000,0.000000,0.000000
1782117359.020817,1862390,-0.960449,-0.013672,-0.283691,1.097561,-0.365854,0.792683,-5.743750,38.881252,-2.506250,0.0,1.000000,0.000000,0.000000,0.000000
1782117359.030817,1862400,-0.962891,-0.018066,-0.281738,1.829268,-0.304878,0.914634,-5.768750,38.862499,-2.500000,0.0,1.000000,0.000000,0.000000,0.000000
1782117359.040817,1862410,-0.963867,-0.024902,-0.282715,2.560976,-0.365854,1.036585,-5.768750,38.862499,-2.500000,0.0,1.000000,0.000000,0.000000,0.000000
1782117359.051817,1862421,-0.968262,-0.027344,-0.287109,3.292683,-0.365854,1.097561,-5.775000,38.843750,-2.418750,0.0,1.000000,0.000000,0.000000,0.000000
1782117359.061817,1862431,-0.973633,-0.024902,-0.288574,3.902439,-0.609756,1.219512,-5.775000,38.843750,-2.418750,0.0,1.000000,0.000000,0.000000,0.000000
1782117359.071817,1862441,-0.972168,-0.019043,-0.290039,4.146341,-1.097561,1.158537,-5.687500,38.912502,-2.468750,0.0,1.000000,0.000000,0.000000,0.000000
1782117359.080817,1862450,-0.964355,-0.012695,-0.290527,4.329268,-1.463415,1.158537,-5.687500,38.912502,-2.468750,0.0,1.000000,0.000000,0.000000,0.000000
1782117359.092817,1862462,-0.960449,-0.004395,-0.294922,4.451220,-1.524390,1.341463,-5.650000,38.868752,-2.431250,0.0,1.000000,0.000000,0.000000,0.000000
1782117359.101817,1862471,-0.956055,0.003418,-0.300293,4.268293,-1.402439,1.585366,-5.650000,38.868752,-2.431250,0.0,1.000000,0.000000,0.000000,0.000000
1782117359.110817,1862480,-0.952637,0.005859,-0.303223,4.024390,-1.280488,1.707317,-5.643750,38.843750,-2.337500,0.0,1.000000,0.000000,0.000000,0.000000
1782117359.120817,1862490,-0.953613,0.003906,-0.303223,3.597561,-1.219512,1.707317,-5.731250,38.825001,-2.375000,0.0,1.000000,0.000000,0.000000,0.000000
1782117359.132817,1862502,-0.958496,0.000000,-0.302734,2.865854,-1.097561,1.646341,-5.731250,38.825001,-2.375000,0.0,1.000000,0.000000,0.000000,0.000000
1782117359.141817,1862511,-0.960449,-0.002441,-0.299805,2.378049,-1.158537,1.463415,-5.687500,38.862499,-2.343750,0.0,1.000000,0.000000,0.000000,0.000000
1782117359.151817,1862521,-0.960449,-0.006348,-0.295898,1.890244,-1.341463,1.341463,-5.687500,38.862499,-2.343750,0.0,1.000000,0.000000,0.000000,0.000000
1782117359.161817,1862531,-0.960449,-0.011230,-0.291992,1.707317,-1.402439,1.402439,-5.487500,39.049999,-2.262500,0.0,1.000000,0.000000,0.000000,0.000000
1782117359.172817,1862542,-0.962402,-0.011719,-0.290527,1.524390,-1.585366,1.585366,-5.487500,39.049999,-2.262500,0.0,1.000000,0.000000,0.000000,0.000000
1782117359.180817,1862550,-0.963867,-0.014160,-0.292969,1.707317,-1.707317,1.890244,-5.631250,38.812500,-2.281250,0.0,1.000000,0.000000,0.000000,0.000000
1782117359.190817,1862560,-0.962402,-0.017578,-0.291504,2.012195,-1.829268,2.012195,-5.631250,38.812500,-2.281250,0.0,1.000000,0.000000,0.000000,0.000000
1782117359.200817,1862570,-0.962891,-0.016113,-0.293457,2.500000,-2.134146,2.134146,-5.418750,39.062500,-2.168750,0.0,1.000000,0.000000,0.000000,0.000000
1782117359.211817,1862581,-0.960938,-0.018066,-0.293945,2.926829,-2.317073,2.134146,-5.418750,39.062500,-2.168750,0.0,1.000000,0.000000,0.000000,0.000000
1782117359.220817,1862590,-0.960449,-0.017578,-0.297852,3.292683,-2.439024,2.134146,-5.518750,38.924999,-2.187500,0.0,1.000000,0.000000,0.000000,0.000000
1782117359.230817,1862600,-0.960449,-0.015625,-0.299805,3.597561,-2.378049,2.134146,-5.518750,38.924999,-2.187500,0.0,1.000000,0.000000,0.000000,0.000000
1782117359.240817,1862610,-0.968262,-0.010742,-0.300293,3.536585,-2.073171,2.256098,-5.612500,38.756252,-2.181250,0.0,1.000000,0.000000,0.000000,0.000000
1782117359.251817,1862621,-0.971191,-0.008301,-0.305176,3.048780,-1.890244,2.378049,-5.612500,38.756252,-2.181250,0.0,1.000000,0.000000,0.000000,0.000000
1782117359.260817,1862630,-0.971191,-0.004883,-0.306641,2.560976,-2.195122,2.560976,-5.437500,38.843750,-2.162500,0.0,1.000000,0.000000,0.000000,0.000000
1782117359.270817,1862640,-0.968750,-0.008301,-0.299805,2.256098,-2.804878,2.621951,-5.437500,38.843750,-2.162500,0.0,1.000000,0.000000,0.000000,0.000000
1782117359.280817,1862650,-0.966309,-0.012207,-0.298340,1.707317,-3.292683,2.439024,-5.312500,39.006252,-2.093750,0.0,1.000000,0.000000,0.000000,0.000000
1782117359.291817,1862661,-0.958984,-0.017090,-0.297852,1.402439,-3.780488,2.256098,-5.312500,39.006252,-2.093750,0.0,1.000000,0.000000,0.000000,0.000000
1782117359.300817,1862670,-0.949707,-0.022949,-0.297363,1.463415,-4.024390,2.134146,-5.406250,38.825001,-2.062500,0.0,1.000000,0.000000,0.000000,0.000000
1782117359.310817,1862680,-0.942871,-0.028320,-0.299316,1.402439,-3.963415,2.134146,-5.406250,38.825001,-2.062500,0.0,1.000000,0.000000,0.000000,0.000000
1782117359.320817,1862690,-0.942383,-0.033203,-0.303223,1.768293,-4.024390,2.560976,-5.337500,38.831249,-2.050000,0.0,1.000000,0.000000,0.000000,0.000000
1782117359.331817,1862701,-0.940430,-0.041016,-0.311035,2.256098,-4.207317,2.987805,-5.337500,38.831249,-2.050000,0.0,1.000000,0.000000,0.000000,0.000000
1782117359.340817,1862710,-0.939453,-0.049316,-0.315918,2.621951,-4.207317,3.231707,-5.325000,38.762501,-1.981250,0.0,1.000000,0.000000,0.000000,0.000000
1782117359.350817,1862720,-0.944824,-0.058105,-0.315918,3.536585,-4.390244,3.475610,-5.325000,38.762501,-1.981250,0.0,1.000000,0.000000,0.000000,0.000000
1782117359.360817,1862730,-0.967773,-0.055176,-0.316895,4.939024,-4.939024,3.902439,-5.218750,38.875000,-1.900000,0.0,1.000000,0.000000,0.000000,0.000000
1782117359.371817,1862741,-0.991699,-0.031738,-0.333984,7.682927,-7.865854,5.060976,-5.218750,38.875000,-1.900000,0.0,1.000000,0.000000,0.000000,0.000000
1782117359.380817,1862750,-0.957031,-0.021973,-0.342285,8.963415,-12.682927,5.426829,-5.212500,38.787502,-1.837500,0.0,1.000000,0.000000,0.000000,0.000000
1782117359.390817,1862760,-0.923828,-0.020508,-0.357910,6.829268,-14.085366,4.939024,-5.212500,38.787502,-1.837500,0.0,1.000000,0.000000,0.000000,0.000000
1782117359.400817,1862770,-0.911621,-0.012695,-0.379395,3.048780,-13.353659,4.146341,-5.200000,38.731251,-1.550000,0.0,1.000000,0.000000,0.000000,0.000000
1782117359.413817,1862783,-0.916504,-0.004395,-0.401367,0.365854,-12.378049,3.536585,-4.962500,38.937500,-1.443750,0.0,1.000000,0.000000,0.000000,0.000000
1782117359.420817,1862790,-0.915527,-0.009766,-0.401855,0.731707,-11.890244,3.170732,-4.962500,38.937500,-1.443750,0.0,1.000000,0.000000,0.000000,0.000000
1782117359.430817,1862800,-0.914551,-0.033691,-0.388184,2.073171,-11.524390,2.682927,-4.812500,39.018749,-1.275000,0.0,1.000000,0.000000,0.000000,0.000000
1782117359.440817,1862810,-0.930176,-0.057129,-0.368164,2.500000,-11.158537,1.951220,-4.812500,39.018749,-1.275000,0.0,1.000000,0.000000,0.000000,0.000000
1782117359.452817,1862822,-0.950684,-0.078125,-0.350586,1.707317,-13.109756,0.243902,-5.037500,38.843750,-1.250000,0.0,1.000000,0.000000,0.000000,0.000000
1782117359.460817,1862830,-0.990723,-0.072754,-0.352051,2.439024,-15.000000,-0.670732,-5.037500,38.843750,-1.250000,0.0,1.000000,0.000000,0.000000,0.000000
1782117359.470817,1862840,-1.028809,-0.054199,-0.342773,7.256098,-18.414635,1.036585,-4.975000,38.924999,-1.056250,0.0,1.000000,0.000000,0.000000,0.000000
1782117359.480817,1862850,-1.050293,-0.036621,-0.307617,11.646341,-26.951220,2.439024,-4.975000,38.924999,-1.056250,0.0,1.000000,0.000000,0.000000,0.000000
1782117359.494817,1862864,-1.029785,-0.004395,-0.276855,14.024390,-34.756100,3.109756,-4.900000,38.862499,-0.693750,0.0,1.000000,0.000000,0.000000,0.000000
1782117359.501817,1862871,-0.997559,0.015625,-0.251953,15.304878,-39.512196,3.109756,-4.900000,38.862499,-0.693750,0.0,1.000000,0.000000,0.000000,0.000000
1782117359.510817,1862880,-0.973145,0.034668,-0.239746,16.036585,-41.158539,2.621951,-4.931250,38.787502,-0.225000,0.0,1.000000,0.000000,0.000000,0.000000
1782117359.521817,1862891,-0.963867,0.051270,-0.224121,16.036585,-41.219513,2.073171,-4.931250,38.787502,-0.225000,0.0,1.000000,0.000000,0.000000,0.000000
1782117359.533817,1862903,-0.980957,0.046387,-0.194824,15.670732,-38.780487,2.621951,-4.918750,38.593750,0.262500,0.0,1.000000,0.000000,0.000000,0.000000
1782117359.541817,1862911,-1.014160,0.032715,-0.157715,14.329268,-35.548782,4.573171,-4.918750,38.593750,0.262500,0.0,1.000000,0.000000,0.000000,0.000000
1782117359.550817,1862920,-1.046387,-0.006348,-0.122559,11.341464,-35.670734,5.609756,-4.906250,38.368752,0.593750,0.0,1.000000,0.000000,0.000000,0.000000
1782117359.561817,1862931,-1.058105,-0.022461,-0.103027,7.317073,-36.585365,5.487805,-4.906250,38.368752,0.593750,0.0,1.000000,0.000000,0.000000,0.000000
1782117359.571817,1862941,-1.044922,-0.036621,-0.112305,3.292683,-34.329269,4.451220,-4.956250,38.125000,0.956250,0.0,1.000000,0.000000,0.000000,0.000000
1782117359.580817,1862950,-1.004883,-0.049805,-0.121094,-0.548781,-30.304878,1.036585,-4.956250,38.125000,0.956250,0.0,1.000000,0.000000,0.000000,0.000000
1782117359.590817,1862960,-0.975586,-0.034668,-0.154297,-1.768293,-25.792683,-1.646341,-5.012500,37.968750,1.225000,0.0,1.000000,0.000000,0.000000,0.000000
1782117359.600817,1862970,-0.964844,-0.062500,-0.185059,-0.243902,-20.000000,-2.073171,-5.012500,37.968750,1.225000,0.0,1.000000,0.000000,0.000000,0.000000
1782117359.610817,1862980,-0.973633,-0.059570,-0.200684,2.439024,-17.804878,-1.646341,-5.293750,37.812500,1.387500,0.0,1.000000,0.000000,0.000000,0.000000
1782117359.620817,1862990,-0.958984,-0.062012,-0.240723,10.853659,-18.963415,-0.548781,-5.293750,37.812500,1.387500,0.0,1.000000,0.000000,0.000000,0.000000
1782117359.630817,1863000,-0.932129,-0.027832,-0.241211,17.743902,-18.902439,-0.060976,-5.406250,37.856251,1.643750,0.0,1.000000,0.000000,0.000000,0.000000
1782117359.640817,1863010,-0.909668,-0.019043,-0.231934,17.804878,-14.634147,-0.121951,-5.406250,37.856251,1.643750,0.0,1.000000,0.000000,0.000000,0.000000
1782117359.650817,1863020,-0.912109,0.000000,-0.226562,16.097561,-9.085366,0.060976,-5.406250,38.081249,1.831250,0.0,1.000000,0.000000,0.000000,0.000000
1782117359.660817,1863030,-0.935059,0.027832,-0.210449,13.963415,-4.939024,0.182927,-5.406250,38.081249,1.831250,0.0,1.000000,0.000000,0.000000,0.000000
1782117359.670817,1863040,-0.953125,0.026855,-0.188477,13.597561,-2.987805,-0.121951,-5.337500,38.287502,2.012500,0.0,1.000000,0.000000,0.000000,0.000000
1782117359.680817,1863050,-0.963379,0.018066,-0.165527,15.548780,-1.768293,-0.548781,-5.337500,38.287502,2.012500,0.0,1.000000,0.000000,0.000000,0.000000
1782117359.690817,1863060,-0.973633,0.014160,-0.143555,18.597561,-0.304878,-0.304878,-5.143750,38.450001,2.018750,0.0,1.000000,0.000000,0.000000,0.000000
1782117359.700817,1863070,-0.979004,0.009766,-0.122559,21.646341,0.548781,0.304878,-5.143750,38.450001,2.018750,0.0,1.000000,0.000000,0.000000,0.000000
1782117359.710817,1863080,-0.973145,0.002930,-0.108887,22.926830,0.792683,0.609756,-4.656250,38.843750,2.081250,0.0,1.000000,0.000000,0.000000,0.000000
1782117359.721817,1863091,-0.972656,0.006836,-0.100586,23.902439,1.768293,0.487805,-4.868750,38.325001,1.975000,0.0,1.000000,0.000000,0.000000,0.000000
1782117359.730817,1863100,-0.978516,0.019043,-0.096191,25.365854,3.170732,0.304878,-4.868750,38.325001,1.975000,0.0,1.000000,0.000000,0.000000,0.000000
1782117359.741817,1863111,-0.980469,0.035156,-0.083496,27.378050,3.292683,0.853659,-4.818750,38.100002,1.893750,0.0,1.000000,0.000000,0.000000,0.000000
1782117359.751817,1863121,-0.984375,0.060547,-0.061035,27.743902,3.475610,1.463415,-4.818750,38.100002,1.893750,0.0,1.000000,0.000000,0.000000,0.000000
1782117359.761817,1863131,-0.990234,0.094238,-0.032715,25.243902,4.573171,1.524390,-4.893750,37.950001,1.843750,0.0,1.000000,0.000000,0.000000,0.000000
1782117359.771817,1863141,-0.990234,0.094238,-0.032715,25.243902,4.573171,1.524390,-4.893750,37.950001,1.843750,0.0,1.000000,0.000000,0.000000,0.000000
1782117359.780817,1863150,-0.991699,0.125977,-0.008301,19.817074,6.341464,1.341463,-4.750000,37.993752,1.762500,0.0,1.000000,0.000000,0.000000,0.000000
1782117359.790817,1863160,-0.989258,0.137695,0.002441,14.146341,8.170732,1.097561,-4.750000,37.993752,1.762500,0.0,1.000000,0.000000,0.000000,0.000000
1782117359.800817,1863170,-0.977539,0.144531,0.013184,9.939025,9.512196,0.365854,-4.943750,37.812500,1.562500,0.0,1.000000,0.000000,0.000000,0.000000
1782117359.810817,1863180,-0.958008,0.144531,0.033203,5.609756,11.524390,-1.158537,-4.943750,37.812500,1.562500,0.0,1.000000,0.000000,0.000000,0.000000
1782117359.820817,1863190,-0.950684,0.150391,0.044922,-0.731707,14.634147,-2.804878,-4.750000,38.131252,1.468750,0.0,1.000000,0.000000,0.000000,0.000000
1782117359.830817,1863200,-0.965332,0.155762,0.047852,-7.804878,17.439024,-3.597561,-4.750000,38.131252,1.468750,0.0,1.000000,0.000000,0.000000,0.000000
1782117359.840817,1863210,-0.995605,0.155273,0.053223,-14.634147,18.841463,-3.780488,-4.937500,38.018749,1.181250,0.0,1.000000,0.000000,0.000000,0.000000
1782117359.850817,1863220,-1.035156,0.139160,0.049805,-21.402439,20.000000,-3.475610,-4.937500,38.018749,1.181250,0.0,1.000000,0.000000,0.000000,0.000000
1782117359.860817,1863230,-1.083984,0.113770,0.048828,-24.146341,18.658537,-2.682927,-5.100000,38.031250,0.787500,0.0,1.000000,0.000000,0.000000,0.000000
1782117359.870817,1863240,-1.126953,0.085449,0.059082,-24.146341,15.914635,-1.585366,-5.100000,38.031250,0.787500,0.0,1.000000,0.000000,0.000000,0.000000
1782117359.880817,1863250,-1.166016,0.057129,0.062988,-22.317074,11.951220,-0.182927,-5.087500,38.137501,0.550000,0.0,1.000000,0.000000,0.000000,0.000000
1782117359.890817,1863260,-1.171875,0.034180,0.058105,-18.902439,5.975610,0.731707,-5.087500,38.137501,0.550000,0.0,1.000000,0.000000,0.000000,0.000000
1782117359.901817,1863271,-1.130371,0.033691,0.057129,-16.097561,-0.182927,0.304878,-5.100000,38.075001,0.393750,0.0,1.000000,0.000000,0.000000,0.000000
1782117359.910817,1863280,-1.060059,0.038574,0.045898,-16.036585,-3.109756,-1.463415,-5.100000,38.075001,0.393750,0.0,1.000000,0.000000,0.000000,0.000000
1782117359.920817,1863290,-1.003418,0.044434,0.013672,-18.475611,-1.524390,-3.536585,-5.218750,37.981251,0.362500,0.0,1.000000,0.000000,0.000000,0.000000
1782117359.930817,1863300,-0.983398,0.042480,-0.026367,-20.670732,2.134146,-4.268293,-5.218750,37.981251,0.362500,0.0,1.000000,0.000000,0.000000,0.000000
1782117359.940817,1863310,-0.993652,0.031250,-0.056152,-21.341463,5.060976,-3.597561,-5.393750,37.825001,0.325000,0.0,1.000000,0.000000,0.000000,0.000000
1782117359.951817,1863321,-1.005371,0.014160,-0.071777,-18.902439,5.670732,-2.560976,-5.393750,37.825001,0.325000,0.0,1.000000,0.000000,0.000000,0.000000
1782117359.960817,1863330,-0.996582,0.002441,-0.081543,-15.365854,5.426829,-1.768293,-5.450000,37.818752,0.175000,0.0,1.000000,0.000000,0.000000,0.000000
1782117359.970817,1863340,-0.979004,0.003906,-0.082031,-12.560976,5.670732,-1.036585,-5.450000,37.818752,0.175000,0.0,1.000000,0.000000,0.000000,0.000000
1782117359.980817,1863350,-0.969727,0.001953,-0.089355,-11.524390,6.524390,-0.060976,-5.487500,37.843750,0.175000,0.0,1.000000,0.000000,0.000000,0.000000
1782117359.990817,1863360,-0.977051,-0.014160,-0.107910,-10.548780,8.109756,2.012195,-5.487500,37.843750,0.175000,0.0,1.000000,0.000000,0.000000,0.000000
1782117360.000817,1863370,-1.007324,-0.024414,-0.119629,-8.353659,9.634147,4.207317,-5.356250,37.987499,0.087500,0.0,1.000000,0.000000,0.000000,0.000000
1782117360.011817,1863381,-1.027344,-0.026367,-0.114746,-4.268293,7.012195,6.280488,-5.350000,37.924999,0.075000,0.0,1.000000,0.000000,0.000000,0.000000
1782117360.020817,1863390,-1.021973,-0.023926,-0.100098,-0.121951,4.024390,6.402439,-5.350000,37.924999,0.075000,0.0,1.000000,0.000000,0.000000,0.000000
1782117360.031817,1863401,-1.001953,-0.020020,-0.091797,2.073171,2.500000,5.000000,-5.106250,38.137501,0.175000,0.0,1.000000,0.000000,0.000000,0.000000
1782117360.040817,1863410,-0.990723,-0.016113,-0.102539,2.317073,4.024390,3.231707,-5.106250,38.137501,0.175000,0.0,1.000000,0.000000,0.000000,0.000000
1782117360.050817,1863420,-0.996582,-0.007324,-0.120605,2.073171,5.792683,2.621951,-5.150000,37.956249,0.243750,0.0,1.000000,0.000000,0.000000,0.000000
1782117360.062817,1863432,-1.006348,-0.009277,-0.128906,2.926829,4.817073,2.865854,-5.150000,37.956249,0.243750,0.0,1.000000,0.000000,0.000000,0.000000
1782117360.070817,1863440,-1.005371,-0.005859,-0.126953,5.000000,1.951220,2.926829,-5.062500,38.018749,0.337500,0.0,1.000000,0.000000,0.000000,0.000000
1782117360.080817,1863450,-0.982910,-0.003906,-0.123047,6.463415,-0.914634,2.317073,-5.062500,38.018749,0.337500,0.0,1.000000,0.000000,0.000000,0.000000
1782117360.091817,1863461,-0.959961,0.002930,-0.126953,6.219512,-2.195122,0.975610,-5.056250,38.000000,0.500000,0.0,1.000000,0.000000,0.000000,0.000000
1782117360.101817,1863471,-0.955078,0.032227,-0.163574,3.109756,-0.670732,1.280488,-5.056250,38.000000,0.500000,0.0,1.000000,0.000000,0.000000,0.000000
1782117360.110817,1863480,-0.982422,0.059082,-0.208496,-2.439024,2.804878,4.634146,-4.925000,38.062500,0.612500,0.0,1.000000,0.000000,0.000000,0.000000
1782117360.120817,1863490,-1.032227,0.069336,-0.245117,-5.609756,4.146341,10.548780,-4.925000,38.062500,0.612500,0.0,1.000000,0.000000,0.000000,0.000000
1782117360.130817,1863500,-1.079102,0.045410,-0.260742,-5.182927,3.292683,14.878049,-4.806250,38.049999,0.518750,0.0,1.000000,0.000000,0.000000,0.000000
1782117360.141817,1863511,-1.052734,0.020996,-0.250000,-2.317073,-0.975610,13.536586,-4.806250,38.049999,0.518750,0.0,1.000000,0.000000,0.000000,0.000000
1782117360.151817,1863521,-0.988770,0.019043,-0.242676,-1.646341,0.060976,8.902439,-4.625000,38.193752,0.637500,0.0,1.000000,0.000000,0.000000,0.000000
1782117360.160817,1863530,-0.944336,0.012207,-0.254883,-6.097561,6.097561,3.292683,-4.625000,38.193752,0.637500,0.0,1.000000,0.000000,0.000000,0.000000
1782117360.170817,1863540,-0.908203,-0.000488,-0.291016,-14.512196,14.207317,-1.463415,-4.643750,38.168751,0.531250,0.0,1.000000,0.000000,0.000000,0.000000
1782117360.181817,1863551,-0.899902,-0.025879,-0.344727,-23.414635,23.231709,-5.853659,-4.643750,38.168751,0.531250,0.0,1.000000,0.000000,0.000000,0.000000
1782117360.191817,1863561,-0.889648,-0.050293,-0.352051,-29.268293,27.865854,-9.634147,-4.762500,38.293751,0.325000,0.0,1.000000,0.000000,0.000000,0.000000
1782117360.200817,1863570,-0.913086,-0.067871,-0.332520,-30.975611,31.097561,-12.256098,-4.762500,38.293751,0.325000,0.0,1.000000,0.000000,0.000000,0.000000
1782117360.210817,1863580,-0.959961,-0.089355,-0.296387,-30.182928,32.439026,-12.987805,-5.031250,38.250000,-0.200000,0.0,1.000000,0.000000,0.000000,0.000000
1782117360.222817,1863592,-0.993652,-0.117188,-0.254883,-29.634148,30.000000,-13.536586,-5.031250,38.250000,-0.200000,0.0,1.000000,0.000000,0.000000,0.000000
1782117360.230817,1863600,-1.007324,-0.132812,-0.255371,-30.487806,27.439026,-13.658537,-5.275000,38.387501,-0.562500,0.0,1.000000,0.000000,0.000000,0.000000
1782117360.240817,1863610,-1.002930,-0.130371,-0.288086,-31.158537,26.707317,-13.292684,-5.275000,38.387501,-0.562500,0.0,1.000000,0.000000,0.000000,0.000000
1782117360.251817,1863621,-0.977539,-0.092773,-0.310059,-31.829269,26.524391,-12.378049,-5.643750,38.350002,-0.975000,0.0,1.000000,0.000000,0.000000,0.000000
1782117360.261817,1863631,-0.962891,-0.023438,-0.304688,-33.292683,25.609756,-10.792684,-5.643750,38.350002,-0.975000,0.0,1.000000,0.000000,0.000000,0.000000
1782117360.271817,1863641,-0.939941,0.041504,-0.296875,-35.487804,23.597561,-9.085366,-5.850000,38.487499,-1.456250,0.0,1.000000,0.000000,0.000000,0.000000
1782117360.280817,1863650,-0.925293,0.081055,-0.310547,-34.329269,21.646341,-6.097561,-5.850000,38.487499,-1.456250,0.0,1.000000,0.000000,0.000000,0.000000
1782117360.291817,1863661,-0.928223,0.077148,-0.314941,-27.134148,20.000000,-3.048780,-6.118750,38.506252,-1.893750,0.0,1.000000,0.000000,0.000000,0.000000
1782117360.302817,1863672,-0.948730,0.048340,-0.300293,-18.597561,17.378050,-0.853659,-6.256250,38.562500,-2.325000,0.0,1.000000,0.000000,0.000000,0.000000
1782117360.311817,1863681,-0.935547,-0.002930,-0.302246,-12.378049,14.024390,-1.280488,-6.256250,38.562500,-2.325000,0.0,1.000000,0.000000,0.000000,0.000000
1782117360.321817,1863691,-0.944824,-0.042969,-0.309082,-7.317073,15.487805,-2.134146,-6.406250,38.618752,-2.550000,0.0,1.000000,0.000000,0.000000,0.000000
1782117360.330817,1863700,-0.970215,-0.067383,-0.314453,-7.500000,14.451220,-4.268293,-6.406250,38.618752,-2.550000,0.0,1.000000,0.000000,0.000000,0.000000
1782117360.340817,1863710,-0.965820,-0.077637,-0.326172,-11.829268,12.073171,-6.097561,-6.493750,38.693752,-2.787500,0.0,1.000000,0.000000,0.000000,0.000000
1782117360.350817,1863720,-0.952637,-0.075195,-0.328125,-17.012196,12.317074,-7.195122,-6.493750,38.693752,-2.787500,0.0,1.000000,0.000000,0.000000,0.000000
1782117360.360817,1863730,-0.938965,-0.061523,-0.325684,-21.890244,13.109756,-7.378049,-6.468750,38.868752,-2.937500,0.0,1.000000,0.000000,0.000000,0.000000
1782117360.370817,1863740,-0.927246,-0.048340,-0.328125,-24.756098,13.841464,-6.829268,-6.468750,38.868752,-2.937500,0.0,1.000000,0.000000,0.000000,0.000000
1782117360.382817,1863752,-0.920898,-0.033691,-0.342773,-25.548780,14.207317,-5.914634,-6.793750,38.612499,-3.293750,0.0,1.000000,0.000000,0.000000,0.000000
1782117360.390817,1863760,-0.919922,-0.025879,-0.359375,-24.390244,13.902439,-4.634146,-6.793750,38.612499,-3.293750,0.0,1.000000,0.000000,0.000000,0.000000
1782117360.400817,1863770,-0.918945,-0.023926,-0.366211,-21.829269,13.414635,-3.658537,-6.850000,38.562500,-3.562500,0.0,1.000000,0.000000,0.000000,0.000000
1782117360.410817,1863780,-0.935547,-0.034180,-0.364746,-19.878050,10.548780,-4.024390,-6.850000,38.562500,-3.562500,0.0,1.000000,0.000000,0.000000,0.000000
1782117360.423817,1863793,-0.913574,-0.039062,-0.361816,-14.756098,11.951220,-2.134146,-6.931250,38.512501,-3.718750,0.0,1.000000,0.000000,0.000000,0.000000
1782117360.430817,1863800,-0.940430,-0.072266,-0.350586,-9.939025,13.414635,-1.890244,-6.931250,38.512501,-3.718750,0.0,1.000000,0.000000,0.000000,0.000000
1782117360.440817,1863810,-0.956543,-0.099121,-0.345703,-6.585366,12.012196,-1.829268,-7.056250,38.568752,-3.993750,0.0,1.000000,0.000000,0.000000,0.000000
1782117360.451817,1863821,-0.965820,-0.110840,-0.350098,-3.597561,12.012196,-1.097561,-7.056250,38.568752,-3.993750,0.0,1.000000,0.000000,0.000000,0.000000
1782117360.464817,1863834,-0.967285,-0.109375,-0.348633,-0.609756,11.036586,-0.792683,-7.162500,38.537502,-4.193750,0.0,1.000000,0.000000,0.000000,0.000000
1782117360.471817,1863841,-0.964355,-0.088379,-0.351562,1.158537,10.182927,0.000000,-7.162500,38.537502,-4.193750,0.0,1.000000,0.000000,0.000000,0.000000
1782117360.480817,1863850,-0.965820,-0.064941,-0.354980,2.439024,8.841464,0.670732,-7.112500,38.674999,-4.343750,0.0,1.000000,0.000000,0.000000,0.000000
1782117360.490817,1863860,-0.965820,-0.036133,-0.357910,3.658537,6.951220,1.219512,-7.112500,38.674999,-4.343750,0.0,1.000000,0.000000,0.000000,0.000000
1782117360.503817,1863873,-0.955566,-0.010254,-0.360352,5.243903,5.304878,1.341463,-7.250000,38.650002,-4.443750,0.0,1.000000,0.000000,0.000000,0.000000
1782117360.510817,1863880,-0.949219,0.008789,-0.360840,6.280488,4.329268,1.097561,-7.250000,38.650002,-4.443750,0.0,1.000000,0.000000,0.000000,0.000000
1782117360.520817,1863890,-0.944336,0.023438,-0.365234,6.585366,3.780488,0.914634,-7.193750,38.756252,-4.387500,0.0,1.000000,0.000000,0.000000,0.000000
1782117360.531817,1863901,-0.941895,0.031250,-0.369629,5.609756,3.475610,1.036585,-7.193750,38.756252,-4.387500,0.0,1.000000,0.000000,0.000000,0.000000
1782117360.542817,1863912,-0.944824,0.036621,-0.377930,2.987805,2.865854,1.341463,-7.281250,38.674999,-4.456250,0.0,1.000000,0.000000,0.000000,0.000000
1782117360.550817,1863920,-0.943359,0.029785,-0.389160,0.243902,2.195122,1.585366,-7.281250,38.674999,-4.456250,0.0,1.000000,0.000000,0.000000,0.000000
1782117360.561817,1863931,-0.933594,0.019531,-0.395996,-2.560976,1.341463,1.402439,-7.062500,38.906250,-4.443750,0.0,1.000000,0.000000,0.000000,0.000000
1782117360.571817,1863941,-0.919922,0.003906,-0.401855,-3.536585,2.256098,1.219512,-7.062500,38.906250,-4.443750,0.0,1.000000,0.000000,0.000000,0.000000
1782117360.583817,1863953,-0.925781,0.000488,-0.400391,-4.573171,2.743902,0.914634,-7.268750,38.693752,-4.562500,0.0,1.000000,0.000000,0.000000,0.000000
1782117360.590817,1863960,-0.925781,-0.017090,-0.411133,-4.451220,2.987805,0.609756,-7.268750,38.693752,-4.562500,0.0,1.000000,0.000000,0.000000,0.000000
1782117360.600817,1863970,-0.923340,-0.016602,-0.403809,-4.573171,2.743902,0.548781,-7.281250,38.718750,-4.606250,0.0,1.000000,0.000000,0.000000,0.000000
1782117360.610817,1863980,-0.923340,-0.016602,-0.403809,-4.573171,2.743902,0.548781,-7.312500,38.656250,-4.687500,0.0,1.000000,0.000000,0.000000,0.000000
1782117360.621817,1863991,-0.920410,-0.026367,-0.395020,-2.317073,2.378049,0.182927,-7.312500,38.656250,-4.687500,0.0,1.000000,0.000000,0.000000,0.000000
1782117360.630817,1864000,-0.920410,-0.026367,-0.395020,-2.317073,2.378049,0.182927,-7.043750,38.987499,-4.656250,0.0,1.000000,0.000000,0.000000,0.000000
1782117360.640817,1864010,-0.916992,-0.027832,-0.389160,-0.731707,2.195122,0.731707,-7.043750,38.987499,-4.656250,0.0,1.000000,0.000000,0.000000,0.000000
1782117360.650817,1864020,-0.920898,-0.026855,-0.376953,0.975610,2.195122,1.158537,-7.081250,38.900002,-4.800000,0.0,1.000000,0.000000,0.000000,0.000000
1782117360.662817,1864032,-0.926270,-0.033203,-0.375488,2.073171,2.195122,1.524390,-7.081250,38.900002,-4.800000,0.0,1.000000,0.000000,0.000000,0.000000
1782117360.671817,1864041,-0.928223,-0.020996,-0.362305,2.500000,2.926829,1.341463,-7.256250,38.750000,-4.831250,0.0,1.000000,0.000000,0.000000,0.000000
1782117360.680817,1864050,-0.930664,-0.016113,-0.355957,2.500000,3.231707,1.219512,-7.256250,38.750000,-4.831250,0.0,1.000000,0.000000,0.000000,0.000000
1782117360.690817,1864060,-0.928223,-0.013672,-0.346191,3.048780,3.475610,1.158537,-7.281250,38.737499,-4.881250,0.0,1.000000,0.000000,0.000000,0.000000
1782117360.702817,1864072,-0.927246,-0.014648,-0.340820,3.414634,4.207317,1.097561,-7.281250,38.737499,-4.881250,0.0,1.000000,0.000000,0.000000,0.000000
1782117360.710817,1864080,-0.925293,0.000000,-0.323730,2.987805,4.329268,1.341463,-7.218750,38.781250,-4.931250,0.0,1.000000,0.000000,0.000000,0.000000
1782117360.721817,1864091,-0.934082,-0.008301,-0.320801,3.231707,4.756098,1.219512,-7.218750,38.781250,-4.931250,0.0,1.000000,0.000000,0.000000,0.000000
1782117360.731817,1864101,-0.940918,-0.002441,-0.303711,2.865854,6.097561,0.670732,-7.256250,38.750000,-4.987500,0.0,1.000000,0.000000,0.000000,0.000000
1782117360.743817,1864113,-0.948730,0.000000,-0.304199,1.890244,5.792683,0.975610,-7.256250,38.750000,-4.987500,0.0,1.000000,0.000000,0.000000,0.000000
1782117360.750817,1864120,-0.960938,-0.001465,-0.302734,0.975610,5.304878,2.073171,-7.256250,38.806252,-5.025000,0.0,1.000000,0.000000,0.000000,0.000000
1782117360.760817,1864130,-0.968262,-0.008789,-0.303711,0.731707,5.304878,2.256098,-7.256250,38.806252,-5.025000,0.0,1.000000,0.000000,0.000000,0.000000
1782117360.770817,1864140,-0.976074,-0.013672,-0.304688,0.487805,5.000000,2.439024,-7.281250,38.775002,-5.175000,0.0,1.000000,0.000000,0.000000,0.000000
1782117360.782817,1864152,-0.982422,-0.015137,-0.299805,1.341463,4.817073,2.378049,-7.281250,38.775002,-5.175000,0.0,1.000000,0.000000,0.000000,0.000000
1782117360.790817,1864160,-0.987305,-0.019043,-0.298828,2.804878,4.268293,2.256098,-7.212500,38.850002,-5.206250,0.0,1.000000,0.000000,0.000000,0.000000
1782117360.800817,1864170,-0.985840,-0.018555,-0.288086,4.451220,3.475610,2.134146,-7.212500,38.850002,-5.206250,0.0,1.000000,0.000000,0.000000,0.000000
1782117360.810817,1864180,-0.981934,-0.018555,-0.282227,5.914634,3.048780,1.951220,-7.143750,38.868752,-5.243750,0.0,1.000000,0.000000,0.000000,0.000000
1782117360.820817,1864190,-0.977539,-0.011719,-0.277344,6.768293,2.682927,2.012195,-7.143750,38.868752,-5.243750,0.0,1.000000,0.000000,0.000000,0.000000
1782117360.831817,1864201,-0.976562,-0.008789,-0.279785,7.317073,2.560976,2.195122,-7.193750,38.837502,-5.281250,0.0,1.000000,0.000000,0.000000,0.000000
1782117360.840817,1864210,-0.976074,-0.000488,-0.279785,7.621952,2.560976,2.621951,-7.193750,38.837502,-5.281250,0.0,1.000000,0.000000,0.000000,0.000000
1782117360.850817,1864220,-0.973145,-0.000977,-0.289551,7.682927,2.073171,2.926829,-7.125000,38.843750,-5.262500,0.0,1.000000,0.000000,0.000000,0.000000
1782117360.862817,1864232,-0.972656,-0.002930,-0.296875,8.109756,1.341463,3.048780,-7.125000,38.843750,-5.262500,0.0,1.000000,0.000000,0.000000,0.000000
1782117360.871817,1864241,-0.972656,0.003418,-0.299805,8.658537,0.487805,3.048780,-7.137500,38.825001,-5.281250,0.0,1.000000,0.000000,0.000000,0.000000
1782117360.880817,1864250,-0.965820,0.011230,-0.295898,8.963415,-0.548781,2.926829,-7.137500,38.825001,-5.281250,0.0,1.000000,0.000000,0.000000,0.000000
1782117360.890817,1864260,-0.958496,0.016602,-0.293457,9.085366,-1.341463,2.804878,-6.987500,38.943752,-5.193750,0.0,1.000000,0.000000,0.000000,0.000000
1782117360.901817,1864271,-0.952637,0.017578,-0.292969,9.024390,-1.707317,2.743902,-7.031250,38.900002,-5.175000,0.0,1.000000,0.000000,0.000000,0.000000
1782117360.910817,1864280,-0.948242,0.022949,-0.292969,8.048780,-1.646341,2.743902,-7.031250,38.900002,-5.175000,0.0,1.000000,0.000000,0.000000,0.000000
1782117360.923817,1864293,-0.946289,0.016602,-0.303711,6.158537,-1.524390,2.743902,-7.006250,38.881252,-5.068750,0.0,1.000000,0.000000,0.000000,0.000000
1782117360.930817,1864300,-0.945312,0.014160,-0.316406,3.902439,-1.402439,2.682927,-7.006250,38.881252,-5.068750,0.0,1.000000,0.000000,0.000000,0.000000
1782117360.943817,1864313,-0.947754,0.015625,-0.322754,2.012195,-1.158537,2.560976,-6.962500,38.937500,-4.968750,0.0,1.000000,0.000000,0.000000,0.000000
1782117360.952817,1864322,-0.945801,0.014160,-0.325684,0.487805,-1.036585,2.317073,-6.962500,38.937500,-4.968750,0.0,1.000000,0.000000,0.000000,0.000000
1782117360.960817,1864330,-0.941895,0.013184,-0.327148,-0.182927,-0.731707,1.707317,-6.900000,39.018749,-5.018750,0.0,1.000000,0.000000,0.000000,0.000000
1782117360.970817,1864340,-0.939941,0.006348,-0.328125,-0.182927,-0.060976,1.280488,-6.900000,39.018749,-5.018750,0.0,1.000000,0.000000,0.000000,0.000000
1782117360.980817,1864350,-0.944336,-0.001953,-0.328613,0.121951,0.548781,1.158537,-6.925000,39.018749,-5.037500,0.0,1.000000,0.000000,0.000000,0.000000
1782117360.990817,1864360,-0.949707,-0.007324,-0.331543,0.243902,0.670732,1.341463,-6.925000,39.018749,-5.037500,0.0,1.000000,0.000000,0.000000,0.000000
1782117361.000817,1864370,-0.953125,-0.011719,-0.333984,0.121951,0.365854,1.646341,-6.812500,39.118752,-5.006250,0.0,1.000000,0.000000,0.000000,0.000000
1782117361.010817,1864380,-0.952637,-0.016113,-0.336426,0.060976,0.365854,1.646341,-6.812500,39.118752,-5.006250,0.0,1.000000,0.000000,0.000000,0.000000
1782117361.023817,1864393,-0.953613,-0.010742,-0.335938,0.243902,0.365854,1.524390,-6.893750,39.031250,-4.987500,0.0,1.000000,0.000000,0.000000,0.000000
1782117361.030817,1864400,-0.951172,-0.009277,-0.332031,0.975610,0.365854,1.524390,-6.893750,39.031250,-4.987500,0.0,1.000000,0.000000,0.000000,0.000000
1782117361.040817,1864410,-0.953613,-0.011230,-0.330566,2.073171,0.670732,1.524390,-6.856250,39.075001,-5.062500,0.0,1.000000,0.000000,0.000000,0.000000
1782117361.050817,1864420,-0.957520,-0.008789,-0.328125,2.621951,0.731707,1.707317,-6.856250,39.075001,-5.062500,0.0,1.000000,0.000000,0.000000,0.000000
1782117361.061817,1864431,-0.955078,-0.005371,-0.330078,2.926829,0.548781,1.951220,-6.837500,38.993752,-5.018750,0.0,1.000000,0.000000,0.000000,0.000000
1782117361.070817,1864440,-0.952637,-0.005371,-0.329590,3.048780,0.548781,2.073171,-6.837500,38.993752,-5.018750,0.0,1.000000,0.000000,0.000000,0.000000
1782117361.080817,1864450,-0.951172,-0.003418,-0.330566,2.743902,0.548781,2.134146,-6.568750,39.250000,-4.962500,0.0,1.000000,0.000000,0.000000,0.000000
1782117361.091817,1864461,-0.950684,-0.002441,-0.331055,2.560976,0.609756,2.195122,-6.568750,39.250000,-4.962500,0.0,1.000000,0.000000,0.000000,0.000000
1782117361.101817,1864471,-0.952637,-0.000977,-0.328125,2.804878,0.365854,2.256098,-6.862500,39.006252,-5.037500,0.0,1.000000,0.000000,0.000000,0.000000
1782117361.111817,1864481,-0.950684,-0.002441,-0.325684,3.353659,0.121951,2.256098,-6.862500,39.006252,-5.037500,0.0,1.000000,0.000000,0.000000,0.000000
1782117361.120817,1864490,-0.949707,-0.002930,-0.324707,3.719512,-0.121951,2.256098,-6.831250,39.043751,-4.987500,0.0,1.000000,0.000000,0.000000,0.000000
1782117361.131817,1864501,-0.952148,-0.003906,-0.325195,3.719512,-0.243902,2.256098,-6.831250,39.043751,-4.987500,0.0,1.000000,0.000000,0.000000,0.000000
1782117361.140817,1864510,-0.953125,-0.001953,-0.325195,3.292683,-0.487805,2.256098,-6.850000,39.043751,-4.956250,0.0,1.000000,0.000000,0.000000,0.000000
1782117361.150817,1864520,-0.952148,-0.000977,-0.327637,2.621951,-0.731707,2.195122,-6.850000,39.043751,-4.956250,0.0,1.000000,0.000000,0.000000,0.000000
1782117361.160817,1864530,-0.949219,0.001953,-0.330566,1.829268,-0.853659,2.012195,-6.718750,39.062500,-4.950000,0.0,1.000000,0.000000,0.000000,0.000000
1782117361.170817,1864540,-0.945801,0.006348,-0.332520,0.975610,-0.914634,1.707317,-6.718750,39.062500,-4.950000,0.0,1.000000,0.000000,0.000000,0.000000
1782117361.180817,1864550,-0.945312,0.007812,-0.335449,0.670732,-0.792683,1.524390,-6.756250,39.012501,-4.950000,0.0,1.000000,0.000000,0.000000,0.000000
1782117361.190817,1864560,-0.946289,0.006836,-0.333984,0.548781,-0.792683,1.524390,-6.756250,39.012501,-4.950000,0.0,1.000000,0.000000,0.000000,0.000000
1782117361.200817,1864570,-0.947266,0.006348,-0.330078,0.670732,-0.914634,1.646341,-6.637500,39.150002,-4.900000,0.0,1.000000,0.000000,0.000000,0.000000
1782117361.210817,1864580,-0.951660,-0.000977,-0.328613,0.914634,-1.097561,1.890244,-6.718750,39.131252,-4.812500,0.0,1.000000,0.000000,0.000000,0.000000
1782117361.220817,1864590,-0.955566,-0.007812,-0.327148,1.219512,-1.341463,2.134146,-6.718750,39.131252,-4.812500,0.0,1.000000,0.000000,0.000000,0.000000
1782117361.230817,1864600,-0.954102,-0.012695,-0.326172,1.463415,-1.829268,2.073171,-6.612500,39.206249,-4.812500,0.0,1.000000,0.000000,0.000000,0.000000
1782117361.240817,1864610,-0.953613,-0.013672,-0.325684,1.951220,-2.256098,2.073171,-6.612500,39.206249,-4.812500,0.0,1.000000,0.000000,0.000000,0.000000
1782117361.251817,1864621,-0.951660,-0.012207,-0.329102,2.926829,-2.439024,2.378049,-6.518750,39.299999,-4.775000,0.0,1.000000,0.000000,0.000000,0.000000
1782117361.260817,1864630,-0.949219,-0.010742,-0.331543,4.024390,-2.621951,2.682927,-6.518750,39.299999,-4.775000,0.0,1.000000,0.000000,0.000000,0.000000
1782117361.271817,1864641,-0.948242,-0.006836,-0.334473,4.939024,-2.743902,2.926829,-6.543750,39.212502,-4.756250,0.0,1.000000,0.000000,0.000000,0.000000
1782117361.281817,1864651,-0.948242,-0.004395,-0.334473,5.365854,-2.804878,3.048780,-6.543750,39.212502,-4.756250,0.0,1.000000,0.000000,0.000000,0.000000
1782117361.291817,1864661,-0.947754,-0.005859,-0.335449,5.426829,-2.804878,3.048780,-6.550000,39.112499,-4.681250,0.0,1.000000,0.000000,0.000000,0.000000
1782117361.300817,1864670,-0.951172,-0.001953,-0.335938,5.121951,-2.682927,2.865854,-6.550000,39.112499,-4.681250,0.0,1.000000,0.000000,0.000000,0.000000
1782117361.311817,1864681,-0.952148,0.000977,-0.331543,5.000000,-2.865854,2.743902,-6.550000,39.100002,-4.650000,0.0,1.000000,0.000000,0.000000,0.000000
1782117361.321817,1864691,-0.946289,0.001465,-0.329102,4.512195,-2.987805,2.439024,-6.550000,39.100002,-4.650000,0.0,1.000000,0.000000,0.000000,0.000000
1782117361.330817,1864700,-0.942383,0.003906,-0.328125,4.146341,-2.378049,2.317073,-6.431250,39.181252,-4.606250,0.0,1.000000,0.000000,0.000000,0.000000
1782117361.340817,1864710,-0.944824,0.002441,-0.325684,3.536585,-2.195122,2.439024,-6.431250,39.181252,-4.606250,0.0,1.000000,0.000000,0.000000,0.000000
1782117361.352817,1864722,-0.944824,0.001953,-0.323730,2.439024,-1.951220,2.378049,-6.425000,39.218750,-4.543750,0.0,1.000000,0.000000,0.000000,0.000000
1782117361.360817,1864730,-0.946289,0.000488,-0.323730,1.585366,-1.890244,2.256098,-6.425000,39.218750,-4.543750,0.0,1.000000,0.000000,0.000000,0.000000
1782117361.370817,1864740,-0.949707,-0.000488,-0.321289,1.097561,-1.768293,2.073171,-6.456250,39.143749,-4.500000,0.0,1.000000,0.000000,0.000000,0.000000
1782117361.380817,1864750,-0.955078,-0.001465,-0.318359,1.036585,-1.768293,1.829268,-6.456250,39.143749,-4.500000,0.0,1.000000,0.000000,0.000000,0.000000
1782117361.390817,1864760,-0.957031,-0.003418,-0.312012,0.914634,-1.768293,1.524390,-6.406250,39.143749,-4.468750,0.0,1.000000,0.000000,0.000000,0.000000
1782117361.400817,1864770,-0.955078,-0.003906,-0.310059,0.975610,-1.951220,1.280488,-6.406250,39.143749,-4.468750,0.0,1.000000,0.000000,0.000000,0.000000
1782117361.410817,1864780,-0.951660,-0.002441,-0.307617,1.097561,-2.134146,1.158537,-6.400000,39.168751,-4.418750,0.0,1.000000,0.000000,0.000000,0.000000
1782117361.420817,1864790,-0.949707,-0.000977,-0.306641,0.975610,-2.073171,1.097561,-6.400000,39.168751,-4.418750,0.0,1.000000,0.000000,0.000000,0.000000
1782117361.430817,1864800,-0.950195,0.002930,-0.306152,0.609756,-1.890244,1.158537,-6.400000,39.068752,-4.406250,0.0,1.000000,0.000000,0.000000,0.000000
1782117361.440817,1864810,-0.951172,0.006348,-0.308594,0.243902,-1.768293,1.280488,-6.400000,39.068752,-4.406250,0.0,1.000000,0.000000,0.000000,0.000000
1782117361.450817,1864820,-0.951172,0.006348,-0.308594,0.243902,-1.768293,1.280488,-6.393750,39.118752,-4.437500,0.0,1.000000,0.000000,0.000000,0.000000
1782117361.460817,1864830,-0.954102,0.008301,-0.309082,-0.121951,-1.646341,1.280488,-6.393750,39.118752,-4.437500,0.0,1.000000,0.000000,0.000000,0.000000
1782117361.470817,1864840,-0.956055,0.006836,-0.308105,-0.121951,-1.524390,0.975610,-6.456250,39.068752,-4.468750,0.0,1.000000,0.000000,0.000000,0.000000
1782117361.481817,1864851,-0.959961,0.005859,-0.303711,0.121951,-1.707317,0.975610,-6.343750,39.150002,-4.412500,0.0,1.000000,0.000000,0.000000,0.000000
1782117361.491817,1864861,-0.960938,0.004883,-0.301758,0.548781,-1.951220,1.036585,-6.343750,39.150002,-4.412500,0.0,1.000000,0.000000,0.000000,0.000000
1782117361.501817,1864871,-0.958496,0.002441,-0.298340,0.792683,-2.012195,1.097561,-6.368750,39.162502,-4.350000,0.0,1.000000,0.000000,0.000000,0.000000
1782117361.511817,1864881,-0.956055,0.000488,-0.296875,0.670732,-1.707317,1.036585,-6.368750,39.162502,-4.350000,0.0,1.000000,0.000000,0.000000,0.000000
1782117361.521817,1864891,-0.959961,0.000000,-0.297363,0.609756,-1.463415,1.219512,-6.331250,39.225002,-4.268750,0.0,1.000000,0.000000,0.000000,0.000000
1782117361.531817,1864901,-0.961426,-0.001465,-0.299805,0.792683,-1.402439,1.402439,-6.331250,39.225002,-4.268750,0.0,1.000000,0.000000,0.000000,0.000000
1782117361.540817,1864910,-0.965820,0.000000,-0.300293,1.463415,-1.463415,1.524390,-6.381250,39.143749,-4.343750,0.0,1.000000,0.000000,0.000000,0.000000
1782117361.550817,1864920,-0.966797,0.001465,-0.297363,2.195122,-1.585366,1.646341,-6.381250,39.143749,-4.343750,0.0,1.000000,0.000000,0.000000,0.000000
1782117361.560817,1864930,-0.963379,0.001465,-0.295898,2.560976,-1.646341,1.585366,-6.181250,39.299999,-4.187500,0.0,1.000000,0.000000,0.000000,0.000000
1782117361.570817,1864940,-0.958984,0.003418,-0.296875,2.500000,-1.402439,1.341463,-6.181250,39.299999,-4.187500,0.0,1.000000,0.000000,0.000000,0.000000
1782117361.580817,1864950,-0.957031,0.006348,-0.297363,1.768293,-0.975610,1.158537,-6.343750,39.100002,-4.243750,0.0,1.000000,0.000000,0.000000,0.000000
1782117361.590817,1864960,-0.962402,0.008789,-0.299316,0.853659,-0.609756,1.158537,-6.343750,39.100002,-4.243750,0.0,1.000000,0.000000,0.000000,0.000000
1782117361.600817,1864970,-0.962402,0.009766,-0.300781,0.304878,-0.792683,1.219512,-6.262500,39.256252,-4.212500,0.0,1.000000,0.000000,0.000000,0.000000
1782117361.610817,1864980,-0.965820,0.010742,-0.296387,0.243902,-1.158537,1.219512,-6.262500,39.256252,-4.212500,0.0,1.000000,0.000000,0.000000,0.000000
1782117361.620817,1864990,-0.965820,0.007812,-0.292969,0.487805,-1.707317,1.341463,-6.275000,39.218750,-4.181250,0.0,1.000000,0.000000,0.000000,0.000000
1782117361.630817,1865000,-0.962891,0.005371,-0.292480,0.792683,-2.073171,1.280488,-6.275000,39.218750,-4.181250,0.0,1.000000,0.000000,0.000000,0.000000
1782117361.640817,1865010,-0.959473,0.003906,-0.296387,0.914634,-2.134146,1.341463,-6.275000,39.118752,-4.200000,0.0,1.000000,0.000000,0.000000,0.000000
1782117361.651817,1865021,-0.958496,0.003418,-0.298340,0.792683,-2.012195,1.219512,-6.275000,39.118752,-4.200000,0.0,1.000000,0.000000,0.000000,0.000000
1782117361.660817,1865030,-0.954102,0.001953,-0.302734,0.365854,-1.829268,1.036585,-6.356250,39.168751,-4.168750,0.0,1.000000,0.000000,0.000000,0.000000
1782117361.670817,1865040,-0.953613,0.002441,-0.306152,0.060976,-1.585366,1.036585,-6.356250,39.168751,-4.168750,0.0,1.000000,0.000000,0.000000,0.000000
1782117361.680817,1865050,-0.953613,0.004395,-0.308105,0.060976,-1.402439,1.097561,-6.237500,39.181252,-4.137500,0.0,1.000000,0.000000,0.000000,0.000000
1782117361.690817,1865060,-0.955078,0.005371,-0.307617,-0.060976,-1.463415,1.036585,-6.237500,39.181252,-4.137500,0.0,1.000000,0.000000,0.000000,0.000000
1782117361.700817,1865070,-0.952148,0.005371,-0.309570,0.000000,-1.524390,0.975610,-6.300000,39.100002,-4.143750,0.0,1.000000,0.000000,0.000000,0.000000
1782117361.711817,1865081,-0.951660,0.005371,-0.310059,0.121951,-1.524390,1.036585,-6.300000,39.100002,-4.143750,0.0,1.000000,0.000000,0.000000,0.000000
1782117361.720817,1865090,-0.952637,0.001953,-0.310059,0.060976,-1.341463,1.097561,-6.306250,39.087502,-4.162500,0.0,1.000000,0.000000,0.000000,0.000000
1782117361.730817,1865100,-0.955566,-0.000977,-0.311523,-0.182927,-1.280488,1.097561,-6.306250,39.087502,-4.162500,0.0,1.000000,0.000000,0.000000,0.000000
1782117361.741817,1865111,-0.957031,-0.001953,-0.312988,-0.182927,-1.219512,1.036585,-6.337500,39.056252,-4.093750,0.0,1.000000,0.000000,0.000000,0.000000
1782117361.750817,1865120,-0.958008,-0.003906,-0.312988,0.000000,-1.341463,0.914634,-6.337500,39.056252,-4.093750,0.0,1.000000,0.000000,0.000000,0.000000
1782117361.760817,1865130,-0.958496,-0.003906,-0.310547,0.243902,-1.402439,0.731707,-6.312500,39.137501,-4.081250,0.0,1.000000,0.000000,0.000000,0.000000
1782117361.770817,1865140,-0.956543,-0.005371,-0.305664,0.365854,-1.646341,0.548781,-6.312500,39.137501,-4.081250,0.0,1.000000,0.000000,0.000000,0.000000
1782117361.780817,1865150,-0.952637,-0.005371,-0.303711,0.487805,-1.585366,0.426829,-6.350000,39.118752,-4.075000,0.0,1.000000,0.000000,0.000000,0.000000
1782117361.790817,1865160,-0.952637,-0.003906,-0.303711,0.670732,-1.341463,0.548781,-6.093750,39.306252,-3.993750,0.0,1.000000,0.000000,0.000000,0.000000
1782117361.800817,1865170,-0.954590,-0.001465,-0.305664,0.914634,-1.097561,0.792683,-6.093750,39.306252,-3.993750,0.0,1.000000,0.000000,0.000000,0.000000
1782117361.810817,1865180,-0.955078,0.000488,-0.307617,0.975610,-0.975610,1.036585,-6.318750,39.043751,-4.031250,0.0,1.000000,0.000000,0.000000,0.000000
1782117361.820817,1865190,-0.954102,0.002930,-0.310059,0.853659,-0.914634,1.219512,-6.318750,39.043751,-4.031250,0.0,1.000000,0.000000,0.000000,0.000000
1782117361.830817,1865200,-0.954102,0.005859,-0.310547,0.853659,-0.670732,1.280488,-6.225000,39.118752,-4.043750,0.0,1.000000,0.000000,0.000000,0.000000
1782117361.840817,1865210,-0.955566,0.006836,-0.309570,0.914634,-0.731707,1.280488,-6.225000,39.118752,-4.043750,0.0,1.000000,0.000000,0.000000,0.000000
1782117361.850817,1865220,-0.954102,0.005859,-0.307617,1.036585,-0.731707,1.158537,-6.206250,39.131252,-3.950000,0.0,1.000000,0.000000,0.000000,0.000000
1782117361.860817,1865230,-0.950195,0.005371,-0.306152,1.158537,-0.670732,1.036585,-6.206250,39.131252,-3.950000,0.0,1.000000,0.000000,0.000000,0.000000
1782117361.871817,1865241,-0.952148,0.004395,-0.305664,0.975610,-0.304878,0.914634,-6.243750,39.112499,-4.037500,0.0,1.000000,0.000000,0.000000,0.000000
1782117361.880817,1865250,-0.955078,0.004883,-0.305664,0.548781,-0.182927,0.853659,-6.243750,39.112499,-4.037500,0.0,1.000000,0.000000,0.000000,0.000000
1782117361.890817,1865260,-0.958008,0.005371,-0.306641,0.182927,-0.060976,0.731707,-6.212500,39.137501,-3.975000,0.0,1.000000,0.000000,0.000000,0.000000
1782117361.901817,1865271,-0.959961,0.007812,-0.305664,-0.182927,0.121951,0.731707,-6.212500,39.137501,-3.975000,0.0,1.000000,0.000000,0.000000,0.000000
1782117361.910817,1865280,-0.961426,0.006836,-0.302246,-0.304878,-0.060976,0.731707,-6.212500,39.150002,-3.956250,0.0,1.000000,0.000000,0.000000,0.000000
1782117361.920817,1865290,-0.961426,0.008301,-0.300781,-0.182927,-0.304878,0.670732,-6.212500,39.150002,-3.956250,0.0,1.000000,0.000000,0.000000,0.000000
1782117361.931817,1865301,-0.958984,0.006836,-0.299805,0.304878,-0.487805,0.853659,-6.275000,39.112499,-3.987500,0.0,1.000000,0.000000,0.000000,0.000000
1782117361.941817,1865311,-0.959473,0.006348,-0.299316,0.975610,-0.670732,1.036585,-6.275000,39.112499,-3.987500,0.0,1.000000,0.000000,0.000000,0.000000
1782117361.950817,1865320,-0.960449,0.005371,-0.300293,1.341463,-0.792683,1.219512,-6.231250,39.131252,-4.031250,0.0,1.000000,0.000000,0.000000,0.000000
1782117361.961817,1865331,-0.957520,0.003418,-0.301758,1.402439,-0.853659,1.219512,-6.231250,39.131252,-4.031250,0.0,1.000000,0.000000,0.000000,0.000000
1782117361.970817,1865340,-0.958008,0.004395,-0.303711,1.280488,-0.914634,1.158537,-6.112500,39.231251,-4.043750,0.0,1.000000,0.000000,0.000000,0.000000
1782117361.980817,1865350,-0.959473,0.006348,-0.302246,1.036585,-0.914634,1.158537,-6.112500,39.231251,-4.043750,0.0,1.000000,0.000000,0.000000,0.000000
1782117361.990817,1865360,-0.958984,0.007324,-0.300781,0.853659,-0.975610,1.036585,-6.237500,39.125000,-3.975000,0.0,1.000000,0.000000,0.000000,0.000000
1782117362.000817,1865370,-0.957520,0.003418,-0.302246,1.097561,-0.975610,1.036585,-6.237500,39.125000,-3.975000,0.0,1.000000,0.000000,0.000000,0.000000
1782117362.013817,1865383,-0.957031,0.001953,-0.302734,1.158537,-1.097561,0.914634,-6.212500,39.100002,-3.975000,0.0,1.000000,0.000000,0.000000,0.000000
1782117362.020817,1865390,-0.956543,0.001465,-0.303711,1.158537,-1.158537,0.792683,-6.212500,39.100002,-3.975000,0.0,1.000000,0.000000,0.000000,0.000000
1782117362.032817,1865402,-0.959473,0.000977,-0.304199,1.036585,-1.219512,0.853659,-6.218750,39.106251,-3.968750,0.0,1.000000,0.000000,0.000000,0.000000
1782117362.040817,1865410,-0.959473,0.000977,-0.304688,0.731707,-1.341463,0.731707,-6.218750,39.106251,-3.968750,0.0,1.000000,0.000000,0.000000,0.000000
1782117362.050817,1865420,-0.958008,0.000000,-0.304199,0.487805,-1.524390,0.609756,-6.143750,39.187500,-3.862500,0.0,1.000000,0.000000,0.000000,0.000000
1782117362.060817,1865430,-0.955078,0.001465,-0.302734,0.487805,-1.707317,0.487805,-6.143750,39.187500,-3.862500,0.0,1.000000,0.000000,0.000000,0.000000
1782117362.071817,1865441,-0.952148,0.000488,-0.302734,0.731707,-1.646341,0.609756,-6.268750,39.043751,-3.950000,0.0,1.000000,0.000000,0.000000,0.000000
1782117362.080817,1865450,-0.950684,-0.004883,-0.305176,1.158537,-1.402439,0.731707,-6.006250,39.368752,-3.837500,0.0,1.000000,0.000000,0.000000,0.000000
1782117362.090817,1865460,-0.952148,-0.004883,-0.307129,1.524390,-1.097561,0.853659,-6.006250,39.368752,-3.837500,0.0,1.000000,0.000000,0.000000,0.000000
1782117362.100817,1865470,-0.957031,-0.005859,-0.307617,1.707317,-0.914634,0.914634,-6.200000,39.081249,-3.887500,0.0,1.000000,0.000000,0.000000,0.000000
1782117362.113817,1865483,-0.961426,-0.004395,-0.305176,1.646341,-0.975610,0.914634,-6.200000,39.081249,-3.887500,0.0,1.000000,0.000000,0.000000,0.000000
1782117362.120817,1865490,-0.961914,-0.001465,-0.302246,1.585366,-1.097561,0.914634,-6.237500,39.081249,-3.843750,0.0,1.000000,0.000000,0.000000,0.000000
1782117362.130817,1865500,-0.960449,-0.000977,-0.301270,1.707317,-1.219512,0.914634,-6.237500,39.081249,-3.843750,0.0,1.000000,0.000000,0.000000,0.000000
1782117362.140817,1865510,-0.959473,-0.000977,-0.300781,1.890244,-1.219512,0.975610,-6.206250,39.075001,-3.831250,0.0,1.000000,0.000000,0.000000,0.000000
1782117362.152817,1865522,-0.957520,0.000000,-0.300781,2.073171,-1.402439,0.975610,-6.206250,39.075001,-3.831250,0.0,1.000000,0.000000,0.000000,0.000000
1782117362.160817,1865530,-0.955566,0.002930,-0.301270,2.134146,-1.341463,0.975610,-6.156250,39.093750,-3.856250,0.0,1.000000,0.000000,0.000000,0.000000
1782117362.170817,1865540,-0.956543,0.004883,-0.302734,2.195122,-1.280488,1.036585,-6.156250,39.093750,-3.856250,0.0,1.000000,0.000000,0.000000,0.000000
1782117362.180817,1865550,-0.957031,0.006348,-0.302246,2.012195,-1.280488,1.097561,-6.118750,39.131252,-3.775000,0.0,1.000000,0.000000,0.000000,0.000000
1782117362.193817,1865563,-0.957031,0.006836,-0.304688,1.707317,-1.341463,0.975610,-6.118750,39.131252,-3.775000,0.0,1.000000,0.000000,0.000000,0.000000
1782117362.200817,1865570,-0.956543,0.005371,-0.302734,1.463415,-1.341463,0.731707,-6.150000,39.131252,-3.712500,0.0,1.000000,0.000000,0.000000,0.000000
1782117362.210817,1865580,-0.956055,0.002930,-0.300781,1.219512,-1.097561,0.609756,-6.150000,39.131252,-3.712500,0.0,1.000000,0.000000,0.000000,0.000000
1782117362.220817,1865590,-0.955078,0.000977,-0.300781,1.158537,-0.914634,0.670732,-6.093750,39.137501,-3.756250,0.0,1.000000,0.000000,0.000000,0.000000
1782117362.233817,1865603,-0.958008,0.000977,-0.298828,1.097561,-0.914634,0.670732,-6.093750,39.137501,-3.756250,0.0,1.000000,0.000000,0.000000,0.000000
1782117362.241817,1865611,-0.957520,0.002930,-0.295898,1.036585,-0.975610,0.670732,-6.075000,39.162502,-3.706250,0.0,1.000000,0.000000,0.000000,0.000000
1782117362.250817,1865620,-0.960449,0.003418,-0.293945,0.853659,-0.914634,0.670732,-6.075000,39.162502,-3.706250,0.0,1.000000,0.000000,0.000000,0.000000
1782117362.260817,1865630,-0.959961,0.003906,-0.292480,0.792683,-0.914634,0.670732,-6.168750,39.081249,-3.681250,0.0,1.000000,0.000000,0.000000,0.000000
1782117362.274817,1865644,-0.957031,0.005371,-0.293945,0.914634,-0.975610,0.731707,-6.106250,39.043751,-3.743750,0.0,1.000000,0.000000,0.000000,0.000000
1782117362.280817,1865650,-0.958008,0.008301,-0.293457,0.975610,-0.914634,0.853659,-6.106250,39.043751,-3.743750,0.0,1.000000,0.000000,0.000000,0.000000
1782117362.290817,1865660,-0.961426,0.009766,-0.293945,1.036585,-0.792683,0.975610,-6.106250,39.043751,-3.743750,0.0,1.000000,0.000000,0.000000,0.000000
1782117362.300817,1865670,-0.961426,0.009766,-0.293945,1.036585,-0.792683,0.975610,-6.168750,39.075001,-3.693750,0.0,1.000000,0.000000,0.000000,0.000000
1782117362.311817,1865681,-0.961426,0.007812,-0.296387,0.853659,-0.853659,1.036585,-6.168750,39.075001,-3.693750,0.0,1.000000,0.000000,0.000000,0.000000
1782117362.320817,1865690,-0.961426,0.007812,-0.296387,0.853659,-0.853659,1.036585,-6.112500,39.081249,-3.731250,0.0,1.000000,0.000000,0.000000,0.000000
1782117362.330817,1865700,-0.958496,0.005859,-0.298340,0.670732,-0.853659,0.853659,-6.112500,39.081249,-3.731250,0.0,1.000000,0.000000,0.000000,0.000000
1782117362.341817,1865711,-0.956543,0.001953,-0.299805,0.365854,-0.609756,0.731707,-6.175000,39.043751,-3.731250,0.0,1.000000,0.000000,0.000000,0.000000
1782117362.353817,1865723,-0.955566,0.005371,-0.300293,0.060976,-0.121951,0.670732,-6.175000,39.049999,-3.675000,0.0,1.000000,0.000000,0.000000,0.000000
1782117362.361817,1865731,-0.955566,0.005371,-0.300293,0.060976,-0.121951,0.670732,-6.175000,39.049999,-3.675000,0.0,1.000000,0.000000,0.000000,0.000000
1782117362.370817,1865740,-0.958984,0.007324,-0.296875,0.121951,0.000000,0.853659,-6.175000,39.049999,-3.675000,0.0,1.000000,0.000000,0.000000,0.000000
1782117362.380817,1865750,-0.963379,0.009766,-0.295410,0.060976,-0.243902,1.036585,-6.118750,39.100002,-3.706250,0.0,1.000000,0.000000,0.000000,0.000000
1782117362.393817,1865763,-0.962891,0.007812,-0.296875,-0.182927,-0.731707,1.036585,-6.156250,39.093750,-3.668750,0.0,1.000000,0.000000,0.000000,0.000000
1782117362.401817,1865771,-0.963379,0.006836,-0.296387,-0.060976,-0.975610,1.036585,-6.156250,39.093750,-3.668750,0.0,1.000000,0.000000,0.000000,0.000000
1782117362.410817,1865780,-0.962402,0.003906,-0.297852,0.548781,-1.341463,0.975610,-5.900000,39.306252,-3.662500,0.0,1.000000,0.000000,0.000000,0.000000
1782117362.420817,1865790,-0.962402,0.000488,-0.296875,1.219512,-1.524390,0.975610,-5.900000,39.306252,-3.662500,0.0,1.000000,0.000000,0.000000,0.000000
1782117362.434817,1865804,-0.960938,-0.007324,-0.295410,2.256098,-1.890244,0.853659,-6.125000,39.068752,-3.618750,0.0,1.000000,0.000000,0.000000,0.000000
1782117362.440817,1865810,-0.960938,-0.007324,-0.295410,2.256098,-1.890244,0.853659,-6.125000,39.068752,-3.618750,0.0,1.000000,0.000000,0.000000,0.000000
1782117362.450817,1865820,-0.959473,-0.006348,-0.296875,2.500000,-1.951220,0.792683,-6.037500,39.118752,-3.606250,0.0,1.000000,0.000000,0.000000,0.000000
1782117362.460817,1865830,-0.958008,-0.006348,-0.296875,2.682927,-1.951220,0.853659,-6.037500,39.118752,-3.606250,0.0,1.000000,0.000000,0.000000,0.000000
1782117362.473817,1865843,-0.956543,-0.008789,-0.295410,3.048780,-1.707317,0.853659,-6.137500,39.025002,-3.612500,0.0,1.000000,0.000000,0.000000,0.000000
1782117362.481817,1865851,-0.955566,-0.011719,-0.296875,3.048780,-1.524390,0.853659,-6.137500,39.025002,-3.612500,0.0,1.000000,0.000000,0.000000,0.000000
1782117362.490817,1865860,-0.955078,-0.010254,-0.298828,2.865854,-1.219512,0.731707,-6.018750,39.118752,-3.556250,0.0,1.000000,0.000000,0.000000,0.000000
1782117362.501817,1865871,-0.957031,-0.012207,-0.296875,2.926829,-1.036585,0.670732,-6.018750,39.118752,-3.556250,0.0,1.000000,0.000000,0.000000,0.000000
1782117362.511817,1865881,-0.958496,-0.013184,-0.293945,2.865854,-0.914634,0.670732,-6.025000,39.087502,-3.468750,0.0,1.000000,0.000000,0.000000,0.000000
1782117362.521817,1865891,-0.960449,-0.013672,-0.292969,3.048780,-0.914634,0.731707,-6.025000,39.087502,-3.468750,0.0,1.000000,0.000000,0.000000,0.000000
1782117362.530817,1865900,-0.960938,-0.016113,-0.294434,3.658537,-0.853659,0.853659,-5.968750,39.118752,-3.462500,0.0,1.000000,0.000000,0.000000,0.000000
1782117362.540817,1865910,-0.959961,-0.018555,-0.293945,4.634146,-0.914634,0.975610,-5.968750,39.118752,-3.462500,0.0,1.000000,0.000000,0.000000,0.000000
1782117362.553817,1865923,-0.960449,-0.020020,-0.291992,5.609756,-1.036585,0.975610,-6.068750,39.062500,-3.475000,0.0,1.000000,0.000000,0.000000,0.000000
1782117362.560817,1865930,-0.963379,-0.020508,-0.292480,6.524390,-1.097561,1.036585,-6.068750,39.062500,-3.475000,0.0,1.000000,0.000000,0.000000,0.000000
1782117362.571817,1865941,-0.962402,-0.019043,-0.293457,7.256098,-1.402439,1.219512,-6.062500,39.075001,-3.393750,0.0,1.000000,0.000000,0.000000,0.000000
1782117362.580817,1865950,-0.966309,-0.017090,-0.293457,7.865854,-1.585366,1.280488,-6.062500,39.075001,-3.393750,0.0,1.000000,0.000000,0.000000,0.000000
1782117362.590817,1865960,-0.963867,-0.013672,-0.294434,7.926829,-1.829268,1.219512,-5.956250,39.093750,-3.293750,0.0,1.000000,0.000000,0.000000,0.000000
1782117362.601817,1865971,-0.960938,-0.010254,-0.292969,7.926829,-1.829268,1.097561,-5.956250,39.093750,-3.293750,0.0,1.000000,0.000000,0.000000,0.000000
1782117362.610817,1865980,-0.959473,-0.007324,-0.291504,7.926829,-1.585366,1.036585,-5.943750,39.081249,-3.262500,0.0,1.000000,0.000000,0.000000,0.000000
1782117362.620817,1865990,-0.957520,-0.004883,-0.290527,7.500000,-1.341463,1.036585,-5.943750,39.081249,-3.262500,0.0,1.000000,0.000000,0.000000,0.000000
1782117362.630817,1866000,-0.957520,-0.001953,-0.290039,6.768293,-1.036585,1.097561,-6.012500,39.025002,-3.268750,0.0,1.000000,0.000000,0.000000,0.000000
1782117362.640817,1866010,-0.958496,0.000488,-0.288574,5.975610,-0.792683,1.219512,-6.012500,39.025002,-3.268750,0.0,1.000000,0.000000,0.000000,0.000000
1782117362.650817,1866020,-0.958984,0.000488,-0.289551,5.243903,-0.853659,1.524390,-5.956250,39.056252,-3.200000,0.0,1.000000,0.000000,0.000000,0.000000
1782117362.661817,1866031,-0.957031,-0.002930,-0.291016,4.634146,-0.914634,1.768293,-5.650000,39.393749,-3.050000,0.0,1.000000,0.000000,0.000000,0.000000
1782117362.670817,1866040,-0.956055,-0.006348,-0.293457,4.390244,-0.853659,1.829268,-5.650000,39.393749,-3.050000,0.0,1.000000,0.000000,0.000000,0.000000
1782117362.681817,1866051,-0.959961,-0.012207,-0.295898,4.756098,-0.670732,1.890244,-5.893750,39.037502,-3.125000,0.0,1.000000,0.000000,0.000000,0.000000
1782117362.690817,1866060,-0.963379,-0.015625,-0.295898,5.487805,-0.792683,2.012195,-5.893750,39.037502,-3.125000,0.0,1.000000,0.000000,0.000000,0.000000
1782117362.700817,1866070,-0.964844,-0.017578,-0.294922,6.158537,-0.853659,2.073171,-5.912500,39.049999,-3.062500,0.0,1.000000,0.000000,0.000000,0.000000
1782117362.710817,1866080,-0.963867,-0.017090,-0.293945,6.585366,-0.975610,2.012195,-5.912500,39.049999,-3.062500,0.0,1.000000,0.000000,0.000000,0.000000
1782117362.721817,1866091,-0.961426,-0.016113,-0.291992,6.524390,-0.914634,1.951220,-5.787500,39.162502,-2.968750,0.0,1.000000,0.000000,0.000000,0.000000
1782117362.730817,1866100,-0.956543,-0.010254,-0.291016,6.219512,-0.792683,1.890244,-5.787500,39.162502,-2.968750,0.0,1.000000,0.000000,0.000000,0.000000
1782117362.740817,1866110,-0.951660,-0.004883,-0.292480,5.792683,-0.304878,1.768293,-5.712500,39.200001,-2.950000,0.0,1.000000,0.000000,0.000000,0.000000
1782117362.750817,1866120,-0.956543,-0.000488,-0.293457,5.670732,0.243902,1.951220,-5.712500,39.200001,-2.950000,0.0,1.000000,0.000000,0.000000,0.000000
1782117362.760817,1866130,-0.961914,0.000977,-0.290039,5.731708,0.487805,2.073171,-5.625000,39.281250,-2.956250,0.0,1.000000,0.000000,0.000000,0.000000
1782117362.770817,1866140,-0.966309,0.000000,-0.288574,5.670732,0.426829,2.195122,-5.625000,39.281250,-2.956250,0.0,1.000000,0.000000,0.000000,0.000000
1782117362.780817,1866150,-0.971191,0.001953,-0.288574,5.548780,0.121951,2.317073,-5.718750,39.137501,-2.937500,0.0,1.000000,0.000000,0.000000,0.000000
1782117362.790817,1866160,-0.977051,0.005371,-0.285645,5.426829,-0.426829,2.439024,-5.718750,39.137501,-2.937500,0.0,1.000000,0.000000,0.000000,0.000000
1782117362.800817,1866170,-0.973633,0.009277,-0.282715,5.243903,-1.280488,2.439024,-5.625000,39.250000,-2.837500,0.0,1.000000,0.000000,0.000000,0.000000
1782117362.810817,1866180,-0.970703,0.010254,-0.280762,4.939024,-1.768293,2.378049,-5.625000,39.250000,-2.837500,0.0,1.000000,0.000000,0.000000,0.000000
1782117362.820817,1866190,-0.970215,0.009766,-0.278320,4.695122,-2.073171,2.378049,-5.618750,39.237499,-2.793750,0.0,1.000000,0.000000,0.000000,0.000000
1782117362.830817,1866200,-0.968750,0.004883,-0.276855,5.182927,-2.439024,2.256098,-5.618750,39.237499,-2.793750,0.0,1.000000,0.000000,0.000000,0.000000
1782117362.840817,1866210,-0.968750,-0.002441,-0.276367,5.914634,-2.621951,2.195122,-5.581250,39.218750,-2.800000,0.0,1.000000,0.000000,0.000000,0.000000
1782117362.850817,1866220,-0.966797,-0.010742,-0.277832,6.463415,-2.682927,1.890244,-5.581250,39.218750,-2.800000,0.0,1.000000,0.000000,0.000000,0.000000
1782117362.860817,1866230,-0.967285,-0.014160,-0.281250,7.012195,-2.804878,1.707317,-5.606250,39.181252,-2.675000,0.0,1.000000,0.000000,0.000000,0.000000
1782117362.870817,1866240,-0.965820,-0.012695,-0.285156,7.439024,-3.231707,1.585366,-5.606250,39.181252,-2.675000,0.0,1.000000,0.000000,0.000000,0.000000
1782117362.880817,1866250,-0.965332,-0.005859,-0.288086,7.865854,-3.536585,1.890244,-5.581250,39.181252,-2.612500,0.0,1.000000,0.000000,0.000000,0.000000
1782117362.890817,1866260,-0.961914,0.001953,-0.290039,8.231708,-4.146341,2.195122,-5.581250,39.181252,-2.612500,0.0,1.000000,0.000000,0.000000,0.000000
1782117362.900817,1866270,-0.955566,0.008789,-0.291016,8.841464,-4.451220,2.560976,-5.531250,39.181252,-2.456250,0.0,1.000000,0.000000,0.000000,0.000000
1782117362.910817,1866280,-0.952637,0.011230,-0.294922,9.939025,-4.573171,3.048780,-5.531250,39.181252,-2.456250,0.0,1.000000,0.000000,0.000000,0.000000
1782117362.922817,1866292,-0.948730,0.007812,-0.297363,11.219512,-4.329268,3.475610,-5.487500,39.181252,-2.350000,0.0,1.000000,0.000000,0.000000,0.000000
1782117362.930817,1866300,-0.946289,0.003418,-0.300781,12.195122,-3.841464,3.597561,-5.487500,39.181252,-2.350000,0.0,1.000000,0.000000,0.000000,0.000000
1782117362.941817,1866311,-0.948730,0.003418,-0.301758,13.109756,-3.231707,3.719512,-5.325000,39.318752,-2.218750,0.0,1.000000,0.000000,0.000000,0.000000
1782117362.951817,1866321,-0.949219,-0.003418,-0.304688,13.475610,-2.560976,3.536585,-5.325000,39.318752,-2.218750,0.0,1.000000,0.000000,0.000000,0.000000
1782117362.961817,1866331,-0.951172,-0.001953,-0.302246,13.780488,-2.012195,3.414634,-5.350000,39.243752,-2.143750,0.0,1.000000,0.000000,0.000000,0.000000
1782117362.970817,1866340,-0.951172,-0.003418,-0.301758,13.963415,-1.707317,3.231707,-5.250000,39.250000,-2.056250,0.0,1.000000,0.000000,0.000000,0.000000
1782117362.980817,1866350,-0.952148,-0.003418,-0.302246,14.146341,-1.402439,3.048780,-5.250000,39.250000,-2.056250,0.0,1.000000,0.000000,0.000000,0.000000
1782117362.990817,1866360,-0.954102,-0.004395,-0.300781,14.390244,-1.097561,2.987805,-5.075000,39.412502,-1.943750,0.0,1.000000,0.000000,0.000000,0.000000
1782117363.001817,1866371,-0.955566,-0.001465,-0.300293,14.390244,-0.853659,3.048780,-5.075000,39.412502,-1.943750,0.0,1.000000,0.000000,0.000000,0.000000
1782117363.010817,1866380,-0.960449,0.003418,-0.296387,14.146341,-0.853659,3.048780,-4.962500,39.368752,-1.793750,0.0,1.000000,0.000000,0.000000,0.000000
1782117363.020817,1866390,-0.961914,0.007324,-0.290039,13.719513,-0.975610,3.048780,-4.962500,39.368752,-1.793750,0.0,1.000000,0.000000,0.000000,0.000000
1782117363.030817,1866400,-0.963379,0.010254,-0.284180,12.865854,-0.914634,2.804878,-4.962500,39.318752,-1.762500,0.0,1.000000,0.000000,0.000000,0.000000
1782117363.040817,1866410,-0.962891,0.005859,-0.281250,12.195122,-0.792683,2.560976,-4.962500,39.318752,-1.762500,0.0,1.000000,0.000000,0.000000,0.000000
1782117363.050817,1866420,-0.966309,0.000488,-0.276367,11.646341,-0.426829,2.195122,-4.825000,39.418751,-1.700000,0.0,1.000000,0.000000,0.000000,0.000000
1782117363.060817,1866430,-0.970215,-0.005371,-0.271484,11.402439,-0.243902,1.951220,-4.825000,39.418751,-1.700000,0.0,1.000000,0.000000,0.000000,0.000000
1782117363.070817,1866440,-0.972168,-0.010254,-0.265625,11.158537,-0.487805,1.585366,-4.806250,39.375000,-1.656250,0.0,1.000000,0.000000,0.000000,0.000000
1782117363.080817,1866450,-0.973145,-0.011230,-0.263184,10.426829,-0.670732,1.280488,-4.806250,39.375000,-1.656250,0.0,1.000000,0.000000,0.000000,0.000000
1782117363.091817,1866461,-0.973633,-0.005859,-0.263672,9.207317,-0.975610,1.097561,-4.756250,39.362499,-1.612500,0.0,1.000000,0.000000,0.000000,0.000000
1782117363.100817,1866470,-0.971191,0.000488,-0.263672,7.743903,-1.341463,0.914634,-4.756250,39.362499,-1.612500,0.0,1.000000,0.000000,0.000000,0.000000
1782117363.110817,1866480,-0.971680,0.007812,-0.265137,6.463415,-1.585366,1.036585,-4.712500,39.368752,-1.587500,0.0,1.000000,0.000000,0.000000,0.000000
1782117363.121817,1866491,-0.973145,0.011719,-0.266602,5.792683,-1.951220,1.280488,-4.712500,39.368752,-1.587500,0.0,1.000000,0.000000,0.000000,0.000000
1782117363.130817,1866500,-0.973145,0.011719,-0.266602,5.792683,-1.951220,1.280488,-4.693750,39.368752,-1.431250,0.0,1.000000,0.000000,0.000000,0.000000
1782117363.141817,1866511,-0.974121,0.009766,-0.269043,5.609756,-2.256098,1.463415,-4.693750,39.368752,-1.431250,0.0,1.000000,0.000000,0.000000,0.000000
1782117363.150817,1866520,-0.973633,0.005859,-0.267578,5.243903,-2.378049,1.402439,-4.712500,39.287502,-1.437500,0.0,1.000000,0.000000,0.000000,0.000000
1782117363.160817,1866530,-0.971680,0.001953,-0.265625,4.573171,-2.439024,1.097561,-4.712500,39.287502,-1.437500,0.0,1.000000,0.000000,0.000000,0.000000
1782117363.170817,1866540,-0.966797,-0.000977,-0.265625,3.658537,-2.256098,0.792683,-4.650000,39.325001,-1.406250,0.0,1.000000,0.000000,0.000000,0.000000
1782117363.180817,1866550,-0.963867,-0.002930,-0.268066,2.804878,-1.829268,0.548781,-4.650000,39.325001,-1.406250,0.0,1.000000,0.000000,0.000000,0.000000
1782117363.190817,1866560,-0.962402,-0.002930,-0.269531,2.073171,-1.524390,0.548781,-4.712500,39.256252,-1.431250,0.0,1.000000,0.000000,0.000000,0.000000
1782117363.200817,1866570,-0.962402,-0.004883,-0.272949,1.829268,-1.341463,0.670732,-4.712500,39.256252,-1.431250,0.0,1.000000,0.000000,0.000000,0.000000
1782117363.210817,1866580,-0.967285,-0.005371,-0.277344,1.951220,-1.402439,0.914634,-4.693750,39.337502,-1.343750,0.0,1.000000,0.000000,0.000000,0.000000
1782117363.220817,1866590,-0.968750,-0.006348,-0.277832,2.195122,-1.707317,0.975610,-4.693750,39.337502,-1.343750,0.0,1.000000,0.000000,0.000000,0.000000
1782117363.230817,1866600,-0.969238,-0.009277,-0.279297,2.500000,-2.134146,0.975610,-4.743750,39.206249,-1.325000,0.0,1.000000,0.000000,0.000000,0.000000
1782117363.240817,1866610,-0.967285,-0.009766,-0.282227,2.682927,-2.256098,0.792683,-4.743750,39.206249,-1.325000,0.0,1.000000,0.000000,0.000000,0.000000
1782117363.250817,1866620,-0.967285,-0.009766,-0.280762,2.682927,-2.256098,0.670732,-4.637500,39.350002,-1.250000,0.0,1.000000,0.000000,0.000000,0.000000
1782117363.260817,1866630,-0.965820,-0.008301,-0.278320,2.682927,-2.378049,0.548781,-4.637500,39.350002,-1.250000,0.0,1.000000,0.000000,0.000000,0.000000
1782117363.270817,1866640,-0.963867,-0.004883,-0.275391,2.500000,-2.134146,0.304878,-4.662500,39.293751,-1.275000,0.0,1.000000,0.000000,0.000000,0.000000
1782117363.280817,1866650,-0.963379,-0.000488,-0.275391,2.134146,-1.829268,0.243902,-4.593750,39.343750,-1.225000,0.0,1.000000,0.000000,0.000000,0.000000
1782117363.290817,1866660,-0.963379,-0.001465,-0.275391,1.463415,-1.829268,0.182927,-4.593750,39.343750,-1.225000,0.0,1.000000,0.000000,0.000000,0.000000
1782117363.300817,1866670,-0.963379,-0.002930,-0.277832,0.792683,-1.707317,0.060976,-4.637500,39.262501,-1.125000,0.0,1.000000,0.000000,0.000000,0.000000
1782117363.310817,1866680,-0.964355,-0.006836,-0.279785,0.304878,-1.524390,0.000000,-4.637500,39.262501,-1.125000,0.0,1.000000,0.000000,0.000000,0.000000
1782117363.320817,1866690,-0.965332,-0.009766,-0.279785,-0.060976,-1.341463,-0.121951,-4.662500,39.262501,-1.143750,0.0,1.000000,0.000000,0.000000,0.000000
1782117363.331817,1866701,-0.965332,-0.012695,-0.280273,-0.121951,-1.402439,-0.182927,-4.662500,39.262501,-1.143750,0.0,1.000000,0.000000,0.000000,0.000000
1782117363.340817,1866710,-0.966797,-0.013672,-0.279297,0.121951,-1.402439,-0.121951,-4.581250,39.331249,-1.150000,0.0,1.000000,0.000000,0.000000,0.000000
1782117363.350817,1866720,-0.967773,-0.013672,-0.278320,0.243902,-1.524390,0.000000,-4.581250,39.331249,-1.150000,0.0,1.000000,0.000000,0.000000,0.000000
1782117363.360817,1866730,-0.966797,-0.016602,-0.280273,0.365854,-1.585366,0.000000,-4.700000,39.212502,-1.143750,0.0,1.000000,0.000000,0.000000,0.000000
1782117363.371817,1866741,-0.962891,-0.018066,-0.281738,0.365854,-1.524390,-0.121951,-4.700000,39.212502,-1.143750,0.0,1.000000,0.000000,0.000000,0.000000
1782117363.381817,1866751,-0.959961,-0.020508,-0.284180,0.670732,-1.341463,-0.182927,-4.593750,39.331249,-1.100000,0.0,1.000000,0.000000,0.000000,0.000000
1782117363.391817,1866761,-0.963867,-0.019043,-0.281738,1.036585,-1.097561,-0.060976,-4.593750,39.331249,-1.100000,0.0,1.000000,0.000000,0.000000,0.000000
1782117363.402817,1866772,-0.964355,-0.018066,-0.281738,1.036585,-1.280488,-0.060976,-4.656250,39.256252,-1.056250,0.0,1.000000,0.000000,0.000000,0.000000
1782117363.410817,1866780,-0.960938,-0.014648,-0.280762,1.097561,-1.402439,-0.121951,-4.656250,39.256252,-1.056250,0.0,1.000000,0.000000,0.000000,0.000000
1782117363.421817,1866791,-0.962402,-0.013672,-0.278809,1.280488,-1.158537,0.060976,-4.706250,39.193752,-1.106250,0.0,1.000000,0.000000,0.000000,0.000000
1782117363.430817,1866800,-0.964355,-0.015625,-0.278320,1.097561,-1.097561,0.243902,-4.706250,39.193752,-1.106250,0.0,1.000000,0.000000,0.000000,0.000000
1782117363.441817,1866811,-0.965820,-0.016113,-0.278809,0.914634,-1.280488,0.365854,-4.718750,39.200001,-1.081250,0.0,1.000000,0.000000,0.000000,0.000000
1782117363.450817,1866820,-0.965332,-0.015625,-0.280762,0.914634,-1.219512,0.365854,-4.718750,39.200001,-1.081250,0.0,1.000000,0.000000,0.000000,0.000000
1782117363.460817,1866830,-0.965820,-0.017090,-0.280273,0.853659,-1.036585,0.182927,-4.706250,39.250000,-1.062500,0.0,1.000000,0.000000,0.000000,0.000000
1782117363.470817,1866840,-0.967285,-0.013672,-0.277832,1.097561,-0.975610,0.182927,-4.706250,39.250000,-1.062500,0.0,1.000000,0.000000,0.000000,0.000000
1782117363.481817,1866851,-0.965820,-0.012695,-0.273926,1.524390,-1.219512,0.182927,-4.712500,39.174999,-1.081250,0.0,1.000000,0.000000,0.000000,0.000000
1782117363.490817,1866860,-0.961426,-0.012695,-0.272461,1.951220,-1.280488,0.243902,-4.712500,39.174999,-1.081250,0.0,1.000000,0.000000,0.000000,0.000000
1782117363.500817,1866870,-0.959961,-0.012695,-0.272461,2.073171,-1.158537,0.243902,-4.775000,39.200001,-1.050000,0.0,1.000000,0.000000,0.000000,0.000000
1782117363.510817,1866880,-0.960449,-0.015137,-0.272949,1.951220,-0.853659,0.365854,-4.775000,39.200001,-1.050000,0.0,1.000000,0.000000,0.000000,0.000000
1782117363.520817,1866890,-0.960938,-0.018066,-0.274414,1.829268,-0.670732,0.304878,-4.762500,39.174999,-1.000000,0.0,1.000000,0.000000,0.000000,0.000000
1782117363.530817,1866900,-0.961426,-0.020508,-0.274902,2.073171,-0.243902,0.304878,-4.762500,39.174999,-1.000000,0.0,1.000000,0.000000,0.000000,0.000000
1782117363.540817,1866910,-0.961914,-0.022949,-0.274902,2.317073,0.000000,0.365854,-4.725000,39.168751,-1.056250,0.0,1.000000,0.000000,0.000000,0.000000
1782117363.551817,1866921,-0.965820,-0.022949,-0.271484,2.865854,0.243902,0.304878,-4.712500,39.118752,-1.043750,0.0,1.000000,0.000000,0.000000,0.000000
1782117363.561817,1866931,-0.964844,-0.026367,-0.272949,3.475610,0.365854,0.365854,-4.712500,39.118752,-1.043750,0.0,1.000000,0.000000,0.000000,0.000000
1782117363.570817,1866940,-0.961914,-0.021484,-0.266602,3.963415,0.853659,0.121951,-4.625000,39.256252,-1.006250,0.0,1.000000,0.000000,0.000000,0.000000
1782117363.580817,1866950,-0.964844,-0.025391,-0.269531,4.512195,1.707317,0.060976,-4.625000,39.256252,-1.006250,0.0,1.000000,0.000000,0.000000,0.000000
1782117363.590817,1866960,-0.966797,-0.018555,-0.264648,4.085366,1.890244,0.365854,-4.718750,39.225002,-1.081250,0.0,1.000000,0.000000,0.000000,0.000000
1782117363.600817,1866970,-0.967285,-0.022949,-0.270508,4.146341,2.073171,0.548781,-4.718750,39.225002,-1.081250,0.0,1.000000,0.000000,0.000000,0.000000
1782117363.610817,1866980,-0.968750,-0.018066,-0.266113,4.451220,2.073171,0.731707,-4.556250,39.350002,-1.012500,0.0,1.000000,0.000000,0.000000,0.000000
1782117363.620817,1866990,-0.969238,-0.018066,-0.262695,4.939024,1.890244,0.731707,-4.556250,39.350002,-1.012500,0.0,1.000000,0.000000,0.000000,0.000000
1782117363.630817,1867000,-0.971191,-0.023438,-0.263184,5.487805,1.646341,0.731707,-4.506250,39.375000,-1.043750,0.0,1.000000,0.000000,0.000000,0.000000
