Unix_Time_s,EMG_t_s,sample_idx,fs,gain,flags,emg_valid,ch1_raw_uV,ch1_filt_uV,ch1_env_uV,ch2_raw_uV,ch2_filt_uV,ch2_env_uV
1782117357.511817,0.000000,1803080,1000,12,0,1,530.280,33.477,15.411,560.763,-1.215,1.167
1782117357.512817,0.001000,1803081,1000,12,0,1,537.414,31.198,16.017,561.988,0.672,1.167
1782117357.513817,0.002000,1803082,1000,12,0,1,536.165,27.568,16.452,563.357,1.460,1.172
1782117357.514817,0.003000,1803083,1000,12,0,1,530.905,15.120,16.529,561.964,0.719,1.176
1782117357.515817,0.004000,1803084,1000,12,0,1,525.620,8.232,16.486,560.787,-1.039,1.175
1782117357.516817,0.005000,1803085,1000,12,0,1,526.197,4.901,16.369,561.603,-0.076,1.160
1782117357.517817,0.006000,1803086,1000,12,0,1,523.603,3.386,16.193,562.228,0.621,1.157
1782117357.518817,0.007000,1803087,1000,12,0,1,514.739,-5.057,16.176,561.387,-0.090,1.152
1782117357.519817,0.008000,1803088,1000,12,0,1,510.607,-8.290,16.144,561.579,-0.142,1.140
1782117357.520817,0.009000,1803089,1000,12,0,1,504.770,-9.742,16.137,561.339,-0.080,1.078
1782117357.521817,0.010000,1803090,1000,12,0,1,498.861,-13.110,16.238,561.075,-0.431,1.047
1782117357.522817,0.011000,1803091,1000,12,0,1,498.549,-9.638,16.276,561.699,0.142,1.047
1782117357.523817,0.012000,1803092,1000,12,0,1,512.313,3.711,16.091,562.108,0.652,1.051
1782117357.524817,0.013000,1803093,1000,12,0,1,528.911,20.823,15.222,561.988,0.400,1.028
1782117357.525817,0.014000,1803094,1000,12,0,1,538.447,26.789,14.563,562.564,0.775,1.009
1782117357.526817,0.015000,1803095,1000,12,0,1,537.294,22.424,14.575,562.756,0.929,1.017
1782117357.527817,0.016000,1803096,1000,12,0,1,527.542,9.005,14.484,563.381,1.155,1.002
1782117357.528817,0.017000,1803097,1000,12,0,1,520.720,-1.349,14.382,562.492,0.494,1.004
1782117357.529817,0.018000,1803098,1000,12,0,1,518.822,-4.869,14.328,562.204,-0.280,0.958
1782117357.530817,0.019000,1803099,1000,12,0,1,519.831,-5.673,14.323,562.997,0.531,0.960
1782117357.531817,0.020000,1803100,1000,12,0,1,520.000,-6.072,14.320,562.684,0.296,0.944
1782117357.532817,0.021000,1803101,1000,12,0,1,517.862,-8.930,14.352,563.309,0.443,0.945
1782117357.533817,0.022000,1803102,1000,12,0,1,515.364,-11.273,14.419,562.156,-0.131,0.937
1782117357.534817,0.023000,1803103,1000,12,0,1,510.896,-14.302,14.555,561.219,-1.494,0.960
1782117357.535817,0.024000,1803104,1000,12,0,1,503.545,-18.946,14.800,562.660,-0.013,0.957
1782117357.536817,0.025000,1803105,1000,12,0,1,493.889,-24.272,15.192,563.429,0.878,0.953
1782117357.537817,0.026000,1803106,1000,12,0,1,488.677,-25.090,15.592,561.988,-0.398,0.954
1782117357.538817,0.027000,1803107,1000,12,0,1,494.490,-15.297,15.709,562.036,-0.750,0.957
1782117357.539817,0.028000,1803108,1000,12,0,1,501.528,-3.566,15.671,561.387,-0.801,0.962
1782117357.540817,0.029000,1803109,1000,12,0,1,500.975,-0.522,15.610,563.189,0.202,0.907
1782117357.541817,0.030000,1803110,1000,12,0,1,499.606,-0.010,15.499,564.318,1.825,0.941
1782117357.542817,0.031000,1803111,1000,12,0,1,511.376,10.809,15.438,562.708,0.029,0.930
1782117357.543817,0.032000,1803112,1000,12,0,1,512.217,15.007,15.435,564.029,0.530,0.881
1782117357.544817,0.033000,1803113,1000,12,0,1,514.475,12.891,15.416,561.819,-0.476,0.881
1782117357.545817,0.034000,1803114,1000,12,0,1,520.672,18.457,15.497,562.300,-1.422,0.901
1782117357.546817,0.035000,1803115,1000,12,0,1,519.831,15.228,15.474,564.894,1.806,0.927
1782117357.547817,0.036000,1803116,1000,12,0,1,517.621,9.968,15.379,563.621,0.537,0.930
1782117357.548817,0.037000,1803117,1000,12,0,1,514.162,5.067,15.245,562.756,-0.753,0.933
1782117357.549817,0.038000,1803118,1000,12,0,1,509.382,-1.450,15.145,562.228,-0.898,0.941
1782117357.550817,0.039000,1803119,1000,12,0,1,508.181,-3.587,15.106,563.789,0.051,0.938
1782117357.551817,0.040000,1803120,1000,12,0,1,511.953,-1.200,15.073,562.420,-0.222,0.938
1782117357.552817,0.041000,1803121,1000,12,0,1,515.820,2.261,15.051,562.180,-1.380,0.933
1782117357.553817,0.042000,1803122,1000,12,0,1,512.601,-0.948,15.014,563.645,0.582,0.933
1782117357.554817,0.043000,1803123,1000,12,0,1,509.310,-4.905,14.944,563.261,0.233,0.918
1782117357.555817,0.044000,1803124,1000,12,0,1,512.049,-2.368,14.832,562.036,-0.923,0.925
1782117357.556817,0.045000,1803125,1000,12,0,1,512.433,-0.523,14.696,561.627,-1.249,0.930
1782117357.557817,0.046000,1803126,1000,12,0,1,514.042,0.479,14.475,561.099,-1.437,0.882
1782117357.558817,0.047000,1803127,1000,12,0,1,515.027,2.719,14.365,562.564,-0.212,0.819
1782117357.559817,0.048000,1803128,1000,12,0,1,514.187,1.969,14.277,561.243,-0.592,0.823
1782117357.560817,0.049000,1803129,1000,12,0,1,509.334,-1.160,13.409,559.778,-2.327,0.876
1782117357.561817,0.050000,1803130,1000,12,0,1,492.496,-13.893,12.699,562.084,-0.119,0.860
1782117357.562817,0.051000,1803131,1000,12,0,1,485.554,-19.971,12.238,562.180,0.753,0.861
1782117357.563817,0.052000,1803132,1000,12,0,1,500.855,-3.199,11.609,561.099,-0.703,0.842
1782117357.564817,0.053000,1803133,1000,12,0,1,501.696,3.016,11.418,560.979,-0.538,0.839
1782117357.565817,0.054000,1803134,1000,12,0,1,502.705,0.896,11.360,561.387,-0.200,0.826
1782117357.566817,0.055000,1803135,1000,12,0,1,513.778,11.512,11.455,561.195,-0.049,0.826
1782117357.567817,0.056000,1803136,1000,12,0,1,519.303,15.262,11.646,560.498,-0.682,0.827
1782117357.568817,0.057000,1803137,1000,12,0,1,514.355,8.563,11.687,562.708,1.041,0.840
1782117357.569817,0.058000,1803138,1000,12,0,1,509.502,1.038,11.629,562.444,1.540,0.868
1782117357.570817,0.059000,1803139,1000,12,0,1,512.457,1.586,11.550,563.261,1.249,0.886
1782117357.571817,0.060000,1803140,1000,12,0,1,515.628,4.062,11.414,562.036,0.952,0.894
1782117357.572817,0.061000,1803141,1000,12,0,1,514.907,1.820,11.335,561.195,-0.692,0.899
1782117357.573817,0.062000,1803142,1000,12,0,1,515.484,1.080,11.324,563.789,1.744,0.927
1782117357.574817,0.063000,1803143,1000,12,0,1,516.300,1.255,10.936,562.948,1.516,0.950
1782117357.575817,0.064000,1803144,1000,12,0,1,512.457,-1.897,10.263,562.516,0.146,0.944
1782117357.576817,0.065000,1803145,1000,12,0,1,507.629,-6.316,9.801,562.876,0.913,0.944
1782117357.577817,0.066000,1803146,1000,12,0,1,510.343,-3.355,9.730,562.492,0.211,0.930
1782117357.578817,0.067000,1803147,1000,12,0,1,517.477,4.427,9.748,562.132,-0.032,0.927
1782117357.579817,0.068000,1803148,1000,12,0,1,521.152,8.402,9.796,562.036,-0.253,0.927
1782117357.580817,0.069000,1803149,1000,12,0,1,521.297,7.898,9.827,561.988,-0.209,0.925
1782117357.581817,0.070000,1803150,1000,12,0,1,517.501,4.184,9.807,564.438,1.547,0.949
1782117357.582817,0.071000,1803151,1000,12,0,1,513.346,-0.387,9.725,563.309,1.191,0.962
1782117357.583817,0.072000,1803152,1000,12,0,1,512.073,-1.596,9.597,562.108,-0.913,0.970
1782117357.584817,0.073000,1803153,1000,12,0,1,512.769,-0.904,9.382,561.627,-0.913,0.956
1782117357.585817,0.074000,1803154,1000,12,0,1,512.697,-0.923,8.992,562.012,-0.835,0.963
1782117357.586817,0.075000,1803155,1000,12,0,1,510.631,-3.035,8.322,562.876,0.164,0.955
1782117357.587817,0.076000,1803156,1000,12,0,1,509.286,-4.847,7.559,563.141,0.403,0.956
1782117357.588817,0.077000,1803157,1000,12,0,1,508.542,-5.489,7.284,559.658,-2.328,1.005
1782117357.589817,0.078000,1803158,1000,12,0,1,509.815,-4.845,7.299,559.514,-3.065,1.089
1782117357.590817,0.079000,1803159,1000,12,0,1,508.974,-5.023,7.333,560.306,-1.240,1.102
1782117357.591817,0.080000,1803160,1000,12,0,1,504.530,-8.977,7.442,561.219,-0.486,1.074
1782117357.592817,0.081000,1803161,1000,12,0,1,498.597,-13.342,7.524,560.955,-0.156,1.074
1782117357.593817,0.082000,1803162,1000,12,0,1,495.811,-14.519,7.505,562.636,0.890,1.079
1782117357.594817,0.083000,1803163,1000,12,0,1,493.817,-13.357,7.521,563.429,2.070,1.116
1782117357.595817,0.084000,1803164,1000,12,0,1,490.406,-13.518,7.308,564.174,2.101,1.137
1782117357.596817,0.085000,1803165,1000,12,0,1,492.208,-9.545,7.113,563.405,1.493,1.128
1782117357.597817,0.086000,1803166,1000,12,0,1,504.482,3.583,6.990,561.435,-0.621,1.129
1782117357.598817,0.087000,1803167,1000,12,0,1,509.839,11.439,7.139,563.381,0.507,1.126
1782117357.599817,0.088000,1803168,1000,12,0,1,509.839,10.333,7.284,563.381,1.392,1.136
1782117357.600817,0.089000,1803169,1000,12,0,1,510.103,10.453,7.415,562.948,0.035,1.136
1782117357.601817,0.090000,1803170,1000,12,0,1,508.085,8.278,7.505,562.444,0.067,1.136
1782117357.602817,0.091000,1803171,1000,12,0,1,505.611,5.398,7.537,561.027,-1.472,1.138
1782117357.603817,0.092000,1803172,1000,12,0,1,510.848,8.865,7.639,564.750,1.338,1.151
1782117357.604817,0.093000,1803173,1000,12,0,1,510.199,9.206,7.719,565.519,2.977,1.225
1782117357.605817,0.094000,1803174,1000,12,0,1,508.494,5.068,7.744,564.342,0.740,1.222
1782117357.606817,0.095000,1803175,1000,12,0,1,506.548,3.216,7.757,564.053,0.493,1.212
1782117357.607817,0.096000,1803176,1000,12,0,1,498.525,-4.330,7.781,562.228,-1.215,1.207
1782117357.608817,0.097000,1803177,1000,12,0,1,498.525,-5.994,7.818,562.228,-1.575,1.227
1782117357.609817,0.098000,1803178,1000,12,0,1,492.688,-7.961,7.894,562.876,-0.493,1.226
1782117357.610817,0.099000,1803179,1000,12,0,1,497.444,-6.593,7.947,561.531,-1.548,1.201
1782117357.611817,0.100000,1803180,1000,12,0,1,517.573,12.766,7.909,564.342,0.383,1.202
1782117357.612817,0.101000,1803181,1000,12,0,1,520.312,15.859,7.720,565.807,2.510,1.249
1782117357.613817,0.102000,1803182,1000,12,0,1,519.063,9.503,7.823,563.309,-0.211,1.245
1782117357.614817,0.103000,1803183,1000,12,0,1,516.348,6.539,7.866,562.516,-1.387,1.258
1782117357.615817,0.104000,1803184,1000,12,0,1,508.373,-2.688,7.875,562.972,-0.662,1.261
1782117357.616817,0.105000,1803185,1000,12,0,1,504.170,-6.843,7.765,564.005,0.125,1.262
1782117357.617817,0.106000,1803186,1000,12,0,1,504.362,-5.767,7.503,562.588,-0.609,1.261
1782117357.618817,0.107000,1803187,1000,12,0,1,505.923,-3.104,7.418,563.309,-0.751,1.257
1782117357.619817,0.108000,1803188,1000,12,0,1,507.821,-0.329,7.417,562.900,-0.173,1.238
1782117357.620817,0.109000,1803189,1000,12,0,1,506.740,-0.218,7.413,563.669,-0.280,1.226
1782117357.621817,0.110000,1803190,1000,12,0,1,508.133,0.871,7.392,561.363,-1.231,1.231
1782117357.622817,0.111000,1803191,1000,12,0,1,500.519,-3.514,7.404,561.675,-1.986,1.259
1782117357.623817,0.112000,1803192,1000,12,0,1,492.328,-11.438,7.577,563.957,0.963,1.242
1782117357.624817,0.113000,1803193,1000,12,0,1,486.154,-13.966,7.829,564.053,1.033,1.232
1782117357.625817,0.114000,1803194,1000,12,0,1,491.079,-8.998,7.927,563.333,0.131,1.232
1782117357.626817,0.115000,1803195,1000,12,0,1,509.022,8.586,7.969,561.892,-0.946,1.232
1782117357.627817,0.116000,1803196,1000,12,0,1,519.543,18.770,8.386,563.357,-0.236,1.232
1782117357.628817,0.117000,1803197,1000,12,0,1,514.547,11.674,8.524,563.141,0.573,1.235
1782117357.629817,0.118000,1803198,1000,12,0,1,510.944,4.551,8.466,562.804,-0.543,1.237
1782117357.630817,0.119000,1803199,1000,12,0,1,508.614,1.291,8.394,562.132,-0.469,1.238
1782117357.631817,0.120000,1803200,1000,12,0,1,505.227,-3.020,8.384,561.315,-1.486,1.237
1782117357.632817,0.121000,1803201,1000,12,0,1,505.155,-3.903,8.402,562.228,-0.437,1.227
1782117357.633817,0.122000,1803202,1000,12,0,1,507.172,-1.784,8.402,561.099,-0.852,1.226
1782117357.634817,0.123000,1803203,1000,12,0,1,512.289,2.154,8.407,562.780,-0.033,1.219
1782117357.635817,0.124000,1803204,1000,12,0,1,513.394,3.954,8.424,564.077,2.005,1.246
1782117357.636817,0.125000,1803205,1000,12,0,1,512.409,1.796,8.417,562.900,0.483,1.248
1782117357.637817,0.126000,1803206,1000,12,0,1,509.214,-0.398,8.390,561.795,-0.531,1.249
1782117357.638817,0.127000,1803207,1000,12,0,1,505.779,-3.605,8.369,563.597,0.700,1.209
1782117357.639817,0.128000,1803208,1000,12,0,1,497.852,-8.504,8.427,560.907,-0.656,1.132
1782117357.640817,0.129000,1803209,1000,12,0,1,489.133,-14.906,8.658,560.306,-2.302,1.165
1782117357.641817,0.130000,1803210,1000,12,0,1,473.495,-23.986,9.212,561.771,0.001,1.163
1782117357.642817,0.131000,1803211,1000,12,0,1,477.915,-19.458,9.427,563.237,1.120,1.173
1782117357.643817,0.132000,1803212,1000,12,0,1,487.139,-3.747,9.216,562.132,0.564,1.169
1782117357.644817,0.133000,1803213,1000,12,0,1,482.191,-5.681,9.056,560.378,-1.334,1.148
1782117357.645817,0.134000,1803214,1000,12,0,1,483.608,-4.547,8.875,564.630,1.841,1.139
1782117357.646817,0.135000,1803215,1000,12,0,1,504.386,14.145,8.997,562.588,1.673,1.144
1782117357.647817,0.136000,1803216,1000,12,0,1,504.386,16.972,9.298,562.588,-0.510,1.142
1782117357.648817,0.137000,1803217,1000,12,0,1,507.629,12.571,9.327,562.396,0.867,1.147
1782117357.649817,0.138000,1803218,1000,12,0,1,505.227,11.756,9.361,563.021,0.136,1.130
1782117357.650817,0.139000,1803219,1000,12,0,1,503.497,4.701,9.267,561.099,-0.407,1.131
1782117357.651817,0.140000,1803220,1000,12,0,1,504.434,5.378,9.224,561.291,-1.328,1.147
1782117357.652817,0.141000,1803221,1000,12,0,1,501.552,1.477,9.195,559.706,-1.431,1.146
1782117357.653817,0.142000,1803222,1000,12,0,1,498.477,-2.329,9.115,561.099,-1.061,1.140
1782117357.654817,0.143000,1803223,1000,12,0,1,497.324,-2.641,9.029,561.195,0.276,1.060
1782117357.655817,0.144000,1803224,1000,12,0,1,496.579,-3.018,9.011,560.859,-0.524,1.058
1782117357.656817,0.145000,1803225,1000,12,0,1,496.579,-1.376,9.002,560.859,-0.200,1.056
1782117357.657817,0.146000,1803226,1000,12,0,1,496.291,-0.861,8.982,562.660,1.238,1.056
1782117357.658817,0.147000,1803227,1000,12,0,1,494.177,-0.829,8.942,562.972,1.732,1.061
1782117357.659817,0.148000,1803228,1000,12,0,1,492.087,-2.009,8.876,560.282,-0.633,1.063
1782117357.660817,0.149000,1803229,1000,12,0,1,489.661,-2.161,8.832,561.363,-0.579,1.043
1782117357.661817,0.150000,1803230,1000,12,0,1,485.722,-4.406,8.668,562.060,1.136,1.054
1782117357.662817,0.151000,1803231,1000,12,0,1,482.503,-5.670,8.411,560.474,-0.810,0.999
1782117357.663817,0.152000,1803232,1000,12,0,1,486.467,-1.532,8.306,561.315,-0.077,0.999
1782117357.664817,0.153000,1803233,1000,12,0,1,489.109,2.828,8.264,559.489,-1.022,0.990
1782117357.665817,0.154000,1803234,1000,12,0,1,487.091,0.689,8.255,560.066,-1.216,1.000
1782117357.666817,0.155000,1803235,1000,12,0,1,487.644,0.409,8.199,560.426,0.157,1.000
1782117357.667817,0.156000,1803236,1000,12,0,1,490.190,2.435,8.165,560.618,-0.118,0.997
1782117357.668817,0.157000,1803237,1000,12,0,1,489.325,1.192,8.155,560.859,0.522,0.994
1782117357.669817,0.158000,1803238,1000,12,0,1,488.773,-0.535,8.155,560.258,-0.067,0.993
1782117357.670817,0.159000,1803239,1000,12,0,1,488.556,-0.985,8.157,560.234,-0.145,0.993
1782117357.671817,0.160000,1803240,1000,12,0,1,486.539,-2.872,8.166,561.051,0.705,0.983
1782117357.672817,0.161000,1803241,1000,12,0,1,484.161,-4.841,8.179,563.021,2.193,0.991
1782117357.673817,0.162000,1803242,1000,12,0,1,482.695,-5.220,8.052,561.795,1.524,1.005
1782117357.674817,0.163000,1803243,1000,12,0,1,484.089,-3.018,7.817,561.435,0.161,0.995
1782117357.675817,0.164000,1803244,1000,12,0,1,488.196,2.018,7.718,558.120,-1.768,1.026
1782117357.676817,0.165000,1803245,1000,12,0,1,487.307,2.955,7.634,562.324,0.216,1.017
1782117357.677817,0.166000,1803246,1000,12,0,1,486.659,2.333,7.165,561.387,1.881,1.051
1782117357.678817,0.167000,1803247,1000,12,0,1,480.678,-0.590,6.973,560.763,-0.870,1.055
1782117357.679817,0.168000,1803248,1000,12,0,1,476.546,-4.267,6.969,559.033,-0.843,1.059
1782117357.680817,0.169000,1803249,1000,12,0,1,472.895,-4.442,6.995,559.393,-1.613,1.081
1782117357.681817,0.170000,1803250,1000,12,0,1,463.407,-10.426,7.136,560.498,0.346,1.062
1782117357.682817,0.171000,1803251,1000,12,0,1,456.681,-14.359,7.399,559.946,-0.136,1.060
1782117357.683817,0.172000,1803252,1000,12,0,1,454.928,-12.222,7.594,559.417,-0.766,1.059
1782117357.684817,0.173000,1803253,1000,12,0,1,464.464,-2.264,7.594,560.907,0.724,1.064
1782117357.685817,0.174000,1803254,1000,12,0,1,481.038,14.440,7.844,559.369,-0.281,1.026
1782117357.686817,0.175000,1803255,1000,12,0,1,503.329,31.423,9.012,558.697,-1.232,1.039
1782117357.687817,0.176000,1803256,1000,12,0,1,506.428,32.909,10.143,560.498,0.471,1.038
1782117357.688817,0.177000,1803257,1000,12,0,1,500.303,19.139,10.485,559.033,-0.056,1.033
1782117357.689817,0.178000,1803258,1000,12,0,1,492.039,8.477,10.485,559.658,-0.504,1.032
1782117357.690817,0.179000,1803259,1000,12,0,1,485.290,-1.516,10.273,561.699,2.085,1.022
1782117357.691817,0.180000,1803260,1000,12,0,1,477.459,-8.564,9.772,559.874,0.367,1.024
1782117357.692817,0.181000,1803261,1000,12,0,1,471.886,-13.608,9.572,559.778,-0.316,1.012
1782117357.693817,0.182000,1803262,1000,12,0,1,464.127,-17.550,9.874,559.634,0.091,1.009
1782117357.694817,0.183000,1803263,1000,12,0,1,463.671,-16.206,10.105,558.361,-1.181,1.005
1782117357.695817,0.184000,1803264,1000,12,0,1,482.047,2.146,10.089,558.336,-1.083,0.983
1782117357.696817,0.185000,1803265,1000,12,0,1,495.739,18.241,10.220,559.826,0.389,0.956
1782117357.697817,0.186000,1803266,1000,12,0,1,492.688,14.308,10.138,559.009,0.174,0.953
1782117357.698817,0.187000,1803267,1000,12,0,1,486.202,6.845,10.028,561.651,1.609,0.972
1782117357.699817,0.188000,1803268,1000,12,0,1,480.630,1.290,9.890,559.105,0.747,0.978
1782117357.700817,0.189000,1803269,1000,12,0,1,481.999,1.870,9.872,560.210,-0.236,0.977
1782117357.701817,0.190000,1803270,1000,12,0,1,478.276,0.450,9.842,558.817,0.372,0.960
1782117357.702817,0.191000,1803271,1000,12,0,1,471.550,-6.289,9.880,559.946,-0.324,0.940
1782117357.703817,0.192000,1803272,1000,12,0,1,472.294,-5.318,9.903,559.994,1.122,0.941
1782117357.704817,0.193000,1803273,1000,12,0,1,482.359,3.659,9.910,559.682,-0.086,0.940
1782117357.705817,0.194000,1803274,1000,12,0,1,496.075,15.035,10.126,560.330,0.731,0.943
1782117357.706817,0.195000,1803275,1000,12,0,1,496.579,14.418,10.328,560.378,0.788,0.949
1782117357.707817,0.196000,1803276,1000,12,0,1,493.529,6.538,10.369,559.946,0.079,0.933
1782117357.708817,0.197000,1803277,1000,12,0,1,490.718,2.262,10.373,560.258,0.445,0.902
1782117357.709817,0.198000,1803278,1000,12,0,1,489.085,-1.943,10.373,558.985,-0.690,0.903
1782117357.710817,0.199000,1803279,1000,12,0,1,486.371,-4.667,10.389,560.378,0.181,0.900
1782117357.711817,0.200000,1803280,1000,12,0,1,480.750,-9.986,10.466,559.321,-0.043,0.886
1782117357.712817,0.201000,1803281,1000,12,0,1,474.432,-14.678,10.640,558.096,-1.656,0.909
1782117357.713817,0.202000,1803282,1000,12,0,1,482.167,-7.715,10.693,558.385,-1.057,0.921
1782117357.714817,0.203000,1803283,1000,12,0,1,486.923,0.550,10.686,560.426,0.753,0.916
1782117357.715817,0.204000,1803284,1000,12,0,1,483.728,-2.192,10.690,559.778,0.688,0.905
1782117357.716817,0.205000,1803285,1000,12,0,1,484.449,-1.179,10.691,558.072,-1.202,0.920
1782117357.717817,0.206000,1803286,1000,12,0,1,478.636,-3.548,10.698,558.144,-1.114,0.934
1782117357.718817,0.207000,1803287,1000,12,0,1,468.115,-12.274,10.836,559.153,0.092,0.931
1782117357.719817,0.208000,1803288,1000,12,0,1,487.235,3.451,10.847,559.970,0.813,0.938
1782117357.720817,0.209000,1803289,1000,12,0,1,501.576,21.351,11.258,559.297,0.424,0.939
1782117357.721817,0.210000,1803290,1000,12,0,1,492.784,10.879,11.356,559.946,0.437,0.936
1782117357.722817,0.211000,1803291,1000,12,0,1,490.694,4.892,11.356,560.090,1.000,0.895
1782117357.723817,0.212000,1803292,1000,12,0,1,485.482,1.302,11.334,559.345,-0.061,0.868
1782117357.724817,0.213000,1803293,1000,12,0,1,477.987,-7.876,11.380,558.264,-0.842,0.876
1782117357.725817,0.214000,1803294,1000,12,0,1,475.537,-9.282,11.452,557.736,-1.385,0.862
1782117357.726817,0.215000,1803295,1000,12,0,1,479.861,-5.824,11.474,558.481,-0.519,0.865
1782117357.727817,0.216000,1803296,1000,12,0,1,481.470,-2.673,11.476,559.970,0.938,0.833
1782117357.728817,0.217000,1803297,1000,12,0,1,474.360,-8.881,11.544,559.658,0.864,0.833
1782117357.729817,0.218000,1803298,1000,12,0,1,472.919,-10.833,11.629,557.928,-0.816,0.833
1782117357.730817,0.219000,1803299,1000,12,0,1,475.321,-6.530,11.649,557.880,-1.027,0.814
1782117357.731817,0.220000,1803300,1000,12,0,1,477.699,-3.758,11.568,560.018,1.034,0.825
1782117357.732817,0.221000,1803301,1000,12,0,1,477.051,-2.647,11.394,560.186,1.486,0.852
1782117357.733817,0.222000,1803302,1000,12,0,1,471.310,-6.703,11.302,558.553,-0.246,0.845
1782117357.734817,0.223000,1803303,1000,12,0,1,467.947,-8.554,11.362,560.546,0.949,0.850
1782117357.735817,0.224000,1803304,1000,12,0,1,463.046,-9.630,11.260,560.258,1.469,0.874
1782117357.736817,0.225000,1803305,1000,12,0,1,459.539,-10.683,10.455,558.409,-0.919,0.866
1782117357.737817,0.226000,1803306,1000,12,0,1,464.584,-3.522,9.376,558.505,-0.746,0.870
1782117357.738817,0.227000,1803307,1000,12,0,1,471.862,5.747,9.013,560.715,1.107,0.884
1782117357.739817,0.228000,1803308,1000,12,0,1,479.813,13.184,9.126,561.603,2.141,0.932
1782117357.740817,0.229000,1803309,1000,12,0,1,485.530,18.083,9.475,558.240,-0.852,0.892
1782117357.741817,0.230000,1803310,1000,12,0,1,480.846,12.924,9.573,558.553,-1.529,0.916
1782117357.742817,0.231000,1803311,1000,12,0,1,479.188,8.042,9.446,560.018,0.692,0.920
1782117357.743817,0.232000,1803312,1000,12,0,1,477.699,6.683,9.163,558.433,-0.793,0.927
1782117357.744817,0.233000,1803313,1000,12,0,1,476.834,3.716,8.888,557.496,-1.739,0.945
1782117357.745817,0.234000,1803314,1000,12,0,1,477.603,3.853,8.899,559.658,0.185,0.932
1782117357.746817,0.235000,1803315,1000,12,0,1,477.699,2.824,8.527,558.240,-0.207,0.931
1782117357.747817,0.236000,1803316,1000,12,0,1,479.116,2.803,8.292,559.706,-0.019,0.931
1782117357.748817,0.237000,1803317,1000,12,0,1,478.804,2.101,8.241,561.267,2.266,0.958
1782117357.749817,0.238000,1803318,1000,12,0,1,477.555,-0.303,8.239,560.018,0.656,0.957
1782117357.750817,0.239000,1803319,1000,12,0,1,479.357,0.679,8.236,560.618,0.674,0.961
1782117357.751817,0.240000,1803320,1000,12,0,1,480.173,1.345,8.237,559.946,0.494,0.962
1782117357.752817,0.241000,1803321,1000,12,0,1,478.732,-0.264,8.189,559.057,-0.909,0.969
1782117357.753817,0.242000,1803322,1000,12,0,1,476.570,-2.227,8.161,559.562,-0.212,0.957
1782117357.754817,0.243000,1803323,1000,12,0,1,475.153,-3.120,8.156,558.096,-1.264,0.973
1782117357.755817,0.244000,1803324,1000,12,0,1,470.733,-5.665,7.915,557.952,-1.632,0.995
1782117357.756817,0.245000,1803325,1000,12,0,1,462.518,-11.461,7.818,559.946,0.438,0.991
1782117357.757817,0.246000,1803326,1000,12,0,1,456.585,-14.805,8.040,558.072,-0.567,0.994
1782117357.758817,0.247000,1803327,1000,12,0,1,450.316,-16.513,8.366,558.385,-1.148,1.005
1782117357.759817,0.248000,1803328,1000,12,0,1,446.809,-16.694,8.689,559.970,1.042,1.011
1782117357.760817,0.249000,1803329,1000,12,0,1,458.290,-4.215,8.684,560.114,0.933,1.019
1782117357.761817,0.250000,1803330,1000,12,0,1,484.041,20.064,9.026,559.369,0.272,1.020
1782117357.762817,0.251000,1803331,1000,12,0,1,490.694,27.506,9.607,558.024,-0.981,1.002
1782117357.763817,0.252000,1803332,1000,12,0,1,483.128,15.233,9.785,558.601,-0.682,0.996
1782117357.764817,0.253000,1803333,1000,12,0,1,477.723,7.262,9.838,558.841,0.074,0.990
1782117357.765817,0.254000,1803334,1000,12,0,1,476.834,3.980,9.850,558.865,-0.178,0.986
1782117357.766817,0.255000,1803335,1000,12,0,1,475.273,1.725,9.851,559.393,0.469,0.973
1782117357.767817,0.256000,1803336,1000,12,0,1,466.073,-6.487,9.881,560.114,0.943,0.970
1782117357.768817,0.257000,1803337,1000,12,0,1,461.485,-11.791,9.869,558.409,-0.261,0.970
1782117357.769817,0.258000,1803338,1000,12,0,1,459.612,-10.711,9.973,559.177,-0.339,0.964
1782117357.770817,0.259000,1803339,1000,12,0,1,455.432,-12.772,9.675,559.826,0.945,0.972
1782117357.771817,0.260000,1803340,1000,12,0,1,458.386,-8.534,9.628,559.393,0.160,0.970
1782117357.772817,0.261000,1803341,1000,12,0,1,475.153,7.374,9.659,558.937,-0.161,0.960
1782117357.773817,0.262000,1803342,1000,12,0,1,486.034,19.054,10.027,556.823,-1.785,0.993
1782117357.774817,0.263000,1803343,1000,12,0,1,488.556,18.459,10.301,560.835,0.851,0.993
1782117357.775817,0.264000,1803344,1000,12,0,1,488.292,15.894,10.461,559.225,1.354,0.992
1782117357.776817,0.265000,1803345,1000,12,0,1,485.386,10.816,10.540,558.625,-1.173,1.003
1782117357.777817,0.266000,1803346,1000,12,0,1,483.488,6.776,10.577,559.225,0.634,0.998
1782117357.778817,0.267000,1803347,1000,12,0,1,478.035,1.514,10.504,561.483,1.627,1.017
1782117357.779817,0.268000,1803348,1000,12,0,1,474.168,-3.624,10.405,559.754,1.086,1.022
1782117357.780817,0.269000,1803349,1000,12,0,1,468.427,-7.303,10.415,558.385,-1.320,1.029
1782117357.781817,0.270000,1803350,1000,12,0,1,464.632,-10.991,10.517,558.385,-0.793,1.025
1782117357.782817,0.271000,1803351,1000,12,0,1,467.466,-7.080,10.558,557.592,-1.326,1.020
1782117357.783817,0.272000,1803352,1000,12,0,1,476.306,1.195,10.516,558.985,-0.388,1.021
1782117357.784817,0.273000,1803353,1000,12,0,1,488.941,11.900,10.581,558.625,0.225,1.013
1782117357.785817,0.274000,1803354,1000,12,0,1,489.061,11.759,10.624,557.232,-1.603,1.017
1782117357.786817,0.275000,1803355,1000,12,0,1,482.311,1.939,10.520,560.594,1.329,1.026
1782117357.787817,0.276000,1803356,1000,12,0,1,478.083,-3.199,10.518,560.522,1.996,1.059
1782117357.788817,0.277000,1803357,1000,12,0,1,471.550,-9.078,10.565,559.057,-0.164,1.047
1782117357.789817,0.278000,1803358,1000,12,0,1,468.379,-12.105,10.539,560.474,0.916,1.011
1782117357.790817,0.279000,1803359,1000,12,0,1,468.403,-10.233,10.326,559.105,0.201,1.004
1782117357.791817,0.280000,1803360,1000,12,0,1,465.112,-11.155,10.284,557.063,-2.181,1.028
1782117357.792817,0.281000,1803361,1000,12,0,1,472.679,-4.564,10.242,558.336,-0.886,1.031
1782117357.793817,0.282000,1803362,1000,12,0,1,487.355,10.390,10.303,561.027,1.689,1.052
1782117357.794817,0.283000,1803363,1000,12,0,1,488.845,12.294,10.436,558.745,0.269,1.024
1782117357.795817,0.284000,1803364,1000,12,0,1,483.392,4.935,10.445,557.424,-1.864,1.057
1782117357.796817,0.285000,1803365,1000,12,0,1,478.780,0.150,10.437,559.177,0.175,1.057
1782117357.797817,0.286000,1803366,1000,12,0,1,476.690,-2.199,10.434,559.658,0.836,1.063
1782117357.798817,0.287000,1803367,1000,12,0,1,476.882,-1.487,10.432,559.586,0.531,1.017
1782117357.799817,0.288000,1803368,1000,12,0,1,474.168,-2.979,10.441,559.105,0.203,1.013
1782117357.800817,0.289000,1803369,1000,12,0,1,475.537,-2.290,10.445,558.457,-0.557,1.011
1782117357.801817,0.290000,1803370,1000,12,0,1,480.774,3.159,10.453,559.417,0.243,1.010
1782117357.802817,0.291000,1803371,1000,12,0,1,478.131,1.426,10.455,558.288,-0.316,1.002
1782117357.803817,0.292000,1803372,1000,12,0,1,472.583,-4.596,10.470,556.655,-2.038,1.043
1782117357.804817,0.293000,1803373,1000,12,0,1,461.509,-12.775,10.616,558.577,-0.359,1.028
1782117357.805817,0.294000,1803374,1000,12,0,1,453.222,-19.804,10.950,558.192,0.171,1.002
1782117357.806817,0.295000,1803375,1000,12,0,1,470.469,-4.167,10.845,559.682,0.570,1.004
1782117357.807817,0.296000,1803376,1000,12,0,1,485.434,13.469,10.810,559.393,1.248,1.016
1782117357.808817,0.297000,1803377,1000,12,0,1,486.154,11.828,10.687,556.319,-2.004,1.042
1782117357.809817,0.298000,1803378,1000,12,0,1,485.506,8.877,10.498,557.232,-1.423,1.051
1782117357.810817,0.299000,1803379,1000,12,0,1,488.508,9.141,10.561,557.928,0.078,1.043
1782117357.811817,0.300000,1803380,1000,12,0,1,487.500,7.303,10.225,559.345,0.806,1.048
1782117357.812817,0.301000,1803381,1000,12,0,1,483.848,2.071,9.460,557.664,0.203,1.040
1782117357.813817,0.302000,1803382,1000,12,0,1,480.894,-1.277,9.213,558.264,-0.425,1.037
1782117357.814817,0.303000,1803383,1000,12,0,1,481.206,-1.355,9.158,559.321,1.436,1.057
1782117357.815817,0.304000,1803384,1000,12,0,1,479.308,-2.092,9.146,558.649,0.411,1.058
1782117357.816817,0.305000,1803385,1000,12,0,1,476.234,-4.588,9.165,560.498,1.668,1.082
1782117357.817817,0.306000,1803386,1000,12,0,1,474.240,-5.380,9.151,560.138,1.837,1.105
1782117357.818817,0.307000,1803387,1000,12,0,1,472.078,-5.847,9.036,560.042,0.738,1.109
1782117357.819817,0.308000,1803388,1000,12,0,1,471.358,-5.491,8.942,560.979,1.789,1.136
1782117357.820817,0.309000,1803389,1000,12,0,1,473.063,-2.623,8.765,559.658,0.394,1.130
1782117357.821817,0.310000,1803390,1000,12,0,1,481.446,4.618,8.706,558.072,-1.260,1.144
1782117357.822817,0.311000,1803391,1000,12,0,1,483.272,7.692,8.712,558.312,-1.101,1.154
1782117357.823817,0.312000,1803392,1000,12,0,1,481.975,3.993,8.304,557.111,-1.574,1.148
1782117357.824817,0.313000,1803393,1000,12,0,1,479.429,1.494,7.885,558.385,-0.912,1.149
1782117357.825817,0.314000,1803394,1000,12,0,1,476.306,-2.639,7.567,557.616,-0.506,1.135
1782117357.826817,0.315000,1803395,1000,12,0,1,475.513,-3.668,7.429,557.976,-0.954,1.131
1782117357.827817,0.316000,1803396,1000,12,0,1,477.771,-1.879,7.372,558.505,0.275,1.128
1782117357.828817,0.317000,1803397,1000,12,0,1,478.204,-1.203,7.371,557.688,-0.624,1.108
1782117357.829817,0.318000,1803398,1000,12,0,1,477.051,-2.526,7.362,557.784,-0.595,1.100
1782117357.830817,0.319000,1803399,1000,12,0,1,474.408,-4.615,7.318,560.402,1.633,1.109
1782117357.831817,0.320000,1803400,1000,12,0,1,470.973,-7.029,7.220,558.457,0.532,1.105
1782117357.832817,0.321000,1803401,1000,12,0,1,469.676,-7.350,7.225,557.087,-1.640,1.114
1782117357.833817,0.322000,1803402,1000,12,0,1,474.913,-1.710,7.227,558.505,-0.038,1.112
1782117357.834817,0.323000,1803403,1000,12,0,1,479.164,3.757,7.049,558.312,0.147,1.112
1782117357.835817,0.324000,1803404,1000,12,0,1,476.954,2.334,6.858,558.481,-0.113,1.089
1782117357.836817,0.325000,1803405,1000,12,0,1,476.066,0.976,6.854,556.991,-0.779,1.078
1782117357.837817,0.326000,1803406,1000,12,0,1,473.039,-0.281,6.839,559.706,0.595,1.044
1782117357.838817,0.327000,1803407,1000,12,0,1,471.310,-2.152,6.724,559.514,1.862,1.076
1782117357.839817,0.328000,1803408,1000,12,0,1,471.117,-0.873,6.504,558.577,-0.244,1.069
1782117357.840817,0.329000,1803409,1000,12,0,1,467.322,-3.237,6.357,558.385,0.174,1.069
1782117357.841817,0.330000,1803410,1000,12,0,1,464.656,-5.170,6.202,558.264,-0.230,1.024
1782117357.842817,0.331000,1803411,1000,12,0,1,463.791,-4.498,6.201,556.871,-1.046,1.027
1782117357.843817,0.332000,1803412,1000,12,0,1,465.617,-2.314,6.033,556.775,-1.325,1.016
1782117357.844817,0.333000,1803413,1000,12,0,1,467.514,0.514,5.777,557.592,-0.201,1.016
1782117357.845817,0.334000,1803414,1000,12,0,1,471.526,3.478,5.756,557.015,-0.357,0.983
1782117357.846817,0.335000,1803415,1000,12,0,1,468.259,1.722,5.761,557.616,-0.176,0.983
1782117357.847817,0.336000,1803416,1000,12,0,1,460.572,-6.221,5.820,556.223,-0.593,0.979
1782117357.848817,0.337000,1803417,1000,12,0,1,454.903,-10.344,5.997,556.415,-1.171,0.990
1782117357.849817,0.338000,1803418,1000,12,0,1,448.490,-13.930,6.298,556.103,-0.440,0.992
1782117357.850817,0.339000,1803419,1000,12,0,1,446.568,-13.857,6.588,557.976,0.443,0.991
1782117357.851817,0.340000,1803420,1000,12,0,1,452.333,-5.912,6.626,558.985,2.139,1.035
1782117357.852817,0.341000,1803421,1000,12,0,1,469.412,10.025,6.773,559.922,2.083,1.075
1782117357.853817,0.342000,1803422,1000,12,0,1,470.109,14.204,7.035,557.736,0.597,1.039
1782117357.854817,0.343000,1803423,1000,12,0,1,455.672,-0.943,6.800,558.889,0.316,1.039
1782117357.855817,0.344000,1803424,1000,12,0,1,456.008,-1.940,6.202,558.144,0.727,1.044
1782117357.856817,0.345000,1803425,1000,12,0,1,446.520,-5.257,6.219,555.862,-1.976,1.078
1782117357.857817,0.346000,1803426,1000,12,0,1,433.597,-17.164,6.398,558.361,0.049,1.063
1782117357.858817,0.347000,1803427,1000,12,0,1,434.054,-12.969,6.443,555.310,-1.078,1.036
1782117357.859817,0.348000,1803428,1000,12,0,1,450.075,3.467,6.338,554.541,-3.224,1.114
1782117357.860817,0.349000,1803429,1000,12,0,1,458.627,15.119,6.563,559.225,2.058,1.151
1782117357.861817,0.350000,1803430,1000,12,0,1,465.665,18.402,6.984,558.312,1.799,1.173
1782117357.862817,0.351000,1803431,1000,12,0,1,463.071,16.594,7.362,557.904,0.431,1.175
1782117357.863817,0.352000,1803432,1000,12,0,1,470.373,17.070,7.746,557.256,0.467,1.175
1782117357.864817,0.353000,1803433,1000,12,0,1,472.679,19.839,8.236,558.024,0.400,1.159
1782117357.865817,0.354000,1803434,1000,12,0,1,459.804,4.858,8.259,557.159,0.388,1.159
1782117357.866817,0.355000,1803435,1000,12,0,1,448.634,-7.529,8.302,557.328,-0.287,1.135
1782117357.867817,0.356000,1803436,1000,12,0,1,446.760,-8.792,8.360,557.063,0.110,1.105
1782117357.868817,0.357000,1803437,1000,12,0,1,454.279,-1.926,8.324,557.280,-0.197,1.100
1782117357.869817,0.358000,1803438,1000,12,0,1,457.666,3.556,8.303,557.832,0.522,1.073
1782117357.870817,0.359000,1803439,1000,12,0,1,465.785,7.898,8.369,557.544,0.199,1.072
1782117357.871817,0.360000,1803440,1000,12,0,1,478.756,19.418,8.784,559.129,1.094,1.069
1782117357.872817,0.361000,1803441,1000,12,0,1,479.501,18.084,9.084,558.072,0.771,1.063
1782117357.873817,0.362000,1803442,1000,12,0,1,474.048,9.555,9.166,555.262,-2.373,1.092
1782117357.874817,0.363000,1803443,1000,12,0,1,474.336,6.843,9.215,555.622,-1.942,1.119
1782117357.875817,0.364000,1803444,1000,12,0,1,473.063,5.077,9.235,555.334,-1.490,1.136
1782117357.876817,0.365000,1803445,1000,12,0,1,469.940,0.565,9.221,555.886,-1.097,1.139
1782117357.877817,0.366000,1803446,1000,12,0,1,470.637,0.220,9.217,556.367,-0.050,1.138
1782117357.878817,0.367000,1803447,1000,12,0,1,470.109,-0.061,9.216,559.153,1.942,1.167
1782117357.879817,0.368000,1803448,1000,12,0,1,468.763,-2.117,9.214,559.393,2.832,1.231
1782117357.880817,0.369000,1803449,1000,12,0,1,466.650,-3.742,9.206,555.454,-1.116,1.220
1782117357.881817,0.370000,1803450,1000,12,0,1,466.650,-4.368,9.173,555.454,-1.721,1.242
1782117357.882817,0.371000,1803451,1000,12,0,1,465.136,-4.812,9.139,556.103,-0.179,1.220
1782117357.883817,0.372000,1803452,1000,12,0,1,463.815,-6.471,9.182,558.409,1.274,1.233
1782117357.884817,0.373000,1803453,1000,12,0,1,461.725,-7.427,9.226,559.538,2.907,1.300
1782117357.885817,0.374000,1803454,1000,12,0,1,457.282,-10.831,9.347,558.769,1.485,1.317
1782117357.886817,0.375000,1803455,1000,12,0,1,455.312,-11.978,9.498,556.223,-0.690,1.316
1782117357.887817,0.376000,1803456,1000,12,0,1,449.979,-14.183,9.707,555.334,-2.001,1.343
1782117357.888817,0.377000,1803457,1000,12,0,1,443.686,-18.486,10.049,556.511,-0.577,1.319
1782117357.889817,0.378000,1803458,1000,12,0,1,446.857,-13.661,10.232,557.832,0.738,1.323
1782117357.890817,0.379000,1803459,1000,12,0,1,453.582,-4.662,10.243,558.361,1.149,1.333
1782117357.891817,0.380000,1803460,1000,12,0,1,455.648,-1.009,10.218,557.472,0.336,1.333
1782117357.892817,0.381000,1803461,1000,12,0,1,459.059,1.990,10.202,557.904,0.173,1.325
1782117357.893817,0.382000,1803462,1000,12,0,1,466.025,8.429,10.266,558.601,1.049,1.320
1782117357.894817,0.383000,1803463,1000,12,0,1,463.791,7.236,10.317,556.535,-0.805,1.325
1782117357.895817,0.384000,1803464,1000,12,0,1,461.509,3.093,10.314,559.345,0.766,1.328
1782117357.896817,0.385000,1803465,1000,12,0,1,461.629,3.837,10.326,559.033,1.716,1.350
1782117357.897817,0.386000,1803466,1000,12,0,1,457.618,0.581,10.288,556.631,-1.469,1.363
1782117357.898817,0.387000,1803467,1000,12,0,1,455.336,-1.580,10.186,556.391,-1.424,1.368
1782117357.899817,0.388000,1803468,1000,12,0,1,454.615,-0.886,9.995,558.937,0.699,1.370
1782117357.900817,0.389000,1803469,1000,12,0,1,451.781,-2.395,9.807,555.934,-0.868,1.374
1782117357.901817,0.390000,1803470,1000,12,0,1,450.652,-2.649,9.778,557.952,-0.691,1.344
1782117357.902817,0.391000,1803471,1000,12,0,1,447.649,-3.561,9.688,558.409,1.444,1.327
1782117357.903817,0.392000,1803472,1000,12,0,1,451.180,-0.735,9.478,557.063,-0.777,1.329
1782117357.904817,0.393000,1803473,1000,12,0,1,445.127,-2.623,9.484,557.616,-0.082,1.329
1782117357.905817,0.394000,1803474,1000,12,0,1,448.154,-2.820,9.489,556.895,-0.402,1.326
1782117357.906817,0.395000,1803475,1000,12,0,1,465.208,13.728,9.657,555.742,-1.699,1.318
1782117357.907817,0.396000,1803476,1000,12,0,1,467.298,16.090,9.619,557.520,-0.006,1.318
1782117357.908817,0.397000,1803477,1000,12,0,1,466.554,10.495,9.559,558.288,0.972,1.316
1782117357.909817,0.398000,1803478,1000,12,0,1,466.578,9.559,9.642,559.345,1.517,1.253
1782117357.910817,0.399000,1803479,1000,12,0,1,465.401,5.442,9.433,558.144,0.625,1.222
1782117357.911817,0.400000,1803480,1000,12,0,1,466.193,4.849,9.093,555.910,-1.746,1.221
1782117357.912817,0.401000,1803481,1000,12,0,1,467.106,4.190,8.805,558.024,-0.282,1.220
1782117357.913817,0.402000,1803482,1000,12,0,1,466.241,2.608,8.475,557.472,0.324,1.219
1782117357.914817,0.403000,1803483,1000,12,0,1,466.457,1.626,8.001,557.760,-0.486,1.220
1782117357.915817,0.404000,1803484,1000,12,0,1,467.130,1.984,7.976,558.913,1.226,1.231
1782117357.916817,0.405000,1803485,1000,12,0,1,466.602,1.233,7.907,561.099,2.415,1.277
1782117357.917817,0.406000,1803486,1000,12,0,1,466.938,1.056,7.810,558.312,0.714,1.280
1782117357.918817,0.407000,1803487,1000,12,0,1,463.935,-0.915,7.806,556.943,-1.863,1.307
1782117357.919817,0.408000,1803488,1000,12,0,1,459.227,-5.327,7.826,558.505,0.148,1.305
1782117357.920817,0.409000,1803489,1000,12,0,1,455.672,-7.467,7.818,556.703,-0.993,1.312
1782117357.921817,0.410000,1803490,1000,12,0,1,452.381,-9.121,7.432,554.829,-2.990,1.370
1782117357.922817,0.411000,1803491,1000,12,0,1,448.490,-10.833,7.145,559.586,1.142,1.375
1782117357.923817,0.412000,1803492,1000,12,0,1,447.889,-10.104,7.160,558.841,1.857,1.359
1782117357.924817,0.413000,1803493,1000,12,0,1,449.979,-6.393,7.151,557.568,-0.665,1.335
1782117357.925817,0.414000,1803494,1000,12,0,1,452.165,-3.344,7.131,557.448,-0.182,1.318
1782117357.926817,0.415000,1803495,1000,12,0,1,450.652,-3.687,7.150,558.937,0.626,1.312
1782117357.927817,0.416000,1803496,1000,12,0,1,447.361,-6.441,7.207,556.799,-0.490,1.314
1782117357.928817,0.417000,1803497,1000,12,0,1,441.212,-10.588,7.361,555.478,-2.453,1.331
1782117357.929817,0.418000,1803498,1000,12,0,1,437.272,-13.261,7.590,557.880,-0.041,1.269
1782117357.930817,0.419000,1803499,1000,12,0,1,433.285,-13.889,7.823,557.520,0.371,1.260
1782117357.931817,0.420000,1803500,1000,12,0,1,419.689,-22.059,8.399,556.943,-0.865,1.243
1782117357.932817,0.421000,1803501,1000,12,0,1,399.584,-35.583,9.767,555.262,-1.540,1.261
1782117357.933817,0.422000,1803502,1000,12,0,1,392.810,-36.477,11.008,554.349,-2.787,1.309
1782117357.934817,0.423000,1803503,1000,12,0,1,398.911,-22.803,11.422,556.055,-0.635,1.246
1782117357.935817,0.424000,1803504,1000,12,0,1,405.733,-9.561,11.400,557.592,0.991,1.236
1782117357.936817,0.425000,1803505,1000,12,0,1,418.032,5.011,11.295,557.592,1.139,1.243
1782117357.937817,0.426000,1803506,1000,12,0,1,456.945,38.761,12.394,557.520,0.812,1.216
1782117357.938817,0.427000,1803507,1000,12,0,1,477.243,59.309,14.735,558.481,1.521,1.232
1782117357.939817,0.428000,1803508,1000,12,0,1,468.019,42.933,15.820,558.577,1.667,1.250
1782117357.940817,0.429000,1803509,1000,12,0,1,456.345,25.490,16.212,557.328,0.318,1.240
1782117357.941817,0.430000,1803510,1000,12,0,1,455.312,19.308,16.440,557.616,0.272,1.240
1782117357.942817,0.431000,1803511,1000,12,0,1,464.632,23.881,16.780,556.031,-0.611,1.242
1782117357.943817,0.432000,1803512,1000,12,0,1,476.042,30.695,17.292,556.295,-0.965,1.241
1782117357.944817,0.433000,1803513,1000,12,0,1,472.751,24.185,17.597,558.793,1.678,1.258
1782117357.945817,0.434000,1803514,1000,12,0,1,461.942,9.208,17.640,557.400,0.799,1.259
1782117357.946817,0.435000,1803515,1000,12,0,1,454.783,-0.398,17.632,555.982,-1.154,1.246
1782117357.947817,0.436000,1803516,1000,12,0,1,450.027,-5.403,17.648,557.712,0.479,1.230
1782117357.948817,0.437000,1803517,1000,12,0,1,450.388,-6.092,17.667,558.409,1.336,1.228
1782117357.949817,0.438000,1803518,1000,12,0,1,446.736,-7.561,17.699,558.577,1.081,1.234
1782117357.950817,0.439000,1803519,1000,12,0,1,441.692,-12.627,17.786,557.976,0.524,1.230
1782117357.951817,0.440000,1803520,1000,12,0,1,437.513,-14.428,17.899,559.441,1.149,1.237
1782117357.952817,0.441000,1803521,1000,12,0,1,436.936,-14.084,18.002,559.682,1.697,1.243
1782117357.953817,0.442000,1803522,1000,12,0,1,434.918,-13.084,18.097,559.249,0.578,1.241
1782117357.954817,0.443000,1803523,1000,12,0,1,434.606,-12.509,18.179,557.832,-0.551,1.243
1782117357.955817,0.444000,1803524,1000,12,0,1,430.667,-13.043,18.268,558.312,-0.700,1.246
1782117357.956817,0.445000,1803525,1000,12,0,1,427.712,-14.767,18.284,557.808,-0.537,1.225
1782117357.957817,0.446000,1803526,1000,12,0,1,423.460,-15.270,18.270,560.330,0.870,1.231
1782117357.958817,0.447000,1803527,1000,12,0,1,418.945,-17.082,18.369,558.553,0.471,1.225
1782117357.959817,0.448000,1803528,1000,12,0,1,417.527,-15.309,18.447,558.745,-0.848,1.212
1782117357.960817,0.449000,1803529,1000,12,0,1,425.070,-6.314,18.453,557.208,-0.897,1.216
1782117357.961817,0.450000,1803530,1000,12,0,1,433.405,4.000,18.449,556.727,-2.200,1.230
1782117357.962817,0.451000,1803531,1000,12,0,1,434.030,5.812,18.457,558.553,0.052,1.230
1782117357.963817,0.452000,1803532,1000,12,0,1,431.075,2.915,18.458,557.880,-0.112,1.229
1782117357.964817,0.453000,1803533,1000,12,0,1,428.361,1.188,18.458,557.736,-0.795,1.232
1782117357.965817,0.454000,1803534,1000,12,0,1,426.415,0.087,18.456,558.985,0.738,1.224
1782117357.966817,0.455000,1803535,1000,12,0,1,424.613,-0.039,18.455,558.144,-0.059,1.176
1782117357.967817,0.456000,1803536,1000,12,0,1,424.589,0.806,18.454,556.535,-1.485,1.190
1782117357.968817,0.457000,1803537,1000,12,0,1,424.517,2.414,18.457,556.631,-1.572,1.182
1782117357.969817,0.458000,1803538,1000,12,0,1,427.352,5.137,18.456,560.066,1.522,1.201
1782117357.970817,0.459000,1803539,1000,12,0,1,431.003,9.293,18.473,557.928,0.488,1.195
1782117357.971817,0.460000,1803540,1000,12,0,1,430.306,8.609,18.468,557.736,-1.104,1.128
1782117357.972817,0.461000,1803541,1000,12,0,1,424.637,3.275,18.410,560.306,1.807,1.146
1782117357.973817,0.462000,1803542,1000,12,0,1,416.735,-3.738,18.362,560.402,1.736,1.142
1782117357.974817,0.463000,1803543,1000,12,0,1,417.816,-3.209,18.345,559.778,0.688,1.142
1782117357.975817,0.464000,1803544,1000,12,0,1,422.331,2.727,18.343,559.465,0.300,1.143
1782117357.976817,0.465000,1803545,1000,12,0,1,423.268,3.671,18.343,559.658,0.176,1.139
1782117357.977817,0.466000,1803546,1000,12,0,1,421.683,2.180,18.323,559.345,0.094,1.137
1782117357.978817,0.467000,1803547,1000,12,0,1,415.702,-2.831,18.266,557.400,-1.643,1.108
1782117357.979817,0.468000,1803548,1000,12,0,1,407.967,-9.331,18.218,558.913,-0.646,1.112
1782117357.980817,0.469000,1803549,1000,12,0,1,403.403,-11.906,18.190,560.594,1.506,1.131
1782117357.981817,0.470000,1803550,1000,12,0,1,401.986,-10.764,17.985,557.712,-0.878,1.131
1782117357.982817,0.471000,1803551,1000,12,0,1,414.645,1.128,17.267,558.048,-1.400,1.127
1782117357.983817,0.472000,1803552,1000,12,0,1,424.637,13.229,16.584,558.625,0.121,1.056
1782117357.984817,0.473000,1803553,1000,12,0,1,421.875,9.919,16.328,559.249,0.134,1.052
1782117357.985817,0.474000,1803554,1000,12,0,1,414.981,2.801,16.277,559.802,0.988,1.052
1782117357.986817,0.475000,1803555,1000,12,0,1,413.612,0.890,16.262,557.832,-0.810,1.046
1782117357.987817,0.476000,1803556,1000,12,0,1,416.350,4.057,15.321,560.162,0.400,1.042
1782117357.988817,0.477000,1803557,1000,12,0,1,412.027,1.739,12.823,558.505,0.265,1.020
1782117357.989817,0.478000,1803558,1000,12,0,1,409.817,-1.199,11.296,559.658,-0.485,0.995
1782117357.990817,0.479000,1803559,1000,12,0,1,406.454,-1.724,10.708,561.459,2.246,1.043
1782117357.991817,0.480000,1803560,1000,12,0,1,402.755,-4.814,10.377,558.336,-0.951,1.051
1782117357.992817,0.481000,1803561,1000,12,0,1,401.097,-4.258,9.830,558.312,-1.702,1.075
1782117357.993817,0.482000,1803562,1000,12,0,1,400.881,-3.172,8.831,559.393,0.001,1.066
1782117357.994817,0.483000,1803563,1000,12,0,1,403.283,0.166,8.142,558.793,-0.700,1.044
1782117357.995817,0.484000,1803564,1000,12,0,1,414.020,9.431,8.147,558.961,-0.482,1.040
1782117357.996817,0.485000,1803565,1000,12,0,1,421.539,16.609,8.479,559.201,-0.165,1.028
1782117357.997817,0.486000,1803566,1000,12,0,1,425.742,17.284,8.791,558.649,-0.463,1.027
1782117357.998817,0.487000,1803567,1000,12,0,1,428.913,17.415,9.089,556.343,-2.237,1.058
1782117357.999817,0.488000,1803568,1000,12,0,1,426.847,12.823,9.206,556.943,-1.891,1.081
1782117358.000817,0.489000,1803569,1000,12,0,1,422.259,5.609,9.066,558.048,-0.022,1.078
1782117358.001817,0.490000,1803570,1000,12,0,1,417.455,-0.101,8.833,560.018,1.446,1.085
1782117358.002817,0.491000,1803571,1000,12,0,1,416.134,-2.653,8.614,559.297,1.419,1.077
1782117358.003817,0.492000,1803572,1000,12,0,1,415.269,-2.720,8.421,557.904,-0.483,1.076
1782117358.004817,0.493000,1803573,1000,12,0,1,416.038,-2.442,8.241,558.144,-0.163,1.074
1782117358.005817,0.494000,1803574,1000,12,0,1,417.071,-0.590,8.032,559.514,1.012,1.079
1782117358.006817,0.495000,1803575,1000,12,0,1,416.855,-0.671,7.757,558.312,0.253,1.077
1782117358.007817,0.496000,1803576,1000,12,0,1,417.479,0.063,7.450,558.168,-0.483,1.072
1782117358.008817,0.497000,1803577,1000,12,0,1,416.759,-0.013,7.047,558.096,-0.142,1.070
1782117358.009817,0.498000,1803578,1000,12,0,1,414.621,-1.849,6.712,559.345,0.546,1.066
1782117358.010817,0.499000,1803579,1000,12,0,1,411.066,-4.295,6.680,558.312,0.174,1.059
1782117358.011817,0.500000,1803580,1000,12,0,1,411.450,-4.062,6.680,559.634,0.416,1.014
1782117358.012817,0.501000,1803581,1000,12,0,1,414.140,-0.541,6.630,557.424,-0.442,1.016
1782117358.013817,0.502000,1803582,1000,12,0,1,411.882,-1.887,6.623,556.583,-2.260,1.065
1782117358.014817,0.503000,1803583,1000,12,0,1,412.411,-2.339,6.629,557.448,-0.609,1.062
1782117358.015817,0.504000,1803584,1000,12,0,1,410.273,-2.852,6.641,559.850,1.261,1.072
1782117358.016817,0.505000,1803585,1000,12,0,1,412.555,-2.393,6.650,560.522,2.288,1.120
1782117358.017817,0.506000,1803586,1000,12,0,1,418.440,3.638,6.668,560.114,1.424,1.118
1782117358.018817,0.507000,1803587,1000,12,0,1,419.713,4.186,6.686,560.210,1.197,1.109
1782117358.019817,0.508000,1803588,1000,12,0,1,418.969,2.195,6.654,560.859,1.651,1.112
1782117358.020817,0.509000,1803589,1000,12,0,1,412.891,-3.066,6.537,558.865,-0.088,1.110
1782117358.021817,0.510000,1803590,1000,12,0,1,409.985,-6.974,6.498,558.673,-0.814,1.105
1782117358.022817,0.511000,1803591,1000,12,0,1,414.501,-1.951,6.487,558.096,-0.757,1.081
1782117358.023817,0.512000,1803592,1000,12,0,1,415.750,0.421,6.466,558.793,-0.498,1.055
1782117358.024817,0.513000,1803593,1000,12,0,1,414.453,-0.773,6.451,557.568,-0.856,1.057
1782117358.025817,0.514000,1803594,1000,12,0,1,408.544,-4.684,6.473,559.562,0.069,1.056
1782117358.026817,0.515000,1803595,1000,12,0,1,402.010,-9.901,6.603,558.072,0.021,1.056
1782117358.027817,0.516000,1803596,1000,12,0,1,394.732,-13.512,6.867,558.793,-0.700,1.061
1782117358.028817,0.517000,1803597,1000,12,0,1,395.837,-11.120,7.033,558.144,-0.068,1.035
1782117358.029817,0.518000,1803598,1000,12,0,1,407.775,2.173,6.915,556.415,-2.225,1.078
1782117358.030817,0.519000,1803599,1000,12,0,1,411.546,8.226,6.807,557.544,-1.096,1.068
1782117358.031817,0.520000,1803600,1000,12,0,1,400.040,-1.797,6.639,558.312,0.175,1.061
1782117358.032817,0.521000,1803601,1000,12,0,1,391.008,-10.465,6.800,559.057,0.415,1.044
1782117358.033817,0.522000,1803602,1000,12,0,1,387.069,-11.581,6.740,557.952,0.031,1.044
1782117358.034817,0.523000,1803603,1000,12,0,1,388.823,-8.383,6.698,558.793,-0.140,1.044
1782117358.035817,0.524000,1803604,1000,12,0,1,399.031,2.170,6.694,557.880,0.107,1.035
1782117358.036817,0.525000,1803605,1000,12,0,1,414.477,16.096,7.069,558.096,-0.655,1.032
1782117358.037817,0.526000,1803606,1000,12,0,1,425.022,24.165,7.831,558.409,0.475,1.033
1782117358.038817,0.527000,1803607,1000,12,0,1,432.156,26.179,8.658,558.937,0.463,1.034
1782117358.039817,0.528000,1803608,1000,12,0,1,432.468,22.735,9.234,558.264,0.348,1.033
1782117358.040817,0.529000,1803609,1000,12,0,1,429.682,15.207,9.478,557.159,-0.866,0.991
1782117358.041817,0.530000,1803610,1000,12,0,1,427.208,9.715,9.553,557.111,-0.767,0.988
1782117358.042817,0.531000,1803611,1000,12,0,1,422.884,3.748,9.549,560.258,1.901,0.995
1782117358.043817,0.532000,1803612,1000,12,0,1,419.977,-0.600,9.539,560.306,2.524,1.057
1782117358.044817,0.533000,1803613,1000,12,0,1,423.220,1.550,9.541,557.063,-0.830,1.059
1782117358.045817,0.534000,1803614,1000,12,0,1,421.563,1.023,9.449,558.264,-0.468,1.059
1782117358.046817,0.535000,1803615,1000,12,0,1,417.167,-3.677,9.167,559.417,1.417,1.077
1782117358.047817,0.536000,1803616,1000,12,0,1,415.173,-4.904,8.862,557.544,-0.595,1.079
1782117358.048817,0.537000,1803617,1000,12,0,1,418.680,-1.590,8.516,557.184,-1.111,1.043
1782117358.049817,0.538000,1803618,1000,12,0,1,427.280,6.182,8.366,559.874,1.155,1.021
1782117358.050817,0.539000,1803619,1000,12,0,1,423.845,4.248,8.350,558.913,0.958,1.030
1782117358.051817,0.540000,1803620,1000,12,0,1,417.215,-4.459,8.374,558.745,-0.272,1.010
1782117358.052817,0.541000,1803621,1000,12,0,1,413.324,-7.456,8.432,558.553,0.141,0.991
1782117358.053817,0.542000,1803622,1000,12,0,1,413.852,-7.672,8.493,558.048,-0.751,0.994
1782117358.054817,0.543000,1803623,1000,12,0,1,412.051,-7.776,8.557,559.417,0.444,0.996
1782117358.055817,0.544000,1803624,1000,12,0,1,406.718,-12.497,8.737,559.105,0.528,0.988
1782117358.056817,0.545000,1803625,1000,12,0,1,403.211,-14.841,8.985,561.267,1.519,1.010
1782117358.057817,0.546000,1803626,1000,12,0,1,401.794,-14.418,9.213,559.586,1.068,1.019
1782117358.058817,0.547000,1803627,1000,12,0,1,401.794,-12.822,9.390,557.424,-2.069,1.060
1782117358.059817,0.548000,1803628,1000,12,0,1,401.746,-10.673,9.507,559.105,-0.200,1.058
1782117358.060817,0.549000,1803629,1000,12,0,1,414.092,-0.124,9.488,557.352,-1.023,1.068
1782117358.061817,0.550000,1803630,1000,12,0,1,424.301,11.681,9.613,559.105,-0.451,1.068
1782117358.062817,0.551000,1803631,1000,12,0,1,417.936,5.388,9.643,558.865,0.784,1.072
1782117358.063817,0.552000,1803632,1000,12,0,1,415.029,0.421,9.640,558.264,-0.799,1.029
1782117358.064817,0.553000,1803633,1000,12,0,1,411.306,-0.909,9.635,558.961,0.408,1.027
1782117358.065817,0.554000,1803634,1000,12,0,1,409.889,-2.817,9.635,558.096,-0.396,1.013
1782117358.066817,0.555000,1803635,1000,12,0,1,414.669,3.065,9.638,558.553,-0.274,0.961
1782117358.067817,0.556000,1803636,1000,12,0,1,415.077,4.849,9.649,557.736,-0.430,0.942
1782117358.068817,0.557000,1803637,1000,12,0,1,414.453,3.912,9.647,557.328,-1.294,0.944
1782117358.069817,0.558000,1803638,1000,12,0,1,413.132,3.529,9.655,557.400,-0.696,0.920
1782117358.070817,0.559000,1803639,1000,12,0,1,416.591,5.488,9.676,560.378,1.342,0.939
1782117358.071817,0.560000,1803640,1000,12,0,1,424.469,12.393,9.784,558.385,0.724,0.938
1782117358.072817,0.561000,1803641,1000,12,0,1,428.769,14.814,10.002,558.240,-1.006,0.943
1782117358.073817,0.562000,1803642,1000,12,0,1,425.983,10.182,10.105,558.312,0.163,0.940
1782117358.074817,0.563000,1803643,1000,12,0,1,424.589,5.578,10.135,558.216,-0.569,0.936
1782117358.075817,0.564000,1803644,1000,12,0,1,422.452,2.427,10.119,558.192,-0.170,0.936
1782117358.076817,0.565000,1803645,1000,12,0,1,417.840,-3.399,10.033,559.994,1.059,0.948
1782117358.077817,0.566000,1803646,1000,12,0,1,415.582,-6.499,9.893,557.712,-0.184,0.943
1782117358.078817,0.567000,1803647,1000,12,0,1,415.582,-6.463,9.809,558.985,-0.256,0.944
1782117358.079817,0.568000,1803648,1000,12,0,1,409.192,-10.974,9.927,557.472,-0.137,0.890
1782117358.080817,0.569000,1803649,1000,12,0,1,407.102,-13.269,10.035,557.472,-1.247,0.894
1782117358.081817,0.570000,1803650,1000,12,0,1,409.721,-8.613,10.106,558.000,0.219,0.894
1782117358.082817,0.571000,1803651,1000,12,0,1,411.042,-5.873,10.031,560.018,1.480,0.916
1782117358.083817,0.572000,1803652,1000,12,0,1,412.099,-3.795,9.911,560.258,2.156,0.966
1782117358.084817,0.573000,1803653,1000,12,0,1,409.504,-4.255,9.858,559.057,0.608,0.969
1782117358.085817,0.574000,1803654,1000,12,0,1,407.439,-5.541,9.885,557.376,-1.007,0.980
1782117358.086817,0.575000,1803655,1000,12,0,1,409.913,-1.744,9.622,557.832,-0.730,0.981
1782117358.087817,0.576000,1803656,1000,12,0,1,417.407,5.548,9.029,558.361,-0.007,0.979
1782117358.088817,0.577000,1803657,1000,12,0,1,422.139,10.771,8.375,556.751,-1.130,0.989
1782117358.089817,0.578000,1803658,1000,12,0,1,421.443,9.109,7.840,557.304,-1.199,1.003
1782117358.090817,0.579000,1803659,1000,12,0,1,417.143,4.465,7.565,556.871,-0.615,0.999
1782117358.091817,0.580000,1803660,1000,12,0,1,417.311,2.970,7.451,558.385,-0.107,0.993
1782117358.092817,0.581000,1803661,1000,12,0,1,415.750,2.214,7.439,558.216,0.768,0.962
1782117358.093817,0.582000,1803662,1000,12,0,1,413.300,-1.115,7.440,554.661,-2.740,0.974
1782117358.094817,0.583000,1803663,1000,12,0,1,413.636,-0.954,7.438,556.511,-1.517,0.990
1782117358.095817,0.584000,1803664,1000,12,0,1,410.753,-2.944,7.448,556.823,0.163,0.988
1782117358.096817,0.585000,1803665,1000,12,0,1,406.646,-6.966,7.495,557.688,0.063,0.968
1782117358.097817,0.586000,1803666,1000,12,0,1,406.214,-6.762,7.524,558.817,1.807,0.997
1782117358.098817,0.587000,1803667,1000,12,0,1,406.934,-5.156,7.556,557.520,0.387,0.987
1782117358.099817,0.588000,1803668,1000,12,0,1,405.901,-5.010,7.539,557.496,0.089,0.973
1782117358.100817,0.589000,1803669,1000,12,0,1,408.159,-2.968,7.526,558.577,1.215,0.979
1782117358.101817,0.590000,1803670,1000,12,0,1,408.832,-0.791,7.501,556.919,-0.004,0.978
1782117358.102817,0.591000,1803671,1000,12,0,1,406.814,-2.484,7.435,556.943,-0.499,0.980
1782117358.103817,0.592000,1803672,1000,12,0,1,401.698,-5.684,7.399,558.457,1.218,0.990
1782117358.104817,0.593000,1803673,1000,12,0,1,393.363,-11.607,7.498,558.745,1.486,1.010
1782117358.105817,0.594000,1803674,1000,12,0,1,383.274,-17.787,7.709,558.913,1.297,1.024
1782117358.106817,0.595000,1803675,1000,12,0,1,390.216,-10.386,7.562,557.568,0.259,1.001
1782117358.107817,0.596000,1803676,1000,12,0,1,403.643,6.219,7.335,558.336,0.203,0.990
1782117358.108817,0.597000,1803677,1000,12,0,1,412.075,14.253,7.387,558.841,1.194,0.961
1782117358.109817,0.598000,1803678,1000,12,0,1,408.928,11.847,7.423,557.496,-0.376,0.962
1782117358.110817,0.599000,1803679,1000,12,0,1,407.727,7.879,7.506,558.457,0.122,0.951
1782117358.111817,0.600000,1803680,1000,12,0,1,415.630,13.813,7.578,558.192,0.346,0.951
1782117358.112817,0.601000,1803681,1000,12,0,1,422.187,18.596,7.985,555.550,-2.193,0.994
1782117358.113817,0.602000,1803682,1000,12,0,1,418.872,13.428,8.208,554.998,-2.746,1.061
1782117358.114817,0.603000,1803683,1000,12,0,1,415.462,7.066,8.268,557.664,-0.128,1.059
1782117358.115817,0.604000,1803684,1000,12,0,1,416.302,5.909,8.300,559.153,1.696,1.085
1782117358.116817,0.605000,1803685,1000,12,0,1,420.001,7.602,8.358,559.345,1.470,1.104
1782117358.117817,0.606000,1803686,1000,12,0,1,419.953,6.412,8.379,557.856,0.194,1.102
1782117358.118817,0.607000,1803687,1000,12,0,1,422.764,6.174,8.406,558.216,-0.127,1.087
1782117358.119817,0.608000,1803688,1000,12,0,1,423.941,6.486,8.442,559.297,1.169,1.095
1782117358.120817,0.609000,1803689,1000,12,0,1,419.713,1.065,8.407,559.754,1.295,1.094
1782117358.121817,0.610000,1803690,1000,12,0,1,412.867,-5.918,8.265,559.489,0.955,1.098
1782117358.122817,0.611000,1803691,1000,12,0,1,413.852,-6.022,8.040,558.985,0.270,1.089
1782117358.123817,0.612000,1803692,1000,12,0,1,412.867,-4.900,7.941,558.649,-0.146,1.089
1782117358.124817,0.613000,1803693,1000,12,0,1,405.853,-10.639,8.043,556.895,-1.424,1.105
1782117358.125817,0.614000,1803694,1000,12,0,1,407.246,-9.437,8.146,557.496,-1.318,1.120
1782117358.126817,0.615000,1803695,1000,12,0,1,411.786,-2.860,8.142,558.409,0.228,1.110
1782117358.127817,0.616000,1803696,1000,12,0,1,415.197,0.237,8.090,557.544,-0.617,1.114
1782117358.128817,0.617000,1803697,1000,12,0,1,416.110,1.716,8.042,558.288,-0.141,1.113
1782117358.129817,0.618000,1803698,1000,12,0,1,414.693,-0.237,7.891,558.913,0.715,1.118
1782117358.130817,0.619000,1803699,1000,12,0,1,416.206,0.443,7.665,560.739,1.772,1.132
1782117358.131817,0.620000,1803700,1000,12,0,1,416.831,1.132,7.569,558.577,0.475,1.133
1782117358.132817,0.621000,1803701,1000,12,0,1,419.785,2.339,7.530,557.880,-1.397,1.131
1782117358.133817,0.622000,1803702,1000,12,0,1,420.434,3.105,7.524,558.192,-0.380,1.091
1782117358.134817,0.623000,1803703,1000,12,0,1,420.074,1.089,7.502,558.673,-0.353,1.088
1782117358.135817,0.624000,1803704,1000,12,0,1,421.587,1.791,7.465,561.411,1.948,1.114
1782117358.136817,0.625000,1803705,1000,12,0,1,421.899,1.470,7.464,560.474,1.548,1.130
1782117358.137817,0.626000,1803706,1000,12,0,1,422.331,0.855,7.423,558.336,-1.275,1.145
1782117358.138817,0.627000,1803707,1000,12,0,1,421.803,0.201,7.265,558.649,-0.887,1.140
1782117358.139817,0.628000,1803708,1000,12,0,1,419.569,-2.246,7.157,558.601,-0.714,1.132
1782117358.140817,0.629000,1803709,1000,12,0,1,410.249,-9.280,7.249,558.793,-0.558,1.131
1782117358.141817,0.630000,1803710,1000,12,0,1,401.962,-16.448,7.602,560.474,0.899,1.138
1782117358.142817,0.631000,1803711,1000,12,0,1,393.411,-20.233,8.116,559.994,0.838,1.139
1782117358.143817,0.632000,1803712,1000,12,0,1,385.628,-24.022,8.797,560.667,0.686,1.076
1782117358.144817,0.633000,1803713,1000,12,0,1,386.709,-19.107,9.202,559.970,0.612,1.058
1782117358.145817,0.634000,1803714,1000,12,0,1,415.630,7.526,9.254,560.234,0.046,1.058
1782117358.146817,0.635000,1803715,1000,12,0,1,437.368,31.329,10.212,559.297,-0.174,1.058
1782117358.147817,0.636000,1803716,1000,12,0,1,425.598,18.433,10.496,559.682,-0.535,1.029
1782117358.148817,0.637000,1803717,1000,12,0,1,412.699,1.173,10.472,557.904,-1.260,1.043
1782117358.149817,0.638000,1803718,1000,12,0,1,407.607,-3.378,10.459,555.598,-3.660,1.165
1782117358.150817,0.639000,1803719,1000,12,0,1,401.962,-8.336,10.517,557.304,-1.941,1.184
1782117358.151817,0.640000,1803720,1000,12,0,1,402.130,-7.615,10.572,557.664,-0.586,1.187
1782117358.152817,0.641000,1803721,1000,12,0,1,416.422,4.907,10.588,558.553,-0.344,1.186
1782117358.153817,0.642000,1803722,1000,12,0,1,430.426,18.425,10.875,557.976,-0.012,1.173
1782117358.154817,0.643000,1803723,1000,12,0,1,427.736,14.564,10.946,558.433,-0.398,1.156
1782117358.155817,0.644000,1803724,1000,12,0,1,425.598,8.194,10.715,557.760,-0.167,1.141
1782117358.156817,0.645000,1803725,1000,12,0,1,421.419,4.297,10.632,560.018,0.839,1.147
1782117358.157817,0.646000,1803726,1000,12,0,1,418.056,-1.092,10.596,559.802,1.702,1.171
1782117358.158817,0.647000,1803727,1000,12,0,1,423.557,3.295,10.413,558.793,-0.213,1.160
1782117358.159817,0.648000,1803728,1000,12,0,1,435.927,13.296,10.448,559.393,0.503,1.161
1782117358.160817,0.649000,1803729,1000,12,0,1,433.525,11.678,10.519,558.024,-0.438,1.162
1782117358.161817,0.650000,1803730,1000,12,0,1,427.664,2.330,10.341,557.424,-1.374,1.177
1782117358.162817,0.651000,1803731,1000,12,0,1,428.024,1.824,10.005,557.616,-0.567,1.138
1782117358.163817,0.652000,1803732,1000,12,0,1,430.306,3.005,9.832,559.658,0.897,1.078
1782117358.164817,0.653000,1803733,1000,12,0,1,429.802,1.945,9.785,560.618,2.392,1.129
1782117358.165817,0.654000,1803734,1000,12,0,1,428.144,-0.591,9.750,559.874,1.176,1.116
1782117358.166817,0.655000,1803735,1000,12,0,1,428.697,-1.241,9.692,557.448,-0.764,1.102
1782117358.167817,0.656000,1803736,1000,12,0,1,435.903,3.930,9.665,558.697,-0.411,1.103
1782117358.168817,0.657000,1803737,1000,12,0,1,436.384,4.391,9.646,559.033,0.871,1.110
1782117358.169817,0.658000,1803738,1000,12,0,1,432.084,-1.865,9.606,560.186,1.035,1.107
1782117358.170817,0.659000,1803739,1000,12,0,1,431.075,-4.128,9.622,559.393,0.958,1.100
1782117358.171817,0.660000,1803740,1000,12,0,1,428.361,-6.397,9.628,558.865,-0.353,1.093
1782117358.172817,0.661000,1803741,1000,12,0,1,431.195,-5.496,9.622,560.330,0.981,1.101
1782117358.173817,0.662000,1803742,1000,12,0,1,439.146,1.979,9.601,557.592,-0.920,1.109
1782117358.174817,0.663000,1803743,1000,12,0,1,441.308,3.390,9.495,557.616,-2.057,1.128
1782117358.175817,0.664000,1803744,1000,12,0,1,438.882,-0.242,9.400,557.592,-0.802,1.119
1782117358.176817,0.665000,1803745,1000,12,0,1,441.308,0.077,9.392,557.376,-1.603,1.141
1782117358.177817,0.666000,1803746,1000,12,0,1,440.947,0.199,9.392,557.063,-1.115,1.148
1782117358.178817,0.667000,1803747,1000,12,0,1,441.092,-1.429,9.391,557.328,-1.104,1.159
1782117358.179817,0.668000,1803748,1000,12,0,1,439.482,-2.199,9.396,559.081,0.725,1.159
1782117358.180817,0.669000,1803749,1000,12,0,1,438.641,-3.880,9.412,559.465,1.307,1.146
1782117358.181817,0.670000,1803750,1000,12,0,1,439.266,-2.732,9.418,558.336,0.079,1.145
1782117358.182817,0.671000,1803751,1000,12,0,1,438.041,-3.420,9.425,558.769,0.266,1.128
1782117358.183817,0.672000,1803752,1000,12,0,1,436.576,-4.665,9.438,557.832,-0.163,1.127
1782117358.184817,0.673000,1803753,1000,12,0,1,440.059,-1.578,9.439,560.546,1.458,1.145
1782117358.185817,0.674000,1803754,1000,12,0,1,440.131,-0.483,9.436,559.153,1.428,1.129
1782117358.186817,0.675000,1803755,1000,12,0,1,440.635,-1.176,9.435,558.336,-0.665,1.112
1782117358.187817,0.676000,1803756,1000,12,0,1,442.845,0.772,9.435,558.481,0.225,1.097
1782117358.188817,0.677000,1803757,1000,12,0,1,442.893,0.347,9.435,558.601,-0.011,1.090
1782117358.189817,0.678000,1803758,1000,12,0,1,438.545,-3.928,9.446,558.985,0.471,1.088
1782117358.190817,0.679000,1803759,1000,12,0,1,433.117,-9.079,9.442,558.913,0.433,1.086
1782117358.191817,0.680000,1803760,1000,12,0,1,430.931,-10.742,9.276,557.544,-0.824,1.085
1782117358.192817,0.681000,1803761,1000,12,0,1,435.879,-5.741,8.861,558.553,-0.207,1.079
1782117358.193817,0.682000,1803762,1000,12,0,1,437.873,-2.235,8.190,559.874,1.225,1.089
1782117358.194817,0.683000,1803763,1000,12,0,1,435.879,-4.125,7.754,559.874,1.090,1.096
1782117358.195817,0.684000,1803764,1000,12,0,1,425.718,-11.413,7.848,559.874,0.675,1.100
1782117358.196817,0.685000,1803765,1000,12,0,1,420.410,-16.204,6.871,559.417,0.287,1.101
1782117358.197817,0.686000,1803766,1000,12,0,1,428.553,-6.686,6.427,559.417,-0.140,1.098
1782117358.198817,0.687000,1803767,1000,12,0,1,435.615,2.596,6.436,559.225,-0.108,1.084
1782117358.199817,0.688000,1803768,1000,12,0,1,437.320,4.329,6.447,557.304,-1.796,0.986
1782117358.200817,0.689000,1803769,1000,12,0,1,434.798,2.658,6.349,558.817,-0.857,0.954
1782117358.201817,0.690000,1803770,1000,12,0,1,435.351,2.136,6.265,558.409,-0.185,0.951
1782117358.202817,0.691000,1803771,1000,12,0,1,436.384,4.100,6.253,558.721,-0.652,0.954
1782117358.203817,0.692000,1803772,1000,12,0,1,437.056,4.047,5.713,558.745,0.126,0.954
1782117358.204817,0.693000,1803773,1000,12,0,1,437.729,4.737,5.371,558.481,-0.452,0.955
1782117358.205817,0.694000,1803774,1000,12,0,1,434.966,2.201,5.254,558.312,-0.299,0.956
1782117358.206817,0.695000,1803775,1000,12,0,1,433.093,-0.187,5.218,560.667,1.417,0.969
1782117358.207817,0.696000,1803776,1000,12,0,1,432.036,-0.599,5.217,559.874,1.392,0.959
1782117358.208817,0.697000,1803777,1000,12,0,1,436.408,2.386,5.207,559.417,0.039,0.959
1782117358.209817,0.698000,1803778,1000,12,0,1,434.030,2.012,4.864,557.184,-1.243,0.972
1782117358.210817,0.699000,1803779,1000,12,0,1,427.184,-5.422,4.639,557.592,-1.640,0.997
1782117358.211817,0.700000,1803780,1000,12,0,1,420.578,-10.066,4.841,558.625,0.133,0.978
1782117358.212817,0.701000,1803781,1000,12,0,1,416.735,-12.480,5.146,558.865,0.169,0.976
1782117358.213817,0.702000,1803782,1000,12,0,1,409.769,-15.375,5.571,558.721,0.082,0.967
1782117358.214817,0.703000,1803783,1000,12,0,1,409.144,-14.637,5.936,559.345,0.494,0.909
1782117358.215817,0.704000,1803784,1000,12,0,1,417.864,-3.881,5.961,559.057,0.294,0.895
1782117358.216817,0.705000,1803785,1000,12,0,1,420.314,1.414,5.962,559.393,0.318,0.889
1782117358.217817,0.706000,1803786,1000,12,0,1,425.911,5.141,5.980,557.856,-0.749,0.894
1782117358.218817,0.707000,1803787,1000,12,0,1,436.287,15.061,6.318,557.832,-1.219,0.902
1782117358.219817,0.708000,1803788,1000,12,0,1,439.218,16.607,6.735,557.544,-0.854,0.898
1782117358.220817,0.709000,1803789,1000,12,0,1,440.443,14.803,7.029,558.072,-0.602,0.892
1782117358.221817,0.710000,1803790,1000,12,0,1,435.903,9.736,7.105,558.000,-0.164,0.891
1782117358.222817,0.711000,1803791,1000,12,0,1,429.874,1.966,7.068,558.457,0.035,0.880
1782117358.223817,0.712000,1803792,1000,12,0,1,429.874,1.309,7.065,558.457,0.346,0.871
1782117358.224817,0.713000,1803793,1000,12,0,1,429.874,1.861,7.053,558.457,0.219,0.822
1782117358.225817,0.714000,1803794,1000,12,0,1,425.862,-1.473,7.056,560.859,2.042,0.864
1782117358.226817,0.715000,1803795,1000,12,0,1,423.412,-3.609,7.075,560.210,2.035,0.882
1782117358.227817,0.716000,1803796,1000,12,0,1,422.884,-3.044,7.088,559.514,0.349,0.869
1782117358.228817,0.717000,1803797,1000,12,0,1,424.277,-1.189,7.087,558.168,-0.295,0.856
1782117358.229817,0.718000,1803798,1000,12,0,1,425.454,0.693,7.081,556.775,-1.971,0.894
1782117358.230817,0.719000,1803799,1000,12,0,1,426.151,1.348,7.062,558.673,-0.181,0.875
1782117358.231817,0.720000,1803800,1000,12,0,1,426.079,1.310,7.054,559.345,0.976,0.886
1782117358.232817,0.721000,1803801,1000,12,0,1,419.857,-3.604,7.056,558.673,0.021,0.885
1782117358.233817,0.722000,1803802,1000,12,0,1,416.879,-7.179,7.098,558.240,-0.303,0.886
1782117358.234817,0.723000,1803803,1000,12,0,1,413.492,-7.960,7.183,559.201,0.279,0.863
1782117358.235817,0.724000,1803804,1000,12,0,1,409.937,-10.600,7.337,557.232,-0.815,0.847
1782117358.236817,0.725000,1803805,1000,12,0,1,409.312,-9.229,7.451,557.664,-1.319,0.862
1782117358.237817,0.726000,1803806,1000,12,0,1,416.759,-1.953,7.455,557.472,-0.417,0.863
1782117358.238817,0.727000,1803807,1000,12,0,1,427.784,9.067,7.564,558.793,-0.002,0.863
1782117358.239817,0.728000,1803808,1000,12,0,1,430.595,11.657,7.722,559.994,1.703,0.894
1782117358.240817,0.729000,1803809,1000,12,0,1,432.300,10.437,7.756,557.087,-0.875,0.900
1782117358.241817,0.730000,1803810,1000,12,0,1,433.381,10.568,7.751,557.616,-1.237,0.910
1782117358.242817,0.731000,1803811,1000,12,0,1,432.804,7.964,7.791,559.057,0.978,0.920
1782117358.243817,0.732000,1803812,1000,12,0,1,430.691,5.257,7.820,560.426,1.580,0.930
1782117358.244817,0.733000,1803813,1000,12,0,1,430.402,3.554,7.814,559.802,1.487,0.941
1782117358.245817,0.734000,1803814,1000,12,0,1,429.105,2.608,7.654,558.361,-0.475,0.939
1782117358.246817,0.735000,1803815,1000,12,0,1,425.911,-0.612,7.304,558.769,-0.094,0.938
1782117358.247817,0.736000,1803816,1000,12,0,1,425.550,-1.071,7.244,555.910,-1.963,0.978
1782117358.248817,0.737000,1803817,1000,12,0,1,423.629,-1.628,7.238,555.622,-2.877,1.059
1782117358.249817,0.738000,1803818,1000,12,0,1,424.205,-1.620,7.216,555.670,-1.517,1.050
1782117358.250817,0.739000,1803819,1000,12,0,1,424.902,0.228,7.206,560.474,1.828,1.075
1782117358.251817,0.740000,1803820,1000,12,0,1,425.022,-0.123,7.200,560.018,3.133,1.162
1782117358.252817,0.741000,1803821,1000,12,0,1,424.469,-0.317,7.177,558.336,-0.128,1.159
1782117358.253817,0.742000,1803822,1000,12,0,1,417.167,-6.217,7.208,559.153,0.959,1.167
1782117358.254817,0.743000,1803823,1000,12,0,1,408.015,-14.264,7.455,559.153,0.808,1.170
1782117358.255817,0.744000,1803824,1000,12,0,1,398.551,-20.233,7.979,557.904,-0.444,1.171
1782117358.256817,0.745000,1803825,1000,12,0,1,386.805,-27.366,8.868,558.096,-0.452,1.156
1782117358.257817,0.746000,1803826,1000,12,0,1,387.646,-23.929,9.491,560.186,1.234,1.152
1782117358.258817,0.747000,1803827,1000,12,0,1,404.004,-5.252,9.514,559.153,0.869,1.159
1782117358.259817,0.748000,1803828,1000,12,0,1,413.852,7.375,9.567,561.003,1.137,1.157
1782117358.260817,0.749000,1803829,1000,12,0,1,404.460,0.161,9.536,558.433,0.274,1.134
1782117358.261817,0.750000,1803830,1000,12,0,1,402.442,-3.821,9.445,557.736,-2.099,1.172
1782117358.262817,0.751000,1803831,1000,12,0,1,414.621,8.424,9.355,559.297,0.425,1.173
1782117358.263817,0.752000,1803832,1000,12,0,1,408.784,6.309,9.142,561.579,1.830,1.201
1782117358.264817,0.753000,1803833,1000,12,0,1,413.660,5.826,8.943,559.417,0.656,1.203
1782117358.265817,0.754000,1803834,1000,12,0,1,432.180,23.927,9.546,558.961,-0.970,1.210
1782117358.266817,0.755000,1803835,1000,12,0,1,438.930,28.291,10.348,560.498,0.902,1.216
1782117358.267817,0.756000,1803836,1000,12,0,1,434.270,20.522,10.723,558.913,-0.268,1.212
1782117358.268817,0.757000,1803837,1000,12,0,1,426.271,10.232,10.609,559.802,-0.361,1.201
1782117358.269817,0.758000,1803838,1000,12,0,1,413.708,-2.053,10.349,557.232,-1.262,1.208
1782117358.270817,0.759000,1803839,1000,12,0,1,400.304,-13.753,10.320,556.583,-3.114,1.283
1782117358.271817,0.760000,1803840,1000,12,0,1,410.393,-5.833,10.261,557.544,-0.890,1.289
1782117358.272817,0.761000,1803841,1000,12,0,1,433.837,17.910,10.566,557.111,-1.413,1.304
1782117358.273817,0.762000,1803842,1000,12,0,1,439.915,23.080,11.057,558.697,0.076,1.303
1782117358.274817,0.763000,1803843,1000,12,0,1,434.030,13.473,11.217,561.339,2.514,1.350
1782117358.275817,0.764000,1803844,1000,12,0,1,429.586,5.958,11.246,561.579,2.609,1.370
1782117358.276817,0.765000,1803845,1000,12,0,1,427.712,2.005,11.238,560.811,1.319,1.352
1782117358.277817,0.766000,1803846,1000,12,0,1,424.661,-1.976,11.234,559.057,-0.439,1.353
1782117358.278817,0.767000,1803847,1000,12,0,1,425.190,-3.361,11.242,558.072,-1.594,1.371
1782117358.279817,0.768000,1803848,1000,12,0,1,424.541,-3.768,11.255,558.553,-1.057,1.350
1782117358.280817,0.769000,1803849,1000,12,0,1,419.281,-8.972,11.324,556.943,-1.862,1.376
1782117358.281817,0.770000,1803850,1000,12,0,1,420.025,-9.133,11.396,556.991,-2.187,1.403
1782117358.282817,0.771000,1803851,1000,12,0,1,418.512,-8.373,11.446,557.544,-0.789,1.408
1782117358.283817,0.772000,1803852,1000,12,0,1,414.333,-11.989,11.526,558.385,-0.172,1.407
1782117358.284817,0.773000,1803853,1000,12,0,1,414.333,-10.617,11.569,558.385,0.366,1.408
1782117358.285817,0.774000,1803854,1000,12,0,1,416.254,-7.112,11.516,559.874,1.213,1.413
1782117358.286817,0.775000,1803855,1000,12,0,1,419.425,-3.075,11.450,558.913,1.025,1.408
1782117358.287817,0.776000,1803856,1000,12,0,1,419.929,-1.057,11.447,559.586,0.652,1.410
1782117358.288817,0.777000,1803857,1000,12,0,1,421.755,0.408,11.375,558.985,0.859,1.415
1782117358.289817,0.778000,1803858,1000,12,0,1,424.541,3.750,11.268,557.208,-1.219,1.405
1782117358.290817,0.779000,1803859,1000,12,0,1,424.085,3.396,11.181,558.913,0.100,1.400
1782117358.291817,0.780000,1803860,1000,12,0,1,430.258,7.291,11.129,558.793,0.766,1.393
1782117358.292817,0.781000,1803861,1000,12,0,1,431.435,9.332,11.150,559.417,0.417,1.388
1782117358.293817,0.782000,1803862,1000,12,0,1,429.826,5.190,11.149,558.673,0.505,1.371
1782117358.294817,0.783000,1803863,1000,12,0,1,433.981,7.520,11.189,558.481,-0.536,1.357
1782117358.295817,0.784000,1803864,1000,12,0,1,435.855,8.313,11.244,559.225,0.562,1.358
1782117358.296817,0.785000,1803865,1000,12,0,1,432.276,3.323,11.254,561.507,2.005,1.387
1782117358.297817,0.786000,1803866,1000,12,0,1,431.844,0.842,11.253,562.612,3.138,1.430
1782117358.298817,0.787000,1803867,1000,12,0,1,433.789,1.797,11.254,561.219,1.327,1.383
1782117358.299817,0.788000,1803868,1000,12,0,1,431.627,-0.626,11.252,558.625,-1.303,1.379
1782117358.300817,0.789000,1803869,1000,12,0,1,429.490,-3.896,11.265,560.330,-0.394,1.356
1782117358.301817,0.790000,1803870,1000,12,0,1,426.271,-6.259,11.300,560.186,0.380,1.282
1782117358.302817,0.791000,1803871,1000,12,0,1,426.199,-6.943,11.342,561.003,0.210,1.283
1782117358.303817,0.792000,1803872,1000,12,0,1,428.361,-3.870,11.321,559.610,-0.204,1.276
1782117358.304817,0.793000,1803873,1000,12,0,1,428.913,-2.997,11.148,557.928,-2.306,1.312
1782117358.305817,0.794000,1803874,1000,12,0,1,430.330,-1.700,10.778,561.051,0.402,1.311
1782117358.306817,0.795000,1803875,1000,12,0,1,433.837,1.474,10.061,560.618,1.084,1.319
1782117358.307817,0.796000,1803876,1000,12,0,1,433.381,1.454,9.477,557.856,-2.165,1.343
1782117358.308817,0.797000,1803877,1000,12,0,1,434.798,1.433,9.450,557.616,-2.077,1.369
1782117358.309817,0.798000,1803878,1000,12,0,1,435.158,2.224,9.397,560.138,0.128,1.359
1782117358.310817,0.799000,1803879,1000,12,0,1,432.756,-0.591,9.398,558.024,-0.651,1.362
1782117358.311817,0.800000,1803880,1000,12,0,1,431.147,-2.288,9.388,558.481,-1.497,1.346
1782117358.312817,0.801000,1803881,1000,12,0,1,429.970,-3.008,9.322,557.880,-0.635,1.348
1782117358.313817,0.802000,1803882,1000,12,0,1,431.363,-1.975,9.283,557.520,-1.722,1.345
1782117358.314817,0.803000,1803883,1000,12,0,1,428.505,-3.141,9.257,560.955,1.548,1.359
1782117358.315817,0.804000,1803884,1000,12,0,1,425.862,-6.198,8.661,559.345,0.928,1.359
1782117358.316817,0.805000,1803885,1000,12,0,1,424.373,-6.104,7.730,558.144,-1.398,1.367
1782117358.317817,0.806000,1803886,1000,12,0,1,426.967,-3.886,7.185,559.393,0.338,1.367
1782117358.318817,0.807000,1803887,1000,12,0,1,423.797,-4.397,7.066,557.904,-0.857,1.372
1782117358.319817,0.808000,1803888,1000,12,0,1,418.104,-9.730,7.192,559.465,-0.004,1.360
1782117358.320817,0.809000,1803889,1000,12,0,1,413.132,-12.158,7.135,559.273,0.760,1.291
1782117358.321817,0.810000,1803890,1000,12,0,1,408.616,-14.193,7.366,560.474,0.861,1.291
1782117358.322817,0.811000,1803891,1000,12,0,1,410.345,-10.802,7.083,560.667,1.785,1.300
1782117358.323817,0.812000,1803892,1000,12,0,1,423.508,2.494,6.296,559.898,0.425,1.302
1782117358.324817,0.813000,1803893,1000,12,0,1,430.066,10.673,6.188,559.489,0.193,1.252
1782117358.325817,0.814000,1803894,1000,12,0,1,427.448,7.107,6.212,559.297,-0.046,1.197
1782117358.326817,0.815000,1803895,1000,12,0,1,424.565,3.452,6.225,557.640,-1.224,1.195
1782117358.327817,0.816000,1803896,1000,12,0,1,421.851,1.038,6.220,558.505,-0.763,1.198
1782117358.328817,0.817000,1803897,1000,12,0,1,414.813,-4.527,6.235,561.747,2.366,1.223
1782117358.329817,0.818000,1803898,1000,12,0,1,406.838,-10.585,6.390,560.594,1.801,1.241
1782117358.330817,0.819000,1803899,1000,12,0,1,405.013,-10.611,6.440,559.826,-0.028,1.212
1782117358.331817,0.820000,1803900,1000,12,0,1,409.048,-4.313,6.339,559.874,0.430,1.174
1782117358.332817,0.821000,1803901,1000,12,0,1,409.096,-1.526,6.231,558.192,-1.272,1.182
1782117358.333817,0.822000,1803902,1000,12,0,1,407.511,-1.976,6.002,558.745,-1.040,1.191
1782117358.334817,0.823000,1803903,1000,12,0,1,416.014,5.605,5.865,558.144,-0.922,1.197
1782117358.335817,0.824000,1803904,1000,12,0,1,436.191,23.079,6.636,557.111,-2.110,1.222
1782117358.336817,0.825000,1803905,1000,12,0,1,437.609,24.998,7.507,557.039,-1.764,1.239
1782117358.337817,0.826000,1803906,1000,12,0,1,430.282,12.593,7.714,559.153,0.032,1.235
1782117358.338817,0.827000,1803907,1000,12,0,1,426.751,7.376,7.784,562.036,2.830,1.293
1782117358.339817,0.828000,1803908,1000,12,0,1,423.076,2.436,7.773,561.267,2.183,1.318
1782117358.340817,0.829000,1803909,1000,12,0,1,421.635,-0.100,7.758,561.603,1.412,1.333
1782117358.341817,0.830000,1803910,1000,12,0,1,422.572,0.575,7.690,562.060,2.028,1.359
1782117358.342817,0.831000,1803911,1000,12,0,1,420.025,-1.571,7.579,562.348,1.566,1.376
1782117358.343817,0.832000,1803912,1000,12,0,1,417.551,-4.055,7.565,561.651,1.005,1.381
1782117358.344817,0.833000,1803913,1000,12,0,1,419.785,-2.037,7.496,560.739,-0.277,1.380
1782117358.345817,0.834000,1803914,1000,12,0,1,422.764,1.469,7.406,558.361,-2.023,1.407
1782117358.346817,0.835000,1803915,1000,12,0,1,424.758,2.880,7.402,560.234,-0.997,1.385
1782117358.347817,0.836000,1803916,1000,12,0,1,424.229,2.500,7.410,559.682,-0.115,1.312
1782117358.348817,0.837000,1803917,1000,12,0,1,420.025,-1.581,7.409,559.994,-0.785,1.303
1782117358.349817,0.838000,1803918,1000,12,0,1,417.744,-3.930,7.429,560.642,0.557,1.293
1782117358.350817,0.839000,1803919,1000,12,0,1,415.413,-4.928,7.441,561.483,0.823,1.297
1782117358.351817,0.840000,1803920,1000,12,0,1,413.996,-5.774,7.433,560.138,-0.011,1.296
1782117358.352817,0.841000,1803921,1000,12,0,1,417.359,-2.130,7.374,559.970,-0.808,1.300
1782117358.353817,0.842000,1803922,1000,12,0,1,427.592,6.836,7.417,558.889,-1.247,1.312
1782117358.354817,0.843000,1803923,1000,12,0,1,436.287,14.403,7.680,559.201,-1.381,1.286
1782117358.355817,0.844000,1803924,1000,12,0,1,431.675,9.171,7.785,561.003,0.456,1.286
1782117358.356817,0.845000,1803925,1000,12,0,1,419.065,-4.337,7.806,561.627,1.109,1.286
1782117358.357817,0.846000,1803926,1000,12,0,1,409.480,-13.348,8.029,562.660,1.384,1.265
1782117358.358817,0.847000,1803927,1000,12,0,1,395.837,-22.490,8.633,561.964,1.010,1.238
1782117358.359817,0.848000,1803928,1000,12,0,1,382.529,-31.558,9.714,559.970,-1.389,1.254
1782117358.360817,0.849000,1803929,1000,12,0,1,368.261,-37.622,11.075,560.162,-1.247,1.263
1782117358.361817,0.850000,1803930,1000,12,0,1,363.985,-36.239,12.199,558.937,-1.786,1.270
1782117358.362817,0.851000,1803931,1000,12,0,1,367.877,-24.472,12.673,561.123,-0.403,1.268
1782117358.363817,0.852000,1803932,1000,12,0,1,385.652,-4.612,12.687,559.946,-0.059,1.245
1782117358.364817,0.853000,1803933,1000,12,0,1,422.307,30.004,13.370,561.075,-0.329,1.226
1782117358.365817,0.854000,1803934,1000,12,0,1,442.245,48.938,15.030,561.267,1.124,1.229
1782117358.366817,0.855000,1803935,1000,12,0,1,430.643,32.947,15.712,561.988,0.795,1.219
1782117358.367817,0.856000,1803936,1000,12,0,1,419.905,15.811,15.861,561.795,1.240,1.230
1782117358.368817,0.857000,1803937,1000,12,0,1,421.515,13.868,15.969,560.594,-0.268,1.225
1782117358.369817,0.858000,1803938,1000,12,0,1,437.344,23.988,16.268,559.538,-1.143,1.235
1782117358.370817,0.859000,1803939,1000,12,0,1,442.365,27.610,16.641,561.315,0.256,1.231
1782117358.371817,0.860000,1803940,1000,12,0,1,435.735,16.000,16.674,560.186,-0.060,1.225
1782117358.372817,0.861000,1803941,1000,12,0,1,435.038,11.111,16.678,558.985,-1.674,1.222
1782117358.373817,0.862000,1803942,1000,12,0,1,430.571,6.188,16.697,559.033,-1.320,1.235
1782117358.374817,0.863000,1803943,1000,12,0,1,428.505,1.002,16.629,559.754,-0.553,1.237
1782117358.375817,0.864000,1803944,1000,12,0,1,429.658,2.207,16.602,560.739,0.335,1.238
1782117358.376817,0.865000,1803945,1000,12,0,1,429.610,0.998,16.595,558.841,-0.881,1.232
1782117358.377817,0.866000,1803946,1000,12,0,1,427.832,-0.803,16.595,558.457,-1.927,1.257
1782117358.378817,0.867000,1803947,1000,12,0,1,432.756,1.647,16.584,559.922,0.016,1.212
1782117358.379817,0.868000,1803948,1000,12,0,1,434.870,4.116,16.527,561.195,0.998,1.193
1782117358.380817,0.869000,1803949,1000,12,0,1,431.579,-0.815,16.459,561.459,1.365,1.209
1782117358.381817,0.870000,1803950,1000,12,0,1,430.595,-3.254,16.454,560.186,0.051,1.207
1782117358.382817,0.871000,1803951,1000,12,0,1,428.457,-5.408,16.471,559.778,-0.541,1.196
1782117358.383817,0.872000,1803952,1000,12,0,1,427.208,-7.850,16.506,558.673,-1.060,1.197
1782117358.384817,0.873000,1803953,1000,12,0,1,425.911,-8.610,16.531,560.258,-0.077,1.189
1782117358.385817,0.874000,1803954,1000,12,0,1,424.277,-10.512,16.274,560.594,1.156,1.163
1782117358.386817,0.875000,1803955,1000,12,0,1,424.998,-9.549,15.943,562.900,2.240,1.179
1782117358.387817,0.876000,1803956,1000,12,0,1,423.701,-9.796,15.903,562.060,2.409,1.227
1782117358.388817,0.877000,1803957,1000,12,0,1,421.082,-11.619,15.954,560.018,-0.473,1.162
1782117358.389817,0.878000,1803958,1000,12,0,1,421.202,-10.573,16.020,559.273,-0.858,1.127
1782117358.390817,0.879000,1803959,1000,12,0,1,422.500,-7.842,16.059,559.970,-0.328,1.110
1782117358.391817,0.880000,1803960,1000,12,0,1,427.400,-2.814,16.063,561.267,0.966,1.081
1782117358.392817,0.881000,1803961,1000,12,0,1,429.706,0.929,16.062,561.675,1.371,1.076
1782117358.393817,0.882000,1803962,1000,12,0,1,426.727,-1.427,16.053,561.339,0.682,1.071
1782117358.394817,0.883000,1803963,1000,12,0,1,424.181,-3.351,16.058,561.819,0.872,1.077
1782117358.395817,0.884000,1803964,1000,12,0,1,422.884,-3.317,16.063,562.756,1.369,1.056
1782117358.396817,0.885000,1803965,1000,12,0,1,422.379,-2.709,16.063,561.363,0.225,1.047
1782117358.397817,0.886000,1803966,1000,12,0,1,426.823,1.793,16.061,557.904,-3.156,1.139
1782117358.398817,0.887000,1803967,1000,12,0,1,428.313,4.566,16.072,561.267,-0.875,1.140
1782117358.399817,0.888000,1803968,1000,12,0,1,426.871,2.655,16.067,560.354,0.067,1.137
1782117358.400817,0.889000,1803969,1000,12,0,1,422.331,-0.947,16.052,560.907,-1.041,1.141
1782117358.401817,0.890000,1803970,1000,12,0,1,422.740,-1.665,16.033,562.948,1.770,1.168
1782117358.402817,0.891000,1803971,1000,12,0,1,422.355,-0.600,16.031,561.147,-0.021,1.162
1782117358.403817,0.892000,1803972,1000,12,0,1,421.443,-2.144,16.004,562.468,0.324,1.150
1782117358.404817,0.893000,1803973,1000,12,0,1,415.125,-6.392,15.900,562.036,0.912,1.140
1782117358.405817,0.894000,1803974,1000,12,0,1,413.180,-9.028,15.898,560.066,-1.608,1.161
1782117358.406817,0.895000,1803975,1000,12,0,1,413.636,-6.460,15.913,561.603,-0.109,1.150
1782117358.407817,0.896000,1803976,1000,12,0,1,417.960,-2.571,15.805,562.468,1.030,1.143
1782117358.408817,0.897000,1803977,1000,12,0,1,424.493,4.134,15.492,561.339,-0.027,1.134
1782117358.409817,0.898000,1803978,1000,12,0,1,425.911,5.633,14.857,563.837,1.502,1.137
1782117358.410817,0.899000,1803979,1000,12,0,1,420.722,0.424,13.872,563.141,1.743,1.150
1782117358.411817,0.900000,1803980,1000,12,0,1,416.398,-3.735,12.901,560.066,-1.851,1.152
1782117358.412817,0.901000,1803981,1000,12,0,1,413.516,-5.315,12.451,561.771,-0.640,1.154
1782117358.413817,0.902000,1803982,1000,12,0,1,402.947,-11.820,12.546,564.101,1.928,1.186
1782117358.414817,0.903000,1803983,1000,12,0,1,386.348,-24.001,12.284,561.507,-0.324,1.186
1782117358.415817,0.904000,1803984,1000,12,0,1,373.257,-30.876,11.049,561.075,-1.596,1.197
1782117358.416817,0.905000,1803985,1000,12,0,1,381.184,-19.769,10.401,561.315,-0.748,1.196
1782117358.417817,0.906000,1803986,1000,12,0,1,400.545,4.007,10.174,561.459,-0.888,1.190
1782117358.418817,0.907000,1803987,1000,12,0,1,411.690,16.720,10.259,562.300,-0.020,1.189
1782117358.419817,0.908000,1803988,1000,12,0,1,431.099,30.659,10.608,562.204,-0.005,1.178
1782117358.420817,0.909000,1803989,1000,12,0,1,439.891,38.285,11.252,562.276,-0.235,1.178
1782117358.421817,0.910000,1803990,1000,12,0,1,432.804,25.513,11.598,562.132,-0.155,1.178
1782117358.422817,0.911000,1803991,1000,12,0,1,430.498,17.793,11.763,560.835,-1.335,1.169
1782117358.423817,0.912000,1803992,1000,12,0,1,428.385,13.140,11.877,561.603,-0.793,1.160
1782117358.424817,0.913000,1803993,1000,12,0,1,426.655,7.748,11.926,562.756,0.636,1.161
1782117358.425817,0.914000,1803994,1000,12,0,1,428.072,6.963,11.963,562.180,0.195,1.160
1782117358.426817,0.915000,1803995,1000,12,0,1,429.129,5.898,11.991,561.339,-0.663,1.157
1782117358.427817,0.916000,1803996,1000,12,0,1,430.210,5.042,12.012,558.817,-2.402,1.175
1782117358.428817,0.917000,1803997,1000,12,0,1,427.904,1.954,12.013,560.402,-1.503,1.194
1782117358.429817,0.918000,1803998,1000,12,0,1,423.100,-3.424,12.008,561.579,0.799,1.191
1782117358.430817,0.919000,1803999,1000,12,0,1,424.758,-2.955,12.015,559.778,-0.973,1.183
1782117358.431817,0.920000,1804000,1000,12,0,1,429.970,2.253,12.010,561.459,0.173,1.183
1782117358.432817,0.921000,1804001,1000,12,0,1,435.062,6.070,12.017,562.612,1.883,1.211
1782117358.433817,0.922000,1804002,1000,12,0,1,432.925,4.133,11.980,562.997,1.560,1.221
1782117358.434817,0.923000,1804003,1000,12,0,1,429.418,-0.992,11.918,562.276,1.078,1.231
1782117358.435817,0.924000,1804004,1000,12,0,1,431.988,0.476,11.825,563.261,1.078,1.229
1782117358.436817,0.925000,1804005,1000,12,0,1,429.970,-0.671,11.748,563.405,1.567,1.208
1782117358.437817,0.926000,1804006,1000,12,0,1,431.147,-1.820,11.669,561.844,-0.350,1.160
1782117358.438817,0.927000,1804007,1000,12,0,1,432.324,0.021,11.553,562.516,-0.136,1.159
1782117358.439817,0.928000,1804008,1000,12,0,1,429.321,-3.786,11.468,561.147,-0.739,1.157
1782117358.440817,0.929000,1804009,1000,12,0,1,428.673,-5.144,11.438,563.021,-0.104,1.156
1782117358.441817,0.930000,1804010,1000,12,0,1,428.817,-4.920,11.452,564.438,2.128,1.187
1782117358.442817,0.931000,1804011,1000,12,0,1,419.113,-12.392,11.585,563.549,0.635,1.174
1782117358.443817,0.932000,1804012,1000,12,0,1,406.934,-22.945,12.029,562.204,-0.510,1.172
1782117358.444817,0.933000,1804013,1000,12,0,1,396.749,-28.715,12.687,562.948,-0.255,1.167
1782117358.445817,0.934000,1804014,1000,12,0,1,391.969,-29.192,13.333,563.045,0.317,1.151
1782117358.446817,0.935000,1804015,1000,12,0,1,400.833,-17.505,13.556,562.252,-0.575,1.154
1782117358.447817,0.936000,1804016,1000,12,0,1,420.578,3.679,13.564,561.507,-1.128,1.076
1782117358.448817,0.937000,1804017,1000,12,0,1,448.058,27.757,14.105,563.309,0.301,1.069
1782117358.449817,0.938000,1804018,1000,12,0,1,454.495,33.835,14.890,562.660,0.385,1.071
1782117358.450817,0.939000,1804019,1000,12,0,1,445.103,18.779,15.125,559.778,-2.425,1.115
1782117358.451817,0.940000,1804020,1000,12,0,1,436.408,7.627,15.161,561.868,-0.999,1.095
1782117358.452817,0.941000,1804021,1000,12,0,1,432.156,1.460,15.162,564.222,1.988,1.131
1782117358.453817,0.942000,1804022,1000,12,0,1,429.321,-1.190,15.160,562.300,0.079,1.130
1782117358.454817,0.943000,1804023,1000,12,0,1,426.799,-3.309,15.140,563.309,0.176,1.123
1782117358.455817,0.944000,1804024,1000,12,0,1,422.572,-6.096,15.111,564.606,1.738,1.127
1782117358.456817,0.945000,1804025,1000,12,0,1,412.795,-12.743,15.191,563.573,0.435,1.128
1782117358.457817,0.946000,1804026,1000,12,0,1,407.030,-16.797,15.371,562.828,-0.579,1.122
1782117358.458817,0.947000,1804027,1000,12,0,1,417.671,-5.387,15.379,562.564,-0.790,1.127
1782117358.459817,0.948000,1804028,1000,12,0,1,427.880,6.898,15.389,563.117,-0.427,1.109
1782117358.460817,0.949000,1804029,1000,12,0,1,431.387,9.335,15.446,561.435,-1.375,1.098
1782117358.461817,0.950000,1804030,1000,12,0,1,429.946,7.095,15.469,561.195,-2.067,1.106
1782117358.462817,0.951000,1804031,1000,12,0,1,430.715,5.366,15.469,563.189,0.249,1.103
1782117358.463817,0.952000,1804032,1000,12,0,1,442.076,12.913,15.487,561.507,-0.655,1.073
1782117358.464817,0.953000,1804033,1000,12,0,1,455.240,22.599,15.445,562.997,-0.195,1.072
1782117358.465817,0.954000,1804034,1000,12,0,1,453.366,17.901,15.029,563.525,1.404,1.067
1782117358.466817,0.955000,1804035,1000,12,0,1,444.935,5.256,14.786,563.189,0.340,1.063
1782117358.467817,0.956000,1804036,1000,12,0,1,440.299,-1.734,14.777,562.612,0.234,1.056
1782117358.468817,0.957000,1804037,1000,12,0,1,439.242,-3.904,14.597,562.804,0.007,1.056
1782117358.469817,0.958000,1804038,1000,12,0,1,439.891,-3.792,13.948,562.156,-0.167,1.056
1782117358.470817,0.959000,1804039,1000,12,0,1,442.605,-1.625,12.857,562.997,0.135,1.056
1782117358.471817,0.960000,1804040,1000,12,0,1,448.250,2.879,12.347,562.756,0.401,1.057
1782117358.472817,0.961000,1804041,1000,12,0,1,446.160,1.806,12.090,564.990,1.561,1.063
1782117358.473817,0.962000,1804042,1000,12,0,1,443.301,-2.615,11.952,564.990,2.148,1.100
1782117358.474817,0.963000,1804043,1000,12,0,1,441.596,-3.284,11.911,560.835,-1.985,1.132
1782117358.475817,0.964000,1804044,1000,12,0,1,439.698,-4.994,11.891,559.898,-3.363,1.227
1782117358.476817,0.965000,1804045,1000,12,0,1,435.951,-7.151,11.905,561.219,-1.361,1.239
1782117358.477817,0.966000,1804046,1000,12,0,1,434.198,-8.380,11.943,562.828,0.047,1.191
1782117358.478817,0.967000,1804047,1000,12,0,1,432.636,-8.150,11.995,562.516,0.329,1.173
1782117358.479817,0.968000,1804048,1000,12,0,1,434.270,-6.361,12.019,561.483,-0.985,1.176
1782117358.480817,0.969000,1804049,1000,12,0,1,433.213,-5.618,12.038,562.780,0.192,1.168
1782117358.481817,0.970000,1804050,1000,12,0,1,436.215,-3.887,12.046,562.948,0.725,1.172
1782117358.482817,0.971000,1804051,1000,12,0,1,436.912,-1.857,12.018,561.627,-0.594,1.145
1782117358.483817,0.972000,1804052,1000,12,0,1,431.651,-6.961,12.045,563.237,0.519,1.126
1782117358.484817,0.973000,1804053,1000,12,0,1,427.640,-10.661,12.138,564.149,1.843,1.145
1782117358.485817,0.974000,1804054,1000,12,0,1,436.720,-3.054,12.145,562.156,-0.103,1.135
1782117358.486817,0.975000,1804055,1000,12,0,1,448.922,8.872,12.209,563.357,0.337,1.114
1782117358.487817,0.976000,1804056,1000,12,0,1,449.042,8.644,12.268,562.492,0.475,1.115
1782117358.488817,0.977000,1804057,1000,12,0,1,447.313,4.012,12.281,561.315,-1.296,1.130
1782117358.489817,0.978000,1804058,1000,12,0,1,446.640,3.069,12.277,561.027,-0.993,1.134
1782117358.490817,0.979000,1804059,1000,12,0,1,448.010,2.770,12.262,561.819,-0.422,1.136
1782117358.491817,0.980000,1804060,1000,12,0,1,445.968,1.781,12.244,563.405,1.226,1.109
1782117358.492817,0.981000,1804061,1000,12,0,1,445.511,0.104,12.118,562.660,0.754,1.110
1782117358.493817,0.982000,1804062,1000,12,0,1,445.776,1.464,11.678,562.828,0.239,1.108
1782117358.494817,0.983000,1804063,1000,12,0,1,447.793,2.791,10.956,562.804,0.599,1.111
1782117358.495817,0.984000,1804064,1000,12,0,1,448.610,4.234,10.166,562.180,-0.362,1.111
1782117358.496817,0.985000,1804065,1000,12,0,1,447.097,2.506,9.866,561.267,-0.958,1.116
1782117358.497817,0.986000,1804066,1000,12,0,1,446.016,1.117,9.854,561.603,-0.897,1.112
1782117358.498817,0.987000,1804067,1000,12,0,1,444.406,-0.190,9.038,563.717,1.108,1.122
1782117358.499817,0.988000,1804068,1000,12,0,1,442.437,-2.393,7.675,563.069,0.878,1.128
1782117358.500817,0.989000,1804069,1000,12,0,1,442.653,-2.351,7.209,563.309,0.295,1.075
1782117358.501817,0.990000,1804070,1000,12,0,1,443.998,-1.427,7.131,563.693,1.022,1.076
1782117358.502817,0.991000,1804071,1000,12,0,1,448.610,1.725,7.132,563.669,0.559,1.041
1782117358.503817,0.992000,1804072,1000,12,0,1,451.420,3.674,7.149,561.819,-0.747,1.047
1782117358.504817,0.993000,1804073,1000,12,0,1,451.204,1.736,7.138,561.603,-1.439,1.066
1782117358.505817,0.994000,1804074,1000,12,0,1,451.973,0.645,7.086,562.564,-0.045,1.037
1782117358.506817,0.995000,1804075,1000,12,0,1,450.099,-1.644,6.857,560.114,-1.718,1.064
1782117358.507817,0.996000,1804076,1000,12,0,1,443.446,-8.161,6.535,563.717,0.401,1.062
1782117358.508817,0.997000,1804077,1000,12,0,1,435.351,-14.844,6.822,564.462,2.783,1.127
1782117358.509817,0.998000,1804078,1000,12,0,1,428.625,-18.979,7.265,562.468,-0.277,1.126
1782117358.510817,0.999000,1804079,1000,12,0,1,423.749,-20.059,7.687,560.667,-1.391,1.126
1782117358.511817,1.000000,1804080,1000,12,0,1,423.268,-16.998,7.991,562.348,-0.520,1.090
1782117358.512817,1.001000,1804081,1000,12,0,1,439.843,-0.385,7.955,560.642,-0.762,1.095
1782117358.513817,1.002000,1804082,1000,12,0,1,457.546,18.865,8.190,562.396,-0.496,1.093
1782117358.514817,1.003000,1804083,1000,12,0,1,461.053,21.154,8.112,562.468,0.947,1.101
1782117358.515817,1.004000,1804084,1000,12,0,1,453.847,12.542,7.909,561.027,-1.134,1.095
1782117358.516817,1.005000,1804085,1000,12,0,1,446.112,3.329,7.888,563.141,0.602,1.097
1782117358.517817,1.006000,1804086,1000,12,0,1,447.841,3.301,7.898,563.573,1.587,1.120
1782117358.518817,1.007000,1804087,1000,12,0,1,454.495,9.220,7.985,562.684,0.040,1.120
1782117358.519817,1.008000,1804088,1000,12,0,1,459.948,12.537,8.162,562.348,-0.039,1.119
1782117358.520817,1.009000,1804089,1000,12,0,1,456.465,8.370,8.245,562.228,-0.448,1.121
1782117358.521817,1.010000,1804090,1000,12,0,1,454.807,3.155,8.247,562.036,-0.303,1.120
1782117358.522817,1.011000,1804091,1000,12,0,1,456.417,3.725,8.259,563.189,0.383,1.100
1782117358.523817,1.012000,1804092,1000,12,0,1,452.045,-1.167,8.253,562.492,0.378,1.058
1782117358.524817,1.013000,1804093,1000,12,0,1,450.700,-4.490,8.264,563.069,0.156,1.021
1782117358.525817,1.014000,1804094,1000,12,0,1,444.406,-8.583,8.323,563.045,0.776,0.910
1782117358.526817,1.015000,1804095,1000,12,0,1,435.711,-16.872,8.599,560.979,-1.251,0.906
1782117358.527817,1.016000,1804096,1000,12,0,1,425.406,-22.897,9.112,563.141,0.202,0.907
1782117358.528817,1.017000,1804097,1000,12,0,1,443.013,-8.771,9.123,562.516,0.808,0.913
1782117358.529817,1.018000,1804098,1000,12,0,1,459.828,12.590,9.252,562.997,0.036,0.902
1782117358.530817,1.019000,1804099,1000,12,0,1,456.897,8.262,9.291,562.348,0.470,0.904
1782117358.531817,1.020000,1804100,1000,12,0,1,454.591,3.902,9.291,562.372,-0.440,0.900
1782117358.532817,1.021000,1804101,1000,12,0,1,444.503,-3.605,9.302,561.988,-0.096,0.897
1782117358.533817,1.022000,1804102,1000,12,0,1,431.099,-16.362,9.534,563.333,0.401,0.895
1782117358.534817,1.023000,1804103,1000,12,0,1,421.299,-21.532,9.895,561.940,-0.044,0.857
1782117358.535817,1.024000,1804104,1000,12,0,1,406.910,-29.609,10.736,563.093,-0.137,0.857
1782117358.536817,1.025000,1804105,1000,12,0,1,397.566,-33.034,11.641,563.357,0.943,0.866
1782117358.537817,1.026000,1804106,1000,12,0,1,406.814,-19.655,11.905,560.546,-1.851,0.902
1782117358.538817,1.027000,1804107,1000,12,0,1,436.960,11.122,11.995,560.354,-2.362,0.944
1782117358.539817,1.028000,1804108,1000,12,0,1,447.217,25.161,12.504,561.868,-0.327,0.935
1782117358.540817,1.029000,1804109,1000,12,0,1,449.403,21.392,12.859,563.285,0.798,0.940
1782117358.541817,1.030000,1804110,1000,12,0,1,451.949,22.080,13.231,563.741,1.485,0.947
1782117358.542817,1.031000,1804111,1000,12,0,1,442.941,11.275,13.326,563.621,0.907,0.950
1782117358.543817,1.032000,1804112,1000,12,0,1,439.122,3.672,13.335,563.285,0.666,0.954
1782117358.544817,1.033000,1804113,1000,12,0,1,455.984,16.176,13.524,561.243,-1.147,0.964
1782117358.545817,1.034000,1804114,1000,12,0,1,469.772,27.685,14.066,560.763,-1.752,0.994
1782117358.546817,1.035000,1804115,1000,12,0,1,468.427,22.373,14.414,563.453,0.808,0.991
1782117358.547817,1.036000,1804116,1000,12,0,1,463.863,13.052,14.530,565.182,2.696,1.054
1782117358.548817,1.037000,1804117,1000,12,0,1,461.701,8.145,14.576,562.372,0.222,1.043
1782117358.549817,1.038000,1804118,1000,12,0,1,460.813,4.946,14.589,563.285,-0.067,1.036
1782117358.550817,1.039000,1804119,1000,12,0,1,459.299,2.580,14.590,563.717,1.250,1.050
1782117358.551817,1.040000,1804120,1000,12,0,1,457.498,-0.192,14.588,562.012,-0.813,1.046
1782117358.552817,1.041000,1804121,1000,12,0,1,456.753,-1.139,14.587,561.819,-1.015,1.053
1782117358.553817,1.042000,1804122,1000,12,0,1,456.849,-1.286,14.579,562.228,-0.445,1.050
1782117358.554817,1.043000,1804123,1000,12,0,1,452.742,-4.231,14.589,562.324,-0.343,1.031
1782117358.555817,1.044000,1804124,1000,12,0,1,447.769,-8.889,14.643,561.892,-0.573,1.034
1782117358.556817,1.045000,1804125,1000,12,0,1,442.869,-11.896,14.737,561.147,-1.275,1.021
1782117358.557817,1.046000,1804126,1000,12,0,1,434.558,-17.459,14.898,563.093,0.275,1.020
1782117358.558817,1.047000,1804127,1000,12,0,1,428.625,-21.098,15.048,563.405,1.080,0.954
1782117358.559817,1.048000,1804128,1000,12,0,1,424.541,-21.288,15.110,563.381,0.449,0.955
1782117358.560817,1.049000,1804129,1000,12,0,1,424.998,-18.577,15.072,564.630,1.483,0.958
1782117358.561817,1.050000,1804130,1000,12,0,1,426.751,-13.505,15.001,563.453,0.567,0.958
1782117358.562817,1.051000,1804131,1000,12,0,1,431.507,-7.990,15.044,562.156,-1.128,0.966
1782117358.563817,1.052000,1804132,1000,12,0,1,434.678,-2.991,14.811,562.852,-0.384,0.965
1782117358.564817,1.053000,1804133,1000,12,0,1,449.619,8.196,14.552,562.924,-0.075,0.955
1782117358.565817,1.054000,1804134,1000,12,0,1,450.460,11.944,14.542,562.324,-0.592,0.945
1782117358.566817,1.055000,1804135,1000,12,0,1,454.255,9.271,14.593,562.300,-0.575,0.945
1782117358.567817,1.056000,1804136,1000,12,0,1,464.992,18.775,14.826,563.357,0.430,0.920
1782117358.568817,1.057000,1804137,1000,12,0,1,465.953,17.399,14.972,563.357,0.681,0.925
1782117358.569817,1.058000,1804138,1000,12,0,1,466.025,13.524,14.989,562.732,-0.067,0.925
1782117358.570817,1.059000,1804139,1000,12,0,1,465.713,12.081,15.039,563.933,0.789,0.930
1782117358.571817,1.060000,1804140,1000,12,0,1,463.311,7.536,15.071,564.101,1.211,0.944
1782117358.572817,1.061000,1804141,1000,12,0,1,464.872,7.843,15.102,563.357,0.142,0.943
1782117358.573817,1.062000,1804142,1000,12,0,1,465.425,7.728,15.141,563.885,0.414,0.943
1782117358.574817,1.063000,1804143,1000,12,0,1,460.620,3.182,15.134,562.756,-0.342,0.944
1782117358.575817,1.064000,1804144,1000,12,0,1,455.096,-2.661,15.090,560.522,-2.519,1.003
1782117358.576817,1.065000,1804145,1000,12,0,1,450.556,-5.981,14.924,563.357,-0.388,0.989
1782117358.577817,1.066000,1804146,1000,12,0,1,450.868,-5.762,14.591,561.699,-0.416,0.990
1782117358.578817,1.067000,1804147,1000,12,0,1,454.447,-1.610,14.540,564.222,0.056,0.984
1782117358.579817,1.068000,1804148,1000,12,0,1,455.504,-0.657,14.431,562.156,0.308,0.985
1782117358.580817,1.069000,1804149,1000,12,0,1,451.541,-4.562,14.398,563.189,-0.960,0.992
1782117358.581817,1.070000,1804150,1000,12,0,1,453.342,-4.901,14.405,564.630,1.883,1.025
1782117358.582817,1.071000,1804151,1000,12,0,1,456.897,-1.532,14.397,563.141,-0.152,1.025
1782117358.583817,1.072000,1804152,1000,12,0,1,456.105,-3.354,14.218,565.038,1.020,1.034
1782117358.584817,1.073000,1804153,1000,12,0,1,449.283,-9.852,13.958,565.687,2.251,1.082
1782117358.585817,1.074000,1804154,1000,12,0,1,445.439,-14.207,13.465,565.014,0.706,1.086
1782117358.586817,1.075000,1804155,1000,12,0,1,444.214,-13.690,12.777,563.813,0.012,1.078
1782117358.587817,1.076000,1804156,1000,12,0,1,439.770,-15.549,12.663,564.053,-0.515,1.048
1782117358.588817,1.077000,1804157,1000,12,0,1,437.945,-15.540,12.756,563.573,-0.180,0.994
1782117358.589817,1.078000,1804158,1000,12,0,1,447.577,-4.942,12.269,564.174,-0.318,0.994
1782117358.590817,1.079000,1804159,1000,12,0,1,454.976,4.948,11.911,563.285,-0.301,0.988
1782117358.591817,1.080000,1804160,1000,12,0,1,455.648,6.034,11.526,564.246,-0.265,0.966
1782117358.592817,1.081000,1804161,1000,12,0,1,452.982,4.211,11.431,562.997,-0.373,0.959
1782117358.593817,1.082000,1804162,1000,12,0,1,449.979,1.985,11.422,562.540,-1.589,0.981
1782117358.594817,1.083000,1804163,1000,12,0,1,441.500,-3.592,11.202,564.222,0.334,0.968
1782117358.595817,1.084000,1804164,1000,12,0,1,436.191,-7.656,10.552,562.588,-0.669,0.941
1782117358.596817,1.085000,1804165,1000,12,0,1,434.318,-6.274,10.105,561.940,-1.922,0.973
1782117358.597817,1.086000,1804166,1000,12,0,1,425.358,-10.844,10.053,561.051,-1.798,0.930
1782117358.598817,1.087000,1804167,1000,12,0,1,420.986,-13.546,10.169,562.132,-1.392,0.950
1782117358.599817,1.088000,1804168,1000,12,0,1,433.957,-0.049,10.145,564.149,1.163,0.964
1782117358.600817,1.089000,1804169,1000,12,0,1,450.099,16.162,10.392,563.741,0.677,0.953
1782117358.601817,1.090000,1804170,1000,12,0,1,448.946,15.071,10.609,563.957,0.498,0.949
1782117358.602817,1.091000,1804171,1000,12,0,1,445.872,7.661,10.663,563.381,0.225,0.938
1782117358.603817,1.092000,1804172,1000,12,0,1,450.123,9.479,10.745,562.348,-0.962,0.946
1782117358.604817,1.093000,1804173,1000,12,0,1,452.742,9.853,10.819,562.300,-0.829,0.952
1782117358.605817,1.094000,1804174,1000,12,0,1,454.783,8.776,10.817,561.411,-1.256,0.965
1782117358.606817,1.095000,1804175,1000,12,0,1,455.048,7.220,10.734,563.597,0.359,0.949
1782117358.607817,1.096000,1804176,1000,12,0,1,454.087,4.122,10.462,564.149,1.734,0.980
1782117358.608817,1.097000,1804177,1000,12,0,1,452.165,1.584,10.030,564.198,1.062,0.979
1782117358.609817,1.098000,1804178,1000,12,0,1,450.243,-0.801,9.568,564.678,1.662,1.005
1782117358.610817,1.099000,1804179,1000,12,0,1,449.475,-1.096,9.202,563.237,0.320,0.984
1782117358.611817,1.100000,1804180,1000,12,0,1,449.187,-0.574,9.002,562.636,-0.596,0.984
1782117358.612817,1.101000,1804181,1000,12,0,1,443.253,-3.935,8.948,564.029,0.763,0.977
1782117358.613817,1.102000,1804182,1000,12,0,1,439.122,-7.005,8.993,561.603,-0.841,0.983
1782117358.614817,1.103000,1804183,1000,12,0,1,435.207,-7.352,8.978,562.852,-0.748,0.989
1782117358.615817,1.104000,1804184,1000,12,0,1,432.564,-7.943,8.889,562.636,0.336,0.986
1782117358.616817,1.105000,1804185,1000,12,0,1,433.261,-4.876,8.819,562.372,-0.778,0.989
1782117358.617817,1.106000,1804186,1000,12,0,1,432.828,-3.068,8.421,562.516,-0.091,0.987
1782117358.618817,1.107000,1804187,1000,12,0,1,439.002,2.154,8.059,562.684,-0.199,0.983
1782117358.619817,1.108000,1804188,1000,12,0,1,453.222,14.712,8.101,562.060,-0.532,0.986
1782117358.620817,1.109000,1804189,1000,12,0,1,453.222,14.548,8.181,562.060,-0.683,0.984
1782117358.621817,1.110000,1804190,1000,12,0,1,449.427,6.205,8.159,563.669,0.680,0.974
1782117358.622817,1.111000,1804191,1000,12,0,1,449.523,4.239,8.105,564.053,1.339,0.992
1782117358.623817,1.112000,1804192,1000,12,0,1,447.505,0.476,8.032,563.861,0.631,0.994
1782117358.624817,1.113000,1804193,1000,12,0,1,446.424,-2.530,8.027,562.852,-0.029,0.993
1782117358.625817,1.114000,1804194,1000,12,0,1,444.671,-4.430,8.043,561.075,-1.798,0.961
1782117358.626817,1.115000,1804195,1000,12,0,1,436.287,-11.553,8.163,561.435,-1.379,0.979
1782117358.627817,1.116000,1804196,1000,12,0,1,429.562,-17.035,8.472,562.660,0.123,0.978
1782117358.628817,1.117000,1804197,1000,12,0,1,424.998,-17.919,8.840,563.141,0.731,0.983
1782117358.629817,1.118000,1804198,1000,12,0,1,418.464,-19.775,9.271,562.828,0.488,0.985
1782117358.630817,1.119000,1804199,1000,12,0,1,410.729,-22.047,9.760,561.603,-0.512,0.978
1782117358.631817,1.120000,1804200,1000,12,0,1,416.951,-13.092,9.910,561.819,-0.483,0.943
1782117358.632817,1.121000,1804201,1000,12,0,1,443.638,13.942,10.102,563.165,0.970,0.953
1782117358.633817,1.122000,1804202,1000,12,0,1,462.110,33.534,11.150,562.876,0.865,0.950
1782117358.634817,1.123000,1804203,1000,12,0,1,451.997,23.044,11.532,562.396,0.127,0.895
1782117358.635817,1.124000,1804204,1000,12,0,1,439.722,7.140,11.401,562.060,-0.081,0.890
1782117358.636817,1.125000,1804205,1000,12,0,1,437.008,3.925,11.249,563.573,0.885,0.898
1782117358.637817,1.126000,1804206,1000,12,0,1,439.074,5.111,11.056,563.237,1.036,0.907
1782117358.638817,1.127000,1804207,1000,12,0,1,441.332,6.768,10.877,561.771,-0.806,0.914
1782117358.639817,1.128000,1804208,1000,12,0,1,446.016,9.038,10.930,563.333,0.317,0.914
1782117358.640817,1.129000,1804209,1000,12,0,1,441.980,5.202,10.932,563.381,0.851,0.921
1782117358.641817,1.130000,1804210,1000,12,0,1,436.239,-2.945,10.907,564.318,0.852,0.928
1782117358.642817,1.131000,1804211,1000,12,0,1,436.504,-3.508,10.902,563.261,0.520,0.930
1782117358.643817,1.132000,1804212,1000,12,0,1,437.440,-2.757,10.905,562.636,-0.895,0.911
1782117358.644817,1.133000,1804213,1000,12,0,1,438.161,-2.793,10.900,563.141,-0.030,0.910
1782117358.645817,1.134000,1804214,1000,12,0,1,443.878,1.487,10.848,562.660,-0.444,0.907
1782117358.646817,1.135000,1804215,1000,12,0,1,448.298,5.319,10.838,562.228,-0.832,0.873
1782117358.647817,1.136000,1804216,1000,12,0,1,449.571,5.196,10.754,562.204,-0.633,0.840
1782117358.648817,1.137000,1804217,1000,12,0,1,450.556,4.799,10.604,562.612,-0.232,0.817
1782117358.649817,1.138000,1804218,1000,12,0,1,448.490,2.664,10.611,564.029,1.112,0.816
1782117358.650817,1.139000,1804219,1000,12,0,1,444.094,-1.826,10.365,561.531,-0.573,0.814
1782117358.651817,1.140000,1804220,1000,12,0,1,439.170,-5.450,10.173,562.900,-0.431,0.814
1782117358.652817,1.141000,1804221,1000,12,0,1,437.777,-6.009,10.150,562.588,0.620,0.818
1782117358.653817,1.142000,1804222,1000,12,0,1,436.840,-4.579,10.082,562.348,-0.567,0.810
1782117358.654817,1.143000,1804223,1000,12,0,1,437.296,-3.222,9.996,565.062,2.042,0.852
1782117358.655817,1.144000,1804224,1000,12,0,1,439.146,-0.095,9.919,565.903,2.828,0.924
1782117358.656817,1.145000,1804225,1000,12,0,1,441.212,2.205,9.871,562.084,-0.793,0.930
1782117358.657817,1.146000,1804226,1000,12,0,1,438.930,0.830,9.854,562.540,-1.403,0.919
1782117358.658817,1.147000,1804227,1000,12,0,1,437.849,-1.148,9.853,562.636,-0.341,0.908
1782117358.659817,1.148000,1804228,1000,12,0,1,439.674,0.443,9.853,562.660,-0.868,0.885
1782117358.660817,1.149000,1804229,1000,12,0,1,441.812,1.750,9.854,563.741,0.326,0.885
1782117358.661817,1.150000,1804230,1000,12,0,1,441.356,0.658,9.855,564.198,0.738,0.887
1782117358.662817,1.151000,1804231,1000,12,0,1,436.600,-4.206,9.857,564.510,0.704,0.886
1782117358.663817,1.152000,1804232,1000,12,0,1,430.859,-9.899,9.906,563.789,0.219,0.879
1782117358.664817,1.153000,1804233,1000,12,0,1,432.756,-8.372,9.923,562.708,-1.083,0.886
1782117358.665817,1.154000,1804234,1000,12,0,1,440.323,-0.708,9.859,564.029,0.065,0.885
1782117358.666817,1.155000,1804235,1000,12,0,1,445.800,4.623,9.857,563.021,-0.269,0.879
1782117358.667817,1.156000,1804236,1000,12,0,1,440.323,0.215,9.847,560.402,-2.730,0.960
1782117358.668817,1.157000,1804237,1000,12,0,1,442.413,-0.373,9.843,562.468,-1.087,0.971
1782117358.669817,1.158000,1804238,1000,12,0,1,442.653,2.484,9.627,563.741,1.103,0.981
1782117358.670817,1.159000,1804239,1000,12,0,1,451.973,7.901,9.470,560.138,-2.003,1.016
1782117358.671817,1.160000,1804240,1000,12,0,1,449.931,9.677,9.528,560.955,-1.900,1.047
1782117358.672817,1.161000,1804241,1000,12,0,1,443.686,0.687,9.510,562.396,0.534,1.032
1782117358.673817,1.162000,1804242,1000,12,0,1,440.611,-0.660,9.510,561.363,-0.499,1.031
1782117358.674817,1.163000,1804243,1000,12,0,1,442.389,0.627,9.504,561.531,-0.423,1.033
1782117358.675817,1.164000,1804244,1000,12,0,1,441.188,1.210,9.485,563.885,1.634,1.027
1782117358.676817,1.165000,1804245,1000,12,0,1,441.692,1.026,9.344,562.396,0.823,1.015
1782117358.677817,1.166000,1804246,1000,12,0,1,441.812,1.688,9.031,561.675,-0.742,1.021
1782117358.678817,1.167000,1804247,1000,12,0,1,443.301,2.311,8.675,561.940,-0.044,1.015
1782117358.679817,1.168000,1804248,1000,12,0,1,443.301,1.924,8.216,561.940,-0.197,1.013
1782117358.680817,1.169000,1804249,1000,12,0,1,438.233,-2.839,7.612,561.483,-0.436,1.013
1782117358.681817,1.170000,1804250,1000,12,0,1,436.239,-6.309,7.437,561.579,-0.402,1.012
1782117358.682817,1.171000,1804251,1000,12,0,1,427.544,-11.677,7.359,559.994,-1.351,1.021
1782117358.683817,1.172000,1804252,1000,12,0,1,420.098,-19.258,6.251,559.465,-1.948,1.050
1782117358.684817,1.173000,1804253,1000,12,0,1,418.945,-17.131,5.859,560.186,-0.762,1.055
1782117358.685817,1.174000,1804254,1000,12,0,1,418.032,-15.405,6.169,561.940,0.945,1.064
1782117358.686817,1.175000,1804255,1000,12,0,1,412.819,-16.481,6.571,563.117,2.212,1.102
1782117358.687817,1.176000,1804256,1000,12,0,1,409.024,-17.333,6.976,563.357,2.236,1.137
1782117358.688817,1.177000,1804257,1000,12,0,1,422.211,-3.856,6.932,560.667,-0.051,1.131
1782117358.689817,1.178000,1804258,1000,12,0,1,443.205,17.858,7.266,562.828,0.825,1.136
1782117358.690817,1.179000,1804259,1000,12,0,1,444.959,20.634,7.795,562.540,1.817,1.159
1782117358.691817,1.180000,1804260,1000,12,0,1,438.834,11.734,7.959,560.474,-0.949,1.160
1782117358.692817,1.181000,1804261,1000,12,0,1,438.834,10.307,8.076,560.474,-0.747,1.163
1782117358.693817,1.182000,1804262,1000,12,0,1,434.534,6.974,8.127,561.411,0.209,1.156
1782117358.694817,1.183000,1804263,1000,12,0,1,426.607,-0.738,8.118,561.699,0.552,1.159
1782117358.695817,1.184000,1804264,1000,12,0,1,420.506,-5.109,8.147,560.979,-0.018,1.157
1782117358.696817,1.185000,1804265,1000,12,0,1,417.215,-6.552,8.165,562.564,0.811,1.157
1782117358.697817,1.186000,1804266,1000,12,0,1,413.348,-7.364,8.199,561.795,0.872,1.160
1782117358.698817,1.187000,1804267,1000,12,0,1,424.157,1.815,8.174,561.099,-0.691,1.163
1782117358.699817,1.188000,1804268,1000,12,0,1,441.668,19.298,8.610,561.964,0.433,1.154
1782117358.700817,1.189000,1804269,1000,12,0,1,447.457,22.997,9.200,562.252,0.538,1.154
1782117358.701817,1.190000,1804270,1000,12,0,1,443.638,15.779,9.435,561.363,-0.191,1.153
1782117358.702817,1.191000,1804271,1000,12,0,1,439.362,8.224,9.469,560.546,-1.059,1.159
1782117358.703817,1.192000,1804272,1000,12,0,1,432.997,0.572,9.447,561.147,-0.507,1.159
1782117358.704817,1.193000,1804273,1000,12,0,1,425.118,-7.749,9.499,561.771,0.351,1.123
1782117358.705817,1.194000,1804274,1000,12,0,1,422.043,-10.966,9.625,561.868,0.364,1.051
1782117358.706817,1.195000,1804275,1000,12,0,1,417.311,-12.959,9.793,561.315,0.010,1.045
1782117358.707817,1.196000,1804276,1000,12,0,1,405.757,-21.087,10.236,561.940,0.279,1.027
1782117358.708817,1.197000,1804277,1000,12,0,1,393.891,-28.363,10.993,561.675,0.465,1.027
1782117358.709817,1.198000,1804278,1000,12,0,1,409.769,-13.035,11.146,560.859,-0.530,1.023
1782117358.710817,1.199000,1804279,1000,12,0,1,438.834,18.086,11.433,560.667,-0.545,1.025
1782117358.711817,1.200000,1804280,1000,12,0,1,444.454,24.527,11.947,561.771,0.368,1.021
1782117358.712817,1.201000,1804281,1000,12,0,1,437.921,14.510,12.108,560.018,-0.592,1.019
1782117358.713817,1.202000,1804282,1000,12,0,1,437.488,11.558,12.137,559.682,-1.521,1.041
1782117358.714817,1.203000,1804283,1000,12,0,1,439.026,11.586,12.190,560.186,-0.395,1.032
1782117358.715817,1.204000,1804284,1000,12,0,1,435.639,7.642,12.237,560.426,-0.266,1.032
1782117358.716817,1.205000,1804285,1000,12,0,1,432.444,2.961,12.227,559.586,-0.696,1.036
1782117358.717817,1.206000,1804286,1000,12,0,1,427.064,-1.434,12.229,560.618,-0.119,0.962
1782117358.718817,1.207000,1804287,1000,12,0,1,421.755,-6.619,12.264,562.036,1.463,0.972
1782117358.719817,1.208000,1804288,1000,12,0,1,410.729,-13.971,12.417,562.564,1.701,0.989
1782117358.720817,1.209000,1804289,1000,12,0,1,396.533,-24.853,12.857,563.405,2.015,0.989
1782117358.721817,1.210000,1804290,1000,12,0,1,396.942,-22.222,13.164,561.771,0.716,0.957
1782117358.722817,1.211000,1804291,1000,12,0,1,400.761,-13.108,13.294,562.324,0.173,0.955
1782117358.723817,1.212000,1804292,1000,12,0,1,400.449,-10.803,13.381,560.835,-0.202,0.952
1782117358.724817,1.213000,1804293,1000,12,0,1,418.872,5.135,13.401,561.195,-0.953,0.960
1782117358.725817,1.214000,1804294,1000,12,0,1,449.211,32.626,14.172,562.156,0.791,0.939
1782117358.726817,1.215000,1804295,1000,12,0,1,458.771,39.117,15.212,561.940,0.260,0.932
1782117358.727817,1.216000,1804296,1000,12,0,1,455.576,28.275,15.727,562.684,0.840,0.934
1782117358.728817,1.217000,1804297,1000,12,0,1,448.658,17.043,15.908,561.940,0.455,0.936
1782117358.729817,1.218000,1804298,1000,12,0,1,441.644,5.957,15.928,561.435,-0.480,0.938
1782117358.730817,1.219000,1804299,1000,12,0,1,437.585,0.189,15.923,558.937,-1.942,0.975
1782117358.731817,1.220000,1804300,1000,12,0,1,436.768,-1.657,15.899,559.273,-2.335,1.028
1782117358.732817,1.221000,1804301,1000,12,0,1,438.233,-0.557,15.813,560.955,0.208,1.011
1782117358.733817,1.222000,1804302,1000,12,0,1,442.245,2.803,15.582,559.489,-0.941,0.981
1782117358.734817,1.223000,1804303,1000,12,0,1,441.404,2.608,15.397,559.009,-1.576,1.001
1782117358.735817,1.224000,1804304,1000,12,0,1,440.515,0.672,15.243,560.186,-0.187,0.992
1782117358.736817,1.225000,1804305,1000,12,0,1,438.521,-0.515,15.063,560.691,0.395,0.943
1782117358.737817,1.226000,1804306,1000,12,0,1,436.239,-2.923,14.868,560.979,0.560,0.892
1782117358.738817,1.227000,1804307,1000,12,0,1,432.108,-5.778,14.881,561.555,0.900,0.901
1782117358.739817,1.228000,1804308,1000,12,0,1,433.069,-5.460,14.685,561.027,0.472,0.896
1782117358.740817,1.229000,1804309,1000,12,0,1,428.337,-7.400,14.430,561.051,0.067,0.858
1782117358.741817,1.230000,1804310,1000,12,0,1,417.407,-16.967,14.534,561.363,0.485,0.851
1782117358.742817,1.231000,1804311,1000,12,0,1,414.789,-18.617,14.699,561.555,0.462,0.847
1782117358.743817,1.232000,1804312,1000,12,0,1,418.032,-12.944,14.779,562.828,1.410,0.869
1782117358.744817,1.233000,1804313,1000,12,0,1,426.391,-4.924,14.795,559.826,-0.661,0.871
1782117358.745817,1.234000,1804314,1000,12,0,1,435.110,3.940,14.788,561.363,-0.618,0.875
1782117358.746817,1.235000,1804315,1000,12,0,1,433.357,2.082,14.762,561.651,1.186,0.884
1782117358.747817,1.236000,1804316,1000,12,0,1,430.643,-2.421,14.729,562.012,0.402,0.877
1782117358.748817,1.237000,1804317,1000,12,0,1,431.411,-1.972,14.730,561.363,0.651,0.876
1782117358.749817,1.238000,1804318,1000,12,0,1,432.108,-1.332,14.476,559.634,-1.300,0.893
1782117358.750817,1.239000,1804319,1000,12,0,1,431.988,-1.225,14.107,561.027,-0.163,0.890
1782117358.751817,1.240000,1804320,1000,12,0,1,431.291,-1.322,13.930,562.708,1.836,0.927
1782117358.752817,1.241000,1804321,1000,12,0,1,433.933,1.220,13.883,561.988,0.955,0.925
1782117358.753817,1.242000,1804322,1000,12,0,1,435.855,4.280,13.896,559.946,-0.876,0.930
1782117358.754817,1.243000,1804323,1000,12,0,1,431.748,1.422,13.854,560.234,-1.133,0.943
1782117358.755817,1.244000,1804324,1000,12,0,1,426.223,-2.940,13.773,560.739,-0.068,0.941
1782117358.756817,1.245000,1804325,1000,12,0,1,428.385,-0.443,13.651,561.003,-0.191,0.942
1782117358.757817,1.246000,1804326,1000,12,0,1,432.012,4.797,13.338,562.564,1.158,0.955
1782117358.758817,1.247000,1804327,1000,12,0,1,434.846,7.207,12.762,561.267,0.227,0.953
1782117358.759817,1.248000,1804328,1000,12,0,1,428.481,2.686,12.634,560.787,-0.956,0.960
1782117358.760817,1.249000,1804329,1000,12,0,1,424.397,-2.955,12.379,560.907,-0.434,0.959
1782117358.761817,1.250000,1804330,1000,12,0,1,424.974,-1.445,11.885,560.450,-0.975,0.967
1782117358.762817,1.251000,1804331,1000,12,0,1,425.598,-1.037,11.707,561.988,0.270,0.964
1782117358.763817,1.252000,1804332,1000,12,0,1,431.579,3.142,11.601,562.660,1.229,0.956
1782117358.764817,1.253000,1804333,1000,12,0,1,436.239,7.155,11.529,563.333,1.304,0.972
1782117358.765817,1.254000,1804334,1000,12,0,1,434.174,3.376,11.489,561.195,-0.114,0.971
1782117358.766817,1.255000,1804335,1000,12,0,1,434.558,1.323,11.482,559.874,-1.980,1.006
1782117358.767817,1.256000,1804336,1000,12,0,1,439.050,3.871,11.494,559.634,-1.477,1.027
1782117358.768817,1.257000,1804337,1000,12,0,1,437.681,2.236,11.460,562.060,0.421,1.008
1782117358.769817,1.258000,1804338,1000,12,0,1,431.483,-4.708,11.308,561.075,0.628,0.983
1782117358.770817,1.259000,1804339,1000,12,0,1,427.112,-8.585,10.816,560.042,-1.093,0.953
1782117358.771817,1.260000,1804340,1000,12,0,1,425.959,-8.512,10.419,560.594,-0.124,0.948
1782117358.772817,1.261000,1804341,1000,12,0,1,423.869,-8.074,10.316,559.922,-0.495,0.951
1782117358.773817,1.262000,1804342,1000,12,0,1,421.923,-7.963,10.265,559.706,-0.855,0.958
1782117358.774817,1.263000,1804343,1000,12,0,1,422.860,-4.884,10.262,560.739,0.305,0.949
1782117358.775817,1.264000,1804344,1000,12,0,1,424.661,-0.965,9.167,559.393,-0.625,0.947
1782117358.776817,1.265000,1804345,1000,12,0,1,424.013,0.325,7.310,558.745,-1.500,0.970
1782117358.777817,1.266000,1804346,1000,12,0,1,422.163,-0.173,6.120,561.219,0.674,0.967
1782117358.778817,1.267000,1804347,1000,12,0,1,423.028,1.272,5.628,561.723,1.621,0.992
1782117358.779817,1.268000,1804348,1000,12,0,1,429.345,7.056,5.653,562.468,1.405,1.009
1782117358.780817,1.269000,1804349,1000,12,0,1,432.997,10.578,5.848,563.669,2.517,1.034
1782117358.781817,1.270000,1804350,1000,12,0,1,427.424,4.666,5.880,562.948,1.450,1.001
1782117358.782817,1.271000,1804351,1000,12,0,1,417.383,-5.592,5.933,560.811,-0.692,1.006
1782117358.783817,1.272000,1804352,1000,12,0,1,407.174,-14.396,6.260,559.081,-2.357,1.051
1782117358.784817,1.273000,1804353,1000,12,0,1,393.194,-24.417,7.139,560.546,-1.067,1.038
1782117358.785817,1.274000,1804354,1000,12,0,1,384.403,-29.837,8.293,560.883,0.082,1.038
1782117358.786817,1.275000,1804355,1000,12,0,1,398.479,-14.709,8.549,562.060,0.632,1.040
1782117358.787817,1.276000,1804356,1000,12,0,1,412.627,3.610,8.555,561.892,1.155,1.050
1782117358.788817,1.277000,1804357,1000,12,0,1,433.213,19.340,8.944,560.234,-0.681,1.047
1782117358.789817,1.278000,1804358,1000,12,0,1,448.490,33.448,10.088,560.546,-0.425,1.046
1782117358.790817,1.279000,1804359,1000,12,0,1,447.841,27.979,10.786,559.417,-0.798,1.052
1782117358.791817,1.280000,1804360,1000,12,0,1,450.844,24.458,11.070,560.378,-0.490,1.052
1782117358.792817,1.281000,1804361,1000,12,0,1,448.202,20.135,11.123,561.027,0.905,1.058
1782117358.793817,1.282000,1804362,1000,12,0,1,445.103,12.071,11.103,560.907,0.308,1.040
1782117358.794817,1.283000,1804363,1000,12,0,1,443.494,9.722,11.166,558.481,-1.333,1.053
1782117358.795817,1.284000,1804364,1000,12,0,1,443.806,7.413,11.201,558.553,-1.977,1.086
1782117358.796817,1.285000,1804365,1000,12,0,1,439.434,4.004,11.212,560.739,0.576,1.076
1782117358.797817,1.286000,1804366,1000,12,0,1,436.840,-0.300,11.207,560.811,0.752,1.080
1782117358.798817,1.287000,1804367,1000,12,0,1,435.158,-0.836,11.204,562.588,1.589,1.099
1782117358.799817,1.288000,1804368,1000,12,0,1,431.123,-4.440,11.220,561.387,1.150,1.096
1782117358.800817,1.289000,1804369,1000,12,0,1,432.204,-3.986,11.233,561.099,-0.374,1.097
1782117358.801817,1.290000,1804370,1000,12,0,1,434.198,-1.254,11.233,561.435,0.526,1.068
1782117358.802817,1.291000,1804371,1000,12,0,1,433.909,-2.405,11.236,560.138,-0.907,1.067
1782117358.803817,1.292000,1804372,1000,12,0,1,435.399,-1.981,11.224,561.339,-0.081,1.060
1782117358.804817,1.293000,1804373,1000,12,0,1,439.602,0.256,11.222,561.243,0.492,1.050
1782117358.805817,1.294000,1804374,1000,12,0,1,440.299,0.021,11.214,561.147,-0.108,1.050
1782117358.806817,1.295000,1804375,1000,12,0,1,437.080,-4.886,11.235,561.147,0.356,1.051
1782117358.807817,1.296000,1804376,1000,12,0,1,435.567,-7.676,11.267,561.868,0.664,1.042
1782117358.808817,1.297000,1804377,1000,12,0,1,434.822,-8.638,11.287,561.051,0.454,1.044
1782117358.809817,1.298000,1804378,1000,12,0,1,436.408,-7.680,11.333,562.612,1.064,1.046
1782117358.810817,1.299000,1804379,1000,12,0,1,436.528,-6.620,11.364,561.411,0.928,1.052
1782117358.811817,1.300000,1804380,1000,12,0,1,436.167,-6.851,11.403,559.441,-1.630,1.069
1782117358.812817,1.301000,1804381,1000,12,0,1,434.894,-6.546,11.440,559.562,-1.211,1.082
1782117358.813817,1.302000,1804382,1000,12,0,1,430.907,-8.576,11.495,561.075,0.201,1.068
1782117358.814817,1.303000,1804383,1000,12,0,1,426.943,-10.180,11.541,560.138,-0.214,1.052
1782117358.815817,1.304000,1804384,1000,12,0,1,422.355,-11.194,11.639,558.913,-1.633,1.077
1782117358.816817,1.305000,1804385,1000,12,0,1,419.689,-10.859,11.739,558.336,-1.921,1.075
1782117358.817817,1.306000,1804386,1000,12,0,1,426.679,-2.305,11.730,559.658,-0.750,1.060
1782117358.818817,1.307000,1804387,1000,12,0,1,427.616,2.615,11.732,559.225,-0.576,1.061
1782117358.819817,1.308000,1804388,1000,12,0,1,430.763,4.389,11.729,562.156,1.196,1.071
1782117358.820817,1.309000,1804389,1000,12,0,1,434.846,9.587,11.745,562.516,2.385,1.112
1782117358.821817,1.310000,1804390,1000,12,0,1,428.937,4.087,11.697,561.747,0.617,1.115
1782117358.822817,1.311000,1804391,1000,12,0,1,420.314,-4.768,11.661,560.066,-0.567,1.116
1782117358.823817,1.312000,1804392,1000,12,0,1,415.389,-8.820,11.673,560.546,-0.732,1.114
1782117358.824817,1.313000,1804393,1000,12,0,1,410.105,-12.177,11.780,560.282,-0.244,1.114
1782117358.825817,1.314000,1804394,1000,12,0,1,419.929,-4.285,11.794,560.234,-0.542,1.113
1782117358.826817,1.315000,1804395,1000,12,0,1,445.223,18.429,12.079,558.745,-1.237,1.107
1782117358.827817,1.316000,1804396,1000,12,0,1,456.225,27.851,12.705,560.210,-0.324,1.104
1782117358.828817,1.317000,1804397,1000,12,0,1,449.355,16.475,12.915,559.417,0.112,1.080
1782117358.829817,1.318000,1804398,1000,12,0,1,439.915,3.885,12.888,557.832,-1.650,1.086
1782117358.830817,1.319000,1804399,1000,12,0,1,441.668,2.033,12.805,557.376,-1.551,1.050
1782117358.831817,1.320000,1804400,1000,12,0,1,446.736,6.683,12.822,558.433,-0.353,1.031
1782117358.832817,1.321000,1804401,1000,12,0,1,446.640,5.567,12.822,561.940,2.689,1.094
1782117358.833817,1.322000,1804402,1000,12,0,1,445.223,3.300,12.668,560.883,2.515,1.101
1782117358.834817,1.323000,1804403,1000,12,0,1,443.974,2.039,12.192,560.114,0.383,1.092
1782117358.835817,1.324000,1804404,1000,12,0,1,443.518,1.570,11.441,559.297,0.294,1.093
1782117358.836817,1.325000,1804405,1000,12,0,1,441.404,0.568,11.250,559.634,-0.285,1.090
1782117358.837817,1.326000,1804406,1000,12,0,1,436.648,-3.126,11.247,559.874,0.438,1.079
1782117358.838817,1.327000,1804407,1000,12,0,1,437.032,-2.616,10.916,560.354,0.307,1.076
1782117358.839817,1.328000,1804408,1000,12,0,1,437.993,-0.216,9.838,561.051,0.978,1.083
1782117358.840817,1.329000,1804409,1000,12,0,1,437.729,-0.547,9.007,560.066,0.045,1.077
1782117358.841817,1.330000,1804410,1000,12,0,1,436.311,-1.649,8.320,558.336,-1.711,1.102
1782117358.842817,1.331000,1804411,1000,12,0,1,436.648,-2.229,7.824,558.817,-1.274,1.109
1782117358.843817,1.332000,1804412,1000,12,0,1,432.444,-5.464,7.674,560.546,0.521,1.111
1782117358.844817,1.333000,1804413,1000,12,0,1,425.670,-12.309,7.748,560.138,0.583,1.098
1782117358.845817,1.334000,1804414,1000,12,0,1,429.273,-9.882,7.803,558.745,-0.884,1.069
1782117358.846817,1.335000,1804415,1000,12,0,1,436.552,-2.167,7.789,559.273,-0.318,1.067
1782117358.847817,1.336000,1804416,1000,12,0,1,443.662,2.879,7.799,559.321,0.171,1.062
1782117358.848817,1.337000,1804417,1000,12,0,1,441.164,0.965,7.799,560.546,1.017,1.048
1782117358.849817,1.338000,1804418,1000,12,0,1,436.167,-5.941,7.819,558.024,-0.357,1.036
1782117358.850817,1.339000,1804419,1000,12,0,1,432.684,-8.269,7.886,557.135,-1.998,1.073
1782117358.851817,1.340000,1804420,1000,12,0,1,431.027,-9.129,7.989,557.448,-0.743,1.075
1782117358.852817,1.341000,1804421,1000,12,0,1,430.547,-7.500,8.052,558.264,-0.174,1.068
1782117358.853817,1.342000,1804422,1000,12,0,1,428.217,-7.146,8.110,558.625,0.568,1.071
1782117358.854817,1.343000,1804423,1000,12,0,1,426.247,-6.826,8.168,561.771,2.681,1.134
1782117358.855817,1.344000,1804424,1000,12,0,1,428.529,-2.345,8.174,561.219,2.784,1.200
1782117358.856817,1.345000,1804425,1000,12,0,1,427.352,-0.304,8.145,560.354,0.681,1.203
1782117358.857817,1.346000,1804426,1000,12,0,1,422.331,-2.950,8.083,558.985,-0.280,1.200
1782117358.858817,1.347000,1804427,1000,12,0,1,420.290,-3.176,8.003,561.003,0.541,1.201
1782117358.859817,1.348000,1804428,1000,12,0,1,423.869,1.739,7.933,560.354,0.820,1.197
1782117358.860817,1.349000,1804429,1000,12,0,1,421.995,2.346,7.884,558.457,-1.668,1.213
