Unix_Time_s,IMU1_RefTime,ax_g,ay_g,az_g,gx_dps,gy_dps,gz_dps,mx_uT,my_uT,mz_uT,temp_C,qw,qx,qy,qz
1782117357.511817,1856939,0.911621,-0.023438,-0.412598,-0.792683,-0.304878,0.000000,16.450001,-36.850002,2.818750,0.0,1.000000,0.000000,0.000000,0.000000
1782117357.521817,1856949,0.913574,-0.021484,-0.413574,-0.670732,-0.243902,0.000000,16.450001,-36.850002,2.818750,0.0,1.000000,0.000000,0.000000,0.000000
1782117357.531817,1856959,0.913574,-0.018555,-0.414551,-0.609756,-0.060976,0.000000,16.400000,-36.924999,2.862500,0.0,1.000000,0.000000,0.000000,0.000000
1782117357.541817,1856969,0.914062,-0.017578,-0.411621,-0.487805,0.060976,-0.060976,16.400000,-36.924999,2.862500,0.0,1.000000,0.000000,0.000000,0.000000
1782117357.551817,1856979,0.911621,-0.017578,-0.410645,-0.548781,0.182927,0.000000,16.381250,-36.762501,2.800000,0.0,1.000000,0.000000,0.000000,0.000000
1782117357.561817,1856989,0.910156,-0.018066,-0.409180,-0.731707,0.243902,0.060976,16.381250,-36.762501,2.800000,0.0,1.000000,0.000000,0.000000,0.000000
1782117357.571817,1856999,0.910645,-0.017578,-0.410645,-0.914634,0.121951,0.060976,16.362501,-36.912502,2.906250,0.0,1.000000,0.000000,0.000000,0.000000
1782117357.581817,1857009,0.911621,-0.019531,-0.411621,-1.036585,0.121951,0.060976,16.362501,-36.912502,2.906250,0.0,1.000000,0.000000,0.000000,0.000000
1782117357.591817,1857019,0.911133,-0.018555,-0.414062,-1.158537,0.121951,0.060976,16.362501,-36.943752,2.868750,0.0,1.000000,0.000000,0.000000,0.000000
1782117357.601817,1857029,0.911133,-0.019043,-0.414062,-1.219512,0.121951,0.121951,16.362501,-36.943752,2.868750,0.0,1.000000,0.000000,0.000000,0.000000
1782117357.611817,1857039,0.913086,-0.020508,-0.413086,-1.158537,0.121951,0.182927,16.318750,-36.968750,2.956250,0.0,1.000000,0.000000,0.000000,0.000000
1782117357.621817,1857049,0.913574,-0.018066,-0.413574,-1.158537,0.243902,0.182927,16.318750,-36.968750,2.956250,0.0,1.000000,0.000000,0.000000,0.000000
1782117357.631817,1857059,0.910156,-0.016602,-0.411621,-1.158537,0.426829,0.121951,16.356251,-36.975002,2.906250,0.0,1.000000,0.000000,0.000000,0.000000
1782117357.641817,1857069,0.909180,-0.016113,-0.412598,-1.280488,0.487805,0.060976,16.356251,-36.975002,2.906250,0.0,1.000000,0.000000,0.000000,0.000000
1782117357.652817,1857080,0.908203,-0.016602,-0.413086,-1.341463,0.548781,0.000000,16.312500,-37.000000,2.981250,0.0,1.000000,0.000000,0.000000,0.000000
1782117357.661817,1857089,0.907227,-0.017090,-0.413086,-1.341463,0.304878,0.000000,16.312500,-37.000000,2.981250,0.0,1.000000,0.000000,0.000000,0.000000
1782117357.671817,1857099,0.907715,-0.018066,-0.413574,-1.219512,0.121951,0.000000,16.368750,-36.937500,2.950000,0.0,1.000000,0.000000,0.000000,0.000000
1782117357.681817,1857109,0.910156,-0.020508,-0.414062,-1.097561,0.000000,0.000000,16.368750,-36.937500,2.950000,0.0,1.000000,0.000000,0.000000,0.000000
1782117357.693817,1857121,0.914062,-0.021484,-0.412109,-0.914634,0.000000,0.000000,16.325001,-37.006252,2.975000,0.0,1.000000,0.000000,0.000000,0.000000
1782117357.702817,1857130,0.913574,-0.020020,-0.410156,-0.853659,0.121951,-0.060976,16.325001,-37.006252,2.975000,0.0,1.000000,0.000000,0.000000,0.000000
1782117357.712817,1857140,0.912109,-0.019043,-0.409180,-0.792683,0.243902,-0.060976,16.356251,-36.862499,2.950000,0.0,1.000000,0.000000,0.000000,0.000000
1782117357.722817,1857150,0.914551,-0.018066,-0.407715,-0.731707,0.304878,-0.121951,16.356251,-36.862499,2.950000,0.0,1.000000,0.000000,0.000000,0.000000
1782117357.734817,1857162,0.910156,-0.020996,-0.407227,-0.487805,0.487805,-0.121951,16.281250,-36.993752,3.018750,0.0,1.000000,0.000000,0.000000,0.000000
1782117357.741817,1857169,0.910156,-0.020996,-0.407227,-0.487805,0.487805,-0.121951,16.281250,-36.993752,3.018750,0.0,1.000000,0.000000,0.000000,0.000000
1782117357.751817,1857179,0.910645,-0.020996,-0.407715,-0.426829,0.243902,-0.182927,16.456251,-36.668751,2.931250,0.0,1.000000,0.000000,0.000000,0.000000
1782117357.761817,1857189,0.912598,-0.023438,-0.408203,-0.243902,0.000000,-0.182927,16.456251,-36.668751,2.931250,0.0,1.000000,0.000000,0.000000,0.000000
1782117357.773817,1857201,0.913574,-0.026367,-0.407227,0.000000,0.060976,-0.121951,16.300001,-37.006252,3.031250,0.0,1.000000,0.000000,0.000000,0.000000
1782117357.781817,1857209,0.913574,-0.026367,-0.407227,0.000000,0.060976,-0.121951,16.300001,-37.006252,3.031250,0.0,1.000000,0.000000,0.000000,0.000000
1782117357.791817,1857219,0.914062,-0.024414,-0.407715,0.121951,0.243902,-0.243902,16.356251,-36.881252,2.975000,0.0,1.000000,0.000000,0.000000,0.000000
1782117357.801817,1857229,0.913574,-0.022461,-0.409180,0.243902,0.182927,-0.304878,16.356251,-36.881252,2.975000,0.0,1.000000,0.000000,0.000000,0.000000
1782117357.813817,1857241,0.912598,-0.023438,-0.408691,0.304878,0.243902,-0.365854,16.287500,-36.981251,3.018750,0.0,1.000000,0.000000,0.000000,0.000000
1782117357.821817,1857249,0.911621,-0.023438,-0.408691,0.304878,0.182927,-0.365854,16.287500,-36.981251,3.018750,0.0,1.000000,0.000000,0.000000,0.000000
1782117357.831817,1857259,0.911621,-0.022461,-0.408691,0.243902,0.060976,-0.304878,16.425001,-36.781250,2.931250,0.0,1.000000,0.000000,0.000000,0.000000
1782117357.841817,1857269,0.912598,-0.019531,-0.406738,0.182927,-0.060976,-0.243902,16.425001,-36.781250,2.931250,0.0,1.000000,0.000000,0.000000,0.000000
1782117357.853817,1857281,0.910156,-0.019531,-0.405762,-0.121951,-0.365854,-0.243902,16.331251,-36.993752,3.081250,0.0,1.000000,0.000000,0.000000,0.000000
1782117357.863817,1857291,0.912109,-0.017578,-0.405762,-0.243902,-0.426829,-0.243902,16.331251,-36.993752,3.081250,0.0,1.000000,0.000000,0.000000,0.000000
1782117357.871817,1857299,0.912109,-0.017578,-0.405762,-0.243902,-0.426829,-0.243902,16.325001,-36.956249,3.006250,0.0,1.000000,0.000000,0.000000,0.000000
1782117357.881817,1857309,0.911621,-0.018066,-0.406738,-0.365854,-0.365854,-0.243902,16.325001,-36.956249,3.006250,0.0,1.000000,0.000000,0.000000,0.000000
1782117357.893817,1857321,0.911621,-0.020020,-0.407227,-0.426829,-0.487805,-0.365854,16.337500,-36.912502,3.012500,0.0,1.000000,0.000000,0.000000,0.000000
1782117357.901817,1857329,0.911621,-0.020020,-0.407227,-0.426829,-0.487805,-0.365854,16.337500,-36.912502,3.012500,0.0,1.000000,0.000000,0.000000,0.000000
1782117357.911817,1857339,0.914551,-0.023438,-0.406250,-0.304878,-0.548781,-0.365854,16.537500,-36.575001,2.775000,0.0,1.000000,0.000000,0.000000,0.000000
1782117357.921817,1857349,0.914551,-0.023926,-0.407227,-0.365854,-0.487805,-0.243902,16.537500,-36.575001,2.775000,0.0,1.000000,0.000000,0.000000,0.000000
1782117357.933817,1857361,0.911133,-0.021484,-0.408691,-0.304878,-0.548781,-0.182927,16.293751,-36.968750,3.031250,0.0,1.000000,0.000000,0.000000,0.000000
1782117357.941817,1857369,0.911133,-0.021484,-0.408691,-0.304878,-0.548781,-0.182927,16.293751,-36.968750,3.031250,0.0,1.000000,0.000000,0.000000,0.000000
1782117357.951817,1857379,0.912598,-0.018066,-0.406250,-0.487805,-0.731707,-0.304878,16.356251,-36.924999,2.981250,0.0,1.000000,0.000000,0.000000,0.000000
1782117357.961817,1857389,0.914062,-0.018066,-0.406738,-0.487805,-0.731707,-0.243902,16.356251,-36.924999,2.981250,0.0,1.000000,0.000000,0.000000,0.000000
1782117357.973817,1857401,0.913086,-0.017578,-0.407715,-0.609756,-0.792683,-0.243902,16.300001,-36.981251,3.018750,0.0,1.000000,0.000000,0.000000,0.000000
1782117357.981817,1857409,0.913086,-0.018555,-0.407715,-0.670732,-0.914634,-0.243902,16.300001,-36.981251,3.018750,0.0,1.000000,0.000000,0.000000,0.000000
1782117357.991817,1857419,0.911621,-0.020996,-0.409180,-0.609756,-0.975610,-0.182927,16.350000,-36.943752,2.987500,0.0,1.000000,0.000000,0.000000,0.000000
1782117358.002817,1857430,0.910645,-0.021484,-0.406738,-0.548781,-1.097561,-0.121951,16.350000,-36.943752,2.987500,0.0,1.000000,0.000000,0.000000,0.000000
1782117358.013817,1857441,0.912109,-0.022461,-0.408203,-0.548781,-1.097561,-0.182927,16.356251,-36.893749,2.943750,0.0,1.000000,0.000000,0.000000,0.000000
1782117358.021817,1857449,0.912109,-0.021973,-0.408203,-0.426829,-1.158537,-0.243902,16.356251,-36.893749,2.943750,0.0,1.000000,0.000000,0.000000,0.000000
1782117358.031817,1857459,0.912598,-0.022461,-0.407715,-0.304878,-1.097561,-0.365854,16.356251,-36.924999,2.981250,0.0,1.000000,0.000000,0.000000,0.000000
1782117358.041817,1857469,0.911621,-0.022949,-0.408203,-0.121951,-1.036585,-0.365854,16.356251,-36.924999,2.981250,0.0,1.000000,0.000000,0.000000,0.000000
1782117358.054817,1857482,0.911133,-0.024414,-0.410156,-0.060976,-1.036585,-0.487805,16.350000,-36.875000,2.906250,0.0,1.000000,0.000000,0.000000,0.000000
1782117358.061817,1857489,0.910156,-0.023926,-0.409668,0.182927,-1.158537,-0.548781,16.350000,-36.875000,2.906250,0.0,1.000000,0.000000,0.000000,0.000000
1782117358.071817,1857499,0.911621,-0.023438,-0.410156,0.487805,-1.341463,-0.609756,16.331251,-36.956249,2.943750,0.0,1.000000,0.000000,0.000000,0.000000
1782117358.081817,1857509,0.912598,-0.025391,-0.408691,0.731707,-1.402439,-0.670732,16.331251,-36.956249,2.943750,0.0,1.000000,0.000000,0.000000,0.000000
1782117358.093817,1857521,0.913086,-0.024902,-0.408203,0.914634,-1.463415,-0.548781,16.325001,-36.981251,2.956250,0.0,1.000000,0.000000,0.000000,0.000000
1782117358.101817,1857529,0.914062,-0.022949,-0.407715,0.975610,-1.463415,-0.609756,16.325001,-36.981251,2.956250,0.0,1.000000,0.000000,0.000000,0.000000
1782117358.111817,1857539,0.915527,-0.020508,-0.406738,0.853659,-1.280488,-0.609756,16.331251,-36.943752,2.825000,0.0,1.000000,0.000000,0.000000,0.000000
1782117358.122817,1857550,0.913086,-0.020996,-0.406738,0.731707,-1.158537,-0.609756,16.362501,-36.887501,2.818750,0.0,1.000000,0.000000,0.000000,0.000000
1782117358.133817,1857561,0.913574,-0.020020,-0.405762,0.670732,-1.158537,-0.609756,16.362501,-36.887501,2.818750,0.0,1.000000,0.000000,0.000000,0.000000
1782117358.142817,1857570,0.915527,-0.020508,-0.406250,0.609756,-1.158537,-0.670732,16.362501,-36.912502,2.843750,0.0,1.000000,0.000000,0.000000,0.000000
1782117358.151817,1857579,0.915039,-0.020996,-0.404297,0.548781,-0.975610,-0.670732,16.362501,-36.912502,2.843750,0.0,1.000000,0.000000,0.000000,0.000000
1782117358.161817,1857589,0.913086,-0.021484,-0.406738,0.426829,-0.853659,-0.609756,16.362501,-37.018749,2.856250,0.0,1.000000,0.000000,0.000000,0.000000
1782117358.174817,1857602,0.911133,-0.020508,-0.409668,0.304878,-0.853659,-0.487805,16.362501,-37.018749,2.856250,0.0,1.000000,0.000000,0.000000,0.000000
1782117358.181817,1857609,0.911133,-0.019043,-0.414551,0.243902,-0.853659,-0.487805,16.437500,-36.850002,2.743750,0.0,1.000000,0.000000,0.000000,0.000000
1782117358.191817,1857619,0.911133,-0.019043,-0.415527,0.121951,-0.914634,-0.426829,16.437500,-36.850002,2.743750,0.0,1.000000,0.000000,0.000000,0.000000
1782117358.202817,1857630,0.910156,-0.020508,-0.414062,0.060976,-0.914634,-0.426829,16.381250,-36.975002,2.875000,0.0,1.000000,0.000000,0.000000,0.000000
1782117358.214817,1857642,0.909668,-0.020996,-0.414551,0.060976,-0.914634,-0.365854,16.381250,-36.975002,2.875000,0.0,1.000000,0.000000,0.000000,0.000000
1782117358.221817,1857649,0.910156,-0.020996,-0.415039,0.000000,-0.914634,-0.426829,16.425001,-36.906250,2.737500,0.0,1.000000,0.000000,0.000000,0.000000
1782117358.231817,1857659,0.907227,-0.020996,-0.416992,-0.121951,-0.975610,-0.426829,16.425001,-36.906250,2.737500,0.0,1.000000,0.000000,0.000000,0.000000
1782117358.241817,1857669,0.907715,-0.021973,-0.416992,-0.182927,-1.036585,-0.365854,16.425001,-36.993752,2.762500,0.0,1.000000,0.000000,0.000000,0.000000
1782117358.252817,1857680,0.908691,-0.020508,-0.417969,-0.121951,-1.097561,-0.365854,16.425001,-36.993752,2.762500,0.0,1.000000,0.000000,0.000000,0.000000
1782117358.261817,1857689,0.910156,-0.019531,-0.417969,0.060976,-1.097561,-0.487805,16.512501,-36.737499,2.606250,0.0,1.000000,0.000000,0.000000,0.000000
1782117358.272817,1857700,0.908203,-0.019043,-0.417480,0.182927,-1.097561,-0.487805,16.512501,-36.737499,2.606250,0.0,1.000000,0.000000,0.000000,0.000000
1782117358.282817,1857710,0.907715,-0.020020,-0.416992,0.365854,-1.036585,-0.609756,16.387501,-36.975002,2.768750,0.0,1.000000,0.000000,0.000000,0.000000
1782117358.294817,1857722,0.909180,-0.022461,-0.416504,0.609756,-1.036585,-0.609756,16.387501,-36.975002,2.768750,0.0,1.000000,0.000000,0.000000,0.000000
1782117358.302817,1857730,0.908203,-0.021973,-0.416504,0.609756,-0.975610,-0.548781,16.506250,-36.775002,2.625000,0.0,1.000000,0.000000,0.000000,0.000000
1782117358.312817,1857740,0.909180,-0.021484,-0.417969,0.548781,-1.036585,-0.609756,16.506250,-36.775002,2.625000,0.0,1.000000,0.000000,0.000000,0.000000
1782117358.321817,1857749,0.910645,-0.020996,-0.416016,0.487805,-0.914634,-0.609756,16.400000,-36.918751,2.718750,0.0,1.000000,0.000000,0.000000,0.000000
1782117358.331817,1857759,0.909668,-0.020020,-0.416992,0.304878,-0.853659,-0.609756,16.400000,-36.918751,2.718750,0.0,1.000000,0.000000,0.000000,0.000000
1782117358.343817,1857771,0.909668,-0.020020,-0.414551,0.243902,-0.853659,-0.609756,16.581251,-36.718750,2.556250,0.0,1.000000,0.000000,0.000000,0.000000
1782117358.351817,1857779,0.908203,-0.019043,-0.414062,0.121951,-0.853659,-0.670732,16.581251,-36.718750,2.556250,0.0,1.000000,0.000000,0.000000,0.000000
1782117358.361817,1857789,0.908691,-0.019531,-0.415527,0.060976,-0.914634,-0.609756,16.493750,-36.850002,2.712500,0.0,1.000000,0.000000,0.000000,0.000000
1782117358.371817,1857799,0.910156,-0.019043,-0.415039,0.060976,-0.914634,-0.670732,16.493750,-36.850002,2.712500,0.0,1.000000,0.000000,0.000000,0.000000
1782117358.382817,1857810,0.911621,-0.020996,-0.416992,-0.060976,-0.792683,-0.548781,16.462500,-36.843750,2.675000,0.0,1.000000,0.000000,0.000000,0.000000
1782117358.391817,1857819,0.909668,-0.020996,-0.416016,0.000000,-0.853659,-0.487805,16.462500,-36.843750,2.675000,0.0,1.000000,0.000000,0.000000,0.000000
1782117358.401817,1857829,0.908691,-0.020020,-0.416016,0.121951,-0.975610,-0.487805,16.387501,-37.012501,2.712500,0.0,1.000000,0.000000,0.000000,0.000000
1782117358.415817,1857843,0.910645,-0.020020,-0.416992,0.182927,-0.914634,-0.548781,16.387501,-37.012501,2.712500,0.0,1.000000,0.000000,0.000000,0.000000
1782117358.421817,1857849,0.909668,-0.020996,-0.416504,0.243902,-0.853659,-0.487805,16.612501,-36.631252,2.481250,0.0,1.000000,0.000000,0.000000,0.000000
1782117358.431817,1857859,0.910645,-0.020020,-0.416016,0.182927,-0.731707,-0.426829,16.612501,-36.631252,2.481250,0.0,1.000000,0.000000,0.000000,0.000000
1782117358.441817,1857869,0.911133,-0.020020,-0.416016,0.182927,-0.609756,-0.426829,16.437500,-36.950001,2.668750,0.0,1.000000,0.000000,0.000000,0.000000
1782117358.451817,1857879,0.909668,-0.017578,-0.415039,0.182927,-0.670732,-0.426829,16.437500,-36.950001,2.668750,0.0,1.000000,0.000000,0.000000,0.000000
1782117358.461817,1857889,0.910645,-0.016113,-0.415039,0.121951,-0.548781,-0.487805,16.475000,-36.875000,2.575000,0.0,1.000000,0.000000,0.000000,0.000000
1782117358.471817,1857899,0.909668,-0.017090,-0.415527,0.000000,-0.487805,-0.426829,16.475000,-36.875000,2.575000,0.0,1.000000,0.000000,0.000000,0.000000
1782117358.481817,1857909,0.909668,-0.018066,-0.416992,-0.060976,-0.548781,-0.365854,16.431250,-36.962502,2.618750,0.0,1.000000,0.000000,0.000000,0.000000
1782117358.491817,1857919,0.908203,-0.017090,-0.416016,-0.182927,-0.548781,-0.304878,16.431250,-36.962502,2.618750,0.0,1.000000,0.000000,0.000000,0.000000
1782117358.501817,1857929,0.907715,-0.017090,-0.416016,-0.304878,-0.670732,-0.304878,16.456251,-36.906250,2.600000,0.0,1.000000,0.000000,0.000000,0.000000
1782117358.512817,1857940,0.908203,-0.018066,-0.415527,-0.487805,-0.548781,-0.243902,16.456251,-36.906250,2.600000,0.0,1.000000,0.000000,0.000000,0.000000
1782117358.521817,1857949,0.907227,-0.019043,-0.417480,-0.609756,-0.487805,-0.182927,16.443750,-36.931252,2.643750,0.0,1.000000,0.000000,0.000000,0.000000
1782117358.531817,1857959,0.907715,-0.018066,-0.416504,-0.731707,-0.548781,-0.182927,16.443750,-36.931252,2.643750,0.0,1.000000,0.000000,0.000000,0.000000
1782117358.542817,1857970,0.909668,-0.019043,-0.416504,-0.792683,-0.670732,-0.182927,16.487501,-36.843750,2.556250,0.0,1.000000,0.000000,0.000000,0.000000
1782117358.551817,1857979,0.908691,-0.021973,-0.417969,-0.792683,-0.548781,-0.243902,16.487501,-36.843750,2.556250,0.0,1.000000,0.000000,0.000000,0.000000
1782117358.561817,1857989,0.909180,-0.021484,-0.418457,-0.792683,-0.487805,-0.182927,16.443750,-36.893749,2.643750,0.0,1.000000,0.000000,0.000000,0.000000
1782117358.571817,1857999,0.907715,-0.021484,-0.417969,-0.731707,-0.548781,-0.243902,16.443750,-36.893749,2.643750,0.0,1.000000,0.000000,0.000000,0.000000
1782117358.581817,1858009,0.909180,-0.021973,-0.418457,-0.609756,-0.548781,-0.304878,16.431250,-36.981251,2.675000,0.0,1.000000,0.000000,0.000000,0.000000
1782117358.591817,1858019,0.910645,-0.022461,-0.418457,-0.426829,-0.548781,-0.365854,16.431250,-36.981251,2.675000,0.0,1.000000,0.000000,0.000000,0.000000
1782117358.601817,1858029,0.910156,-0.022949,-0.416504,-0.304878,-0.426829,-0.365854,16.462500,-36.887501,2.575000,0.0,1.000000,0.000000,0.000000,0.000000
1782117358.611817,1858039,0.908691,-0.021973,-0.416992,-0.182927,-0.426829,-0.304878,16.462500,-36.887501,2.575000,0.0,1.000000,0.000000,0.000000,0.000000
1782117358.621817,1858049,0.909180,-0.020508,-0.418945,-0.182927,-0.426829,-0.304878,16.456251,-36.868752,2.568750,0.0,1.000000,0.000000,0.000000,0.000000
1782117358.631817,1858059,0.907715,-0.020020,-0.417969,-0.121951,-0.365854,-0.304878,16.456251,-36.868752,2.568750,0.0,1.000000,0.000000,0.000000,0.000000
1782117358.641817,1858069,0.907715,-0.018066,-0.416992,-0.060976,-0.426829,-0.304878,16.418751,-36.912502,2.593750,0.0,1.000000,0.000000,0.000000,0.000000
1782117358.651817,1858079,0.908691,-0.020996,-0.415527,-0.121951,-0.548781,-0.365854,16.418751,-36.912502,2.593750,0.0,1.000000,0.000000,0.000000,0.000000
1782117358.662817,1858090,0.907715,-0.020508,-0.415039,-0.243902,-0.365854,-0.365854,16.468750,-36.893749,2.600000,0.0,1.000000,0.000000,0.000000,0.000000
1782117358.672817,1858100,0.907227,-0.019531,-0.415527,-0.426829,-0.426829,-0.426829,16.468750,-36.893749,2.600000,0.0,1.000000,0.000000,0.000000,0.000000
1782117358.681817,1858109,0.908691,-0.019531,-0.416992,-0.548781,-0.548781,-0.426829,16.712500,-36.487499,2.337500,0.0,1.000000,0.000000,0.000000,0.000000
1782117358.691817,1858119,0.910645,-0.020508,-0.417480,-0.548781,-0.487805,-0.426829,16.712500,-36.487499,2.337500,0.0,1.000000,0.000000,0.000000,0.000000
1782117358.701817,1858129,0.910645,-0.019531,-0.416992,-0.426829,-0.426829,-0.365854,16.431250,-36.918751,2.581250,0.0,1.000000,0.000000,0.000000,0.000000
1782117358.712817,1858140,0.911133,-0.020508,-0.416016,-0.304878,-0.426829,-0.304878,16.431250,-36.918751,2.581250,0.0,1.000000,0.000000,0.000000,0.000000
1782117358.721817,1858149,0.911133,-0.020508,-0.416016,-0.243902,-0.304878,-0.426829,16.481251,-36.906250,2.556250,0.0,1.000000,0.000000,0.000000,0.000000
1782117358.732817,1858160,0.909180,-0.018066,-0.416992,-0.182927,-0.304878,-0.426829,16.481251,-36.906250,2.556250,0.0,1.000000,0.000000,0.000000,0.000000
1782117358.742817,1858170,0.909180,-0.017090,-0.415039,-0.182927,-0.304878,-0.365854,16.487501,-36.893749,2.568750,0.0,1.000000,0.000000,0.000000,0.000000
1782117358.751817,1858179,0.909180,-0.018066,-0.416016,-0.243902,-0.365854,-0.426829,16.487501,-36.893749,2.568750,0.0,1.000000,0.000000,0.000000,0.000000
1782117358.761817,1858189,0.909668,-0.018555,-0.416016,-0.304878,-0.426829,-0.426829,16.456251,-36.906250,2.600000,0.0,1.000000,0.000000,0.000000,0.000000
1782117358.772817,1858200,0.910645,-0.020508,-0.417969,-0.304878,-0.426829,-0.426829,16.456251,-36.906250,2.600000,0.0,1.000000,0.000000,0.000000,0.000000
1782117358.781817,1858209,0.909668,-0.020508,-0.418457,-0.304878,-0.365854,-0.365854,16.450001,-36.875000,2.562500,0.0,1.000000,0.000000,0.000000,0.000000
1782117358.791817,1858219,0.910156,-0.021484,-0.419434,-0.304878,-0.365854,-0.304878,16.450001,-36.875000,2.562500,0.0,1.000000,0.000000,0.000000,0.000000
1782117358.801817,1858229,0.911621,-0.019531,-0.416992,-0.243902,-0.304878,-0.304878,16.468750,-36.893749,2.537500,0.0,1.000000,0.000000,0.000000,0.000000
1782117358.811817,1858239,0.909668,-0.017578,-0.415527,-0.182927,-0.243902,-0.304878,16.468750,-36.893749,2.537500,0.0,1.000000,0.000000,0.000000,0.000000
1782117358.822817,1858250,0.908691,-0.017090,-0.414551,-0.243902,-0.182927,-0.365854,16.425001,-36.931252,2.600000,0.0,1.000000,0.000000,0.000000,0.000000
1782117358.831817,1858259,0.907227,-0.018066,-0.414062,-0.365854,-0.182927,-0.548781,16.425001,-36.931252,2.600000,0.0,1.000000,0.000000,0.000000,0.000000
1782117358.841817,1858269,0.906738,-0.019531,-0.417480,-0.487805,-0.426829,-0.304878,16.531250,-36.718750,2.493750,0.0,1.000000,0.000000,0.000000,0.000000
1782117358.851817,1858279,0.905762,-0.016602,-0.422852,-0.731707,-0.853659,-0.548781,16.531250,-36.718750,2.493750,0.0,1.000000,0.000000,0.000000,0.000000
1782117358.862817,1858290,0.905762,-0.016602,-0.422852,-0.731707,-0.853659,-0.548781,16.462500,-36.881252,2.537500,0.0,1.000000,0.000000,0.000000,0.000000
1782117358.871817,1858299,0.913574,-0.021484,-0.415039,-0.243902,-0.426829,-0.792683,16.462500,-36.881252,2.537500,0.0,1.000000,0.000000,0.000000,0.000000
1782117358.881817,1858309,0.903809,-0.023926,-0.416016,-0.243902,-0.243902,-0.487805,16.493750,-36.881252,2.600000,0.0,1.000000,0.000000,0.000000,0.000000
1782117358.891817,1858319,0.904785,-0.021973,-0.420898,-0.182927,-0.792683,-0.670732,16.493750,-36.881252,2.600000,0.0,1.000000,0.000000,0.000000,0.000000
1782117358.902817,1858330,0.910156,-0.019043,-0.423340,-0.060976,-0.731707,-0.731707,16.475000,-36.912502,2.531250,0.0,1.000000,0.000000,0.000000,0.000000
1782117358.912817,1858340,0.910156,-0.021484,-0.421875,0.000000,-0.609756,-0.731707,16.475000,-36.912502,2.531250,0.0,1.000000,0.000000,0.000000,0.000000
1782117358.921817,1858349,0.906250,-0.023926,-0.417480,-0.182927,-0.548781,-0.426829,16.475000,-36.862499,2.625000,0.0,1.000000,0.000000,0.000000,0.000000
1782117358.931817,1858359,0.907227,-0.020020,-0.419434,-0.243902,-0.609756,-0.426829,16.475000,-36.862499,2.625000,0.0,1.000000,0.000000,0.000000,0.000000
1782117358.942817,1858370,0.907227,-0.015625,-0.420410,-0.182927,-0.548781,-0.487805,16.550001,-36.768749,2.481250,0.0,1.000000,0.000000,0.000000,0.000000
1782117358.952817,1858380,0.905762,-0.015137,-0.421875,0.000000,-0.548781,-0.609756,16.550001,-36.768749,2.481250,0.0,1.000000,0.000000,0.000000,0.000000
1782117358.961817,1858389,0.905762,-0.013672,-0.422363,-0.304878,-0.609756,-0.548781,16.468750,-36.881252,2.587500,0.0,1.000000,0.000000,0.000000,0.000000
1782117358.971817,1858399,0.907227,-0.011719,-0.419922,-0.548781,-0.609756,-0.548781,16.468750,-36.881252,2.587500,0.0,1.000000,0.000000,0.000000,0.000000
1782117358.981817,1858409,0.906738,-0.013184,-0.421387,-0.731707,-0.548781,-0.548781,16.487501,-36.887501,2.593750,0.0,1.000000,0.000000,0.000000,0.000000
1782117358.991817,1858419,0.907227,-0.014648,-0.422363,-0.792683,-0.548781,-0.548781,16.487501,-36.887501,2.593750,0.0,1.000000,0.000000,0.000000,0.000000
1782117359.001817,1858429,0.905273,-0.016602,-0.422852,-0.670732,-0.609756,-0.548781,16.425001,-36.893749,2.631250,0.0,1.000000,0.000000,0.000000,0.000000
1782117359.011817,1858439,0.904297,-0.018555,-0.424316,-0.609756,-0.731707,-0.609756,16.425001,-36.893749,2.631250,0.0,1.000000,0.000000,0.000000,0.000000
1782117359.021817,1858449,0.906250,-0.020508,-0.427246,-0.548781,-0.853659,-0.548781,16.481251,-36.868752,2.612500,0.0,1.000000,0.000000,0.000000,0.000000
1782117359.031817,1858459,0.905762,-0.019531,-0.429688,-0.792683,-0.853659,-0.487805,16.481251,-36.868752,2.612500,0.0,1.000000,0.000000,0.000000,0.000000
1782117359.041817,1858469,0.903809,-0.020996,-0.429688,-0.670732,-0.853659,-0.609756,16.475000,-36.812500,2.575000,0.0,1.000000,0.000000,0.000000,0.000000
1782117359.051817,1858479,0.907227,-0.025391,-0.427246,-0.243902,-0.792683,-0.609756,16.475000,-36.812500,2.575000,0.0,1.000000,0.000000,0.000000,0.000000
1782117359.062817,1858490,0.909668,-0.029297,-0.427246,0.182927,-0.487805,-0.243902,16.531250,-36.737499,2.531250,0.0,1.000000,0.000000,0.000000,0.000000
1782117359.071817,1858499,0.906738,-0.024414,-0.433105,0.304878,-0.304878,0.000000,16.531250,-36.737499,2.531250,0.0,1.000000,0.000000,0.000000,0.000000
1782117359.081817,1858509,0.905762,-0.012207,-0.437012,0.000000,-0.365854,-0.060976,16.450001,-36.856251,2.506250,0.0,1.000000,0.000000,0.000000,0.000000
1782117359.092817,1858520,0.909668,-0.004883,-0.435547,-0.243902,-0.304878,-0.304878,16.450001,-36.856251,2.506250,0.0,1.000000,0.000000,0.000000,0.000000
1782117359.102817,1858530,0.908203,-0.003418,-0.431641,-0.487805,0.365854,-0.304878,16.475000,-36.856251,2.537500,0.0,1.000000,0.000000,0.000000,0.000000
1782117359.112817,1858540,0.898926,-0.006836,-0.430664,-0.853659,0.670732,-0.182927,16.475000,-36.856251,2.537500,0.0,1.000000,0.000000,0.000000,0.000000
1782117359.122817,1858550,0.896973,-0.004395,-0.433105,-1.402439,0.243902,-0.121951,16.443750,-36.843750,2.556250,0.0,1.000000,0.000000,0.000000,0.000000
1782117359.132817,1858560,0.902344,-0.004395,-0.432617,-1.768293,0.243902,-0.304878,16.443750,-36.843750,2.556250,0.0,1.000000,0.000000,0.000000,0.000000
1782117359.143817,1858571,0.899902,-0.010254,-0.429688,-1.829268,0.426829,-0.243902,16.443750,-36.906250,2.612500,0.0,1.000000,0.000000,0.000000,0.000000
1782117359.152817,1858580,0.896973,-0.018066,-0.430176,-2.256098,0.121951,0.182927,16.443750,-36.906250,2.612500,0.0,1.000000,0.000000,0.000000,0.000000
1782117359.162817,1858590,0.901367,-0.012695,-0.433105,-2.682927,-0.060976,0.182927,16.468750,-36.856251,2.600000,0.0,1.000000,0.000000,0.000000,0.000000
1782117359.171817,1858599,0.903809,-0.013184,-0.432129,-2.804878,0.121951,0.000000,16.468750,-36.856251,2.600000,0.0,1.000000,0.000000,0.000000,0.000000
1782117359.184817,1858612,0.901855,-0.018066,-0.434082,-2.865854,0.304878,-0.060976,16.443750,-36.881252,2.662500,0.0,1.000000,0.000000,0.000000,0.000000
1782117359.191817,1858619,0.902344,-0.020020,-0.435547,-3.048780,0.487805,-0.121951,16.443750,-36.881252,2.662500,0.0,1.000000,0.000000,0.000000,0.000000
1782117359.201817,1858629,0.903320,-0.020020,-0.430664,-2.560976,0.670732,-0.365854,16.568750,-36.656250,2.512500,0.0,1.000000,0.000000,0.000000,0.000000
1782117359.211817,1858639,0.914551,-0.028320,-0.425781,-1.402439,0.914634,-0.609756,16.568750,-36.656250,2.512500,0.0,1.000000,0.000000,0.000000,0.000000
1782117359.223817,1858651,0.910156,-0.034668,-0.430176,-1.036585,1.707317,-0.304878,16.406250,-36.918751,2.718750,0.0,1.000000,0.000000,0.000000,0.000000
1782117359.231817,1858659,0.909180,-0.024414,-0.436523,-0.853659,1.585366,-0.121951,16.406250,-36.918751,2.718750,0.0,1.000000,0.000000,0.000000,0.000000
1782117359.241817,1858669,0.911133,-0.017578,-0.437012,-0.426829,1.829268,-0.304878,16.625000,-36.468750,2.481250,0.0,1.000000,0.000000,0.000000,0.000000
1782117359.251817,1858679,0.907715,-0.017090,-0.436523,0.000000,1.951220,-0.243902,16.625000,-36.468750,2.481250,0.0,1.000000,0.000000,0.000000,0.000000
1782117359.261817,1858689,0.909668,-0.009766,-0.438965,-0.060976,1.890244,-0.121951,16.375000,-36.887501,2.862500,0.0,1.000000,0.000000,0.000000,0.000000
1782117359.271817,1858699,0.907715,-0.002930,-0.437988,-0.670732,2.317073,-0.121951,16.375000,-36.887501,2.862500,0.0,1.000000,0.000000,0.000000,0.000000
1782117359.281817,1858709,0.909180,0.000000,-0.436523,-1.158537,2.378049,-0.243902,16.362501,-36.812500,2.862500,0.0,1.000000,0.000000,0.000000,0.000000
1782117359.291817,1858719,0.908691,-0.001465,-0.435547,-1.463415,2.865854,-0.243902,16.362501,-36.812500,2.862500,0.0,1.000000,0.000000,0.000000,0.000000
1782117359.303817,1858731,0.903320,-0.002930,-0.437500,-1.463415,3.231707,-0.060976,16.293751,-36.906250,2.912500,0.0,1.000000,0.000000,0.000000,0.000000
1782117359.311817,1858739,0.906250,-0.003906,-0.435059,-0.792683,3.170732,-0.182927,16.293751,-36.906250,2.912500,0.0,1.000000,0.000000,0.000000,0.000000
1782117359.321817,1858749,0.904297,-0.010254,-0.434082,0.304878,4.146341,-0.243902,16.362501,-36.781250,2.943750,0.0,1.000000,0.000000,0.000000,0.000000
1782117359.331817,1858759,0.896484,-0.012695,-0.437012,1.646341,4.878049,-0.121951,16.362501,-36.781250,2.943750,0.0,1.000000,0.000000,0.000000,0.000000
1782117359.344817,1858772,0.882324,-0.000977,-0.448242,2.804878,5.670732,-0.060976,16.275000,-36.868752,3.081250,0.0,1.000000,0.000000,0.000000,0.000000
1782117359.352817,1858780,0.851562,0.006836,-0.458496,3.292683,6.463415,0.060976,16.275000,-36.868752,3.081250,0.0,1.000000,0.000000,0.000000,0.000000
1782117359.362817,1858790,0.827148,0.003906,-0.478027,3.231707,5.853659,-0.182927,16.262501,-36.775002,3.087500,0.0,1.000000,0.000000,0.000000,0.000000
1782117359.371817,1858799,0.842285,0.000977,-0.504395,3.780488,2.987805,-0.975610,16.262501,-36.775002,3.087500,0.0,1.000000,0.000000,0.000000,0.000000
1782117359.384817,1858812,0.871582,0.007812,-0.513184,4.695122,1.768293,-1.890244,16.181250,-36.837502,3.193750,0.0,1.000000,0.000000,0.000000,0.000000
1782117359.391817,1858819,0.872559,0.006348,-0.506836,4.207317,2.317073,-1.829268,16.181250,-36.837502,3.193750,0.0,1.000000,0.000000,0.000000,0.000000
1782117359.401817,1858829,0.857910,-0.005371,-0.514648,2.743902,3.475610,-1.158537,16.212500,-36.750000,3.162500,0.0,1.000000,0.000000,0.000000,0.000000
1782117359.411817,1858839,0.864258,-0.010254,-0.517578,2.256098,3.597561,-0.792683,16.212500,-36.750000,3.162500,0.0,1.000000,0.000000,0.000000,0.000000
1782117359.424817,1858852,0.874023,-0.014648,-0.509277,2.743902,4.146341,-0.548781,16.137501,-36.806252,3.243750,0.0,1.000000,0.000000,0.000000,0.000000
1782117359.431817,1858859,0.880371,-0.023926,-0.497070,4.878049,3.231707,-0.487805,16.137501,-36.806252,3.243750,0.0,1.000000,0.000000,0.000000,0.000000
1782117359.441817,1858869,0.892090,-0.033691,-0.484375,8.170732,2.804878,-0.304878,16.187500,-36.556252,3.093750,0.0,1.000000,0.000000,0.000000,0.000000
1782117359.451817,1858879,0.891113,-0.054199,-0.478027,11.890244,4.878049,-0.121951,16.187500,-36.556252,3.093750,0.0,1.000000,0.000000,0.000000,0.000000
1782117359.464817,1858892,0.891113,-0.076660,-0.479980,17.439024,6.219512,-0.304878,15.950000,-36.762501,3.218750,0.0,1.000000,0.000000,0.000000,0.000000
1782117359.471817,1858899,0.930176,-0.080078,-0.493652,23.719513,6.280488,-1.158537,15.950000,-36.762501,3.218750,0.0,1.000000,0.000000,0.000000,0.000000
1782117359.481817,1858909,0.964355,-0.076660,-0.492676,29.817074,8.353659,-0.731707,15.950000,-36.650002,3.068750,0.0,1.000000,0.000000,0.000000,0.000000
1782117359.491817,1858919,0.981934,-0.052734,-0.495605,34.817074,13.292684,0.975610,15.950000,-36.650002,3.068750,0.0,1.000000,0.000000,0.000000,0.000000
1782117359.504817,1858932,0.908203,0.054688,-0.450195,36.646343,35.060978,1.097561,15.837501,-36.768749,3.075000,0.0,1.000000,0.000000,0.000000,0.000000
1782117359.511817,1858939,0.908203,0.054688,-0.450195,36.646343,35.060978,1.097561,15.837501,-36.768749,3.075000,0.0,1.000000,0.000000,0.000000,0.000000
1782117359.522817,1858950,0.834961,0.067871,-0.416992,33.109756,36.951221,0.060976,15.856250,-36.512501,3.131250,0.0,1.000000,0.000000,0.000000,0.000000
1782117359.532817,1858960,0.811035,0.038086,-0.396973,29.573172,29.573172,0.609756,15.856250,-36.512501,3.131250,0.0,1.000000,0.000000,0.000000,0.000000
1782117359.544817,1858972,0.902344,-0.100586,-0.401367,18.963415,14.939025,4.634146,15.725000,-36.631252,3.468750,0.0,1.000000,0.000000,0.000000,0.000000
1782117359.552817,1858980,0.902344,-0.100586,-0.401367,18.963415,14.939025,4.634146,15.725000,-36.631252,3.468750,0.0,1.000000,0.000000,0.000000,0.000000
1782117359.562817,1858990,0.984863,-0.166016,-0.464355,14.390244,4.329268,3.353659,15.712501,-36.543751,3.512500,0.0,1.000000,0.000000,0.000000,0.000000
1782117359.572817,1859000,1.016602,-0.146484,-0.461426,11.707317,11.402439,6.341464,15.712501,-36.543751,3.512500,0.0,1.000000,0.000000,0.000000,0.000000
1782117359.584817,1859012,0.934570,-0.066895,-0.427734,8.963415,19.695122,9.146341,15.487500,-36.625000,3.606250,0.0,1.000000,0.000000,0.000000,0.000000
1782117359.591817,1859019,0.889160,0.005859,-0.411621,7.317073,15.731708,6.097561,15.487500,-36.625000,3.606250,0.0,1.000000,0.000000,0.000000,0.000000
1782117359.601817,1859029,0.904297,0.018066,-0.388184,6.585366,11.341464,2.987805,15.537500,-36.312500,3.518750,0.0,1.000000,0.000000,0.000000,0.000000
1782117359.611817,1859039,0.927246,0.034180,-0.319824,5.121951,12.378049,2.865854,15.537500,-36.312500,3.518750,0.0,1.000000,0.000000,0.000000,0.000000
1782117359.622817,1859050,0.912109,0.022949,-0.275879,2.682927,13.292684,4.024390,15.200000,-36.668751,3.793750,0.0,1.000000,0.000000,0.000000,0.000000
1782117359.631817,1859059,0.920410,-0.011230,-0.270508,1.768293,11.463415,3.780488,15.200000,-36.668751,3.793750,0.0,1.000000,0.000000,0.000000,0.000000
1782117359.641817,1859069,0.954590,-0.062012,-0.301758,2.682927,10.792684,3.902439,14.987500,-36.799999,3.906250,0.0,1.000000,0.000000,0.000000,0.000000
1782117359.651817,1859079,0.958984,-0.088867,-0.308594,4.817073,12.378049,4.817073,14.987500,-36.799999,3.906250,0.0,1.000000,0.000000,0.000000,0.000000
1782117359.662817,1859090,0.938965,-0.119629,-0.303223,7.743903,13.780488,6.158537,14.881250,-36.793751,3.862500,0.0,1.000000,0.000000,0.000000,0.000000
1782117359.671817,1859099,0.919922,-0.136230,-0.292480,11.768293,12.439025,6.707317,14.881250,-36.793751,3.862500,0.0,1.000000,0.000000,0.000000,0.000000
1782117359.681817,1859109,0.922852,-0.133789,-0.281738,16.341463,10.548780,5.670732,14.631250,-36.931252,3.937500,0.0,1.000000,0.000000,0.000000,0.000000
1782117359.691817,1859119,0.944336,-0.135254,-0.275879,21.280489,9.207317,3.536585,14.631250,-36.931252,3.937500,0.0,1.000000,0.000000,0.000000,0.000000
1782117359.701817,1859129,0.950195,-0.133789,-0.282715,24.817074,8.719512,2.195122,14.381250,-37.081249,4.012500,0.0,1.000000,0.000000,0.000000,0.000000
1782117359.711817,1859139,0.941895,-0.110352,-0.289551,25.609756,9.756098,1.585366,14.362500,-36.943752,3.893750,0.0,1.000000,0.000000,0.000000,0.000000
1782117359.721817,1859149,0.903320,-0.083984,-0.285156,26.036587,10.121951,0.426829,14.362500,-36.943752,3.893750,0.0,1.000000,0.000000,0.000000,0.000000
1782117359.731817,1859159,0.872559,-0.086426,-0.276855,26.036587,6.219512,-1.890244,14.443750,-36.837502,3.781250,0.0,1.000000,0.000000,0.000000,0.000000
1782117359.741817,1859169,0.931641,-0.133301,-0.242676,30.304878,-4.573171,-7.987805,14.443750,-36.837502,3.781250,0.0,1.000000,0.000000,0.000000,0.000000
1782117359.751817,1859179,0.931641,-0.133301,-0.242676,30.304878,-4.573171,-7.987805,14.675000,-36.493752,3.293750,0.0,1.000000,0.000000,0.000000,0.000000
1782117359.761817,1859189,0.983887,-0.140625,-0.202148,36.707317,-2.987805,-11.768293,14.675000,-36.493752,3.293750,0.0,1.000000,0.000000,0.000000,0.000000
1782117359.772817,1859200,0.983887,-0.140625,-0.202148,36.707317,-2.987805,-11.768293,14.743751,-36.562500,3.137500,0.0,1.000000,0.000000,0.000000,0.000000
1782117359.781817,1859209,0.948242,-0.108398,-0.152344,37.621952,-6.402439,-12.317074,14.743751,-36.562500,3.137500,0.0,1.000000,0.000000,0.000000,0.000000
1782117359.792817,1859220,0.937012,-0.062988,-0.136230,34.817074,-8.658537,-13.170732,14.906250,-36.437500,2.668750,0.0,1.000000,0.000000,0.000000,0.000000
1782117359.801817,1859229,0.964844,-0.019043,-0.124023,31.585367,-11.890244,-14.634147,14.906250,-36.437500,2.668750,0.0,1.000000,0.000000,0.000000,0.000000
1782117359.811817,1859239,1.012207,0.000000,-0.118652,27.682928,-13.841464,-15.121951,15.168750,-36.293751,2.156250,0.0,1.000000,0.000000,0.000000,0.000000
1782117359.821817,1859249,1.060547,0.005371,-0.099609,24.451220,-13.963415,-14.512196,15.168750,-36.293751,2.156250,0.0,1.000000,0.000000,0.000000,0.000000
1782117359.831817,1859259,1.085938,0.007812,-0.081543,21.829269,-11.463415,-13.597561,15.318750,-36.087502,1.768750,0.0,1.000000,0.000000,0.000000,0.000000
1782117359.841817,1859269,1.088379,0.014648,-0.075195,19.390244,-8.597561,-11.768293,15.318750,-36.087502,1.768750,0.0,1.000000,0.000000,0.000000,0.000000
1782117359.851817,1859279,1.088867,0.023926,-0.073730,15.060976,-7.682927,-9.939025,15.275001,-36.281250,1.625000,0.0,1.000000,0.000000,0.000000,0.000000
1782117359.861817,1859289,1.110352,0.017090,-0.084473,10.060976,-7.195122,-8.719512,15.275001,-36.281250,1.625000,0.0,1.000000,0.000000,0.000000,0.000000
1782117359.871817,1859299,1.123047,0.015137,-0.102051,4.329268,-4.573171,-7.378049,15.400001,-36.187500,1.500000,0.0,1.000000,0.000000,0.000000,0.000000
1782117359.881817,1859309,1.097656,0.015625,-0.128418,-2.073171,-0.975610,-4.878049,15.400001,-36.187500,1.500000,0.0,1.000000,0.000000,0.000000,0.000000
1782117359.891817,1859319,1.053711,-0.003418,-0.161133,-8.414635,0.121951,-2.621951,15.431251,-36.200001,1.562500,0.0,1.000000,0.000000,0.000000,0.000000
1782117359.901817,1859329,1.018066,-0.020020,-0.182617,-13.414635,-0.426829,0.060976,15.431251,-36.200001,1.562500,0.0,1.000000,0.000000,0.000000,0.000000
1782117359.912817,1859340,0.988281,-0.028320,-0.201172,-17.378050,-1.463415,2.317073,15.512500,-36.181252,1.718750,0.0,1.000000,0.000000,0.000000,0.000000
1782117359.921817,1859349,0.963867,-0.037598,-0.226074,-19.939024,-1.707317,3.780488,15.512500,-36.181252,1.718750,0.0,1.000000,0.000000,0.000000,0.000000
1782117359.931817,1859359,0.938965,-0.054199,-0.243652,-21.707317,-2.682927,4.390244,15.493751,-36.156250,1.868750,0.0,1.000000,0.000000,0.000000,0.000000
1782117359.941817,1859369,0.931641,-0.062012,-0.263184,-23.109756,-4.268293,4.207317,15.493751,-36.156250,1.868750,0.0,1.000000,0.000000,0.000000,0.000000
1782117359.952817,1859380,0.939941,-0.060547,-0.274902,-23.658537,-5.853659,3.292683,15.543750,-36.125000,1.950000,0.0,1.000000,0.000000,0.000000,0.000000
1782117359.961817,1859389,0.961914,-0.048340,-0.285645,-23.658537,-6.402439,2.012195,15.543750,-36.125000,1.950000,0.0,1.000000,0.000000,0.000000,0.000000
1782117359.972817,1859400,0.971191,-0.037109,-0.294434,-23.231709,-5.731708,0.426829,15.631250,-36.131252,2.093750,0.0,1.000000,0.000000,0.000000,0.000000
1782117359.981817,1859409,0.937012,-0.034668,-0.299316,-22.987806,-4.573171,-1.829268,15.631250,-36.131252,2.093750,0.0,1.000000,0.000000,0.000000,0.000000
1782117359.991817,1859419,0.944824,-0.052246,-0.302734,-23.414635,-5.731708,-0.548781,15.712501,-36.012501,2.031250,0.0,1.000000,0.000000,0.000000,0.000000
1782117360.001817,1859429,0.910645,-0.044434,-0.310059,-24.268293,-5.304878,-2.378049,15.712501,-36.012501,2.031250,0.0,1.000000,0.000000,0.000000,0.000000
1782117360.011817,1859439,0.928223,-0.048828,-0.317871,-24.512196,-7.743903,-1.890244,15.725000,-36.193752,2.337500,0.0,1.000000,0.000000,0.000000,0.000000
1782117360.021817,1859449,0.941895,-0.041992,-0.320312,-24.817074,-9.512196,-2.012195,15.725000,-36.193752,2.337500,0.0,1.000000,0.000000,0.000000,0.000000
1782117360.032817,1859460,0.957520,-0.057129,-0.317383,-22.621952,-11.219512,-2.073171,15.806251,-36.212502,2.362500,0.0,1.000000,0.000000,0.000000,0.000000
1782117360.042817,1859470,0.954590,-0.059082,-0.316895,-20.914635,-10.487805,-1.219512,15.806251,-36.212502,2.362500,0.0,1.000000,0.000000,0.000000,0.000000
1782117360.051817,1859479,0.955078,-0.060547,-0.313477,-19.939024,-10.365854,0.304878,15.918750,-36.168751,2.431250,0.0,1.000000,0.000000,0.000000,0.000000
1782117360.061817,1859489,0.954590,-0.050781,-0.311035,-20.487804,-10.182927,1.158537,15.918750,-36.168751,2.431250,0.0,1.000000,0.000000,0.000000,0.000000
1782117360.071817,1859499,0.948730,-0.031250,-0.314941,-21.463415,-9.573171,0.426829,15.962501,-36.181252,2.462500,0.0,1.000000,0.000000,0.000000,0.000000
1782117360.081817,1859509,0.960449,-0.016113,-0.312988,-23.048780,-9.268292,0.487805,15.962501,-36.181252,2.462500,0.0,1.000000,0.000000,0.000000,0.000000
1782117360.092817,1859520,0.953125,0.001465,-0.312012,-25.182928,-6.890244,0.670732,16.025000,-36.193752,2.550000,0.0,1.000000,0.000000,0.000000,0.000000
1782117360.101817,1859529,0.942871,-0.003906,-0.321289,-27.865854,-5.000000,1.890244,16.025000,-36.193752,2.550000,0.0,1.000000,0.000000,0.000000,0.000000
1782117360.111817,1859539,0.918457,-0.012207,-0.330566,-31.768293,-2.743902,4.512195,16.212500,-36.049999,2.587500,0.0,1.000000,0.000000,0.000000,0.000000
1782117360.121817,1859549,0.909668,-0.012695,-0.343750,-35.548782,-3.475610,2.560976,16.212500,-36.049999,2.587500,0.0,1.000000,0.000000,0.000000,0.000000
1782117360.131817,1859559,0.964844,-0.028809,-0.354492,-36.890244,-8.353659,1.768293,16.156250,-36.256252,2.881250,0.0,1.000000,0.000000,0.000000,0.000000
1782117360.141817,1859569,1.046875,-0.061035,-0.359375,-34.756100,-7.134147,4.695122,16.156250,-36.256252,2.881250,0.0,1.000000,0.000000,0.000000,0.000000
1782117360.152817,1859580,1.012207,-0.074219,-0.351562,-30.670732,1.097561,5.975610,16.225000,-36.331249,3.081250,0.0,1.000000,0.000000,0.000000,0.000000
1782117360.161817,1859589,0.936035,-0.078613,-0.341797,-26.707317,0.914634,8.231708,16.225000,-36.331249,3.081250,0.0,1.000000,0.000000,0.000000,0.000000
1782117360.171817,1859599,0.896973,-0.064453,-0.345703,-24.573172,-3.902439,9.817074,16.187500,-36.356251,3.287500,0.0,1.000000,0.000000,0.000000,0.000000
1782117360.181817,1859609,0.887207,-0.037598,-0.356445,-24.817074,-8.292683,9.878049,16.187500,-36.356251,3.287500,0.0,1.000000,0.000000,0.000000,0.000000
1782117360.192817,1859620,0.900391,-0.010742,-0.371582,-26.524391,-10.182927,7.987805,16.156250,-36.525002,3.400000,0.0,1.000000,0.000000,0.000000,0.000000
1782117360.201817,1859629,0.927734,0.005859,-0.389648,-27.439026,-10.731708,6.585366,16.156250,-36.525002,3.400000,0.0,1.000000,0.000000,0.000000,0.000000
1782117360.211817,1859639,0.963867,0.014160,-0.403809,-27.865854,-9.207317,4.634146,16.162500,-36.549999,3.443750,0.0,1.000000,0.000000,0.000000,0.000000
1782117360.221817,1859649,1.047363,-0.017090,-0.403809,-26.890245,-7.012195,6.158537,16.162500,-36.549999,3.443750,0.0,1.000000,0.000000,0.000000,0.000000
1782117360.231817,1859659,0.952148,-0.058105,-0.398438,-24.024391,2.743902,5.975610,16.331251,-36.456249,3.468750,0.0,1.000000,0.000000,0.000000,0.000000
1782117360.241817,1859669,0.902832,-0.100098,-0.391113,-15.365854,-0.060976,1.707317,16.331251,-36.456249,3.468750,0.0,1.000000,0.000000,0.000000,0.000000
1782117360.251817,1859679,0.870117,-0.191895,-0.381348,-6.768293,-2.195122,3.414634,16.237501,-36.750000,3.687500,0.0,1.000000,0.000000,0.000000,0.000000
1782117360.261817,1859689,0.794922,-0.242676,-0.423340,2.439024,-2.743902,3.597561,16.237501,-36.750000,3.687500,0.0,1.000000,0.000000,0.000000,0.000000
1782117360.272817,1859700,0.785645,-0.213379,-0.454590,6.951220,-8.841464,7.682927,16.318750,-36.706249,3.487500,0.0,1.000000,0.000000,0.000000,0.000000
1782117360.281817,1859709,0.799805,-0.124023,-0.509766,7.439024,-12.439025,9.878049,16.318750,-36.706249,3.487500,0.0,1.000000,0.000000,0.000000,0.000000
1782117360.292817,1859720,0.828613,0.004883,-0.540527,7.621952,-13.292684,5.426829,16.243750,-36.799999,3.143750,0.0,1.000000,0.000000,0.000000,0.000000
1782117360.301817,1859729,0.882324,0.053223,-0.552246,9.268292,-13.353659,0.609756,16.243750,-36.799999,3.143750,0.0,1.000000,0.000000,0.000000,0.000000
1782117360.313817,1859741,0.923828,0.064941,-0.532715,12.743903,-10.000000,-2.134146,16.293751,-36.799999,2.875000,0.0,1.000000,0.000000,0.000000,0.000000
1782117360.322817,1859750,0.930664,0.061523,-0.483398,12.682927,-5.975610,-0.121951,16.293751,-36.799999,2.875000,0.0,1.000000,0.000000,0.000000,0.000000
1782117360.331817,1859759,0.893555,0.075195,-0.458984,9.573171,-3.902439,1.524390,16.312500,-36.787502,2.637500,0.0,1.000000,0.000000,0.000000,0.000000
1782117360.341817,1859769,0.907227,0.107910,-0.447754,4.207317,-5.548780,4.329268,16.312500,-36.787502,2.637500,0.0,1.000000,0.000000,0.000000,0.000000
1782117360.351817,1859779,0.872070,0.147461,-0.454102,-3.231707,-2.743902,6.585366,16.250000,-36.868752,2.525000,0.0,1.000000,0.000000,0.000000,0.000000
1782117360.361817,1859789,0.806152,0.166016,-0.474609,-8.780488,-5.609756,3.048780,16.250000,-36.868752,2.525000,0.0,1.000000,0.000000,0.000000,0.000000
1782117360.371817,1859799,0.806641,0.129883,-0.488770,-13.475610,-13.780488,1.768293,16.331251,-36.831249,2.450000,0.0,1.000000,0.000000,0.000000,0.000000
1782117360.381817,1859809,0.815430,0.081055,-0.497559,-16.036585,-18.048780,0.304878,16.331251,-36.831249,2.450000,0.0,1.000000,0.000000,0.000000,0.000000
1782117360.392817,1859820,0.853516,0.020508,-0.494629,-17.560976,-20.548780,0.365854,16.381250,-36.887501,2.306250,0.0,1.000000,0.000000,0.000000,0.000000
1782117360.401817,1859829,0.873047,-0.025391,-0.503906,-18.719513,-19.573172,0.365854,16.381250,-36.887501,2.306250,0.0,1.000000,0.000000,0.000000,0.000000
1782117360.411817,1859839,0.878418,-0.056641,-0.512207,-18.536585,-17.682928,0.731707,16.531250,-36.756252,2.131250,0.0,1.000000,0.000000,0.000000,0.000000
1782117360.421817,1859849,0.929688,-0.062988,-0.505859,-17.682928,-16.463415,3.963415,16.531250,-36.756252,2.131250,0.0,1.000000,0.000000,0.000000,0.000000
1782117360.432817,1859860,0.890625,-0.049805,-0.503906,-15.975610,-10.548780,5.060976,16.518751,-37.000000,2.093750,0.0,1.000000,0.000000,0.000000,0.000000
1782117360.441817,1859869,0.842285,-0.038086,-0.504883,-11.524390,-10.365854,1.219512,16.518751,-37.000000,2.093750,0.0,1.000000,0.000000,0.000000,0.000000
1782117360.452817,1859880,0.880371,-0.043945,-0.510742,-7.804878,-14.085366,0.792683,16.618750,-36.856251,1.893750,0.0,1.000000,0.000000,0.000000,0.000000
1782117360.461817,1859889,0.911133,-0.034668,-0.500488,-4.756098,-11.768293,1.341463,16.618750,-36.856251,1.893750,0.0,1.000000,0.000000,0.000000,0.000000
1782117360.475817,1859903,0.904785,-0.045410,-0.463379,-1.036585,-7.073171,0.914634,16.587500,-37.043751,1.806250,0.0,1.000000,0.000000,0.000000,0.000000
1782117360.481817,1859909,0.904785,-0.045410,-0.463379,-1.036585,-7.073171,0.914634,16.587500,-37.043751,1.806250,0.0,1.000000,0.000000,0.000000,0.000000
1782117360.491817,1859919,0.890625,-0.050781,-0.471680,0.182927,-6.707317,1.463415,16.543751,-37.081249,1.637500,0.0,1.000000,0.000000,0.000000,0.000000
1782117360.502817,1859930,0.886230,-0.038574,-0.487793,0.426829,-7.134147,2.012195,16.543751,-37.081249,1.637500,0.0,1.000000,0.000000,0.000000,0.000000
1782117360.514817,1859942,0.884277,-0.024902,-0.490234,-0.121951,-5.121951,2.560976,16.556250,-37.125000,1.600000,0.0,1.000000,0.000000,0.000000,0.000000
1782117360.521817,1859949,0.884277,-0.024902,-0.490234,-0.121951,-5.121951,2.560976,16.556250,-37.125000,1.600000,0.0,1.000000,0.000000,0.000000,0.000000
1782117360.532817,1859960,0.888672,-0.023438,-0.476074,-0.121951,-4.573171,2.865854,16.625000,-37.106251,1.425000,0.0,1.000000,0.000000,0.000000,0.000000
1782117360.542817,1859970,0.884277,-0.023438,-0.472168,-0.792683,-3.597561,2.621951,16.625000,-37.106251,1.425000,0.0,1.000000,0.000000,0.000000,0.000000
1782117360.557817,1859985,0.888184,-0.036621,-0.493652,-2.012195,-3.658537,1.890244,16.512501,-37.187500,1.375000,0.0,1.000000,0.000000,0.000000,0.000000
1782117360.562817,1859990,0.888184,-0.036621,-0.493652,-2.012195,-3.658537,1.890244,16.512501,-37.187500,1.375000,0.0,1.000000,0.000000,0.000000,0.000000
1782117360.572817,1860000,0.888672,-0.042480,-0.500000,-2.012195,-3.414634,1.219512,16.806250,-36.700001,1.093750,0.0,1.000000,0.000000,0.000000,0.000000
1782117360.581817,1860009,0.881348,-0.048340,-0.502441,-1.768293,-2.804878,1.036585,16.806250,-36.700001,1.093750,0.0,1.000000,0.000000,0.000000,0.000000
1782117360.592817,1860020,0.876953,-0.054199,-0.508301,-0.304878,-2.987805,0.670732,16.618750,-37.137501,1.287500,0.0,1.000000,0.000000,0.000000,0.000000
1782117360.601817,1860029,0.868652,-0.042480,-0.500488,0.975610,-3.170732,0.060976,16.618750,-37.137501,1.287500,0.0,1.000000,0.000000,0.000000,0.000000
1782117360.611817,1860039,0.855469,-0.057617,-0.512207,3.353659,-3.231707,-0.731707,16.587500,-37.131252,1.262500,0.0,1.000000,0.000000,0.000000,0.000000
1782117360.621817,1860049,0.850586,-0.054199,-0.508301,5.731708,-4.207317,-1.280488,16.587500,-37.131252,1.262500,0.0,1.000000,0.000000,0.000000,0.000000
1782117360.633817,1860061,0.864258,-0.054688,-0.505371,7.743903,-4.756098,-2.439024,16.656250,-37.162502,1.162500,0.0,1.000000,0.000000,0.000000,0.000000
1782117360.641817,1860069,0.875977,-0.058594,-0.500977,10.304878,-3.963415,-3.292683,16.656250,-37.162502,1.162500,0.0,1.000000,0.000000,0.000000,0.000000
1782117360.652817,1860080,0.863770,-0.044922,-0.494629,13.719513,-3.475610,-3.658537,16.762501,-36.981251,0.931250,0.0,1.000000,0.000000,0.000000,0.000000
1782117360.661817,1860089,0.863770,-0.044922,-0.494629,13.719513,-3.475610,-3.658537,16.762501,-36.981251,0.931250,0.0,1.000000,0.000000,0.000000,0.000000
1782117360.675817,1860103,0.853516,-0.018066,-0.481934,12.987805,-4.451220,-4.207317,16.725000,-37.106251,0.825000,0.0,1.000000,0.000000,0.000000,0.000000
1782117360.681817,1860109,0.853516,-0.018066,-0.481934,12.987805,-4.451220,-4.207317,16.725000,-37.106251,0.825000,0.0,1.000000,0.000000,0.000000,0.000000
1782117360.691817,1860119,0.869141,-0.013184,-0.464844,11.646341,-5.182927,-4.390244,16.750000,-37.018749,0.662500,0.0,1.000000,0.000000,0.000000,0.000000
1782117360.702817,1860130,0.873047,-0.015137,-0.462402,11.097561,-5.670732,-4.207317,16.750000,-37.018749,0.662500,0.0,1.000000,0.000000,0.000000,0.000000
1782117360.712817,1860140,0.882812,0.001465,-0.448730,9.878049,-6.524390,-3.658537,16.781250,-37.087502,0.562500,0.0,1.000000,0.000000,0.000000,0.000000
1782117360.723817,1860151,0.887207,0.007324,-0.450195,7.560976,-5.975610,-3.780488,16.781250,-37.087502,0.562500,0.0,1.000000,0.000000,0.000000,0.000000
1782117360.732817,1860160,0.888184,0.010742,-0.453125,5.365854,-6.463415,-3.658537,16.850000,-36.956249,0.375000,0.0,1.000000,0.000000,0.000000,0.000000
1782117360.741817,1860169,0.892090,0.003418,-0.457520,3.475610,-6.890244,-3.231707,16.850000,-36.956249,0.375000,0.0,1.000000,0.000000,0.000000,0.000000
1782117360.752817,1860180,0.895020,-0.000488,-0.448242,1.768293,-6.829268,-3.170732,16.906250,-37.068752,0.300000,0.0,1.000000,0.000000,0.000000,0.000000
1782117360.761817,1860189,0.899414,-0.016113,-0.450195,1.219512,-7.012195,-3.109756,16.906250,-37.068752,0.300000,0.0,1.000000,0.000000,0.000000,0.000000
1782117360.771817,1860199,0.910156,-0.025879,-0.436523,1.036585,-6.951220,-2.926829,16.975000,-36.906250,0.075000,0.0,1.000000,0.000000,0.000000,0.000000
1782117360.781817,1860209,0.912598,-0.037109,-0.433105,0.365854,-6.768293,-2.195122,16.975000,-36.906250,0.075000,0.0,1.000000,0.000000,0.000000,0.000000
1782117360.794817,1860222,0.916992,-0.044922,-0.435547,-0.609756,-6.402439,-1.585366,16.937500,-37.081249,0.137500,0.0,1.000000,0.000000,0.000000,0.000000
1782117360.801817,1860229,0.918945,-0.041016,-0.433594,-1.524390,-5.792683,-1.097561,16.937500,-37.081249,0.137500,0.0,1.000000,0.000000,0.000000,0.000000
1782117360.811817,1860239,0.916992,-0.046387,-0.433105,-2.134146,-5.060976,-0.670732,16.993750,-37.018749,0.050000,0.0,1.000000,0.000000,0.000000,0.000000
1782117360.821817,1860249,0.918457,-0.053711,-0.427246,-1.951220,-4.756098,-0.182927,16.993750,-37.018749,0.050000,0.0,1.000000,0.000000,0.000000,0.000000
1782117360.833817,1860261,0.919922,-0.058105,-0.422852,-1.890244,-4.207317,0.243902,16.962500,-37.087502,0.037500,0.0,1.000000,0.000000,0.000000,0.000000
1782117360.841817,1860269,0.920410,-0.058105,-0.422363,-1.585366,-3.475610,0.487805,16.962500,-37.087502,0.037500,0.0,1.000000,0.000000,0.000000,0.000000
1782117360.851817,1860279,0.921875,-0.052734,-0.421875,-1.646341,-2.621951,0.670732,17.006250,-37.068752,-0.012500,0.0,1.000000,0.000000,0.000000,0.000000
1782117360.861817,1860289,0.916992,-0.047852,-0.424316,-1.951220,-1.646341,0.792683,17.006250,-37.068752,-0.012500,0.0,1.000000,0.000000,0.000000,0.000000
1782117360.874817,1860302,0.913086,-0.043945,-0.421875,-1.951220,-1.158537,0.914634,16.962500,-37.131252,-0.012500,0.0,1.000000,0.000000,0.000000,0.000000
1782117360.881817,1860309,0.911621,-0.038086,-0.421875,-1.951220,-0.670732,1.097561,16.962500,-37.131252,-0.012500,0.0,1.000000,0.000000,0.000000,0.000000
1782117360.891817,1860319,0.903809,-0.034180,-0.423340,-2.012195,0.000000,1.280488,17.000000,-36.981251,-0.056250,0.0,1.000000,0.000000,0.000000,0.000000
1782117360.901817,1860329,0.895996,-0.029785,-0.422852,-2.682927,0.182927,1.524390,17.000000,-36.981251,-0.056250,0.0,1.000000,0.000000,0.000000,0.000000
1782117360.912817,1860340,0.891602,-0.027832,-0.423828,-3.597561,0.000000,1.646341,16.906250,-37.200001,0.037500,0.0,1.000000,0.000000,0.000000,0.000000
1782117360.922817,1860350,0.892578,-0.027344,-0.424805,-5.121951,0.060976,1.646341,16.906250,-37.200001,0.037500,0.0,1.000000,0.000000,0.000000,0.000000
1782117360.931817,1860359,0.895996,-0.027832,-0.427246,-6.524390,0.243902,1.463415,16.931250,-37.081249,-0.043750,0.0,1.000000,0.000000,0.000000,0.000000
1782117360.942817,1860370,0.898926,-0.037598,-0.435547,-7.256098,0.426829,1.524390,16.931250,-37.081249,-0.043750,0.0,1.000000,0.000000,0.000000,0.000000
1782117360.954817,1860382,0.900391,-0.042480,-0.439453,-7.195122,0.548781,1.646341,16.875000,-37.268749,0.181250,0.0,1.000000,0.000000,0.000000,0.000000
1782117360.961817,1860389,0.896484,-0.042969,-0.446289,-7.195122,0.670732,1.829268,16.875000,-37.268749,0.181250,0.0,1.000000,0.000000,0.000000,0.000000
1782117360.971817,1860399,0.890625,-0.041504,-0.452637,-7.317073,0.548781,1.829268,16.893751,-37.218750,0.150000,0.0,1.000000,0.000000,0.000000,0.000000
1782117360.981817,1860409,0.888184,-0.038574,-0.458008,-7.073171,0.365854,1.402439,16.893751,-37.218750,0.150000,0.0,1.000000,0.000000,0.000000,0.000000
1782117360.991817,1860419,0.892090,-0.038574,-0.459961,-6.890244,0.182927,1.158537,16.906250,-37.306252,0.287500,0.0,1.000000,0.000000,0.000000,0.000000
1782117361.001817,1860429,0.895508,-0.033203,-0.458496,-6.402439,0.426829,0.975610,16.906250,-37.306252,0.287500,0.0,1.000000,0.000000,0.000000,0.000000
1782117361.011817,1860439,0.887695,-0.032715,-0.457031,-5.914634,0.853659,0.975610,17.043751,-37.037502,0.175000,0.0,1.000000,0.000000,0.000000,0.000000
1782117361.021817,1860449,0.881348,-0.033691,-0.464355,-5.609756,0.304878,0.914634,17.043751,-37.037502,0.175000,0.0,1.000000,0.000000,0.000000,0.000000
1782117361.031817,1860459,0.878906,-0.039062,-0.469727,-5.182927,-0.426829,0.792683,16.868750,-37.343750,0.375000,0.0,1.000000,0.000000,0.000000,0.000000
1782117361.042817,1860470,0.884277,-0.044434,-0.468750,-4.756098,-1.097561,0.914634,16.868750,-37.343750,0.375000,0.0,1.000000,0.000000,0.000000,0.000000
1782117361.051817,1860479,0.888672,-0.046387,-0.462891,-4.451220,-1.280488,1.219512,16.968750,-37.162502,0.325000,0.0,1.000000,0.000000,0.000000,0.000000
1782117361.062817,1860490,0.889160,-0.041016,-0.460938,-4.634146,-0.975610,1.341463,16.968750,-37.162502,0.325000,0.0,1.000000,0.000000,0.000000,0.000000
1782117361.071817,1860499,0.885742,-0.035156,-0.457520,-5.121951,-1.158537,1.463415,16.812500,-37.400002,0.443750,0.0,1.000000,0.000000,0.000000,0.000000
1782117361.081817,1860509,0.891113,-0.030762,-0.458496,-5.487805,-1.158537,1.707317,16.812500,-37.400002,0.443750,0.0,1.000000,0.000000,0.000000,0.000000
1782117361.092817,1860520,0.894531,-0.024414,-0.459961,-5.304878,-0.792683,1.463415,16.837500,-37.356251,0.437500,0.0,1.000000,0.000000,0.000000,0.000000
1782117361.101817,1860529,0.897949,-0.027344,-0.455566,-5.243903,-0.304878,1.280488,16.837500,-37.356251,0.437500,0.0,1.000000,0.000000,0.000000,0.000000
1782117361.111817,1860539,0.895996,-0.033203,-0.451660,-4.939024,0.121951,1.219512,16.762501,-37.443752,0.543750,0.0,1.000000,0.000000,0.000000,0.000000
1782117361.122817,1860550,0.895508,-0.036621,-0.448242,-4.451220,0.304878,1.341463,16.762501,-37.443752,0.543750,0.0,1.000000,0.000000,0.000000,0.000000
1782117361.132817,1860560,0.893555,-0.034668,-0.448242,-4.329268,0.426829,1.463415,16.962500,-37.156250,0.375000,0.0,1.000000,0.000000,0.000000,0.000000
1782117361.141817,1860569,0.894043,-0.028809,-0.455078,-4.878049,0.365854,1.524390,16.962500,-37.156250,0.375000,0.0,1.000000,0.000000,0.000000,0.000000
1782117361.151817,1860579,0.890137,-0.019531,-0.461426,-5.914634,0.304878,1.341463,16.912500,-37.237499,0.506250,0.0,1.000000,0.000000,0.000000,0.000000
1782117361.161817,1860589,0.895996,-0.018555,-0.464355,-6.829268,0.304878,1.158537,16.912500,-37.237499,0.506250,0.0,1.000000,0.000000,0.000000,0.000000
1782117361.171817,1860599,0.893066,-0.020996,-0.463379,-7.500000,0.792683,1.402439,16.962500,-37.212502,0.487500,0.0,1.000000,0.000000,0.000000,0.000000
1782117361.181817,1860609,0.887695,-0.024902,-0.457520,-7.621952,0.853659,1.341463,16.962500,-37.212502,0.487500,0.0,1.000000,0.000000,0.000000,0.000000
1782117361.191817,1860619,0.887695,-0.028809,-0.452148,-7.743903,0.731707,1.524390,16.825001,-37.406250,0.737500,0.0,1.000000,0.000000,0.000000,0.000000
1782117361.201817,1860629,0.886719,-0.027344,-0.457520,-7.621952,0.670732,1.219512,16.825001,-37.406250,0.737500,0.0,1.000000,0.000000,0.000000,0.000000
1782117361.211817,1860639,0.888184,-0.027832,-0.461426,-7.865854,0.548781,1.158537,16.756250,-37.443752,0.825000,0.0,1.000000,0.000000,0.000000,0.000000
1782117361.221817,1860649,0.890137,-0.027344,-0.464844,-8.353659,0.548781,1.341463,16.756250,-37.443752,0.825000,0.0,1.000000,0.000000,0.000000,0.000000
1782117361.231817,1860659,0.888672,-0.026367,-0.463867,-8.536586,0.731707,1.402439,16.700001,-37.581249,0.918750,0.0,1.000000,0.000000,0.000000,0.000000
1782117361.243817,1860671,0.884277,-0.035156,-0.462402,-8.414635,1.036585,1.402439,16.775000,-37.475002,0.987500,0.0,1.000000,0.000000,0.000000,0.000000
1782117361.252817,1860680,0.878906,-0.046387,-0.463867,-7.621952,1.219512,1.341463,16.775000,-37.475002,0.987500,0.0,1.000000,0.000000,0.000000,0.000000
1782117361.261817,1860689,0.883789,-0.055664,-0.465332,-6.524390,0.975610,1.341463,16.725000,-37.612499,1.118750,0.0,1.000000,0.000000,0.000000,0.000000
1782117361.271817,1860699,0.889160,-0.057129,-0.464844,-5.548780,1.097561,1.463415,16.725000,-37.612499,1.118750,0.0,1.000000,0.000000,0.000000,0.000000
1782117361.282817,1860710,0.892578,-0.047363,-0.461914,-5.304878,1.524390,1.707317,16.718750,-37.562500,1.193750,0.0,1.000000,0.000000,0.000000,0.000000
1782117361.291817,1860719,0.893066,-0.034668,-0.458008,-5.182927,1.951220,1.585366,16.718750,-37.562500,1.193750,0.0,1.000000,0.000000,0.000000,0.000000
1782117361.301817,1860729,0.887695,-0.025391,-0.454102,-5.182927,2.012195,1.524390,16.587500,-37.643749,1.275000,0.0,1.000000,0.000000,0.000000,0.000000
1782117361.311817,1860739,0.890625,-0.023926,-0.451172,-4.817073,1.890244,1.341463,16.587500,-37.643749,1.275000,0.0,1.000000,0.000000,0.000000,0.000000
1782117361.322817,1860750,0.892090,-0.026367,-0.448242,-4.207317,1.890244,1.097561,16.650000,-37.593750,1.325000,0.0,1.000000,0.000000,0.000000,0.000000
1782117361.331817,1860759,0.895508,-0.030273,-0.442383,-3.597561,1.951220,0.975610,16.650000,-37.593750,1.325000,0.0,1.000000,0.000000,0.000000,0.000000
1782117361.341817,1860769,0.900879,-0.035156,-0.437500,-3.170732,2.134146,0.914634,16.587500,-37.693752,1.412500,0.0,1.000000,0.000000,0.000000,0.000000
1782117361.352817,1860780,0.901855,-0.037598,-0.438477,-2.682927,2.500000,0.792683,16.587500,-37.693752,1.412500,0.0,1.000000,0.000000,0.000000,0.000000
1782117361.361817,1860789,0.900879,-0.036133,-0.437988,-2.134146,2.804878,0.609756,16.643751,-37.581249,1.412500,0.0,1.000000,0.000000,0.000000,0.000000
1782117361.371817,1860799,0.900391,-0.035645,-0.437500,-1.524390,2.804878,0.304878,16.643751,-37.581249,1.412500,0.0,1.000000,0.000000,0.000000,0.000000
1782117361.381817,1860809,0.901367,-0.037109,-0.436523,-0.975610,2.987805,0.121951,16.562500,-37.756252,1.606250,0.0,1.000000,0.000000,0.000000,0.000000
1782117361.391817,1860819,0.897949,-0.038086,-0.438965,-0.731707,3.170732,0.121951,16.562500,-37.756252,1.606250,0.0,1.000000,0.000000,0.000000,0.000000
1782117361.401817,1860829,0.894531,-0.035645,-0.439941,-0.426829,3.170732,0.000000,16.575001,-37.631252,1.625000,0.0,1.000000,0.000000,0.000000,0.000000
1782117361.411817,1860839,0.895020,-0.033691,-0.437500,0.060976,2.987805,-0.243902,16.575001,-37.631252,1.625000,0.0,1.000000,0.000000,0.000000,0.000000
1782117361.421817,1860849,0.898438,-0.034180,-0.433105,0.792683,2.865854,-0.487805,16.531250,-37.668751,1.668750,0.0,1.000000,0.000000,0.000000,0.000000
1782117361.431817,1860859,0.901855,-0.033203,-0.431152,1.280488,2.804878,-0.548781,16.531250,-37.668751,1.668750,0.0,1.000000,0.000000,0.000000,0.000000
1782117361.441817,1860869,0.901855,-0.032227,-0.432129,1.219512,2.987805,-0.548781,16.643751,-37.512501,1.618750,0.0,1.000000,0.000000,0.000000,0.000000
1782117361.451817,1860879,0.895020,-0.028320,-0.436035,0.792683,2.926829,-0.426829,16.643751,-37.512501,1.618750,0.0,1.000000,0.000000,0.000000,0.000000
1782117361.461817,1860889,0.888672,-0.024902,-0.438477,0.487805,2.500000,-0.548781,16.506250,-37.700001,1.812500,0.0,1.000000,0.000000,0.000000,0.000000
1782117361.471817,1860899,0.889160,-0.025879,-0.437988,0.487805,1.890244,-0.731707,16.506250,-37.700001,1.812500,0.0,1.000000,0.000000,0.000000,0.000000
1782117361.482817,1860910,0.894531,-0.029785,-0.434082,0.487805,1.341463,-0.731707,16.550001,-37.643749,1.800000,0.0,1.000000,0.000000,0.000000,0.000000
1782117361.492817,1860920,0.898926,-0.031250,-0.430664,0.426829,1.219512,-0.548781,16.550001,-37.643749,1.800000,0.0,1.000000,0.000000,0.000000,0.000000
1782117361.502817,1860930,0.896973,-0.031250,-0.430176,0.304878,1.036585,-0.426829,16.525000,-37.637501,1.781250,0.0,1.000000,0.000000,0.000000,0.000000
1782117361.511817,1860939,0.898926,-0.028320,-0.432617,0.000000,0.670732,-0.365854,16.525000,-37.637501,1.781250,0.0,1.000000,0.000000,0.000000,0.000000
1782117361.522817,1860950,0.908203,-0.027344,-0.432617,-0.243902,0.487805,-0.609756,16.718750,-37.356251,1.637500,0.0,1.000000,0.000000,0.000000,0.000000
1782117361.532817,1860960,0.908203,-0.027344,-0.432617,-0.243902,0.487805,-0.609756,16.718750,-37.356251,1.637500,0.0,1.000000,0.000000,0.000000,0.000000
1782117361.541817,1860969,0.910645,-0.029297,-0.431152,0.000000,0.609756,-0.670732,16.512501,-37.674999,1.856250,0.0,1.000000,0.000000,0.000000,0.000000
1782117361.551817,1860979,0.913086,-0.030762,-0.426270,0.304878,0.914634,-0.731707,16.512501,-37.674999,1.856250,0.0,1.000000,0.000000,0.000000,0.000000
1782117361.561817,1860989,0.910156,-0.032715,-0.424805,0.548781,1.158537,-0.487805,16.537500,-37.556252,1.831250,0.0,1.000000,0.000000,0.000000,0.000000
1782117361.571817,1860999,0.905273,-0.031250,-0.425781,0.487805,1.219512,-0.243902,16.537500,-37.556252,1.831250,0.0,1.000000,0.000000,0.000000,0.000000
1782117361.581817,1861009,0.902344,-0.027344,-0.426270,0.243902,0.670732,-0.182927,16.493750,-37.656250,1.850000,0.0,1.000000,0.000000,0.000000,0.000000
1782117361.591817,1861019,0.904297,-0.025879,-0.425781,-0.182927,0.487805,0.000000,16.493750,-37.656250,1.850000,0.0,1.000000,0.000000,0.000000,0.000000
1782117361.601817,1861029,0.910645,-0.023926,-0.423340,-0.914634,0.670732,0.000000,16.512501,-37.606251,1.831250,0.0,1.000000,0.000000,0.000000,0.000000
1782117361.611817,1861039,0.907715,-0.027832,-0.423340,-1.036585,0.975610,0.060976,16.512501,-37.606251,1.831250,0.0,1.000000,0.000000,0.000000,0.000000
1782117361.621817,1861049,0.905762,-0.031250,-0.425781,-1.219512,1.097561,0.182927,16.487501,-37.637501,1.912500,0.0,1.000000,0.000000,0.000000,0.000000
1782117361.631817,1861059,0.901855,-0.032715,-0.427734,-1.341463,1.097561,0.182927,16.487501,-37.637501,1.912500,0.0,1.000000,0.000000,0.000000,0.000000
1782117361.645817,1861073,0.900879,-0.033203,-0.428223,-1.341463,0.975610,0.121951,16.475000,-37.662502,1.868750,0.0,1.000000,0.000000,0.000000,0.000000
1782117361.652817,1861080,0.899902,-0.034180,-0.428711,-1.402439,0.853659,0.060976,16.475000,-37.662502,1.868750,0.0,1.000000,0.000000,0.000000,0.000000
1782117361.661817,1861089,0.901367,-0.035156,-0.429688,-1.280488,0.792683,0.060976,16.487501,-37.712502,2.006250,0.0,1.000000,0.000000,0.000000,0.000000
1782117361.671817,1861099,0.900391,-0.036133,-0.430176,-0.975610,0.792683,0.060976,16.487501,-37.712502,2.006250,0.0,1.000000,0.000000,0.000000,0.000000
1782117361.681817,1861109,0.899414,-0.036621,-0.430176,-0.548781,0.731707,0.060976,16.437500,-37.612499,2.006250,0.0,1.000000,0.000000,0.000000,0.000000
1782117361.691817,1861119,0.899414,-0.033691,-0.432617,-0.182927,0.731707,0.060976,16.437500,-37.612499,2.006250,0.0,1.000000,0.000000,0.000000,0.000000
1782117361.701817,1861129,0.899414,-0.030762,-0.436035,0.060976,0.670732,-0.121951,16.456251,-37.618752,2.012500,0.0,1.000000,0.000000,0.000000,0.000000
1782117361.712817,1861140,0.898438,-0.027832,-0.437988,0.060976,0.548781,-0.304878,16.456251,-37.618752,2.012500,0.0,1.000000,0.000000,0.000000,0.000000
1782117361.721817,1861149,0.900391,-0.024902,-0.439453,0.060976,0.670732,-0.548781,16.475000,-37.600002,1.943750,0.0,1.000000,0.000000,0.000000,0.000000
1782117361.731817,1861159,0.899902,-0.024902,-0.438477,0.304878,0.670732,-0.731707,16.475000,-37.600002,1.943750,0.0,1.000000,0.000000,0.000000,0.000000
1782117361.742817,1861170,0.900391,-0.025391,-0.440430,0.487805,0.548781,-0.792683,16.468750,-37.637501,2.037500,0.0,1.000000,0.000000,0.000000,0.000000
1782117361.751817,1861179,0.896973,-0.026855,-0.440918,0.548781,0.731707,-0.670732,16.468750,-37.637501,2.037500,0.0,1.000000,0.000000,0.000000,0.000000
1782117361.761817,1861189,0.891602,-0.024902,-0.440918,0.487805,0.426829,-0.548781,16.450001,-37.643749,2.075000,0.0,1.000000,0.000000,0.000000,0.000000
1782117361.771817,1861199,0.895020,-0.024414,-0.439941,0.426829,0.000000,-0.548781,16.450001,-37.643749,2.075000,0.0,1.000000,0.000000,0.000000,0.000000
1782117361.781817,1861209,0.900879,-0.023926,-0.440918,0.182927,-0.121951,-0.487805,16.475000,-37.618752,2.025000,0.0,1.000000,0.000000,0.000000,0.000000
1782117361.791817,1861219,0.903809,-0.026855,-0.437012,0.060976,0.243902,-0.426829,16.475000,-37.618752,2.025000,0.0,1.000000,0.000000,0.000000,0.000000
1782117361.801817,1861229,0.899902,-0.028809,-0.433594,0.243902,0.609756,-0.426829,16.493750,-37.643749,2.087500,0.0,1.000000,0.000000,0.000000,0.000000
1782117361.811817,1861239,0.898926,-0.030762,-0.434570,0.487805,0.670732,-0.426829,16.493750,-37.643749,2.087500,0.0,1.000000,0.000000,0.000000,0.000000
1782117361.821817,1861249,0.896973,-0.031738,-0.435059,0.731707,0.853659,-0.487805,16.418751,-37.637501,2.112500,0.0,1.000000,0.000000,0.000000,0.000000
1782117361.831817,1861259,0.896484,-0.031250,-0.437500,0.975610,0.731707,-0.609756,16.418751,-37.637501,2.112500,0.0,1.000000,0.000000,0.000000,0.000000
1782117361.841817,1861269,0.902344,-0.031738,-0.436035,1.158537,0.609756,-0.548781,16.556250,-37.431252,2.012500,0.0,1.000000,0.000000,0.000000,0.000000
1782117361.851817,1861279,0.904297,-0.029785,-0.432617,1.341463,0.670732,-0.731707,16.556250,-37.431252,2.012500,0.0,1.000000,0.000000,0.000000,0.000000
1782117361.861817,1861289,0.902832,-0.030273,-0.433594,1.280488,0.792683,-0.609756,16.493750,-37.600002,2.081250,0.0,1.000000,0.000000,0.000000,0.000000
1782117361.872817,1861300,0.899902,-0.028809,-0.434082,1.280488,0.792683,-0.609756,16.493750,-37.600002,2.081250,0.0,1.000000,0.000000,0.000000,0.000000
1782117361.882817,1861310,0.897461,-0.024902,-0.434570,1.036585,0.609756,-0.609756,16.506250,-37.625000,2.112500,0.0,1.000000,0.000000,0.000000,0.000000
1782117361.892817,1861320,0.896484,-0.025391,-0.434082,0.670732,0.365854,-0.670732,16.506250,-37.625000,2.112500,0.0,1.000000,0.000000,0.000000,0.000000
1782117361.902817,1861330,0.898438,-0.028809,-0.434570,0.365854,0.304878,-0.670732,16.481251,-37.600002,2.093750,0.0,1.000000,0.000000,0.000000,0.000000
1782117361.912817,1861340,0.899902,-0.032715,-0.435059,0.304878,0.243902,-0.670732,16.481251,-37.600002,2.093750,0.0,1.000000,0.000000,0.000000,0.000000
1782117361.921817,1861349,0.899414,-0.036621,-0.434082,0.304878,0.182927,-0.548781,16.437500,-37.575001,2.125000,0.0,1.000000,0.000000,0.000000,0.000000
1782117361.932817,1861360,0.901367,-0.037598,-0.434570,0.304878,0.060976,-0.365854,16.437500,-37.575001,2.125000,0.0,1.000000,0.000000,0.000000,0.000000
1782117361.942817,1861370,0.903320,-0.035645,-0.434570,0.304878,0.121951,-0.365854,16.587500,-37.412502,1.975000,0.0,1.000000,0.000000,0.000000,0.000000
1782117361.951817,1861379,0.903809,-0.034180,-0.431641,0.304878,0.365854,-0.487805,16.587500,-37.412502,1.975000,0.0,1.000000,0.000000,0.000000,0.000000
1782117361.962817,1861390,0.906738,-0.032715,-0.429199,0.426829,0.487805,-0.548781,16.418751,-37.631252,2.162500,0.0,1.000000,0.000000,0.000000,0.000000
1782117361.971817,1861399,0.906738,-0.032227,-0.427246,0.487805,0.914634,-0.548781,16.418751,-37.631252,2.162500,0.0,1.000000,0.000000,0.000000,0.000000
1782117361.981817,1861409,0.902832,-0.032715,-0.427734,0.487805,0.975610,-0.487805,16.437500,-37.512501,2.081250,0.0,1.000000,0.000000,0.000000,0.000000
1782117361.991817,1861419,0.902344,-0.031738,-0.429688,0.487805,0.792683,-0.426829,16.437500,-37.512501,2.081250,0.0,1.000000,0.000000,0.000000,0.000000
1782117362.001817,1861429,0.902832,-0.028809,-0.432617,0.365854,0.609756,-0.548781,16.437500,-37.556252,2.181250,0.0,1.000000,0.000000,0.000000,0.000000
1782117362.011817,1861439,0.902344,-0.025879,-0.434082,0.365854,0.731707,-0.670732,16.437500,-37.556252,2.181250,0.0,1.000000,0.000000,0.000000,0.000000
1782117362.021817,1861449,0.900879,-0.023926,-0.433594,0.182927,0.792683,-0.731707,16.443750,-37.568752,2.181250,0.0,1.000000,0.000000,0.000000,0.000000
1782117362.031817,1861459,0.899902,-0.024414,-0.433105,0.060976,0.853659,-0.731707,16.443750,-37.568752,2.181250,0.0,1.000000,0.000000,0.000000,0.000000
1782117362.042817,1861470,0.898926,-0.026367,-0.431641,-0.121951,0.914634,-0.609756,16.443750,-37.525002,2.156250,0.0,1.000000,0.000000,0.000000,0.000000
1782117362.051817,1861479,0.895996,-0.026367,-0.431152,-0.243902,0.731707,-0.487805,16.443750,-37.525002,2.156250,0.0,1.000000,0.000000,0.000000,0.000000
1782117362.061817,1861489,0.897461,-0.026367,-0.435059,-0.365854,0.548781,-0.548781,16.468750,-37.581249,2.193750,0.0,1.000000,0.000000,0.000000,0.000000
1782117362.071817,1861499,0.901367,-0.026367,-0.438965,-0.365854,0.548781,-0.670732,16.468750,-37.581249,2.193750,0.0,1.000000,0.000000,0.000000,0.000000
1782117362.081817,1861509,0.903809,-0.026367,-0.437988,-0.304878,0.670732,-0.670732,16.412500,-37.568752,2.175000,0.0,1.000000,0.000000,0.000000,0.000000
1782117362.091817,1861519,0.901855,-0.025391,-0.435547,-0.243902,1.036585,-0.609756,16.412500,-37.568752,2.175000,0.0,1.000000,0.000000,0.000000,0.000000
1782117362.101817,1861529,0.901367,-0.028809,-0.432617,0.060976,1.219512,-0.609756,16.500000,-37.468750,2.131250,0.0,1.000000,0.000000,0.000000,0.000000
1782117362.111817,1861539,0.897949,-0.028320,-0.432129,0.243902,1.219512,-0.670732,16.500000,-37.468750,2.131250,0.0,1.000000,0.000000,0.000000,0.000000
1782117362.122817,1861550,0.898438,-0.027344,-0.431152,0.426829,0.975610,-0.670732,16.450001,-37.543751,2.206250,0.0,1.000000,0.000000,0.000000,0.000000
1782117362.132817,1861560,0.898926,-0.025879,-0.432617,0.426829,0.792683,-0.670732,16.450001,-37.543751,2.206250,0.0,1.000000,0.000000,0.000000,0.000000
1782117362.142817,1861570,0.902832,-0.025879,-0.435059,0.304878,0.670732,-0.609756,16.456251,-37.543751,2.206250,0.0,1.000000,0.000000,0.000000,0.000000
1782117362.151817,1861579,0.904297,-0.025391,-0.433105,0.182927,0.731707,-0.609756,16.456251,-37.543751,2.206250,0.0,1.000000,0.000000,0.000000,0.000000
1782117362.161817,1861589,0.903320,-0.026855,-0.431152,0.243902,0.975610,-0.609756,16.443750,-37.575001,2.275000,0.0,1.000000,0.000000,0.000000,0.000000
1782117362.171817,1861599,0.903809,-0.025879,-0.430176,0.243902,1.097561,-0.548781,16.443750,-37.575001,2.275000,0.0,1.000000,0.000000,0.000000,0.000000
1782117362.181817,1861609,0.903809,-0.027344,-0.431641,0.243902,1.280488,-0.609756,16.631250,-37.137501,2.068750,0.0,1.000000,0.000000,0.000000,0.000000
1782117362.191817,1861619,0.903809,-0.027832,-0.429688,0.243902,1.402439,-0.731707,16.631250,-37.137501,2.068750,0.0,1.000000,0.000000,0.000000,0.000000
1782117362.203817,1861631,0.901855,-0.028320,-0.427734,0.182927,1.219512,-0.609756,16.393751,-37.581249,2.312500,0.0,1.000000,0.000000,0.000000,0.000000
1782117362.212817,1861640,0.902832,-0.029785,-0.427246,0.182927,1.219512,-0.548781,16.393751,-37.581249,2.312500,0.0,1.000000,0.000000,0.000000,0.000000
1782117362.221817,1861649,0.903320,-0.028320,-0.426270,0.182927,1.219512,-0.548781,16.462500,-37.493752,2.343750,0.0,1.000000,0.000000,0.000000,0.000000
1782117362.231817,1861659,0.904297,-0.029785,-0.427246,0.000000,1.280488,-0.426829,16.462500,-37.493752,2.343750,0.0,1.000000,0.000000,0.000000,0.000000
1782117362.242817,1861670,0.901367,-0.029785,-0.426270,-0.243902,1.524390,-0.304878,16.387501,-37.562500,2.368750,0.0,1.000000,0.000000,0.000000,0.000000
1782117362.251817,1861679,0.899902,-0.029297,-0.425293,-0.365854,1.463415,-0.304878,16.387501,-37.562500,2.368750,0.0,1.000000,0.000000,0.000000,0.000000
1782117362.261817,1861689,0.899414,-0.030273,-0.422852,-0.304878,1.097561,-0.426829,16.418751,-37.493752,2.356250,0.0,1.000000,0.000000,0.000000,0.000000
1782117362.271817,1861699,0.904297,-0.034180,-0.422363,-0.304878,0.914634,-0.304878,16.418751,-37.493752,2.356250,0.0,1.000000,0.000000,0.000000,0.000000
1782117362.283817,1861711,0.908203,-0.035156,-0.424316,-0.304878,1.097561,-0.304878,16.400000,-37.556252,2.406250,0.0,1.000000,0.000000,0.000000,0.000000
1782117362.291817,1861719,0.910156,-0.034668,-0.421875,-0.365854,1.402439,-0.182927,16.400000,-37.556252,2.406250,0.0,1.000000,0.000000,0.000000,0.000000
1782117362.302817,1861730,0.911621,-0.030273,-0.421387,-0.670732,1.768293,0.000000,16.437500,-37.450001,2.368750,0.0,1.000000,0.000000,0.000000,0.000000
1782117362.312817,1861740,0.910645,-0.028320,-0.420410,-0.853659,2.012195,0.000000,16.437500,-37.450001,2.368750,0.0,1.000000,0.000000,0.000000,0.000000
1782117362.322817,1861750,0.909668,-0.027832,-0.418945,-0.792683,2.195122,0.060976,16.368750,-37.549999,2.456250,0.0,1.000000,0.000000,0.000000,0.000000
1782117362.331817,1861759,0.910156,-0.031250,-0.417969,-0.487805,2.378049,0.060976,16.368750,-37.549999,2.456250,0.0,1.000000,0.000000,0.000000,0.000000
1782117362.342817,1861770,0.909180,-0.035645,-0.416016,-0.243902,2.621951,0.121951,16.331251,-37.549999,2.543750,0.0,1.000000,0.000000,0.000000,0.000000
1782117362.351817,1861779,0.910645,-0.040039,-0.415039,0.060976,2.804878,0.304878,16.331251,-37.549999,2.543750,0.0,1.000000,0.000000,0.000000,0.000000
1782117362.363817,1861791,0.910156,-0.039062,-0.418945,0.182927,3.109756,0.487805,16.337500,-37.518749,2.600000,0.0,1.000000,0.000000,0.000000,0.000000
1782117362.371817,1861799,0.907227,-0.034180,-0.422852,0.121951,3.231707,0.487805,16.337500,-37.518749,2.600000,0.0,1.000000,0.000000,0.000000,0.000000
1782117362.381817,1861809,0.903320,-0.029297,-0.428711,0.000000,3.048780,0.365854,16.287500,-37.518749,2.612500,0.0,1.000000,0.000000,0.000000,0.000000
1782117362.391817,1861819,0.901367,-0.024414,-0.431641,-0.182927,2.743902,0.121951,16.287500,-37.518749,2.612500,0.0,1.000000,0.000000,0.000000,0.000000
1782117362.402817,1861830,0.898438,-0.022949,-0.433594,-0.670732,2.500000,0.000000,16.318750,-37.581249,2.643750,0.0,1.000000,0.000000,0.000000,0.000000
1782117362.412817,1861840,0.895020,-0.021973,-0.434570,-1.036585,2.073171,-0.060976,16.318750,-37.581249,2.643750,0.0,1.000000,0.000000,0.000000,0.000000
1782117362.421817,1861849,0.894531,-0.023438,-0.435059,-1.402439,1.585366,-0.182927,16.362501,-37.381252,2.581250,0.0,1.000000,0.000000,0.000000,0.000000
1782117362.431817,1861859,0.895020,-0.020020,-0.433594,-1.707317,1.158537,-0.182927,16.362501,-37.381252,2.581250,0.0,1.000000,0.000000,0.000000,0.000000
1782117362.442817,1861870,0.897461,-0.017090,-0.431641,-2.195122,0.670732,-0.243902,16.275000,-37.512501,2.725000,0.0,1.000000,0.000000,0.000000,0.000000
1782117362.451817,1861879,0.901367,-0.015625,-0.427734,-2.500000,0.304878,-0.365854,16.275000,-37.512501,2.725000,0.0,1.000000,0.000000,0.000000,0.000000
1782117362.461817,1861889,0.905762,-0.018555,-0.427734,-2.621951,0.182927,-0.426829,16.275000,-37.468750,2.718750,0.0,1.000000,0.000000,0.000000,0.000000
1782117362.471817,1861899,0.907227,-0.020996,-0.423340,-2.621951,0.121951,-0.487805,16.275000,-37.468750,2.718750,0.0,1.000000,0.000000,0.000000,0.000000
1782117362.483817,1861911,0.910156,-0.027832,-0.417480,-2.012195,0.548781,-0.487805,16.237501,-37.537502,2.768750,0.0,1.000000,0.000000,0.000000,0.000000
1782117362.491817,1861919,0.910156,-0.027832,-0.417480,-2.012195,0.548781,-0.487805,16.237501,-37.537502,2.768750,0.0,1.000000,0.000000,0.000000,0.000000
1782117362.502817,1861930,0.908203,-0.028320,-0.417480,-1.646341,0.548781,-0.426829,16.287500,-37.450001,2.787500,0.0,1.000000,0.000000,0.000000,0.000000
1782117362.511817,1861939,0.907227,-0.027344,-0.421875,-0.731707,0.548781,-0.548781,16.287500,-37.450001,2.787500,0.0,1.000000,0.000000,0.000000,0.000000
1782117362.523817,1861951,0.905273,-0.028809,-0.425293,-0.243902,0.365854,-0.792683,16.256250,-37.387501,2.787500,0.0,1.000000,0.000000,0.000000,0.000000
1782117362.531817,1861959,0.905273,-0.026367,-0.427246,0.426829,0.121951,-0.975610,16.256250,-37.387501,2.787500,0.0,1.000000,0.000000,0.000000,0.000000
1782117362.541817,1861969,0.904785,-0.024902,-0.429199,1.097561,0.060976,-1.158537,16.406250,-37.143749,2.600000,0.0,1.000000,0.000000,0.000000,0.000000
1782117362.551817,1861979,0.904297,-0.024414,-0.428223,1.768293,0.304878,-1.402439,16.406250,-37.143749,2.600000,0.0,1.000000,0.000000,0.000000,0.000000
1782117362.561817,1861989,0.908203,-0.021973,-0.425781,2.256098,0.487805,-1.585366,16.187500,-37.518749,2.837500,0.0,1.000000,0.000000,0.000000,0.000000
1782117362.572817,1862000,0.907715,-0.021484,-0.424805,2.560976,0.731707,-1.646341,16.187500,-37.518749,2.837500,0.0,1.000000,0.000000,0.000000,0.000000
1782117362.582817,1862010,0.906250,-0.017578,-0.422852,2.560976,0.731707,-1.524390,16.243750,-37.431252,2.781250,0.0,1.000000,0.000000,0.000000,0.000000
1782117362.592817,1862020,0.907227,-0.016602,-0.423828,2.439024,0.487805,-1.402439,16.243750,-37.431252,2.781250,0.0,1.000000,0.000000,0.000000,0.000000
1782117362.602817,1862030,0.908203,-0.013672,-0.423340,2.195122,0.304878,-1.097561,16.218750,-37.450001,2.787500,0.0,1.000000,0.000000,0.000000,0.000000
1782117362.611817,1862039,0.911133,-0.011230,-0.420410,1.585366,0.304878,-0.731707,16.218750,-37.450001,2.787500,0.0,1.000000,0.000000,0.000000,0.000000
1782117362.621817,1862049,0.907227,-0.007812,-0.416504,0.609756,0.609756,-0.304878,16.237501,-37.350002,2.756250,0.0,1.000000,0.000000,0.000000,0.000000
1782117362.631817,1862059,0.903320,-0.006836,-0.415039,-0.365854,0.609756,0.060976,16.237501,-37.350002,2.756250,0.0,1.000000,0.000000,0.000000,0.000000
1782117362.642817,1862070,0.903809,-0.007324,-0.415039,-1.219512,0.609756,0.182927,16.225000,-37.443752,2.837500,0.0,1.000000,0.000000,0.000000,0.000000
1782117362.651817,1862079,0.910156,-0.010254,-0.415527,-1.585366,0.487805,0.182927,16.225000,-37.443752,2.837500,0.0,1.000000,0.000000,0.000000,0.000000
1782117362.662817,1862090,0.915039,-0.013184,-0.416504,-1.951220,0.914634,0.182927,16.231251,-37.325001,2.725000,0.0,1.000000,0.000000,0.000000,0.000000
1782117362.671817,1862099,0.910645,-0.020508,-0.418945,-2.073171,1.341463,0.548781,16.231251,-37.325001,2.725000,0.0,1.000000,0.000000,0.000000,0.000000
1782117362.684817,1862112,0.906250,-0.025391,-0.421875,-1.951220,1.524390,0.731707,16.175001,-37.512501,2.875000,0.0,1.000000,0.000000,0.000000,0.000000
1782117362.692817,1862120,0.906250,-0.026367,-0.423828,-1.524390,1.524390,0.792683,16.175001,-37.512501,2.875000,0.0,1.000000,0.000000,0.000000,0.000000
1782117362.701817,1862129,0.907227,-0.029785,-0.422852,-1.036585,1.524390,0.792683,16.131250,-37.381252,2.868750,0.0,1.000000,0.000000,0.000000,0.000000
1782117362.711817,1862139,0.908691,-0.033203,-0.421875,-0.487805,1.585366,0.853659,16.131250,-37.381252,2.868750,0.0,1.000000,0.000000,0.000000,0.000000
1782117362.723817,1862151,0.910156,-0.031250,-0.417969,-0.304878,1.768293,1.219512,16.106251,-37.537502,2.937500,0.0,1.000000,0.000000,0.000000,0.000000
1782117362.735817,1862163,0.909668,-0.028320,-0.415527,-0.487805,1.829268,1.524390,16.118750,-37.381252,2.912500,0.0,1.000000,0.000000,0.000000,0.000000
1782117362.742817,1862170,0.910156,-0.021973,-0.414062,-0.914634,2.012195,1.707317,16.118750,-37.381252,2.912500,0.0,1.000000,0.000000,0.000000,0.000000
1782117362.751817,1862179,0.912109,-0.019531,-0.416016,-1.402439,2.073171,1.646341,16.118750,-37.381252,2.912500,0.0,1.000000,0.000000,0.000000,0.000000
1782117362.762817,1862190,0.916992,-0.017578,-0.414062,-1.890244,2.256098,1.524390,16.050001,-37.493752,2.975000,0.0,1.000000,0.000000,0.000000,0.000000
1782117362.771817,1862199,0.916016,-0.016602,-0.414062,-2.134146,2.743902,1.585366,16.050001,-37.493752,2.975000,0.0,1.000000,0.000000,0.000000,0.000000
1782117362.781817,1862209,0.916992,-0.019043,-0.413086,-2.256098,2.926829,1.646341,16.087500,-37.275002,2.918750,0.0,1.000000,0.000000,0.000000,0.000000
1782117362.791817,1862219,0.921387,-0.020996,-0.407715,-2.560976,3.109756,1.829268,16.087500,-37.275002,2.918750,0.0,1.000000,0.000000,0.000000,0.000000
1782117362.804817,1862232,0.921875,-0.026367,-0.408203,-3.170732,3.475610,1.951220,15.975000,-37.525002,3.100000,0.0,1.000000,0.000000,0.000000,0.000000
1782117362.811817,1862239,0.918945,-0.030762,-0.409668,-3.780488,3.780488,2.134146,15.975000,-37.525002,3.100000,0.0,1.000000,0.000000,0.000000,0.000000
1782117362.821817,1862249,0.918945,-0.032715,-0.411133,-4.451220,3.719512,2.317073,15.956250,-37.549999,3.250000,0.0,1.000000,0.000000,0.000000,0.000000
1782117362.831817,1862259,0.922363,-0.030762,-0.415039,-5.243903,3.841464,2.500000,15.937500,-37.643749,3.350000,0.0,1.000000,0.000000,0.000000,0.000000
1782117362.843817,1862271,0.921875,-0.032227,-0.416992,-6.036585,4.329268,2.682927,15.937500,-37.643749,3.350000,0.0,1.000000,0.000000,0.000000,0.000000
1782117362.851817,1862279,0.916992,-0.032715,-0.418945,-6.890244,4.878049,2.987805,15.906250,-37.562500,3.431250,0.0,1.000000,0.000000,0.000000,0.000000
1782117362.861817,1862289,0.913574,-0.029785,-0.417969,-7.560976,5.121951,3.170732,15.906250,-37.562500,3.431250,0.0,1.000000,0.000000,0.000000,0.000000
1782117362.871817,1862299,0.911621,-0.028809,-0.416504,-7.987805,5.548780,3.170732,15.793750,-37.643749,3.618750,0.0,1.000000,0.000000,0.000000,0.000000
1782117362.883817,1862311,0.908691,-0.029785,-0.414551,-8.292683,5.975610,3.292683,15.793750,-37.643749,3.618750,0.0,1.000000,0.000000,0.000000,0.000000
1782117362.891817,1862319,0.902832,-0.033691,-0.413574,-8.719512,6.097561,3.475610,15.725000,-37.687500,3.775000,0.0,1.000000,0.000000,0.000000,0.000000
1782117362.901817,1862329,0.896484,-0.034668,-0.416992,-9.085366,5.853659,3.597561,15.725000,-37.687500,3.775000,0.0,1.000000,0.000000,0.000000,0.000000
1782117362.911817,1862339,0.895020,-0.036621,-0.420898,-9.329268,5.548780,3.597561,15.618751,-37.718750,3.900000,0.0,1.000000,0.000000,0.000000,0.000000
1782117362.925817,1862353,0.894531,-0.038086,-0.426758,-9.634147,5.426829,3.597561,15.618751,-37.718750,3.900000,0.0,1.000000,0.000000,0.000000,0.000000
1782117362.931817,1862359,0.896484,-0.036133,-0.427246,-9.939025,5.243903,3.536585,15.768750,-37.331249,3.843750,0.0,1.000000,0.000000,0.000000,0.000000
1782117362.942817,1862370,0.900879,-0.039551,-0.426270,-10.365854,5.000000,3.902439,15.768750,-37.331249,3.843750,0.0,1.000000,0.000000,0.000000,0.000000
1782117362.952817,1862380,0.897461,-0.038086,-0.419922,-10.365854,4.817073,3.780488,15.462501,-37.731251,4.218750,0.0,1.000000,0.000000,0.000000,0.000000
1782117362.962817,1862390,0.895508,-0.037598,-0.416992,-10.426829,4.329268,3.414634,15.462501,-37.731251,4.218750,0.0,1.000000,0.000000,0.000000,0.000000
1782117362.971817,1862399,0.898438,-0.037109,-0.415039,-10.365854,3.536585,3.109756,15.468750,-37.662502,4.312500,0.0,1.000000,0.000000,0.000000,0.000000
1782117362.981817,1862409,0.900879,-0.037598,-0.414062,-10.000000,3.109756,2.743902,15.468750,-37.662502,4.312500,0.0,1.000000,0.000000,0.000000,0.000000
1782117362.991817,1862419,0.901855,-0.037598,-0.408203,-9.634147,2.743902,2.439024,15.406250,-37.537502,4.331250,0.0,1.000000,0.000000,0.000000,0.000000
1782117363.004817,1862432,0.907227,-0.039551,-0.402832,-9.024390,2.439024,2.134146,15.406250,-37.537502,4.331250,0.0,1.000000,0.000000,0.000000,0.000000
1782117363.011817,1862439,0.916016,-0.040527,-0.397949,-8.414635,2.256098,1.768293,15.262500,-37.787502,4.600000,0.0,1.000000,0.000000,0.000000,0.000000
1782117363.021817,1862449,0.919434,-0.041504,-0.391602,-7.682927,2.256098,1.524390,15.262500,-37.787502,4.600000,0.0,1.000000,0.000000,0.000000,0.000000
1782117363.031817,1862459,0.925293,-0.045410,-0.387695,-7.073171,2.256098,1.402439,15.225000,-37.712502,4.656250,0.0,1.000000,0.000000,0.000000,0.000000
1782117363.041817,1862469,0.927246,-0.045898,-0.382812,-6.341464,2.439024,1.158537,15.225000,-37.712502,4.656250,0.0,1.000000,0.000000,0.000000,0.000000
1782117363.051817,1862479,0.932129,-0.048340,-0.376953,-5.731708,2.378049,1.036585,15.250000,-37.650002,4.731250,0.0,1.000000,0.000000,0.000000,0.000000
1782117363.061817,1862489,0.935059,-0.049805,-0.373047,-4.756098,2.682927,0.792683,15.250000,-37.650002,4.731250,0.0,1.000000,0.000000,0.000000,0.000000
1782117363.071817,1862499,0.936035,-0.046875,-0.368164,-3.902439,2.987805,0.670732,15.143750,-37.700001,4.700000,0.0,1.000000,0.000000,0.000000,0.000000
1782117363.081817,1862509,0.936523,-0.040527,-0.367676,-3.292683,3.231707,0.548781,15.143750,-37.700001,4.700000,0.0,1.000000,0.000000,0.000000,0.000000
1782117363.092817,1862520,0.932617,-0.035156,-0.370117,-2.865854,3.597561,0.487805,15.131250,-37.706249,4.862500,0.0,1.000000,0.000000,0.000000,0.000000
1782117363.101817,1862529,0.928711,-0.028809,-0.371094,-2.682927,3.658537,0.365854,15.131250,-37.706249,4.862500,0.0,1.000000,0.000000,0.000000,0.000000
1782117363.111817,1862539,0.925781,-0.024902,-0.373047,-2.500000,3.597561,0.243902,15.131250,-37.637501,4.868750,0.0,1.000000,0.000000,0.000000,0.000000
1782117363.122817,1862550,0.926270,-0.021484,-0.372559,-2.378049,3.475610,0.060976,15.131250,-37.637501,4.868750,0.0,1.000000,0.000000,0.000000,0.000000
1782117363.131817,1862559,0.927246,-0.020508,-0.373047,-2.560976,3.597561,0.060976,15.143750,-37.625000,4.956250,0.0,1.000000,0.000000,0.000000,0.000000
1782117363.141817,1862569,0.927246,-0.020020,-0.375000,-3.170732,3.536585,0.304878,15.143750,-37.625000,4.956250,0.0,1.000000,0.000000,0.000000,0.000000
1782117363.151817,1862579,0.924316,-0.018066,-0.377441,-3.963415,3.414634,0.609756,15.093750,-37.656250,5.037500,0.0,1.000000,0.000000,0.000000,0.000000
1782117363.161817,1862589,0.921387,-0.016113,-0.379883,-4.695122,2.987805,0.853659,15.093750,-37.656250,5.037500,0.0,1.000000,0.000000,0.000000,0.000000
1782117363.171817,1862599,0.921387,-0.014648,-0.380859,-5.426829,2.500000,0.792683,15.050000,-37.637501,5.106250,0.0,1.000000,0.000000,0.000000,0.000000
1782117363.181817,1862609,0.922363,-0.018555,-0.381836,-6.036585,2.317073,0.853659,15.050000,-37.637501,5.106250,0.0,1.000000,0.000000,0.000000,0.000000
1782117363.191817,1862619,0.916504,-0.024414,-0.380859,-6.524390,2.134146,0.853659,15.031250,-37.612499,5.168750,0.0,1.000000,0.000000,0.000000,0.000000
1782117363.201817,1862629,0.916504,-0.029785,-0.380859,-6.585366,1.829268,0.731707,15.031250,-37.612499,5.168750,0.0,1.000000,0.000000,0.000000,0.000000
1782117363.211817,1862639,0.917480,-0.035156,-0.381348,-6.280488,1.585366,0.548781,15.062500,-37.637501,5.168750,0.0,1.000000,0.000000,0.000000,0.000000
1782117363.221817,1862649,0.918945,-0.040527,-0.381348,-5.731708,1.463415,0.426829,15.062500,-37.637501,5.168750,0.0,1.000000,0.000000,0.000000,0.000000
1782117363.231817,1862659,0.921387,-0.042480,-0.383301,-5.000000,1.341463,0.243902,14.968750,-37.618752,5.325000,0.0,1.000000,0.000000,0.000000,0.000000
1782117363.241817,1862669,0.923828,-0.043457,-0.385254,-4.146341,1.158537,0.060976,14.968750,-37.618752,5.325000,0.0,1.000000,0.000000,0.000000,0.000000
1782117363.251817,1862679,0.927734,-0.041016,-0.386230,-3.414634,1.036585,-0.182927,14.975000,-37.606251,5.387500,0.0,1.000000,0.000000,0.000000,0.000000
1782117363.261817,1862689,0.928711,-0.040039,-0.384766,-2.865854,1.097561,-0.243902,14.975000,-37.606251,5.387500,0.0,1.000000,0.000000,0.000000,0.000000
1782117363.271817,1862699,0.924805,-0.037109,-0.382324,-2.560976,1.280488,-0.304878,14.900001,-37.618752,5.400000,0.0,1.000000,0.000000,0.000000,0.000000
1782117363.281817,1862709,0.920898,-0.032715,-0.378906,-2.256098,1.158537,-0.487805,14.900001,-37.618752,5.400000,0.0,1.000000,0.000000,0.000000,0.000000
1782117363.291817,1862719,0.921875,-0.026855,-0.378906,-2.256098,0.853659,-0.731707,14.950000,-37.612499,5.468750,0.0,1.000000,0.000000,0.000000,0.000000
1782117363.301817,1862729,0.921875,-0.023438,-0.382324,-2.378049,0.792683,-0.792683,14.950000,-37.612499,5.468750,0.0,1.000000,0.000000,0.000000,0.000000
1782117363.311817,1862739,0.919434,-0.022461,-0.383301,-2.500000,0.670732,-0.914634,15.068750,-37.325001,5.300000,0.0,1.000000,0.000000,0.000000,0.000000
1782117363.321817,1862749,0.919922,-0.022461,-0.386719,-2.317073,0.365854,-0.975610,15.068750,-37.325001,5.300000,0.0,1.000000,0.000000,0.000000,0.000000
1782117363.332817,1862760,0.922363,-0.024414,-0.388672,-1.951220,0.304878,-0.975610,15.018750,-37.475002,5.375000,0.0,1.000000,0.000000,0.000000,0.000000
1782117363.342817,1862770,0.921875,-0.026855,-0.387695,-1.524390,0.426829,-1.036585,15.018750,-37.475002,5.375000,0.0,1.000000,0.000000,0.000000,0.000000
1782117363.352817,1862780,0.919922,-0.026367,-0.390137,-1.097561,0.426829,-1.097561,14.925000,-37.612499,5.481250,0.0,1.000000,0.000000,0.000000,0.000000
1782117363.361817,1862789,0.918457,-0.027832,-0.391113,-0.975610,0.426829,-1.341463,14.925000,-37.612499,5.481250,0.0,1.000000,0.000000,0.000000,0.000000
1782117363.372817,1862800,0.917969,-0.026367,-0.395020,-0.670732,0.426829,-1.463415,14.968750,-37.556252,5.475000,0.0,1.000000,0.000000,0.000000,0.000000
1782117363.382817,1862810,0.919922,-0.024902,-0.394043,-0.365854,0.182927,-1.463415,14.968750,-37.556252,5.475000,0.0,1.000000,0.000000,0.000000,0.000000
1782117363.392817,1862820,0.920410,-0.024902,-0.391113,0.304878,0.426829,-1.341463,15.106250,-37.281250,5.368750,0.0,1.000000,0.000000,0.000000,0.000000
1782117363.402817,1862830,0.920410,-0.024902,-0.391113,0.304878,0.426829,-1.341463,15.106250,-37.281250,5.368750,0.0,1.000000,0.000000,0.000000,0.000000
1782117363.411817,1862839,0.920410,-0.019531,-0.391602,0.914634,0.548781,-1.402439,14.962501,-37.543751,5.506250,0.0,1.000000,0.000000,0.000000,0.000000
1782117363.422817,1862850,0.919434,-0.016602,-0.391602,0.975610,0.731707,-1.463415,14.962501,-37.543751,5.506250,0.0,1.000000,0.000000,0.000000,0.000000
1782117363.431817,1862859,0.919434,-0.016602,-0.391602,0.975610,0.731707,-1.463415,14.937500,-37.575001,5.587500,0.0,1.000000,0.000000,0.000000,0.000000
1782117363.441817,1862869,0.924316,-0.019043,-0.391602,1.097561,0.731707,-1.585366,14.937500,-37.575001,5.587500,0.0,1.000000,0.000000,0.000000,0.000000
1782117363.451817,1862879,0.922852,-0.020996,-0.391113,1.036585,0.853659,-1.585366,14.962501,-37.481251,5.475000,0.0,1.000000,0.000000,0.000000,0.000000
1782117363.461817,1862889,0.922363,-0.020508,-0.392090,1.097561,0.975610,-1.524390,14.962501,-37.481251,5.475000,0.0,1.000000,0.000000,0.000000,0.000000
1782117363.471817,1862899,0.920898,-0.020508,-0.391602,1.097561,1.036585,-1.585366,15.000000,-37.443752,5.518750,0.0,1.000000,0.000000,0.000000,0.000000
1782117363.481817,1862909,0.922363,-0.020020,-0.392090,1.036585,1.158537,-1.707317,15.000000,-37.443752,5.518750,0.0,1.000000,0.000000,0.000000,0.000000
1782117363.491817,1862919,0.920410,-0.020996,-0.388672,0.853659,1.280488,-1.646341,14.956250,-37.437500,5.450000,0.0,1.000000,0.000000,0.000000,0.000000
1782117363.501817,1862929,0.917480,-0.020996,-0.387695,0.609756,1.280488,-1.585366,14.956250,-37.437500,5.450000,0.0,1.000000,0.000000,0.000000,0.000000
1782117363.511817,1862939,0.916504,-0.019531,-0.387207,0.304878,1.280488,-1.463415,15.000000,-37.431252,5.487500,0.0,1.000000,0.000000,0.000000,0.000000
1782117363.521817,1862949,0.916992,-0.016113,-0.388184,0.182927,1.341463,-1.402439,15.000000,-37.431252,5.487500,0.0,1.000000,0.000000,0.000000,0.000000
1782117363.532817,1862960,0.916992,-0.014160,-0.388672,0.182927,1.280488,-1.341463,15.006250,-37.456249,5.550000,0.0,1.000000,0.000000,0.000000,0.000000
1782117363.542817,1862970,0.918945,-0.013184,-0.387695,0.182927,1.280488,-1.341463,15.006250,-37.456249,5.550000,0.0,1.000000,0.000000,0.000000,0.000000
1782117363.552817,1862980,0.918457,-0.014648,-0.387207,0.304878,1.219512,-1.219512,15.150001,-37.118752,5.368750,0.0,1.000000,0.000000,0.000000,0.000000
1782117363.562817,1862990,0.918945,-0.011719,-0.382812,0.060976,1.036585,-1.097561,15.150001,-37.118752,5.368750,0.0,1.000000,0.000000,0.000000,0.000000
1782117363.572817,1863000,0.918457,-0.013184,-0.385742,-0.182927,0.914634,-1.097561,15.075000,-37.387501,5.512500,0.0,1.000000,0.000000,0.000000,0.000000
1782117363.581817,1863009,0.918945,-0.013672,-0.385254,-0.853659,0.853659,-0.975610,15.075000,-37.387501,5.512500,0.0,1.000000,0.000000,0.000000,0.000000
1782117363.591817,1863019,0.918457,-0.016113,-0.385742,-0.853659,0.243902,-0.792683,14.956250,-37.381252,5.518750,0.0,1.000000,0.000000,0.000000,0.000000
1782117363.601817,1863029,0.924316,-0.009277,-0.380859,-1.280488,0.121951,-0.792683,14.956250,-37.381252,5.518750,0.0,1.000000,0.000000,0.000000,0.000000
1782117363.611817,1863039,0.923828,-0.011230,-0.382324,-1.280488,0.182927,-0.853659,14.906250,-37.443752,5.562500,0.0,1.000000,0.000000,0.000000,0.000000
1782117363.621817,1863049,0.922363,-0.010254,-0.380859,-1.402439,-0.060976,-0.914634,14.906250,-37.443752,5.562500,0.0,1.000000,0.000000,0.000000,0.000000
1782117363.631817,1863059,0.922852,-0.010254,-0.375977,-1.707317,-0.304878,-0.914634,15.025001,-37.299999,5.556250,0.0,1.000000,0.000000,0.000000,0.000000
