Unix_Time_s,EMG_t_s,sample_idx,fs,gain,flags,emg_valid,ch1_raw_uV,ch1_filt_uV,ch1_env_uV,ch2_raw_uV,ch2_filt_uV,ch2_env_uV
1782117357.511817,0.000000,1803440,1000,12,0,1,556.727,-9.775,9.340,486.995,6.359,21.795
1782117357.512817,0.001000,1803441,1000,12,0,1,552.620,-13.252,9.510,489.661,8.379,21.804
1782117357.513817,0.002000,1803442,1000,12,0,1,560.210,-5.318,9.474,491.511,9.217,21.699
1782117357.514817,0.003000,1803443,1000,12,0,1,569.266,5.158,9.412,490.718,7.608,21.426
1782117357.515817,0.004000,1803444,1000,12,0,1,577.529,11.898,9.343,485.170,1.573,20.968
1782117357.516817,0.005000,1803445,1000,12,0,1,576.448,11.657,8.955,481.182,-3.336,20.320
1782117357.517817,0.006000,1803446,1000,12,0,1,567.897,2.360,8.313,484.017,-1.662,19.492
1782117357.518817,0.007000,1803447,1000,12,0,1,562.300,-2.789,7.777,485.938,0.286,18.689
1782117357.519817,0.008000,1803448,1000,12,0,1,560.883,-3.015,7.609,483.560,-2.998,18.439
1782117357.520817,0.009000,1803449,1000,12,0,1,560.354,-1.989,7.542,483.464,-4.464,18.354
1782117357.521817,0.010000,1803450,1000,12,0,1,560.474,-0.773,7.099,480.606,-6.817,17.290
1782117357.522817,0.011000,1803451,1000,12,0,1,559.826,-0.352,6.596,480.077,-8.619,15.430
1782117357.523817,0.012000,1803452,1000,12,0,1,562.708,2.058,5.946,483.248,-5.325,13.453
1782117357.524817,0.013000,1803453,1000,12,0,1,562.324,2.647,5.360,484.473,-3.992,11.638
1782117357.525817,0.014000,1803454,1000,12,0,1,562.036,0.957,4.976,482.479,-5.590,9.799
1782117357.526817,0.015000,1803455,1000,12,0,1,562.324,1.087,4.777,483.032,-5.200,8.043
1782117357.527817,0.016000,1803456,1000,12,0,1,563.957,1.256,4.730,483.872,-3.211,6.823
1782117357.528817,0.017000,1803457,1000,12,0,1,562.636,-0.124,4.724,484.113,-2.335,6.359
1782117357.529817,0.018000,1803458,1000,12,0,1,564.174,-0.616,4.724,485.602,-0.206,6.295
1782117357.530817,0.019000,1803459,1000,12,0,1,562.492,-1.545,4.724,486.923,1.985,6.298
1782117357.531817,0.020000,1803460,1000,12,0,1,560.667,-4.471,4.763,486.923,2.546,6.308
1782117357.532817,0.021000,1803461,1000,12,0,1,558.865,-5.246,4.811,487.500,3.381,6.300
1782117357.533817,0.022000,1803462,1000,12,0,1,557.592,-5.974,4.804,489.133,4.965,6.208
1782117357.534817,0.023000,1803463,1000,12,0,1,554.613,-6.958,4.862,489.253,5.215,6.198
1782117357.535817,0.024000,1803464,1000,12,0,1,552.259,-7.659,4.922,487.956,3.456,6.176
1782117357.536817,0.025000,1803465,1000,12,0,1,557.544,-1.799,4.914,488.268,2.969,6.104
1782117357.537817,0.026000,1803466,1000,12,0,1,566.119,7.898,5.024,488.941,3.000,6.046
1782117357.538817,0.027000,1803467,1000,12,0,1,567.993,10.257,5.120,488.316,1.538,5.983
1782117357.539817,0.028000,1803468,1000,12,0,1,563.213,5.749,5.085,488.604,0.491,5.821
1782117357.540817,0.029000,1803469,1000,12,0,1,558.793,1.125,5.087,488.028,-0.718,5.516
1782117357.541817,0.030000,1803470,1000,12,0,1,559.489,1.874,5.088,489.157,-1.240,5.149
1782117357.542817,0.031000,1803471,1000,12,0,1,564.294,6.204,5.161,489.757,-1.084,4.755
1782117357.543817,0.032000,1803472,1000,12,0,1,565.086,7.201,5.258,489.926,-2.124,4.556
1782117357.544817,0.033000,1803473,1000,12,0,1,565.062,5.322,5.305,488.869,-3.287,4.570
1782117357.545817,0.034000,1803474,1000,12,0,1,565.062,4.526,5.341,485.386,-6.465,4.613
1782117357.546817,0.035000,1803475,1000,12,0,1,566.696,4.070,5.371,487.524,-5.059,4.667
1782117357.547817,0.036000,1803476,1000,12,0,1,568.425,4.501,5.405,485.554,-4.418,4.603
1782117357.548817,0.037000,1803477,1000,12,0,1,568.545,2.918,5.419,486.034,-4.776,4.575
1782117357.549817,0.038000,1803478,1000,12,0,1,565.783,-0.762,5.420,486.803,-1.597,4.515
1782117357.550817,0.039000,1803479,1000,12,0,1,571.164,1.493,5.416,487.019,-1.172,4.477
1782117357.551817,0.040000,1803480,1000,12,0,1,575.127,5.429,5.458,489.998,2.442,4.484
1782117357.552817,0.041000,1803481,1000,12,0,1,572.965,1.686,5.461,490.718,4.082,4.502
1782117357.553817,0.042000,1803482,1000,12,0,1,572.389,-0.277,5.437,490.598,3.585,4.508
1782117357.554817,0.043000,1803483,1000,12,0,1,572.509,-0.285,5.412,490.790,4.020,4.499
1782117357.555817,0.044000,1803484,1000,12,0,1,572.413,-0.836,5.320,490.094,2.952,4.402
1782117357.556817,0.045000,1803485,1000,12,0,1,570.899,-1.602,5.191,487.692,0.791,4.244
1782117357.557817,0.046000,1803486,1000,12,0,1,573.109,-0.247,5.163,487.860,-0.073,4.117
1782117357.558817,0.047000,1803487,1000,12,0,1,576.232,3.557,5.181,490.334,2.054,4.125
1782117357.559817,0.048000,1803488,1000,12,0,1,572.317,0.419,5.143,488.460,0.139,4.125
1782117357.560817,0.049000,1803489,1000,12,0,1,571.332,-1.551,5.071,487.235,-2.381,4.116
1782117357.561817,0.050000,1803490,1000,12,0,1,570.395,-1.115,4.881,486.419,-3.061,4.040
1782117357.562817,0.051000,1803491,1000,12,0,1,572.629,-0.162,4.507,486.274,-3.891,3.901
1782117357.563817,0.052000,1803492,1000,12,0,1,574.358,2.193,4.455,487.331,-2.891,3.700
1782117357.564817,0.053000,1803493,1000,12,0,1,572.028,-0.725,4.396,489.517,-1.228,3.544
1782117357.565817,0.054000,1803494,1000,12,0,1,571.164,-2.506,4.076,488.124,-1.937,3.548
1782117357.566817,0.055000,1803495,1000,12,0,1,569.794,-3.700,3.765,486.274,-4.013,3.562
1782117357.567817,0.056000,1803496,1000,12,0,1,569.242,-5.100,3.819,486.683,-3.021,3.579
1782117357.568817,0.057000,1803497,1000,12,0,1,565.543,-7.562,3.946,488.869,-0.433,3.580
1782117357.569817,0.058000,1803498,1000,12,0,1,565.807,-8.444,4.101,490.790,2.013,3.566
1782117357.570817,0.059000,1803499,1000,12,0,1,564.822,-7.324,4.220,490.766,2.518,3.528
1782117357.571817,0.060000,1803500,1000,12,0,1,562.900,-9.162,4.413,490.454,2.271,3.409
1782117357.572817,0.061000,1803501,1000,12,0,1,560.138,-9.763,4.624,492.640,4.275,3.240
1782117357.573817,0.062000,1803502,1000,12,0,1,561.651,-7.837,4.746,493.264,5.213,3.236
1782117357.574817,0.063000,1803503,1000,12,0,1,562.228,-4.685,4.777,495.667,6.298,3.309
1782117357.575817,0.064000,1803504,1000,12,0,1,565.086,-1.686,4.781,495.402,6.206,3.331
1782117357.576817,0.065000,1803505,1000,12,0,1,563.669,-0.464,4.779,496.627,5.302,3.334
1782117357.577817,0.066000,1803506,1000,12,0,1,564.270,-0.194,4.776,497.684,5.804,3.403
1782117357.578817,0.067000,1803507,1000,12,0,1,564.438,1.974,4.784,497.684,4.037,3.435
1782117357.579817,0.068000,1803508,1000,12,0,1,564.342,2.130,4.793,499.630,4.119,3.484
1782117357.580817,0.069000,1803509,1000,12,0,1,563.981,2.725,4.803,499.750,3.176,3.502
1782117357.581817,0.070000,1803510,1000,12,0,1,559.610,-0.124,4.761,496.291,-1.477,3.489
1782117357.582817,0.071000,1803511,1000,12,0,1,555.790,-3.510,4.729,497.540,-2.131,3.470
1782117357.583817,0.072000,1803512,1000,12,0,1,557.208,-1.213,4.656,495.018,-3.763,3.439
1782117357.584817,0.073000,1803513,1000,12,0,1,561.819,3.364,4.576,492.496,-7.361,3.517
1782117357.585817,0.074000,1803514,1000,12,0,1,564.558,6.268,4.534,494.273,-5.324,3.563
1782117357.586817,0.075000,1803515,1000,12,0,1,566.191,6.394,4.616,493.889,-4.708,3.600
1782117357.587817,0.076000,1803516,1000,12,0,1,567.753,6.786,4.580,493.168,-5.308,3.653
1782117357.588817,0.077000,1803517,1000,12,0,1,567.080,4.845,4.398,494.249,-3.419,3.679
1782117357.589817,0.078000,1803518,1000,12,0,1,566.936,3.102,4.345,495.354,-1.770,3.686
1782117357.590817,0.079000,1803519,1000,12,0,1,566.792,2.153,4.352,495.354,-0.933,3.687
1782117357.591817,0.080000,1803520,1000,12,0,1,565.951,0.512,4.345,493.889,-1.695,3.691
1782117357.592817,0.081000,1803521,1000,12,0,1,566.720,0.522,4.256,495.570,-0.071,3.688
1782117357.593817,0.082000,1803522,1000,12,0,1,569.194,2.410,4.147,497.012,2.172,3.688
1782117357.594817,0.083000,1803523,1000,12,0,1,567.753,1.443,4.083,496.339,1.516,3.665
1782117357.595817,0.084000,1803524,1000,12,0,1,565.759,-0.984,4.035,496.267,1.236,3.554
1782117357.596817,0.085000,1803525,1000,12,0,1,568.377,1.400,3.998,497.540,2.138,3.494
1782117357.597817,0.086000,1803526,1000,12,0,1,569.938,3.605,3.980,496.483,1.181,3.442
1782117357.598817,0.087000,1803527,1000,12,0,1,568.713,2.359,3.973,496.435,0.126,3.375
1782117357.599817,0.088000,1803528,1000,12,0,1,569.842,2.967,3.993,498.621,1.670,3.376
1782117357.600817,0.089000,1803529,1000,12,0,1,567.801,1.906,3.997,496.820,-0.005,3.372
1782117357.601817,0.090000,1803530,1000,12,0,1,569.170,1.770,3.930,493.264,-4.150,3.405
1782117357.602817,0.091000,1803531,1000,12,0,1,568.305,2.163,3.935,494.730,-3.346,3.389
1782117357.603817,0.092000,1803532,1000,12,0,1,569.146,1.192,3.938,494.826,-2.413,3.368
1782117357.604817,0.093000,1803533,1000,12,0,1,569.938,2.313,3.952,495.570,-2.432,3.337
1782117357.605817,0.094000,1803534,1000,12,0,1,570.131,1.159,3.953,495.522,-1.717,3.320
1782117357.606817,0.095000,1803535,1000,12,0,1,572.100,1.965,3.957,495.955,-1.710,3.327
1782117357.607817,0.096000,1803536,1000,12,0,1,570.155,-0.058,3.957,495.979,-0.993,3.330
1782117357.608817,0.097000,1803537,1000,12,0,1,571.043,-1.452,3.930,497.900,0.471,3.318
1782117357.609817,0.098000,1803538,1000,12,0,1,572.365,0.037,3.929,496.747,0.530,3.319
1782117357.610817,0.099000,1803539,1000,12,0,1,573.205,-0.730,3.925,495.330,-1.112,3.305
1782117357.611817,0.100000,1803540,1000,12,0,1,575.127,0.587,3.922,494.538,-0.962,3.280
1782117357.612817,0.101000,1803541,1000,12,0,1,575.271,0.111,3.922,496.171,0.618,3.234
1782117357.613817,0.102000,1803542,1000,12,0,1,573.445,-1.940,3.920,496.772,2.039,3.221
1782117357.614817,0.103000,1803543,1000,12,0,1,571.236,-3.978,3.958,497.420,2.333,3.234
1782117357.615817,0.104000,1803544,1000,12,0,1,572.485,-2.898,3.964,497.636,2.639,3.243
1782117357.616817,0.105000,1803545,1000,12,0,1,573.109,-1.104,3.932,497.636,2.236,3.209
1782117357.617817,0.106000,1803546,1000,12,0,1,573.325,-0.885,3.868,499.414,3.101,3.211
1782117357.618817,0.107000,1803547,1000,12,0,1,575.511,1.512,3.723,499.053,2.745,3.233
1782117357.619817,0.108000,1803548,1000,12,0,1,575.487,2.038,3.538,496.003,-0.936,3.224
1782117357.620817,0.109000,1803549,1000,12,0,1,579.210,4.270,3.436,495.931,-1.739,3.213
1782117357.621817,0.110000,1803550,1000,12,0,1,579.931,5.674,3.282,496.459,-1.168,3.201
1782117357.622817,0.111000,1803551,1000,12,0,1,578.658,2.811,3.004,495.450,-2.252,3.160
1782117357.623817,0.112000,1803552,1000,12,0,1,579.355,2.750,2.819,493.289,-4.155,3.128
1782117357.624817,0.113000,1803553,1000,12,0,1,576.640,-0.015,2.740,491.367,-5.630,3.103
1782117357.625817,0.114000,1803554,1000,12,0,1,579.955,0.724,2.732,491.559,-4.973,3.058
1782117357.626817,0.115000,1803555,1000,12,0,1,582.381,3.485,2.775,489.974,-4.995,3.048
1782117357.627817,0.116000,1803556,1000,12,0,1,581.997,1.030,2.779,490.862,-4.053,2.991
1782117357.628817,0.117000,1803557,1000,12,0,1,581.853,0.018,2.765,494.009,0.085,2.936
1782117357.629817,0.118000,1803558,1000,12,0,1,582.717,-0.591,2.750,493.361,0.435,2.878
1782117357.630817,0.119000,1803559,1000,12,0,1,582.093,-1.595,2.732,493.721,0.534,2.844
1782117357.631817,0.120000,1803560,1000,12,0,1,579.739,-4.345,2.800,494.610,2.185,2.853
1782117357.632817,0.121000,1803561,1000,12,0,1,580.964,-3.949,2.812,494.177,1.876,2.849
1782117357.633817,0.122000,1803562,1000,12,0,1,581.036,-2.911,2.837,493.889,1.786,2.810
1782117357.634817,0.123000,1803563,1000,12,0,1,580.916,-3.477,2.839,493.961,1.933,2.625
1782117357.635817,0.124000,1803564,1000,12,0,1,577.793,-4.868,2.784,492.328,0.803,2.517
1782117357.636817,0.125000,1803565,1000,12,0,1,578.250,-4.951,2.724,492.688,0.662,2.429
1782117357.637817,0.126000,1803566,1000,12,0,1,577.121,-3.622,2.601,493.457,1.791,2.324
1782117357.638817,0.127000,1803567,1000,12,0,1,575.367,-5.051,2.609,494.538,2.231,2.295
1782117357.639817,0.128000,1803568,1000,12,0,1,573.638,-4.876,2.662,494.802,2.367,2.306
1782117357.640817,0.129000,1803569,1000,12,0,1,573.686,-4.127,2.708,496.051,2.543,2.330
1782117357.641817,0.130000,1803570,1000,12,0,1,574.238,-2.265,2.726,496.964,3.001,2.356
1782117357.642817,0.131000,1803571,1000,12,0,1,578.874,1.856,2.738,498.093,2.962,2.393
1782117357.643817,0.132000,1803572,1000,12,0,1,581.396,4.903,2.804,495.090,0.237,2.373
1782117357.644817,0.133000,1803573,1000,12,0,1,579.835,2.714,2.823,494.009,-2.089,2.382
1782117357.645817,0.134000,1803574,1000,12,0,1,581.733,2.880,2.848,494.490,-1.141,2.381
1782117357.646817,0.135000,1803575,1000,12,0,1,579.811,1.653,2.851,495.402,-0.554,2.363
1782117357.647817,0.136000,1803576,1000,12,0,1,580.484,-0.116,2.805,494.658,-0.748,2.360
1782117357.648817,0.137000,1803577,1000,12,0,1,578.322,-0.885,2.788,496.147,0.105,2.360
1782117357.649817,0.138000,1803578,1000,12,0,1,577.913,-3.171,2.793,496.099,0.876,2.351
1782117357.650817,0.139000,1803579,1000,12,0,1,580.123,-0.409,2.780,496.940,1.026,2.356
1782117357.651817,0.140000,1803580,1000,12,0,1,580.123,-0.568,2.770,496.940,1.586,2.292
1782117357.652817,0.141000,1803581,1000,12,0,1,575.968,-3.858,2.807,492.880,-1.785,2.257
1782117357.653817,0.142000,1803582,1000,12,0,1,575.487,-4.614,2.877,492.015,-3.042,2.272
1782117357.654817,0.143000,1803583,1000,12,0,1,576.280,-2.438,2.879,492.640,-1.192,2.252
1782117357.655817,0.144000,1803584,1000,12,0,1,575.439,-2.320,2.893,492.640,-1.115,2.245
1782117357.656817,0.145000,1803585,1000,12,0,1,576.568,-0.892,2.882,492.160,-0.918,2.235
1782117357.657817,0.146000,1803586,1000,12,0,1,572.701,-2.280,2.900,491.439,-1.549,2.242
1782117357.658817,0.147000,1803587,1000,12,0,1,569.746,-5.190,2.984,492.520,-0.521,2.242
1782117357.659817,0.148000,1803588,1000,12,0,1,570.731,-2.447,3.004,492.568,-0.106,2.241
1782117357.660817,0.149000,1803589,1000,12,0,1,569.362,-2.296,3.020,492.039,-0.915,2.239
1782117357.661817,0.150000,1803590,1000,12,0,1,569.122,-1.969,3.032,492.808,-0.340,2.235
1782117357.662817,0.151000,1803591,1000,12,0,1,573.325,2.302,3.049,494.658,1.079,2.239
1782117357.663817,0.152000,1803592,1000,12,0,1,577.865,6.644,3.179,494.730,1.153,2.226
1782117357.664817,0.153000,1803593,1000,12,0,1,577.001,5.635,3.229,493.793,-0.218,2.202
1782117357.665817,0.154000,1803594,1000,12,0,1,574.478,1.943,3.214,493.216,-0.831,2.173
1782117357.666817,0.155000,1803595,1000,12,0,1,575.007,1.579,3.218,494.802,0.331,2.151
1782117357.667817,0.156000,1803596,1000,12,0,1,576.160,2.218,3.231,495.306,1.246,2.113
1782117357.668817,0.157000,1803597,1000,12,0,1,576.784,2.081,3.237,493.433,-0.462,2.078
1782117357.669817,0.158000,1803598,1000,12,0,1,579.114,3.237,3.257,495.691,1.020,2.079
1782117357.670817,0.159000,1803599,1000,12,0,1,576.928,1.467,3.207,495.498,2.056,2.084
1782117357.671817,0.160000,1803600,1000,12,0,1,578.466,0.959,3.108,494.201,0.152,2.078
1782117357.672817,0.161000,1803601,1000,12,0,1,573.638,-1.434,3.089,490.214,-2.264,2.078
1782117357.673817,0.162000,1803602,1000,12,0,1,570.275,-6.042,3.181,491.823,-1.757,2.009
1782117357.674817,0.163000,1803603,1000,12,0,1,571.164,-3.344,3.216,490.214,-0.810,1.848
1782117357.675817,0.164000,1803604,1000,12,0,1,575.896,1.086,3.218,489.037,-2.796,1.754
1782117357.676817,0.165000,1803605,1000,12,0,1,580.075,5.899,3.288,488.028,-2.166,1.634
1782117357.677817,0.166000,1803606,1000,12,0,1,573.974,1.331,3.290,490.454,-0.508,1.532
1782117357.678817,0.167000,1803607,1000,12,0,1,564.270,-7.922,3.476,493.457,2.968,1.589
1782117357.679817,0.168000,1803608,1000,12,0,1,560.498,-9.980,3.750,495.282,3.999,1.685
1782117357.680817,0.169000,1803609,1000,12,0,1,563.477,-5.813,3.833,493.313,1.915,1.705
1782117357.681817,0.170000,1803610,1000,12,0,1,568.353,0.547,3.784,493.289,0.608,1.679
1782117357.682817,0.171000,1803611,1000,12,0,1,577.721,8.305,3.923,495.018,1.867,1.679
1782117357.683817,0.172000,1803612,1000,12,0,1,587.305,16.522,4.547,495.042,1.611,1.675
1782117357.684817,0.173000,1803613,1000,12,0,1,591.821,17.902,5.181,495.114,0.734,1.656
1782117357.685817,0.174000,1803614,1000,12,0,1,587.834,11.775,5.398,494.538,0.317,1.653
1782117357.686817,0.175000,1803615,1000,12,0,1,581.925,2.976,5.369,495.210,0.109,1.650
1782117357.687817,0.176000,1803616,1000,12,0,1,581.564,0.572,5.346,493.889,-0.307,1.631
1782117357.688817,0.177000,1803617,1000,12,0,1,583.534,1.567,5.302,493.433,-1.408,1.613
1782117357.689817,0.178000,1803618,1000,12,0,1,584.255,1.243,5.260,492.208,-1.395,1.590
1782117357.690817,0.179000,1803619,1000,12,0,1,586.561,2.127,5.236,492.112,-1.675,1.567
1782117357.691817,0.180000,1803620,1000,12,0,1,582.405,-1.196,5.229,494.898,1.423,1.522
1782117357.692817,0.181000,1803621,1000,12,0,1,580.844,-4.328,5.258,494.970,2.178,1.495
1782117357.693817,0.182000,1803622,1000,12,0,1,579.547,-3.936,5.242,495.138,1.683,1.513
1782117357.694817,0.183000,1803623,1000,12,0,1,585.696,0.261,5.228,493.216,0.657,1.487
1782117357.695817,0.184000,1803624,1000,12,0,1,589.972,5.914,5.279,496.723,2.235,1.512
1782117357.696817,0.185000,1803625,1000,12,0,1,591.197,5.331,5.327,495.979,3.141,1.574
1782117357.697817,0.186000,1803626,1000,12,0,1,585.672,0.783,5.328,494.538,-0.175,1.570
1782117357.698817,0.187000,1803627,1000,12,0,1,583.606,-3.062,5.345,493.937,-0.210,1.570
1782117357.699817,0.188000,1803628,1000,12,0,1,586.056,-0.313,5.326,493.721,-1.175,1.574
1782117357.700817,0.189000,1803629,1000,12,0,1,586.993,0.530,5.326,494.850,-0.324,1.568
1782117357.701817,0.190000,1803630,1000,12,0,1,588.651,0.924,5.327,494.898,-0.299,1.553
1782117357.702817,0.191000,1803631,1000,12,0,1,588.699,0.966,5.301,494.658,-1.173,1.541
1782117357.703817,0.192000,1803632,1000,12,0,1,589.467,-0.134,5.261,493.216,-2.149,1.511
1782117357.704817,0.193000,1803633,1000,12,0,1,587.858,-1.373,5.253,494.057,-2.164,1.532
1782117357.705817,0.194000,1803634,1000,12,0,1,585.888,-4.666,5.284,493.889,-1.299,1.535
1782117357.706817,0.195000,1803635,1000,12,0,1,589.491,-1.948,5.290,493.072,-2.440,1.568
1782117357.707817,0.196000,1803636,1000,12,0,1,586.993,-3.264,5.300,493.216,-1.686,1.571
1782117357.708817,0.197000,1803637,1000,12,0,1,586.777,-5.265,5.301,492.928,-1.541,1.584
1782117357.709817,0.198000,1803638,1000,12,0,1,587.161,-3.556,5.314,490.214,-3.109,1.644
1782117357.710817,0.199000,1803639,1000,12,0,1,586.681,-4.425,5.341,490.406,-2.868,1.688
1782117357.711817,0.200000,1803640,1000,12,0,1,586.152,-4.049,5.364,492.184,-0.060,1.688
1782117357.712817,0.201000,1803641,1000,12,0,1,585.768,-3.993,5.384,491.319,-0.094,1.681
1782117357.713817,0.202000,1803642,1000,12,0,1,583.318,-4.995,5.348,489.541,-1.432,1.685
1782117357.714817,0.203000,1803643,1000,12,0,1,586.609,-2.187,5.298,489.373,-1.116,1.692
1782117357.715817,0.204000,1803644,1000,12,0,1,586.561,0.028,5.290,489.854,-0.182,1.688
1782117357.716817,0.205000,1803645,1000,12,0,1,587.786,0.223,5.286,492.520,2.173,1.715
1782117357.717817,0.206000,1803646,1000,12,0,1,590.284,3.444,5.299,498.957,7.360,1.999
1782117357.718817,0.207000,1803647,1000,12,0,1,589.467,2.643,5.304,500.423,8.624,2.340
1782117357.719817,0.208000,1803648,1000,12,0,1,590.981,2.940,5.301,502.032,7.355,2.557
1782117357.720817,0.209000,1803649,1000,12,0,1,589.852,2.577,5.309,507.100,10.383,2.934
1782117357.721817,0.210000,1803650,1000,12,0,1,592.542,2.801,5.322,507.221,9.013,3.199
1782117357.722817,0.211000,1803651,1000,12,0,1,588.747,1.006,5.320,503.137,3.083,3.213
1782117357.723817,0.212000,1803652,1000,12,0,1,588.314,-2.381,5.262,499.870,-1.276,3.208
1782117357.724817,0.213000,1803653,1000,12,0,1,590.620,0.914,5.242,494.129,-6.316,3.328
1782117357.725817,0.214000,1803654,1000,12,0,1,593.935,2.320,5.250,487.884,-11.649,3.693
1782117357.726817,0.215000,1803655,1000,12,0,1,598.619,5.919,5.251,484.329,-13.298,4.133
1782117357.727817,0.216000,1803656,1000,12,0,1,598.571,5.024,5.295,478.708,-15.380,4.669
1782117357.728817,0.217000,1803657,1000,12,0,1,598.499,2.671,5.189,477.387,-14.792,5.099
1782117357.729817,0.218000,1803658,1000,12,0,1,596.770,0.979,4.995,477.195,-11.012,5.302
1782117357.730817,0.219000,1803659,1000,12,0,1,595.953,-1.426,4.931,482.071,-5.331,5.348
1782117357.731817,0.220000,1803660,1000,12,0,1,597.130,-0.141,4.931,484.521,0.129,5.348
1782117357.732817,0.221000,1803661,1000,12,0,1,601.261,2.561,4.802,481.831,-1.701,5.347
1782117357.733817,0.222000,1803662,1000,12,0,1,602.486,4.110,4.236,481.230,-1.702,5.347
1782117357.734817,0.223000,1803663,1000,12,0,1,602.462,2.609,3.416,482.311,0.305,5.346
1782117357.735817,0.224000,1803664,1000,12,0,1,602.198,2.115,2.997,482.335,0.822,5.347
1782117357.736817,0.225000,1803665,1000,12,0,1,602.294,1.340,2.974,483.320,1.861,5.354
1782117357.737817,0.226000,1803666,1000,12,0,1,602.871,1.443,2.980,482.840,1.795,5.360
1782117357.738817,0.227000,1803667,1000,12,0,1,599.292,-1.596,2.980,485.049,3.099,5.374
1782117357.739817,0.228000,1803668,1000,12,0,1,598.667,-3.449,3.014,486.467,4.773,5.412
1782117357.740817,0.229000,1803669,1000,12,0,1,595.857,-4.502,3.066,484.353,2.483,5.419
1782117357.741817,0.230000,1803670,1000,12,0,1,596.265,-5.389,3.155,481.687,-0.212,5.415
1782117357.742817,0.231000,1803671,1000,12,0,1,595.569,-4.254,3.153,482.719,0.613,5.407
1782117357.743817,0.232000,1803672,1000,12,0,1,593.623,-6.535,3.238,483.320,1.982,5.409
1782117357.744817,0.233000,1803673,1000,12,0,1,594.488,-5.275,3.323,484.401,2.787,5.423
1782117357.745817,0.234000,1803674,1000,12,0,1,594.007,-4.901,3.290,482.791,2.181,5.422
1782117357.746817,0.235000,1803675,1000,12,0,1,592.037,-6.522,3.332,483.944,2.490,5.415
1782117357.747817,0.236000,1803676,1000,12,0,1,591.101,-6.676,3.462,485.434,4.719,5.456
1782117357.748817,0.237000,1803677,1000,12,0,1,589.900,-6.901,3.570,486.202,4.938,5.501
1782117357.749817,0.238000,1803678,1000,12,0,1,590.284,-5.750,3.662,485.073,4.048,5.528
1782117357.750817,0.239000,1803679,1000,12,0,1,587.522,-6.488,3.774,482.960,1.751,5.533
1782117357.751817,0.240000,1803680,1000,12,0,1,588.098,-5.744,3.858,483.920,2.091,5.541
1782117357.752817,0.241000,1803681,1000,12,0,1,591.509,-0.906,3.858,486.299,4.350,5.573
1782117357.753817,0.242000,1803682,1000,12,0,1,593.695,1.859,3.867,487.524,4.765,5.605
1782117357.754817,0.243000,1803683,1000,12,0,1,592.590,1.629,3.869,486.347,3.222,5.615
1782117357.755817,0.244000,1803684,1000,12,0,1,592.326,1.309,3.817,486.274,1.784,5.618
1782117357.756817,0.245000,1803685,1000,12,0,1,593.695,3.020,3.831,489.974,4.245,5.639
1782117357.757817,0.246000,1803686,1000,12,0,1,591.821,2.114,3.814,485.386,0.602,5.635
1782117357.758817,0.247000,1803687,1000,12,0,1,590.548,0.560,3.742,484.641,-2.678,5.643
1782117357.759817,0.248000,1803688,1000,12,0,1,590.452,1.259,3.712,482.527,-2.833,5.640
1782117357.760817,0.249000,1803689,1000,12,0,1,587.618,-0.771,3.661,480.413,-5.835,5.686
1782117357.761817,0.250000,1803690,1000,12,0,1,585.312,-2.632,3.635,480.101,-4.853,5.727
1782117357.762817,0.251000,1803691,1000,12,0,1,586.729,-0.950,3.593,480.101,-4.329,5.760
1782117357.763817,0.252000,1803692,1000,12,0,1,587.642,0.755,3.525,480.197,-3.365,5.776
1782117357.764817,0.253000,1803693,1000,12,0,1,587.810,0.775,3.513,480.606,-2.174,5.782
1782117357.765817,0.254000,1803694,1000,12,0,1,589.251,1.931,3.523,480.125,-1.882,5.788
1782117357.766817,0.255000,1803695,1000,12,0,1,588.002,1.063,3.526,481.807,0.007,5.780
1782117357.767817,0.256000,1803696,1000,12,0,1,591.413,2.636,3.512,483.608,2.248,5.694
1782117357.768817,0.257000,1803697,1000,12,0,1,592.062,4.202,3.543,483.704,2.567,5.574
1782117357.769817,0.258000,1803698,1000,12,0,1,592.470,2.714,3.539,483.776,2.305,5.486
1782117357.770817,0.259000,1803699,1000,12,0,1,595.977,5.528,3.606,483.296,2.050,5.293
1782117357.771817,0.260000,1803700,1000,12,0,1,597.610,6.346,3.695,484.449,2.391,5.149
1782117357.772817,0.261000,1803701,1000,12,0,1,599.172,6.311,3.798,484.233,2.564,5.143
1782117357.773817,0.262000,1803702,1000,12,0,1,601.021,7.149,3.916,483.993,1.411,5.144
1782117357.774817,0.263000,1803703,1000,12,0,1,602.511,7.092,4.041,484.497,1.767,5.072
1782117357.775817,0.264000,1803704,1000,12,0,1,600.949,5.128,4.092,484.521,1.299,4.800
1782117357.776817,0.265000,1803705,1000,12,0,1,597.826,1.110,4.009,483.776,0.312,4.417
1782117357.777817,0.266000,1803706,1000,12,0,1,593.215,-2.825,3.965,486.034,1.468,3.850
1782117357.778817,0.267000,1803707,1000,12,0,1,593.695,-3.110,3.972,487.596,2.929,3.258
1782117357.779817,0.268000,1803708,1000,12,0,1,593.455,-1.678,3.976,489.950,3.743,2.911
1782117357.780817,0.269000,1803709,1000,12,0,1,592.470,-2.880,3.992,488.532,2.517,2.834
1782117357.781817,0.270000,1803710,1000,12,0,1,590.332,-3.799,4.028,490.478,2.202,2.851
1782117357.782817,0.271000,1803711,1000,12,0,1,589.347,-4.731,4.067,491.343,3.455,2.882
1782117357.783817,0.272000,1803712,1000,12,0,1,588.843,-4.311,4.071,489.373,0.548,2.873
1782117357.784817,0.273000,1803713,1000,12,0,1,587.978,-4.657,4.108,486.539,-2.130,2.889
1782117357.785817,0.274000,1803714,1000,12,0,1,584.687,-6.774,4.207,484.593,-3.888,2.938
1782117357.786817,0.275000,1803715,1000,12,0,1,577.121,-12.258,4.546,487.331,-1.530,2.934
1782117357.787817,0.276000,1803716,1000,12,0,1,576.040,-12.972,4.898,484.617,-2.062,2.938
1782117357.788817,0.277000,1803717,1000,12,0,1,578.490,-7.864,5.018,483.680,-4.143,2.963
1782117357.789817,0.278000,1803718,1000,12,0,1,576.953,-7.540,5.107,492.448,4.090,2.943
1782117357.790817,0.279000,1803719,1000,12,0,1,578.370,-5.442,5.125,499.270,10.410,3.272
1782117357.791817,0.280000,1803720,1000,12,0,1,592.398,7.027,5.165,503.017,11.668,3.664
1782117357.792817,0.281000,1803721,1000,12,0,1,606.114,20.082,5.863,502.560,9.621,3.908
1782117357.793817,0.282000,1803722,1000,12,0,1,613.440,23.746,6.693,502.416,6.442,4.003
1782117357.794817,0.283000,1803723,1000,12,0,1,612.623,20.213,7.240,497.612,1.499,3.989
1782117357.795817,0.284000,1803724,1000,12,0,1,609.909,13.617,7.459,489.085,-7.703,4.124
1782117357.796817,0.285000,1803725,1000,12,0,1,607.243,9.021,7.511,486.755,-10.224,4.355
1782117357.797817,0.286000,1803726,1000,12,0,1,606.858,6.415,7.507,479.909,-13.667,4.718
1782117357.798817,0.287000,1803727,1000,12,0,1,612.551,9.619,7.566,468.547,-22.497,5.648
1782117357.799817,0.288000,1803728,1000,12,0,1,607.507,5.773,7.567,467.851,-20.922,6.350
1782117357.800817,0.289000,1803729,1000,12,0,1,598.211,-5.224,7.547,474.504,-11.046,6.535
1782117357.801817,0.290000,1803730,1000,12,0,1,588.843,-12.185,7.699,481.711,-2.184,6.535
1782117357.802817,0.291000,1803731,1000,12,0,1,590.668,-11.251,7.860,482.816,0.767,6.507
1782117357.803817,0.292000,1803732,1000,12,0,1,592.374,-5.970,7.901,482.191,-0.037,6.472
1782117357.804817,0.293000,1803733,1000,12,0,1,591.629,-6.764,7.955,482.095,0.552,6.457
1782117357.805817,0.294000,1803734,1000,12,0,1,589.659,-7.075,8.016,480.437,-0.504,6.452
1782117357.806817,0.295000,1803735,1000,12,0,1,594.632,-3.438,8.019,480.726,-0.242,6.424
1782117357.807817,0.296000,1803736,1000,12,0,1,600.373,2.662,8.023,479.765,0.031,6.424
1782117357.808817,0.297000,1803737,1000,12,0,1,602.775,3.648,8.039,478.180,-1.338,6.415
1782117357.809817,0.298000,1803738,1000,12,0,1,599.844,0.091,8.037,478.155,-0.590,6.403
1782117357.810817,0.299000,1803739,1000,12,0,1,600.637,-1.291,8.038,481.807,2.754,6.362
1782117357.811817,0.300000,1803740,1000,12,0,1,599.652,-1.879,8.034,481.711,3.913,6.349
1782117357.812817,0.301000,1803741,1000,12,0,1,600.301,-2.668,8.042,480.606,2.095,6.326
1782117357.813817,0.302000,1803742,1000,12,0,1,596.217,-5.066,8.073,482.335,3.751,6.330
1782117357.814817,0.303000,1803743,1000,12,0,1,595.569,-6.609,8.126,483.128,4.600,6.356
1782117357.815817,0.304000,1803744,1000,12,0,1,596.890,-3.543,8.137,483.608,4.427,6.382
1782117357.816817,0.305000,1803745,1000,12,0,1,595.665,-3.580,8.151,485.434,5.636,6.431
1782117357.817817,0.306000,1803746,1000,12,0,1,595.136,-3.271,8.156,484.929,4.885,6.460
1782117357.818817,0.307000,1803747,1000,12,0,1,597.106,-0.180,8.134,486.274,4.790,6.486
1782117357.819817,0.308000,1803748,1000,12,0,1,597.298,1.111,8.127,486.082,4.610,6.510
1782117357.820817,0.309000,1803749,1000,12,0,1,594.656,-0.266,8.089,485.290,2.672,6.515
1782117357.821817,0.310000,1803750,1000,12,0,1,589.732,-3.890,8.058,486.971,3.484,6.525
1782117357.822817,0.311000,1803751,1000,12,0,1,586.321,-5.894,8.052,490.334,5.713,6.564
1782117357.823817,0.312000,1803752,1000,12,0,1,582.838,-7.247,8.053,491.415,5.927,6.615
1782117357.824817,0.313000,1803753,1000,12,0,1,579.355,-8.759,8.086,496.075,7.865,6.703
1782117357.825817,0.314000,1803754,1000,12,0,1,576.928,-9.184,8.157,499.894,10.373,6.859
1782117357.826817,0.315000,1803755,1000,12,0,1,571.860,-11.261,8.310,496.003,5.276,6.899
1782117357.827817,0.316000,1803756,1000,12,0,1,570.035,-11.766,8.466,492.592,-0.196,6.896
1782117357.828817,0.317000,1803757,1000,12,0,1,575.920,-4.646,8.480,493.264,-0.277,6.884
1782117357.829817,0.318000,1803758,1000,12,0,1,589.659,7.996,8.551,492.568,-1.143,6.865
1782117357.830817,0.319000,1803759,1000,12,0,1,593.335,12.624,8.726,491.103,-2.932,6.869
1782117357.831817,0.320000,1803760,1000,12,0,1,596.337,11.384,8.857,481.518,-10.112,7.009
1782117357.832817,0.321000,1803761,1000,12,0,1,600.493,14.155,9.056,471.670,-18.774,7.479
1782117357.833817,0.322000,1803762,1000,12,0,1,597.923,9.872,9.143,468.331,-19.039,7.949
1782117357.834817,0.323000,1803763,1000,12,0,1,592.566,3.212,9.130,472.679,-12.605,8.141
1782117357.835817,0.324000,1803764,1000,12,0,1,590.692,0.743,9.080,475.609,-6.456,8.173
1782117357.836817,0.325000,1803765,1000,12,0,1,594.896,4.131,8.933,478.564,-2.950,8.181
1782117357.837817,0.326000,1803766,1000,12,0,1,594.992,5.683,8.779,483.800,2.663,8.184
1782117357.838817,0.327000,1803767,1000,12,0,1,593.263,3.145,8.720,484.257,3.808,8.181
1782117357.839817,0.328000,1803768,1000,12,0,1,592.662,3.362,8.667,484.281,2.553,8.169
1782117357.840817,0.329000,1803769,1000,12,0,1,593.263,3.746,8.649,483.608,2.253,8.041
1782117357.841817,0.330000,1803770,1000,12,0,1,595.809,6.174,8.636,483.128,0.848,7.871
1782117357.842817,0.331000,1803771,1000,12,0,1,597.826,7.682,8.228,482.263,0.412,7.753
1782117357.843817,0.332000,1803772,1000,12,0,1,595.857,5.354,7.549,479.645,-2.006,7.704
1782117357.844817,0.333000,1803773,1000,12,0,1,597.226,4.582,7.017,479.765,-1.931,7.706
1782117357.845817,0.334000,1803774,1000,12,0,1,593.983,1.956,6.754,478.252,-1.977,7.634
1782117357.846817,0.335000,1803775,1000,12,0,1,593.935,-0.877,6.633,479.260,-1.376,7.498
1782117357.847817,0.336000,1803776,1000,12,0,1,595.064,0.306,6.571,478.444,-0.303,7.245
1782117357.848817,0.337000,1803777,1000,12,0,1,594.584,-1.684,6.433,479.669,0.240,6.509
1782117357.849817,0.338000,1803778,1000,12,0,1,591.485,-4.913,6.419,480.389,2.351,5.807
1782117357.850817,0.339000,1803779,1000,12,0,1,591.533,-6.162,6.435,481.086,2.560,5.605
1782117357.851817,0.340000,1803780,1000,12,0,1,591.581,-5.613,6.251,482.431,4.109,5.626
1782117357.852817,0.341000,1803781,1000,12,0,1,593.575,-4.409,6.077,483.824,5.040,5.670
1782117357.853817,0.342000,1803782,1000,12,0,1,596.097,-1.735,6.023,486.563,6.723,5.750
1782117357.854817,0.343000,1803783,1000,12,0,1,600.277,1.542,5.951,486.923,6.783,5.828
1782117357.855817,0.344000,1803784,1000,12,0,1,601.309,2.811,5.879,486.250,4.603,5.864
1782117357.856817,0.345000,1803785,1000,12,0,1,603.135,3.368,5.879,484.809,2.843,5.878
1782117357.857817,0.346000,1803786,1000,12,0,1,605.153,5.196,5.912,483.752,0.742,5.879
1782117357.858817,0.347000,1803787,1000,12,0,1,607.026,6.193,5.955,484.857,1.259,5.879
1782117357.859817,0.348000,1803788,1000,12,0,1,606.258,5.302,6.002,483.560,0.055,5.878
1782117357.860817,0.349000,1803789,1000,12,0,1,601.622,0.933,6.000,484.113,-0.552,5.866
1782117357.861817,0.350000,1803790,1000,12,0,1,597.947,-2.794,6.007,482.527,-1.279,5.842
1782117357.862817,0.351000,1803791,1000,12,0,1,599.003,-1.442,5.999,481.350,-3.211,5.852
1782117357.863817,0.352000,1803792,1000,12,0,1,601.766,1.436,5.960,477.027,-5.703,5.884
1782117357.864817,0.353000,1803793,1000,12,0,1,597.250,-1.626,5.890,481.855,-2.864,5.862
1782117357.865817,0.354000,1803794,1000,12,0,1,593.815,-6.060,5.931,485.530,2.948,5.843
1782117357.866817,0.355000,1803795,1000,12,0,1,597.370,-2.596,5.921,482.767,-0.272,5.789
1782117357.867817,0.356000,1803796,1000,12,0,1,600.541,0.418,5.903,481.542,-1.623,5.752
1782117357.868817,0.357000,1803797,1000,12,0,1,601.862,0.631,5.904,480.774,-1.632,5.716
1782117357.869817,0.358000,1803798,1000,12,0,1,604.432,1.561,5.906,477.795,-3.865,5.705
1782117357.870817,0.359000,1803799,1000,12,0,1,605.753,1.674,5.910,474.048,-6.210,5.760
1782117357.871817,0.360000,1803800,1000,12,0,1,603.976,-1.148,5.887,473.616,-6.030,5.802
1782117357.872817,0.361000,1803801,1000,12,0,1,602.030,-4.053,5.856,476.186,-2.156,5.754
1782117357.873817,0.362000,1803802,1000,12,0,1,600.661,-5.406,5.816,480.341,1.989,5.699
1782117357.874817,0.363000,1803803,1000,12,0,1,597.538,-7.641,5.784,482.047,4.241,5.622
1782117357.875817,0.364000,1803804,1000,12,0,1,595.496,-8.785,5.772,483.056,4.177,5.459
1782117357.876817,0.365000,1803805,1000,12,0,1,595.569,-7.117,5.638,481.590,2.939,5.424
1782117357.877817,0.366000,1803806,1000,12,0,1,599.172,-2.634,5.400,482.287,2.127,5.432
1782117357.878817,0.367000,1803807,1000,12,0,1,601.261,1.168,5.363,481.927,2.199,5.441
1782117357.879817,0.368000,1803808,1000,12,0,1,599.364,0.347,5.242,482.719,1.649,5.443
1782117357.880817,0.369000,1803809,1000,12,0,1,596.649,-1.326,4.932,482.888,2.002,5.435
1782117357.881817,0.370000,1803810,1000,12,0,1,597.826,0.282,4.663,485.146,2.815,5.258
1782117357.882817,0.371000,1803811,1000,12,0,1,596.866,1.039,4.213,489.157,5.998,4.618
1782117357.883817,0.372000,1803812,1000,12,0,1,597.274,1.039,3.978,491.679,7.318,3.891
1782117357.884817,0.373000,1803813,1000,12,0,1,597.778,2.336,3.966,493.961,7.660,3.625
1782117357.885817,0.374000,1803814,1000,12,0,1,594.776,-0.365,3.965,496.555,8.581,3.712
1782117357.886817,0.375000,1803815,1000,12,0,1,594.776,-1.199,3.925,499.222,8.970,3.900
1782117357.887817,0.376000,1803816,1000,12,0,1,593.335,-1.637,3.849,499.822,8.070,4.047
1782117357.888817,0.377000,1803817,1000,12,0,1,594.464,-1.966,3.833,500.951,6.655,4.119
1782117357.889817,0.378000,1803818,1000,12,0,1,594.151,-1.289,3.808,496.964,2.614,4.120
1782117357.890817,0.379000,1803819,1000,12,0,1,598.379,0.550,3.772,488.196,-6.553,4.211
1782117357.891817,0.380000,1803820,1000,12,0,1,600.036,3.038,3.694,478.588,-14.506,4.683
1782117357.892817,0.381000,1803821,1000,12,0,1,596.409,-1.495,3.537,472.535,-18.582,5.369
1782117357.893817,0.382000,1803822,1000,12,0,1,592.230,-5.309,3.536,475.393,-13.995,5.715
1782117357.894817,0.383000,1803823,1000,12,0,1,591.533,-5.675,3.568,482.767,-4.773,5.749
1782117357.895817,0.384000,1803824,1000,12,0,1,597.130,-0.158,3.557,484.569,-1.404,5.745
1782117357.896817,0.385000,1803825,1000,12,0,1,598.067,2.771,3.576,487.115,0.190,5.742
1782117357.897817,0.386000,1803826,1000,12,0,1,600.541,3.690,3.614,490.934,3.762,5.767
1782117357.898817,0.387000,1803827,1000,12,0,1,601.814,6.375,3.717,490.574,2.927,5.781
1782117357.899817,0.388000,1803828,1000,12,0,1,601.333,4.992,3.719,490.959,1.682,5.777
1782117357.900817,0.389000,1803829,1000,12,0,1,599.628,4.038,3.661,492.856,2.794,5.779
1782117357.901817,0.390000,1803830,1000,12,0,1,594.824,-0.117,3.573,496.243,4.412,5.783
1782117357.902817,0.391000,1803831,1000,12,0,1,595.040,-0.353,3.519,495.114,3.218,5.757
1782117357.903817,0.392000,1803832,1000,12,0,1,593.479,0.092,3.510,486.947,-4.850,5.719
1782117357.904817,0.393000,1803833,1000,12,0,1,594.223,-0.279,3.504,477.555,-13.019,5.931
1782117357.905817,0.394000,1803834,1000,12,0,1,602.150,6.864,3.614,472.655,-15.886,6.309
1782117357.906817,0.395000,1803835,1000,12,0,1,605.873,9.912,3.847,472.703,-13.120,6.564
1782117357.907817,0.396000,1803836,1000,12,0,1,601.213,4.096,3.820,472.871,-9.705,6.705
1782117357.908817,0.397000,1803837,1000,12,0,1,606.066,4.750,3.779,476.522,-4.717,6.736
1782117357.909817,0.398000,1803838,1000,12,0,1,607.795,6.769,3.825,478.107,-0.438,6.736
1782117357.910817,0.399000,1803839,1000,12,0,1,607.074,2.604,3.841,480.918,2.140,6.742
1782117357.911817,0.400000,1803840,1000,12,0,1,603.471,-1.022,3.823,481.350,4.149,6.766
1782117357.912817,0.401000,1803841,1000,12,0,1,600.277,-5.723,3.903,481.566,3.572,6.769
1782117357.913817,0.402000,1803842,1000,12,0,1,600.781,-5.271,3.968,480.822,3.460,6.739
1782117357.914817,0.403000,1803843,1000,12,0,1,599.148,-5.749,4.044,482.719,4.092,6.751
1782117357.915817,0.404000,1803844,1000,12,0,1,597.778,-6.954,4.072,483.608,5.150,6.778
1782117357.916817,0.405000,1803845,1000,12,0,1,596.337,-6.409,4.156,484.521,4.683,6.810
1782117357.917817,0.406000,1803846,1000,12,0,1,592.998,-8.170,4.313,483.608,3.539,6.824
1782117357.918817,0.407000,1803847,1000,12,0,1,590.764,-8.259,4.468,482.119,1.198,6.823
1782117357.919817,0.408000,1803848,1000,12,0,1,591.029,-6.185,4.547,480.389,-0.627,6.801
1782117357.920817,0.409000,1803849,1000,12,0,1,593.287,-2.177,4.551,481.086,-0.424,6.745
1782117357.921817,0.410000,1803850,1000,12,0,1,595.569,1.235,4.552,483.560,1.814,6.695
1782117357.922817,0.411000,1803851,1000,12,0,1,593.479,0.670,4.517,484.137,2.534,6.698
1782117357.923817,0.412000,1803852,1000,12,0,1,590.500,-1.948,4.460,486.515,3.625,6.712
1782117357.924817,0.413000,1803853,1000,12,0,1,586.441,-4.363,4.371,488.340,5.509,6.730
1782117357.925817,0.414000,1803854,1000,12,0,1,582.766,-7.039,4.307,492.039,7.222,6.782
1782117357.926817,0.415000,1803855,1000,12,0,1,576.640,-10.467,4.442,495.042,9.615,6.904
1782117357.927817,0.416000,1803856,1000,12,0,1,580.988,-6.897,4.532,495.498,8.350,6.998
1782117357.928817,0.417000,1803857,1000,12,0,1,587.281,1.594,4.535,494.610,6.304,7.047
1782117357.929817,0.418000,1803858,1000,12,0,1,587.089,1.419,4.539,494.490,4.711,7.075
1782117357.930817,0.419000,1803859,1000,12,0,1,579.307,-4.863,4.587,491.631,1.735,7.074
1782117357.931817,0.420000,1803860,1000,12,0,1,573.902,-9.975,4.799,490.118,-0.928,7.064
1782117357.932817,0.421000,1803861,1000,12,0,1,572.701,-9.030,4.964,489.806,-1.149,7.014
1782117357.933817,0.422000,1803862,1000,12,0,1,577.529,-3.388,4.985,487.740,-3.059,6.951
1782117357.934817,0.423000,1803863,1000,12,0,1,587.570,6.864,5.068,484.569,-5.912,6.917
1782117357.935817,0.424000,1803864,1000,12,0,1,589.996,10.604,5.285,485.962,-4.899,6.845
1782117357.936817,0.425000,1803865,1000,12,0,1,578.970,0.765,5.283,492.568,1.038,6.728
1782117357.937817,0.426000,1803866,1000,12,0,1,574.238,-4.415,5.315,496.651,4.756,6.664
1782117357.938817,0.427000,1803867,1000,12,0,1,584.135,5.520,5.365,493.289,0.814,6.599
1782117357.939817,0.428000,1803868,1000,12,0,1,594.680,16.515,5.848,491.175,-2.825,6.600
1782117357.940817,0.429000,1803869,1000,12,0,1,594.944,16.274,6.284,494.393,-0.570,6.535
1782117357.941817,0.430000,1803870,1000,12,0,1,593.407,12.510,6.514,497.756,2.210,6.213
1782117357.942817,0.431000,1803871,1000,12,0,1,591.317,9.657,6.653,499.342,2.665,5.642
1782117357.943817,0.432000,1803872,1000,12,0,1,590.620,7.270,6.690,495.138,-1.211,5.287
1782117357.944817,0.433000,1803873,1000,12,0,1,587.137,3.968,6.665,490.358,-6.503,5.323
1782117357.945817,0.434000,1803874,1000,12,0,1,580.147,-3.048,6.679,494.730,-2.837,5.335
1782117357.946817,0.435000,1803875,1000,12,0,1,576.784,-6.452,6.729,499.005,2.392,5.346
1782117357.947817,0.436000,1803876,1000,12,0,1,575.031,-6.786,6.777,502.705,4.664,5.360
1782117357.948817,0.437000,1803877,1000,12,0,1,583.174,-0.527,6.718,502.104,4.459,5.381
1782117357.949817,0.438000,1803878,1000,12,0,1,589.083,6.580,6.745,497.252,-0.958,5.377
1782117357.950817,0.439000,1803879,1000,12,0,1,582.549,-0.252,6.721,497.012,-1.953,5.370
1782117357.951817,0.440000,1803880,1000,12,0,1,571.091,-11.042,6.900,499.894,1.016,5.335
1782117357.952817,0.441000,1803881,1000,12,0,1,563.525,-17.187,7.315,502.897,3.222,5.335
1782117357.953817,0.442000,1803882,1000,12,0,1,558.889,-18.496,7.769,508.398,7.001,5.383
1782117357.954817,0.443000,1803883,1000,12,0,1,554.229,-19.136,8.227,508.109,6.265,5.135
1782117357.955817,0.444000,1803884,1000,12,0,1,559.129,-12.470,8.357,502.705,-0.532,4.618
1782117357.956817,0.445000,1803885,1000,12,0,1,568.545,-0.036,8.239,495.546,-7.510,4.361
1782117357.957817,0.446000,1803886,1000,12,0,1,574.430,6.720,8.273,486.395,-15.171,4.662
1782117357.958817,0.447000,1803887,1000,12,0,1,583.582,14.337,8.492,486.419,-15.021,5.080
1782117357.959817,0.448000,1803888,1000,12,0,1,590.909,20.581,8.925,484.017,-13.176,5.410
1782117357.960817,0.449000,1803889,1000,12,0,1,596.746,22.763,9.481,474.528,-19.913,6.092
1782117357.961817,0.450000,1803890,1000,12,0,1,593.623,18.511,9.835,477.099,-16.289,6.486
1782117357.962817,0.451000,1803891,1000,12,0,1,584.615,7.091,9.853,484.473,-5.586,6.515
1782117357.963817,0.452000,1803892,1000,12,0,1,576.304,-1.398,9.826,491.055,1.283,6.499
1782117357.964817,0.453000,1803893,1000,12,0,1,577.481,-1.511,9.795,497.348,7.646,6.563
1782117357.965817,0.454000,1803894,1000,12,0,1,581.877,3.601,9.759,505.059,13.221,6.785
1782117357.966817,0.455000,1803895,1000,12,0,1,587.017,7.259,9.771,512.097,18.086,7.221
1782117357.967817,0.456000,1803896,1000,12,0,1,588.555,8.212,9.771,514.403,17.714,7.626
1782117357.968817,0.457000,1803897,1000,12,0,1,590.981,7.885,9.765,518.390,17.418,8.013
1782117357.969817,0.458000,1803898,1000,12,0,1,597.682,11.723,9.866,522.354,18.425,8.425
1782117357.970817,0.459000,1803899,1000,12,0,1,599.100,11.433,9.993,521.273,14.285,8.664
1782117357.971817,0.460000,1803900,1000,12,0,1,605.081,11.883,10.132,509.575,2.214,8.666
1782117357.972817,0.461000,1803901,1000,12,0,1,618.268,20.677,10.545,481.518,-22.440,9.221
1782117357.973817,0.462000,1803902,1000,12,0,1,622.520,20.884,10.947,471.093,-32.805,10.310
1782117357.974817,0.463000,1803903,1000,12,0,1,605.273,2.373,10.935,482.359,-16.998,10.558
1782117357.975817,0.464000,1803904,1000,12,0,1,590.332,-15.975,11.121,499.150,1.229,10.510
1782117357.976817,0.465000,1803905,1000,12,0,1,595.256,-12.012,11.153,505.419,9.266,10.503
1782117357.977817,0.466000,1803906,1000,12,0,1,599.748,-5.452,11.137,502.969,5.509,10.466
1782117357.978817,0.467000,1803907,1000,12,0,1,603.736,-3.028,11.143,496.267,-1.176,10.429
1782117357.979817,0.468000,1803908,1000,12,0,1,603.039,-2.261,11.145,491.967,-6.034,10.443
1782117357.980817,0.469000,1803909,1000,12,0,1,596.025,-9.145,11.199,496.651,-2.329,10.445
1782117357.981817,0.470000,1803910,1000,12,0,1,589.539,-14.171,11.289,503.569,4.478,10.463
1782117357.982817,0.471000,1803911,1000,12,0,1,588.050,-14.260,11.397,507.509,6.700,10.505
1782117357.983817,0.472000,1803912,1000,12,0,1,599.268,-3.639,11.398,505.851,4.347,10.514
1782117357.984817,0.473000,1803913,1000,12,0,1,612.623,9.885,11.442,500.903,-1.831,10.484
1782117357.985817,0.474000,1803914,1000,12,0,1,608.708,6.376,11.379,501.215,-2.621,10.468
1782117357.986817,0.475000,1803915,1000,12,0,1,589.203,-12.278,11.511,506.019,1.649,10.469
1782117357.987817,0.476000,1803916,1000,12,0,1,574.791,-25.780,12.058,504.578,1.108,10.449
1782117357.988817,0.477000,1803917,1000,12,0,1,571.908,-25.188,12.549,500.327,-3.478,10.460
1782117357.989817,0.478000,1803918,1000,12,0,1,573.998,-19.395,12.631,497.468,-5.249,10.478
1782117357.990817,0.479000,1803919,1000,12,0,1,581.132,-10.239,12.504,494.562,-6.595,10.520
1782117357.991817,0.480000,1803920,1000,12,0,1,589.852,-0.101,12.378,487.283,-10.749,10.624
1782117357.992817,0.481000,1803921,1000,12,0,1,599.052,8.122,12.356,481.398,-14.265,10.807
1782117357.993817,0.482000,1803922,1000,12,0,1,588.867,1.216,12.314,486.875,-7.358,10.856
1782117357.994817,0.483000,1803923,1000,12,0,1,583.678,-7.374,12.346,494.994,3.026,10.826
1782117357.995817,0.484000,1803924,1000,12,0,1,588.915,-0.227,12.338,493.337,3.006,10.826
1782117357.996817,0.485000,1803925,1000,12,0,1,590.212,1.754,12.307,494.273,2.490,10.827
1782117357.997817,0.486000,1803926,1000,12,0,1,591.461,2.697,12.275,498.141,6.437,10.845
1782117357.998817,0.487000,1803927,1000,12,0,1,589.467,2.171,12.279,499.774,6.926,10.871
1782117357.999817,0.488000,1803928,1000,12,0,1,585.312,-1.769,12.246,502.512,7.680,10.924
1782117358.000817,0.489000,1803929,1000,12,0,1,585.528,-0.687,12.247,509.767,11.980,11.051
1782117358.001817,0.490000,1803930,1000,12,0,1,585.528,0.675,12.147,509.767,10.905,11.158
1782117358.002817,0.491000,1803931,1000,12,0,1,593.791,7.415,11.947,503.978,2.714,11.155
1782117358.003817,0.492000,1803932,1000,12,0,1,603.543,16.852,11.899,491.847,-8.405,11.174
1782117358.004817,0.493000,1803933,1000,12,0,1,599.316,12.535,11.722,488.869,-12.733,11.284
1782117358.005817,0.494000,1803934,1000,12,0,1,593.046,3.780,11.601,491.223,-7.748,11.336
1782117358.006817,0.495000,1803935,1000,12,0,1,596.337,5.389,11.626,491.775,-5.954,11.318
1782117358.007817,0.496000,1803936,1000,12,0,1,601.333,9.267,11.660,490.214,-5.628,11.141
1782117358.008817,0.497000,1803937,1000,12,0,1,597.538,5.196,11.506,491.895,-3.231,10.946
1782117358.009817,0.498000,1803938,1000,12,0,1,593.959,-0.568,11.132,495.979,1.827,10.790
1782117358.010817,0.499000,1803939,1000,12,0,1,588.963,-4.585,10.677,496.099,3.288,10.426
1782117358.011817,0.500000,1803940,1000,12,0,1,595.136,-1.539,10.353,495.811,2.605,10.175
1782117358.012817,0.501000,1803941,1000,12,0,1,603.207,7.159,10.354,496.459,3.852,10.159
1782117358.013817,0.502000,1803942,1000,12,0,1,608.828,9.662,10.442,495.042,2.566,10.164
1782117358.014817,0.503000,1803943,1000,12,0,1,607.195,7.371,10.491,492.640,0.500,10.106
1782117358.015817,0.504000,1803944,1000,12,0,1,608.636,4.916,10.502,491.943,-0.338,9.932
1782117358.016817,0.505000,1803945,1000,12,0,1,609.837,5.481,10.481,493.337,1.053,9.598
1782117358.017817,0.506000,1803946,1000,12,0,1,605.537,0.202,10.416,497.612,4.274,9.285
1782117358.018817,0.507000,1803947,1000,12,0,1,600.877,-5.109,10.381,508.398,12.269,9.119
1782117358.019817,0.508000,1803948,1000,12,0,1,595.136,-9.256,10.331,520.336,20.945,9.227
1782117358.020817,0.509000,1803949,1000,12,0,1,594.488,-9.982,10.301,532.418,27.059,9.783
1782117358.021817,0.510000,1803950,1000,12,0,1,597.322,-5.100,10.189,539.889,28.969,10.601
1782117358.022817,0.511000,1803951,1000,12,0,1,593.070,-7.173,9.813,545.029,26.587,10.792
1782117358.023817,0.512000,1803952,1000,12,0,1,591.413,-8.426,9.433,554.950,28.444,10.541
1782117358.024817,0.513000,1803953,1000,12,0,1,590.812,-6.674,9.475,556.511,24.836,10.848
1782117358.025817,0.514000,1803954,1000,12,0,1,586.969,-8.713,9.283,548.128,10.799,10.953
1782117358.026817,0.515000,1803955,1000,12,0,1,587.762,-7.333,9.185,524.011,-12.608,11.020
1782117358.027817,0.516000,1803956,1000,12,0,1,603.495,6.463,9.198,494.490,-40.145,12.372
1782117358.028817,0.517000,1803957,1000,12,0,1,605.057,10.664,9.311,493.072,-39.992,13.602
1782117358.029817,0.518000,1803958,1000,12,0,1,594.584,-1.948,9.310,500.567,-24.722,14.018
1782117358.030817,0.519000,1803959,1000,12,0,1,605.609,4.484,9.242,492.087,-26.643,14.512
1782117358.031817,0.520000,1803960,1000,12,0,1,615.193,14.924,9.265,482.503,-31.530,15.169
1782117358.032817,0.521000,1803961,1000,12,0,1,607.363,5.236,9.073,483.464,-25.766,15.571
1782117358.033817,0.522000,1803962,1000,12,0,1,602.246,-2.300,9.065,490.934,-14.248,15.689
1782117358.034817,0.523000,1803963,1000,12,0,1,593.311,-9.043,9.047,501.984,-1.609,15.689
1782117358.035817,0.524000,1803964,1000,12,0,1,594.440,-9.866,9.109,507.221,4.899,15.700
1782117358.036817,0.525000,1803965,1000,12,0,1,599.652,-1.914,8.946,514.571,9.118,15.751
1782117358.037817,0.526000,1803966,1000,12,0,1,599.196,-1.831,8.174,518.943,12.401,15.847
1782117358.038817,0.527000,1803967,1000,12,0,1,592.614,-6.243,7.410,522.642,11.699,15.926
1782117358.039817,0.528000,1803968,1000,12,0,1,592.734,-6.342,6.942,525.116,11.577,15.993
1782117358.040817,0.529000,1803969,1000,12,0,1,594.199,-2.255,6.796,530.112,11.927,16.054
1782117358.041817,0.530000,1803970,1000,12,0,1,590.332,-4.300,6.823,534.604,13.455,16.095
1782117358.042817,0.531000,1803971,1000,12,0,1,585.528,-7.497,6.809,524.083,2.822,15.973
1782117358.043817,0.532000,1803972,1000,12,0,1,585.216,-6.229,6.864,507.028,-14.632,16.073
1782117358.044817,0.533000,1803973,1000,12,0,1,608.107,12.444,7.009,492.304,-25.440,16.465
1782117358.045817,0.534000,1803974,1000,12,0,1,634.290,36.973,8.744,477.267,-34.108,17.152
1782117358.046817,0.535000,1803975,1000,12,0,1,626.339,27.359,9.559,476.738,-29.778,17.658
1782117358.047817,0.536000,1803976,1000,12,0,1,606.402,2.301,9.557,481.663,-16.994,17.797
1782117358.048817,0.537000,1803977,1000,12,0,1,593.815,-10.996,9.677,489.637,-5.549,17.788
1782117358.049817,0.538000,1803978,1000,12,0,1,591.053,-13.931,9.873,493.240,2.808,17.759
1782117358.050817,0.539000,1803979,1000,12,0,1,595.136,-8.719,9.949,492.976,3.874,17.686
1782117358.051817,0.540000,1803980,1000,12,0,1,600.925,-2.531,9.955,494.514,6.306,17.641
1782117358.052817,0.541000,1803981,1000,12,0,1,603.423,0.347,9.900,492.712,5.798,17.656
1782117358.053817,0.542000,1803982,1000,12,0,1,612.527,6.632,9.654,491.655,3.841,17.625
1782117358.054817,0.543000,1803983,1000,12,0,1,628.717,19.758,9.893,486.755,0.583,17.533
1782117358.055817,0.544000,1803984,1000,12,0,1,620.766,13.166,10.052,490.406,1.266,17.499
1782117358.056817,0.545000,1803985,1000,12,0,1,605.561,-5.796,10.057,493.553,5.838,17.498
1782117358.057817,0.546000,1803986,1000,12,0,1,603.664,-7.720,10.031,494.442,4.216,17.491
1782117358.058817,0.547000,1803987,1000,12,0,1,600.781,-8.265,10.072,499.846,7.795,17.519
1782117358.059817,0.548000,1803988,1000,12,0,1,599.676,-8.954,10.151,499.270,6.865,17.544
1782117358.060817,0.549000,1803989,1000,12,0,1,605.105,-2.594,10.137,494.850,0.870,17.539
1782117358.061817,0.550000,1803990,1000,12,0,1,610.966,3.512,10.147,492.544,-1.348,17.536
1782117358.062817,0.551000,1803991,1000,12,0,1,614.593,6.557,10.138,491.751,-1.759,17.529
1782117358.063817,0.552000,1803992,1000,12,0,1,613.776,5.091,10.072,488.556,-2.821,17.530
1782117358.064817,0.553000,1803993,1000,12,0,1,609.957,0.481,10.018,493.000,1.042,17.530
1782117358.065817,0.554000,1803994,1000,12,0,1,603.111,-5.894,10.028,498.597,8.772,17.574
1782117358.066817,0.555000,1803995,1000,12,0,1,596.145,-12.076,10.143,506.260,14.659,17.695
1782117358.067817,0.556000,1803996,1000,12,0,1,586.705,-18.403,10.472,511.424,19.709,17.903
1782117358.068817,0.557000,1803997,1000,12,0,1,587.978,-16.787,10.713,512.337,18.328,18.006
1782117358.069817,0.558000,1803998,1000,12,0,1,592.374,-8.764,10.705,509.382,14.022,17.871
1782117358.070817,0.559000,1803999,1000,12,0,1,596.409,-4.359,10.629,508.518,10.560,17.521
1782117358.071817,0.560000,1804000,1000,12,0,1,613.680,10.200,10.702,506.668,7.752,17.070
1782117358.072817,0.561000,1804001,1000,12,0,1,625.402,21.653,11.086,496.820,-1.858,16.653
1782117358.073817,0.562000,1804002,1000,12,0,1,613.824,9.232,11.098,497.108,-4.766,16.174
1782117358.074817,0.563000,1804003,1000,12,0,1,592.110,-12.374,11.196,507.389,4.782,15.803
1782117358.075817,0.564000,1804004,1000,12,0,1,576.352,-25.814,11.711,516.709,11.026,15.806
1782117358.076817,0.565000,1804005,1000,12,0,1,562.756,-32.675,12.547,520.360,11.695,15.792
1782117358.077817,0.566000,1804006,1000,12,0,1,551.779,-36.738,13.550,520.600,7.687,14.776
1782117358.078817,0.567000,1804007,1000,12,0,1,568.785,-17.569,13.693,513.898,-0.697,13.651
1782117358.079817,0.568000,1804008,1000,12,0,1,594.103,12.573,13.805,507.821,-9.289,13.261
1782117358.080817,0.569000,1804009,1000,12,0,1,604.264,22.931,14.166,498.933,-16.378,12.924
1782117358.081817,0.570000,1804010,1000,12,0,1,604.432,21.252,14.327,494.369,-20.612,12.475
1782117358.082817,0.571000,1804011,1000,12,0,1,607.435,20.474,14.598,494.826,-17.118,12.174
1782117358.083817,0.572000,1804012,1000,12,0,1,610.341,20.914,14.891,497.420,-12.275,12.131
1782117358.084817,0.573000,1804013,1000,12,0,1,605.921,14.492,14.977,493.697,-11.831,12.244
1782117358.085817,0.574000,1804014,1000,12,0,1,597.778,4.452,14.925,492.928,-11.096,12.325
1782117358.086817,0.575000,1804015,1000,12,0,1,590.404,-3.143,14.929,493.409,-6.860,12.295
1782117358.087817,0.576000,1804016,1000,12,0,1,596.097,0.090,14.927,492.015,-5.672,12.196
1782117358.088817,0.577000,1804017,1000,12,0,1,607.195,10.965,14.981,492.544,-3.262,12.092
1782117358.089817,0.578000,1804018,1000,12,0,1,606.714,9.893,15.020,499.582,4.312,11.996
1782117358.090817,0.579000,1804019,1000,12,0,1,602.078,3.153,15.023,511.304,14.927,12.063
1782117358.091817,0.580000,1804020,1000,12,0,1,589.852,-7.140,15.045,518.943,21.012,12.277
1782117358.092817,0.581000,1804021,1000,12,0,1,575.824,-19.861,15.268,526.413,23.301,12.706
1782117358.093817,0.582000,1804022,1000,12,0,1,557.352,-31.583,15.883,535.589,27.374,13.120
1782117358.094817,0.583000,1804023,1000,12,0,1,555.862,-30.955,16.381,538.351,24.802,13.096
1782117358.095817,0.584000,1804024,1000,12,0,1,578.874,-4.905,15.540,531.529,13.537,12.325
1782117358.096817,0.585000,1804025,1000,12,0,1,609.068,24.636,15.449,512.313,-6.904,11.624
1782117358.097817,0.586000,1804026,1000,12,0,1,623.072,36.749,16.296,496.003,-24.191,11.876
1782117358.098817,0.587000,1804027,1000,12,0,1,613.368,24.031,16.574,498.525,-21.392,12.230
1782117358.099817,0.588000,1804028,1000,12,0,1,607.891,12.005,16.544,501.215,-14.580,12.396
1782117358.100817,0.589000,1804029,1000,12,0,1,609.164,11.559,16.578,497.973,-15.848,12.586
1782117358.101817,0.590000,1804030,1000,12,0,1,609.933,9.148,16.625,498.141,-13.687,12.702
1782117358.102817,0.591000,1804031,1000,12,0,1,611.158,8.294,16.666,499.966,-9.319,12.744
1782117358.103817,0.592000,1804032,1000,12,0,1,607.171,3.282,16.646,505.179,-3.245,12.741
1782117358.104817,0.593000,1804033,1000,12,0,1,601.189,-3.769,16.419,512.385,4.768,12.758
1782117358.105817,0.594000,1804034,1000,12,0,1,598.139,-6.804,16.341,520.024,11.307,12.857
1782117358.106817,0.595000,1804035,1000,12,0,1,599.412,-5.525,16.339,522.570,13.289,12.967
1782117358.107817,0.596000,1804036,1000,12,0,1,600.493,-3.464,16.310,525.668,13.198,13.087
1782117358.108817,0.597000,1804037,1000,12,0,1,598.931,-4.482,16.281,530.713,15.852,13.232
1782117358.109817,0.598000,1804038,1000,12,0,1,592.134,-9.317,16.285,528.263,11.821,13.302
1782117358.110817,0.599000,1804039,1000,12,0,1,590.620,-10.842,16.353,523.603,4.398,13.316
1782117358.111817,0.600000,1804040,1000,12,0,1,590.644,-8.124,16.385,520.072,-0.052,13.315
1782117358.112817,0.601000,1804041,1000,12,0,1,590.644,-7.340,16.392,520.072,-1.715,13.314
1782117358.113817,0.602000,1804042,1000,12,0,1,589.443,-6.593,16.403,520.072,-1.725,13.311
1782117358.114817,0.603000,1804043,1000,12,0,1,584.207,-9.828,16.461,516.757,-5.265,13.331
1782117358.115817,0.604000,1804044,1000,12,0,1,581.252,-11.555,16.521,512.817,-8.995,13.334
1782117358.116817,0.605000,1804045,1000,12,0,1,581.108,-9.348,16.486,506.068,-13.890,13.317
1782117358.117817,0.606000,1804046,1000,12,0,1,581.685,-7.219,16.311,503.810,-15.559,13.207
1782117358.118817,0.607000,1804047,1000,12,0,1,588.771,-0.117,16.137,503.137,-13.263,13.085
1782117358.119817,0.608000,1804048,1000,12,0,1,596.049,7.585,16.125,500.567,-13.716,13.079
1782117358.120817,0.609000,1804049,1000,12,0,1,595.809,7.217,16.146,503.906,-9.332,13.060
1782117358.121817,0.610000,1804050,1000,12,0,1,598.043,7.087,16.113,503.906,-6.105,13.042
1782117358.122817,0.611000,1804051,1000,12,0,1,597.106,6.715,15.847,502.729,-6.663,13.074
1782117358.123817,0.612000,1804052,1000,12,0,1,588.242,-1.917,15.796,507.701,-0.966,13.057
1782117358.124817,0.613000,1804053,1000,12,0,1,587.498,-3.673,15.707,514.331,5.956,13.067
1782117358.125817,0.614000,1804054,1000,12,0,1,591.917,2.051,15.280,509.551,3.078,12.981
1782117358.126817,0.615000,1804055,1000,12,0,1,596.073,5.832,14.588,507.701,-0.555,12.875
1782117358.127817,0.616000,1804056,1000,12,0,1,593.959,4.875,13.649,507.172,0.875,12.830
1782117358.128817,0.617000,1804057,1000,12,0,1,590.332,0.628,13.421,504.722,-1.298,12.831
1782117358.129817,0.618000,1804058,1000,12,0,1,591.821,2.003,13.306,505.587,-0.030,12.763
1782117358.130817,0.619000,1804059,1000,12,0,1,602.895,10.959,12.997,508.614,3.444,12.561
1782117358.131817,0.620000,1804060,1000,12,0,1,607.795,15.891,12.843,509.070,4.189,12.232
1782117358.132817,0.621000,1804061,1000,12,0,1,605.465,10.811,12.605,510.343,4.764,12.009
1782117358.133817,0.622000,1804062,1000,12,0,1,605.633,8.346,12.310,508.494,3.368,11.893
1782117358.134817,0.623000,1804063,1000,12,0,1,605.753,6.946,12.178,508.109,1.899,11.777
1782117358.135817,0.624000,1804064,1000,12,0,1,600.181,0.557,12.162,511.304,4.509,11.690
1782117358.136817,0.625000,1804065,1000,12,0,1,595.881,-4.907,12.174,516.300,8.183,11.707
1782117358.137817,0.626000,1804066,1000,12,0,1,598.451,-3.310,12.183,516.949,8.085,11.735
1782117358.138817,0.627000,1804067,1000,12,0,1,600.733,-0.684,12.084,510.463,1.253,11.727
1782117358.139817,0.628000,1804068,1000,12,0,1,602.511,-0.188,12.003,503.425,-6.153,11.744
1782117358.140817,0.629000,1804069,1000,12,0,1,601.430,-0.972,11.995,502.969,-6.424,11.588
1782117358.141817,0.630000,1804070,1000,12,0,1,598.211,-4.675,11.971,500.615,-6.557,11.239
1782117358.142817,0.631000,1804071,1000,12,0,1,596.289,-6.225,11.670,499.414,-7.273,10.794
1782117358.143817,0.632000,1804072,1000,12,0,1,596.938,-5.301,10.807,501.456,-3.867,10.091
1782117358.144817,0.633000,1804073,1000,12,0,1,599.220,-2.574,9.888,502.897,-1.360,9.464
1782117358.145817,0.634000,1804074,1000,12,0,1,600.132,-1.086,9.865,502.152,-1.182,9.269
1782117358.146817,0.635000,1804075,1000,12,0,1,599.268,-1.678,9.232,502.705,-0.389,9.218
1782117358.147817,0.636000,1804076,1000,12,0,1,596.698,-3.419,7.645,504.146,1.513,8.562
1782117358.148817,0.637000,1804077,1000,12,0,1,595.232,-4.500,6.878,505.227,2.721,8.019
1782117358.149817,0.638000,1804078,1000,12,0,1,600.565,0.381,6.665,505.131,2.674,7.759
1782117358.150817,0.639000,1804079,1000,12,0,1,607.411,7.103,6.540,506.548,3.475,7.444
1782117358.151817,0.640000,1804080,1000,12,0,1,613.488,11.217,6.604,507.581,4.373,7.215
1782117358.152817,0.641000,1804081,1000,12,0,1,616.971,12.777,6.745,508.878,4.713,7.125
1782117358.153817,0.642000,1804082,1000,12,0,1,616.971,10.302,6.885,508.878,4.367,7.137
1782117358.154817,0.643000,1804083,1000,12,0,1,610.317,2.765,6.876,509.142,3.543,7.122
1782117358.155817,0.644000,1804084,1000,12,0,1,603.447,-5.434,6.851,510.872,4.372,6.968
1782117358.156817,0.645000,1804085,1000,12,0,1,599.772,-8.658,6.916,508.830,2.417,6.719
1782117358.157817,0.646000,1804086,1000,12,0,1,598.787,-8.996,7.015,505.491,-1.588,6.458
1782117358.158817,0.647000,1804087,1000,12,0,1,598.547,-8.039,7.078,505.827,-1.492,6.060
1782117358.159817,0.648000,1804088,1000,12,0,1,598.403,-7.144,7.027,510.559,2.487,5.836
1782117358.160817,0.649000,1804089,1000,12,0,1,601.574,-3.871,6.880,514.739,6.252,5.869
1782117358.161817,0.650000,1804090,1000,12,0,1,599.220,-3.992,6.806,518.222,7.936,5.976
1782117358.162817,0.651000,1804091,1000,12,0,1,594.007,-8.782,6.841,522.233,9.989,6.136
1782117358.163817,0.652000,1804092,1000,12,0,1,594.992,-7.003,6.849,525.356,10.843,6.320
1782117358.164817,0.653000,1804093,1000,12,0,1,599.316,-1.729,6.711,526.653,9.785,6.426
1782117358.165817,0.654000,1804094,1000,12,0,1,598.691,-0.899,6.510,528.695,9.005,6.427
1782117358.166817,0.655000,1804095,1000,12,0,1,601.646,0.846,6.375,525.548,4.915,6.158
1782117358.167817,0.656000,1804096,1000,12,0,1,607.891,6.961,6.370,516.973,-4.439,5.786
1782117358.168817,0.657000,1804097,1000,12,0,1,606.834,6.043,6.427,512.337,-9.548,5.638
1782117358.169817,0.658000,1804098,1000,12,0,1,601.045,-0.305,6.337,514.715,-6.917,5.383
1782117358.170817,0.659000,1804099,1000,12,0,1,595.064,-5.526,6.303,513.994,-5.920,5.286
1782117358.171817,0.660000,1804100,1000,12,0,1,590.380,-9.017,6.352,514.187,-6.091,5.285
1782117358.172817,0.661000,1804101,1000,12,0,1,588.074,-9.419,6.420,513.802,-5.076,5.250
1782117358.173817,0.662000,1804102,1000,12,0,1,586.489,-8.786,6.533,509.983,-7.959,5.368
1782117358.174817,0.663000,1804103,1000,12,0,1,587.810,-6.017,6.568,510.535,-7.408,5.404
1782117358.175817,0.664000,1804104,1000,12,0,1,593.142,0.190,6.562,511.712,-4.685,5.427
1782117358.176817,0.665000,1804105,1000,12,0,1,606.114,11.458,6.708,517.405,-0.349,5.426
1782117358.177817,0.666000,1804106,1000,12,0,1,611.110,16.730,7.080,526.101,7.764,5.535
1782117358.178817,0.667000,1804107,1000,12,0,1,605.153,8.823,7.188,530.328,10.287,5.720
1782117358.179817,0.668000,1804108,1000,12,0,1,592.902,-3.052,7.196,531.385,8.970,5.859
1782117358.180817,0.669000,1804109,1000,12,0,1,590.885,-6.750,7.091,528.070,4.374,5.871
1782117358.181817,0.670000,1804110,1000,12,0,1,599.100,1.930,6.731,520.552,-3.794,5.866
1782117358.182817,0.671000,1804111,1000,12,0,1,609.452,11.007,6.738,512.505,-11.131,6.036
1782117358.183817,0.672000,1804112,1000,12,0,1,610.461,11.737,6.838,506.236,-15.567,6.407
1782117358.184817,0.673000,1804113,1000,12,0,1,609.477,7.838,6.857,502.176,-16.785,6.828
1782117358.185817,0.674000,1804114,1000,12,0,1,615.626,11.078,7.034,494.970,-19.453,7.333
1782117358.186817,0.675000,1804115,1000,12,0,1,623.048,16.088,7.360,488.893,-21.754,7.868
1782117358.187817,0.676000,1804116,1000,12,0,1,619.613,11.161,7.513,486.154,-19.613,8.264
1782117358.188817,0.677000,1804117,1000,12,0,1,611.206,0.726,7.513,490.334,-12.387,8.445
1782117358.189817,0.678000,1804118,1000,12,0,1,607.819,-3.961,7.533,498.453,-1.411,8.403
1782117358.190817,0.679000,1804119,1000,12,0,1,608.035,-3.556,7.549,499.798,2.471,8.361
1782117358.191817,0.680000,1804120,1000,12,0,1,608.348,-3.242,7.534,499.702,2.327,8.316
1782117358.192817,0.681000,1804121,1000,12,0,1,608.588,-2.797,7.493,499.822,3.453,8.266
1782117358.193817,0.682000,1804122,1000,12,0,1,609.669,-2.036,7.461,498.645,2.433,8.255
1782117358.194817,0.683000,1804123,1000,12,0,1,612.407,0.233,7.452,496.603,1.052,8.255
1782117358.195817,0.684000,1804124,1000,12,0,1,609.236,-2.103,7.456,501.408,4.492,8.277
1782117358.196817,0.685000,1804125,1000,12,0,1,603.976,-7.629,7.530,505.011,8.820,8.371
1782117358.197817,0.686000,1804126,1000,12,0,1,599.124,-11.039,7.675,513.034,13.422,8.580
1782117358.198817,0.687000,1804127,1000,12,0,1,597.899,-11.539,7.821,528.839,25.658,9.308
1782117358.199817,0.688000,1804128,1000,12,0,1,601.021,-7.287,7.888,537.607,30.924,10.277
1782117358.200817,0.689000,1804129,1000,12,0,1,603.135,-3.994,7.844,544.453,30.684,11.145
1782117358.201817,0.690000,1804130,1000,12,0,1,604.312,-2.689,7.692,547.431,29.084,11.864
1782117358.202817,0.691000,1804131,1000,12,0,1,605.465,-1.241,7.479,547.023,22.483,12.264
1782117358.203817,0.692000,1804132,1000,12,0,1,612.984,4.329,7.361,536.646,10.392,12.337
1782117358.204817,0.693000,1804133,1000,12,0,1,623.312,13.253,7.586,514.259,-12.054,12.444
1782117358.205817,0.694000,1804134,1000,12,0,1,638.277,23.083,8.222,487.644,-34.639,13.359
1782117358.206817,0.695000,1804135,1000,12,0,1,647.549,28.830,9.096,470.637,-46.013,14.856
1782117358.207817,0.696000,1804136,1000,12,0,1,635.299,14.352,9.232,472.487,-37.929,15.793
1782117358.208817,0.697000,1804137,1000,12,0,1,615.746,-7.656,9.226,482.479,-21.061,16.070
1782117358.209817,0.698000,1804138,1000,12,0,1,600.132,-21.428,9.658,500.471,-1.651,16.068
1782117358.210817,0.699000,1804139,1000,12,0,1,589.227,-28.701,10.462,517.429,16.290,16.208
1782117358.211817,0.700000,1804140,1000,12,0,1,588.747,-25.324,11.043,528.118,23.465,16.506
1782117358.212817,0.701000,1804141,1000,12,0,1,595.545,-14.455,11.162,532.274,23.756,16.785
1782117358.213817,0.702000,1804142,1000,12,0,1,598.715,-7.446,11.168,536.958,22.012,17.002
1782117358.214817,0.703000,1804143,1000,12,0,1,594.944,-8.294,11.227,535.084,16.689,17.109
1782117358.215817,0.704000,1804144,1000,12,0,1,603.615,-1.019,11.227,527.014,4.538,17.074
1782117358.216817,0.705000,1804145,1000,12,0,1,622.760,17.248,11.488,511.184,-11.097,17.132
1782117358.217817,0.706000,1804146,1000,12,0,1,623.601,18.358,11.737,501.143,-21.725,17.394
1782117358.218817,0.707000,1804147,1000,12,0,1,617.860,8.174,11.762,501.576,-18.943,17.547
1782117358.219817,0.708000,1804148,1000,12,0,1,612.311,2.032,11.766,496.651,-18.847,17.721
1782117358.220817,0.709000,1804149,1000,12,0,1,613.920,0.448,11.740,488.484,-23.381,18.008
1782117358.221817,0.710000,1804150,1000,12,0,1,611.831,-0.193,11.671,485.290,-21.603,18.245
1782117358.222817,0.711000,1804151,1000,12,0,1,608.179,-5.293,11.619,483.993,-17.664,18.401
1782117358.223817,0.712000,1804152,1000,12,0,1,609.380,-3.921,11.565,476.546,-18.282,18.548
1782117358.224817,0.713000,1804153,1000,12,0,1,604.528,-6.478,11.570,475.753,-15.816,18.653
1782117358.225817,0.714000,1804154,1000,12,0,1,601.646,-9.520,11.648,482.912,-4.059,18.650
1782117358.226817,0.715000,1804155,1000,12,0,1,612.191,0.912,11.536,487.836,3.736,18.657
1782117358.227817,0.716000,1804156,1000,12,0,1,617.115,7.662,11.342,492.087,8.666,18.665
1782117358.228817,0.717000,1804157,1000,12,0,1,606.234,-1.591,11.276,499.126,14.844,18.726
1782117358.229817,0.718000,1804158,1000,12,0,1,596.866,-10.688,11.368,505.251,19.226,18.880
1782117358.230817,0.719000,1804159,1000,12,0,1,594.512,-10.285,11.421,504.122,16.462,19.013
1782117358.231817,0.720000,1804160,1000,12,0,1,599.052,-4.547,11.436,505.107,13.299,19.098
1782117358.232817,0.721000,1804161,1000,12,0,1,613.824,9.626,11.411,504.794,11.633,19.104
1782117358.233817,0.722000,1804162,1000,12,0,1,624.802,20.153,11.644,508.902,11.221,19.043
1782117358.234817,0.723000,1804163,1000,12,0,1,611.831,8.278,11.650,515.748,15.638,19.024
1782117358.235817,0.724000,1804164,1000,12,0,1,594.608,-10.608,11.641,520.504,16.573,18.969
1782117358.236817,0.725000,1804165,1000,12,0,1,585.960,-17.058,11.669,521.032,14.202,18.825
1782117358.237817,0.726000,1804166,1000,12,0,1,591.605,-11.171,11.669,512.673,4.713,18.632
1782117358.238817,0.727000,1804167,1000,12,0,1,604.192,2.675,11.675,500.519,-7.853,18.583
1782117358.239817,0.728000,1804168,1000,12,0,1,612.984,10.735,11.760,491.199,-15.191,18.705
1782117358.240817,0.729000,1804169,1000,12,0,1,623.721,17.539,12.008,484.857,-18.204,18.878
1782117358.241817,0.730000,1804170,1000,12,0,1,614.112,9.735,12.078,491.847,-9.846,18.927
1782117358.242817,0.731000,1804171,1000,12,0,1,603.303,-5.545,12.097,495.474,-1.445,18.922
1782117358.243817,0.732000,1804172,1000,12,0,1,601.309,-6.023,12.123,493.529,-2.391,18.921
1782117358.244817,0.733000,1804173,1000,12,0,1,593.046,-11.805,12.238,499.894,3.707,18.928
1782117358.245817,0.734000,1804174,1000,12,0,1,599.868,-6.802,12.272,508.902,12.611,19.001
1782117358.246817,0.735000,1804175,1000,12,0,1,620.190,13.774,12.379,508.470,11.611,19.031
1782117358.247817,0.736000,1804176,1000,12,0,1,634.722,25.930,12.816,507.172,7.522,18.966
1782117358.248817,0.737000,1804177,1000,12,0,1,636.380,24.893,13.190,513.874,10.822,18.679
1782117358.249817,0.738000,1804178,1000,12,0,1,637.773,20.549,13.467,515.916,11.472,18.232
1782117358.250817,0.739000,1804179,1000,12,0,1,635.899,16.473,13.655,514.763,6.393,17.731
1782117358.251817,0.740000,1804180,1000,12,0,1,635.059,11.067,13.739,509.887,0.473,17.248
1782117358.252817,0.741000,1804181,1000,12,0,1,634.482,8.685,13.793,505.659,-6.015,16.973
1782117358.253817,0.742000,1804182,1000,12,0,1,637.533,7.908,13.825,499.222,-11.193,16.983
1782117358.254817,0.743000,1804183,1000,12,0,1,636.620,6.023,13.723,493.264,-16.595,17.060
1782117358.255817,0.744000,1804184,1000,12,0,1,631.960,-0.896,13.330,490.694,-16.818,16.514
1782117358.256817,0.745000,1804185,1000,12,0,1,625.594,-7.654,12.737,490.358,-14.577,15.317
1782117358.257817,0.746000,1804186,1000,12,0,1,620.070,-13.178,12.712,497.804,-6.293,14.374
1782117358.258817,0.747000,1804187,1000,12,0,1,623.408,-10.839,12.758,502.224,1.116,14.063
1782117358.259817,0.748000,1804188,1000,12,0,1,621.871,-9.671,12.468,513.034,9.161,14.121
1782117358.260817,0.749000,1804189,1000,12,0,1,617.980,-14.195,11.959,528.767,23.652,14.328
1782117358.261817,0.750000,1804190,1000,12,0,1,614.881,-15.090,11.608,540.249,30.763,14.601
1782117358.262817,0.751000,1804191,1000,12,0,1,612.911,-16.094,11.651,548.728,33.580,14.982
1782117358.263817,0.752000,1804192,1000,12,0,1,616.274,-11.631,11.719,552.307,31.391,15.313
1782117358.264817,0.753000,1804193,1000,12,0,1,615.746,-9.579,11.739,551.899,24.721,15.528
1782117358.265817,0.754000,1804194,1000,12,0,1,608.275,-14.867,11.925,553.556,20.164,15.775
1782117358.266817,0.755000,1804195,1000,12,0,1,600.589,-19.611,11.998,548.128,11.461,15.780
1782117358.267817,0.756000,1804196,1000,12,0,1,601.069,-16.858,11.953,532.154,-6.411,15.505
1782117358.268817,0.757000,1804197,1000,12,0,1,606.018,-8.543,11.959,507.461,-29.041,15.814
1782117358.269817,0.758000,1804198,1000,12,0,1,603.736,-7.080,11.997,491.463,-42.699,16.717
1782117358.270817,0.759000,1804199,1000,12,0,1,602.775,-6.787,12.035,489.349,-39.509,17.313
1782117358.271817,0.760000,1804200,1000,12,0,1,618.845,8.061,12.089,477.891,-41.561,18.026
1782117358.272817,0.761000,1804201,1000,12,0,1,635.923,24.969,12.572,467.394,-46.547,19.027
1782117358.273817,0.762000,1804202,1000,12,0,1,642.745,28.413,13.187,467.490,-38.662,19.628
1782117358.274817,0.763000,1804203,1000,12,0,1,636.860,20.244,13.463,477.387,-23.897,19.791
1782117358.275817,0.764000,1804204,1000,12,0,1,637.557,15.025,13.563,478.396,-15.412,19.902
1782117358.276817,0.765000,1804205,1000,12,0,1,642.241,17.593,13.789,479.453,-12.771,19.977
1782117358.277817,0.766000,1804206,1000,12,0,1,643.298,15.092,13.911,485.866,-3.249,19.944
1782117358.278817,0.767000,1804207,1000,12,0,1,635.323,6.035,13.935,494.297,5.803,19.851
1782117358.279817,0.768000,1804208,1000,12,0,1,627.444,-3.995,13.864,498.117,10.566,19.720
1782117358.280817,0.769000,1804209,1000,12,0,1,628.861,-3.820,13.798,497.492,9.672,19.630
1782117358.281817,0.770000,1804210,1000,12,0,1,631.960,-0.420,13.783,494.658,6.922,19.564
1782117358.282817,0.771000,1804211,1000,12,0,1,631.648,-1.344,13.717,492.496,5.214,19.509
1782117358.283817,0.772000,1804212,1000,12,0,1,633.257,-0.762,13.418,488.172,2.476,19.447
1782117358.284817,0.773000,1804213,1000,12,0,1,636.500,1.424,13.369,481.590,-1.804,19.323
1782117358.285817,0.774000,1804214,1000,12,0,1,635.203,0.047,13.284,481.927,-0.526,19.180
1782117358.286817,0.775000,1804215,1000,12,0,1,627.804,-7.242,13.104,488.100,7.591,19.105
1782117358.287817,0.776000,1804216,1000,12,0,1,628.477,-7.964,13.057,492.808,12.950,19.181
1782117358.288817,0.777000,1804217,1000,12,0,1,629.029,-5.458,13.074,496.892,16.373,19.288
1782117358.289817,0.778000,1804218,1000,12,0,1,633.689,-2.626,12.991,504.098,21.170,19.401
1782117358.290817,0.779000,1804219,1000,12,0,1,629.173,-3.999,12.764,511.424,25.691,19.570
1782117358.291817,0.780000,1804220,1000,12,0,1,621.247,-12.485,12.812,517.477,27.236,19.896
1782117358.292817,0.781000,1804221,1000,12,0,1,620.022,-12.070,12.902,518.702,24.428,20.193
1782117358.293817,0.782000,1804222,1000,12,0,1,630.206,-2.443,12.878,512.457,14.549,20.295
1782117358.294817,0.783000,1804223,1000,12,0,1,637.148,5.937,12.797,501.143,1.008,20.288
1782117358.295817,0.784000,1804224,1000,12,0,1,635.587,3.829,12.772,495.210,-6.987,20.234
1782117358.296817,0.785000,1804225,1000,12,0,1,629.125,-2.500,12.628,496.892,-5.884,20.184
1782117358.297817,0.786000,1804226,1000,12,0,1,626.603,-5.301,12.107,496.964,-5.166,20.170
1782117358.298817,0.787000,1804227,1000,12,0,1,630.927,-1.162,11.585,483.488,-15.616,20.232
1782117358.299817,0.788000,1804228,1000,12,0,1,633.857,2.679,11.221,472.607,-25.385,20.484
1782117358.300817,0.789000,1804229,1000,12,0,1,628.885,-1.653,10.979,470.325,-23.417,20.731
1782117358.301817,0.790000,1804230,1000,12,0,1,622.183,-7.588,10.920,475.561,-15.425,20.845
1782117358.302817,0.791000,1804231,1000,12,0,1,616.827,-11.202,10.965,481.086,-6.357,20.847
1782117358.303817,0.792000,1804232,1000,12,0,1,617.884,-9.013,10.982,483.056,-2.416,20.790
1782117358.304817,0.793000,1804233,1000,12,0,1,619.901,-4.683,10.969,483.632,-0.515,20.657
1782117358.305817,0.794000,1804234,1000,12,0,1,620.406,-3.085,10.977,486.683,3.009,20.524
1782117358.306817,0.795000,1804235,1000,12,0,1,624.970,1.294,10.925,486.683,4.274,20.429
1782117358.307817,0.796000,1804236,1000,12,0,1,626.747,4.162,10.781,489.013,5.661,20.425
1782117358.308817,0.797000,1804237,1000,12,0,1,630.663,6.015,10.706,490.190,7.466,20.452
1782117358.309817,0.798000,1804238,1000,12,0,1,632.849,8.367,10.684,489.325,5.901,20.428
1782117358.310817,0.799000,1804239,1000,12,0,1,629.486,4.001,10.508,489.926,5.776,20.169
1782117358.311817,0.800000,1804240,1000,12,0,1,626.675,0.462,10.290,490.574,6.034,19.712
1782117358.312817,0.801000,1804241,1000,12,0,1,626.627,0.129,10.035,491.247,5.622,19.148
1782117358.313817,0.802000,1804242,1000,12,0,1,630.230,2.922,9.908,491.895,5.608,18.643
1782117358.314817,0.803000,1804243,1000,12,0,1,636.932,8.493,9.888,494.562,6.490,18.336
1782117358.315817,0.804000,1804244,1000,12,0,1,637.509,8.758,9.741,493.937,5.713,18.131
1782117358.316817,0.805000,1804245,1000,12,0,1,638.566,7.189,9.393,494.490,3.992,18.067
1782117358.317817,0.806000,1804246,1000,12,0,1,639.767,7.601,9.149,492.328,2.258,18.047
1782117358.318817,0.807000,1804247,1000,12,0,1,639.815,5.940,9.107,492.760,0.627,17.574
1782117358.319817,0.808000,1804248,1000,12,0,1,637.485,3.087,9.063,494.538,2.543,16.508
1782117358.320817,0.809000,1804249,1000,12,0,1,637.028,1.210,9.013,497.372,3.830,15.543
1782117358.321817,0.810000,1804250,1000,12,0,1,633.377,-1.593,8.944,498.165,4.336,14.401
1782117358.322817,0.811000,1804251,1000,12,0,1,632.464,-3.628,8.233,500.975,5.080,12.829
1782117358.323817,0.812000,1804252,1000,12,0,1,631.527,-3.322,7.201,500.783,4.773,11.625
1782117358.324817,0.813000,1804253,1000,12,0,1,630.879,-4.193,6.634,502.609,4.247,11.139
1782117358.325817,0.814000,1804254,1000,12,0,1,627.468,-6.081,6.344,501.023,3.009,10.932
1782117358.326817,0.815000,1804255,1000,12,0,1,625.306,-8.036,5.945,500.327,0.469,10.782
1782117358.327817,0.816000,1804256,1000,12,0,1,627.012,-5.632,5.605,499.822,0.132,10.773
1782117358.328817,0.817000,1804257,1000,12,0,1,625.883,-5.118,5.587,502.296,1.124,10.742
1782117358.329817,0.818000,1804258,1000,12,0,1,623.841,-6.896,5.643,509.166,6.430,10.677
1782117358.330817,0.819000,1804259,1000,12,0,1,622.472,-6.801,5.699,513.970,9.842,10.680
1782117358.331817,0.820000,1804260,1000,12,0,1,620.406,-7.759,5.804,519.975,11.924,10.768
1782117358.332817,0.821000,1804261,1000,12,0,1,623.120,-4.685,5.838,523.507,13.229,10.904
1782117358.333817,0.822000,1804262,1000,12,0,1,631.071,3.112,5.854,523.218,9.183,10.976
1782117358.334817,0.823000,1804263,1000,12,0,1,636.091,8.112,5.962,519.399,3.465,10.984
1782117358.335817,0.824000,1804264,1000,12,0,1,634.290,5.750,6.017,518.078,-0.867,10.984
1782117358.336817,0.825000,1804265,1000,12,0,1,626.675,-1.513,5.933,516.084,-3.158,10.941
1782117358.337817,0.826000,1804266,1000,12,0,1,622.087,-6.215,5.891,514.715,-5.968,10.819
1782117358.338817,0.827000,1804267,1000,12,0,1,619.301,-6.873,5.921,515.580,-5.405,10.596
1782117358.339817,0.828000,1804268,1000,12,0,1,619.349,-5.839,5.966,512.313,-7.818,10.224
1782117358.340817,0.829000,1804269,1000,12,0,1,625.498,0.933,5.941,510.127,-10.383,9.669
1782117358.341817,0.830000,1804270,1000,12,0,1,632.032,7.889,5.781,508.133,-10.594,8.995
1782117358.342817,0.831000,1804271,1000,12,0,1,632.368,8.218,5.644,511.808,-7.654,8.375
1782117358.343817,0.832000,1804272,1000,12,0,1,632.777,7.045,5.721,514.499,-3.140,8.130
1782117358.344817,0.833000,1804273,1000,12,0,1,632.897,6.695,5.738,517.669,-1.298,8.131
1782117358.345817,0.834000,1804274,1000,12,0,1,634.218,6.344,5.782,525.164,5.085,8.103
1782117358.346817,0.835000,1804275,1000,12,0,1,633.593,5.334,5.821,530.088,8.671,8.153
1782117358.347817,0.836000,1804276,1000,12,0,1,630.975,1.719,5.777,531.193,7.457,8.188
1782117358.348817,0.837000,1804277,1000,12,0,1,632.969,2.121,5.783,527.710,2.832,7.895
1782117358.349817,0.838000,1804278,1000,12,0,1,638.902,6.750,5.849,526.125,-1.110,7.033
1782117358.350817,0.839000,1804279,1000,12,0,1,637.749,5.312,5.892,526.725,-0.996,6.206
1782117358.351817,0.840000,1804280,1000,12,0,1,632.200,-1.428,5.797,528.167,-0.878,5.812
1782117358.352817,0.841000,1804281,1000,12,0,1,630.447,-3.973,5.605,520.624,-6.606,5.817
1782117358.353817,0.842000,1804282,1000,12,0,1,634.002,-0.977,5.460,503.930,-21.215,6.537
1782117358.354817,0.843000,1804283,1000,12,0,1,644.907,7.682,5.527,481.614,-37.590,8.425
1782117358.355817,0.844000,1804284,1000,12,0,1,651.152,13.219,5.818,470.661,-43.524,10.425
1782117358.356817,0.845000,1804285,1000,12,0,1,646.132,6.556,5.889,478.804,-29.448,11.210
1782117358.357817,0.846000,1804286,1000,12,0,1,631.576,-7.398,5.952,489.589,-12.527,11.321
1782117358.358817,0.847000,1804287,1000,12,0,1,626.003,-14.072,6.218,494.009,-4.674,11.291
1782117358.359817,0.848000,1804288,1000,12,0,1,627.684,-9.825,6.261,494.850,-1.538,11.262
1782117358.360817,0.849000,1804289,1000,12,0,1,626.964,-8.593,6.352,495.402,0.116,11.232
1782117358.361817,0.850000,1804290,1000,12,0,1,624.321,-9.300,6.487,499.222,4.232,11.216
1782117358.362817,0.851000,1804291,1000,12,0,1,623.144,-8.785,6.605,504.458,9.243,11.264
1782117358.363817,0.852000,1804292,1000,12,0,1,622.712,-7.375,6.674,513.274,15.798,11.456
1782117358.364817,0.853000,1804293,1000,12,0,1,620.766,-7.202,6.643,520.360,20.914,11.796
1782117358.365817,0.854000,1804294,1000,12,0,1,611.638,-12.952,6.779,527.446,23.524,12.229
1782117358.366817,0.855000,1804295,1000,12,0,1,603.615,-18.536,7.197,535.229,26.938,12.797
1782117358.367817,0.856000,1804296,1000,12,0,1,599.100,-18.854,7.599,545.341,30.810,13.514
1782117358.368817,0.857000,1804297,1000,12,0,1,587.618,-23.958,8.278,552.475,32.510,14.275
1782117358.369817,0.858000,1804298,1000,12,0,1,588.723,-21.136,8.790,549.209,24.501,14.685
1782117358.370817,0.859000,1804299,1000,12,0,1,617.932,7.855,8.858,529.344,3.314,14.682
1782117358.371817,0.860000,1804300,1000,12,0,1,634.002,26.698,9.627,513.178,-14.863,14.819
1782117358.372817,0.861000,1804301,1000,12,0,1,627.444,17.597,9.930,520.336,-8.847,14.855
1782117358.373817,0.862000,1804302,1000,12,0,1,623.120,10.042,10.020,529.992,2.990,14.845
1782117358.374817,0.863000,1804303,1000,12,0,1,633.401,16.429,10.269,520.840,-4.059,14.844
1782117358.375817,0.864000,1804304,1000,12,0,1,642.385,23.678,10.767,512.337,-13.188,14.955
1782117358.376817,0.865000,1804305,1000,12,0,1,635.155,15.120,10.918,510.055,-13.173,15.070
1782117358.377817,0.866000,1804306,1000,12,0,1,631.359,7.093,10.935,506.380,-14.420,15.208
1782117358.378817,0.867000,1804307,1000,12,0,1,649.495,20.387,11.285,497.036,-20.102,15.470
1782117358.379817,0.868000,1804308,1000,12,0,1,685.214,48.170,13.146,481.711,-30.495,16.034
1782117358.380817,0.869000,1804309,1000,12,0,1,703.301,60.240,15.635,467.875,-38.843,16.892
1782117358.381817,0.870000,1804310,1000,12,0,1,697.945,44.767,16.833,465.425,-35.765,17.552
1782117358.382817,0.871000,1804311,1000,12,0,1,664.604,9.065,16.869,480.197,-17.751,17.632
1782117358.383817,0.872000,1804312,1000,12,0,1,629.678,-29.014,17.355,493.289,-0.323,17.584
1782117358.384817,0.873000,1804313,1000,12,0,1,622.928,-34.838,18.004,493.120,1.078,17.578
1782117358.385817,0.874000,1804314,1000,12,0,1,632.680,-21.330,18.237,492.039,-0.223,17.577
1782117358.386817,0.875000,1804315,1000,12,0,1,636.764,-13.687,18.338,495.018,3.018,17.577
1782117358.387817,0.876000,1804316,1000,12,0,1,639.743,-10.188,18.374,500.927,8.368,17.596
1782117358.388817,0.877000,1804317,1000,12,0,1,639.767,-8.658,18.389,509.190,15.387,17.714
1782117358.389817,0.878000,1804318,1000,12,0,1,638.734,-9.800,18.422,520.840,24.002,18.002
1782117358.390817,0.879000,1804319,1000,12,0,1,640.535,-8.291,18.459,532.034,31.716,18.495
1782117358.391817,0.880000,1804320,1000,12,0,1,644.667,-4.757,18.438,535.397,31.442,18.963
1782117358.392817,0.881000,1804321,1000,12,0,1,640.679,-7.822,18.434,535.373,26.661,19.303
1782117358.393817,0.882000,1804322,1000,12,0,1,645.772,-6.195,18.428,527.926,17.536,19.457
1782117358.394817,0.883000,1804323,1000,12,0,1,654.755,2.752,18.408,517.021,4.707,19.467
1782117358.395817,0.884000,1804324,1000,12,0,1,659.391,5.027,18.400,511.208,-1.388,19.455
1782117358.396817,0.885000,1804325,1000,12,0,1,654.515,-0.054,18.384,507.533,-3.798,19.424
1782117358.397817,0.886000,1804326,1000,12,0,1,638.542,-14.673,18.500,502.296,-7.335,19.423
1782117358.398817,0.887000,1804327,1000,12,0,1,628.525,-23.738,18.799,494.562,-12.504,19.499
1782117358.399817,0.888000,1804328,1000,12,0,1,620.934,-25.201,19.110,493.048,-13.106,19.586
1782117358.400817,0.889000,1804329,1000,12,0,1,611.662,-29.014,19.531,500.038,-5.111,19.599
1782117358.401817,0.890000,1804330,1000,12,0,1,607.363,-26.867,19.896,501.335,-2.172,19.601
1782117358.402817,0.891000,1804331,1000,12,0,1,627.180,-6.097,19.907,498.045,-5.968,19.597
1782117358.403817,0.892000,1804332,1000,12,0,1,640.799,13.668,20.000,499.486,-5.466,19.382
1782117358.404817,0.893000,1804333,1000,12,0,1,644.331,15.229,20.087,507.869,1.120,18.639
1782117358.405817,0.894000,1804334,1000,12,0,1,646.180,16.710,20.139,514.835,6.668,17.619
1782117358.406817,0.895000,1804335,1000,12,0,1,645.099,13.863,20.213,518.078,7.137,17.149
1782117358.407817,0.896000,1804336,1000,12,0,1,638.037,6.382,20.206,521.705,7.665,17.092
1782117358.408817,0.897000,1804337,1000,12,0,1,634.074,0.788,20.108,518.871,3.970,17.088
1782117358.409817,0.898000,1804338,1000,12,0,1,630.567,-2.128,20.062,513.274,-3.158,17.093
1782117358.410817,0.899000,1804339,1000,12,0,1,624.922,-7.040,20.050,505.851,-8.929,17.139
1782117358.411817,0.900000,1804340,1000,12,0,1,622.592,-9.144,20.048,504.818,-9.683,17.183
1782117358.412817,0.901000,1804341,1000,12,0,1,623.433,-6.875,20.033,508.974,-3.063,17.139
1782117358.413817,0.902000,1804342,1000,12,0,1,618.724,-9.359,20.050,511.832,1.459,16.994
1782117358.414817,0.903000,1804343,1000,12,0,1,608.107,-16.868,20.166,518.126,7.587,16.769
1782117358.415817,0.904000,1804344,1000,12,0,1,606.642,-17.000,20.226,520.384,11.156,16.511
1782117358.416817,0.905000,1804345,1000,12,0,1,637.941,10.957,20.115,511.712,3.389,16.073
1782117358.417817,0.906000,1804346,1000,12,0,1,660.785,35.606,20.563,504.770,-3.616,15.480
1782117358.418817,0.907000,1804347,1000,12,0,1,656.053,27.139,20.642,509.334,0.482,14.781
1782117358.419817,0.908000,1804348,1000,12,0,1,650.960,16.965,20.565,516.541,7.775,14.411
1782117358.420817,0.909000,1804349,1000,12,0,1,647.405,11.993,20.605,528.455,15.683,14.573
1782117358.421817,0.910000,1804350,1000,12,0,1,644.955,7.193,20.282,537.006,21.325,14.733
1782117358.422817,0.911000,1804351,1000,12,0,1,637.172,1.019,20.129,540.369,18.814,14.919
1782117358.423817,0.912000,1804352,1000,12,0,1,631.239,-5.643,20.095,543.372,16.111,15.086
1782117358.424817,0.913000,1804353,1000,12,0,1,641.496,3.547,19.966,539.072,8.044,15.118
1782117358.425817,0.914000,1804354,1000,12,0,1,655.668,17.074,19.831,529.007,-5.405,15.022
1782117358.426817,0.915000,1804355,1000,12,0,1,660.592,19.819,19.914,517.934,-16.983,15.098
1782117358.427817,0.916000,1804356,1000,12,0,1,658.551,14.545,19.994,506.932,-26.433,15.420
1782117358.428817,0.917000,1804357,1000,12,0,1,651.993,5.661,19.802,505.587,-26.135,15.600
1782117358.429817,0.918000,1804358,1000,12,0,1,645.532,-2.781,18.597,503.137,-23.094,15.343
1782117358.430817,0.919000,1804359,1000,12,0,1,640.655,-8.181,16.571,504.506,-19.531,14.590
1782117358.431817,0.920000,1804360,1000,12,0,1,632.416,-15.091,15.462,505.587,-13.183,13.812
1782117358.432817,0.921000,1804361,1000,12,0,1,634.146,-14.672,15.548,507.653,-8.884,13.640
1782117358.433817,0.922000,1804362,1000,12,0,1,635.443,-10.396,15.069,510.511,-2.742,13.645
1782117358.434817,0.923000,1804363,1000,12,0,1,631.527,-13.739,14.373,512.385,0.993,13.645
1782117358.435817,0.924000,1804364,1000,12,0,1,630.038,-13.938,14.190,515.652,5.027,13.664
1782117358.436817,0.925000,1804365,1000,12,0,1,629.510,-12.533,14.169,514.331,5.515,13.679
1782117358.437817,0.926000,1804366,1000,12,0,1,629.846,-10.737,14.177,514.619,4.597,13.643
1782117358.438817,0.927000,1804367,1000,12,0,1,629.246,-8.937,14.180,514.835,5.712,13.493
1782117358.439817,0.928000,1804368,1000,12,0,1,627.084,-9.156,14.172,514.667,4.195,13.072
1782117358.440817,0.929000,1804369,1000,12,0,1,626.819,-7.384,14.162,516.949,5.485,12.303
1782117358.441817,0.930000,1804370,1000,12,0,1,630.975,-1.997,14.149,518.078,5.373,11.497
1782117358.442817,0.931000,1804371,1000,12,0,1,630.807,0.611,14.106,519.663,4.796,10.882
1782117358.443817,0.932000,1804372,1000,12,0,1,627.684,-1.532,14.080,520.720,4.330,10.613
1782117358.444817,0.933000,1804373,1000,12,0,1,626.435,-1.167,14.076,524.828,5.363,10.620
1782117358.445817,0.934000,1804374,1000,12,0,1,624.634,-1.090,14.058,531.337,9.454,10.702
1782117358.446817,0.935000,1804375,1000,12,0,1,621.703,-2.295,14.062,540.897,14.709,10.889
1782117358.447817,0.936000,1804376,1000,12,0,1,616.707,-4.868,13.925,549.857,19.823,11.196
1782117358.448817,0.937000,1804377,1000,12,0,1,612.167,-7.459,13.556,558.216,22.592,11.508
1782117358.449817,0.938000,1804378,1000,12,0,1,611.230,-6.330,13.109,566.528,25.337,11.909
1782117358.450817,0.939000,1804379,1000,12,0,1,618.604,1.181,12.452,569.650,23.526,12.344
1782117358.451817,0.940000,1804380,1000,12,0,1,623.529,7.597,11.907,569.602,18.144,12.604
1782117358.452817,0.941000,1804381,1000,12,0,1,627.612,9.611,11.953,570.275,14.467,12.741
1782117358.453817,0.942000,1804382,1000,12,0,1,628.285,9.997,11.880,561.988,4.924,12.737
1782117358.454817,0.943000,1804383,1000,12,0,1,628.717,7.907,11.736,545.822,-11.559,12.840
1782117358.455817,0.944000,1804384,1000,12,0,1,644.306,18.408,11.787,525.981,-28.098,13.408
1782117358.456817,0.945000,1804385,1000,12,0,1,654.275,26.918,12.230,513.418,-36.975,14.356
1782117358.457817,0.946000,1804386,1000,12,0,1,640.896,11.647,12.308,511.112,-33.711,15.088
1782117358.458817,0.947000,1804387,1000,12,0,1,622.808,-8.074,12.360,506.596,-31.231,15.711
1782117358.459817,0.948000,1804388,1000,12,0,1,623.865,-8.705,12.418,502.056,-30.993,16.305
1782117358.460817,0.949000,1804389,1000,12,0,1,632.464,1.754,12.380,506.884,-22.580,16.567
1782117358.461817,0.950000,1804390,1000,12,0,1,624.826,-2.674,12.318,521.393,-6.798,16.538
1782117358.462817,0.951000,1804391,1000,12,0,1,613.560,-13.043,12.418,528.767,2.362,16.536
1782117358.463817,0.952000,1804392,1000,12,0,1,616.947,-8.508,12.405,523.290,-3.322,16.541
1782117358.464817,0.953000,1804393,1000,12,0,1,625.618,2.333,12.178,519.375,-8.532,16.551
1782117358.465817,0.954000,1804394,1000,12,0,1,617.523,-1.724,11.941,526.509,-2.913,16.480
1782117358.466817,0.955000,1804395,1000,12,0,1,604.144,-13.937,12.003,531.505,2.547,16.477
1782117358.467817,0.956000,1804396,1000,12,0,1,607.579,-9.804,10.984,523.146,-4.689,16.483
1782117358.468817,0.957000,1804397,1000,12,0,1,618.100,2.707,10.298,515.075,-12.590,16.578
1782117358.469817,0.958000,1804398,1000,12,0,1,623.048,7.804,10.076,516.156,-9.570,16.597
1782117358.470817,0.959000,1804399,1000,12,0,1,629.438,11.581,10.066,517.669,-4.773,16.462
1782117358.471817,0.960000,1804400,1000,12,0,1,630.254,11.581,10.148,523.002,1.695,16.185
1782117358.472817,0.961000,1804401,1000,12,0,1,626.123,4.903,10.170,524.852,6.802,15.994
1782117358.473817,0.962000,1804402,1000,12,0,1,621.799,-0.489,10.139,523.603,6.504,15.858
1782117358.474817,0.963000,1804403,1000,12,0,1,618.893,-4.108,10.143,521.177,6.249,15.842
1782117358.475817,0.964000,1804404,1000,12,0,1,621.751,-2.229,9.857,520.144,6.177,15.847
1782117358.476817,0.965000,1804405,1000,12,0,1,626.771,2.704,9.458,518.654,6.439,15.691
1782117358.477817,0.966000,1804406,1000,12,0,1,624.513,1.079,9.232,517.862,6.120,15.263
1782117358.478817,0.967000,1804407,1000,12,0,1,622.280,-1.861,9.201,517.838,6.480,14.837
1782117358.479817,0.968000,1804408,1000,12,0,1,620.766,-2.103,9.198,517.838,6.192,14.500
1782117358.480817,0.969000,1804409,1000,12,0,1,619.829,-2.338,9.131,523.651,9.474,14.297
1782117358.481817,0.970000,1804410,1000,12,0,1,615.265,-4.328,8.899,524.323,9.871,14.244
1782117358.482817,0.971000,1804411,1000,12,0,1,616.082,-3.381,8.667,524.635,6.105,14.215
1782117358.483817,0.972000,1804412,1000,12,0,1,626.675,7.361,8.604,526.869,6.308,14.237
1782117358.484817,0.973000,1804413,1000,12,0,1,632.729,14.024,8.614,529.584,5.568,14.258
1782117358.485817,0.974000,1804414,1000,12,0,1,631.311,11.193,8.533,533.307,6.338,14.269
1782117358.486817,0.975000,1804415,1000,12,0,1,627.012,6.053,8.391,536.814,6.820,14.280
1782117358.487817,0.976000,1804416,1000,12,0,1,623.673,1.514,8.255,542.795,9.030,14.322
1782117358.488817,0.977000,1804417,1000,12,0,1,626.435,2.788,8.167,548.680,12.132,14.402
1782117358.489817,0.978000,1804418,1000,12,0,1,638.566,11.726,8.233,549.185,10.158,14.461
1782117358.490817,0.979000,1804419,1000,12,0,1,648.606,19.199,8.606,549.665,7.891,14.484
1782117358.491817,0.980000,1804420,1000,12,0,1,642.409,10.939,8.739,552.788,9.037,14.520
1782117358.492817,0.981000,1804421,1000,12,0,1,643.514,5.526,8.774,553.797,9.096,14.561
1782117358.493817,0.982000,1804422,1000,12,0,1,652.666,11.968,8.933,555.790,9.053,14.604
1782117358.494817,0.983000,1804423,1000,12,0,1,655.548,11.388,9.075,554.853,8.017,14.629
1782117358.495817,0.984000,1804424,1000,12,0,1,651.489,4.525,9.096,555.790,6.682,14.598
1782117358.496817,0.985000,1804425,1000,12,0,1,641.256,-6.589,9.138,561.411,10.607,14.527
1782117358.497817,0.986000,1804426,1000,12,0,1,628.669,-18.479,9.480,562.564,10.366,14.329
1782117358.498817,0.987000,1804427,1000,12,0,1,624.586,-21.248,9.888,559.706,4.959,13.986
1782117358.499817,0.988000,1804428,1000,12,0,1,615.314,-24.390,10.434,557.808,0.730,13.519
1782117358.500817,0.989000,1804429,1000,12,0,1,600.781,-33.688,11.469,560.955,0.585,13.104
1782117358.501817,0.990000,1804430,1000,12,0,1,601.502,-28.945,12.130,550.290,-8.622,12.908
1782117358.502817,0.991000,1804431,1000,12,0,1,631.167,1.056,12.055,523.098,-34.137,13.628
1782117358.503817,0.992000,1804432,1000,12,0,1,648.006,22.120,12.374,508.109,-47.383,15.171
1782117358.504817,0.993000,1804433,1000,12,0,1,650.023,19.926,12.641,503.834,-45.039,16.372
1782117358.505817,0.994000,1804434,1000,12,0,1,645.027,13.744,12.522,502.585,-40.735,16.895
1782117358.506817,0.995000,1804435,1000,12,0,1,634.362,1.333,11.931,512.505,-27.165,16.519
1782117358.507817,0.996000,1804436,1000,12,0,1,627.036,-6.900,11.857,520.120,-14.336,15.945
1782117358.508817,0.997000,1804437,1000,12,0,1,625.426,-7.997,11.856,525.452,-7.770,15.360
1782117358.509817,0.998000,1804438,1000,12,0,1,633.233,-1.764,11.794,526.005,-3.980,14.733
1782117358.510817,0.999000,1804439,1000,12,0,1,644.931,9.189,11.863,519.543,-7.934,14.426
1782117358.511817,1.000000,1804440,1000,12,0,1,648.270,10.803,11.955,517.357,-8.091,14.439
1782117358.512817,1.001000,1804441,1000,12,0,1,641.712,3.058,11.820,520.960,-1.476,14.437
1782117358.513817,1.002000,1804442,1000,12,0,1,633.329,-6.515,11.795,522.930,3.451,14.438
1782117358.514817,1.003000,1804443,1000,12,0,1,630.687,-9.131,11.860,526.557,8.314,14.435
1782117358.515817,1.004000,1804444,1000,12,0,1,628.861,-9.178,11.929,525.837,10.191,14.501
1782117358.516817,1.005000,1804445,1000,12,0,1,626.627,-9.848,11.847,529.199,12.559,14.605
1782117358.517817,1.006000,1804446,1000,12,0,1,626.603,-8.097,11.821,529.296,14.625,14.736
1782117358.518817,1.007000,1804447,1000,12,0,1,627.444,-5.270,11.838,525.909,10.425,14.702
1782117358.519817,1.008000,1804448,1000,12,0,1,627.708,-3.269,11.796,526.389,10.204,14.710
1782117358.520817,1.009000,1804449,1000,12,0,1,630.639,0.344,11.682,526.509,10.098,14.764
1782117358.521817,1.010000,1804450,1000,12,0,1,624.778,-2.169,11.570,528.983,10.200,14.832
1782117358.522817,1.011000,1804451,1000,12,0,1,609.549,-14.588,11.732,533.715,13.061,14.916
1782117358.523817,1.012000,1804452,1000,12,0,1,612.311,-12.095,11.856,532.995,10.303,14.959
1782117358.524817,1.013000,1804453,1000,12,0,1,621.799,1.131,11.843,533.139,6.990,14.965
1782117358.525817,1.014000,1804454,1000,12,0,1,623.240,3.420,11.849,535.709,6.959,14.972
1782117358.526817,1.015000,1804455,1000,12,0,1,620.382,1.157,11.844,536.886,5.709,14.966
1782117358.527817,1.016000,1804456,1000,12,0,1,612.119,-5.476,11.868,537.006,3.432,14.949
1782117358.528817,1.017000,1804457,1000,12,0,1,612.719,-5.976,11.895,538.135,2.507,14.925
1782117358.529817,1.018000,1804458,1000,12,0,1,619.373,2.004,11.895,542.219,4.368,14.912
1782117358.530817,1.019000,1804459,1000,12,0,1,636.668,15.190,12.083,541.666,3.620,14.861
1782117358.531817,1.020000,1804460,1000,12,0,1,648.798,26.251,12.625,538.111,-0.980,14.796
1782117358.532817,1.021000,1804461,1000,12,0,1,650.984,23.227,13.037,537.294,-1.801,14.773
1782117358.533817,1.022000,1804462,1000,12,0,1,648.318,17.007,13.216,537.294,-1.044,14.747
1782117358.534817,1.023000,1804463,1000,12,0,1,642.505,8.291,13.119,538.880,0.810,14.726
1782117358.535817,1.024000,1804464,1000,12,0,1,634.794,-0.549,13.023,540.849,3.442,14.707
1782117358.536817,1.025000,1804465,1000,12,0,1,621.679,-11.594,13.098,543.780,5.863,14.698
1782117358.537817,1.026000,1804466,1000,12,0,1,615.722,-16.992,13.315,545.197,7.208,14.678
1782117358.538817,1.027000,1804467,1000,12,0,1,614.761,-13.505,13.446,550.650,10.010,14.646
1782117358.539817,1.028000,1804468,1000,12,0,1,620.238,-6.967,13.379,557.208,14.662,14.722
1782117358.540817,1.029000,1804469,1000,12,0,1,637.196,9.934,13.176,560.955,14.857,14.830
1782117358.541817,1.030000,1804470,1000,12,0,1,657.230,27.481,13.650,558.745,9.870,14.840
1782117358.542817,1.031000,1804471,1000,12,0,1,655.188,25.008,14.079,565.711,10.340,14.857
1782117358.543817,1.032000,1804472,1000,12,0,1,645.099,9.808,14.045,573.494,14.928,14.951
1782117358.544817,1.033000,1804473,1000,12,0,1,646.180,7.345,13.991,567.632,5.751,14.930
1782117358.545817,1.034000,1804474,1000,12,0,1,648.510,7.995,14.022,559.297,-6.499,14.929
1782117358.546817,1.035000,1804475,1000,12,0,1,645.051,2.517,13.996,555.022,-12.094,14.951
1782117358.547817,1.036000,1804476,1000,12,0,1,645.051,-0.280,13.750,541.858,-22.850,15.226
1782117358.548817,1.037000,1804477,1000,12,0,1,653.699,5.025,13.436,519.231,-40.929,16.274
1782117358.549817,1.038000,1804478,1000,12,0,1,653.338,4.510,13.002,516.637,-41.423,17.296
1782117358.550817,1.039000,1804479,1000,12,0,1,648.390,-3.678,12.109,529.968,-22.049,17.575
1782117358.551817,1.040000,1804480,1000,12,0,1,646.588,-6.231,11.430,541.090,-7.453,17.564
1782117358.552817,1.041000,1804481,1000,12,0,1,647.549,-6.350,11.464,545.197,-0.747,16.888
1782117358.553817,1.042000,1804482,1000,12,0,1,644.667,-8.083,11.088,533.907,-7.909,15.542
1782117358.554817,1.043000,1804483,1000,12,0,1,640.655,-11.811,10.853,521.561,-18.200,14.408
1782117358.555817,1.044000,1804484,1000,12,0,1,638.445,-12.398,10.821,516.637,-18.365,13.459
1782117358.556817,1.045000,1804485,1000,12,0,1,639.430,-10.065,10.912,516.613,-14.270,13.056
1782117358.557817,1.046000,1804486,1000,12,0,1,642.217,-5.783,10.899,517.790,-8.745,12.957
1782117358.558817,1.047000,1804487,1000,12,0,1,640.151,-5.460,10.868,519.351,-4.351,12.925
1782117358.559817,1.048000,1804488,1000,12,0,1,635.275,-8.930,10.938,523.122,1.080,12.914
1782117358.560817,1.049000,1804489,1000,12,0,1,630.567,-11.038,10.972,526.101,5.284,12.887
1782117358.561817,1.050000,1804490,1000,12,0,1,628.669,-11.031,10.977,525.909,5.402,12.858
1782117358.562817,1.051000,1804491,1000,12,0,1,628.117,-8.837,11.039,525.644,4.757,12.874
1782117358.563817,1.052000,1804492,1000,12,0,1,625.258,-9.179,11.077,530.953,8.344,12.919
1782117358.564817,1.053000,1804493,1000,12,0,1,619.325,-12.222,11.137,538.808,14.589,13.030
1782117358.565817,1.054000,1804494,1000,12,0,1,618.556,-11.577,11.181,550.986,22.291,13.328
1782117358.566817,1.055000,1804495,1000,12,0,1,622.688,-5.417,11.120,559.297,27.274,13.761
1782117358.567817,1.056000,1804496,1000,12,0,1,634.890,5.576,11.089,563.309,25.596,14.078
1782117358.568817,1.057000,1804497,1000,12,0,1,659.680,26.086,11.663,566.311,23.685,14.396
1782117358.569817,1.058000,1804498,1000,12,0,1,673.035,36.616,12.753,572.389,23.851,14.715
1782117358.570817,1.059000,1804499,1000,12,0,1,652.113,14.325,12.913,573.638,21.600,14.961
1782117358.571817,1.060000,1804500,1000,12,0,1,631.431,-10.847,13.000,556.943,4.354,14.904
1782117358.572817,1.061000,1804501,1000,12,0,1,644.282,-1.574,12.837,524.587,-25.313,15.216
1782117358.573817,1.062000,1804502,1000,12,0,1,659.199,14.789,12.893,501.936,-43.934,16.371
1782117358.574817,1.063000,1804503,1000,12,0,1,635.635,-4.399,12.907,508.349,-33.060,16.997
1782117358.575817,1.064000,1804504,1000,12,0,1,611.542,-29.160,13.541,511.664,-19.742,17.196
1782117358.576817,1.065000,1804505,1000,12,0,1,621.991,-17.283,13.759,500.134,-25.190,17.543
1782117358.577817,1.066000,1804506,1000,12,0,1,643.226,7.146,13.774,494.826,-25.614,17.906
1782117358.578817,1.067000,1804507,1000,12,0,1,649.423,14.744,13.906,503.137,-13.468,18.004
1782117358.579817,1.068000,1804508,1000,12,0,1,628.765,-2.351,13.907,518.150,3.486,18.000
1782117358.580817,1.069000,1804509,1000,12,0,1,605.705,-24.296,14.163,524.227,11.012,18.060
1782117358.581817,1.070000,1804510,1000,12,0,1,600.493,-25.482,14.135,521.177,6.669,18.084
1782117358.582817,1.071000,1804511,1000,12,0,1,610.413,-12.291,13.857,517.477,1.855,18.084
1782117358.583817,1.072000,1804512,1000,12,0,1,614.377,-3.400,13.655,517.357,0.389,18.084
1782117358.584817,1.073000,1804513,1000,12,0,1,610.485,-5.639,13.628,525.572,6.276,18.105
1782117358.585817,1.074000,1804514,1000,12,0,1,623.312,4.540,13.643,526.629,7.890,18.133
1782117358.586817,1.075000,1804515,1000,12,0,1,647.333,26.374,14.049,521.849,1.364,18.115
1782117358.587817,1.076000,1804516,1000,12,0,1,656.701,32.481,14.584,522.666,1.315,18.087
1782117358.588817,1.077000,1804517,1000,12,0,1,650.864,21.749,14.782,528.959,6.965,18.059
1782117358.589817,1.078000,1804518,1000,12,0,1,638.542,6.164,14.775,533.571,11.468,18.012
1782117358.590817,1.079000,1804519,1000,12,0,1,633.809,-1.806,14.710,531.722,9.826,17.943
1782117358.591817,1.080000,1804520,1000,12,0,1,638.133,1.427,14.189,526.941,5.145,17.904
1782117358.592817,1.081000,1804521,1000,12,0,1,639.358,2.928,13.747,518.270,-1.096,17.844
1782117358.593817,1.082000,1804522,1000,12,0,1,643.898,5.200,13.697,515.964,-2.889,17.724
1782117358.594817,1.083000,1804523,1000,12,0,1,646.949,8.659,13.712,517.429,1.589,17.707
1782117358.595817,1.084000,1804524,1000,12,0,1,645.748,6.307,13.694,520.504,5.213,17.698
1782117358.596817,1.085000,1804525,1000,12,0,1,642.553,3.290,13.698,526.917,11.496,17.690
1782117358.597817,1.086000,1804526,1000,12,0,1,636.019,-2.265,13.701,528.863,13.194,17.492
1782117358.598817,1.087000,1804527,1000,12,0,1,629.678,-7.339,13.722,529.151,10.908,16.579
1782117358.599817,1.088000,1804528,1000,12,0,1,630.447,-5.664,13.731,524.852,5.967,15.532
1782117358.600817,1.089000,1804529,1000,12,0,1,626.747,-5.954,13.747,526.149,3.202,15.223
1782117358.601817,1.090000,1804530,1000,12,0,1,630.903,-3.322,13.727,526.629,3.310,15.193
1782117358.602817,1.091000,1804531,1000,12,0,1,633.329,1.691,13.699,532.250,4.076,15.204
1782117358.603817,1.092000,1804532,1000,12,0,1,630.543,-2.024,13.654,537.847,7.981,15.205
1782117358.604817,1.093000,1804533,1000,12,0,1,630.447,-2.696,13.557,537.102,4.089,14.996
1782117358.605817,1.094000,1804534,1000,12,0,1,639.959,4.107,13.456,530.809,-3.668,14.779
1782117358.606817,1.095000,1804535,1000,12,0,1,648.870,11.296,13.475,525.044,-10.390,14.714
1782117358.607817,1.096000,1804536,1000,12,0,1,640.896,2.979,13.457,534.724,-3.487,14.670
1782117358.608817,1.097000,1804537,1000,12,0,1,636.908,-5.489,13.457,539.696,3.974,14.668
1782117358.609817,1.098000,1804538,1000,12,0,1,638.950,-3.057,13.405,532.803,-3.306,14.675
1782117358.610817,1.099000,1804539,1000,12,0,1,639.767,-3.419,13.323,524.275,-9.939,14.723
1782117358.611817,1.100000,1804540,1000,12,0,1,644.186,0.078,13.231,519.903,-12.326,14.806
1782117358.612817,1.101000,1804541,1000,12,0,1,641.664,-1.039,13.173,520.312,-8.843,14.844
1782117358.613817,1.102000,1804542,1000,12,0,1,634.122,-8.106,13.159,527.734,-0.075,14.797
1782117358.614817,1.103000,1804543,1000,12,0,1,628.621,-11.363,13.143,528.167,3.776,14.662
1782117358.615817,1.104000,1804544,1000,12,0,1,628.044,-9.789,13.114,523.194,-0.604,14.319
1782117358.616817,1.105000,1804545,1000,12,0,1,630.326,-4.660,13.108,521.489,-1.475,13.792
1782117358.617817,1.106000,1804546,1000,12,0,1,634.770,1.240,13.086,521.849,-0.266,13.308
1782117358.618817,1.107000,1804547,1000,12,0,1,634.578,3.399,12.564,522.378,0.286,12.880
1782117358.619817,1.108000,1804548,1000,12,0,1,631.383,0.866,11.448,523.939,1.336,12.432
1782117358.620817,1.109000,1804549,1000,12,0,1,623.529,-4.460,11.285,524.011,0.670,12.051
1782117358.621817,1.110000,1804550,1000,12,0,1,615.986,-10.561,11.279,527.326,1.734,12.038
1782117358.622817,1.111000,1804551,1000,12,0,1,613.104,-11.178,11.388,527.998,1.679,11.495
1782117358.623817,1.112000,1804552,1000,12,0,1,608.299,-12.570,11.334,535.373,4.671,9.694
1782117358.624817,1.113000,1804553,1000,12,0,1,608.492,-11.564,11.435,544.621,11.795,8.654
1782117358.625817,1.114000,1804554,1000,12,0,1,614.473,-3.960,10.680,551.202,14.016,8.428
1782117358.626817,1.115000,1804555,1000,12,0,1,617.980,0.172,10.396,552.596,12.378,7.836
1782117358.627817,1.116000,1804556,1000,12,0,1,625.955,6.014,10.382,559.249,13.498,7.206
1782117358.628817,1.117000,1804557,1000,12,0,1,632.849,11.968,10.310,576.280,24.910,7.792
1782117358.629817,1.118000,1804558,1000,12,0,1,626.147,5.073,10.330,590.140,33.731,9.123
1782117358.630817,1.119000,1804559,1000,12,0,1,616.346,-5.759,9.776,595.040,32.021,10.065
1782117358.631817,1.120000,1804560,1000,12,0,1,625.426,0.817,9.088,572.244,9.471,10.110
1782117358.632817,1.121000,1804561,1000,12,0,1,640.415,15.989,9.202,548.680,-17.844,10.417
1782117358.633817,1.122000,1804562,1000,12,0,1,649.039,22.163,9.710,540.705,-22.667,10.899
1782117358.634817,1.123000,1804563,1000,12,0,1,658.791,27.425,10.425,531.361,-26.535,11.493
1782117358.635817,1.124000,1804564,1000,12,0,1,668.639,32.857,11.396,504.506,-43.646,12.997
1782117358.636817,1.125000,1804565,1000,12,0,1,674.236,33.168,11.745,478.708,-61.025,15.600
1782117358.637817,1.126000,1804566,1000,12,0,1,647.573,8.948,10.884,491.439,-43.570,16.772
1782117358.638817,1.127000,1804567,1000,12,0,1,626.171,-17.169,10.718,517.982,-8.887,16.790
1782117358.639817,1.128000,1804568,1000,12,0,1,628.621,-12.144,10.820,527.158,3.143,16.718
1782117358.640817,1.129000,1804569,1000,12,0,1,632.008,-6.079,10.851,527.806,3.138,16.666
1782117358.641817,1.130000,1804570,1000,12,0,1,629.005,-7.074,10.895,526.509,0.776,16.650
1782117358.642817,1.131000,1804571,1000,12,0,1,623.433,-10.850,10.995,528.070,0.073,16.650
1782117358.643817,1.132000,1804572,1000,12,0,1,618.364,-14.443,11.159,524.996,-2.831,16.649
1782117358.644817,1.133000,1804573,1000,12,0,1,614.161,-16.220,11.326,518.414,-10.151,16.710
1782117358.645817,1.134000,1804574,1000,12,0,1,624.922,-7.531,11.341,508.494,-17.588,16.878
1782117358.646817,1.135000,1804575,1000,12,0,1,633.377,3.040,11.340,503.738,-20.724,17.053
1782117358.647817,1.136000,1804576,1000,12,0,1,629.582,-2.249,11.340,508.422,-12.924,17.049
1782117358.648817,1.137000,1804577,1000,12,0,1,630.735,-3.579,11.304,515.556,-2.614,16.983
1782117358.649817,1.138000,1804578,1000,12,0,1,631.768,-2.525,11.281,522.426,6.130,16.984
1782117358.650817,1.139000,1804579,1000,12,0,1,634.218,-2.238,11.254,522.402,9.157,17.027
1782117358.651817,1.140000,1804580,1000,12,0,1,634.290,-1.493,11.246,520.696,8.331,17.062
1782117358.652817,1.141000,1804581,1000,12,0,1,628.597,-6.811,11.285,523.939,12.899,17.149
1782117358.653817,1.142000,1804582,1000,12,0,1,624.081,-10.063,11.370,529.680,19.097,17.324
1782117358.654817,1.143000,1804583,1000,12,0,1,624.730,-7.628,11.415,530.905,20.949,17.566
1782117358.655817,1.144000,1804584,1000,12,0,1,624.706,-4.499,11.418,528.623,17.800,17.738
1782117358.656817,1.145000,1804585,1000,12,0,1,622.544,-3.953,11.319,526.077,14.418,17.794
1782117358.657817,1.146000,1804586,1000,12,0,1,618.028,-4.966,11.333,526.485,13.031,17.882
1782117358.658817,1.147000,1804587,1000,12,0,1,615.914,-4.476,11.325,528.431,13.121,17.969
1782117358.659817,1.148000,1804588,1000,12,0,1,621.631,2.813,11.323,528.791,11.119,18.032
1782117358.660817,1.149000,1804589,1000,12,0,1,626.435,9.683,11.396,526.341,6.157,17.998
1782117358.661817,1.150000,1804590,1000,12,0,1,618.172,3.699,11.407,531.193,6.323,17.936
1782117358.662817,1.151000,1804591,1000,12,0,1,616.467,0.155,11.407,528.983,3.488,17.899
1782117358.663817,1.152000,1804592,1000,12,0,1,621.751,6.142,11.382,526.821,-3.251,17.905
1782117358.664817,1.153000,1804593,1000,12,0,1,618.869,3.700,11.280,525.020,-5.544,17.914
1782117358.665817,1.154000,1804594,1000,12,0,1,600.253,-12.428,11.332,526.677,-6.539,17.938
1782117358.666817,1.155000,1804595,1000,12,0,1,592.134,-21.531,11.715,535.853,0.740,17.937
1782117358.667817,1.156000,1804596,1000,12,0,1,617.547,1.136,11.715,540.441,4.946,17.951
1782117358.668817,1.157000,1804597,1000,12,0,1,642.289,25.960,12.268,539.048,1.942,17.953
1782117358.669817,1.158000,1804598,1000,12,0,1,641.256,21.836,12.650,536.862,-0.330,17.952
1782117358.670817,1.159000,1804599,1000,12,0,1,633.281,9.114,12.700,537.847,0.127,17.951
1782117358.671817,1.160000,1804600,1000,12,0,1,631.359,4.135,12.625,538.808,2.459,17.953
1782117358.672817,1.161000,1804601,1000,12,0,1,630.855,2.657,12.531,536.406,1.106,17.952
1782117358.673817,1.162000,1804602,1000,12,0,1,631.119,1.932,12.408,533.451,-0.460,17.940
1782117358.674817,1.163000,1804603,1000,12,0,1,634.122,4.436,12.315,533.763,0.704,17.863
1782117358.675817,1.164000,1804604,1000,12,0,1,634.002,5.064,12.323,535.301,3.373,17.759
1782117358.676817,1.165000,1804605,1000,12,0,1,622.352,-3.863,12.335,535.253,3.749,17.680
1782117358.677817,1.166000,1804606,1000,12,0,1,612.911,-11.986,12.422,539.408,6.282,17.599
1782117358.678817,1.167000,1804607,1000,12,0,1,619.613,-3.928,12.319,537.366,4.876,17.257
1782117358.679817,1.168000,1804608,1000,12,0,1,628.717,7.704,12.346,535.901,0.244,16.585
1782117358.680817,1.169000,1804609,1000,12,0,1,632.608,11.450,12.425,536.526,-0.052,15.954
1782117358.681817,1.170000,1804610,1000,12,0,1,627.780,7.319,12.468,535.517,-3.069,15.904
1782117358.682817,1.171000,1804611,1000,12,0,1,613.104,-6.310,12.294,536.117,-4.589,15.716
1782117358.683817,1.172000,1804612,1000,12,0,1,605.561,-14.135,12.054,534.412,-7.031,15.418
1782117358.684817,1.173000,1804613,1000,12,0,1,606.354,-11.441,11.527,531.553,-11.183,15.037
1782117358.685817,1.174000,1804614,1000,12,0,1,612.911,-5.200,10.575,532.682,-10.645,13.795
1782117358.686817,1.175000,1804615,1000,12,0,1,619.709,1.514,9.480,535.397,-7.923,10.820
1782117358.687817,1.176000,1804616,1000,12,0,1,626.195,5.424,9.426,537.775,-5.352,8.926
1782117358.688817,1.177000,1804617,1000,12,0,1,626.555,4.611,9.132,540.994,-2.189,8.842
1782117358.689817,1.178000,1804618,1000,12,0,1,619.109,-4.090,8.987,547.335,3.685,8.847
1782117358.690817,1.179000,1804619,1000,12,0,1,610.894,-12.502,9.119,548.608,5.995,8.876
1782117358.691817,1.180000,1804620,1000,12,0,1,608.348,-14.201,9.284,542.195,0.545,8.876
1782117358.692817,1.181000,1804621,1000,12,0,1,614.857,-7.103,9.211,540.249,-1.267,8.877
1782117358.693817,1.182000,1804622,1000,12,0,1,620.598,0.856,8.983,539.120,0.250,8.869
1782117358.694817,1.183000,1804623,1000,12,0,1,630.086,8.796,8.774,537.414,-0.274,8.752
1782117358.695817,1.184000,1804624,1000,12,0,1,632.512,13.151,8.905,548.320,9.196,8.491
1782117358.696817,1.185000,1804625,1000,12,0,1,627.732,7.546,8.958,559.850,20.581,8.484
1782117358.697817,1.186000,1804626,1000,12,0,1,626.171,6.060,8.994,566.480,23.234,8.913
1782117358.698817,1.187000,1804627,1000,12,0,1,626.771,7.247,9.038,570.539,22.977,9.479
1782117358.699817,1.188000,1804628,1000,12,0,1,639.430,16.783,9.337,567.632,15.955,9.705
1782117358.700817,1.189000,1804629,1000,12,0,1,650.624,27.300,10.099,557.880,2.768,9.627
1782117358.701817,1.190000,1804630,1000,12,0,1,647.549,21.272,10.536,547.527,-9.856,9.655
1782117358.702817,1.191000,1804631,1000,12,0,1,650.672,18.204,10.803,528.743,-26.207,10.180
1782117358.703817,1.192000,1804632,1000,12,0,1,646.997,13.553,10.879,521.249,-34.218,10.943
1782117358.704817,1.193000,1804633,1000,12,0,1,644.907,5.342,10.851,518.030,-31.533,11.440
1782117358.705817,1.194000,1804634,1000,12,0,1,651.825,8.686,10.902,515.700,-30.857,11.982
1782117358.706817,1.195000,1804635,1000,12,0,1,650.888,5.337,10.914,515.027,-26.432,12.385
1782117358.707817,1.196000,1804636,1000,12,0,1,645.147,-4.148,10.907,518.871,-19.436,12.552
1782117358.708817,1.197000,1804637,1000,12,0,1,644.811,-7.258,10.937,518.342,-14.659,12.586
1782117358.709817,1.198000,1804638,1000,12,0,1,643.970,-9.111,11.005,522.570,-8.911,12.551
1782117358.710817,1.199000,1804639,1000,12,0,1,640.295,-13.270,11.080,528.191,0.242,12.520
1782117358.711817,1.200000,1804640,1000,12,0,1,640.751,-13.647,11.235,528.359,2.786,12.495
1782117358.712817,1.201000,1804641,1000,12,0,1,644.138,-9.605,11.316,530.280,5.318,12.508
1782117358.713817,1.202000,1804642,1000,12,0,1,642.745,-9.628,11.365,532.130,9.175,12.566
1782117358.714817,1.203000,1804643,1000,12,0,1,638.325,-12.578,11.491,532.370,9.623,12.615
1782117358.715817,1.204000,1804644,1000,12,0,1,636.980,-12.272,11.488,533.715,11.419,12.685
1782117358.716817,1.205000,1804645,1000,12,0,1,640.703,-6.818,11.119,532.298,10.342,12.768
1782117358.717817,1.206000,1804646,1000,12,0,1,638.542,-5.459,11.145,538.808,14.240,12.907
1782117358.718817,1.207000,1804647,1000,12,0,1,637.725,-5.697,10.553,545.077,19.835,13.206
1782117358.719817,1.208000,1804648,1000,12,0,1,640.367,-1.022,10.093,547.647,18.903,13.473
1782117358.720817,1.209000,1804649,1000,12,0,1,643.202,2.369,10.015,546.855,15.488,13.650
1782117358.721817,1.210000,1804650,1000,12,0,1,639.983,0.777,9.999,554.037,16.784,13.851
1782117358.722817,1.211000,1804651,1000,12,0,1,633.113,-5.516,10.022,565.158,23.530,14.244
1782117358.723817,1.212000,1804652,1000,12,0,1,626.555,-10.565,10.129,577.121,28.225,14.793
1782117358.724817,1.213000,1804653,1000,12,0,1,623.553,-12.219,10.257,578.970,25.032,15.210
1782117358.725817,1.214000,1804654,1000,12,0,1,629.294,-6.467,10.272,570.683,11.104,15.283
1782117358.726817,1.215000,1804655,1000,12,0,1,642.937,6.115,10.294,553.292,-7.885,15.315
1782117358.727817,1.216000,1804656,1000,12,0,1,654.491,15.445,10.386,539.648,-22.539,15.618
1782117358.728817,1.217000,1804657,1000,12,0,1,667.126,22.432,10.845,530.665,-28.176,16.103
1782117358.729817,1.218000,1804658,1000,12,0,1,667.534,20.174,11.161,531.890,-24.806,16.481
1782117358.730817,1.219000,1804659,1000,12,0,1,652.738,2.354,11.048,531.001,-19.872,16.719
1782117358.731817,1.220000,1804660,1000,12,0,1,644.667,-8.724,11.069,526.509,-20.653,16.967
1782117358.732817,1.221000,1804661,1000,12,0,1,641.928,-10.040,11.124,526.245,-17.230,17.128
1782117358.733817,1.222000,1804662,1000,12,0,1,639.454,-11.418,11.061,528.143,-11.295,17.174
1782117358.734817,1.223000,1804663,1000,12,0,1,634.602,-12.871,11.092,530.184,-6.717,17.127
1782117358.735817,1.224000,1804664,1000,12,0,1,631.600,-13.555,11.233,536.310,0.627,17.061
1782117358.736817,1.225000,1804665,1000,12,0,1,634.050,-8.126,11.289,538.832,4.542,17.036
1782117358.737817,1.226000,1804666,1000,12,0,1,640.127,-0.037,11.263,536.838,2.597,17.024
1782117358.738817,1.227000,1804667,1000,12,0,1,644.210,5.767,11.274,537.583,2.308,17.024
1782117358.739817,1.228000,1804668,1000,12,0,1,643.730,6.111,11.292,536.261,1.583,17.017
1782117358.740817,1.229000,1804669,1000,12,0,1,637.989,1.435,11.155,533.956,-1.667,16.998
1782117358.741817,1.230000,1804670,1000,12,0,1,634.698,-1.920,10.976,535.733,-0.484,16.998
1782117358.742817,1.231000,1804671,1000,12,0,1,633.882,-1.760,10.933,536.069,-0.009,16.997
1782117358.743817,1.232000,1804672,1000,12,0,1,629.654,-4.662,10.952,539.216,1.503,16.998
1782117358.744817,1.233000,1804673,1000,12,0,1,631.191,-4.199,10.897,542.219,4.367,17.009
1782117358.745817,1.234000,1804674,1000,12,0,1,630.495,-2.977,10.746,544.020,4.715,16.973
1782117358.746817,1.235000,1804675,1000,12,0,1,627.804,-6.402,10.731,544.861,4.939,16.736
1782117358.747817,1.236000,1804676,1000,12,0,1,628.333,-5.569,10.725,549.905,7.795,16.447
1782117358.748817,1.237000,1804677,1000,12,0,1,626.195,-6.636,10.717,558.385,14.488,16.253
1782117358.749817,1.238000,1804678,1000,12,0,1,627.276,-6.121,10.487,564.822,18.515,16.307
1782117358.750817,1.239000,1804679,1000,12,0,1,638.998,4.314,9.770,565.182,16.607,16.470
1782117358.751817,1.240000,1804680,1000,12,0,1,650.144,14.593,9.521,563.909,12.469,16.506
1782117358.752817,1.241000,1804681,1000,12,0,1,649.783,13.241,9.356,564.342,10.557,16.153
1782117358.753817,1.242000,1804682,1000,12,0,1,645.003,6.514,9.204,565.759,9.927,15.475
1782117358.754817,1.243000,1804683,1000,12,0,1,639.695,1.421,9.175,564.870,7.466,14.857
1782117358.755817,1.244000,1804684,1000,12,0,1,627.108,-8.363,9.169,566.960,6.719,14.233
1782117358.756817,1.245000,1804685,1000,12,0,1,611.710,-20.013,9.566,570.443,8.201,13.782
1782117358.757817,1.246000,1804686,1000,12,0,1,600.853,-25.298,10.196,565.999,2.774,13.511
1782117358.758817,1.247000,1804687,1000,12,0,1,588.506,-29.259,10.956,562.540,-3.547,13.360
1782117358.759817,1.248000,1804688,1000,12,0,1,583.126,-28.419,11.599,563.237,-3.868,13.312
1782117358.760817,1.249000,1804689,1000,12,0,1,593.935,-12.521,11.582,569.122,-0.745,13.312
1782117358.761817,1.250000,1804690,1000,12,0,1,606.618,4.685,11.439,574.911,3.355,13.315
1782117358.762817,1.251000,1804691,1000,12,0,1,618.244,15.999,11.581,577.433,2.917,13.300
1782117358.763817,1.252000,1804692,1000,12,0,1,626.940,23.442,11.969,581.084,3.079,13.244
1782117358.764817,1.253000,1804693,1000,12,0,1,628.429,21.986,12.238,584.255,3.499,13.183
1782117358.765817,1.254000,1804694,1000,12,0,1,619.709,11.469,12.222,578.922,-3.023,13.091
1782117358.766817,1.255000,1804695,1000,12,0,1,633.209,16.276,12.400,560.138,-20.109,13.316
1782117358.767817,1.256000,1804696,1000,12,0,1,656.821,36.053,13.385,539.504,-37.824,14.208
1782117358.768817,1.257000,1804697,1000,12,0,1,668.904,40.378,14.530,523.434,-46.793,15.421
1782117358.769817,1.258000,1804698,1000,12,0,1,669.528,33.496,15.282,516.877,-46.032,16.524
1782117358.770817,1.259000,1804699,1000,12,0,1,667.919,24.056,15.652,520.600,-34.315,17.082
1782117358.771817,1.260000,1804700,1000,12,0,1,658.719,11.279,15.733,520.504,-25.503,17.296
1782117358.772817,1.261000,1804701,1000,12,0,1,649.207,-1.637,15.715,517.958,-21.935,17.254
1782117358.773817,1.262000,1804702,1000,12,0,1,661.241,5.409,15.663,511.544,-20.567,17.036
1782117358.774817,1.263000,1804703,1000,12,0,1,659.752,7.869,15.607,515.532,-13.664,16.776
1782117358.775817,1.264000,1804704,1000,12,0,1,644.355,-9.134,15.634,523.362,-0.439,16.703
1782117358.776817,1.265000,1804705,1000,12,0,1,632.729,-17.719,15.810,529.680,6.994,16.695
1782117358.777817,1.266000,1804706,1000,12,0,1,632.344,-16.611,15.833,532.010,10.774,16.458
1782117358.778817,1.267000,1804707,1000,12,0,1,640.751,-5.666,15.533,532.346,10.422,16.036
1782117358.779817,1.268000,1804708,1000,12,0,1,647.910,2.723,15.273,532.202,9.815,15.709
1782117358.780817,1.269000,1804709,1000,12,0,1,649.135,3.770,15.279,534.940,11.057,15.535
1782117358.781817,1.270000,1804710,1000,12,0,1,642.625,-2.450,15.233,539.240,13.877,15.384
1782117358.782817,1.271000,1804711,1000,12,0,1,638.758,-8.239,15.212,537.679,11.932,15.283
1782117358.783817,1.272000,1804712,1000,12,0,1,638.373,-8.411,15.172,540.849,11.646,15.288
1782117358.784817,1.273000,1804713,1000,12,0,1,628.549,-16.619,15.245,543.780,14.546,15.397
1782117358.785817,1.274000,1804714,1000,12,0,1,624.129,-22.025,15.441,544.284,12.705,15.501
1782117358.786817,1.275000,1804715,1000,12,0,1,631.936,-13.891,15.523,541.258,9.752,15.549
1782117358.787817,1.276000,1804716,1000,12,0,1,645.964,-1.186,15.524,540.009,6.969,15.576
1782117358.788817,1.277000,1804717,1000,12,0,1,656.365,7.702,15.541,538.135,6.069,15.596
1782117358.789817,1.278000,1804718,1000,12,0,1,653.194,3.595,15.525,539.432,6.402,15.621
1782117358.790817,1.279000,1804719,1000,12,0,1,650.504,-2.237,15.527,541.258,8.824,15.669
1782117358.791817,1.280000,1804720,1000,12,0,1,650.288,-2.065,15.528,544.693,10.912,15.744
1782117358.792817,1.281000,1804721,1000,12,0,1,650.216,-2.375,15.529,546.062,11.847,15.833
1782117358.793817,1.282000,1804722,1000,12,0,1,645.219,-4.769,15.530,546.494,10.405,15.900
1782117358.794817,1.283000,1804723,1000,12,0,1,640.968,-7.712,15.557,547.383,9.499,15.945
1782117358.795817,1.284000,1804724,1000,12,0,1,632.560,-10.983,15.628,548.224,8.391,15.975
1782117358.796817,1.285000,1804725,1000,12,0,1,631.600,-10.270,15.670,549.665,7.229,15.992
1782117358.797817,1.286000,1804726,1000,12,0,1,632.729,-3.955,15.660,552.548,7.491,15.989
1782117358.798817,1.287000,1804727,1000,12,0,1,630.399,-3.382,15.639,554.349,6.533,15.884
1782117358.799817,1.288000,1804728,1000,12,0,1,630.086,-1.595,15.617,556.391,5.440,15.686
1782117358.800817,1.289000,1804729,1000,12,0,1,630.278,0.729,15.605,556.199,2.945,15.515
1782117358.801817,1.290000,1804730,1000,12,0,1,634.602,4.310,15.480,556.751,0.600,15.414
1782117358.802817,1.291000,1804731,1000,12,0,1,637.148,7.428,15.402,561.123,2.319,15.345
1782117358.803817,1.292000,1804732,1000,12,0,1,637.268,5.283,15.393,561.699,1.830,15.283
1782117358.804817,1.293000,1804733,1000,12,0,1,642.337,7.487,15.428,559.033,-2.558,15.251
1782117358.805817,1.294000,1804734,1000,12,0,1,647.789,10.027,15.448,562.084,-1.358,15.223
1782117358.806817,1.295000,1804735,1000,12,0,1,645.820,5.736,15.208,565.639,1.878,15.181
1782117358.807817,1.296000,1804736,1000,12,0,1,634.890,-6.334,14.808,569.146,3.690,15.185
1782117358.808817,1.297000,1804737,1000,12,0,1,629.053,-13.816,14.352,566.840,1.839,15.179
1782117358.809817,1.298000,1804738,1000,12,0,1,631.119,-10.925,13.864,561.627,-4.057,15.180
1782117358.810817,1.299000,1804739,1000,12,0,1,637.004,-4.664,13.766,556.199,-8.224,15.224
1782117358.811817,1.300000,1804740,1000,12,0,1,642.145,1.374,13.752,549.497,-12.992,15.327
1782117358.812817,1.301000,1804741,1000,12,0,1,640.271,1.036,13.565,548.608,-12.798,15.428
1782117358.813817,1.302000,1804742,1000,12,0,1,636.620,-1.766,13.156,553.628,-6.210,15.447
1782117358.814817,1.303000,1804743,1000,12,0,1,635.443,-0.974,12.784,551.322,-6.044,15.462
1782117358.815817,1.304000,1804744,1000,12,0,1,632.056,-1.401,12.682,549.305,-8.396,15.502
1782117358.816817,1.305000,1804745,1000,12,0,1,630.951,-0.733,12.472,549.857,-6.715,15.268
1782117358.817817,1.306000,1804746,1000,12,0,1,633.137,3.614,11.394,552.091,-4.797,14.317
1782117358.818817,1.307000,1804747,1000,12,0,1,634.890,6.739,9.906,552.860,-3.656,12.706
1782117358.819817,1.308000,1804748,1000,12,0,1,638.734,10.188,8.818,553.052,-4.154,10.928
1782117358.820817,1.309000,1804749,1000,12,0,1,638.061,10.058,8.259,561.075,1.493,9.793
1782117358.821817,1.310000,1804750,1000,12,0,1,636.572,6.540,8.156,567.921,7.692,9.170
1782117358.822817,1.311000,1804751,1000,12,0,1,635.755,4.812,8.181,577.601,12.620,8.812
1782117358.823817,1.312000,1804752,1000,12,0,1,637.725,4.127,8.166,584.375,17.224,8.667
1782117358.824817,1.313000,1804753,1000,12,0,1,635.875,1.589,8.093,584.543,13.420,8.660
1782117358.825817,1.314000,1804754,1000,12,0,1,630.807,-5.281,8.024,585.960,11.167,8.802
1782117358.826817,1.315000,1804755,1000,12,0,1,630.855,-6.940,7.686,583.462,7.347,8.808
1782117358.827817,1.316000,1804756,1000,12,0,1,634.890,-3.782,7.337,573.926,-2.658,8.683
1782117358.828817,1.317000,1804757,1000,12,0,1,642.337,1.509,7.296,563.117,-12.239,8.731
1782117358.829817,1.318000,1804758,1000,12,0,1,641.880,1.585,7.290,552.067,-19.869,9.066
1782117358.830817,1.319000,1804759,1000,12,0,1,634.290,-6.639,7.331,546.614,-21.815,9.448
1782117358.831817,1.320000,1804760,1000,12,0,1,626.003,-13.053,7.551,548.896,-15.672,9.504
1782117358.832817,1.321000,1804761,1000,12,0,1,617.788,-17.947,7.881,551.298,-9.284,9.445
1782117358.833817,1.322000,1804762,1000,12,0,1,617.235,-15.471,8.092,547.263,-9.740,9.401
1782117358.834817,1.323000,1804763,1000,12,0,1,615.386,-11.322,7.907,542.891,-11.941,9.328
1782117358.835817,1.324000,1804764,1000,12,0,1,630.879,2.918,7.279,533.115,-17.039,9.465
1782117358.836817,1.325000,1804765,1000,12,0,1,644.739,20.836,7.604,528.046,-20.352,9.796
1782117358.837817,1.326000,1804766,1000,12,0,1,646.060,20.376,8.130,532.995,-12.686,9.910
1782117358.838817,1.327000,1804767,1000,12,0,1,642.361,15.859,8.363,542.843,-1.941,9.877
1782117358.839817,1.328000,1804768,1000,12,0,1,630.639,4.596,8.372,552.764,7.445,9.891
1782117358.840817,1.329000,1804769,1000,12,0,1,622.352,-4.741,8.393,558.168,11.403,9.944
1782117358.841817,1.330000,1804770,1000,12,0,1,633.209,4.112,8.408,557.784,8.977,9.905
1782117358.842817,1.331000,1804771,1000,12,0,1,656.605,23.770,9.049,552.043,2.398,9.768
1782117358.843817,1.332000,1804772,1000,12,0,1,658.142,24.664,9.675,552.932,0.834,9.658
1782117358.844817,1.333000,1804773,1000,12,0,1,645.604,6.255,9.654,563.021,9.759,9.663
1782117358.845817,1.334000,1804774,1000,12,0,1,645.339,1.302,9.530,564.630,11.909,9.737
1782117358.846817,1.335000,1804775,1000,12,0,1,658.214,9.531,9.514,559.033,5.476,9.714
1782117358.847817,1.336000,1804776,1000,12,0,1,657.158,7.947,9.564,564.294,8.602,9.732
1782117358.848817,1.337000,1804777,1000,12,0,1,637.244,-12.817,9.722,575.848,19.426,10.070
