Unix_Time_s,RelativeTime_s,P_1,P_2,P_3,P_4,P_5,P_6,P_7,P_8,P_9,P_10,P_11,P_12,P_13,P_14,P_15,P_16,P_17,P_18,P_19,P_20,P_21,P_22,P_23,P_24,P_25,P_26,P_27,P_28,P_29,P_30,P_31,P_32,P_33,P_34,P_35,P_36,P_37,P_38,P_39,P_40,P_41,P_42,P_43,P_44,P_45,P_46,P_47,P_48,P_49,P_50,P_51,P_52,P_53,P_54,P_55,P_56,P_57,P_58,P_59,P_60,P_61,P_62,P_63,P_64,P_65,P_66,P_67,P_68,P_69,P_70,P_71,P_72,P_73,P_74,P_75,P_76,P_77,P_78,P_79,P_80,P_81,P_82,P_83,P_84,P_85,P_86,P_87,P_88,P_89,P_90,P_91,P_92,P_93,P_94,P_95,P_96,P_97,P_98,P_99,P_100,P_101,P_102,P_103,P_104,P_105,P_106,P_107,P_108,P_109,P_110,P_111,P_112,P_113,P_114,P_115,P_116,P_117,P_118,P_119,P_120,P_121,P_122,P_123,P_124,P_125,P_126,P_127,P_128,P_129,P_130,P_131,P_132,P_133,P_134,P_135,P_136,P_137,P_138,P_139,P_140,P_141,P_142,P_143,P_144,P_145,P_146,P_147,P_148,P_149,P_150,P_151,P_152,P_153,P_154,P_155,P_156,P_157,P_158,P_159,P_160,P_161,P_162,P_163,P_164,P_165,P_166,P_167,P_168,P_169,P_170,P_171,P_172,P_173,P_174,P_175,P_176,P_177,P_178,P_179,P_180,P_181,P_182,P_183,P_184,P_185,P_186,P_187,P_188,P_189,P_190,P_191,P_192,P_193,P_194,P_195,P_196,P_197,P_198,P_199,P_200,P_201,P_202,P_203,P_204,P_205,P_206,P_207,P_208,P_209,P_210,P_211,P_212,P_213,P_214,P_215,P_216,P_217,P_218,P_219,P_220,P_221,P_222,P_223,P_224,P_225,P_226,P_227,P_228,P_229,P_230,P_231,P_232,P_233,Flex1,Flex2,Bat,IMU1_RefTime,IMU1_Ax,IMU1_Ay,IMU1_Az,IMU1_Wx,IMU1_Wy,IMU1_Wz,IMU1_Roll,IMU1_Pitch,IMU1_Yaw,IMU1_Hx,IMU1_Hy,IMU1_Hz,IMU1_Q0,IMU1_Q1,IMU1_Q2,IMU1_Q3,IMU2_RefTime,IMU2_Ax,IMU2_Ay,IMU2_Az,IMU2_Wx,IMU2_Wy,IMU2_Wz,IMU2_Roll,IMU2_Pitch,IMU2_Yaw,IMU2_Hx,IMU2_Hy,IMU2_Hz,IMU2_Q0,IMU2_Q1,IMU2_Q2,IMU2_Q3,IMU1_FusedRoll,IMU1_FusedPitch,IMU1_FusedYaw,IMU1_FusedQ0,IMU1_FusedQ1,IMU1_FusedQ2,IMU1_FusedQ3,IMU1_MagValid,IMU2_FusedRoll,IMU2_FusedPitch,IMU2_FusedYaw,IMU2_FusedQ0,IMU2_FusedQ1,IMU2_FusedQ2,IMU2_FusedQ3,IMU2_MagValid
1782117357.522974,0.011,1023.0,1023.0,1024.0,1022.0,1023.0,1023.0,1023.0,1024.0,1022.0,1023.0,1024.0,1024.0,1023.0,1024.0,1023.0,1023.0,1023.0,1024.0,1023.0,1024.0,1024.0,1023.0,1023.0,1023.0,1023.0,1024.0,1023.0,1024.0,1024.0,1023.0,1023.0,1023.0,1023.0,1023.0,1024.0,1023.0,1024.0,1024.0,1024.0,1023.0,1023.0,1023.0,1023.0,1023.0,1023.0,1024.0,1024.0,1023.0,1023.0,1023.0,1022.0,1023.0,1024.0,1023.0,1024.0,1023.0,1024.0,1023.0,1023.0,1023.0,1023.0,1023.0,1022.0,1024.0,1023.0,1023.0,1024.0,1023.0,1023.0,1023.0,1022.0,1024.0,1023.0,1023.0,1023.0,1023.0,1024.0,1023.0,1023.0,1023.0,1022.0,1023.0,1023.0,1024.0,1024.0,1024.0,1024.0,1023.0,1024.0,1024.0,1023.0,1023.0,1022.0,1024.0,1023.0,1024.0,1024.0,1024.0,1023.0,1024.0,1022.0,1023.0,1022.0,1024.0,1023.0,1024.0,1024.0,1023.0,1024.0,1023.0,1022.0,1023.0,1022.0,1024.0,1022.0,1024.0,1024.0,1023.0,1023.0,1021.0,1022.0,1022.0,1023.0,1022.0,1023.0,1024.0,1023.0,1022.0,1022.0,1023.0,1024.0,1023.0,1023.0,1024.0,1023.0,1023.0,1023.0,1024.0,1023.0,1024.0,1024.0,1023.0,1024.0,1023.0,1024.0,1024.0,1024.0,1025.0,1024.0,1024.0,1024.0,1024.0,1024.0,1025.0,1026.0,1024.0,1023.0,1026.0,1024.0,1027.0,1027.0,1025.0,1024.0,1027.0,1025.0,1028.0,1029.0,1025.0,1025.0,1031.0,1027.0,1031.0,1032.0,1026.0,1026.0,1034.0,1030.0,1033.0,1037.0,1028.0,1027.0,1037.0,1030.0,1031.0,1037.0,1029.0,1032.0,1043.0,1034.0,1032.0,1040.0,1032.0,1032.0,1044.0,1034.0,1032.0,1041.0,1032.0,1031.0,1037.0,1032.0,1031.0,1038.0,1030.0,1032.0,1037.0,1033.0,1031.0,1036.0,1030.0,1022.0,1023.0,1023.0,1023.0,1024.0,1022.0,1035.0,1039.0,1032.0,1031.0,1036.0,1032.0,1030.0,1033.0,1030.0,1030.0,1035.0,1030.0,1026.0,1029.0,1026.0,1026.0,1029.0,2052,2010,1909,	00:30:50.301,0.052734375,0.05859375,1.01806640625,-0.244140625,0.18310546875,0.0,3.2904052734375,-2.9718017578125,48.71337890625,456.0,-1590.0,-2554.0,0.910003662109375,0.036834716796875,-0.011810302734375,0.41278076171875,3.2882728536174772,-2.9742780864122245,44.21335588710916,0.9255111906419967,0.03633619268704261,-0.013240792848735038,0.3767404922518694,1,	00:30:50.302,0.052734375,0.029296875,1.005859375,-0.91552734375,-1.46484375,-0.54931640625,1.680908203125,-3.0487060546875,147.2991943359375,-438.0,-1211.0,-1988.0,-0.281005859375,-0.029632568359375,-0.006561279296875,-0.959228515625,1.6785350512811616,-3.0475594730915274,147.83090461378768,-0.2765535860504579,-0.029604854979156534,-0.006702464686186447,-0.9605189969862259,1
1782117357.531622,0.020,1023.0,1023.0,1024.0,1022.0,1023.0,1023.0,1023.0,1024.0,1023.0,1023.0,1024.0,1024.0,1024.0,1024.0,1023.0,1023.0,1023.0,1023.0,1023.0,1024.0,1024.0,1023.0,1023.0,1024.0,1023.0,1024.0,1023.0,1024.0,1024.0,1023.0,1023.0,1023.0,1022.0,1023.0,1024.0,1023.0,1024.0,1024.0,1023.0,1023.0,1023.0,1023.0,1023.0,1024.0,1023.0,1023.0,1024.0,1023.0,1023.0,1023.0,1023.0,1023.0,1023.0,1024.0,1024.0,1024.0,1024.0,1023.0,1023.0,1023.0,1023.0,1023.0,1023.0,1023.0,1023.0,1023.0,1024.0,1023.0,1024.0,1022.0,1022.0,1023.0,1022.0,1023.0,1023.0,1024.0,1024.0,1023.0,1023.0,1022.0,1023.0,1023.0,1023.0,1024.0,1023.0,1024.0,1024.0,1024.0,1023.0,1023.0,1023.0,1023.0,1023.0,1023.0,1023.0,1024.0,1025.0,1024.0,1024.0,1024.0,1023.0,1023.0,1023.0,1024.0,1023.0,1024.0,1024.0,1024.0,1024.0,1023.0,1022.0,1023.0,1023.0,1024.0,1022.0,1024.0,1024.0,1023.0,1023.0,1021.0,1022.0,1023.0,1023.0,1023.0,1023.0,1024.0,1023.0,1023.0,1022.0,1022.0,1023.0,1023.0,1024.0,1024.0,1023.0,1024.0,1023.0,1024.0,1023.0,1024.0,1025.0,1024.0,1024.0,1023.0,1024.0,1023.0,1024.0,1025.0,1023.0,1024.0,1024.0,1024.0,1024.0,1024.0,1026.0,1024.0,1023.0,1025.0,1024.0,1027.0,1027.0,1025.0,1024.0,1028.0,1025.0,1028.0,1029.0,1025.0,1025.0,1030.0,1027.0,1032.0,1032.0,1026.0,1026.0,1035.0,1030.0,1033.0,1037.0,1028.0,1027.0,1037.0,1030.0,1031.0,1037.0,1029.0,1031.0,1043.0,1034.0,1032.0,1041.0,1032.0,1031.0,1043.0,1034.0,1032.0,1041.0,1032.0,1031.0,1038.0,1033.0,1030.0,1039.0,1031.0,1033.0,1037.0,1032.0,1031.0,1037.0,1031.0,1022.0,1024.0,1023.0,1023.0,1024.0,1022.0,1034.0,1039.0,1033.0,1032.0,1035.0,1032.0,1030.0,1034.0,1030.0,1030.0,1035.0,1030.0,1027.0,1029.0,1026.0,1026.0,1029.0,2051,2010,1909,	00:30:50.311,0.05224609375,0.0595703125,1.0166015625,-0.18310546875,0.18310546875,0.06103515625,3.3673095703125,-2.9278564453125,48.7078857421875,456.0,-1590.0,-2555.0,0.910003662109375,0.037261962890625,-0.011138916015625,0.412750244140625,3.3660564680864202,-2.926974684861201,44.209970336675184,0.9255118466484386,0.03680909745217324,-0.01260387089909127,0.3767148185252506,1,	00:30:50.312,0.052734375,0.02880859375,1.00634765625,-0.91552734375,-1.46484375,-0.54931640625,1.614990234375,-2.98828125,147.2991943359375,-437.0,-1211.0,-1992.0,-0.281036376953125,-0.02899169921875,-0.00616455078125,-0.959228515625,1.6129591891172517,-2.9901755964383527,147.82795959615072,-0.27660559256664863,-0.028965852409566534,-0.006290912414040107,-0.96052628801925,1
1782117357.542433,0.031,1023.0,1023.0,1024.0,1023.0,1023.0,1023.0,1023.0,1023.0,1022.0,1023.0,1024.0,1023.0,1024.0,1024.0,1023.0,1023.0,1023.0,1024.0,1023.0,1024.0,1024.0,1023.0,1023.0,1024.0,1023.0,1024.0,1023.0,1024.0,1024.0,1023.0,1023.0,1023.0,1023.0,1023.0,1024.0,1023.0,1024.0,1024.0,1023.0,1023.0,1023.0,1022.0,1023.0,1023.0,1023.0,1024.0,1024.0,1023.0,1023.0,1022.0,1023.0,1023.0,1022.0,1023.0,1023.0,1024.0,1024.0,1023.0,1023.0,1022.0,1023.0,1023.0,1022.0,1024.0,1023.0,1023.0,1024.0,1023.0,1023.0,1022.0,1022.0,1023.0,1023.0,1023.0,1024.0,1023.0,1024.0,1023.0,1023.0,1022.0,1022.0,1023.0,1023.0,1024.0,1023.0,1023.0,1024.0,1023.0,1023.0,1023.0,1023.0,1023.0,1023.0,1024.0,1024.0,1024.0,1024.0,1023.0,1024.0,1023.0,1022.0,1024.0,1023.0,1024.0,1024.0,1024.0,1024.0,1023.0,1024.0,1024.0,1023.0,1023.0,1022.0,1024.0,1022.0,1023.0,1024.0,1023.0,1023.0,1021.0,1022.0,1022.0,1024.0,1023.0,1024.0,1024.0,1023.0,1023.0,1022.0,1023.0,1023.0,1023.0,1023.0,1024.0,1023.0,1023.0,1023.0,1024.0,1024.0,1025.0,1025.0,1024.0,1024.0,1023.0,1024.0,1023.0,1024.0,1025.0,1024.0,1024.0,1023.0,1025.0,1023.0,1025.0,1026.0,1024.0,1024.0,1025.0,1024.0,1027.0,1027.0,1025.0,1024.0,1027.0,1026.0,1028.0,1029.0,1025.0,1025.0,1030.0,1027.0,1031.0,1031.0,1027.0,1026.0,1034.0,1030.0,1032.0,1036.0,1028.0,1028.0,1037.0,1029.0,1031.0,1038.0,1029.0,1032.0,1043.0,1034.0,1032.0,1041.0,1032.0,1032.0,1043.0,1034.0,1032.0,1040.0,1031.0,1031.0,1038.0,1033.0,1030.0,1038.0,1031.0,1033.0,1037.0,1032.0,1030.0,1037.0,1030.0,1022.0,1024.0,1022.0,1023.0,1024.0,1022.0,1035.0,1038.0,1032.0,1030.0,1035.0,1031.0,1030.0,1033.0,1031.0,1030.0,1035.0,1030.0,1027.0,1028.0,1026.0,1027.0,1029.0,2051,2010,1908,	00:30:50.321,0.05224609375,0.05908203125,1.017578125,-0.244140625,0.18310546875,0.06103515625,3.27392578125,-2.9388427734375,48.71337890625,456.0,-1592.0,-2554.0,0.910003662109375,0.036590576171875,-0.0115966796875,0.41278076171875,3.2731761183455643,-2.940447667653184,44.21531523629827,0.9255197553560136,0.03610366530065097,-0.013016406922055789,0.37674962634147735,1,	00:30:50.322,0.05224609375,0.02880859375,1.005859375,-0.8544921875,-1.3427734375,-0.54931640625,1.680908203125,-2.955322265625,147.2882080078125,-437.0,-1207.0,-1990.0,-0.2811279296875,-0.02886962890625,-0.006805419921875,-0.959228515625,1.6815392277838828,-2.953256237534936,147.81809747643752,-0.27667772845540145,-0.028822590526064368,-0.0069526289455983025,-0.9605052596435226,1
1782117357.551972,0.040,1024.0,1024.0,1024.0,1023.0,1023.0,1023.0,1023.0,1024.0,1023.0,1023.0,1024.0,1023.0,1024.0,1024.0,1023.0,1023.0,1023.0,1024.0,1023.0,1024.0,1024.0,1023.0,1023.0,1023.0,1023.0,1024.0,1023.0,1024.0,1024.0,1023.0,1023.0,1024.0,1023.0,1022.0,1024.0,1023.0,1024.0,1024.0,1023.0,1023.0,1023.0,1022.0,1022.0,1024.0,1023.0,1023.0,1024.0,1024.0,1023.0,1023.0,1022.0,1023.0,1023.0,1024.0,1023.0,1024.0,1024.0,1023.0,1023.0,1023.0,1023.0,1024.0,1022.0,1023.0,1023.0,1023.0,1024.0,1023.0,1023.0,1022.0,1022.0,1023.0,1023.0,1023.0,1023.0,1023.0,1024.0,1023.0,1023.0,1022.0,1023.0,1023.0,1023.0,1024.0,1024.0,1024.0,1024.0,1023.0,1023.0,1023.0,1023.0,1023.0,1023.0,1024.0,1024.0,1023.0,1025.0,1023.0,1024.0,1023.0,1023.0,1024.0,1023.0,1024.0,1023.0,1024.0,1024.0,1023.0,1023.0,1023.0,1023.0,1023.0,1023.0,1024.0,1022.0,1023.0,1024.0,1023.0,1022.0,1021.0,1022.0,1023.0,1023.0,1023.0,1023.0,1024.0,1023.0,1023.0,1022.0,1023.0,1024.0,1023.0,1023.0,1024.0,1023.0,1023.0,1023.0,1024.0,1024.0,1025.0,1025.0,1023.0,1024.0,1023.0,1024.0,1023.0,1024.0,1025.0,1024.0,1024.0,1023.0,1025.0,1024.0,1025.0,1025.0,1024.0,1023.0,1026.0,1024.0,1026.0,1028.0,1025.0,1024.0,1027.0,1025.0,1028.0,1028.0,1025.0,1024.0,1030.0,1027.0,1031.0,1032.0,1026.0,1026.0,1034.0,1030.0,1032.0,1037.0,1028.0,1027.0,1037.0,1030.0,1031.0,1037.0,1029.0,1032.0,1044.0,1034.0,1032.0,1040.0,1032.0,1032.0,1043.0,1034.0,1032.0,1040.0,1032.0,1031.0,1037.0,1033.0,1030.0,1038.0,1031.0,1033.0,1037.0,1033.0,1031.0,1037.0,1031.0,1022.0,1023.0,1022.0,1023.0,1024.0,1022.0,1035.0,1038.0,1033.0,1031.0,1036.0,1031.0,1030.0,1033.0,1031.0,1031.0,1035.0,1031.0,1026.0,1028.0,1026.0,1026.0,1029.0,2051,2010,1908,	00:30:50.331,0.052734375,0.05810546875,1.0166015625,-0.244140625,0.18310546875,0.06103515625,3.262939453125,-3.0322265625,48.7188720703125,455.0,-1590.0,-2556.0,0.90997314453125,0.036834716796875,-0.0123291015625,0.412811279296875,3.2635058088990245,-3.0299429118134102,44.21640654797148,0.9254920039857675,0.03631886206510542,-0.013771107234569866,0.37677028468582563,1,	00:30:50.332,0.05126953125,0.029296875,1.00634765625,-0.8544921875,-1.40380859375,-0.54931640625,1.6424560546875,-2.8839111328125,147.28271484375,-436.0,-1208.0,-1989.0,-0.28118896484375,-0.028167724609375,-0.00665283203125,-0.959228515625,1.6416387270716388,-2.8812423994116845,147.81379272151028,-0.27673691094513414,-0.02812300765748804,-0.0067914524224097,-0.9605101013184796,1
1782117357.564143,0.052,1023.0,1023.0,1024.0,1023.0,1023.0,1022.0,1024.0,1023.0,1022.0,1023.0,1024.0,1024.0,1024.0,1024.0,1023.0,1023.0,1023.0,1024.0,1024.0,1024.0,1024.0,1023.0,1023.0,1023.0,1023.0,1024.0,1024.0,1024.0,1024.0,1023.0,1023.0,1023.0,1022.0,1023.0,1024.0,1023.0,1024.0,1024.0,1023.0,1023.0,1023.0,1023.0,1023.0,1024.0,1023.0,1023.0,1024.0,1023.0,1023.0,1022.0,1022.0,1024.0,1023.0,1024.0,1023.0,1024.0,1024.0,1023.0,1023.0,1023.0,1022.0,1023.0,1022.0,1024.0,1023.0,1023.0,1024.0,1023.0,1023.0,1022.0,1022.0,1024.0,1023.0,1024.0,1023.0,1024.0,1024.0,1023.0,1022.0,1022.0,1022.0,1023.0,1023.0,1024.0,1023.0,1024.0,1024.0,1023.0,1023.0,1023.0,1023.0,1023.0,1022.0,1024.0,1024.0,1024.0,1024.0,1023.0,1023.0,1024.0,1023.0,1023.0,1023.0,1024.0,1023.0,1024.0,1024.0,1023.0,1023.0,1023.0,1022.0,1023.0,1022.0,1023.0,1023.0,1023.0,1024.0,1023.0,1023.0,1021.0,1022.0,1022.0,1023.0,1023.0,1023.0,1024.0,1023.0,1023.0,1022.0,1023.0,1024.0,1023.0,1024.0,1024.0,1023.0,1023.0,1023.0,1024.0,1024.0,1024.0,1025.0,1023.0,1023.0,1023.0,1024.0,1023.0,1024.0,1025.0,1024.0,1023.0,1023.0,1024.0,1024.0,1025.0,1026.0,1024.0,1024.0,1025.0,1024.0,1027.0,1028.0,1025.0,1024.0,1027.0,1026.0,1028.0,1029.0,1025.0,1024.0,1030.0,1028.0,1030.0,1032.0,1026.0,1026.0,1034.0,1030.0,1032.0,1036.0,1028.0,1027.0,1037.0,1030.0,1031.0,1037.0,1029.0,1031.0,1044.0,1033.0,1032.0,1041.0,1032.0,1032.0,1043.0,1034.0,1032.0,1041.0,1032.0,1031.0,1038.0,1033.0,1030.0,1038.0,1031.0,1033.0,1037.0,1033.0,1030.0,1037.0,1031.0,1022.0,1024.0,1022.0,1023.0,1024.0,1022.0,1035.0,1038.0,1033.0,1031.0,1035.0,1032.0,1030.0,1033.0,1030.0,1030.0,1035.0,1031.0,1027.0,1028.0,1026.0,1027.0,1029.0,2051,2010,1908,	00:30:50.342,0.05322265625,0.05908203125,1.017578125,-0.244140625,0.18310546875,0.0,3.3343505859375,-2.977294921875,48.71337890625,455.0,-1591.0,-2555.0,0.910003662109375,0.0372314453125,-0.01165771484375,0.41278076171875,3.336614407517355,-2.976072739316868,44.212551551616755,0.9254978758749716,0.03673241173637734,-0.013096621270097926,0.37673981763314146,1,	00:30:50.343,0.05224609375,0.029296875,1.005859375,-0.8544921875,-1.40380859375,-0.54931640625,1.658935546875,-2.9827880859375,147.2772216796875,-438.0,-1210.0,-1988.0,-0.281219482421875,-0.029052734375,-0.006561279296875,-0.959197998046875,1.659198876062661,-2.982937544213165,147.80657962030637,-0.2767744218892374,-0.02901805674648065,-0.0066906036066826,-0.9604733768272367,1
1782117357.571744,0.060,1023.0,1024.0,1024.0,1023.0,1023.0,1024.0,1024.0,1024.0,1023.0,1023.0,1024.0,1023.0,1024.0,1024.0,1023.0,1023.0,1023.0,1023.0,1023.0,1024.0,1024.0,1024.0,1023.0,1023.0,1023.0,1024.0,1023.0,1023.0,1024.0,1023.0,1023.0,1023.0,1022.0,1023.0,1024.0,1023.0,1024.0,1024.0,1023.0,1024.0,1023.0,1023.0,1023.0,1024.0,1023.0,1024.0,1024.0,1023.0,1023.0,1023.0,1023.0,1023.0,1023.0,1024.0,1023.0,1024.0,1024.0,1023.0,1024.0,1023.0,1023.0,1023.0,1023.0,1024.0,1023.0,1024.0,1024.0,1023.0,1023.0,1022.0,1022.0,1023.0,1022.0,1023.0,1023.0,1024.0,1024.0,1023.0,1024.0,1022.0,1023.0,1023.0,1023.0,1024.0,1023.0,1024.0,1024.0,1023.0,1023.0,1023.0,1023.0,1023.0,1023.0,1024.0,1023.0,1024.0,1024.0,1023.0,1023.0,1023.0,1023.0,1023.0,1022.0,1024.0,1023.0,1024.0,1024.0,1023.0,1023.0,1023.0,1023.0,1023.0,1022.0,1023.0,1023.0,1023.0,1024.0,1023.0,1023.0,1021.0,1023.0,1023.0,1024.0,1023.0,1023.0,1024.0,1023.0,1023.0,1022.0,1023.0,1024.0,1023.0,1024.0,1024.0,1023.0,1023.0,1023.0,1024.0,1024.0,1024.0,1025.0,1023.0,1024.0,1023.0,1024.0,1023.0,1024.0,1025.0,1024.0,1024.0,1023.0,1024.0,1023.0,1025.0,1025.0,1024.0,1024.0,1025.0,1024.0,1027.0,1027.0,1025.0,1024.0,1027.0,1025.0,1029.0,1029.0,1026.0,1025.0,1030.0,1027.0,1031.0,1032.0,1026.0,1026.0,1034.0,1030.0,1032.0,1036.0,1028.0,1027.0,1036.0,1030.0,1031.0,1037.0,1029.0,1031.0,1043.0,1034.0,1033.0,1040.0,1032.0,1032.0,1042.0,1034.0,1031.0,1040.0,1032.0,1031.0,1038.0,1033.0,1030.0,1038.0,1031.0,1033.0,1037.0,1032.0,1030.0,1036.0,1030.0,1023.0,1023.0,1022.0,1023.0,1024.0,1022.0,1035.0,1039.0,1033.0,1030.0,1036.0,1032.0,1030.0,1033.0,1031.0,1030.0,1035.0,1030.0,1027.0,1029.0,1027.0,1027.0,1029.0,2051,2010,1908,	00:30:50.352,0.052734375,0.0595703125,1.01708984375,-0.244140625,0.244140625,0.06103515625,3.40576171875,-2.911376953125,48.7078857421875,454.0,-1594.0,-2551.0,0.910003662109375,0.03753662109375,-0.01092529296875,0.412750244140625,3.403858450215553,-2.9140536099037258,44.20972029599164,0.9255043964110123,0.03707206078445953,-0.012375257101593928,0.37671491547953145,1,	00:30:50.353,0.05224609375,0.029296875,1.00634765625,-0.79345703125,-1.3427734375,-0.54931640625,1.702880859375,-2.92236328125,147.2662353515625,-438.0,-1209.0,-1989.0,-0.281280517578125,-0.02862548828125,-0.007080078125,-0.95916748046875,1.703078880949931,-2.9203571254392995,147.79803537355332,-0.2768465998520645,-0.028600159304871593,-0.007207810222087999,-0.960461367525987,1
1782117357.582304,0.070,1023.0,1023.0,1024.0,1022.0,1023.0,1022.0,1023.0,1024.0,1023.0,1023.0,1024.0,1023.0,1024.0,1024.0,1023.0,1023.0,1023.0,1024.0,1023.0,1024.0,1024.0,1023.0,1023.0,1023.0,1023.0,1024.0,1023.0,1024.0,1024.0,1023.0,1023.0,1023.0,1023.0,1023.0,1024.0,1024.0,1024.0,1024.0,1023.0,1024.0,1023.0,1022.0,1023.0,1024.0,1023.0,1023.0,1024.0,1023.0,1023.0,1022.0,1023.0,1023.0,1023.0,1024.0,1023.0,1024.0,1024.0,1023.0,1024.0,1023.0,1023.0,1023.0,1022.0,1023.0,1022.0,1024.0,1024.0,1023.0,1022.0,1022.0,1022.0,1023.0,1023.0,1024.0,1023.0,1024.0,1024.0,1023.0,1023.0,1022.0,1023.0,1023.0,1023.0,1024.0,1024.0,1024.0,1024.0,1023.0,1023.0,1023.0,1022.0,1023.0,1023.0,1024.0,1023.0,1024.0,1024.0,1024.0,1023.0,1024.0,1023.0,1023.0,1022.0,1024.0,1023.0,1024.0,1025.0,1023.0,1023.0,1023.0,1022.0,1023.0,1023.0,1024.0,1022.0,1023.0,1024.0,1023.0,1023.0,1021.0,1022.0,1023.0,1024.0,1023.0,1023.0,1024.0,1023.0,1022.0,1022.0,1023.0,1024.0,1023.0,1023.0,1024.0,1023.0,1023.0,1023.0,1024.0,1023.0,1024.0,1025.0,1023.0,1024.0,1023.0,1024.0,1024.0,1024.0,1025.0,1024.0,1024.0,1023.0,1024.0,1024.0,1025.0,1025.0,1024.0,1024.0,1025.0,1024.0,1027.0,1028.0,1024.0,1024.0,1027.0,1025.0,1028.0,1029.0,1025.0,1025.0,1030.0,1027.0,1031.0,1032.0,1026.0,1026.0,1034.0,1030.0,1032.0,1037.0,1028.0,1028.0,1036.0,1030.0,1031.0,1037.0,1029.0,1032.0,1043.0,1033.0,1033.0,1040.0,1032.0,1031.0,1042.0,1034.0,1032.0,1040.0,1032.0,1031.0,1038.0,1033.0,1030.0,1037.0,1031.0,1032.0,1037.0,1032.0,1031.0,1036.0,1030.0,1022.0,1024.0,1022.0,1023.0,1024.0,1021.0,1035.0,1039.0,1033.0,1031.0,1035.0,1031.0,1030.0,1033.0,1030.0,1031.0,1035.0,1030.0,1026.0,1029.0,1027.0,1028.0,1029.0,2051,2010,1908,	00:30:50.362,0.0517578125,0.060546875,1.017578125,-0.244140625,0.244140625,0.06103515625,3.416748046875,-2.823486328125,48.7078857421875,455.0,-1590.0,-2557.0,0.9100341796875,0.03729248046875,-0.0101318359375,0.412750244140625,3.4169633069031966,-2.8213815781805143,44.209693815605895,0.9255280487537618,0.036874367261304254,-0.011583251703406655,0.3767013940631336,1,	00:30:50.364,0.0517578125,0.029296875,1.005859375,-0.79345703125,-1.40380859375,-0.54931640625,1.6204833984375,-2.98828125,147.2662353515625,-436.0,-1208.0,-1989.0,-0.28131103515625,-0.02899169921875,-0.0062255859375,-0.95916748046875,1.6199830846951657,-2.986420158681409,147.79601226190783,-0.276872275751434,-0.028953106561084158,-0.006350804422139657,-0.9604494405349385,1
1782117357.593326,0.082,1023.0,1023.0,1024.0,1023.0,1023.0,1023.0,1023.0,1024.0,1022.0,1023.0,1024.0,1023.0,1023.0,1024.0,1023.0,1023.0,1022.0,1024.0,1023.0,1024.0,1024.0,1023.0,1023.0,1023.0,1023.0,1024.0,1023.0,1024.0,1024.0,1023.0,1023.0,1024.0,1023.0,1023.0,1024.0,1023.0,1024.0,1024.0,1023.0,1023.0,1023.0,1023.0,1023.0,1023.0,1023.0,1023.0,1024.0,1023.0,1023.0,1023.0,1023.0,1023.0,1023.0,1024.0,1023.0,1024.0,1024.0,1023.0,1023.0,1022.0,1023.0,1023.0,1023.0,1024.0,1023.0,1023.0,1024.0,1023.0,1023.0,1022.0,1023.0,1023.0,1022.0,1024.0,1022.0,1023.0,1024.0,1023.0,1023.0,1022.0,1022.0,1023.0,1023.0,1024.0,1024.0,1024.0,1024.0,1023.0,1023.0,1024.0,1023.0,1023.0,1023.0,1024.0,1024.0,1024.0,1024.0,1023.0,1023.0,1024.0,1023.0,1023.0,1023.0,1024.0,1023.0,1024.0,1024.0,1023.0,1024.0,1023.0,1023.0,1023.0,1022.0,1023.0,1022.0,1023.0,1024.0,1023.0,1022.0,1021.0,1022.0,1023.0,1024.0,1023.0,1023.0,1024.0,1022.0,1023.0,1022.0,1023.0,1024.0,1023.0,1024.0,1024.0,1023.0,1023.0,1024.0,1024.0,1024.0,1025.0,1024.0,1023.0,1024.0,1023.0,1024.0,1023.0,1024.0,1025.0,1024.0,1024.0,1024.0,1024.0,1024.0,1024.0,1025.0,1024.0,1023.0,1026.0,1024.0,1026.0,1027.0,1024.0,1024.0,1026.0,1025.0,1028.0,1028.0,1026.0,1024.0,1030.0,1027.0,1031.0,1031.0,1026.0,1026.0,1035.0,1030.0,1032.0,1036.0,1029.0,1027.0,1036.0,1029.0,1031.0,1037.0,1029.0,1032.0,1044.0,1034.0,1032.0,1041.0,1032.0,1032.0,1043.0,1034.0,1032.0,1040.0,1031.0,1031.0,1038.0,1033.0,1031.0,1038.0,1031.0,1032.0,1037.0,1032.0,1031.0,1036.0,1030.0,1023.0,1024.0,1022.0,1024.0,1024.0,1022.0,1035.0,1039.0,1033.0,1032.0,1036.0,1031.0,1030.0,1033.0,1030.0,1030.0,1035.0,1029.0,1026.0,1029.0,1027.0,1027.0,1029.0,2051,2010,1909,	00:30:50.373,0.05126953125,0.05859375,1.01708984375,-0.30517578125,0.18310546875,0.06103515625,3.3343505859375,-2.8619384765625,48.71337890625,454.0,-1594.0,-2555.0,0.9100341796875,0.036773681640625,-0.0107421875,0.41278076171875,3.3317450129341575,-2.860420710723532,44.21448480004601,0.9255279180959067,0.03631445695275396,-0.012177373301165322,0.3767373682298682,1,	00:30:50.374,0.0517578125,0.02880859375,1.00537109375,-0.732421875,-1.40380859375,-0.54931640625,1.6534423828125,-2.9168701171875,147.2607421875,-437.0,-1211.0,-1988.0,-0.2813720703125,-0.02850341796875,-0.006683349609375,-0.959136962890625,1.6556625809155836,-2.919197980218423,147.78791270413157,-0.2769434657357295,-0.028476490093789584,-0.006810677046423773,-0.9604400142520044,1
1782117357.602783,0.091,1023.0,1023.0,1024.0,1022.0,1023.0,1023.0,1023.0,1024.0,1022.0,1023.0,1024.0,1023.0,1024.0,1023.0,1023.0,1023.0,1023.0,1024.0,1023.0,1024.0,1024.0,1023.0,1023.0,1024.0,1023.0,1024.0,1023.0,1024.0,1024.0,1023.0,1023.0,1023.0,1022.0,1023.0,1024.0,1024.0,1024.0,1024.0,1023.0,1023.0,1023.0,1023.0,1023.0,1024.0,1023.0,1023.0,1024.0,1023.0,1023.0,1023.0,1023.0,1023.0,1023.0,1024.0,1024.0,1024.0,1024.0,1023.0,1023.0,1023.0,1023.0,1024.0,1023.0,1024.0,1023.0,1024.0,1024.0,1023.0,1023.0,1022.0,1022.0,1023.0,1022.0,1024.0,1023.0,1024.0,1024.0,1023.0,1023.0,1022.0,1022.0,1023.0,1023.0,1024.0,1024.0,1024.0,1024.0,1023.0,1023.0,1023.0,1023.0,1023.0,1023.0,1024.0,1023.0,1024.0,1024.0,1024.0,1023.0,1023.0,1023.0,1024.0,1022.0,1024.0,1023.0,1024.0,1024.0,1023.0,1023.0,1023.0,1023.0,1023.0,1022.0,1024.0,1022.0,1023.0,1024.0,1023.0,1023.0,1021.0,1022.0,1023.0,1024.0,1023.0,1024.0,1024.0,1023.0,1023.0,1022.0,1023.0,1024.0,1023.0,1024.0,1024.0,1023.0,1022.0,1023.0,1024.0,1024.0,1024.0,1025.0,1024.0,1024.0,1023.0,1025.0,1023.0,1024.0,1025.0,1024.0,1024.0,1023.0,1025.0,1023.0,1025.0,1025.0,1024.0,1024.0,1026.0,1024.0,1026.0,1027.0,1025.0,1024.0,1028.0,1026.0,1028.0,1028.0,1025.0,1024.0,1031.0,1027.0,1031.0,1032.0,1027.0,1026.0,1035.0,1031.0,1033.0,1036.0,1028.0,1027.0,1036.0,1031.0,1031.0,1036.0,1029.0,1031.0,1043.0,1035.0,1033.0,1040.0,1032.0,1032.0,1042.0,1034.0,1032.0,1039.0,1032.0,1031.0,1038.0,1033.0,1030.0,1037.0,1031.0,1032.0,1036.0,1033.0,1030.0,1036.0,1031.0,1022.0,1023.0,1023.0,1023.0,1024.0,1022.0,1035.0,1039.0,1033.0,1031.0,1035.0,1032.0,1029.0,1033.0,1031.0,1031.0,1034.0,1030.0,1027.0,1028.0,1027.0,1027.0,1029.0,2051,2010,1909,	00:30:50.383,0.05224609375,0.05859375,1.01708984375,-0.244140625,0.18310546875,0.06103515625,3.2904052734375,-2.9443359375,48.7188720703125,456.0,-1591.0,-2553.0,0.910003662109375,0.0367431640625,-0.01153564453125,0.412811279296875,3.290976868273946,-2.941920108843055,44.21714121301071,0.9255076880741018,0.036252466067622995,-0.012969203984022518,0.37676660914652116,1,	00:30:50.384,0.05126953125,0.02880859375,1.00634765625,-0.732421875,-1.40380859375,-0.54931640625,1.56005859375,-2.911376953125,147.2552490234375,-436.0,-1209.0,-1990.0,-0.281402587890625,-0.0281982421875,-0.005889892578125,-0.95916748046875,1.5595780133771073,-2.9111723104150298,147.78653731458502,-0.27698018322246654,-0.028177082937982295,-0.006024456052514982,-0.9604435100662747,1
1782117357.613150,0.101,1023.0,1023.0,1024.0,1022.0,1023.0,1023.0,1024.0,1023.0,1022.0,1023.0,1024.0,1024.0,1024.0,1024.0,1023.0,1023.0,1023.0,1024.0,1023.0,1024.0,1024.0,1023.0,1023.0,1023.0,1023.0,1024.0,1023.0,1024.0,1024.0,1023.0,1023.0,1023.0,1022.0,1023.0,1024.0,1024.0,1024.0,1024.0,1023.0,1023.0,1023.0,1023.0,1023.0,1024.0,1023.0,1023.0,1024.0,1023.0,1023.0,1023.0,1022.0,1023.0,1023.0,1024.0,1023.0,1024.0,1024.0,1023.0,1022.0,1022.0,1022.0,1023.0,1022.0,1023.0,1023.0,1023.0,1024.0,1023.0,1023.0,1022.0,1022.0,1023.0,1023.0,1024.0,1023.0,1024.0,1024.0,1023.0,1023.0,1022.0,1023.0,1023.0,1022.0,1023.0,1023.0,1024.0,1024.0,1023.0,1023.0,1023.0,1023.0,1023.0,1023.0,1024.0,1023.0,1024.0,1024.0,1023.0,1024.0,1024.0,1023.0,1023.0,1023.0,1024.0,1024.0,1024.0,1024.0,1023.0,1024.0,1023.0,1023.0,1023.0,1023.0,1023.0,1022.0,1023.0,1024.0,1023.0,1023.0,1021.0,1022.0,1023.0,1024.0,1023.0,1023.0,1024.0,1023.0,1023.0,1022.0,1023.0,1023.0,1023.0,1023.0,1024.0,1023.0,1023.0,1023.0,1024.0,1024.0,1024.0,1025.0,1023.0,1024.0,1023.0,1024.0,1023.0,1024.0,1025.0,1024.0,1024.0,1023.0,1024.0,1024.0,1025.0,1026.0,1024.0,1023.0,1025.0,1024.0,1027.0,1027.0,1025.0,1024.0,1027.0,1025.0,1029.0,1029.0,1026.0,1025.0,1030.0,1027.0,1032.0,1032.0,1027.0,1026.0,1034.0,1031.0,1032.0,1036.0,1028.0,1027.0,1036.0,1030.0,1031.0,1037.0,1029.0,1031.0,1043.0,1034.0,1033.0,1040.0,1032.0,1032.0,1043.0,1034.0,1032.0,1040.0,1032.0,1031.0,1038.0,1033.0,1031.0,1037.0,1031.0,1032.0,1037.0,1032.0,1030.0,1036.0,1031.0,1022.0,1023.0,1022.0,1023.0,1024.0,1022.0,1034.0,1038.0,1033.0,1032.0,1036.0,1031.0,1030.0,1033.0,1030.0,1031.0,1034.0,1030.0,1027.0,1028.0,1026.0,1028.0,1029.0,2051,2010,1908,	00:30:50.393,0.052734375,0.06005859375,1.01708984375,-0.30517578125,0.18310546875,0.06103515625,3.3782958984375,-2.9608154296875,48.71337890625,454.0,-1589.0,-2557.0,0.90997314453125,0.0374755859375,-0.011383056640625,0.41278076171875,3.3769913024085145,-2.961257437779786,44.21326900410564,0.9254870514199608,0.037010068064758206,-0.01284391407137756,0.3767479348147189,1,	00:30:50.394,0.05224609375,0.0283203125,1.00634765625,-0.67138671875,-1.40380859375,-0.6103515625,1.614990234375,-2.9937744140625,147.249755859375,-436.0,-1211.0,-1990.0,-0.281463623046875,-0.029022216796875,-0.006134033203125,-0.9591064453125,1.6136737241912085,-2.993805941697449,147.77693532931383,-0.27703242078538554,-0.029000797937642243,-0.006275203751965642,-0.9604023184950359,1
1782117357.622873,0.111,1022.0,1023.0,1024.0,1022.0,1024.0,1023.0,1023.0,1024.0,1023.0,1023.0,1024.0,1023.0,1024.0,1024.0,1023.0,1023.0,1023.0,1024.0,1023.0,1024.0,1024.0,1022.0,1023.0,1024.0,1022.0,1024.0,1023.0,1024.0,1024.0,1023.0,1023.0,1023.0,1022.0,1023.0,1023.0,1023.0,1024.0,1024.0,1023.0,1023.0,1023.0,1023.0,1023.0,1024.0,1023.0,1024.0,1024.0,1023.0,1023.0,1023.0,1022.0,1023.0,1023.0,1024.0,1024.0,1024.0,1024.0,1023.0,1023.0,1023.0,1022.0,1023.0,1023.0,1024.0,1023.0,1024.0,1024.0,1023.0,1023.0,1022.0,1022.0,1023.0,1023.0,1024.0,1023.0,1024.0,1024.0,1023.0,1023.0,1023.0,1022.0,1023.0,1022.0,1024.0,1024.0,1024.0,1024.0,1023.0,1023.0,1024.0,1023.0,1024.0,1023.0,1024.0,1024.0,1024.0,1024.0,1023.0,1023.0,1023.0,1023.0,1024.0,1023.0,1024.0,1023.0,1024.0,1024.0,1023.0,1023.0,1023.0,1023.0,1024.0,1023.0,1023.0,1023.0,1023.0,1024.0,1023.0,1023.0,1020.0,1022.0,1023.0,1023.0,1023.0,1023.0,1024.0,1023.0,1023.0,1022.0,1023.0,1024.0,1023.0,1024.0,1024.0,1023.0,1023.0,1023.0,1024.0,1023.0,1024.0,1025.0,1024.0,1023.0,1023.0,1024.0,1024.0,1024.0,1025.0,1024.0,1024.0,1023.0,1024.0,1024.0,1025.0,1026.0,1024.0,1023.0,1025.0,1024.0,1026.0,1027.0,1025.0,1024.0,1027.0,1025.0,1029.0,1028.0,1025.0,1025.0,1030.0,1028.0,1031.0,1032.0,1027.0,1026.0,1034.0,1030.0,1033.0,1037.0,1028.0,1027.0,1036.0,1030.0,1032.0,1037.0,1029.0,1032.0,1043.0,1034.0,1033.0,1040.0,1032.0,1032.0,1043.0,1034.0,1032.0,1040.0,1032.0,1031.0,1038.0,1033.0,1031.0,1038.0,1031.0,1032.0,1037.0,1033.0,1031.0,1035.0,1030.0,1022.0,1024.0,1023.0,1023.0,1024.0,1021.0,1035.0,1039.0,1033.0,1032.0,1035.0,1032.0,1030.0,1033.0,1031.0,1030.0,1035.0,1030.0,1027.0,1029.0,1027.0,1027.0,1029.0,2051,2010,1908,	00:30:50.403,0.052734375,0.05908203125,1.01708984375,-0.3662109375,0.244140625,0.06103515625,3.2794189453125,-2.9608154296875,48.7188720703125,456.0,-1588.0,-2556.0,0.910003662109375,0.0367431640625,-0.01171875,0.412811279296875,3.2816927388885238,-2.9619747044998253,44.21875572703986,0.9254992535815806,0.036243365970264896,-0.01316128832595257,0.37678154218682736,1,	00:30:50.404,0.0517578125,0.02880859375,1.005859375,-0.67138671875,-1.40380859375,-0.6103515625,1.6534423828125,-2.9278564453125,147.23876953125,-437.0,-1213.0,-1988.0,-0.28155517578125,-0.028564453125,-0.006622314453125,-0.9591064453125,1.6511080050244247,-2.9271588509619,147.7681635809008,-0.27710866585009636,-0.028533355285200117,-0.006748296964595197,-0.9603911158663567,1
1782117357.632916,0.121,1023.0,1024.0,1024.0,1023.0,1023.0,1023.0,1023.0,1024.0,1023.0,1023.0,1023.0,1023.0,1024.0,1024.0,1023.0,1023.0,1023.0,1023.0,1024.0,1024.0,1024.0,1023.0,1023.0,1023.0,1023.0,1024.0,1024.0,1024.0,1024.0,1023.0,1023.0,1024.0,1022.0,1023.0,1024.0,1024.0,1024.0,1024.0,1023.0,1023.0,1023.0,1023.0,1023.0,1024.0,1023.0,1024.0,1024.0,1023.0,1023.0,1023.0,1023.0,1024.0,1023.0,1024.0,1023.0,1023.0,1024.0,1023.0,1023.0,1023.0,1022.0,1024.0,1022.0,1024.0,1022.0,1023.0,1024.0,1023.0,1023.0,1022.0,1023.0,1024.0,1022.0,1023.0,1023.0,1024.0,1024.0,1023.0,1023.0,1023.0,1023.0,1023.0,1023.0,1024.0,1023.0,1024.0,1025.0,1023.0,1023.0,1023.0,1023.0,1023.0,1023.0,1024.0,1023.0,1024.0,1024.0,1024.0,1023.0,1024.0,1023.0,1023.0,1023.0,1024.0,1023.0,1024.0,1024.0,1024.0,1024.0,1023.0,1023.0,1024.0,1022.0,1023.0,1022.0,1023.0,1024.0,1023.0,1022.0,1021.0,1022.0,1023.0,1024.0,1023.0,1023.0,1024.0,1023.0,1023.0,1022.0,1023.0,1023.0,1023.0,1024.0,1024.0,1023.0,1023.0,1023.0,1024.0,1023.0,1024.0,1025.0,1023.0,1024.0,1023.0,1025.0,1024.0,1024.0,1025.0,1024.0,1023.0,1023.0,1024.0,1024.0,1024.0,1026.0,1024.0,1023.0,1025.0,1025.0,1028.0,1027.0,1025.0,1024.0,1027.0,1026.0,1029.0,1029.0,1025.0,1025.0,1030.0,1028.0,1031.0,1032.0,1027.0,1026.0,1034.0,1031.0,1032.0,1036.0,1028.0,1028.0,1036.0,1030.0,1031.0,1036.0,1028.0,1031.0,1043.0,1033.0,1032.0,1040.0,1032.0,1032.0,1043.0,1034.0,1032.0,1039.0,1032.0,1031.0,1038.0,1033.0,1031.0,1037.0,1031.0,1032.0,1037.0,1032.0,1031.0,1036.0,1031.0,1023.0,1024.0,1022.0,1024.0,1024.0,1022.0,1036.0,1039.0,1032.0,1031.0,1035.0,1031.0,1030.0,1034.0,1030.0,1030.0,1034.0,1031.0,1027.0,1029.0,1026.0,1027.0,1029.0,2051,2010,1908,	00:30:50.414,0.052734375,0.05859375,1.01708984375,-0.3662109375,0.18310546875,0.06103515625,3.3673095703125,-2.96630859375,48.71337890625,454.0,-1588.0,-2556.0,0.90997314453125,0.037445068359375,-0.011444091796875,0.412811279296875,3.369360657473726,-2.9670011053646905,44.21474576206338,0.9254829036623252,0.036967419374184546,-0.012914942172744269,0.3767598826868897,1,	00:30:50.415,0.05224609375,0.029296875,1.005859375,-0.67138671875,-1.40380859375,-0.6103515625,1.6754150390625,-3.0267333984375,147.227783203125,-437.0,-1209.0,-1987.0,-0.281585693359375,-0.029449462890625,-0.006591796875,-0.95904541015625,1.6774915020133419,-3.0264813655822076,147.75995392127746,-0.2771524581664663,-0.029429867083806877,-0.006726504116299838,-0.9603515772872391,1
1782117357.643613,0.132,1023.0,1023.0,1024.0,1022.0,1023.0,1023.0,1024.0,1023.0,1023.0,1023.0,1023.0,1023.0,1024.0,1024.0,1023.0,1023.0,1023.0,1023.0,1023.0,1024.0,1024.0,1023.0,1023.0,1023.0,1023.0,1024.0,1023.0,1024.0,1024.0,1023.0,1023.0,1023.0,1023.0,1023.0,1023.0,1024.0,1024.0,1024.0,1024.0,1023.0,1023.0,1023.0,1023.0,1023.0,1023.0,1024.0,1024.0,1024.0,1023.0,1023.0,1023.0,1024.0,1023.0,1024.0,1024.0,1024.0,1024.0,1023.0,1023.0,1023.0,1023.0,1023.0,1023.0,1024.0,1023.0,1024.0,1024.0,1023.0,1022.0,1022.0,1022.0,1023.0,1023.0,1023.0,1022.0,1024.0,1024.0,1023.0,1023.0,1022.0,1022.0,1023.0,1023.0,1024.0,1024.0,1024.0,1024.0,1024.0,1023.0,1023.0,1023.0,1023.0,1023.0,1023.0,1023.0,1024.0,1024.0,1024.0,1024.0,1023.0,1023.0,1023.0,1023.0,1024.0,1024.0,1024.0,1024.0,1024.0,1023.0,1023.0,1023.0,1023.0,1023.0,1024.0,1022.0,1024.0,1024.0,1023.0,1022.0,1021.0,1022.0,1023.0,1023.0,1023.0,1024.0,1024.0,1023.0,1022.0,1022.0,1023.0,1024.0,1023.0,1024.0,1024.0,1023.0,1023.0,1023.0,1024.0,1024.0,1024.0,1024.0,1024.0,1024.0,1024.0,1024.0,1023.0,1024.0,1025.0,1024.0,1024.0,1024.0,1024.0,1024.0,1025.0,1026.0,1024.0,1024.0,1026.0,1024.0,1027.0,1027.0,1024.0,1024.0,1027.0,1025.0,1028.0,1029.0,1025.0,1025.0,1031.0,1027.0,1031.0,1032.0,1027.0,1026.0,1035.0,1030.0,1033.0,1036.0,1028.0,1027.0,1036.0,1030.0,1031.0,1036.0,1029.0,1031.0,1043.0,1034.0,1033.0,1039.0,1032.0,1032.0,1043.0,1034.0,1032.0,1039.0,1032.0,1031.0,1038.0,1033.0,1030.0,1037.0,1031.0,1032.0,1037.0,1032.0,1031.0,1036.0,1031.0,1023.0,1023.0,1022.0,1023.0,1024.0,1022.0,1035.0,1039.0,1033.0,1031.0,1035.0,1032.0,1031.0,1033.0,1030.0,1030.0,1035.0,1030.0,1027.0,1029.0,1027.0,1027.0,1029.0,2051,2010,1908,	00:30:50.424,0.052734375,0.0595703125,1.017578125,-0.30517578125,0.18310546875,0.06103515625,3.2794189453125,-2.9388427734375,48.7188720703125,455.0,-1588.0,-2557.0,0.910003662109375,0.03662109375,-0.011566162109375,0.412841796875,3.2782577897123653,-2.939966301796853,44.21999787701172,0.9255029022118206,0.036143662437880905,-0.012994332481472111,0.376787952284086,1,	00:30:50.425,0.05224609375,0.02880859375,1.00537109375,-0.6103515625,-1.3427734375,-0.6103515625,1.6204833984375,-2.96630859375,147.227783203125,-435.0,-1211.0,-1988.0,-0.281646728515625,-0.02880859375,-0.006256103515625,-0.959075927734375,1.6200669895990598,-2.9641437776267647,147.75614710012172,-0.27721040830780797,-0.028768865577532606,-0.006395460613018314,-0.9603571418918837,1
1782117357.653306,0.141,1023.0,1024.0,1024.0,1023.0,1023.0,1023.0,1023.0,1024.0,1023.0,1023.0,1024.0,1024.0,1024.0,1023.0,1022.0,1023.0,1023.0,1024.0,1022.0,1024.0,1024.0,1023.0,1023.0,1023.0,1022.0,1024.0,1023.0,1024.0,1024.0,1023.0,1023.0,1023.0,1023.0,1023.0,1024.0,1024.0,1024.0,1024.0,1023.0,1024.0,1024.0,1023.0,1023.0,1024.0,1023.0,1024.0,1024.0,1023.0,1023.0,1023.0,1023.0,1024.0,1023.0,1024.0,1023.0,1024.0,1024.0,1023.0,1023.0,1023.0,1023.0,1023.0,1023.0,1024.0,1023.0,1023.0,1024.0,1023.0,1023.0,1022.0,1023.0,1023.0,1022.0,1024.0,1023.0,1024.0,1024.0,1023.0,1023.0,1022.0,1023.0,1023.0,1023.0,1024.0,1023.0,1023.0,1024.0,1023.0,1023.0,1023.0,1023.0,1023.0,1023.0,1024.0,1023.0,1024.0,1024.0,1023.0,1022.0,1023.0,1023.0,1023.0,1023.0,1024.0,1023.0,1024.0,1025.0,1023.0,1024.0,1023.0,1022.0,1024.0,1023.0,1023.0,1022.0,1023.0,1024.0,1023.0,1023.0,1021.0,1022.0,1023.0,1024.0,1023.0,1023.0,1024.0,1023.0,1022.0,1022.0,1023.0,1023.0,1023.0,1024.0,1024.0,1023.0,1023.0,1023.0,1024.0,1024.0,1024.0,1025.0,1024.0,1024.0,1023.0,1024.0,1024.0,1024.0,1025.0,1024.0,1024.0,1023.0,1025.0,1024.0,1025.0,1026.0,1024.0,1024.0,1025.0,1024.0,1027.0,1027.0,1025.0,1024.0,1028.0,1026.0,1028.0,1028.0,1026.0,1025.0,1030.0,1027.0,1031.0,1032.0,1027.0,1026.0,1034.0,1030.0,1033.0,1037.0,1028.0,1027.0,1037.0,1030.0,1031.0,1037.0,1029.0,1032.0,1044.0,1033.0,1032.0,1040.0,1031.0,1031.0,1043.0,1033.0,1032.0,1040.0,1033.0,1031.0,1038.0,1033.0,1030.0,1038.0,1031.0,1032.0,1037.0,1032.0,1031.0,1036.0,1031.0,1023.0,1024.0,1023.0,1023.0,1024.0,1022.0,1035.0,1039.0,1032.0,1031.0,1036.0,1032.0,1030.0,1033.0,1030.0,1031.0,1035.0,1031.0,1027.0,1029.0,1026.0,1026.0,1029.0,2051,2010,1909,	00:30:50.434,0.0517578125,0.0595703125,1.017578125,-0.30517578125,0.18310546875,0.06103515625,3.3563232421875,-2.900390625,48.7188720703125,456.0,-1591.0,-2555.0,0.910003662109375,0.037109375,-0.010955810546875,0.412811279296875,3.35849891114972,-2.899833081930484,44.21646699400959,0.925501100858803,0.03665986216980566,-0.012407291034817943,0.3767622936866318,1,	00:30:50.435,0.0517578125,0.029296875,1.00537109375,-0.67138671875,-1.28173828125,-0.6103515625,1.6973876953125,-2.9443359375,147.216796875,-435.0,-1208.0,-1988.0,-0.281707763671875,-0.028839111328125,-0.006988525390625,-0.95904541015625,1.6996614777406494,-2.9446644427454336,147.7452427681927,-0.2772853813336529,-0.028798869624830657,-0.007107020465472329,-0.9603295958508652,1
1782117357.666156,0.154,1023.0,1024.0,1023.0,1022.0,1023.0,1023.0,1024.0,1024.0,1022.0,1023.0,1024.0,1023.0,1023.0,1024.0,1023.0,1023.0,1023.0,1024.0,1024.0,1024.0,1024.0,1023.0,1023.0,1024.0,1023.0,1024.0,1023.0,1024.0,1024.0,1023.0,1023.0,1023.0,1023.0,1023.0,1024.0,1024.0,1024.0,1024.0,1023.0,1023.0,1023.0,1023.0,1023.0,1024.0,1023.0,1024.0,1024.0,1023.0,1023.0,1022.0,1022.0,1023.0,1023.0,1024.0,1023.0,1023.0,1024.0,1023.0,1023.0,1023.0,1023.0,1023.0,1023.0,1023.0,1023.0,1024.0,1024.0,1023.0,1022.0,1022.0,1022.0,1023.0,1022.0,1024.0,1023.0,1024.0,1024.0,1023.0,1023.0,1022.0,1023.0,1023.0,1023.0,1024.0,1023.0,1024.0,1024.0,1023.0,1023.0,1023.0,1023.0,1023.0,1023.0,1024.0,1024.0,1024.0,1024.0,1024.0,1024.0,1023.0,1023.0,1024.0,1023.0,1024.0,1023.0,1024.0,1024.0,1023.0,1023.0,1023.0,1023.0,1023.0,1023.0,1023.0,1022.0,1023.0,1024.0,1023.0,1022.0,1021.0,1022.0,1023.0,1023.0,1023.0,1023.0,1024.0,1023.0,1023.0,1022.0,1023.0,1024.0,1023.0,1023.0,1024.0,1023.0,1022.0,1023.0,1024.0,1024.0,1024.0,1025.0,1024.0,1024.0,1023.0,1024.0,1024.0,1024.0,1025.0,1024.0,1024.0,1023.0,1024.0,1023.0,1025.0,1025.0,1024.0,1024.0,1026.0,1024.0,1027.0,1028.0,1025.0,1024.0,1027.0,1025.0,1028.0,1029.0,1026.0,1025.0,1030.0,1027.0,1031.0,1032.0,1027.0,1026.0,1035.0,1030.0,1032.0,1036.0,1028.0,1027.0,1037.0,1030.0,1030.0,1037.0,1029.0,1031.0,1043.0,1034.0,1033.0,1040.0,1032.0,1032.0,1044.0,1035.0,1031.0,1040.0,1032.0,1030.0,1038.0,1032.0,1030.0,1037.0,1032.0,1033.0,1037.0,1032.0,1030.0,1036.0,1032.0,1022.0,1024.0,1022.0,1023.0,1024.0,1022.0,1034.0,1040.0,1033.0,1031.0,1035.0,1032.0,1030.0,1033.0,1031.0,1031.0,1035.0,1031.0,1027.0,1029.0,1027.0,1027.0,1029.0,2052,2010,1909,	00:30:50.444,0.05322265625,0.0595703125,1.017578125,-0.3662109375,0.244140625,0.06103515625,3.3453369140625,-2.98828125,48.7188720703125,455.0,-1591.0,-2554.0,0.90997314453125,0.037353515625,-0.01171875,0.412841796875,3.3464497268179425,-2.9886287394090223,44.21765196645375,0.9254741059348467,0.03685355845012384,-0.013164116115746942,0.37678402370661984,1,	00:30:50.445,0.052734375,0.029296875,1.005859375,-0.6103515625,-1.28173828125,-0.54931640625,1.64794921875,-3.0377197265625,147.2113037109375,-435.0,-1208.0,-1990.0,-0.28173828125,-0.02947998046875,-0.006317138671875,-0.959014892578125,1.648609733103169,-3.0370248904394326,147.74172990317138,-0.27731064550362566,-0.029449381379963294,-0.0064542040023106316,-0.9603071816233578,1
1782117357.674732,0.163,1023.0,1023.0,1023.0,1022.0,1023.0,1023.0,1023.0,1024.0,1022.0,1022.0,1023.0,1024.0,1024.0,1024.0,1023.0,1023.0,1023.0,1024.0,1023.0,1024.0,1024.0,1023.0,1023.0,1024.0,1023.0,1024.0,1023.0,1024.0,1024.0,1023.0,1023.0,1023.0,1022.0,1023.0,1024.0,1024.0,1024.0,1024.0,1023.0,1023.0,1023.0,1023.0,1023.0,1024.0,1023.0,1023.0,1024.0,1023.0,1023.0,1023.0,1022.0,1023.0,1023.0,1024.0,1023.0,1023.0,1024.0,1023.0,1023.0,1023.0,1023.0,1023.0,1022.0,1023.0,1023.0,1023.0,1024.0,1023.0,1023.0,1022.0,1022.0,1023.0,1023.0,1024.0,1023.0,1023.0,1024.0,1023.0,1023.0,1023.0,1022.0,1023.0,1023.0,1023.0,1024.0,1024.0,1024.0,1023.0,1023.0,1023.0,1023.0,1023.0,1023.0,1024.0,1024.0,1024.0,1024.0,1023.0,1023.0,1023.0,1023.0,1024.0,1022.0,1024.0,1023.0,1024.0,1024.0,1023.0,1023.0,1023.0,1023.0,1023.0,1022.0,1023.0,1022.0,1023.0,1024.0,1022.0,1022.0,1021.0,1022.0,1023.0,1023.0,1023.0,1023.0,1024.0,1023.0,1023.0,1022.0,1023.0,1023.0,1023.0,1024.0,1024.0,1023.0,1023.0,1023.0,1024.0,1024.0,1024.0,1025.0,1024.0,1024.0,1023.0,1024.0,1024.0,1024.0,1025.0,1024.0,1024.0,1023.0,1024.0,1024.0,1025.0,1026.0,1024.0,1024.0,1026.0,1024.0,1027.0,1028.0,1025.0,1024.0,1027.0,1025.0,1028.0,1029.0,1025.0,1025.0,1030.0,1028.0,1031.0,1032.0,1026.0,1025.0,1034.0,1030.0,1032.0,1037.0,1028.0,1027.0,1036.0,1030.0,1030.0,1038.0,1029.0,1031.0,1043.0,1034.0,1032.0,1041.0,1032.0,1031.0,1043.0,1034.0,1031.0,1040.0,1032.0,1031.0,1038.0,1032.0,1030.0,1038.0,1031.0,1032.0,1037.0,1032.0,1030.0,1037.0,1030.0,1023.0,1023.0,1022.0,1023.0,1024.0,1022.0,1035.0,1039.0,1033.0,1031.0,1036.0,1032.0,1030.0,1033.0,1030.0,1030.0,1035.0,1031.0,1027.0,1029.0,1027.0,1026.0,1030.0,2052,2010,1909,	00:30:50.455,0.052734375,0.05810546875,1.017578125,-0.3662109375,0.244140625,0.1220703125,3.2574462890625,-2.955322265625,48.724365234375,455.0,-1592.0,-2556.0,0.90997314453125,0.0364990234375,-0.01177978515625,0.412872314453125,3.2561097443625906,-2.9565822822656376,44.2235052783842,0.9254933329717534,0.03601962467904108,-0.013200334641444596,0.37681617325716016,1,	00:30:50.456,0.052734375,0.029296875,1.00537109375,-0.48828125,-1.28173828125,-0.54931640625,1.69189453125,-2.9718017578125,147.205810546875,-437.0,-1208.0,-1987.0,-0.281829833984375,-0.029022216796875,-0.0068359375,-0.959014892578125,1.6897087798093422,-2.970206361396276,147.73346609014382,-0.27738181988097416,-0.028989507012445313,-0.006958664461680895,-0.9602970954197476,1
1782117357.684844,0.173,1023.0,1024.0,1024.0,1023.0,1024.0,1022.0,1023.0,1024.0,1022.0,1023.0,1024.0,1023.0,1024.0,1024.0,1023.0,1023.0,1023.0,1024.0,1023.0,1024.0,1024.0,1023.0,1023.0,1023.0,1023.0,1024.0,1024.0,1024.0,1024.0,1023.0,1024.0,1024.0,1023.0,1023.0,1024.0,1023.0,1024.0,1024.0,1023.0,1024.0,1023.0,1023.0,1023.0,1024.0,1023.0,1024.0,1024.0,1023.0,1023.0,1023.0,1023.0,1023.0,1023.0,1024.0,1024.0,1024.0,1024.0,1023.0,1023.0,1023.0,1023.0,1023.0,1022.0,1024.0,1023.0,1023.0,1024.0,1022.0,1023.0,1022.0,1022.0,1023.0,1022.0,1024.0,1023.0,1023.0,1024.0,1023.0,1023.0,1022.0,1023.0,1023.0,1023.0,1024.0,1023.0,1024.0,1024.0,1023.0,1023.0,1023.0,1022.0,1024.0,1023.0,1024.0,1024.0,1024.0,1024.0,1023.0,1023.0,1023.0,1023.0,1023.0,1023.0,1024.0,1023.0,1024.0,1025.0,1023.0,1023.0,1023.0,1023.0,1023.0,1022.0,1023.0,1022.0,1023.0,1024.0,1022.0,1023.0,1021.0,1022.0,1023.0,1023.0,1023.0,1024.0,1024.0,1023.0,1023.0,1023.0,1023.0,1024.0,1023.0,1024.0,1024.0,1023.0,1023.0,1024.0,1024.0,1024.0,1024.0,1025.0,1023.0,1024.0,1023.0,1024.0,1024.0,1024.0,1025.0,1023.0,1023.0,1023.0,1024.0,1023.0,1025.0,1026.0,1024.0,1024.0,1026.0,1024.0,1026.0,1028.0,1024.0,1024.0,1027.0,1025.0,1028.0,1029.0,1025.0,1025.0,1031.0,1027.0,1030.0,1032.0,1027.0,1025.0,1034.0,1030.0,1032.0,1037.0,1027.0,1027.0,1037.0,1029.0,1030.0,1038.0,1029.0,1031.0,1045.0,1034.0,1032.0,1041.0,1031.0,1031.0,1045.0,1034.0,1031.0,1041.0,1032.0,1031.0,1039.0,1032.0,1030.0,1037.0,1030.0,1033.0,1038.0,1032.0,1031.0,1036.0,1030.0,1022.0,1024.0,1022.0,1023.0,1024.0,1022.0,1035.0,1040.0,1033.0,1030.0,1036.0,1031.0,1030.0,1034.0,1030.0,1031.0,1035.0,1030.0,1026.0,1030.0,1027.0,1027.0,1029.0,2052,2010,1909,	00:30:50.465,0.0517578125,0.05908203125,1.01611328125,-0.3662109375,0.244140625,0.1220703125,3.328857421875,-2.9058837890625,48.7188720703125,456.0,-1592.0,-2552.0,0.90997314453125,0.036895751953125,-0.0111083984375,0.412841796875,3.3297934862320306,-2.904993211928081,44.22090454591053,0.9254941161222591,0.036445411101868656,-0.012541960263553094,0.37679579650712874,1,	00:30:50.466,0.0517578125,0.02880859375,1.005859375,-0.42724609375,-1.28173828125,-0.6103515625,1.60400390625,-2.9388427734375,147.2003173828125,-436.0,-1214.0,-1986.0,-0.2818603515625,-0.028564453125,-0.006195068359375,-0.959014892578125,1.6045975288373007,-2.940275208640648,147.73116231750978,-0.277427964652374,-0.028532826825165416,-0.0063174812063042495,-0.9603018752732988,1
1782117357.696477,0.185,1023.0,1023.0,1024.0,1023.0,1024.0,1023.0,1023.0,1023.0,1023.0,1023.0,1024.0,1023.0,1023.0,1024.0,1023.0,1023.0,1023.0,1024.0,1023.0,1024.0,1024.0,1023.0,1023.0,1023.0,1023.0,1024.0,1023.0,1024.0,1024.0,1023.0,1023.0,1024.0,1023.0,1023.0,1024.0,1024.0,1024.0,1024.0,1023.0,1023.0,1023.0,1023.0,1023.0,1024.0,1023.0,1024.0,1024.0,1022.0,1023.0,1022.0,1023.0,1023.0,1023.0,1024.0,1023.0,1024.0,1024.0,1023.0,1023.0,1023.0,1023.0,1023.0,1023.0,1024.0,1022.0,1023.0,1024.0,1022.0,1023.0,1023.0,1022.0,1023.0,1022.0,1024.0,1022.0,1024.0,1024.0,1023.0,1023.0,1022.0,1022.0,1023.0,1022.0,1024.0,1023.0,1024.0,1024.0,1023.0,1023.0,1023.0,1023.0,1024.0,1023.0,1024.0,1023.0,1024.0,1024.0,1023.0,1023.0,1023.0,1022.0,1023.0,1023.0,1024.0,1023.0,1024.0,1025.0,1023.0,1024.0,1023.0,1023.0,1023.0,1023.0,1024.0,1022.0,1023.0,1024.0,1022.0,1023.0,1022.0,1022.0,1023.0,1024.0,1023.0,1023.0,1024.0,1023.0,1022.0,1022.0,1023.0,1024.0,1023.0,1024.0,1024.0,1023.0,1023.0,1023.0,1025.0,1024.0,1024.0,1026.0,1023.0,1024.0,1024.0,1024.0,1023.0,1024.0,1025.0,1024.0,1024.0,1023.0,1024.0,1024.0,1024.0,1026.0,1024.0,1024.0,1026.0,1024.0,1026.0,1028.0,1025.0,1024.0,1027.0,1025.0,1028.0,1029.0,1025.0,1025.0,1031.0,1027.0,1030.0,1033.0,1026.0,1026.0,1035.0,1029.0,1032.0,1037.0,1027.0,1027.0,1037.0,1030.0,1030.0,1038.0,1028.0,1030.0,1044.0,1034.0,1033.0,1041.0,1031.0,1031.0,1045.0,1034.0,1032.0,1040.0,1031.0,1030.0,1040.0,1032.0,1031.0,1038.0,1030.0,1032.0,1038.0,1032.0,1031.0,1037.0,1030.0,1022.0,1024.0,1022.0,1023.0,1024.0,1022.0,1035.0,1041.0,1033.0,1031.0,1036.0,1031.0,1030.0,1035.0,1031.0,1030.0,1035.0,1029.0,1027.0,1030.0,1027.0,1026.0,1029.0,2052,2010,1908,	00:30:50.475,0.05224609375,0.0576171875,1.01708984375,-0.3662109375,0.244140625,0.06103515625,3.240966796875,-2.933349609375,48.724365234375,455.0,-1591.0,-2557.0,0.910003662109375,0.036285400390625,-0.01165771484375,0.412872314453125,3.2396121453839206,-2.9331339201170454,44.226061634756284,0.9254971486980377,0.035809843587950405,-0.013064292118444348,0.37683153679788145,1,	00:30:50.476,0.0517578125,0.029296875,1.0068359375,-0.42724609375,-1.28173828125,-0.6103515625,1.69189453125,-2.955322265625,147.1893310546875,-436.0,-1213.0,-1987.0,-0.28192138671875,-0.028900146484375,-0.006866455078125,-0.958984375,1.6923932037510114,-2.954773039240109,147.7199772185608,-0.2774970555128534,-0.02886752543312898,-0.007015219358329538,-0.9602670653804692,1
1782117357.705364,0.194,1023.0,1023.0,1023.0,1023.0,1024.0,1023.0,1023.0,1024.0,1022.0,1023.0,1024.0,1024.0,1024.0,1024.0,1022.0,1024.0,1023.0,1024.0,1023.0,1023.0,1024.0,1022.0,1024.0,1023.0,1023.0,1024.0,1023.0,1024.0,1024.0,1023.0,1023.0,1023.0,1022.0,1023.0,1024.0,1023.0,1023.0,1024.0,1023.0,1023.0,1024.0,1023.0,1023.0,1024.0,1024.0,1024.0,1024.0,1023.0,1023.0,1023.0,1023.0,1023.0,1023.0,1024.0,1023.0,1024.0,1024.0,1022.0,1023.0,1023.0,1023.0,1023.0,1023.0,1024.0,1023.0,1024.0,1024.0,1023.0,1023.0,1022.0,1022.0,1023.0,1022.0,1023.0,1023.0,1024.0,1024.0,1023.0,1023.0,1022.0,1023.0,1023.0,1023.0,1024.0,1023.0,1024.0,1024.0,1023.0,1024.0,1024.0,1023.0,1023.0,1023.0,1024.0,1024.0,1024.0,1024.0,1023.0,1023.0,1023.0,1023.0,1024.0,1023.0,1024.0,1024.0,1024.0,1024.0,1024.0,1024.0,1022.0,1022.0,1023.0,1023.0,1024.0,1023.0,1023.0,1024.0,1023.0,1023.0,1021.0,1022.0,1023.0,1023.0,1023.0,1023.0,1024.0,1023.0,1023.0,1022.0,1024.0,1024.0,1023.0,1023.0,1024.0,1023.0,1023.0,1023.0,1024.0,1024.0,1024.0,1025.0,1024.0,1024.0,1023.0,1024.0,1024.0,1024.0,1025.0,1023.0,1024.0,1023.0,1025.0,1024.0,1024.0,1026.0,1024.0,1023.0,1026.0,1024.0,1026.0,1028.0,1025.0,1024.0,1027.0,1025.0,1028.0,1029.0,1025.0,1025.0,1031.0,1027.0,1030.0,1032.0,1026.0,1026.0,1035.0,1030.0,1032.0,1037.0,1028.0,1027.0,1037.0,1030.0,1030.0,1038.0,1028.0,1031.0,1045.0,1034.0,1032.0,1041.0,1031.0,1031.0,1045.0,1034.0,1031.0,1040.0,1031.0,1030.0,1039.0,1033.0,1031.0,1038.0,1030.0,1032.0,1038.0,1032.0,1031.0,1037.0,1030.0,1022.0,1024.0,1023.0,1023.0,1024.0,1022.0,1035.0,1040.0,1033.0,1031.0,1036.0,1031.0,1030.0,1035.0,1030.0,1030.0,1035.0,1029.0,1026.0,1029.0,1026.0,1027.0,1029.0,2052,2010,1908,	00:30:50.485,0.05126953125,0.0595703125,1.017578125,-0.3662109375,0.244140625,0.06103515625,3.31787109375,-2.889404296875,48.724365234375,457.0,-1592.0,-2555.0,0.910003662109375,0.036773681640625,-0.011016845703125,0.412841796875,3.318445712341492,-2.890699738589599,44.22261579722344,0.9254963735719995,0.03630711743327066,-0.012463221222760763,0.37680621524268576,1,	00:30:50.486,0.0517578125,0.029296875,1.00634765625,-0.48828125,-1.28173828125,-0.54931640625,1.60400390625,-2.9278564453125,147.1893310546875,-436.0,-1215.0,-1988.0,-0.281982421875,-0.028472900390625,-0.0062255859375,-0.958984375,1.6050151040437215,-2.9280891992304205,147.71834759287478,-0.27753743616362103,-0.028432447486637393,-0.006347376916280259,-0.9602730227721313,1
1782117357.715864,0.204,1023.0,1023.0,1024.0,1023.0,1023.0,1023.0,1024.0,1023.0,1022.0,1023.0,1024.0,1023.0,1023.0,1024.0,1023.0,1023.0,1023.0,1024.0,1023.0,1024.0,1024.0,1023.0,1023.0,1024.0,1023.0,1024.0,1024.0,1024.0,1023.0,1023.0,1023.0,1023.0,1023.0,1023.0,1024.0,1023.0,1024.0,1024.0,1023.0,1023.0,1024.0,1023.0,1022.0,1024.0,1023.0,1024.0,1024.0,1023.0,1023.0,1023.0,1023.0,1023.0,1023.0,1024.0,1023.0,1023.0,1024.0,1023.0,1023.0,1023.0,1022.0,1023.0,1023.0,1024.0,1022.0,1024.0,1024.0,1022.0,1023.0,1022.0,1022.0,1023.0,1022.0,1024.0,1023.0,1023.0,1024.0,1023.0,1023.0,1022.0,1022.0,1024.0,1023.0,1024.0,1024.0,1024.0,1024.0,1023.0,1023.0,1024.0,1023.0,1023.0,1023.0,1024.0,1023.0,1024.0,1024.0,1023.0,1023.0,1024.0,1023.0,1022.0,1023.0,1024.0,1023.0,1024.0,1024.0,1023.0,1023.0,1023.0,1023.0,1023.0,1022.0,1024.0,1022.0,1023.0,1023.0,1023.0,1023.0,1021.0,1022.0,1023.0,1024.0,1023.0,1024.0,1024.0,1023.0,1023.0,1021.0,1023.0,1024.0,1023.0,1024.0,1024.0,1023.0,1023.0,1023.0,1024.0,1024.0,1024.0,1024.0,1023.0,1024.0,1023.0,1024.0,1024.0,1024.0,1025.0,1023.0,1023.0,1024.0,1025.0,1024.0,1025.0,1026.0,1024.0,1023.0,1026.0,1024.0,1027.0,1028.0,1024.0,1024.0,1028.0,1025.0,1028.0,1028.0,1025.0,1024.0,1031.0,1027.0,1031.0,1032.0,1026.0,1026.0,1035.0,1030.0,1033.0,1037.0,1027.0,1027.0,1037.0,1030.0,1031.0,1037.0,1028.0,1030.0,1044.0,1034.0,1032.0,1040.0,1031.0,1031.0,1044.0,1034.0,1031.0,1040.0,1031.0,1031.0,1040.0,1032.0,1030.0,1038.0,1030.0,1032.0,1039.0,1033.0,1030.0,1036.0,1030.0,1023.0,1024.0,1023.0,1023.0,1024.0,1022.0,1035.0,1041.0,1033.0,1031.0,1035.0,1031.0,1030.0,1034.0,1030.0,1031.0,1035.0,1029.0,1026.0,1029.0,1026.0,1026.0,1029.0,2052,2010,1908,	00:30:50.496,0.05224609375,0.05859375,1.01708984375,-0.42724609375,0.30517578125,0.06103515625,3.27392578125,-2.9718017578125,48.724365234375,456.0,-1592.0,-2554.0,0.90997314453125,0.036712646484375,-0.011810302734375,0.412872314453125,3.274901247188972,-2.9705432343622147,44.22541158956151,0.9254769174229894,0.03621735528058063,-0.01325076085443719,0.37683576771652116,1,	00:30:50.497,0.05322265625,0.02978515625,1.0068359375,-0.48828125,-1.28173828125,-0.6103515625,1.6644287109375,-3.01025390625,147.1783447265625,-438.0,-1210.0,-1987.0,-0.282012939453125,-0.029266357421875,-0.006500244140625,-0.95892333984375,1.6627289909760996,-3.007886421725061,147.70865846765702,-0.2775895576988731,-0.029241331283100573,-0.006634789737082349,-0.96023172284948,1
1782117357.725872,0.214,1023.0,1024.0,1024.0,1022.0,1024.0,1023.0,1023.0,1024.0,1022.0,1023.0,1024.0,1024.0,1023.0,1024.0,1023.0,1023.0,1022.0,1024.0,1024.0,1023.0,1024.0,1022.0,1023.0,1023.0,1023.0,1023.0,1024.0,1024.0,1024.0,1023.0,1024.0,1024.0,1023.0,1023.0,1024.0,1023.0,1023.0,1024.0,1024.0,1023.0,1023.0,1023.0,1022.0,1024.0,1023.0,1023.0,1024.0,1023.0,1023.0,1023.0,1023.0,1023.0,1023.0,1024.0,1023.0,1023.0,1024.0,1023.0,1023.0,1023.0,1023.0,1023.0,1023.0,1023.0,1022.0,1023.0,1024.0,1023.0,1022.0,1021.0,1023.0,1023.0,1023.0,1024.0,1023.0,1023.0,1024.0,1023.0,1023.0,1022.0,1022.0,1023.0,1023.0,1024.0,1023.0,1023.0,1024.0,1023.0,1023.0,1023.0,1023.0,1023.0,1023.0,1024.0,1023.0,1024.0,1025.0,1023.0,1023.0,1024.0,1023.0,1023.0,1022.0,1024.0,1024.0,1024.0,1024.0,1023.0,1023.0,1023.0,1023.0,1023.0,1022.0,1024.0,1023.0,1023.0,1023.0,1023.0,1023.0,1022.0,1022.0,1023.0,1024.0,1023.0,1024.0,1024.0,1023.0,1023.0,1022.0,1023.0,1024.0,1023.0,1023.0,1024.0,1023.0,1023.0,1023.0,1025.0,1024.0,1024.0,1025.0,1023.0,1024.0,1023.0,1024.0,1024.0,1024.0,1025.0,1023.0,1023.0,1023.0,1025.0,1023.0,1024.0,1025.0,1024.0,1024.0,1026.0,1025.0,1027.0,1028.0,1025.0,1024.0,1027.0,1025.0,1028.0,1029.0,1025.0,1024.0,1031.0,1027.0,1030.0,1033.0,1026.0,1026.0,1035.0,1030.0,1032.0,1037.0,1028.0,1027.0,1037.0,1030.0,1030.0,1038.0,1028.0,1030.0,1044.0,1033.0,1032.0,1041.0,1031.0,1031.0,1045.0,1034.0,1031.0,1040.0,1031.0,1031.0,1040.0,1033.0,1030.0,1039.0,1030.0,1033.0,1038.0,1033.0,1030.0,1037.0,1030.0,1023.0,1024.0,1023.0,1023.0,1024.0,1021.0,1035.0,1040.0,1032.0,1031.0,1036.0,1031.0,1029.0,1034.0,1031.0,1030.0,1036.0,1029.0,1026.0,1029.0,1027.0,1026.0,1030.0,2051,2010,1908,	00:30:50.506,0.0517578125,0.05859375,1.01708984375,-0.42724609375,0.30517578125,0.06103515625,3.3013916015625,-2.8839111328125,48.724365234375,456.0,-1590.0,-2555.0,0.910003662109375,0.036590576171875,-0.011016845703125,0.412872314453125,3.3014219072631676,-2.8812247904684356,44.22461910753631,0.9254979941849707,0.03613879744770201,-0.012441997966919326,0.3768191167725187,1,	00:30:50.507,0.05322265625,0.02978515625,1.00634765625,-0.48828125,-1.220703125,-0.54931640625,1.73583984375,-3.065185546875,147.1673583984375,-436.0,-1212.0,-1988.0,-0.282073974609375,-0.029937744140625,-0.006988525390625,-0.958892822265625,1.7381986214681036,-3.0645660217347523,147.6985680725237,-0.2776439427680779,-0.029899609316812206,-0.007126889230016468,-0.9601922004769676,1
1782117357.736324,0.225,1023.0,1023.0,1024.0,1023.0,1023.0,1023.0,1023.0,1024.0,1022.0,1023.0,1024.0,1023.0,1024.0,1024.0,1023.0,1023.0,1023.0,1024.0,1023.0,1024.0,1024.0,1023.0,1024.0,1023.0,1023.0,1024.0,1024.0,1024.0,1024.0,1023.0,1023.0,1023.0,1022.0,1023.0,1024.0,1023.0,1024.0,1025.0,1023.0,1023.0,1023.0,1023.0,1023.0,1024.0,1023.0,1024.0,1024.0,1023.0,1023.0,1022.0,1023.0,1023.0,1022.0,1024.0,1023.0,1023.0,1024.0,1023.0,1024.0,1023.0,1023.0,1023.0,1023.0,1024.0,1023.0,1023.0,1024.0,1023.0,1023.0,1022.0,1022.0,1024.0,1023.0,1024.0,1023.0,1024.0,1024.0,1023.0,1023.0,1022.0,1022.0,1023.0,1023.0,1024.0,1023.0,1024.0,1024.0,1023.0,1023.0,1024.0,1023.0,1023.0,1023.0,1024.0,1023.0,1024.0,1024.0,1023.0,1023.0,1024.0,1023.0,1024.0,1023.0,1024.0,1023.0,1024.0,1024.0,1024.0,1023.0,1023.0,1023.0,1023.0,1022.0,1024.0,1022.0,1023.0,1024.0,1022.0,1023.0,1021.0,1022.0,1022.0,1024.0,1023.0,1024.0,1024.0,1023.0,1023.0,1022.0,1023.0,1024.0,1023.0,1024.0,1024.0,1023.0,1023.0,1024.0,1024.0,1024.0,1024.0,1025.0,1024.0,1023.0,1023.0,1025.0,1024.0,1024.0,1025.0,1024.0,1023.0,1024.0,1024.0,1024.0,1025.0,1025.0,1024.0,1023.0,1026.0,1024.0,1026.0,1028.0,1025.0,1024.0,1028.0,1025.0,1027.0,1029.0,1025.0,1024.0,1030.0,1027.0,1031.0,1032.0,1026.0,1026.0,1036.0,1030.0,1032.0,1037.0,1027.0,1027.0,1037.0,1029.0,1030.0,1038.0,1028.0,1031.0,1045.0,1033.0,1032.0,1041.0,1031.0,1031.0,1045.0,1034.0,1031.0,1041.0,1031.0,1031.0,1039.0,1033.0,1030.0,1039.0,1030.0,1032.0,1038.0,1032.0,1031.0,1037.0,1029.0,1022.0,1024.0,1023.0,1023.0,1025.0,1022.0,1035.0,1040.0,1033.0,1031.0,1037.0,1030.0,1029.0,1034.0,1031.0,1030.0,1036.0,1029.0,1027.0,1029.0,1027.0,1026.0,1030.0,2051,2010,1909,	00:30:50.516,0.05224609375,0.05908203125,1.01708984375,-0.3662109375,0.244140625,0.06103515625,3.3343505859375,-2.9608154296875,48.724365234375,455.0,-1591.0,-2555.0,0.90997314453125,0.037139892578125,-0.01153564453125,0.412872314453125,3.3334736583776508,-2.963017497702679,44.22355003489798,0.9254666992978107,0.03666553105395203,-0.012997922406709227,0.37682632781754616,1,	00:30:50.517,0.05126953125,0.0283203125,1.0048828125,-0.42724609375,-1.220703125,-0.6103515625,1.6754150390625,-3.0047607421875,147.1673583984375,-436.0,-1211.0,-1987.0,-0.282135009765625,-0.029296875,-0.006591796875,-0.958892822265625,1.674789408436936,-3.0069701956669506,147.69523572659057,-0.2776991244135537,-0.02926365975587242,-0.006734648794508434,-0.960198666434844,1
1782117357.746935,0.235,1023.0,1024.0,1024.0,1022.0,1023.0,1023.0,1023.0,1024.0,1022.0,1023.0,1024.0,1023.0,1023.0,1024.0,1023.0,1023.0,1023.0,1024.0,1023.0,1024.0,1024.0,1023.0,1023.0,1023.0,1023.0,1024.0,1023.0,1023.0,1024.0,1024.0,1023.0,1024.0,1023.0,1023.0,1024.0,1023.0,1023.0,1024.0,1023.0,1023.0,1023.0,1023.0,1023.0,1023.0,1023.0,1023.0,1024.0,1023.0,1023.0,1023.0,1023.0,1023.0,1023.0,1024.0,1024.0,1024.0,1024.0,1023.0,1023.0,1023.0,1023.0,1023.0,1023.0,1024.0,1023.0,1024.0,1024.0,1022.0,1023.0,1022.0,1022.0,1023.0,1023.0,1023.0,1023.0,1023.0,1024.0,1023.0,1023.0,1023.0,1022.0,1023.0,1023.0,1024.0,1023.0,1024.0,1024.0,1023.0,1023.0,1023.0,1023.0,1024.0,1023.0,1024.0,1024.0,1024.0,1024.0,1024.0,1023.0,1024.0,1023.0,1023.0,1023.0,1024.0,1023.0,1024.0,1024.0,1023.0,1023.0,1024.0,1023.0,1023.0,1022.0,1024.0,1022.0,1023.0,1024.0,1023.0,1023.0,1021.0,1022.0,1022.0,1024.0,1023.0,1023.0,1024.0,1023.0,1023.0,1022.0,1023.0,1023.0,1023.0,1023.0,1024.0,1023.0,1023.0,1023.0,1024.0,1024.0,1024.0,1025.0,1024.0,1024.0,1023.0,1024.0,1023.0,1024.0,1025.0,1023.0,1024.0,1023.0,1025.0,1023.0,1024.0,1026.0,1024.0,1023.0,1026.0,1024.0,1027.0,1028.0,1024.0,1024.0,1027.0,1025.0,1028.0,1029.0,1025.0,1024.0,1030.0,1026.0,1031.0,1032.0,1027.0,1026.0,1034.0,1029.0,1032.0,1037.0,1027.0,1027.0,1036.0,1029.0,1030.0,1038.0,1028.0,1031.0,1043.0,1033.0,1032.0,1042.0,1031.0,1032.0,1044.0,1033.0,1031.0,1041.0,1031.0,1031.0,1038.0,1032.0,1030.0,1039.0,1031.0,1032.0,1038.0,1032.0,1030.0,1037.0,1030.0,1022.0,1024.0,1022.0,1023.0,1025.0,1022.0,1035.0,1039.0,1032.0,1030.0,1037.0,1031.0,1029.0,1034.0,1031.0,1030.0,1036.0,1030.0,1026.0,1029.0,1027.0,1026.0,1030.0,2051,2010,1909,	00:30:50.527,0.0517578125,0.0595703125,1.01806640625,-0.42724609375,0.244140625,0.06103515625,3.350830078125,-2.8729248046875,48.724365234375,456.0,-1588.0,-2553.0,0.90997314453125,0.0369873046875,-0.0107421875,0.412841796875,3.352635494605408,-2.8720459043275275,44.223104166334494,0.9254894758254852,0.03652218379851731,-0.01219989418624603,0.3768109908278955,1,	00:30:50.528,0.05224609375,0.02880859375,1.005859375,-0.42724609375,-1.220703125,-0.54931640625,1.60400390625,-2.955322265625,147.161865234375,-436.0,-1211.0,-1987.0,-0.282196044921875,-0.0286865234375,-0.00616455078125,-0.95892333984375,1.6066018444183219,-2.953718054317428,147.69271709127648,-0.2777472107426621,-0.028652422151213736,-0.006292038934632502,-0.9602061944580366,1
1782117357.757109,0.245,1023.0,1023.0,1023.0,1023.0,1023.0,1023.0,1023.0,1024.0,1022.0,1023.0,1024.0,1023.0,1023.0,1024.0,1023.0,1023.0,1023.0,1024.0,1023.0,1024.0,1024.0,1023.0,1023.0,1023.0,1022.0,1024.0,1023.0,1024.0,1024.0,1024.0,1023.0,1023.0,1023.0,1023.0,1024.0,1023.0,1023.0,1024.0,1023.0,1023.0,1023.0,1022.0,1023.0,1024.0,1023.0,1023.0,1024.0,1023.0,1023.0,1023.0,1022.0,1023.0,1023.0,1024.0,1023.0,1024.0,1024.0,1024.0,1023.0,1023.0,1022.0,1023.0,1023.0,1024.0,1023.0,1023.0,1024.0,1023.0,1023.0,1022.0,1022.0,1023.0,1023.0,1023.0,1023.0,1023.0,1024.0,1023.0,1023.0,1023.0,1022.0,1023.0,1023.0,1024.0,1023.0,1024.0,1024.0,1023.0,1023.0,1023.0,1023.0,1023.0,1023.0,1024.0,1023.0,1024.0,1024.0,1024.0,1024.0,1023.0,1023.0,1024.0,1023.0,1024.0,1024.0,1024.0,1025.0,1023.0,1023.0,1023.0,1023.0,1023.0,1022.0,1023.0,1022.0,1024.0,1024.0,1023.0,1023.0,1021.0,1022.0,1023.0,1024.0,1022.0,1023.0,1024.0,1023.0,1023.0,1022.0,1023.0,1024.0,1022.0,1024.0,1024.0,1023.0,1023.0,1023.0,1024.0,1024.0,1024.0,1025.0,1023.0,1024.0,1022.0,1024.0,1023.0,1024.0,1025.0,1023.0,1023.0,1023.0,1025.0,1023.0,1024.0,1026.0,1024.0,1023.0,1026.0,1024.0,1027.0,1028.0,1024.0,1024.0,1028.0,1024.0,1028.0,1030.0,1025.0,1025.0,1030.0,1026.0,1030.0,1032.0,1026.0,1026.0,1034.0,1029.0,1032.0,1038.0,1028.0,1027.0,1037.0,1029.0,1030.0,1038.0,1029.0,1031.0,1043.0,1033.0,1032.0,1041.0,1031.0,1031.0,1043.0,1034.0,1031.0,1041.0,1031.0,1031.0,1038.0,1032.0,1030.0,1039.0,1031.0,1032.0,1037.0,1032.0,1029.0,1036.0,1031.0,1023.0,1023.0,1022.0,1023.0,1025.0,1022.0,1035.0,1038.0,1033.0,1031.0,1036.0,1031.0,1030.0,1033.0,1030.0,1030.0,1036.0,1030.0,1026.0,1028.0,1026.0,1026.0,1030.0,2051,2010,1909,	00:30:50.537,0.05224609375,0.05859375,1.017578125,-0.42724609375,0.244140625,0.06103515625,3.284912109375,-2.9388427734375,48.724365234375,455.0,-1590.0,-2554.0,0.90997314453125,0.03668212890625,-0.011505126953125,0.41290283203125,3.2863464378373357,-2.937264114457721,44.2270003694002,0.9254781363997527,0.0362009287035915,-0.012943686736466812,0.37684502488517246,1,	00:30:50.538,0.05126953125,0.029296875,1.00439453125,-0.42724609375,-1.220703125,-0.54931640625,1.6864013671875,-2.92236328125,147.15087890625,-438.0,-1213.0,-1986.0,-0.282257080078125,-0.02862548828125,-0.006866455078125,-0.958892822265625,1.6843313971868892,-2.9239741100500796,147.68268624124508,-0.277817277592504,-0.028592249675940335,-0.007013137081613601,-0.9601827219013225,1
1782117357.768888,0.257,1023.0,1023.0,1024.0,1022.0,1023.0,1023.0,1023.0,1023.0,1022.0,1023.0,1023.0,1023.0,1023.0,1024.0,1023.0,1023.0,1023.0,1024.0,1023.0,1024.0,1024.0,1023.0,1023.0,1023.0,1023.0,1024.0,1023.0,1024.0,1024.0,1023.0,1023.0,1023.0,1023.0,1022.0,1024.0,1023.0,1023.0,1024.0,1024.0,1024.0,1023.0,1023.0,1023.0,1023.0,1023.0,1023.0,1024.0,1023.0,1023.0,1023.0,1023.0,1023.0,1023.0,1024.0,1023.0,1024.0,1024.0,1023.0,1023.0,1023.0,1023.0,1023.0,1023.0,1023.0,1023.0,1023.0,1024.0,1023.0,1023.0,1022.0,1023.0,1023.0,1022.0,1023.0,1023.0,1024.0,1024.0,1023.0,1023.0,1022.0,1022.0,1023.0,1023.0,1024.0,1023.0,1024.0,1024.0,1023.0,1024.0,1024.0,1023.0,1024.0,1023.0,1024.0,1023.0,1024.0,1025.0,1024.0,1023.0,1024.0,1023.0,1023.0,1023.0,1024.0,1023.0,1024.0,1025.0,1023.0,1023.0,1023.0,1022.0,1024.0,1022.0,1023.0,1022.0,1024.0,1024.0,1023.0,1022.0,1021.0,1022.0,1023.0,1023.0,1023.0,1023.0,1024.0,1023.0,1022.0,1022.0,1023.0,1023.0,1023.0,1023.0,1024.0,1023.0,1023.0,1023.0,1024.0,1024.0,1024.0,1025.0,1023.0,1024.0,1024.0,1024.0,1023.0,1024.0,1025.0,1024.0,1024.0,1023.0,1025.0,1024.0,1025.0,1026.0,1024.0,1024.0,1025.0,1024.0,1026.0,1028.0,1025.0,1024.0,1027.0,1025.0,1029.0,1030.0,1025.0,1024.0,1029.0,1027.0,1030.0,1032.0,1026.0,1026.0,1034.0,1029.0,1032.0,1038.0,1027.0,1027.0,1037.0,1030.0,1030.0,1038.0,1028.0,1030.0,1043.0,1033.0,1031.0,1042.0,1031.0,1031.0,1043.0,1033.0,1031.0,1041.0,1031.0,1031.0,1038.0,1032.0,1030.0,1038.0,1031.0,1033.0,1038.0,1032.0,1030.0,1037.0,1030.0,1022.0,1023.0,1022.0,1023.0,1024.0,1022.0,1035.0,1039.0,1033.0,1030.0,1036.0,1031.0,1030.0,1033.0,1030.0,1030.0,1036.0,1030.0,1026.0,1029.0,1026.0,1026.0,1030.0,2051,2010,1909,	00:30:50.547,0.05224609375,0.0576171875,1.01708984375,-0.48828125,0.244140625,0.06103515625,3.1915283203125,-2.933349609375,48.7298583984375,457.0,-1588.0,-2555.0,0.90997314453125,0.035888671875,-0.011810302734375,0.412933349609375,3.189830059856218,-2.932020316900034,44.23243983387344,0.9254919746745048,0.0354048624351732,-0.013217028061974502,0.37687718251207675,1,	00:30:50.548,0.0517578125,0.02978515625,1.005859375,-0.30517578125,-1.220703125,-0.54931640625,1.724853515625,-3.0157470703125,147.1453857421875,-436.0,-1210.0,-1988.0,-0.28228759765625,-0.02947998046875,-0.00701904296875,-0.9588623046875,1.7274598342726386,-3.015227738249993,147.67445455792387,-0.2778582012889702,-0.029461770843912924,-0.007150582357855085,-0.96014357947504,1
1782117357.777404,0.266,1023.0,1023.0,1024.0,1022.0,1023.0,1023.0,1024.0,1024.0,1022.0,1023.0,1024.0,1024.0,1023.0,1024.0,1023.0,1023.0,1023.0,1024.0,1023.0,1024.0,1024.0,1023.0,1023.0,1023.0,1023.0,1023.0,1023.0,1024.0,1024.0,1023.0,1023.0,1023.0,1023.0,1023.0,1024.0,1023.0,1024.0,1024.0,1023.0,1023.0,1023.0,1023.0,1023.0,1024.0,1023.0,1024.0,1024.0,1023.0,1023.0,1023.0,1023.0,1024.0,1023.0,1024.0,1023.0,1023.0,1024.0,1023.0,1023.0,1023.0,1023.0,1023.0,1023.0,1023.0,1022.0,1024.0,1024.0,1023.0,1023.0,1022.0,1023.0,1023.0,1023.0,1024.0,1023.0,1024.0,1024.0,1023.0,1024.0,1022.0,1022.0,1023.0,1023.0,1024.0,1023.0,1024.0,1024.0,1024.0,1023.0,1024.0,1023.0,1023.0,1023.0,1024.0,1023.0,1023.0,1024.0,1023.0,1023.0,1023.0,1022.0,1023.0,1022.0,1024.0,1023.0,1024.0,1024.0,1023.0,1023.0,1023.0,1023.0,1023.0,1022.0,1024.0,1022.0,1024.0,1024.0,1023.0,1022.0,1021.0,1023.0,1022.0,1024.0,1023.0,1023.0,1024.0,1023.0,1023.0,1021.0,1023.0,1024.0,1023.0,1023.0,1024.0,1023.0,1023.0,1023.0,1024.0,1024.0,1024.0,1025.0,1024.0,1023.0,1023.0,1024.0,1023.0,1024.0,1025.0,1024.0,1024.0,1023.0,1024.0,1023.0,1025.0,1025.0,1024.0,1023.0,1025.0,1024.0,1026.0,1027.0,1025.0,1023.0,1027.0,1025.0,1028.0,1029.0,1025.0,1024.0,1030.0,1026.0,1031.0,1032.0,1026.0,1026.0,1034.0,1030.0,1032.0,1038.0,1028.0,1027.0,1036.0,1029.0,1030.0,1038.0,1028.0,1031.0,1042.0,1033.0,1032.0,1042.0,1032.0,1032.0,1042.0,1034.0,1031.0,1041.0,1031.0,1031.0,1038.0,1033.0,1030.0,1039.0,1031.0,1033.0,1037.0,1033.0,1029.0,1037.0,1031.0,1022.0,1024.0,1022.0,1023.0,1024.0,1022.0,1035.0,1039.0,1033.0,1030.0,1036.0,1031.0,1030.0,1033.0,1031.0,1030.0,1035.0,1030.0,1027.0,1029.0,1026.0,1026.0,1029.0,2051,2010,1909,	00:30:50.558,0.05224609375,0.05908203125,1.01806640625,-0.42724609375,0.244140625,0.06103515625,3.2794189453125,-2.9278564453125,48.7298583984375,457.0,-1590.0,-2555.0,0.90997314453125,0.036590576171875,-0.011474609375,0.41290283203125,3.277163467921904,-2.930201262556388,44.228499735863046,0.9254782279513252,0.0361037898313745,-0.012916337284880727,0.37685505725547885,1,	00:30:50.559,0.0517578125,0.02880859375,1.00537109375,-0.30517578125,-1.28173828125,-0.6103515625,1.6534423828125,-2.9718017578125,147.139892578125,-437.0,-1213.0,-1987.0,-0.2823486328125,-0.0289306640625,-0.006500244140625,-0.9588623046875,1.6534080316993542,-2.970391049413062,147.67168187911062,-0.2779086786126445,-0.02890676631579198,-0.0066384246701902,-0.9601495177996165,1
1782117357.787622,0.276,1023.0,1023.0,1024.0,1023.0,1023.0,1022.0,1023.0,1024.0,1022.0,1023.0,1023.0,1023.0,1024.0,1024.0,1023.0,1023.0,1023.0,1024.0,1023.0,1024.0,1024.0,1023.0,1023.0,1024.0,1023.0,1024.0,1024.0,1024.0,1024.0,1023.0,1023.0,1023.0,1023.0,1023.0,1024.0,1023.0,1024.0,1024.0,1023.0,1023.0,1023.0,1022.0,1022.0,1024.0,1024.0,1024.0,1024.0,1023.0,1023.0,1023.0,1023.0,1024.0,1023.0,1024.0,1023.0,1023.0,1024.0,1023.0,1023.0,1023.0,1023.0,1023.0,1023.0,1023.0,1022.0,1023.0,1024.0,1022.0,1023.0,1021.0,1022.0,1023.0,1023.0,1024.0,1023.0,1024.0,1024.0,1022.0,1023.0,1022.0,1022.0,1023.0,1023.0,1024.0,1023.0,1024.0,1024.0,1023.0,1024.0,1023.0,1022.0,1023.0,1023.0,1024.0,1023.0,1024.0,1024.0,1023.0,1023.0,1023.0,1023.0,1023.0,1023.0,1024.0,1023.0,1024.0,1024.0,1024.0,1023.0,1023.0,1022.0,1023.0,1023.0,1024.0,1022.0,1023.0,1024.0,1023.0,1023.0,1021.0,1022.0,1023.0,1024.0,1023.0,1023.0,1024.0,1023.0,1023.0,1022.0,1023.0,1024.0,1023.0,1024.0,1024.0,1023.0,1023.0,1023.0,1024.0,1024.0,1024.0,1025.0,1023.0,1024.0,1023.0,1024.0,1023.0,1024.0,1025.0,1023.0,1024.0,1023.0,1025.0,1024.0,1024.0,1026.0,1024.0,1024.0,1025.0,1024.0,1026.0,1028.0,1025.0,1024.0,1027.0,1025.0,1028.0,1029.0,1025.0,1024.0,1030.0,1026.0,1030.0,1033.0,1026.0,1025.0,1034.0,1030.0,1032.0,1037.0,1027.0,1026.0,1036.0,1030.0,1030.0,1037.0,1028.0,1030.0,1042.0,1033.0,1032.0,1041.0,1031.0,1031.0,1043.0,1034.0,1031.0,1041.0,1031.0,1031.0,1038.0,1032.0,1030.0,1038.0,1030.0,1032.0,1038.0,1032.0,1030.0,1036.0,1030.0,1023.0,1023.0,1023.0,1023.0,1025.0,1022.0,1035.0,1038.0,1032.0,1030.0,1035.0,1031.0,1029.0,1033.0,1031.0,1030.0,1035.0,1029.0,1026.0,1028.0,1027.0,1026.0,1029.0,2051,2010,1909,	00:30:50.568,0.052734375,0.05810546875,1.01708984375,-0.42724609375,0.30517578125,0.06103515625,3.251953125,-3.0157470703125,48.7298583984375,456.0,-1590.0,-2557.0,0.909942626953125,0.036712646484375,-0.01226806640625,0.412933349609375,3.252655602492138,-3.0165488886935243,44.23033536914467,0.9254537387253347,0.03618901932059876,-0.013694140715413914,0.37687956016475604,1,	00:30:50.569,0.05224609375,0.03076171875,1.0068359375,-0.30517578125,-1.28173828125,-0.6103515625,1.7413330078125,-2.9827880859375,147.12890625,-438.0,-1212.0,-1987.0,-0.28240966796875,-0.029266357421875,-0.007232666015625,-0.958831787109375,1.7424437482265513,-2.9818043143652098,147.66043910328668,-0.27797816048915897,-0.02921901747554567,-0.007353823181821381,-0.9601147392855907,1
1782117357.798714,0.287,1023.0,1024.0,1024.0,1023.0,1023.0,1023.0,1023.0,1024.0,1022.0,1023.0,1024.0,1023.0,1024.0,1024.0,1022.0,1023.0,1023.0,1024.0,1023.0,1024.0,1024.0,1023.0,1023.0,1023.0,1023.0,1024.0,1024.0,1023.0,1024.0,1023.0,1023.0,1023.0,1023.0,1023.0,1024.0,1023.0,1024.0,1024.0,1023.0,1023.0,1023.0,1023.0,1023.0,1024.0,1023.0,1024.0,1024.0,1023.0,1023.0,1023.0,1023.0,1023.0,1023.0,1024.0,1023.0,1024.0,1024.0,1023.0,1023.0,1023.0,1023.0,1023.0,1022.0,1024.0,1023.0,1024.0,1024.0,1023.0,1023.0,1022.0,1022.0,1023.0,1023.0,1023.0,1023.0,1024.0,1024.0,1023.0,1023.0,1023.0,1022.0,1023.0,1023.0,1024.0,1024.0,1024.0,1024.0,1023.0,1022.0,1024.0,1023.0,1023.0,1023.0,1024.0,1023.0,1024.0,1024.0,1024.0,1024.0,1023.0,1023.0,1023.0,1023.0,1024.0,1024.0,1024.0,1024.0,1023.0,1023.0,1023.0,1023.0,1023.0,1023.0,1024.0,1022.0,1023.0,1024.0,1023.0,1022.0,1021.0,1022.0,1023.0,1023.0,1023.0,1023.0,1024.0,1023.0,1023.0,1022.0,1023.0,1024.0,1023.0,1024.0,1024.0,1023.0,1023.0,1023.0,1024.0,1024.0,1024.0,1025.0,1024.0,1024.0,1023.0,1024.0,1024.0,1024.0,1025.0,1023.0,1024.0,1023.0,1024.0,1024.0,1025.0,1026.0,1024.0,1023.0,1026.0,1024.0,1026.0,1027.0,1024.0,1024.0,1026.0,1025.0,1028.0,1029.0,1025.0,1024.0,1029.0,1026.0,1030.0,1032.0,1026.0,1026.0,1034.0,1030.0,1032.0,1037.0,1027.0,1026.0,1035.0,1030.0,1030.0,1038.0,1028.0,1031.0,1042.0,1033.0,1032.0,1041.0,1031.0,1032.0,1042.0,1033.0,1030.0,1040.0,1030.0,1031.0,1037.0,1032.0,1030.0,1039.0,1030.0,1033.0,1036.0,1033.0,1030.0,1037.0,1030.0,1024.0,1024.0,1022.0,1023.0,1024.0,1021.0,1035.0,1038.0,1033.0,1031.0,1035.0,1031.0,1030.0,1033.0,1031.0,1030.0,1035.0,1029.0,1027.0,1028.0,1027.0,1026.0,1029.0,2050,2010,1909,	00:30:50.578,0.0517578125,0.05859375,1.017578125,-0.42724609375,0.244140625,0.1220703125,3.2794189453125,-2.9278564453125,48.7298583984375,457.0,-1592.0,-2556.0,0.90997314453125,0.03662109375,-0.011474609375,0.41290283203125,3.281715125875659,-2.928829280385038,44.229958912574865,0.9254724067459908,0.036136218813837856,-0.012889821025234274,0.37686715239664914,1,	00:30:50.579,0.05224609375,0.03125,1.0068359375,-0.42724609375,-1.28173828125,-0.54931640625,1.82373046875,-2.9608154296875,147.117919921875,-437.0,-1211.0,-1986.0,-0.282470703125,-0.029296875,-0.007965087890625,-0.95880126953125,1.824809174769474,-2.963305145262593,147.65007323751712,-0.2780475708087105,-0.02926458593053986,-0.008086280028833376,-0.9600873629274497,1
1782117357.807754,0.296,1024.0,1024.0,1023.0,1023.0,1023.0,1023.0,1023.0,1024.0,1022.0,1023.0,1024.0,1024.0,1024.0,1024.0,1023.0,1023.0,1023.0,1023.0,1023.0,1024.0,1024.0,1023.0,1024.0,1023.0,1023.0,1024.0,1024.0,1024.0,1024.0,1023.0,1023.0,1023.0,1023.0,1022.0,1024.0,1023.0,1024.0,1024.0,1023.0,1024.0,1023.0,1023.0,1023.0,1024.0,1024.0,1024.0,1024.0,1023.0,1023.0,1023.0,1023.0,1024.0,1023.0,1024.0,1023.0,1024.0,1024.0,1023.0,1024.0,1023.0,1022.0,1023.0,1023.0,1023.0,1023.0,1024.0,1024.0,1023.0,1023.0,1022.0,1022.0,1023.0,1023.0,1024.0,1023.0,1023.0,1024.0,1023.0,1023.0,1022.0,1023.0,1023.0,1023.0,1024.0,1024.0,1024.0,1024.0,1023.0,1023.0,1024.0,1023.0,1023.0,1023.0,1024.0,1023.0,1024.0,1024.0,1022.0,1023.0,1024.0,1022.0,1023.0,1022.0,1024.0,1023.0,1024.0,1024.0,1023.0,1023.0,1023.0,1023.0,1023.0,1022.0,1024.0,1023.0,1023.0,1024.0,1023.0,1023.0,1021.0,1022.0,1023.0,1024.0,1023.0,1023.0,1024.0,1022.0,1023.0,1021.0,1023.0,1024.0,1022.0,1024.0,1024.0,1023.0,1023.0,1022.0,1024.0,1024.0,1024.0,1025.0,1023.0,1024.0,1023.0,1024.0,1023.0,1024.0,1025.0,1024.0,1024.0,1023.0,1024.0,1023.0,1025.0,1026.0,1023.0,1024.0,1025.0,1024.0,1027.0,1028.0,1024.0,1024.0,1027.0,1025.0,1028.0,1029.0,1025.0,1024.0,1030.0,1027.0,1031.0,1031.0,1026.0,1026.0,1033.0,1031.0,1033.0,1037.0,1027.0,1027.0,1035.0,1030.0,1030.0,1038.0,1028.0,1031.0,1041.0,1034.0,1032.0,1041.0,1031.0,1032.0,1041.0,1034.0,1031.0,1040.0,1031.0,1031.0,1036.0,1032.0,1030.0,1038.0,1030.0,1033.0,1036.0,1033.0,1030.0,1036.0,1030.0,1023.0,1024.0,1022.0,1024.0,1024.0,1021.0,1034.0,1038.0,1032.0,1031.0,1036.0,1030.0,1030.0,1033.0,1031.0,1030.0,1034.0,1029.0,1026.0,1028.0,1027.0,1026.0,1029.0,2050,2010,1909,	00:30:50.588,0.052734375,0.05810546875,1.01708984375,-0.42724609375,0.244140625,0.06103515625,3.2464599609375,-3.01025390625,48.7298583984375,458.0,-1591.0,-2554.0,0.909942626953125,0.036651611328125,-0.01226806640625,0.412933349609375,3.247176645144849,-3.0129433625913715,44.23227880706497,0.9254501780748113,0.03613318797046824,-0.013682411262224933,0.37689408625029147,1,	00:30:50.589,0.05224609375,0.03076171875,1.00732421875,-0.54931640625,-1.28173828125,-0.54931640625,1.7303466796875,-2.9827880859375,147.117919921875,-437.0,-1212.0,-1985.0,-0.282501220703125,-0.029205322265625,-0.007110595703125,-0.95880126953125,1.7280138123078994,-2.981235484999558,147.6489175728883,-0.2780784782966509,-0.029179975176245997,-0.00723137051775758,-0.9600878065246781,1
1782117357.820748,0.309,1024.0,1024.0,1024.0,1022.0,1023.0,1023.0,1024.0,1024.0,1022.0,1023.0,1024.0,1023.0,1024.0,1024.0,1023.0,1023.0,1022.0,1024.0,1023.0,1024.0,1024.0,1023.0,1023.0,1024.0,1023.0,1024.0,1023.0,1024.0,1024.0,1023.0,1023.0,1024.0,1023.0,1023.0,1024.0,1024.0,1024.0,1024.0,1023.0,1024.0,1023.0,1023.0,1023.0,1024.0,1023.0,1024.0,1024.0,1023.0,1024.0,1023.0,1023.0,1023.0,1023.0,1024.0,1023.0,1024.0,1024.0,1023.0,1024.0,1023.0,1022.0,1023.0,1023.0,1023.0,1023.0,1024.0,1023.0,1023.0,1023.0,1022.0,1022.0,1023.0,1022.0,1023.0,1023.0,1024.0,1024.0,1023.0,1023.0,1022.0,1022.0,1023.0,1023.0,1024.0,1023.0,1024.0,1025.0,1023.0,1023.0,1024.0,1022.0,1023.0,1023.0,1024.0,1023.0,1024.0,1024.0,1024.0,1024.0,1024.0,1023.0,1024.0,1022.0,1024.0,1024.0,1024.0,1024.0,1023.0,1023.0,1022.0,1023.0,1023.0,1022.0,1024.0,1022.0,1024.0,1024.0,1023.0,1023.0,1021.0,1022.0,1023.0,1024.0,1023.0,1023.0,1024.0,1023.0,1022.0,1022.0,1023.0,1023.0,1023.0,1023.0,1024.0,1023.0,1023.0,1023.0,1024.0,1024.0,1024.0,1025.0,1024.0,1024.0,1024.0,1024.0,1023.0,1024.0,1025.0,1024.0,1024.0,1023.0,1025.0,1023.0,1024.0,1026.0,1024.0,1024.0,1026.0,1024.0,1026.0,1027.0,1025.0,1024.0,1027.0,1025.0,1028.0,1029.0,1025.0,1024.0,1030.0,1026.0,1030.0,1032.0,1026.0,1026.0,1034.0,1030.0,1032.0,1037.0,1027.0,1027.0,1035.0,1029.0,1030.0,1037.0,1028.0,1031.0,1042.0,1033.0,1032.0,1041.0,1031.0,1031.0,1041.0,1034.0,1032.0,1040.0,1031.0,1030.0,1037.0,1032.0,1029.0,1038.0,1030.0,1033.0,1037.0,1032.0,1030.0,1036.0,1030.0,1022.0,1024.0,1022.0,1023.0,1024.0,1022.0,1035.0,1039.0,1032.0,1030.0,1035.0,1030.0,1030.0,1033.0,1030.0,1030.0,1035.0,1029.0,1026.0,1028.0,1026.0,1026.0,1029.0,2050,2010,1908,	00:30:50.598,0.052734375,0.05908203125,1.017578125,-0.30517578125,0.244140625,0.06103515625,3.31787109375,-2.9608154296875,48.7298583984375,457.0,-1588.0,-2556.0,0.909942626953125,0.037017822265625,-0.011566162109375,0.41290283203125,3.3200480007842588,-2.9590957865703733,44.22906898557728,0.9254540309760092,0.036544880046060935,-0.01300861954154488,0.37686878898404147,1,	00:30:50.600,0.0517578125,0.03125,1.00634765625,-0.6103515625,-1.28173828125,-0.54931640625,1.7962646484375,-2.9388427734375,147.10693359375,-437.0,-1211.0,-1986.0,-0.2825927734375,-0.029022216796875,-0.00775146484375,-0.958770751953125,1.79527485515739,-2.938379971796609,147.63925782655804,-0.2781505502626754,-0.02898488396142457,-0.007896745189908407,-0.9600675962169118,1
1782117357.828775,0.317,1023.0,1023.0,1023.0,1023.0,1024.0,1022.0,1024.0,1024.0,1022.0,1023.0,1024.0,1023.0,1024.0,1024.0,1023.0,1023.0,1023.0,1024.0,1024.0,1024.0,1024.0,1023.0,1023.0,1023.0,1023.0,1025.0,1023.0,1023.0,1024.0,1023.0,1022.0,1023.0,1022.0,1023.0,1024.0,1023.0,1024.0,1024.0,1023.0,1023.0,1024.0,1023.0,1023.0,1024.0,1023.0,1023.0,1024.0,1023.0,1023.0,1023.0,1022.0,1023.0,1023.0,1025.0,1023.0,1023.0,1024.0,1023.0,1023.0,1023.0,1022.0,1023.0,1023.0,1024.0,1023.0,1023.0,1024.0,1023.0,1023.0,1022.0,1022.0,1023.0,1022.0,1024.0,1023.0,1023.0,1023.0,1023.0,1024.0,1022.0,1022.0,1023.0,1023.0,1024.0,1023.0,1023.0,1024.0,1023.0,1023.0,1023.0,1023.0,1023.0,1023.0,1025.0,1023.0,1024.0,1024.0,1023.0,1023.0,1023.0,1022.0,1023.0,1022.0,1025.0,1023.0,1023.0,1025.0,1023.0,1023.0,1023.0,1022.0,1023.0,1022.0,1024.0,1022.0,1023.0,1024.0,1022.0,1023.0,1021.0,1022.0,1023.0,1024.0,1023.0,1023.0,1024.0,1023.0,1023.0,1022.0,1023.0,1024.0,1023.0,1024.0,1024.0,1023.0,1023.0,1023.0,1025.0,1024.0,1024.0,1025.0,1023.0,1024.0,1023.0,1025.0,1023.0,1024.0,1026.0,1023.0,1024.0,1024.0,1025.0,1023.0,1024.0,1026.0,1024.0,1024.0,1026.0,1024.0,1026.0,1028.0,1025.0,1024.0,1028.0,1025.0,1028.0,1029.0,1025.0,1025.0,1030.0,1026.0,1030.0,1032.0,1026.0,1025.0,1034.0,1029.0,1032.0,1037.0,1028.0,1026.0,1036.0,1029.0,1030.0,1037.0,1028.0,1030.0,1043.0,1033.0,1032.0,1040.0,1031.0,1032.0,1043.0,1033.0,1032.0,1041.0,1031.0,1031.0,1038.0,1031.0,1030.0,1039.0,1030.0,1033.0,1038.0,1032.0,1030.0,1037.0,1030.0,1023.0,1024.0,1023.0,1024.0,1024.0,1022.0,1035.0,1039.0,1032.0,1031.0,1035.0,1030.0,1030.0,1034.0,1031.0,1030.0,1035.0,1029.0,1027.0,1028.0,1027.0,1026.0,1029.0,2050,2010,1907,	00:30:50.609,0.05224609375,0.0576171875,1.01708984375,-0.3662109375,0.244140625,0.1220703125,3.22998046875,-2.9278564453125,48.7353515625,457.0,-1590.0,-2556.0,0.90997314453125,0.03619384765625,-0.01165771484375,0.412933349609375,3.2285728752836684,-2.930552528677152,44.234937700183515,0.9254721752970887,0.035713239206455354,-0.013076967298993205,0.37690159222603226,1,	00:30:50.610,0.05224609375,0.0302734375,1.0068359375,-0.6103515625,-1.28173828125,-0.54931640625,1.702880859375,-2.98828125,147.10693359375,-436.0,-1212.0,-1983.0,-0.282623291015625,-0.029205322265625,-0.00689697265625,-0.958770751953125,1.7049023664550846,-2.9866591288969673,147.63773133006177,-0.27817705943693377,-0.029170006794039756,-0.00702169018447922,-0.9600611075205627,1
1782117357.838926,0.327,1023.0,1023.0,1024.0,1023.0,1024.0,1022.0,1023.0,1024.0,1022.0,1023.0,1024.0,1024.0,1024.0,1024.0,1023.0,1023.0,1023.0,1024.0,1023.0,1023.0,1024.0,1023.0,1023.0,1023.0,1023.0,1024.0,1023.0,1023.0,1024.0,1023.0,1024.0,1023.0,1022.0,1023.0,1024.0,1023.0,1023.0,1024.0,1023.0,1024.0,1023.0,1023.0,1022.0,1024.0,1023.0,1023.0,1024.0,1023.0,1024.0,1023.0,1022.0,1024.0,1023.0,1024.0,1023.0,1024.0,1024.0,1023.0,1023.0,1022.0,1022.0,1023.0,1022.0,1024.0,1023.0,1023.0,1023.0,1023.0,1024.0,1022.0,1023.0,1023.0,1023.0,1024.0,1023.0,1024.0,1024.0,1023.0,1023.0,1022.0,1022.0,1023.0,1023.0,1024.0,1023.0,1024.0,1024.0,1023.0,1023.0,1023.0,1023.0,1023.0,1022.0,1025.0,1024.0,1024.0,1025.0,1023.0,1024.0,1023.0,1023.0,1022.0,1023.0,1024.0,1023.0,1024.0,1024.0,1023.0,1024.0,1023.0,1023.0,1023.0,1023.0,1024.0,1022.0,1023.0,1024.0,1023.0,1023.0,1021.0,1022.0,1022.0,1024.0,1023.0,1023.0,1024.0,1023.0,1024.0,1022.0,1022.0,1024.0,1023.0,1023.0,1024.0,1023.0,1023.0,1023.0,1024.0,1023.0,1024.0,1025.0,1023.0,1024.0,1023.0,1024.0,1024.0,1024.0,1024.0,1024.0,1024.0,1023.0,1025.0,1023.0,1025.0,1026.0,1024.0,1024.0,1026.0,1024.0,1026.0,1027.0,1024.0,1024.0,1028.0,1025.0,1028.0,1028.0,1025.0,1025.0,1030.0,1026.0,1030.0,1032.0,1026.0,1026.0,1034.0,1029.0,1032.0,1038.0,1027.0,1027.0,1036.0,1030.0,1031.0,1038.0,1028.0,1031.0,1042.0,1034.0,1032.0,1041.0,1030.0,1032.0,1042.0,1034.0,1031.0,1041.0,1031.0,1031.0,1038.0,1032.0,1030.0,1038.0,1030.0,1033.0,1037.0,1032.0,1030.0,1036.0,1030.0,1023.0,1023.0,1023.0,1023.0,1024.0,1022.0,1035.0,1038.0,1033.0,1031.0,1035.0,1030.0,1030.0,1033.0,1031.0,1030.0,1034.0,1029.0,1027.0,1028.0,1026.0,1026.0,1029.0,2050,2010,1907,	00:30:50.619,0.05224609375,0.05810546875,1.01708984375,-0.3662109375,0.18310546875,0.1220703125,3.31787109375,-2.9388427734375,48.7298583984375,457.0,-1592.0,-2554.0,0.909942626953125,0.03692626953125,-0.011444091796875,0.412933349609375,3.3157107950417113,-2.940426800597491,44.2316081087838,0.9254527196614848,0.03644896399597271,-0.012871211292109648,0.37688601541401795,1,	00:30:50.620,0.05126953125,0.03076171875,1.00634765625,-0.67138671875,-1.28173828125,-0.54931640625,1.746826171875,-2.92236328125,147.1014404296875,-436.0,-1210.0,-1991.0,-0.282684326171875,-0.028778076171875,-0.007415771484375,-0.958740234375,1.7480365086827525,-2.9221711327293414,147.6292940848853,-0.27824903174571974,-0.02873510406182415,-0.0075379270619702595,-0.960049451738156,1
1782117357.848811,0.337,1023.0,1023.0,1024.0,1023.0,1024.0,1022.0,1024.0,1024.0,1022.0,1023.0,1024.0,1023.0,1024.0,1024.0,1023.0,1023.0,1022.0,1024.0,1023.0,1024.0,1024.0,1023.0,1023.0,1023.0,1023.0,1024.0,1024.0,1024.0,1024.0,1023.0,1024.0,1023.0,1023.0,1023.0,1024.0,1023.0,1024.0,1024.0,1023.0,1023.0,1024.0,1022.0,1023.0,1024.0,1023.0,1023.0,1024.0,1023.0,1023.0,1022.0,1022.0,1023.0,1023.0,1024.0,1023.0,1023.0,1024.0,1023.0,1023.0,1023.0,1023.0,1023.0,1023.0,1024.0,1023.0,1024.0,1024.0,1023.0,1023.0,1022.0,1022.0,1023.0,1023.0,1024.0,1023.0,1023.0,1024.0,1023.0,1023.0,1022.0,1022.0,1024.0,1023.0,1024.0,1023.0,1023.0,1024.0,1023.0,1024.0,1023.0,1022.0,1023.0,1023.0,1024.0,1023.0,1024.0,1024.0,1023.0,1024.0,1023.0,1023.0,1023.0,1023.0,1024.0,1023.0,1024.0,1025.0,1023.0,1024.0,1023.0,1022.0,1023.0,1022.0,1024.0,1022.0,1023.0,1024.0,1022.0,1023.0,1021.0,1022.0,1023.0,1024.0,1023.0,1023.0,1024.0,1023.0,1023.0,1022.0,1023.0,1024.0,1023.0,1024.0,1024.0,1023.0,1023.0,1023.0,1024.0,1024.0,1023.0,1025.0,1023.0,1024.0,1023.0,1025.0,1023.0,1024.0,1025.0,1023.0,1024.0,1023.0,1025.0,1023.0,1024.0,1026.0,1024.0,1024.0,1026.0,1024.0,1026.0,1027.0,1025.0,1024.0,1028.0,1024.0,1027.0,1029.0,1025.0,1024.0,1030.0,1027.0,1030.0,1032.0,1026.0,1026.0,1034.0,1029.0,1031.0,1037.0,1028.0,1027.0,1036.0,1029.0,1030.0,1038.0,1028.0,1031.0,1042.0,1033.0,1031.0,1042.0,1031.0,1032.0,1042.0,1034.0,1031.0,1042.0,1030.0,1031.0,1037.0,1031.0,1030.0,1038.0,1030.0,1032.0,1036.0,1032.0,1031.0,1036.0,1030.0,1023.0,1024.0,1022.0,1023.0,1024.0,1022.0,1034.0,1038.0,1032.0,1031.0,1035.0,1030.0,1030.0,1033.0,1030.0,1030.0,1035.0,1029.0,1026.0,1028.0,1026.0,1026.0,1029.0,2049,2010,1908,	00:30:50.629,0.05224609375,0.05908203125,1.0166015625,-0.30517578125,0.244140625,0.06103515625,3.4002685546875,-2.911376953125,48.7298583984375,456.0,-1589.0,-2554.0,0.909942626953125,0.0374755859375,-0.010894775390625,0.41290283203125,3.3998841285986767,-2.9098218138056717,44.22790564966708,0.9254471676314899,0.037028061811221466,-0.012348247085448417,0.3768606948930522,1,	00:30:50.630,0.05126953125,0.02978515625,1.00634765625,-0.67138671875,-1.3427734375,-0.54931640625,1.64794921875,-2.92236328125,147.095947265625,-436.0,-1213.0,-1984.0,-0.28271484375,-0.028533935546875,-0.006591796875,-0.958770751953125,1.6506831061362628,-2.9234117694612785,147.6280231649644,-0.2782837649233822,-0.028509168487640388,-0.006718959886464645,-0.960052201221504,1
1782117357.858944,0.347,1024.0,1023.0,1024.0,1023.0,1023.0,1023.0,1023.0,1024.0,1022.0,1023.0,1023.0,1024.0,1024.0,1024.0,1023.0,1023.0,1023.0,1024.0,1023.0,1024.0,1024.0,1023.0,1023.0,1023.0,1023.0,1024.0,1023.0,1024.0,1024.0,1023.0,1023.0,1023.0,1022.0,1023.0,1024.0,1024.0,1024.0,1024.0,1023.0,1023.0,1023.0,1023.0,1023.0,1023.0,1023.0,1024.0,1024.0,1023.0,1023.0,1023.0,1022.0,1023.0,1023.0,1024.0,1023.0,1024.0,1024.0,1023.0,1023.0,1023.0,1022.0,1023.0,1023.0,1024.0,1023.0,1023.0,1024.0,1023.0,1024.0,1021.0,1023.0,1024.0,1023.0,1024.0,1023.0,1023.0,1024.0,1023.0,1023.0,1022.0,1022.0,1023.0,1023.0,1024.0,1024.0,1024.0,1024.0,1023.0,1023.0,1024.0,1023.0,1023.0,1023.0,1024.0,1023.0,1024.0,1024.0,1023.0,1023.0,1023.0,1023.0,1023.0,1022.0,1024.0,1023.0,1023.0,1024.0,1024.0,1024.0,1023.0,1023.0,1024.0,1022.0,1023.0,1022.0,1023.0,1024.0,1023.0,1023.0,1021.0,1022.0,1022.0,1024.0,1022.0,1023.0,1024.0,1023.0,1023.0,1022.0,1023.0,1024.0,1023.0,1023.0,1023.0,1022.0,1024.0,1023.0,1024.0,1023.0,1024.0,1025.0,1024.0,1024.0,1024.0,1024.0,1023.0,1024.0,1024.0,1024.0,1024.0,1023.0,1025.0,1024.0,1024.0,1026.0,1024.0,1024.0,1026.0,1024.0,1026.0,1027.0,1025.0,1024.0,1027.0,1025.0,1028.0,1029.0,1025.0,1025.0,1030.0,1026.0,1030.0,1033.0,1026.0,1026.0,1034.0,1029.0,1032.0,1038.0,1028.0,1027.0,1035.0,1029.0,1030.0,1039.0,1029.0,1031.0,1042.0,1034.0,1032.0,1042.0,1031.0,1032.0,1041.0,1034.0,1031.0,1041.0,1031.0,1031.0,1036.0,1032.0,1030.0,1039.0,1030.0,1032.0,1037.0,1032.0,1029.0,1037.0,1029.0,1023.0,1024.0,1023.0,1022.0,1024.0,1021.0,1035.0,1038.0,1032.0,1030.0,1035.0,1030.0,1031.0,1033.0,1031.0,1029.0,1035.0,1029.0,1027.0,1028.0,1026.0,1026.0,1029.0,2049,2010,1908,	00:30:50.639,0.052734375,0.05712890625,1.017578125,-0.30517578125,0.18310546875,0.06103515625,3.306884765625,-2.933349609375,48.7353515625,457.0,-1590.0,-2555.0,0.909942626953125,0.036834716796875,-0.011383056640625,0.412933349609375,3.3084797634830965,-2.9327130568318625,44.233125991547034,0.9254523541845594,0.03636545760635163,-0.012832177398028494,0.37689631047618777,1,	00:30:50.641,0.05224609375,0.03076171875,1.00537109375,-0.67138671875,-1.3427734375,-0.54931640625,1.724853515625,-2.977294921875,147.0904541015625,-436.0,-1214.0,-1985.0,-0.28277587890625,-0.0291748046875,-0.007080078125,-0.958709716796875,1.7265524784224666,-2.9770660617181566,147.61790606412555,-0.2783394553827175,-0.02914345938011604,-0.007221385536942731,-0.9600133634192487,1
1782117357.870712,0.359,1024.0,1024.0,1024.0,1023.0,1023.0,1023.0,1023.0,1024.0,1022.0,1023.0,1024.0,1023.0,1023.0,1024.0,1022.0,1023.0,1023.0,1024.0,1023.0,1023.0,1024.0,1023.0,1024.0,1023.0,1023.0,1024.0,1023.0,1024.0,1024.0,1023.0,1023.0,1023.0,1023.0,1023.0,1024.0,1023.0,1024.0,1024.0,1023.0,1023.0,1024.0,1022.0,1023.0,1024.0,1023.0,1024.0,1024.0,1023.0,1023.0,1022.0,1023.0,1023.0,1023.0,1024.0,1023.0,1024.0,1024.0,1023.0,1024.0,1023.0,1023.0,1023.0,1023.0,1024.0,1023.0,1023.0,1024.0,1023.0,1023.0,1022.0,1022.0,1023.0,1023.0,1024.0,1023.0,1024.0,1024.0,1023.0,1023.0,1022.0,1022.0,1023.0,1023.0,1024.0,1023.0,1024.0,1024.0,1023.0,1024.0,1023.0,1023.0,1023.0,1023.0,1024.0,1023.0,1024.0,1024.0,1023.0,1023.0,1023.0,1022.0,1024.0,1023.0,1025.0,1023.0,1024.0,1024.0,1024.0,1024.0,1023.0,1022.0,1023.0,1023.0,1024.0,1022.0,1023.0,1024.0,1022.0,1023.0,1021.0,1022.0,1023.0,1024.0,1023.0,1023.0,1024.0,1023.0,1023.0,1022.0,1023.0,1024.0,1023.0,1023.0,1024.0,1023.0,1024.0,1024.0,1024.0,1023.0,1024.0,1025.0,1023.0,1024.0,1023.0,1024.0,1023.0,1024.0,1025.0,1024.0,1024.0,1024.0,1025.0,1024.0,1024.0,1026.0,1024.0,1024.0,1026.0,1024.0,1026.0,1028.0,1024.0,1024.0,1027.0,1024.0,1027.0,1029.0,1025.0,1025.0,1030.0,1026.0,1030.0,1033.0,1027.0,1026.0,1034.0,1029.0,1032.0,1037.0,1027.0,1028.0,1035.0,1029.0,1030.0,1038.0,1028.0,1031.0,1042.0,1033.0,1032.0,1042.0,1031.0,1032.0,1042.0,1033.0,1031.0,1042.0,1031.0,1032.0,1037.0,1032.0,1030.0,1039.0,1030.0,1033.0,1037.0,1032.0,1030.0,1037.0,1030.0,1024.0,1023.0,1023.0,1023.0,1025.0,1021.0,1036.0,1038.0,1034.0,1030.0,1036.0,1030.0,1030.0,1032.0,1031.0,1029.0,1034.0,1029.0,1027.0,1028.0,1027.0,1026.0,1028.0,2049,2010,1908,	00:30:50.650,0.05224609375,0.0576171875,1.017578125,-0.30517578125,0.18310546875,0.06103515625,3.2135009765625,-2.933349609375,48.7408447265625,454.0,-1592.0,-2553.0,0.909942626953125,0.036102294921875,-0.011749267578125,0.4129638671875,3.2137708915663366,-2.9333310229167995,44.23853006588541,0.9254641343425369,0.03560321272673975,-0.01314698913555927,0.3769293089769257,1,	00:30:50.651,0.05126953125,0.03125,1.005859375,-0.8544921875,-1.3427734375,-0.48828125,1.77978515625,-2.92236328125,147.0794677734375,-436.0,-1214.0,-1986.0,-0.2828369140625,-0.028839111328125,-0.007659912109375,-0.958709716796875,1.7786268937125447,-2.9212803864921875,147.60950491931277,-0.2784073114029246,-0.028803267023773588,-0.007791408135825305,-0.9599994972526876,1
1782117357.879963,0.368,1023.0,1023.0,1024.0,1023.0,1024.0,1022.0,1023.0,1024.0,1023.0,1023.0,1025.0,1023.0,1023.0,1024.0,1022.0,1023.0,1023.0,1024.0,1023.0,1024.0,1024.0,1022.0,1023.0,1023.0,1023.0,1024.0,1024.0,1023.0,1024.0,1023.0,1023.0,1023.0,1023.0,1023.0,1025.0,1023.0,1024.0,1024.0,1022.0,1023.0,1023.0,1023.0,1023.0,1024.0,1023.0,1023.0,1024.0,1023.0,1023.0,1023.0,1023.0,1023.0,1023.0,1024.0,1023.0,1023.0,1024.0,1023.0,1023.0,1023.0,1022.0,1023.0,1023.0,1024.0,1023.0,1023.0,1024.0,1023.0,1023.0,1022.0,1022.0,1023.0,1023.0,1023.0,1022.0,1023.0,1024.0,1023.0,1023.0,1022.0,1022.0,1023.0,1023.0,1024.0,1024.0,1024.0,1024.0,1023.0,1024.0,1023.0,1023.0,1023.0,1023.0,1024.0,1023.0,1024.0,1024.0,1023.0,1024.0,1023.0,1022.0,1023.0,1023.0,1024.0,1023.0,1024.0,1024.0,1023.0,1024.0,1023.0,1022.0,1023.0,1022.0,1023.0,1023.0,1024.0,1023.0,1023.0,1023.0,1021.0,1022.0,1023.0,1024.0,1023.0,1023.0,1024.0,1023.0,1023.0,1022.0,1023.0,1024.0,1023.0,1023.0,1024.0,1023.0,1023.0,1023.0,1024.0,1023.0,1024.0,1025.0,1024.0,1024.0,1023.0,1024.0,1023.0,1024.0,1025.0,1024.0,1024.0,1023.0,1025.0,1023.0,1024.0,1026.0,1024.0,1024.0,1025.0,1024.0,1026.0,1027.0,1025.0,1024.0,1027.0,1025.0,1027.0,1029.0,1025.0,1025.0,1030.0,1026.0,1030.0,1033.0,1027.0,1026.0,1034.0,1029.0,1030.0,1037.0,1028.0,1027.0,1036.0,1029.0,1030.0,1038.0,1029.0,1031.0,1042.0,1034.0,1032.0,1042.0,1031.0,1032.0,1042.0,1034.0,1031.0,1042.0,1031.0,1032.0,1037.0,1032.0,1030.0,1039.0,1030.0,1033.0,1037.0,1033.0,1029.0,1037.0,1030.0,1023.0,1024.0,1023.0,1023.0,1024.0,1022.0,1036.0,1039.0,1033.0,1030.0,1035.0,1030.0,1031.0,1033.0,1032.0,1030.0,1034.0,1029.0,1027.0,1028.0,1027.0,1026.0,1029.0,2049,2010,1909,	00:30:50.660,0.05126953125,0.05810546875,1.017578125,-0.244140625,0.18310546875,0.06103515625,3.27392578125,-2.867431640625,48.7353515625,456.0,-1592.0,-2554.0,0.90997314453125,0.036346435546875,-0.010986328125,0.4129638671875,3.2765751455853587,-2.8670937143900237,44.235938552853,0.9254727725635701,0.035893043661094116,-0.01240596013203786,0.3769057293454743,1,	00:30:50.661,0.0517578125,0.03173828125,1.005859375,-0.79345703125,-1.28173828125,-0.54931640625,1.8402099609375,-2.9937744140625,147.0684814453125,-436.0,-1212.0,-1986.0,-0.28289794921875,-0.029571533203125,-0.008026123046875,-0.958648681640625,1.842564527829874,-2.9910891967775215,147.59992272408226,-0.27845768461421927,-0.029543966161786162,-0.008154502733568708,-0.9599593616543814,1
1782117357.890106,0.378,1023.0,1023.0,1023.0,1023.0,1023.0,1022.0,1023.0,1024.0,1022.0,1023.0,1024.0,1023.0,1024.0,1024.0,1022.0,1023.0,1023.0,1024.0,1023.0,1023.0,1024.0,1023.0,1023.0,1023.0,1023.0,1025.0,1023.0,1024.0,1024.0,1023.0,1023.0,1023.0,1022.0,1022.0,1024.0,1023.0,1024.0,1025.0,1022.0,1024.0,1023.0,1023.0,1023.0,1024.0,1023.0,1023.0,1024.0,1022.0,1023.0,1022.0,1023.0,1023.0,1023.0,1024.0,1023.0,1024.0,1024.0,1023.0,1024.0,1022.0,1022.0,1023.0,1022.0,1024.0,1022.0,1024.0,1024.0,1023.0,1023.0,1022.0,1022.0,1023.0,1023.0,1024.0,1023.0,1023.0,1024.0,1023.0,1023.0,1022.0,1023.0,1023.0,1023.0,1024.0,1024.0,1024.0,1024.0,1023.0,1023.0,1023.0,1023.0,1023.0,1023.0,1025.0,1023.0,1024.0,1024.0,1023.0,1023.0,1023.0,1022.0,1024.0,1023.0,1024.0,1023.0,1024.0,1024.0,1022.0,1023.0,1022.0,1023.0,1023.0,1022.0,1024.0,1022.0,1023.0,1024.0,1022.0,1022.0,1021.0,1022.0,1023.0,1024.0,1022.0,1023.0,1024.0,1023.0,1023.0,1022.0,1023.0,1024.0,1023.0,1023.0,1024.0,1023.0,1023.0,1023.0,1024.0,1024.0,1024.0,1025.0,1023.0,1024.0,1023.0,1024.0,1024.0,1024.0,1024.0,1023.0,1024.0,1023.0,1025.0,1024.0,1025.0,1025.0,1024.0,1023.0,1025.0,1024.0,1026.0,1027.0,1025.0,1024.0,1027.0,1025.0,1027.0,1029.0,1025.0,1025.0,1030.0,1027.0,1030.0,1033.0,1026.0,1026.0,1034.0,1029.0,1031.0,1038.0,1027.0,1027.0,1036.0,1030.0,1030.0,1039.0,1028.0,1031.0,1042.0,1033.0,1031.0,1043.0,1030.0,1032.0,1043.0,1035.0,1031.0,1043.0,1030.0,1031.0,1037.0,1034.0,1029.0,1039.0,1030.0,1033.0,1036.0,1034.0,1029.0,1036.0,1029.0,1023.0,1024.0,1023.0,1023.0,1024.0,1021.0,1036.0,1039.0,1034.0,1030.0,1036.0,1030.0,1031.0,1033.0,1032.0,1030.0,1035.0,1029.0,1027.0,1028.0,1027.0,1025.0,1029.0,2049,2010,1909,	00:30:50.670,0.05224609375,0.05908203125,1.01708984375,-0.30517578125,0.18310546875,0.0,3.3233642578125,-2.9388427734375,48.7353515625,458.0,-1590.0,-2556.0,0.909942626953125,0.037017822265625,-0.011383056640625,0.412933349609375,3.3259412413340046,-2.9402092259991437,44.23338971459475,0.9254436680060472,0.03653107252726788,-0.012835237629490327,0.3769015186524394,1,	00:30:50.671,0.05126953125,0.0302734375,1.0068359375,-0.79345703125,-1.28173828125,-0.54931640625,1.7578125,-2.955322265625,147.0684814453125,-436.0,-1212.0,-1984.0,-0.282928466796875,-0.029052734375,-0.00738525390625,-0.95867919921875,1.7578586239956955,-2.954187943289391,147.5980067804429,-0.278502569913598,-0.029029187026610156,-0.0075343390669701206,-0.9599671132840539,1
1782117357.902856,0.391,1023.0,1023.0,1024.0,1023.0,1023.0,1022.0,1023.0,1024.0,1022.0,1023.0,1024.0,1023.0,1024.0,1024.0,1023.0,1023.0,1023.0,1024.0,1023.0,1023.0,1024.0,1023.0,1023.0,1023.0,1023.0,1024.0,1024.0,1023.0,1024.0,1023.0,1023.0,1023.0,1023.0,1023.0,1024.0,1023.0,1024.0,1024.0,1023.0,1023.0,1023.0,1023.0,1023.0,1024.0,1023.0,1024.0,1024.0,1023.0,1023.0,1022.0,1022.0,1023.0,1023.0,1024.0,1023.0,1024.0,1024.0,1023.0,1024.0,1023.0,1023.0,1023.0,1023.0,1023.0,1022.0,1023.0,1024.0,1022.0,1023.0,1022.0,1022.0,1023.0,1022.0,1023.0,1023.0,1024.0,1024.0,1023.0,1023.0,1022.0,1023.0,1023.0,1023.0,1024.0,1023.0,1024.0,1024.0,1023.0,1023.0,1023.0,1022.0,1023.0,1023.0,1024.0,1023.0,1024.0,1024.0,1023.0,1023.0,1024.0,1022.0,1023.0,1023.0,1024.0,1024.0,1024.0,1025.0,1023.0,1023.0,1023.0,1023.0,1023.0,1023.0,1023.0,1023.0,1023.0,1024.0,1023.0,1023.0,1022.0,1022.0,1023.0,1024.0,1022.0,1023.0,1024.0,1023.0,1023.0,1022.0,1023.0,1024.0,1023.0,1023.0,1024.0,1023.0,1023.0,1023.0,1024.0,1024.0,1024.0,1025.0,1023.0,1024.0,1023.0,1024.0,1023.0,1024.0,1025.0,1024.0,1024.0,1024.0,1024.0,1023.0,1024.0,1026.0,1024.0,1024.0,1026.0,1024.0,1026.0,1028.0,1025.0,1024.0,1027.0,1025.0,1027.0,1030.0,1025.0,1025.0,1029.0,1027.0,1029.0,1032.0,1026.0,1026.0,1034.0,1030.0,1031.0,1038.0,1027.0,1027.0,1036.0,1030.0,1030.0,1039.0,1029.0,1031.0,1042.0,1033.0,1031.0,1042.0,1030.0,1032.0,1043.0,1034.0,1032.0,1042.0,1031.0,1031.0,1037.0,1032.0,1030.0,1039.0,1029.0,1033.0,1036.0,1033.0,1030.0,1036.0,1029.0,1023.0,1023.0,1023.0,1023.0,1024.0,1022.0,1035.0,1038.0,1034.0,1031.0,1035.0,1031.0,1031.0,1033.0,1031.0,1029.0,1035.0,1029.0,1026.0,1028.0,1027.0,1026.0,1028.0,2049,2010,1909,	00:30:50.681,0.05224609375,0.05859375,1.01708984375,-0.244140625,0.244140625,0.06103515625,3.2354736328125,-2.92236328125,48.7408447265625,457.0,-1591.0,-2555.0,0.909942626953125,0.036224365234375,-0.0115966796875,0.4129638671875,3.2329434545498925,-2.9237624431549833,44.2387713758191,0.9254602333663607,0.03572671822735883,-0.013006526159568488,0.37693207390648603,1,	00:30:50.682,0.05126953125,0.03125,1.0068359375,-0.8544921875,-1.28173828125,-0.54931640625,1.790771484375,-2.8839111328125,147.06298828125,-435.0,-1209.0,-1986.0,-0.28302001953125,-0.028564453125,-0.007843017578125,-0.958648681640625,1.7900232968929375,-2.884569347864362,147.5900521202537,-0.27857447681753444,-0.02852482919416661,-0.007971475552528086,-0.9599578379089344,1
1782117357.910445,0.399,1023.0,1023.0,1023.0,1023.0,1023.0,1023.0,1024.0,1024.0,1023.0,1023.0,1023.0,1023.0,1023.0,1024.0,1023.0,1024.0,1023.0,1024.0,1023.0,1024.0,1024.0,1023.0,1023.0,1023.0,1023.0,1024.0,1023.0,1024.0,1024.0,1023.0,1023.0,1024.0,1023.0,1023.0,1024.0,1024.0,1024.0,1024.0,1023.0,1024.0,1023.0,1023.0,1024.0,1024.0,1023.0,1024.0,1024.0,1023.0,1023.0,1022.0,1022.0,1023.0,1023.0,1024.0,1023.0,1024.0,1024.0,1023.0,1023.0,1023.0,1022.0,1023.0,1023.0,1024.0,1023.0,1023.0,1024.0,1023.0,1023.0,1022.0,1022.0,1023.0,1023.0,1024.0,1023.0,1024.0,1024.0,1023.0,1023.0,1023.0,1022.0,1024.0,1023.0,1024.0,1023.0,1024.0,1024.0,1023.0,1023.0,1023.0,1023.0,1023.0,1023.0,1024.0,1023.0,1024.0,1024.0,1023.0,1023.0,1023.0,1023.0,1023.0,1022.0,1024.0,1023.0,1024.0,1024.0,1023.0,1023.0,1023.0,1023.0,1024.0,1023.0,1024.0,1022.0,1023.0,1024.0,1022.0,1022.0,1021.0,1022.0,1022.0,1024.0,1023.0,1023.0,1024.0,1023.0,1023.0,1022.0,1023.0,1024.0,1023.0,1023.0,1024.0,1023.0,1023.0,1023.0,1025.0,1024.0,1024.0,1024.0,1024.0,1024.0,1023.0,1025.0,1023.0,1024.0,1025.0,1024.0,1023.0,1024.0,1024.0,1024.0,1024.0,1026.0,1024.0,1024.0,1026.0,1024.0,1025.0,1027.0,1025.0,1024.0,1027.0,1025.0,1028.0,1029.0,1025.0,1025.0,1030.0,1025.0,1030.0,1033.0,1026.0,1026.0,1034.0,1029.0,1031.0,1037.0,1028.0,1027.0,1036.0,1029.0,1030.0,1038.0,1029.0,1031.0,1042.0,1033.0,1031.0,1041.0,1031.0,1032.0,1043.0,1034.0,1032.0,1041.0,1031.0,1032.0,1038.0,1032.0,1030.0,1038.0,1030.0,1033.0,1037.0,1033.0,1030.0,1035.0,1030.0,1023.0,1024.0,1023.0,1023.0,1024.0,1021.0,1035.0,1039.0,1033.0,1031.0,1034.0,1032.0,1031.0,1034.0,1030.0,1030.0,1034.0,1030.0,1027.0,1028.0,1026.0,1026.0,1028.0,2049,2010,1908,	00:30:50.691,0.05224609375,0.05859375,1.017578125,-0.30517578125,0.1220703125,0.06103515625,3.31787109375,-2.9388427734375,48.7353515625,455.0,-1591.0,-2553.0,0.909942626953125,0.036956787109375,-0.011383056640625,0.4129638671875,3.3201749723919116,-2.937834555843579,44.23483289811204,0.925441476348092,0.036476883671706956,-0.012834554453724539,0.37691217149919587,1,	00:30:50.692,0.05126953125,0.03173828125,1.00634765625,-0.8544921875,-1.3427734375,-0.54931640625,1.82373046875,-2.977294921875,147.052001953125,-437.0,-1210.0,-1983.0,-0.283050537109375,-0.0294189453125,-0.007904052734375,-0.9586181640625,1.8251293827756854,-2.9784380406832978,147.5819245724533,-0.2786154382374658,-0.02939690440203141,-0.008034658327293618,-0.9599191131824006,1
1782117357.920969,0.409,1023.0,1023.0,1024.0,1023.0,1023.0,1023.0,1023.0,1024.0,1022.0,1023.0,1024.0,1023.0,1023.0,1024.0,1022.0,1023.0,1023.0,1023.0,1023.0,1024.0,1024.0,1023.0,1023.0,1023.0,1022.0,1024.0,1024.0,1024.0,1024.0,1023.0,1023.0,1023.0,1023.0,1023.0,1023.0,1023.0,1023.0,1024.0,1023.0,1023.0,1024.0,1023.0,1023.0,1024.0,1023.0,1024.0,1024.0,1023.0,1023.0,1022.0,1022.0,1023.0,1023.0,1024.0,1023.0,1023.0,1024.0,1023.0,1023.0,1023.0,1022.0,1023.0,1023.0,1023.0,1023.0,1023.0,1024.0,1023.0,1023.0,1022.0,1023.0,1023.0,1023.0,1024.0,1023.0,1024.0,1024.0,1023.0,1023.0,1022.0,1022.0,1023.0,1023.0,1024.0,1024.0,1024.0,1024.0,1022.0,1023.0,1024.0,1023.0,1023.0,1023.0,1024.0,1023.0,1024.0,1024.0,1023.0,1023.0,1023.0,1022.0,1023.0,1023.0,1024.0,1023.0,1024.0,1024.0,1023.0,1023.0,1022.0,1022.0,1024.0,1023.0,1024.0,1023.0,1023.0,1024.0,1023.0,1022.0,1021.0,1022.0,1022.0,1024.0,1023.0,1023.0,1024.0,1023.0,1023.0,1022.0,1023.0,1024.0,1023.0,1023.0,1024.0,1023.0,1023.0,1024.0,1024.0,1024.0,1024.0,1025.0,1024.0,1023.0,1023.0,1024.0,1024.0,1024.0,1025.0,1024.0,1024.0,1024.0,1025.0,1023.0,1024.0,1026.0,1024.0,1024.0,1025.0,1024.0,1026.0,1027.0,1025.0,1024.0,1027.0,1025.0,1028.0,1028.0,1025.0,1025.0,1030.0,1026.0,1029.0,1032.0,1026.0,1026.0,1034.0,1030.0,1031.0,1037.0,1028.0,1027.0,1035.0,1030.0,1030.0,1038.0,1028.0,1031.0,1041.0,1033.0,1032.0,1041.0,1031.0,1032.0,1042.0,1035.0,1031.0,1042.0,1031.0,1032.0,1037.0,1032.0,1030.0,1038.0,1030.0,1033.0,1036.0,1032.0,1029.0,1035.0,1030.0,1023.0,1023.0,1023.0,1023.0,1024.0,1022.0,1035.0,1039.0,1033.0,1030.0,1034.0,1031.0,1031.0,1034.0,1031.0,1030.0,1034.0,1030.0,1026.0,1028.0,1026.0,1026.0,1028.0,2049,2010,1908,	00:30:50.701,0.0517578125,0.05810546875,1.0166015625,-0.30517578125,0.18310546875,0.1220703125,3.2354736328125,-2.889404296875,48.7408447265625,457.0,-1592.0,-2555.0,0.909942626953125,0.0361328125,-0.011322021484375,0.412994384765625,3.2376565417862517,-2.890587924072642,44.2401948103254,0.9254639601203197,0.03565620213452986,-0.012722500125550842,0.3769392945267344,1,	00:30:50.702,0.0517578125,0.03076171875,1.0068359375,-0.8544921875,-1.28173828125,-0.54931640625,1.73583984375,-2.9498291015625,147.052001953125,-434.0,-1212.0,-1985.0,-0.2830810546875,-0.02899169921875,-0.0072021484375,-0.9586181640625,1.7346792960093163,-2.9505571690662173,147.58026750736727,-0.27865772839820585,-0.02894357963435766,-0.0073445265146160205,-0.9599261417068385,1
1782117357.931008,0.419,1024.0,1024.0,1024.0,1023.0,1023.0,1023.0,1023.0,1024.0,1022.0,1023.0,1023.0,1023.0,1024.0,1024.0,1023.0,1022.0,1023.0,1023.0,1024.0,1024.0,1024.0,1023.0,1023.0,1023.0,1023.0,1024.0,1023.0,1024.0,1024.0,1023.0,1023.0,1023.0,1022.0,1023.0,1023.0,1023.0,1024.0,1024.0,1023.0,1023.0,1023.0,1022.0,1023.0,1024.0,1023.0,1024.0,1024.0,1023.0,1022.0,1023.0,1023.0,1023.0,1022.0,1024.0,1023.0,1023.0,1024.0,1024.0,1023.0,1023.0,1022.0,1024.0,1023.0,1024.0,1023.0,1023.0,1024.0,1023.0,1023.0,1022.0,1022.0,1023.0,1022.0,1024.0,1023.0,1023.0,1024.0,1023.0,1023.0,1022.0,1022.0,1023.0,1023.0,1024.0,1024.0,1024.0,1024.0,1023.0,1023.0,1024.0,1022.0,1023.0,1022.0,1024.0,1023.0,1024.0,1024.0,1024.0,1024.0,1023.0,1023.0,1023.0,1023.0,1024.0,1023.0,1024.0,1025.0,1024.0,1024.0,1023.0,1022.0,1024.0,1022.0,1023.0,1022.0,1023.0,1024.0,1023.0,1023.0,1021.0,1022.0,1022.0,1024.0,1023.0,1023.0,1024.0,1023.0,1023.0,1023.0,1022.0,1023.0,1023.0,1024.0,1024.0,1023.0,1023.0,1023.0,1024.0,1023.0,1024.0,1025.0,1023.0,1023.0,1023.0,1024.0,1023.0,1024.0,1025.0,1024.0,1024.0,1023.0,1024.0,1024.0,1024.0,1026.0,1024.0,1024.0,1025.0,1024.0,1026.0,1027.0,1025.0,1024.0,1027.0,1025.0,1028.0,1029.0,1026.0,1025.0,1030.0,1027.0,1030.0,1032.0,1027.0,1026.0,1034.0,1029.0,1031.0,1037.0,1028.0,1028.0,1036.0,1029.0,1030.0,1038.0,1029.0,1032.0,1041.0,1033.0,1031.0,1042.0,1032.0,1032.0,1042.0,1034.0,1030.0,1041.0,1031.0,1031.0,1037.0,1033.0,1029.0,1038.0,1030.0,1033.0,1037.0,1033.0,1029.0,1035.0,1030.0,1022.0,1023.0,1022.0,1023.0,1024.0,1021.0,1035.0,1039.0,1032.0,1030.0,1035.0,1031.0,1031.0,1034.0,1030.0,1029.0,1035.0,1029.0,1027.0,1028.0,1026.0,1026.0,1029.0,2048,2010,1909,	00:30:50.711,0.052734375,0.05859375,1.01708984375,-0.244140625,0.18310546875,0.1220703125,3.2904052734375,-2.9608154296875,48.7408447265625,456.0,-1589.0,-2554.0,0.909912109375,0.03680419921875,-0.01165771484375,0.412994384765625,3.2931306475988853,-2.959561657397016,44.238561262736376,0.9254312274584918,0.0363301031894859,-0.013097900332840001,0.3769424516471729,1,	00:30:50.712,0.05224609375,0.03173828125,1.0068359375,-0.91552734375,-1.3427734375,-0.48828125,1.812744140625,-2.98828125,147.041015625,-436.0,-1212.0,-1986.0,-0.28314208984375,-0.02947998046875,-0.007781982421875,-0.958587646484375,1.8145388107776068,-2.9869522181112176,147.57038036752414,-0.2787131877224535,-0.029443257939687297,-0.007922216131382723,-0.9598902499989533,1
1782117357.940701,0.429,1024.0,1024.0,1024.0,1022.0,1023.0,1023.0,1023.0,1024.0,1022.0,1023.0,1024.0,1024.0,1024.0,1024.0,1023.0,1023.0,1023.0,1024.0,1023.0,1024.0,1024.0,1023.0,1023.0,1023.0,1023.0,1023.0,1023.0,1024.0,1024.0,1023.0,1023.0,1023.0,1023.0,1023.0,1023.0,1023.0,1024.0,1024.0,1023.0,1023.0,1023.0,1022.0,1023.0,1023.0,1023.0,1024.0,1024.0,1023.0,1023.0,1023.0,1022.0,1023.0,1023.0,1024.0,1023.0,1024.0,1024.0,1023.0,1023.0,1023.0,1023.0,1023.0,1023.0,1023.0,1022.0,1023.0,1024.0,1023.0,1023.0,1022.0,1022.0,1024.0,1023.0,1024.0,1023.0,1023.0,1024.0,1023.0,1023.0,1022.0,1022.0,1023.0,1023.0,1024.0,1024.0,1024.0,1024.0,1024.0,1023.0,1023.0,1022.0,1023.0,1023.0,1024.0,1023.0,1024.0,1024.0,1023.0,1023.0,1023.0,1022.0,1023.0,1023.0,1024.0,1024.0,1024.0,1025.0,1023.0,1023.0,1023.0,1023.0,1024.0,1023.0,1024.0,1022.0,1023.0,1024.0,1022.0,1023.0,1021.0,1022.0,1023.0,1024.0,1023.0,1024.0,1024.0,1023.0,1023.0,1022.0,1023.0,1024.0,1023.0,1023.0,1024.0,1023.0,1023.0,1024.0,1024.0,1024.0,1024.0,1025.0,1024.0,1024.0,1023.0,1024.0,1023.0,1024.0,1025.0,1023.0,1024.0,1023.0,1024.0,1024.0,1024.0,1025.0,1024.0,1024.0,1025.0,1024.0,1025.0,1028.0,1025.0,1024.0,1027.0,1026.0,1027.0,1029.0,1025.0,1025.0,1030.0,1027.0,1030.0,1033.0,1026.0,1026.0,1033.0,1030.0,1030.0,1038.0,1028.0,1027.0,1035.0,1030.0,1030.0,1038.0,1028.0,1032.0,1041.0,1034.0,1031.0,1042.0,1031.0,1032.0,1041.0,1034.0,1030.0,1042.0,1031.0,1032.0,1037.0,1033.0,1029.0,1039.0,1030.0,1033.0,1036.0,1032.0,1029.0,1036.0,1030.0,1022.0,1022.0,1022.0,1023.0,1024.0,1022.0,1036.0,1039.0,1033.0,1030.0,1035.0,1031.0,1031.0,1033.0,1031.0,1029.0,1034.0,1030.0,1027.0,1028.0,1026.0,1026.0,1029.0,2048,2010,1908,	00:30:50.721,0.052734375,0.05859375,1.01708984375,-0.18310546875,0.1220703125,0.1220703125,3.36181640625,-3.021240234375,48.7353515625,456.0,-1591.0,-2557.0,0.909881591796875,0.037567138671875,-0.01190185546875,0.412994384765625,3.3594416273458716,-3.019351087722699,44.23629547734919,0.9253991427525419,0.037061295481543924,-0.01336364346192753,0.3769407115230629,1,	00:30:50.723,0.0517578125,0.03173828125,1.0068359375,-1.0986328125,-1.3427734375,-0.48828125,1.7852783203125,-2.911376953125,147.0355224609375,-436.0,-1212.0,-1986.0,-0.283203125,-0.028778076171875,-0.00775146484375,-0.958587646484375,1.786088236813845,-2.910423255135678,147.56597282390823,-0.2787721991475101,-0.028733450825183287,-0.007869451286752685,-0.9598950575571181,1
1782117357.951484,0.440,1024.0,1023.0,1024.0,1023.0,1023.0,1022.0,1023.0,1024.0,1022.0,1023.0,1024.0,1023.0,1024.0,1024.0,1023.0,1023.0,1023.0,1024.0,1023.0,1024.0,1024.0,1023.0,1023.0,1023.0,1023.0,1024.0,1023.0,1024.0,1024.0,1023.0,1023.0,1023.0,1023.0,1023.0,1023.0,1023.0,1024.0,1024.0,1023.0,1023.0,1023.0,1023.0,1023.0,1024.0,1023.0,1024.0,1024.0,1023.0,1023.0,1023.0,1022.0,1024.0,1023.0,1024.0,1024.0,1023.0,1024.0,1023.0,1023.0,1023.0,1022.0,1024.0,1023.0,1024.0,1022.0,1023.0,1024.0,1023.0,1023.0,1022.0,1022.0,1024.0,1023.0,1023.0,1023.0,1023.0,1024.0,1023.0,1023.0,1023.0,1022.0,1023.0,1023.0,1024.0,1024.0,1024.0,1024.0,1023.0,1023.0,1023.0,1023.0,1023.0,1023.0,1024.0,1023.0,1024.0,1024.0,1023.0,1024.0,1023.0,1023.0,1023.0,1023.0,1024.0,1023.0,1024.0,1024.0,1024.0,1023.0,1023.0,1023.0,1023.0,1023.0,1024.0,1023.0,1023.0,1024.0,1023.0,1023.0,1021.0,1023.0,1023.0,1023.0,1023.0,1024.0,1024.0,1023.0,1022.0,1022.0,1023.0,1024.0,1023.0,1024.0,1024.0,1023.0,1023.0,1024.0,1024.0,1023.0,1024.0,1025.0,1023.0,1024.0,1024.0,1024.0,1023.0,1024.0,1025.0,1023.0,1023.0,1023.0,1024.0,1023.0,1024.0,1026.0,1024.0,1024.0,1025.0,1024.0,1026.0,1027.0,1025.0,1024.0,1027.0,1025.0,1027.0,1029.0,1025.0,1025.0,1029.0,1027.0,1030.0,1033.0,1027.0,1026.0,1033.0,1029.0,1031.0,1037.0,1028.0,1028.0,1035.0,1030.0,1029.0,1039.0,1028.0,1032.0,1041.0,1033.0,1032.0,1042.0,1031.0,1032.0,1042.0,1034.0,1031.0,1042.0,1031.0,1032.0,1037.0,1033.0,1029.0,1039.0,1030.0,1033.0,1036.0,1032.0,1030.0,1036.0,1030.0,1023.0,1023.0,1023.0,1023.0,1024.0,1021.0,1035.0,1039.0,1032.0,1030.0,1034.0,1031.0,1031.0,1034.0,1031.0,1029.0,1035.0,1030.0,1026.0,1028.0,1026.0,1026.0,1029.0,2048,2010,1908,	00:30:50.732,0.052734375,0.05908203125,1.01708984375,-0.1220703125,0.18310546875,0.06103515625,3.3123779296875,-2.9388427734375,48.7408447265625,455.0,-1591.0,-2556.0,0.909912109375,0.036865234375,-0.011444091796875,0.412994384765625,3.3099981650466477,-2.9398300100713537,44.23951690873092,0.9254287020958696,0.03640176174007232,-0.012882664860760666,0.37694915575639454,1,	00:30:50.733,0.0517578125,0.0302734375,1.0068359375,-0.9765625,-1.3427734375,-0.54931640625,1.69189453125,-2.96630859375,147.0355224609375,-436.0,-1213.0,-1984.0,-0.283233642578125,-0.02899169921875,-0.0068359375,-0.958587646484375,1.6940869001515577,-2.963791510234405,147.56428968480355,-0.2787993355431526,-0.02895667802774118,-0.006968180499415003,-0.9598874338998411,1
1782117357.961469,0.450,1023.0,1024.0,1024.0,1023.0,1023.0,1022.0,1023.0,1024.0,1023.0,1023.0,1024.0,1023.0,1023.0,1024.0,1023.0,1023.0,1023.0,1024.0,1023.0,1023.0,1024.0,1023.0,1023.0,1022.0,1023.0,1024.0,1024.0,1024.0,1024.0,1023.0,1023.0,1023.0,1023.0,1022.0,1024.0,1023.0,1024.0,1024.0,1023.0,1023.0,1023.0,1023.0,1023.0,1024.0,1023.0,1024.0,1024.0,1023.0,1023.0,1022.0,1023.0,1023.0,1023.0,1024.0,1023.0,1024.0,1024.0,1023.0,1023.0,1023.0,1022.0,1024.0,1023.0,1023.0,1022.0,1023.0,1024.0,1023.0,1023.0,1022.0,1023.0,1023.0,1023.0,1023.0,1023.0,1023.0,1024.0,1022.0,1023.0,1022.0,1022.0,1023.0,1023.0,1024.0,1023.0,1024.0,1024.0,1023.0,1023.0,1023.0,1022.0,1023.0,1023.0,1024.0,1024.0,1024.0,1024.0,1024.0,1023.0,1023.0,1023.0,1023.0,1023.0,1024.0,1024.0,1023.0,1024.0,1023.0,1023.0,1023.0,1023.0,1023.0,1022.0,1023.0,1022.0,1024.0,1023.0,1023.0,1023.0,1021.0,1022.0,1023.0,1024.0,1023.0,1023.0,1024.0,1022.0,1023.0,1022.0,1023.0,1024.0,1023.0,1023.0,1024.0,1023.0,1023.0,1023.0,1024.0,1024.0,1024.0,1025.0,1023.0,1023.0,1023.0,1024.0,1023.0,1024.0,1025.0,1023.0,1024.0,1023.0,1025.0,1023.0,1025.0,1026.0,1024.0,1024.0,1025.0,1024.0,1026.0,1028.0,1024.0,1024.0,1027.0,1025.0,1027.0,1029.0,1026.0,1025.0,1029.0,1027.0,1029.0,1032.0,1027.0,1027.0,1034.0,1029.0,1031.0,1037.0,1028.0,1027.0,1035.0,1030.0,1029.0,1038.0,1029.0,1032.0,1041.0,1033.0,1031.0,1042.0,1032.0,1032.0,1041.0,1034.0,1031.0,1042.0,1031.0,1032.0,1036.0,1032.0,1029.0,1039.0,1030.0,1034.0,1037.0,1032.0,1030.0,1036.0,1030.0,1023.0,1023.0,1022.0,1023.0,1024.0,1022.0,1035.0,1039.0,1033.0,1030.0,1035.0,1031.0,1030.0,1033.0,1031.0,1030.0,1034.0,1031.0,1027.0,1028.0,1027.0,1026.0,1029.0,2048,2010,1909,	00:30:50.742,0.05224609375,0.05810546875,1.01708984375,-0.244140625,0.18310546875,0.06103515625,3.218994140625,-2.9278564453125,48.746337890625,458.0,-1590.0,-2557.0,0.909942626953125,0.036102294921875,-0.011688232421875,0.41302490234375,3.216352836989761,-2.9289590168476227,44.24489977517034,0.9254436851015095,0.03561046309590981,-0.013101187030127054,0.37698042326125414,1,	00:30:50.743,0.05126953125,0.03076171875,1.0078125,-1.0986328125,-1.28173828125,-0.48828125,1.746826171875,-2.911376953125,147.0245361328125,-436.0,-1212.0,-1987.0,-0.283294677734375,-0.0286865234375,-0.007415771484375,-0.958587646484375,1.7490277956098184,-2.912403672362975,147.5556528978291,-0.2788675471753728,-0.028660556458927663,-0.007551596024005447,-0.9598720941007431,1
1782117357.973359,0.462,1024.0,1023.0,1024.0,1023.0,1023.0,1023.0,1023.0,1024.0,1022.0,1023.0,1024.0,1023.0,1024.0,1024.0,1023.0,1023.0,1023.0,1024.0,1023.0,1023.0,1024.0,1023.0,1024.0,1023.0,1023.0,1024.0,1024.0,1023.0,1024.0,1023.0,1023.0,1023.0,1023.0,1023.0,1024.0,1023.0,1024.0,1024.0,1023.0,1023.0,1023.0,1023.0,1023.0,1024.0,1023.0,1024.0,1023.0,1023.0,1023.0,1022.0,1022.0,1024.0,1023.0,1024.0,1022.0,1023.0,1024.0,1023.0,1023.0,1023.0,1023.0,1023.0,1022.0,1023.0,1023.0,1024.0,1024.0,1023.0,1022.0,1022.0,1023.0,1023.0,1022.0,1023.0,1023.0,1023.0,1023.0,1023.0,1023.0,1022.0,1022.0,1023.0,1023.0,1024.0,1024.0,1024.0,1025.0,1023.0,1023.0,1023.0,1023.0,1024.0,1023.0,1024.0,1024.0,1024.0,1025.0,1023.0,1023.0,1023.0,1023.0,1023.0,1023.0,1024.0,1023.0,1024.0,1024.0,1023.0,1023.0,1022.0,1022.0,1024.0,1023.0,1024.0,1022.0,1023.0,1024.0,1023.0,1022.0,1022.0,1022.0,1022.0,1023.0,1023.0,1023.0,1024.0,1023.0,1023.0,1022.0,1022.0,1024.0,1023.0,1023.0,1024.0,1023.0,1023.0,1023.0,1024.0,1024.0,1024.0,1025.0,1024.0,1024.0,1023.0,1024.0,1023.0,1024.0,1025.0,1024.0,1024.0,1023.0,1024.0,1023.0,1024.0,1026.0,1024.0,1024.0,1025.0,1024.0,1026.0,1028.0,1025.0,1024.0,1027.0,1025.0,1028.0,1029.0,1026.0,1025.0,1030.0,1027.0,1030.0,1033.0,1027.0,1027.0,1034.0,1030.0,1031.0,1038.0,1027.0,1028.0,1035.0,1029.0,1030.0,1039.0,1029.0,1032.0,1041.0,1033.0,1031.0,1042.0,1031.0,1032.0,1041.0,1034.0,1030.0,1042.0,1032.0,1032.0,1036.0,1032.0,1030.0,1038.0,1031.0,1034.0,1036.0,1032.0,1030.0,1036.0,1030.0,1023.0,1024.0,1022.0,1023.0,1024.0,1022.0,1036.0,1039.0,1032.0,1030.0,1035.0,1031.0,1030.0,1034.0,1031.0,1030.0,1035.0,1030.0,1027.0,1028.0,1026.0,1025.0,1028.0,2048,2010,1908,	00:30:50.752,0.052734375,0.0576171875,1.017578125,-0.1220703125,0.1220703125,0.1220703125,3.2684326171875,-2.999267578125,48.7408447265625,456.0,-1591.0,-2556.0,0.909881591796875,0.036773681640625,-0.0120849609375,0.41302490234375,3.2695065374834047,-3.001299898042686,44.24337337077725,0.9254101845926616,0.03627667865269679,-0.01351136508348364,0.3769846626212876,1,	00:30:50.753,0.05224609375,0.03076171875,1.00634765625,-1.15966796875,-1.28173828125,-0.48828125,1.7413330078125,-3.0157470703125,147.01904296875,-436.0,-1215.0,-1985.0,-0.2833251953125,-0.029541015625,-0.007080078125,-0.958526611328125,1.740578488292645,-3.0165680022049846,147.55023595996457,-0.2788952127127681,-0.029512657206602694,-0.00722525473924378,-0.9598407467306534,1
1782117357.982909,0.471,1023.0,1023.0,1023.0,1023.0,1023.0,1023.0,1023.0,1024.0,1022.0,1023.0,1024.0,1023.0,1024.0,1024.0,1023.0,1024.0,1023.0,1024.0,1023.0,1024.0,1024.0,1023.0,1023.0,1023.0,1023.0,1024.0,1023.0,1024.0,1024.0,1023.0,1023.0,1023.0,1023.0,1023.0,1024.0,1023.0,1023.0,1024.0,1023.0,1023.0,1023.0,1023.0,1023.0,1024.0,1023.0,1023.0,1023.0,1023.0,1023.0,1022.0,1022.0,1023.0,1023.0,1024.0,1023.0,1023.0,1024.0,1023.0,1023.0,1023.0,1023.0,1023.0,1023.0,1024.0,1022.0,1023.0,1024.0,1023.0,1023.0,1022.0,1022.0,1024.0,1022.0,1024.0,1023.0,1024.0,1024.0,1023.0,1023.0,1022.0,1023.0,1024.0,1023.0,1024.0,1024.0,1024.0,1024.0,1023.0,1023.0,1023.0,1023.0,1023.0,1023.0,1024.0,1023.0,1023.0,1024.0,1023.0,1023.0,1023.0,1023.0,1024.0,1023.0,1024.0,1023.0,1024.0,1024.0,1023.0,1023.0,1023.0,1023.0,1023.0,1022.0,1023.0,1022.0,1024.0,1023.0,1023.0,1022.0,1022.0,1022.0,1023.0,1024.0,1023.0,1023.0,1024.0,1022.0,1023.0,1022.0,1023.0,1023.0,1022.0,1023.0,1024.0,1023.0,1023.0,1024.0,1025.0,1023.0,1024.0,1025.0,1024.0,1023.0,1023.0,1024.0,1023.0,1024.0,1025.0,1024.0,1023.0,1023.0,1025.0,1023.0,1024.0,1026.0,1024.0,1023.0,1026.0,1024.0,1026.0,1027.0,1025.0,1024.0,1028.0,1025.0,1028.0,1029.0,1025.0,1025.0,1031.0,1027.0,1030.0,1033.0,1026.0,1027.0,1035.0,1029.0,1031.0,1037.0,1027.0,1028.0,1035.0,1030.0,1029.0,1038.0,1028.0,1032.0,1041.0,1033.0,1031.0,1042.0,1031.0,1032.0,1040.0,1034.0,1031.0,1041.0,1031.0,1031.0,1035.0,1032.0,1030.0,1038.0,1030.0,1034.0,1036.0,1033.0,1030.0,1037.0,1030.0,1023.0,1023.0,1022.0,1023.0,1024.0,1022.0,1035.0,1039.0,1033.0,1030.0,1036.0,1031.0,1030.0,1034.0,1031.0,1029.0,1036.0,1030.0,1027.0,1028.0,1026.0,1026.0,1029.0,2047,2010,1908,	00:30:50.762,0.05126953125,0.05810546875,1.01806640625,-0.1220703125,0.18310546875,0.06103515625,3.2684326171875,-2.9058837890625,48.746337890625,455.0,-1591.0,-2556.0,0.909912109375,0.036407470703125,-0.0113525390625,0.41302490234375,3.2660678904739395,-2.9079867999375204,44.244199539757,0.9254367314718257,0.03594313291840246,-0.012768384306109899,0.3769773409648989,1,	00:30:50.764,0.0517578125,0.03076171875,1.005859375,-1.28173828125,-1.3427734375,-0.42724609375,1.7413330078125,-2.9388427734375,147.0135498046875,-435.0,-1213.0,-1988.0,-0.28338623046875,-0.028900146484375,-0.007293701171875,-0.958526611328125,1.7419297745960387,-2.9393483879922586,147.54481918139822,-0.27895496085718197,-0.028869634802531387,-0.007423663198180377,-0.9598414260825882,1
1782117357.992514,0.481,1024.0,1023.0,1024.0,1023.0,1023.0,1023.0,1023.0,1024.0,1023.0,1023.0,1024.0,1024.0,1023.0,1024.0,1023.0,1023.0,1023.0,1024.0,1023.0,1024.0,1024.0,1023.0,1023.0,1023.0,1023.0,1024.0,1023.0,1023.0,1024.0,1022.0,1024.0,1023.0,1023.0,1023.0,1023.0,1023.0,1024.0,1024.0,1023.0,1023.0,1024.0,1022.0,1023.0,1024.0,1023.0,1024.0,1024.0,1024.0,1024.0,1022.0,1023.0,1023.0,1024.0,1024.0,1023.0,1024.0,1024.0,1023.0,1023.0,1023.0,1023.0,1023.0,1023.0,1024.0,1023.0,1023.0,1024.0,1023.0,1023.0,1022.0,1023.0,1023.0,1023.0,1023.0,1023.0,1023.0,1024.0,1023.0,1023.0,1022.0,1023.0,1023.0,1023.0,1024.0,1023.0,1023.0,1024.0,1023.0,1023.0,1023.0,1023.0,1024.0,1023.0,1024.0,1023.0,1023.0,1024.0,1023.0,1023.0,1024.0,1023.0,1024.0,1023.0,1024.0,1023.0,1024.0,1025.0,1023.0,1023.0,1023.0,1023.0,1023.0,1022.0,1023.0,1022.0,1023.0,1024.0,1023.0,1023.0,1021.0,1022.0,1022.0,1024.0,1023.0,1023.0,1024.0,1023.0,1023.0,1022.0,1023.0,1023.0,1023.0,1023.0,1024.0,1023.0,1023.0,1023.0,1024.0,1024.0,1024.0,1025.0,1024.0,1023.0,1023.0,1024.0,1023.0,1024.0,1025.0,1023.0,1024.0,1023.0,1024.0,1023.0,1024.0,1026.0,1024.0,1024.0,1025.0,1024.0,1026.0,1028.0,1024.0,1024.0,1027.0,1025.0,1027.0,1029.0,1025.0,1025.0,1030.0,1027.0,1030.0,1033.0,1026.0,1027.0,1034.0,1029.0,1031.0,1038.0,1028.0,1027.0,1035.0,1030.0,1030.0,1038.0,1029.0,1031.0,1041.0,1033.0,1032.0,1042.0,1031.0,1033.0,1041.0,1034.0,1032.0,1041.0,1031.0,1031.0,1036.0,1032.0,1029.0,1038.0,1030.0,1033.0,1036.0,1032.0,1030.0,1036.0,1030.0,1023.0,1023.0,1022.0,1023.0,1024.0,1022.0,1036.0,1040.0,1032.0,1030.0,1036.0,1031.0,1031.0,1034.0,1031.0,1029.0,1034.0,1030.0,1027.0,1029.0,1027.0,1026.0,1028.0,2047,2010,1909,	00:30:50.773,0.052734375,0.0576171875,1.017578125,-0.1220703125,0.1220703125,0.1220703125,3.2244873046875,-2.98828125,48.746337890625,455.0,-1591.0,-2556.0,0.909912109375,0.036376953125,-0.01214599609375,0.413055419921875,3.2257777075864182,-2.9897982593878787,44.24749693366707,0.9254138874172256,0.035886321115789994,-0.013560991090581193,0.37701115162917126,1,	00:30:50.774,0.05126953125,0.03125,1.00634765625,-1.28173828125,-1.28173828125,-0.48828125,1.8072509765625,-2.900390625,147.008056640625,-436.0,-1210.0,-1985.0,-0.283447265625,-0.02874755859375,-0.007904052734375,-0.958526611328125,1.8059103857045515,-2.901387441762234,147.53563898279157,-0.2790230624454218,-0.02870813224954185,-0.008049937564122834,-0.9598214272829789,1
1782117358.004658,0.493,1024.0,1023.0,1024.0,1023.0,1023.0,1023.0,1023.0,1024.0,1022.0,1023.0,1024.0,1023.0,1024.0,1024.0,1023.0,1023.0,1023.0,1024.0,1023.0,1024.0,1024.0,1023.0,1024.0,1023.0,1023.0,1024.0,1023.0,1024.0,1024.0,1023.0,1023.0,1023.0,1023.0,1023.0,1024.0,1023.0,1024.0,1024.0,1023.0,1023.0,1023.0,1022.0,1023.0,1024.0,1023.0,1023.0,1024.0,1023.0,1023.0,1022.0,1023.0,1023.0,1023.0,1024.0,1023.0,1024.0,1024.0,1023.0,1023.0,1023.0,1022.0,1024.0,1023.0,1024.0,1023.0,1023.0,1023.0,1023.0,1023.0,1022.0,1023.0,1024.0,1023.0,1024.0,1023.0,1023.0,1023.0,1023.0,1023.0,1022.0,1023.0,1023.0,1023.0,1024.0,1023.0,1024.0,1024.0,1023.0,1023.0,1024.0,1023.0,1023.0,1023.0,1025.0,1023.0,1024.0,1024.0,1024.0,1023.0,1023.0,1023.0,1023.0,1023.0,1024.0,1023.0,1024.0,1025.0,1023.0,1023.0,1023.0,1023.0,1023.0,1023.0,1024.0,1022.0,1023.0,1024.0,1023.0,1023.0,1021.0,1022.0,1023.0,1024.0,1023.0,1023.0,1024.0,1023.0,1023.0,1022.0,1023.0,1024.0,1022.0,1023.0,1024.0,1024.0,1023.0,1023.0,1024.0,1023.0,1024.0,1025.0,1024.0,1024.0,1023.0,1024.0,1024.0,1024.0,1025.0,1023.0,1023.0,1023.0,1025.0,1024.0,1024.0,1026.0,1024.0,1024.0,1025.0,1024.0,1026.0,1027.0,1025.0,1024.0,1027.0,1025.0,1028.0,1029.0,1026.0,1025.0,1030.0,1027.0,1030.0,1032.0,1027.0,1026.0,1034.0,1029.0,1030.0,1037.0,1028.0,1027.0,1035.0,1030.0,1030.0,1038.0,1028.0,1032.0,1042.0,1033.0,1031.0,1041.0,1032.0,1033.0,1042.0,1034.0,1031.0,1041.0,1030.0,1032.0,1037.0,1032.0,1030.0,1038.0,1030.0,1033.0,1037.0,1032.0,1030.0,1036.0,1031.0,1023.0,1024.0,1022.0,1023.0,1024.0,1022.0,1036.0,1040.0,1033.0,1031.0,1036.0,1030.0,1031.0,1034.0,1031.0,1030.0,1035.0,1030.0,1027.0,1028.0,1027.0,1026.0,1029.0,2047,2010,1909,	00:30:50.783,0.0517578125,0.0576171875,1.01806640625,-0.1220703125,0.18310546875,0.06103515625,3.240966796875,-2.8948974609375,48.746337890625,456.0,-1591.0,-2554.0,0.909912109375,0.036163330078125,-0.0113525390625,0.413055419921875,3.238944492143145,-2.8975509778921094,44.2474685655028,0.9254375635716967,0.03569023874117773,-0.012772265654198143,0.37699919365847184,1,	00:30:50.784,0.05224609375,0.03076171875,1.00537109375,-1.28173828125,-1.220703125,-0.42724609375,1.7413330078125,-2.98828125,147.0025634765625,-435.0,-1213.0,-1987.0,-0.283477783203125,-0.029296875,-0.00714111328125,-0.95849609375,1.7387559327249407,-2.9871375183793196,147.5337905878901,-0.279039049331808,-0.029262807138682654,-0.007277614498497853,-0.9598061957466082,1
