Unix_Time_s,IMU1_RefTime,ax_g,ay_g,az_g,gx_dps,gy_dps,gz_dps,mx_uT,my_uT,mz_uT,temp_C,qw,qx,qy,qz
1782115675.461197,178450,-0.188965,0.255859,0.941895,-0.121951,-0.060976,-0.121951,-5.937500,-2.250000,34.331249,0.0,1.000000,0.000000,0.000000,0.000000
1782115675.471197,178460,-0.192383,0.256836,0.949219,0.670732,-0.182927,0.060976,-5.937500,-2.250000,34.331249,0.0,1.000000,0.000000,0.000000,0.000000
1782115675.481197,178470,-0.190918,0.256836,0.951660,1.219512,-0.609756,-0.121951,-6.043750,-2.300000,34.312500,0.0,1.000000,0.000000,0.000000,0.000000
1782115675.491197,178480,-0.189453,0.255859,0.947754,0.914634,-0.548781,-0.121951,-6.043750,-2.300000,34.312500,0.0,1.000000,0.000000,0.000000,0.000000
1782115675.501197,178490,-0.187012,0.255859,0.942871,0.121951,-0.365854,0.060976,-6.131250,-2.343750,34.318752,0.0,1.000000,0.000000,0.000000,0.000000
1782115675.511197,178500,-0.184570,0.254395,0.943359,-0.365854,-0.426829,0.182927,-6.131250,-2.343750,34.318752,0.0,1.000000,0.000000,0.000000,0.000000
1782115675.523197,178512,-0.181641,0.253418,0.943359,-0.365854,-0.548781,0.304878,-5.606250,-1.956250,34.375000,0.0,1.000000,0.000000,0.000000,0.000000
1782115675.531197,178520,-0.183594,0.256348,0.944336,-0.060976,-0.060976,0.731707,-5.606250,-1.956250,34.375000,0.0,1.000000,0.000000,0.000000,0.000000
1782115675.541197,178530,-0.186523,0.252930,0.949219,0.426829,0.000000,1.036585,-6.012500,-2.350000,34.299999,0.0,1.000000,0.000000,0.000000,0.000000
1782115675.552197,178541,-0.187500,0.250000,0.947754,0.670732,-0.182927,1.280488,-6.012500,-2.350000,34.299999,0.0,1.000000,0.000000,0.000000,0.000000
1782115675.561197,178550,-0.184570,0.249512,0.949707,0.548781,-0.426829,1.158537,-6.093750,-2.412500,34.331249,0.0,1.000000,0.000000,0.000000,0.000000
1782115675.571197,178560,-0.184570,0.249512,0.949707,0.548781,-0.426829,1.158537,-6.093750,-2.412500,34.331249,0.0,1.000000,0.000000,0.000000,0.000000
1782115675.581197,178570,-0.186035,0.246582,0.945801,-0.304878,-0.365854,1.158537,-6.075000,-2.387500,34.331249,0.0,1.000000,0.000000,0.000000,0.000000
1782115675.591197,178580,-0.183105,0.249512,0.943359,-0.670732,-0.182927,1.219512,-6.075000,-2.387500,34.331249,0.0,1.000000,0.000000,0.000000,0.000000
1782115675.601197,178590,-0.184570,0.250977,0.943359,-0.304878,0.487805,1.524390,-6.056250,-2.337500,34.299999,0.0,1.000000,0.000000,0.000000,0.000000
1782115675.611197,178600,-0.189941,0.249512,0.950684,0.609756,0.243902,1.646341,-6.056250,-2.337500,34.299999,0.0,1.000000,0.000000,0.000000,0.000000
1782115675.621197,178610,-0.188477,0.247070,0.953125,1.036585,-0.060976,1.585366,-6.131250,-2.425000,34.281250,0.0,1.000000,0.000000,0.000000,0.000000
1782115675.631197,178620,-0.187012,0.246094,0.949219,0.853659,-0.243902,1.463415,-6.131250,-2.425000,34.281250,0.0,1.000000,0.000000,0.000000,0.000000
1782115675.641197,178630,-0.185547,0.243164,0.946777,0.060976,-0.121951,1.463415,-6.131250,-2.400000,34.268749,0.0,1.000000,0.000000,0.000000,0.000000
1782115675.651197,178640,-0.183594,0.243164,0.942871,-0.548781,0.000000,1.402439,-6.131250,-2.400000,34.268749,0.0,1.000000,0.000000,0.000000,0.000000
1782115675.661197,178650,-0.185547,0.248047,0.946289,-0.243902,0.182927,1.646341,-6.143750,-2.362500,34.343750,0.0,1.000000,0.000000,0.000000,0.000000
1782115675.671197,178660,-0.189453,0.247070,0.950195,0.304878,0.365854,1.768293,-6.068750,-2.281250,34.262501,0.0,1.000000,0.000000,0.000000,0.000000
1782115675.681197,178670,-0.190918,0.248047,0.951172,0.609756,0.121951,1.707317,-6.068750,-2.281250,34.262501,0.0,1.000000,0.000000,0.000000,0.000000
1782115675.691197,178680,-0.189941,0.243652,0.950684,0.670732,-0.121951,1.524390,-6.068750,-2.362500,34.312500,0.0,1.000000,0.000000,0.000000,0.000000
1782115675.702197,178691,-0.188965,0.241699,0.947754,0.487805,-0.304878,1.341463,-6.068750,-2.362500,34.312500,0.0,1.000000,0.000000,0.000000,0.000000
1782115675.711197,178700,-0.187500,0.239746,0.943359,-0.243902,-0.243902,1.158537,-6.075000,-2.268750,34.275002,0.0,1.000000,0.000000,0.000000,0.000000
1782115675.721197,178710,-0.187012,0.242188,0.944824,-0.304878,0.000000,1.036585,-6.075000,-2.268750,34.275002,0.0,1.000000,0.000000,0.000000,0.000000
1782115675.731197,178720,-0.187500,0.245117,0.949707,0.304878,0.182927,1.219512,-6.075000,-2.331250,34.275002,0.0,1.000000,0.000000,0.000000,0.000000
1782115675.741197,178730,-0.190918,0.243652,0.956055,1.341463,0.000000,1.280488,-6.075000,-2.331250,34.275002,0.0,1.000000,0.000000,0.000000,0.000000
1782115675.751197,178740,-0.189453,0.240723,0.953613,1.402439,-0.548781,0.853659,-6.050000,-2.262500,34.268749,0.0,1.000000,0.000000,0.000000,0.000000
1782115675.761197,178750,-0.185547,0.240234,0.947754,0.975610,-0.304878,0.609756,-6.050000,-2.262500,34.268749,0.0,1.000000,0.000000,0.000000,0.000000
1782115675.772197,178761,-0.183105,0.241699,0.943359,0.304878,-0.121951,0.487805,-6.093750,-2.306250,34.256252,0.0,1.000000,0.000000,0.000000,0.000000
1782115675.783197,178772,-0.183105,0.243164,0.944336,0.121951,0.060976,0.548781,-6.093750,-2.306250,34.256252,0.0,1.000000,0.000000,0.000000,0.000000
1782115675.791197,178780,-0.187500,0.244629,0.948242,0.853659,0.243902,0.853659,-6.050000,-2.237500,34.299999,0.0,1.000000,0.000000,0.000000,0.000000
1782115675.802197,178791,-0.189941,0.244629,0.955566,1.646341,-0.182927,0.853659,-6.050000,-2.237500,34.299999,0.0,1.000000,0.000000,0.000000,0.000000
1782115675.811197,178800,-0.183594,0.242188,0.951660,1.280488,-0.670732,0.365854,-6.012500,-2.250000,34.331249,0.0,1.000000,0.000000,0.000000,0.000000
1782115675.821197,178810,-0.183105,0.243164,0.940918,0.243902,-0.304878,0.182927,-6.012500,-2.250000,34.331249,0.0,1.000000,0.000000,0.000000,0.000000
1782115675.831197,178820,-0.183105,0.243164,0.943359,0.060976,-0.243902,0.182927,-6.062500,-2.281250,34.306252,0.0,1.000000,0.000000,0.000000,0.000000
1782115675.841197,178830,-0.182129,0.245117,0.944336,0.426829,-0.426829,0.121951,-6.062500,-2.281250,34.306252,0.0,1.000000,0.000000,0.000000,0.000000
1782115675.852197,178841,-0.186035,0.248535,0.948242,0.975610,-0.060976,0.365854,-6.075000,-2.356250,34.256252,0.0,1.000000,0.000000,0.000000,0.000000
1782115675.861197,178850,-0.187500,0.246582,0.955078,1.646341,-0.121951,0.365854,-6.075000,-2.356250,34.256252,0.0,1.000000,0.000000,0.000000,0.000000
1782115675.871197,178860,-0.188477,0.246582,0.951172,1.524390,-0.243902,0.243902,-6.000000,-2.275000,34.312500,0.0,1.000000,0.000000,0.000000,0.000000
1782115675.881197,178870,-0.184082,0.245117,0.945312,0.853659,-0.304878,0.000000,-6.000000,-2.275000,34.312500,0.0,1.000000,0.000000,0.000000,0.000000
1782115675.891197,178880,-0.185059,0.247559,0.943848,0.243902,0.000000,0.365854,-6.081250,-2.325000,34.281250,0.0,1.000000,0.000000,0.000000,0.000000
1782115675.901197,178890,-0.184570,0.248535,0.945312,0.365854,-0.304878,0.304878,-6.081250,-2.325000,34.281250,0.0,1.000000,0.000000,0.000000,0.000000
1782115675.911197,178900,-0.188477,0.250977,0.946289,0.731707,-0.060976,0.426829,-6.012500,-2.287500,34.299999,0.0,1.000000,0.000000,0.000000,0.000000
1782115675.921197,178910,-0.187988,0.251953,0.948730,1.097561,-0.121951,0.426829,-6.012500,-2.287500,34.299999,0.0,1.000000,0.000000,0.000000,0.000000
1782115675.932197,178921,-0.188477,0.251465,0.947754,1.158537,-0.182927,0.304878,-6.093750,-2.400000,34.281250,0.0,1.000000,0.000000,0.000000,0.000000
1782115675.943197,178932,-0.188477,0.249023,0.946289,0.914634,-0.365854,0.304878,-6.125000,-2.425000,34.281250,0.0,1.000000,0.000000,0.000000,0.000000
1782115675.951197,178940,-0.187988,0.248047,0.940918,0.060976,-0.182927,0.487805,-6.125000,-2.425000,34.281250,0.0,1.000000,0.000000,0.000000,0.000000
1782115675.962197,178951,-0.186035,0.245605,0.946289,0.487805,-0.121951,0.731707,-6.062500,-2.312500,34.281250,0.0,1.000000,0.000000,0.000000,0.000000
1782115675.971197,178960,-0.188477,0.246094,0.948730,0.731707,-0.243902,0.853659,-6.062500,-2.312500,34.281250,0.0,1.000000,0.000000,0.000000,0.000000
1782115675.983197,178972,-0.188965,0.247559,0.949219,1.097561,-0.182927,0.792683,-6.050000,-2.356250,34.287502,0.0,1.000000,0.000000,0.000000,0.000000
1782115675.991197,178980,-0.190430,0.248535,0.947754,1.097561,0.121951,0.914634,-6.050000,-2.356250,34.287502,0.0,1.000000,0.000000,0.000000,0.000000
1782115676.001197,178990,-0.191406,0.248047,0.951660,1.402439,-0.365854,0.853659,-6.112500,-2.431250,34.337502,0.0,1.000000,0.000000,0.000000,0.000000
1782115676.011197,179000,-0.187988,0.246094,0.948730,0.853659,-0.182927,0.914634,-6.112500,-2.431250,34.337502,0.0,1.000000,0.000000,0.000000,0.000000
1782115676.024197,179013,-0.184082,0.245605,0.946777,0.365854,0.000000,0.731707,-6.068750,-2.356250,34.306252,0.0,1.000000,0.000000,0.000000,0.000000
1782115676.031197,179020,-0.182617,0.248047,0.945312,0.487805,0.304878,0.853659,-6.068750,-2.356250,34.306252,0.0,1.000000,0.000000,0.000000,0.000000
1782115676.041197,179030,-0.185059,0.249023,0.952148,1.402439,0.426829,0.975610,-5.750000,-2.006250,34.356251,0.0,1.000000,0.000000,0.000000,0.000000
1782115676.051197,179040,-0.186035,0.248047,0.952148,1.646341,0.365854,1.097561,-5.750000,-2.006250,34.356251,0.0,1.000000,0.000000,0.000000,0.000000
1782115676.063197,179052,-0.184082,0.246582,0.948242,1.158537,0.060976,0.853659,-5.981250,-2.281250,34.275002,0.0,1.000000,0.000000,0.000000,0.000000
1782115676.071197,179060,-0.185059,0.248047,0.940918,0.243902,0.304878,1.036585,-5.981250,-2.281250,34.275002,0.0,1.000000,0.000000,0.000000,0.000000
1782115676.081197,179070,-0.184082,0.250488,0.942871,0.365854,0.243902,1.158537,-5.975000,-2.287500,34.375000,0.0,1.000000,0.000000,0.000000,0.000000
1782115676.091197,179080,-0.183594,0.250977,0.946777,0.853659,0.182927,1.097561,-5.975000,-2.287500,34.375000,0.0,1.000000,0.000000,0.000000,0.000000
1782115676.104197,179093,-0.184082,0.253418,0.945312,1.158537,0.365854,1.219512,-6.006250,-2.337500,34.250000,0.0,1.000000,0.000000,0.000000,0.000000
1782115676.111197,179100,-0.188477,0.251953,0.947266,1.402439,0.304878,1.280488,-6.006250,-2.337500,34.250000,0.0,1.000000,0.000000,0.000000,0.000000
1782115676.121197,179110,-0.186523,0.248535,0.946777,1.219512,-0.121951,1.158537,-5.906250,-2.256250,34.368752,0.0,1.000000,0.000000,0.000000,0.000000
1782115676.131197,179120,-0.182617,0.248047,0.943359,0.426829,-0.182927,0.792683,-5.906250,-2.256250,34.368752,0.0,1.000000,0.000000,0.000000,0.000000
1782115676.142197,179131,-0.183105,0.249512,0.942871,-0.182927,0.182927,0.975610,-6.006250,-2.300000,34.362499,0.0,1.000000,0.000000,0.000000,0.000000
1782115676.151197,179140,-0.182617,0.247559,0.943848,-0.121951,0.000000,0.914634,-6.006250,-2.300000,34.362499,0.0,1.000000,0.000000,0.000000,0.000000
1782115676.162197,179151,-0.184570,0.250488,0.947754,0.182927,0.243902,1.158537,-6.056250,-2.337500,34.331249,0.0,1.000000,0.000000,0.000000,0.000000
1782115676.172197,179161,-0.189453,0.251465,0.953125,1.036585,0.243902,1.280488,-6.056250,-2.337500,34.331249,0.0,1.000000,0.000000,0.000000,0.000000
1782115676.184197,179173,-0.190430,0.246582,0.953613,1.463415,-0.243902,0.975610,-6.025000,-2.318750,34.262501,0.0,1.000000,0.000000,0.000000,0.000000
1782115676.192197,179181,-0.185547,0.245605,0.945801,0.731707,-0.182927,0.609756,-6.025000,-2.318750,34.262501,0.0,1.000000,0.000000,0.000000,0.000000
1782115676.202197,179191,-0.187988,0.249023,0.942871,-0.060976,0.304878,0.670732,-5.968750,-2.206250,34.400002,0.0,1.000000,0.000000,0.000000,0.000000
1782115676.211197,179200,-0.191406,0.250000,0.944824,-0.121951,0.243902,0.853659,-5.968750,-2.206250,34.400002,0.0,1.000000,0.000000,0.000000,0.000000
1782115676.223197,179212,-0.192871,0.249512,0.945801,0.243902,0.000000,0.853659,-6.062500,-2.381250,34.337502,0.0,1.000000,0.000000,0.000000,0.000000
1782115676.231197,179220,-0.192383,0.251953,0.948730,0.487805,0.121951,0.853659,-6.062500,-2.381250,34.337502,0.0,1.000000,0.000000,0.000000,0.000000
1782115676.241197,179230,-0.193848,0.250977,0.950195,0.670732,-0.060976,0.792683,-6.012500,-2.318750,34.356251,0.0,1.000000,0.000000,0.000000,0.000000
1782115676.251197,179240,-0.192383,0.250000,0.950684,0.548781,-0.365854,0.670732,-6.012500,-2.318750,34.356251,0.0,1.000000,0.000000,0.000000,0.000000
1782115676.265197,179254,-0.190918,0.249023,0.948242,0.182927,-0.426829,0.548781,-6.068750,-2.356250,34.381252,0.0,1.000000,0.000000,0.000000,0.000000
1782115676.271197,179260,-0.189453,0.247070,0.945312,-0.426829,-0.121951,0.548781,-6.056250,-2.350000,34.299999,0.0,1.000000,0.000000,0.000000,0.000000
1782115676.281197,179270,-0.190430,0.249023,0.943359,-0.426829,0.121951,0.670732,-6.056250,-2.350000,34.299999,0.0,1.000000,0.000000,0.000000,0.000000
1782115676.291197,179280,-0.190918,0.250977,0.946777,-0.060976,0.121951,0.792683,-6.062500,-2.243750,34.368752,0.0,1.000000,0.000000,0.000000,0.000000
1782115676.303197,179292,-0.189941,0.250488,0.950684,0.609756,-0.121951,0.853659,-6.062500,-2.243750,34.368752,0.0,1.000000,0.000000,0.000000,0.000000
1782115676.311197,179300,-0.190918,0.249023,0.952148,0.914634,-0.365854,0.792683,-5.850000,-2.056250,34.387501,0.0,1.000000,0.000000,0.000000,0.000000
1782115676.322197,179311,-0.187012,0.245605,0.949707,0.304878,-0.609756,0.548781,-5.850000,-2.056250,34.387501,0.0,1.000000,0.000000,0.000000,0.000000
1782115676.331197,179320,-0.184082,0.248047,0.938965,-0.731707,-0.060976,0.548781,-6.068750,-2.350000,34.343750,0.0,1.000000,0.000000,0.000000,0.000000
1782115676.345197,179334,-0.186035,0.248535,0.943848,-0.121951,0.000000,0.792683,-6.068750,-2.350000,34.343750,0.0,1.000000,0.000000,0.000000,0.000000
1782115676.351197,179340,-0.188965,0.249512,0.947266,0.304878,0.060976,1.097561,-5.975000,-2.268750,34.356251,0.0,1.000000,0.000000,0.000000,0.000000
1782115676.361197,179350,-0.190918,0.248047,0.951172,0.792683,-0.304878,0.914634,-5.975000,-2.268750,34.356251,0.0,1.000000,0.000000,0.000000,0.000000
1782115676.371197,179360,-0.186035,0.247559,0.952637,0.975610,-0.426829,0.731707,-6.037500,-2.287500,34.343750,0.0,1.000000,0.000000,0.000000,0.000000
1782115676.384197,179373,-0.188965,0.249512,0.947266,0.548781,-0.121951,1.036585,-6.037500,-2.287500,34.343750,0.0,1.000000,0.000000,0.000000,0.000000
1782115676.391197,179380,-0.187012,0.245605,0.941406,-0.487805,-0.304878,1.036585,-5.968750,-2.218750,34.306252,0.0,1.000000,0.000000,0.000000,0.000000
1782115676.401197,179390,-0.187500,0.244629,0.942383,-0.426829,0.000000,1.219512,-5.968750,-2.218750,34.306252,0.0,1.000000,0.000000,0.000000,0.000000
1782115676.411197,179400,-0.188965,0.245117,0.953613,0.548781,-0.121951,1.280488,-6.093750,-2.287500,34.281250,0.0,1.000000,0.000000,0.000000,0.000000
1782115676.421197,179410,-0.189941,0.248535,0.950195,0.548781,-0.060976,1.219512,-6.093750,-2.287500,34.281250,0.0,1.000000,0.000000,0.000000,0.000000
1782115676.431197,179420,-0.188477,0.247070,0.951172,0.792683,-0.304878,1.097561,-6.043750,-2.281250,34.337502,0.0,1.000000,0.000000,0.000000,0.000000
1782115676.441197,179430,-0.188477,0.247070,0.951172,0.792683,-0.304878,1.097561,-6.043750,-2.281250,34.337502,0.0,1.000000,0.000000,0.000000,0.000000
1782115676.451197,179440,-0.187500,0.244629,0.949707,0.426829,-0.426829,1.097561,-6.100000,-2.293750,34.337502,0.0,1.000000,0.000000,0.000000,0.000000
1782115676.461197,179450,-0.185059,0.245605,0.945312,-0.365854,-0.121951,1.219512,-6.100000,-2.293750,34.337502,0.0,1.000000,0.000000,0.000000,0.000000
1782115676.471197,179460,-0.186035,0.247070,0.942871,-0.304878,0.060976,1.280488,-6.087500,-2.331250,34.368752,0.0,1.000000,0.000000,0.000000,0.000000
1782115676.481197,179470,-0.190918,0.248047,0.947754,0.365854,0.060976,1.524390,-6.087500,-2.331250,34.368752,0.0,1.000000,0.000000,0.000000,0.000000
1782115676.491197,179480,-0.190918,0.246094,0.952637,1.158537,-0.243902,1.341463,-6.137500,-2.368750,34.337502,0.0,1.000000,0.000000,0.000000,0.000000
1782115676.501197,179490,-0.190918,0.245117,0.951660,1.097561,-0.426829,0.975610,-6.137500,-2.368750,34.337502,0.0,1.000000,0.000000,0.000000,0.000000
1782115676.511197,179500,-0.187012,0.243164,0.944336,0.182927,-0.121951,0.914634,-6.106250,-2.312500,34.281250,0.0,1.000000,0.000000,0.000000,0.000000
1782115676.521197,179510,-0.189453,0.244629,0.945312,-0.182927,0.000000,1.097561,-6.106250,-2.312500,34.281250,0.0,1.000000,0.000000,0.000000,0.000000
1782115676.532197,179521,-0.185059,0.245117,0.947266,-0.121951,-0.304878,0.975610,-6.125000,-2.312500,34.362499,0.0,1.000000,0.000000,0.000000,0.000000
1782115676.542197,179531,-0.185059,0.248047,0.945801,0.243902,-0.121951,1.036585,-6.125000,-2.312500,34.362499,0.0,1.000000,0.000000,0.000000,0.000000
1782115676.552197,179541,-0.187988,0.246094,0.951172,0.914634,-0.060976,1.158537,-6.131250,-2.306250,34.306252,0.0,1.000000,0.000000,0.000000,0.000000
1782115676.561197,179550,-0.188477,0.242676,0.949219,0.914634,-0.304878,1.036585,-6.112500,-2.293750,34.318752,0.0,1.000000,0.000000,0.000000,0.000000
1782115676.571197,179560,-0.187012,0.242676,0.948242,0.914634,-0.426829,0.914634,-6.112500,-2.293750,34.318752,0.0,1.000000,0.000000,0.000000,0.000000
1782115676.581197,179570,-0.181641,0.243164,0.944336,0.487805,-0.426829,0.792683,-6.100000,-2.331250,34.287502,0.0,1.000000,0.000000,0.000000,0.000000
1782115676.591197,179580,-0.181641,0.244141,0.944336,0.121951,-0.121951,0.792683,-6.100000,-2.331250,34.287502,0.0,1.000000,0.000000,0.000000,0.000000
1782115676.601197,179590,-0.183594,0.246094,0.947266,0.243902,0.060976,0.914634,-6.087500,-2.262500,34.281250,0.0,1.000000,0.000000,0.000000,0.000000
1782115676.612197,179601,-0.186523,0.247070,0.950195,0.731707,0.060976,0.975610,-6.087500,-2.262500,34.281250,0.0,1.000000,0.000000,0.000000,0.000000
1782115676.621197,179610,-0.188477,0.244141,0.954102,1.219512,-0.121951,0.914634,-6.087500,-2.306250,34.337502,0.0,1.000000,0.000000,0.000000,0.000000
1782115676.631197,179620,-0.187500,0.240234,0.948730,0.609756,-0.365854,0.670732,-6.087500,-2.306250,34.337502,0.0,1.000000,0.000000,0.000000,0.000000
1782115676.642197,179631,-0.184570,0.241699,0.943848,0.000000,-0.365854,0.609756,-5.875000,-2.006250,34.375000,0.0,1.000000,0.000000,0.000000,0.000000
1782115676.651197,179640,-0.183594,0.242676,0.943359,-0.121951,-0.243902,0.548781,-5.875000,-2.006250,34.375000,0.0,1.000000,0.000000,0.000000,0.000000
1782115676.661197,179650,-0.187012,0.247070,0.946777,0.426829,0.243902,0.609756,-6.106250,-2.306250,34.337502,0.0,1.000000,0.000000,0.000000,0.000000
1782115676.672197,179661,-0.190918,0.246582,0.952637,1.402439,0.000000,0.609756,-6.106250,-2.306250,34.337502,0.0,1.000000,0.000000,0.000000,0.000000
1782115676.681197,179670,-0.190430,0.244629,0.952148,1.402439,-0.243902,0.548781,-6.050000,-2.281250,34.293751,0.0,1.000000,0.000000,0.000000,0.000000
1782115676.691197,179680,-0.190430,0.243164,0.948242,0.853659,-0.426829,0.243902,-6.050000,-2.281250,34.293751,0.0,1.000000,0.000000,0.000000,0.000000
1782115676.701197,179690,-0.187012,0.245117,0.941895,0.243902,-0.243902,0.243902,-6.068750,-2.256250,34.306252,0.0,1.000000,0.000000,0.000000,0.000000
1782115676.711197,179700,-0.187988,0.244141,0.946777,0.426829,-0.304878,0.365854,-6.068750,-2.256250,34.306252,0.0,1.000000,0.000000,0.000000,0.000000
1782115676.721197,179710,-0.189453,0.247070,0.945801,0.487805,-0.182927,0.548781,-5.900000,-2.106250,34.343750,0.0,1.000000,0.000000,0.000000,0.000000
1782115676.732197,179721,-0.188965,0.248047,0.950195,0.914634,-0.121951,0.670732,-5.900000,-2.106250,34.343750,0.0,1.000000,0.000000,0.000000,0.000000
1782115676.741197,179730,-0.190430,0.249512,0.951172,1.341463,-0.182927,0.670732,-6.131250,-2.300000,34.331249,0.0,1.000000,0.000000,0.000000,0.000000
1782115676.751197,179740,-0.190430,0.248047,0.950684,1.646341,-0.548781,0.426829,-6.131250,-2.300000,34.331249,0.0,1.000000,0.000000,0.000000,0.000000
1782115676.761197,179750,-0.188965,0.249023,0.941406,0.548781,-0.060976,0.487805,-6.056250,-2.268750,34.337502,0.0,1.000000,0.000000,0.000000,0.000000
1782115676.771197,179760,-0.187988,0.247559,0.944824,0.243902,0.000000,0.670732,-6.056250,-2.268750,34.337502,0.0,1.000000,0.000000,0.000000,0.000000
1782115676.781197,179770,-0.186523,0.250000,0.946289,0.609756,-0.182927,0.731707,-6.156250,-2.393750,34.318752,0.0,1.000000,0.000000,0.000000,0.000000
1782115676.791197,179780,-0.187500,0.250000,0.948730,0.975610,-0.060976,0.914634,-6.156250,-2.393750,34.318752,0.0,1.000000,0.000000,0.000000,0.000000
1782115676.801197,179790,-0.186035,0.251465,0.951172,1.341463,-0.243902,0.914634,-6.081250,-2.293750,34.337502,0.0,1.000000,0.000000,0.000000,0.000000
1782115676.811197,179800,-0.186523,0.252441,0.948730,0.975610,-0.243902,0.853659,-6.081250,-2.293750,34.337502,0.0,1.000000,0.000000,0.000000,0.000000
1782115676.821197,179810,-0.185059,0.249512,0.943848,0.121951,-0.243902,0.731707,-6.006250,-2.262500,34.393749,0.0,1.000000,0.000000,0.000000,0.000000
1782115676.831197,179820,-0.186035,0.246582,0.943359,-0.243902,-0.060976,0.792683,-6.006250,-2.262500,34.393749,0.0,1.000000,0.000000,0.000000,0.000000
1782115676.841197,179830,-0.183594,0.248535,0.944336,-0.365854,-0.121951,0.792683,-6.106250,-2.268750,34.318752,0.0,1.000000,0.000000,0.000000,0.000000
1782115676.851197,179840,-0.187012,0.250000,0.948242,0.121951,-0.060976,1.097561,-6.106250,-2.268750,34.318752,0.0,1.000000,0.000000,0.000000,0.000000
1782115676.861197,179850,-0.188965,0.249023,0.951660,0.548781,-0.182927,1.036585,-6.168750,-2.375000,34.250000,0.0,1.000000,0.000000,0.000000,0.000000
1782115676.872197,179861,-0.187988,0.245605,0.949707,0.670732,-0.365854,0.914634,-6.056250,-2.287500,34.312500,0.0,1.000000,0.000000,0.000000,0.000000
1782115676.882197,179871,-0.186035,0.245605,0.946777,0.365854,-0.182927,0.853659,-6.056250,-2.287500,34.312500,0.0,1.000000,0.000000,0.000000,0.000000
1782115676.891197,179880,-0.185547,0.244141,0.946777,0.121951,-0.243902,0.914634,-6.062500,-2.243750,34.356251,0.0,1.000000,0.000000,0.000000,0.000000
1782115676.901197,179890,-0.182129,0.245117,0.944336,0.060976,-0.243902,0.853659,-6.062500,-2.243750,34.356251,0.0,1.000000,0.000000,0.000000,0.000000
1782115676.911197,179900,-0.185547,0.245605,0.946777,0.182927,0.060976,1.036585,-6.093750,-2.287500,34.312500,0.0,1.000000,0.000000,0.000000,0.000000
1782115676.921197,179910,-0.189453,0.246582,0.951660,0.731707,0.182927,1.280488,-6.093750,-2.287500,34.312500,0.0,1.000000,0.000000,0.000000,0.000000
1782115676.931197,179920,-0.190918,0.243652,0.953613,1.219512,-0.304878,1.097561,-6.081250,-2.287500,34.331249,0.0,1.000000,0.000000,0.000000,0.000000
1782115676.941197,179930,-0.187500,0.242676,0.948730,0.548781,-0.365854,0.975610,-6.081250,-2.287500,34.331249,0.0,1.000000,0.000000,0.000000,0.000000
1782115676.951197,179940,-0.185059,0.243164,0.945801,-0.121951,-0.182927,0.853659,-6.118750,-2.318750,34.275002,0.0,1.000000,0.000000,0.000000,0.000000
1782115676.961197,179950,-0.185059,0.241699,0.947266,-0.121951,-0.182927,0.914634,-6.118750,-2.318750,34.275002,0.0,1.000000,0.000000,0.000000,0.000000
1782115676.971197,179960,-0.187012,0.243164,0.946289,0.060976,0.060976,1.036585,-6.118750,-2.262500,34.299999,0.0,1.000000,0.000000,0.000000,0.000000
1782115676.981197,179970,-0.190430,0.243652,0.948730,0.670732,0.304878,1.219512,-6.118750,-2.262500,34.299999,0.0,1.000000,0.000000,0.000000,0.000000
1782115676.991197,179980,-0.190918,0.241699,0.954102,1.402439,-0.121951,0.975610,-6.143750,-2.250000,34.268749,0.0,1.000000,0.000000,0.000000,0.000000
1782115677.001197,179990,-0.188477,0.240234,0.951660,1.036585,-0.243902,0.792683,-6.143750,-2.250000,34.268749,0.0,1.000000,0.000000,0.000000,0.000000
1782115677.011197,180000,-0.186035,0.241211,0.943848,0.243902,-0.243902,0.670732,-6.137500,-2.375000,34.331249,0.0,1.000000,0.000000,0.000000,0.000000
1782115677.021197,180010,-0.184082,0.243164,0.941895,-0.121951,0.000000,0.609756,-6.137500,-2.375000,34.331249,0.0,1.000000,0.000000,0.000000,0.000000
1782115677.032197,180021,-0.187500,0.245117,0.946289,0.548781,0.182927,0.914634,-6.131250,-2.312500,34.281250,0.0,1.000000,0.000000,0.000000,0.000000
1782115677.041197,180030,-0.187988,0.243652,0.951660,1.463415,-0.060976,0.853659,-6.131250,-2.312500,34.281250,0.0,1.000000,0.000000,0.000000,0.000000
1782115677.051197,180040,-0.188477,0.245117,0.952148,1.707317,-0.121951,0.731707,-6.100000,-2.293750,34.350002,0.0,1.000000,0.000000,0.000000,0.000000
1782115677.061197,180050,-0.190430,0.244141,0.952148,1.646341,-0.365854,0.609756,-6.100000,-2.293750,34.350002,0.0,1.000000,0.000000,0.000000,0.000000
1782115677.072197,180061,-0.187500,0.243164,0.947754,0.792683,-0.426829,0.426829,-6.118750,-2.293750,34.287502,0.0,1.000000,0.000000,0.000000,0.000000
1782115677.081197,180070,-0.184082,0.241211,0.945801,0.426829,-0.426829,0.304878,-6.118750,-2.293750,34.287502,0.0,1.000000,0.000000,0.000000,0.000000
1782115677.091197,180080,-0.185059,0.244629,0.947754,0.670732,-0.060976,0.365854,-6.125000,-2.375000,34.312500,0.0,1.000000,0.000000,0.000000,0.000000
1782115677.101197,180090,-0.185059,0.244629,0.954102,1.280488,0.000000,0.182927,-6.125000,-2.375000,34.312500,0.0,1.000000,0.000000,0.000000,0.000000
1782115677.111197,180100,-0.186035,0.244629,0.954102,1.524390,0.060976,0.000000,-6.143750,-2.362500,34.281250,0.0,1.000000,0.000000,0.000000,0.000000
1782115677.122197,180111,-0.187500,0.244141,0.950195,1.219512,0.060976,0.121951,-6.143750,-2.362500,34.281250,0.0,1.000000,0.000000,0.000000,0.000000
1782115677.131197,180120,-0.184570,0.244141,0.947266,0.975610,-0.060976,0.121951,-5.812500,-2.062500,34.431252,0.0,1.000000,0.000000,0.000000,0.000000
1782115677.141197,180130,-0.181641,0.242188,0.945801,0.792683,-0.365854,0.000000,-5.812500,-2.062500,34.431252,0.0,1.000000,0.000000,0.000000,0.000000
1782115677.151197,180140,-0.182129,0.244629,0.940918,0.304878,0.060976,0.060976,-6.075000,-2.318750,34.337502,0.0,1.000000,0.000000,0.000000,0.000000
1782115677.161197,180150,-0.186035,0.251953,0.943848,1.097561,0.304878,0.182927,-6.056250,-2.300000,34.281250,0.0,1.000000,0.000000,0.000000,0.000000
1782115677.171197,180160,-0.189941,0.251953,0.949707,1.829268,-0.060976,0.121951,-6.056250,-2.300000,34.281250,0.0,1.000000,0.000000,0.000000,0.000000
1782115677.181197,180170,-0.190918,0.251465,0.949219,1.707317,-0.243902,0.060976,-6.106250,-2.375000,34.312500,0.0,1.000000,0.000000,0.000000,0.000000
1782115677.191197,180180,-0.189453,0.248047,0.944824,1.097561,-0.304878,0.121951,-6.106250,-2.375000,34.312500,0.0,1.000000,0.000000,0.000000,0.000000
1782115677.201197,180190,-0.185059,0.247070,0.941895,0.243902,-0.304878,0.243902,-6.000000,-2.250000,34.331249,0.0,1.000000,0.000000,0.000000,0.000000
1782115677.211197,180200,-0.186035,0.249023,0.943848,0.304878,-0.426829,0.365854,-6.000000,-2.250000,34.331249,0.0,1.000000,0.000000,0.000000,0.000000
1782115677.221197,180210,-0.185547,0.251953,0.949219,0.975610,-0.304878,0.426829,-6.012500,-2.287500,34.362499,0.0,1.000000,0.000000,0.000000,0.000000
1782115677.232197,180221,-0.187500,0.251465,0.951660,1.219512,-0.060976,0.487805,-6.012500,-2.287500,34.362499,0.0,1.000000,0.000000,0.000000,0.000000
1782115677.241197,180230,-0.188965,0.250977,0.950195,0.853659,0.000000,0.609756,-5.975000,-2.300000,34.406250,0.0,1.000000,0.000000,0.000000,0.000000
1782115677.251197,180240,-0.187988,0.249023,0.948242,0.670732,-0.304878,0.670732,-5.975000,-2.300000,34.406250,0.0,1.000000,0.000000,0.000000,0.000000
1782115677.262197,180251,-0.188477,0.249512,0.947266,0.548781,-0.121951,0.792683,-5.981250,-2.218750,34.431252,0.0,1.000000,0.000000,0.000000,0.000000
1782115677.271197,180260,-0.188965,0.251953,0.945801,0.487805,-0.060976,0.853659,-5.981250,-2.218750,34.431252,0.0,1.000000,0.000000,0.000000,0.000000
1782115677.281197,180270,-0.188965,0.251953,0.945801,0.487805,-0.060976,0.853659,-5.968750,-2.212500,34.362499,0.0,1.000000,0.000000,0.000000,0.000000
1782115677.291197,180280,-0.192871,0.256348,0.947266,0.731707,0.243902,0.975610,-5.968750,-2.212500,34.362499,0.0,1.000000,0.000000,0.000000,0.000000
1782115677.302197,180291,-0.192871,0.256348,0.947266,0.731707,0.243902,0.975610,-5.825000,-2.156250,34.406250,0.0,1.000000,0.000000,0.000000,0.000000
1782115677.312197,180301,-0.193359,0.252930,0.946777,0.853659,-0.182927,1.097561,-5.825000,-2.156250,34.406250,0.0,1.000000,0.000000,0.000000,0.000000
1782115677.321197,180310,-0.193359,0.252930,0.946777,0.853659,-0.182927,1.097561,-5.981250,-2.325000,34.375000,0.0,1.000000,0.000000,0.000000,0.000000
1782115677.331197,180320,-0.189941,0.252441,0.943359,0.487805,-0.304878,1.097561,-5.981250,-2.325000,34.375000,0.0,1.000000,0.000000,0.000000,0.000000
1782115677.341197,180330,-0.187012,0.252441,0.943359,0.304878,-0.060976,0.975610,-6.025000,-2.312500,34.331249,0.0,1.000000,0.000000,0.000000,0.000000
1782115677.351197,180340,-0.188965,0.253906,0.942871,0.060976,0.243902,1.158537,-6.025000,-2.312500,34.331249,0.0,1.000000,0.000000,0.000000,0.000000
1782115677.361197,180350,-0.189941,0.253906,0.947754,0.426829,0.060976,1.524390,-6.031250,-2.268750,34.387501,0.0,1.000000,0.000000,0.000000,0.000000
1782115677.371197,180360,-0.191406,0.251953,0.951660,0.670732,-0.304878,1.707317,-6.031250,-2.268750,34.387501,0.0,1.000000,0.000000,0.000000,0.000000
1782115677.381197,180370,-0.188477,0.248535,0.949219,0.670732,-0.670732,1.463415,-6.087500,-2.325000,34.375000,0.0,1.000000,0.000000,0.000000,0.000000
1782115677.393197,180382,-0.182617,0.247559,0.945312,0.121951,-0.548781,1.280488,-6.087500,-2.325000,34.375000,0.0,1.000000,0.000000,0.000000,0.000000
1782115677.401197,180390,-0.185059,0.246094,0.942871,-0.609756,0.121951,1.341463,-6.062500,-2.287500,34.331249,0.0,1.000000,0.000000,0.000000,0.000000
1782115677.411197,180400,-0.185059,0.247559,0.943848,-0.670732,0.121951,1.280488,-6.062500,-2.287500,34.331249,0.0,1.000000,0.000000,0.000000,0.000000
1782115677.421197,180410,-0.187012,0.250000,0.948730,-0.060976,0.060976,1.463415,-6.081250,-2.350000,34.343750,0.0,1.000000,0.000000,0.000000,0.000000
1782115677.432197,180421,-0.191895,0.248535,0.952637,0.670732,-0.121951,1.524390,-6.081250,-2.350000,34.343750,0.0,1.000000,0.000000,0.000000,0.000000
1782115677.441197,180430,-0.188965,0.246582,0.952148,0.609756,-0.365854,1.219512,-6.087500,-2.287500,34.312500,0.0,1.000000,0.000000,0.000000,0.000000
1782115677.451197,180440,-0.187988,0.243652,0.943848,-0.304878,-0.182927,1.158537,-6.087500,-2.287500,34.312500,0.0,1.000000,0.000000,0.000000,0.000000
1782115677.461197,180450,-0.186523,0.239746,0.941895,-0.853659,-0.182927,1.158537,-6.156250,-2.375000,34.250000,0.0,1.000000,0.000000,0.000000,0.000000
1782115677.472197,180461,-0.186035,0.242188,0.945312,-0.609756,-0.121951,1.219512,-6.106250,-2.318750,34.306252,0.0,1.000000,0.000000,0.000000,0.000000
1782115677.481197,180470,-0.188477,0.243164,0.950195,0.182927,-0.060976,1.341463,-6.106250,-2.318750,34.306252,0.0,1.000000,0.000000,0.000000,0.000000
1782115677.492197,180481,-0.191895,0.241699,0.954102,0.853659,-0.121951,1.402439,-6.137500,-2.318750,34.306252,0.0,1.000000,0.000000,0.000000,0.000000
1782115677.501197,180490,-0.188477,0.238281,0.955078,1.036585,-0.548781,1.097561,-6.137500,-2.318750,34.306252,0.0,1.000000,0.000000,0.000000,0.000000
1782115677.512197,180501,-0.187012,0.239258,0.945312,-0.060976,-0.243902,0.914634,-5.893750,-2.137500,34.350002,0.0,1.000000,0.000000,0.000000,0.000000
1782115677.521197,180510,-0.184570,0.240234,0.941406,-0.304878,-0.121951,0.914634,-5.893750,-2.137500,34.350002,0.0,1.000000,0.000000,0.000000,0.000000
1782115677.531197,180520,-0.185059,0.240723,0.947754,0.304878,-0.182927,1.036585,-6.056250,-2.293750,34.293751,0.0,1.000000,0.000000,0.000000,0.000000
1782115677.542197,180531,-0.184082,0.240723,0.948730,0.731707,-0.060976,0.914634,-6.056250,-2.293750,34.293751,0.0,1.000000,0.000000,0.000000,0.000000
1782115677.552197,180541,-0.188477,0.241211,0.954102,1.280488,-0.182927,0.853659,-6.075000,-2.318750,34.350002,0.0,1.000000,0.000000,0.000000,0.000000
1782115677.561197,180550,-0.185547,0.241699,0.949219,1.036585,-0.426829,0.487805,-6.075000,-2.318750,34.350002,0.0,1.000000,0.000000,0.000000,0.000000
1782115677.571197,180560,-0.185059,0.245605,0.942871,0.487805,-0.060976,0.548781,-6.050000,-2.275000,34.331249,0.0,1.000000,0.000000,0.000000,0.000000
1782115677.581197,180570,-0.184570,0.244141,0.947754,0.853659,-0.365854,0.731707,-6.050000,-2.275000,34.331249,0.0,1.000000,0.000000,0.000000,0.000000
1782115677.593197,180582,-0.183594,0.243652,0.949707,0.731707,-0.548781,0.487805,-6.087500,-2.318750,34.306252,0.0,1.000000,0.000000,0.000000,0.000000
1782115677.601197,180590,-0.184082,0.248535,0.944336,0.243902,0.000000,0.548781,-6.087500,-2.318750,34.306252,0.0,1.000000,0.000000,0.000000,0.000000
1782115677.611197,180600,-0.187012,0.247559,0.950195,0.975610,-0.060976,0.548781,-6.131250,-2.331250,34.337502,0.0,1.000000,0.000000,0.000000,0.000000
1782115677.622197,180611,-0.187012,0.246582,0.952148,1.402439,-0.487805,0.304878,-6.131250,-2.331250,34.337502,0.0,1.000000,0.000000,0.000000,0.000000
1782115677.631197,180620,-0.187012,0.245605,0.944824,0.731707,-0.121951,0.304878,-6.062500,-2.293750,34.356251,0.0,1.000000,0.000000,0.000000,0.000000
1782115677.641197,180630,-0.184570,0.244141,0.943848,0.121951,-0.060976,0.487805,-6.062500,-2.293750,34.356251,0.0,1.000000,0.000000,0.000000,0.000000
1782115677.651197,180640,-0.184082,0.246582,0.943359,0.304878,0.060976,0.731707,-6.137500,-2.306250,34.275002,0.0,1.000000,0.000000,0.000000,0.000000
1782115677.661197,180650,-0.186523,0.246582,0.950684,1.280488,-0.182927,0.853659,-6.137500,-2.306250,34.275002,0.0,1.000000,0.000000,0.000000,0.000000
1782115677.674197,180663,-0.185547,0.248535,0.950684,1.341463,-0.060976,0.731707,-6.131250,-2.300000,34.375000,0.0,1.000000,0.000000,0.000000,0.000000
1782115677.681197,180670,-0.188477,0.247559,0.949707,1.097561,0.000000,0.792683,-6.131250,-2.300000,34.375000,0.0,1.000000,0.000000,0.000000,0.000000
1782115677.691197,180680,-0.187988,0.249512,0.945312,0.670732,-0.060976,0.914634,-6.050000,-2.231250,34.293751,0.0,1.000000,0.000000,0.000000,0.000000
1782115677.701197,180690,-0.187500,0.249512,0.945312,0.182927,-0.304878,0.670732,-6.050000,-2.231250,34.293751,0.0,1.000000,0.000000,0.000000,0.000000
1782115677.712197,180701,-0.185547,0.251953,0.940430,-0.182927,-0.060976,0.670732,-6.043750,-2.312500,34.362499,0.0,1.000000,0.000000,0.000000,0.000000
1782115677.721197,180710,-0.190918,0.251953,0.948242,0.487805,0.060976,0.853659,-6.043750,-2.312500,34.362499,0.0,1.000000,0.000000,0.000000,0.000000
1782115677.732197,180721,-0.192383,0.250000,0.949219,0.792683,0.000000,0.853659,-6.106250,-2.318750,34.350002,0.0,1.000000,0.000000,0.000000,0.000000
1782115677.741197,180730,-0.189453,0.248535,0.951660,1.097561,-0.243902,0.792683,-6.106250,-2.318750,34.350002,0.0,1.000000,0.000000,0.000000,0.000000
1782115677.752197,180741,-0.188477,0.249023,0.949707,0.792683,-0.243902,0.731707,-6.106250,-2.337500,34.343750,0.0,1.000000,0.000000,0.000000,0.000000
1782115677.762197,180751,-0.187500,0.249512,0.944824,0.000000,-0.121951,0.853659,-6.106250,-2.337500,34.343750,0.0,1.000000,0.000000,0.000000,0.000000
1782115677.771197,180760,-0.186035,0.247070,0.943359,-0.304878,-0.121951,0.914634,-6.075000,-2.343750,34.337502,0.0,1.000000,0.000000,0.000000,0.000000
1782115677.781197,180770,-0.188477,0.249023,0.947266,0.060976,0.000000,0.975610,-6.106250,-2.293750,34.318752,0.0,1.000000,0.000000,0.000000,0.000000
1782115677.793197,180782,-0.189941,0.249512,0.952148,0.670732,-0.060976,0.914634,-6.106250,-2.293750,34.318752,0.0,1.000000,0.000000,0.000000,0.000000
1782115677.801197,180790,-0.187988,0.249023,0.951172,0.731707,-0.121951,0.853659,-6.062500,-2.262500,34.362499,0.0,1.000000,0.000000,0.000000,0.000000
1782115677.811197,180800,-0.190918,0.248535,0.949219,0.792683,-0.243902,0.975610,-6.062500,-2.262500,34.362499,0.0,1.000000,0.000000,0.000000,0.000000
1782115677.821197,180810,-0.187500,0.245605,0.946777,0.365854,-0.365854,1.036585,-6.093750,-2.293750,34.275002,0.0,1.000000,0.000000,0.000000,0.000000
1782115677.834197,180823,-0.185547,0.245117,0.945312,-0.121951,-0.243902,1.036585,-6.093750,-2.293750,34.275002,0.0,1.000000,0.000000,0.000000,0.000000
1782115677.841197,180830,-0.186523,0.248535,0.944336,-0.182927,0.000000,1.097561,-6.118750,-2.343750,34.256252,0.0,1.000000,0.000000,0.000000,0.000000
1782115677.851197,180840,-0.187988,0.248047,0.948730,0.182927,0.060976,1.097561,-6.118750,-2.343750,34.256252,0.0,1.000000,0.000000,0.000000,0.000000
1782115677.861197,180850,-0.187012,0.248535,0.950684,0.670732,0.000000,1.036585,-6.112500,-2.300000,34.343750,0.0,1.000000,0.000000,0.000000,0.000000
1782115677.873197,180862,-0.189453,0.244629,0.950684,0.975610,0.000000,1.158537,-6.112500,-2.300000,34.343750,0.0,1.000000,0.000000,0.000000,0.000000
1782115677.882197,180871,-0.188477,0.244141,0.950195,0.731707,-0.426829,0.975610,-6.025000,-2.150000,34.362499,0.0,1.000000,0.000000,0.000000,0.000000
1782115677.892197,180881,-0.183105,0.242188,0.944336,0.000000,-0.365854,0.975610,-6.025000,-2.150000,34.362499,0.0,1.000000,0.000000,0.000000,0.000000
1782115677.902197,180891,-0.184570,0.244629,0.944336,-0.060976,0.060976,1.097561,-6.112500,-2.293750,34.287502,0.0,1.000000,0.000000,0.000000,0.000000
1782115677.911197,180900,-0.190430,0.245117,0.947754,0.365854,0.121951,1.280488,-6.112500,-2.293750,34.287502,0.0,1.000000,0.000000,0.000000,0.000000
1782115677.921197,180910,-0.189453,0.241699,0.953125,0.853659,-0.182927,1.158537,-6.168750,-2.281250,34.243752,0.0,1.000000,0.000000,0.000000,0.000000
1782115677.931197,180920,-0.186523,0.243164,0.950684,0.731707,-0.243902,0.853659,-6.168750,-2.281250,34.243752,0.0,1.000000,0.000000,0.000000,0.000000
1782115677.941197,180930,-0.188965,0.242676,0.946289,0.060976,-0.060976,0.975610,-6.100000,-2.262500,34.312500,0.0,1.000000,0.000000,0.000000,0.000000
1782115677.953197,180942,-0.186523,0.241211,0.944824,0.060976,-0.426829,0.792683,-6.100000,-2.262500,34.312500,0.0,1.000000,0.000000,0.000000,0.000000
1782115677.961197,180950,-0.183594,0.241211,0.945312,0.121951,-0.121951,0.731707,-6.081250,-2.331250,34.337502,0.0,1.000000,0.000000,0.000000,0.000000
1782115677.971197,180960,-0.186523,0.244629,0.946777,0.548781,0.000000,0.853659,-6.081250,-2.331250,34.337502,0.0,1.000000,0.000000,0.000000,0.000000
1782115677.981197,180970,-0.187988,0.245117,0.951172,1.280488,0.060976,0.914634,-6.187500,-2.343750,34.256252,0.0,1.000000,0.000000,0.000000,0.000000
1782115677.993197,180982,-0.188477,0.243164,0.951172,1.341463,-0.426829,0.609756,-6.187500,-2.343750,34.256252,0.0,1.000000,0.000000,0.000000,0.000000
1782115678.001197,180990,-0.187988,0.242188,0.947266,1.097561,-0.304878,0.609756,-6.206250,-2.356250,34.306252,0.0,1.000000,0.000000,0.000000,0.000000
1782115678.011197,181000,-0.184082,0.243652,0.944824,0.487805,-0.304878,0.548781,-6.206250,-2.356250,34.306252,0.0,1.000000,0.000000,0.000000,0.000000
1782115678.021197,181010,-0.183105,0.245605,0.944824,0.426829,-0.121951,0.609756,-6.225000,-2.368750,34.337502,0.0,1.000000,0.000000,0.000000,0.000000
1782115678.033197,181022,-0.187500,0.246582,0.949707,0.853659,0.000000,0.731707,-6.150000,-2.343750,34.318752,0.0,1.000000,0.000000,0.000000,0.000000
1782115678.041197,181030,-0.187500,0.248047,0.949707,1.097561,0.000000,0.670732,-6.150000,-2.343750,34.318752,0.0,1.000000,0.000000,0.000000,0.000000
1782115678.051197,181040,-0.187012,0.248535,0.951172,1.280488,-0.365854,0.426829,-6.150000,-2.343750,34.318752,0.0,1.000000,0.000000,0.000000,0.000000
1782115678.061197,181050,-0.186035,0.248047,0.947754,1.036585,-0.243902,0.487805,-6.137500,-2.337500,34.268749,0.0,1.000000,0.000000,0.000000,0.000000
1782115678.073197,181062,-0.185547,0.245117,0.947266,0.792683,-0.304878,0.487805,-6.175000,-2.325000,34.281250,0.0,1.000000,0.000000,0.000000,0.000000
1782115678.081197,181070,-0.181152,0.246094,0.942871,0.243902,-0.243902,0.487805,-6.175000,-2.325000,34.281250,0.0,1.000000,0.000000,0.000000,0.000000
1782115678.091197,181080,-0.183594,0.248047,0.946777,0.731707,-0.121951,0.609756,-6.081250,-2.275000,34.250000,0.0,1.000000,0.000000,0.000000,0.000000
1782115678.101197,181090,-0.187500,0.249023,0.949707,1.036585,0.000000,0.731707,-6.081250,-2.275000,34.250000,0.0,1.000000,0.000000,0.000000,0.000000
1782115678.113197,181102,-0.186035,0.247559,0.948242,1.158537,-0.243902,0.548781,-6.150000,-2.306250,34.318752,0.0,1.000000,0.000000,0.000000,0.000000
1782115678.121197,181110,-0.186523,0.250488,0.945312,0.792683,0.000000,0.609756,-6.150000,-2.306250,34.318752,0.0,1.000000,0.000000,0.000000,0.000000
1782115678.131197,181120,-0.186523,0.250488,0.945312,0.792683,0.000000,0.609756,-6.056250,-2.293750,34.325001,0.0,1.000000,0.000000,0.000000,0.000000
1782115678.142197,181131,-0.183105,0.247070,0.944336,0.121951,-0.304878,0.609756,-6.056250,-2.293750,34.325001,0.0,1.000000,0.000000,0.000000,0.000000
1782115678.154197,181143,-0.185547,0.251465,0.947754,0.304878,0.121951,0.670732,-5.993750,-2.206250,34.325001,0.0,1.000000,0.000000,0.000000,0.000000
1782115678.162197,181151,-0.185547,0.251465,0.947754,0.304878,0.121951,0.670732,-5.993750,-2.206250,34.325001,0.0,1.000000,0.000000,0.000000,0.000000
1782115678.171197,181160,-0.189453,0.250977,0.950195,0.731707,0.182927,0.792683,-6.081250,-2.256250,34.400002,0.0,1.000000,0.000000,0.000000,0.000000
1782115678.181197,181170,-0.189941,0.249023,0.950195,1.158537,-0.060976,0.792683,-6.081250,-2.256250,34.400002,0.0,1.000000,0.000000,0.000000,0.000000
1782115678.193197,181182,-0.187988,0.245117,0.943359,0.121951,-0.243902,0.548781,-6.037500,-2.256250,34.306252,0.0,1.000000,0.000000,0.000000,0.000000
1782115678.201197,181190,-0.187988,0.245117,0.943359,0.121951,-0.243902,0.548781,-6.037500,-2.256250,34.306252,0.0,1.000000,0.000000,0.000000,0.000000
1782115678.211197,181200,-0.187500,0.246094,0.942383,-0.121951,-0.121951,0.670732,-6.100000,-2.325000,34.281250,0.0,1.000000,0.000000,0.000000,0.000000
1782115678.221197,181210,-0.187988,0.246582,0.947754,0.304878,0.000000,0.853659,-6.100000,-2.325000,34.281250,0.0,1.000000,0.000000,0.000000,0.000000
1782115678.235197,181224,-0.189941,0.247559,0.953125,1.341463,-0.243902,0.731707,-6.087500,-2.275000,34.331249,0.0,1.000000,0.000000,0.000000,0.000000
1782115678.241197,181230,-0.189941,0.247559,0.953125,1.341463,-0.243902,0.731707,-6.087500,-2.275000,34.331249,0.0,1.000000,0.000000,0.000000,0.000000
1782115678.251197,181240,-0.189941,0.246094,0.950684,1.219512,-0.060976,0.609756,-6.062500,-2.256250,34.306252,0.0,1.000000,0.000000,0.000000,0.000000
1782115678.261197,181250,-0.191406,0.246582,0.945801,0.609756,-0.060976,0.731707,-6.062500,-2.256250,34.306252,0.0,1.000000,0.000000,0.000000,0.000000
1782115678.273197,181262,-0.185059,0.243652,0.944336,0.243902,-0.487805,0.487805,-6.112500,-2.375000,34.331249,0.0,1.000000,0.000000,0.000000,0.000000
1782115678.281197,181270,-0.185059,0.252441,0.941406,-0.182927,0.121951,0.853659,-6.112500,-2.375000,34.331249,0.0,1.000000,0.000000,0.000000,0.000000
1782115678.291197,181280,-0.190918,0.248535,0.949219,0.792683,0.121951,1.097561,-6.031250,-2.275000,34.312500,0.0,1.000000,0.000000,0.000000,0.000000
1782115678.301197,181290,-0.189941,0.250488,0.952637,1.219512,-0.426829,0.975610,-6.031250,-2.275000,34.312500,0.0,1.000000,0.000000,0.000000,0.000000
1782115678.313197,181302,-0.186523,0.247070,0.946289,0.609756,-0.243902,0.731707,-6.118750,-2.406250,34.337502,0.0,1.000000,0.000000,0.000000,0.000000
1782115678.321197,181310,-0.186523,0.247070,0.946289,0.609756,-0.243902,0.731707,-6.118750,-2.406250,34.337502,0.0,1.000000,0.000000,0.000000,0.000000
1782115678.332197,181321,-0.183594,0.246094,0.942383,-0.426829,0.000000,0.731707,-6.100000,-2.293750,34.318752,0.0,1.000000,0.000000,0.000000,0.000000
1782115678.342197,181331,-0.187012,0.245605,0.947754,0.121951,0.060976,1.036585,-6.187500,-2.425000,34.281250,0.0,1.000000,0.000000,0.000000,0.000000
1782115678.354197,181343,-0.187500,0.247559,0.951172,0.792683,0.000000,1.158537,-6.187500,-2.425000,34.281250,0.0,1.000000,0.000000,0.000000,0.000000
1782115678.361197,181350,-0.191406,0.249512,0.953125,1.097561,-0.121951,1.158537,-6.006250,-2.218750,34.293751,0.0,1.000000,0.000000,0.000000,0.000000
1782115678.372197,181361,-0.187988,0.248047,0.947754,0.853659,-0.121951,0.914634,-6.006250,-2.218750,34.293751,0.0,1.000000,0.000000,0.000000,0.000000
1782115678.381197,181370,-0.187012,0.248535,0.945312,0.426829,0.000000,1.036585,-6.125000,-2.275000,34.281250,0.0,1.000000,0.000000,0.000000,0.000000
1782115678.393197,181382,-0.185059,0.246094,0.944824,0.304878,-0.548781,0.792683,-6.125000,-2.275000,34.281250,0.0,1.000000,0.000000,0.000000,0.000000
1782115678.401197,181390,-0.184082,0.248047,0.944824,0.060976,-0.121951,0.975610,-6.056250,-2.312500,34.312500,0.0,1.000000,0.000000,0.000000,0.000000
1782115678.411197,181400,-0.184570,0.251465,0.945801,0.060976,0.121951,1.097561,-6.056250,-2.312500,34.312500,0.0,1.000000,0.000000,0.000000,0.000000
1782115678.421197,181410,-0.189941,0.251953,0.948242,0.548781,0.365854,1.463415,-6.087500,-2.300000,34.299999,0.0,1.000000,0.000000,0.000000,0.000000
1782115678.434197,181423,-0.189453,0.247070,0.954590,1.036585,-0.487805,1.097561,-6.087500,-2.300000,34.299999,0.0,1.000000,0.000000,0.000000,0.000000
1782115678.441197,181430,-0.187012,0.247559,0.944336,0.121951,-0.243902,0.792683,-6.087500,-2.281250,34.318752,0.0,1.000000,0.000000,0.000000,0.000000
1782115678.451197,181440,-0.187012,0.247070,0.945312,-0.243902,-0.121951,0.975610,-6.087500,-2.281250,34.318752,0.0,1.000000,0.000000,0.000000,0.000000
1782115678.461197,181450,-0.187500,0.246094,0.945312,-0.487805,-0.121951,1.036585,-6.093750,-2.287500,34.268749,0.0,1.000000,0.000000,0.000000,0.000000
1782115678.471197,181460,-0.188477,0.245605,0.943848,-0.609756,0.182927,1.280488,-6.093750,-2.287500,34.268749,0.0,1.000000,0.000000,0.000000,0.000000
1782115678.481197,181470,-0.193359,0.246582,0.951172,0.182927,-0.060976,1.341463,-6.093750,-2.262500,34.268749,0.0,1.000000,0.000000,0.000000,0.000000
1782115678.491197,181480,-0.190918,0.243652,0.950684,0.548781,-0.548781,1.097561,-6.093750,-2.262500,34.268749,0.0,1.000000,0.000000,0.000000,0.000000
1782115678.501197,181490,-0.188477,0.243164,0.947754,0.304878,-0.487805,1.036585,-6.106250,-2.250000,34.312500,0.0,1.000000,0.000000,0.000000,0.000000
1782115678.511197,181500,-0.188477,0.243652,0.945312,-0.365854,-0.548781,0.853659,-6.106250,-2.250000,34.312500,0.0,1.000000,0.000000,0.000000,0.000000
1782115678.521197,181510,-0.188477,0.241699,0.945801,-0.548781,-0.365854,0.792683,-6.106250,-2.312500,34.237499,0.0,1.000000,0.000000,0.000000,0.000000
1782115678.531197,181520,-0.191406,0.242188,0.949707,0.000000,-0.121951,1.097561,-6.106250,-2.312500,34.237499,0.0,1.000000,0.000000,0.000000,0.000000
1782115678.542197,181531,-0.192871,0.240723,0.953613,0.853659,-0.243902,1.158537,-6.168750,-2.293750,34.212502,0.0,1.000000,0.000000,0.000000,0.000000
1782115678.552197,181541,-0.188477,0.237305,0.955566,1.097561,-0.731707,0.792683,-6.168750,-2.293750,34.212502,0.0,1.000000,0.000000,0.000000,0.000000
1782115678.561197,181550,-0.184082,0.239746,0.947754,0.426829,-0.548781,0.609756,-6.200000,-2.325000,34.218750,0.0,1.000000,0.000000,0.000000,0.000000
1782115678.571197,181560,-0.182617,0.241211,0.940918,-0.121951,-0.304878,0.731707,-6.200000,-2.325000,34.218750,0.0,1.000000,0.000000,0.000000,0.000000
1782115678.581197,181570,-0.182617,0.243652,0.947266,0.365854,-0.060976,0.914634,-6.181250,-2.350000,34.200001,0.0,1.000000,0.000000,0.000000,0.000000
1782115678.591197,181580,-0.185059,0.243652,0.951172,1.036585,-0.121951,1.036585,-6.181250,-2.350000,34.200001,0.0,1.000000,0.000000,0.000000,0.000000
1782115678.601197,181590,-0.184082,0.242188,0.951660,1.280488,-0.182927,1.097561,-6.231250,-2.356250,34.287502,0.0,1.000000,0.000000,0.000000,0.000000
1782115678.611197,181600,-0.184570,0.244141,0.949219,1.341463,-0.304878,0.975610,-6.231250,-2.356250,34.287502,0.0,1.000000,0.000000,0.000000,0.000000
1782115678.621197,181610,-0.178711,0.244629,0.945312,1.158537,-0.304878,0.670732,-6.187500,-2.368750,34.193752,0.0,1.000000,0.000000,0.000000,0.000000
1782115678.631197,181620,-0.180176,0.244629,0.945801,0.670732,-0.060976,0.792683,-6.187500,-2.368750,34.193752,0.0,1.000000,0.000000,0.000000,0.000000
1782115678.641197,181630,-0.181641,0.244629,0.944824,0.426829,-0.182927,0.853659,-6.181250,-2.325000,34.218750,0.0,1.000000,0.000000,0.000000,0.000000
1782115678.651197,181640,-0.181152,0.243652,0.945801,0.609756,-0.121951,0.914634,-6.181250,-2.325000,34.218750,0.0,1.000000,0.000000,0.000000,0.000000
1782115678.662197,181651,-0.184082,0.244629,0.949219,0.792683,0.060976,0.914634,-6.137500,-2.356250,34.193752,0.0,1.000000,0.000000,0.000000,0.000000
1782115678.671197,181660,-0.185547,0.243652,0.950684,0.975610,0.000000,0.914634,-6.112500,-2.293750,34.275002,0.0,1.000000,0.000000,0.000000,0.000000
1782115678.681197,181670,-0.184570,0.243652,0.950195,0.853659,-0.121951,0.792683,-6.112500,-2.293750,34.275002,0.0,1.000000,0.000000,0.000000,0.000000
1782115678.691197,181680,-0.186035,0.242676,0.946289,0.609756,-0.182927,0.670732,-6.168750,-2.343750,34.256252,0.0,1.000000,0.000000,0.000000,0.000000
1782115678.701197,181690,-0.181641,0.243652,0.943848,0.426829,-0.182927,0.487805,-6.168750,-2.343750,34.256252,0.0,1.000000,0.000000,0.000000,0.000000
1782115678.712197,181701,-0.184570,0.244629,0.944336,0.731707,0.060976,0.609756,-6.168750,-2.325000,34.281250,0.0,1.000000,0.000000,0.000000,0.000000
1782115678.724197,181713,-0.187988,0.244141,0.951172,1.463415,0.000000,0.487805,-6.168750,-2.325000,34.281250,0.0,1.000000,0.000000,0.000000,0.000000
1782115678.731197,181720,-0.188477,0.245117,0.952148,1.524390,-0.060976,0.304878,-6.075000,-2.262500,34.268749,0.0,1.000000,0.000000,0.000000,0.000000
1782115678.742197,181731,-0.188477,0.244141,0.951172,1.524390,-0.243902,0.426829,-6.075000,-2.262500,34.268749,0.0,1.000000,0.000000,0.000000,0.000000
1782115678.752197,181741,-0.184570,0.243652,0.947266,0.914634,-0.304878,0.304878,-6.137500,-2.300000,34.312500,0.0,1.000000,0.000000,0.000000,0.000000
1782115678.762197,181751,-0.185059,0.243652,0.945801,0.365854,-0.304878,0.121951,-6.137500,-2.300000,34.312500,0.0,1.000000,0.000000,0.000000,0.000000
1782115678.771197,181760,-0.185059,0.248535,0.943848,0.182927,-0.121951,0.060976,-6.012500,-2.237500,34.299999,0.0,1.000000,0.000000,0.000000,0.000000
1782115678.781197,181770,-0.188965,0.250488,0.947754,0.670732,0.243902,0.365854,-6.012500,-2.237500,34.299999,0.0,1.000000,0.000000,0.000000,0.000000
1782115678.792197,181781,-0.191406,0.247070,0.955078,1.463415,-0.304878,0.365854,-6.037500,-2.262500,34.299999,0.0,1.000000,0.000000,0.000000,0.000000
1782115678.801197,181790,-0.189453,0.248047,0.953125,1.585366,-0.426829,0.243902,-6.037500,-2.262500,34.299999,0.0,1.000000,0.000000,0.000000,0.000000
1782115678.811197,181800,-0.187500,0.247559,0.946777,1.036585,-0.426829,0.182927,-6.056250,-2.281250,34.275002,0.0,1.000000,0.000000,0.000000,0.000000
1782115678.821197,181810,-0.184082,0.246582,0.941895,0.304878,-0.365854,0.243902,-6.056250,-2.281250,34.275002,0.0,1.000000,0.000000,0.000000,0.000000
1782115678.831197,181820,-0.181641,0.249023,0.945801,0.731707,-0.548781,0.182927,-6.081250,-2.281250,34.275002,0.0,1.000000,0.000000,0.000000,0.000000
1782115678.841197,181830,-0.185547,0.251953,0.949219,0.853659,0.182927,0.365854,-6.081250,-2.281250,34.275002,0.0,1.000000,0.000000,0.000000,0.000000
1782115678.851197,181840,-0.190918,0.252441,0.949707,1.036585,0.304878,0.731707,-6.068750,-2.331250,34.287502,0.0,1.000000,0.000000,0.000000,0.000000
1782115678.861197,181850,-0.187988,0.249023,0.953613,1.524390,-0.487805,0.670732,-6.068750,-2.331250,34.287502,0.0,1.000000,0.000000,0.000000,0.000000
1782115678.871197,181860,-0.186035,0.248047,0.948242,0.731707,-0.487805,0.670732,-6.100000,-2.331250,34.275002,0.0,1.000000,0.000000,0.000000,0.000000
1782115678.881197,181870,-0.184082,0.248047,0.941895,-0.243902,-0.182927,0.548781,-6.100000,-2.331250,34.275002,0.0,1.000000,0.000000,0.000000,0.000000
1782115678.891197,181880,-0.182617,0.249023,0.943848,-0.243902,-0.121951,0.731707,-5.962500,-2.181250,34.275002,0.0,1.000000,0.000000,0.000000,0.000000
1782115678.901197,181890,-0.186035,0.251465,0.945312,0.000000,0.182927,0.914634,-5.962500,-2.181250,34.275002,0.0,1.000000,0.000000,0.000000,0.000000
1782115678.911197,181900,-0.188965,0.251953,0.950684,0.670732,0.060976,0.975610,-6.150000,-2.381250,34.306252,0.0,1.000000,0.000000,0.000000,0.000000
1782115678.921197,181910,-0.189453,0.250977,0.947754,0.792683,-0.243902,0.914634,-6.150000,-2.381250,34.306252,0.0,1.000000,0.000000,0.000000,0.000000
1782115678.931197,181920,-0.186523,0.250977,0.946777,0.731707,-0.365854,0.914634,-6.106250,-2.306250,34.275002,0.0,1.000000,0.000000,0.000000,0.000000
1782115678.941197,181930,-0.185547,0.248535,0.947266,0.365854,-0.243902,0.914634,-6.106250,-2.306250,34.275002,0.0,1.000000,0.000000,0.000000,0.000000
1782115678.951197,181940,-0.184570,0.247559,0.943359,-0.304878,-0.304878,0.914634,-6.056250,-2.306250,34.275002,0.0,1.000000,0.000000,0.000000,0.000000
1782115678.962197,181951,-0.185547,0.248535,0.942383,-0.609756,0.365854,1.158537,-6.037500,-2.287500,34.237499,0.0,1.000000,0.000000,0.000000,0.000000
1782115678.972197,181961,-0.189453,0.250000,0.951172,0.487805,0.243902,1.463415,-6.037500,-2.287500,34.237499,0.0,1.000000,0.000000,0.000000,0.000000
1782115678.982197,181971,-0.190430,0.247070,0.954102,0.975610,-0.121951,1.280488,-6.075000,-2.300000,34.299999,0.0,1.000000,0.000000,0.000000,0.000000
1782115678.991197,181980,-0.190430,0.247070,0.954102,0.975610,-0.121951,1.280488,-6.075000,-2.300000,34.299999,0.0,1.000000,0.000000,0.000000,0.000000
1782115679.002197,181991,-0.187012,0.244629,0.948730,0.609756,-0.182927,1.158537,-6.093750,-2.337500,34.268749,0.0,1.000000,0.000000,0.000000,0.000000
1782115679.012197,182001,-0.186035,0.246094,0.946777,0.060976,-0.182927,1.036585,-6.093750,-2.337500,34.268749,0.0,1.000000,0.000000,0.000000,0.000000
1782115679.021197,182010,-0.186035,0.246582,0.942871,-0.426829,0.000000,1.097561,-6.118750,-2.306250,34.287502,0.0,1.000000,0.000000,0.000000,0.000000
1782115679.031197,182020,-0.189941,0.246582,0.943848,-0.304878,0.426829,1.341463,-6.118750,-2.306250,34.287502,0.0,1.000000,0.000000,0.000000,0.000000
1782115679.041197,182030,-0.187500,0.246582,0.947754,0.365854,0.243902,1.402439,-5.887500,-2.062500,34.287502,0.0,1.000000,0.000000,0.000000,0.000000
1782115679.051197,182040,-0.191895,0.245117,0.953613,1.280488,-0.243902,1.402439,-5.887500,-2.062500,34.287502,0.0,1.000000,0.000000,0.000000,0.000000
1782115679.061197,182050,-0.186523,0.244141,0.949219,1.036585,-0.365854,1.036585,-6.112500,-2.256250,34.306252,0.0,1.000000,0.000000,0.000000,0.000000
1782115679.071197,182060,-0.185547,0.242676,0.947266,0.304878,-0.243902,0.975610,-6.112500,-2.256250,34.306252,0.0,1.000000,0.000000,0.000000,0.000000
1782115679.081197,182070,-0.187012,0.241211,0.943848,-0.609756,-0.243902,0.914634,-6.081250,-2.300000,34.331249,0.0,1.000000,0.000000,0.000000,0.000000
1782115679.091197,182080,-0.184570,0.243652,0.943359,-0.304878,-0.060976,0.975610,-6.081250,-2.300000,34.331249,0.0,1.000000,0.000000,0.000000,0.000000
1782115679.101197,182090,-0.188965,0.244141,0.949219,0.304878,0.365854,1.219512,-6.156250,-2.287500,34.250000,0.0,1.000000,0.000000,0.000000,0.000000
1782115679.111197,182100,-0.189941,0.239746,0.954102,1.158537,-0.121951,0.853659,-6.156250,-2.287500,34.250000,0.0,1.000000,0.000000,0.000000,0.000000
1782115679.123197,182112,-0.187012,0.239746,0.949707,0.975610,-0.426829,0.670732,-6.125000,-2.275000,34.237499,0.0,1.000000,0.000000,0.000000,0.000000
1782115679.131197,182120,-0.185059,0.243652,0.944824,0.548781,-0.365854,0.670732,-6.125000,-2.275000,34.237499,0.0,1.000000,0.000000,0.000000,0.000000
1782115679.142197,182131,-0.185059,0.243164,0.941895,0.060976,0.060976,1.036585,-6.131250,-2.337500,34.299999,0.0,1.000000,0.000000,0.000000,0.000000
1782115679.151197,182140,-0.184570,0.244141,0.945801,0.548781,-0.182927,0.853659,-6.131250,-2.337500,34.299999,0.0,1.000000,0.000000,0.000000,0.000000
1782115679.161197,182150,-0.185547,0.245117,0.948730,0.853659,-0.182927,0.792683,-6.181250,-2.318750,34.225002,0.0,1.000000,0.000000,0.000000,0.000000
1782115679.172197,182161,-0.186523,0.247559,0.952148,1.341463,-0.243902,0.670732,-6.181250,-2.318750,34.225002,0.0,1.000000,0.000000,0.000000,0.000000
1782115679.181197,182170,-0.185059,0.248047,0.953613,1.585366,-0.548781,0.426829,-6.175000,-2.350000,34.293751,0.0,1.000000,0.000000,0.000000,0.000000
1782115679.192197,182181,-0.185547,0.245605,0.946289,0.731707,-0.182927,0.548781,-6.175000,-2.350000,34.293751,0.0,1.000000,0.000000,0.000000,0.000000
1782115679.203197,182192,-0.185547,0.243164,0.945801,-0.121951,0.060976,0.670732,-6.212500,-2.356250,34.287502,0.0,1.000000,0.000000,0.000000,0.000000
1782115679.211197,182200,-0.185547,0.244629,0.945801,0.000000,-0.060976,0.731707,-6.212500,-2.356250,34.287502,0.0,1.000000,0.000000,0.000000,0.000000
1782115679.221197,182210,-0.187500,0.245605,0.950195,0.670732,-0.060976,0.853659,-6.137500,-2.312500,34.250000,0.0,1.000000,0.000000,0.000000,0.000000
1782115679.232197,182221,-0.188477,0.245605,0.951172,0.975610,-0.060976,0.670732,-6.137500,-2.312500,34.250000,0.0,1.000000,0.000000,0.000000,0.000000
1782115679.241197,182230,-0.187988,0.244629,0.946777,0.609756,0.060976,0.670732,-6.225000,-2.337500,34.262501,0.0,1.000000,0.000000,0.000000,0.000000
1782115679.251197,182240,-0.189453,0.244141,0.943359,0.182927,-0.121951,0.670732,-6.225000,-2.337500,34.262501,0.0,1.000000,0.000000,0.000000,0.000000
1782115679.261197,182250,-0.188477,0.244141,0.943359,0.182927,-0.365854,0.548781,-6.093750,-2.243750,34.306252,0.0,1.000000,0.000000,0.000000,0.000000
1782115679.271197,182260,-0.188477,0.245117,0.943848,0.426829,-0.304878,0.609756,-6.237500,-2.400000,34.231251,0.0,1.000000,0.000000,0.000000,0.000000
1782115679.281197,182270,-0.185059,0.248047,0.945801,1.036585,-0.121951,0.670732,-6.237500,-2.400000,34.231251,0.0,1.000000,0.000000,0.000000,0.000000
1782115679.291197,182280,-0.192383,0.248047,0.950195,1.463415,0.060976,0.853659,-6.100000,-2.306250,34.225002,0.0,1.000000,0.000000,0.000000,0.000000
1782115679.301197,182290,-0.187500,0.245117,0.949707,1.646341,-0.487805,0.670732,-6.100000,-2.306250,34.225002,0.0,1.000000,0.000000,0.000000,0.000000
1782115679.311197,182300,-0.183105,0.244629,0.945312,1.341463,-0.243902,0.731707,-6.106250,-2.300000,34.331249,0.0,1.000000,0.000000,0.000000,0.000000
1782115679.322197,182311,-0.181152,0.245605,0.944824,0.548781,0.000000,0.975610,-6.106250,-2.300000,34.331249,0.0,1.000000,0.000000,0.000000,0.000000
1782115679.331197,182320,-0.180176,0.246094,0.948242,0.182927,-0.060976,1.036585,-5.931250,-2.125000,34.331249,0.0,1.000000,0.000000,0.000000,0.000000
1782115679.341197,182330,-0.182617,0.249512,0.947754,0.243902,0.182927,1.219512,-5.931250,-2.125000,34.331249,0.0,1.000000,0.000000,0.000000,0.000000
1782115679.351197,182340,-0.183105,0.248535,0.950195,0.609756,0.060976,1.158537,-6.100000,-2.318750,34.287502,0.0,1.000000,0.000000,0.000000,0.000000
1782115679.362197,182351,-0.187012,0.249023,0.951172,0.731707,0.000000,1.158537,-6.100000,-2.318750,34.287502,0.0,1.000000,0.000000,0.000000,0.000000
1782115679.371197,182360,-0.183105,0.248535,0.951172,0.853659,-0.365854,0.792683,-6.075000,-2.300000,34.312500,0.0,1.000000,0.000000,0.000000,0.000000
1782115679.381197,182370,-0.184082,0.246582,0.944824,0.000000,0.182927,0.731707,-6.075000,-2.300000,34.312500,0.0,1.000000,0.000000,0.000000,0.000000
1782115679.391197,182380,-0.187012,0.246582,0.945312,-0.304878,0.121951,0.731707,-5.906250,-2.025000,34.393749,0.0,1.000000,0.000000,0.000000,0.000000
1782115679.402197,182391,-0.187988,0.245605,0.944824,-0.243902,-0.060976,0.670732,-5.906250,-2.025000,34.393749,0.0,1.000000,0.000000,0.000000,0.000000
1782115679.411197,182400,-0.190430,0.248047,0.945801,-0.121951,0.304878,0.731707,-6.062500,-2.225000,34.331249,0.0,1.000000,0.000000,0.000000,0.000000
1782115679.421197,182410,-0.193848,0.245605,0.951660,0.670732,-0.121951,0.670732,-6.062500,-2.225000,34.331249,0.0,1.000000,0.000000,0.000000,0.000000
1782115679.431197,182420,-0.190430,0.242676,0.951660,0.731707,-0.426829,0.365854,-6.118750,-2.256250,34.243752,0.0,1.000000,0.000000,0.000000,0.000000
1782115679.442197,182431,-0.189453,0.240723,0.948242,0.304878,-0.304878,0.121951,-6.118750,-2.256250,34.243752,0.0,1.000000,0.000000,0.000000,0.000000
1782115679.451197,182440,-0.186523,0.242188,0.942383,-0.304878,-0.243902,0.182927,-6.081250,-2.243750,34.368752,0.0,1.000000,0.000000,0.000000,0.000000
1782115679.461197,182450,-0.187012,0.245117,0.946289,0.121951,-0.365854,0.304878,-6.081250,-2.243750,34.368752,0.0,1.000000,0.000000,0.000000,0.000000
1782115679.471197,182460,-0.187500,0.247070,0.949219,0.670732,0.000000,0.609756,-6.181250,-2.350000,34.262501,0.0,1.000000,0.000000,0.000000,0.000000
1782115679.481197,182470,-0.191895,0.244141,0.951172,1.036585,-0.121951,0.670732,-6.181250,-2.350000,34.262501,0.0,1.000000,0.000000,0.000000,0.000000
1782115679.491197,182480,-0.185547,0.245117,0.952148,1.219512,-0.548781,0.304878,-6.081250,-2.256250,34.368752,0.0,1.000000,0.000000,0.000000,0.000000
1782115679.502197,182491,-0.187988,0.246582,0.945801,0.670732,-0.060976,0.548781,-6.081250,-2.256250,34.368752,0.0,1.000000,0.000000,0.000000,0.000000
1782115679.511197,182500,-0.187500,0.245117,0.944336,0.243902,-0.121951,0.731707,-6.206250,-2.381250,34.243752,0.0,1.000000,0.000000,0.000000,0.000000
1782115679.523197,182512,-0.187500,0.245605,0.947266,0.365854,-0.121951,0.853659,-6.131250,-2.300000,34.299999,0.0,1.000000,0.000000,0.000000,0.000000
1782115679.531197,182520,-0.187988,0.246582,0.947266,0.548781,0.060976,0.975610,-6.131250,-2.300000,34.299999,0.0,1.000000,0.000000,0.000000,0.000000
1782115679.541197,182530,-0.187988,0.247559,0.955566,1.280488,-0.121951,1.097561,-6.131250,-2.300000,34.299999,0.0,1.000000,0.000000,0.000000,0.000000
1782115679.551197,182540,-0.185059,0.245117,0.951172,1.097561,-0.487805,0.853659,-6.212500,-2.412500,34.312500,0.0,1.000000,0.000000,0.000000,0.000000
1782115679.561197,182550,-0.184570,0.244141,0.945801,0.548781,-0.243902,0.731707,-6.212500,-2.412500,34.312500,0.0,1.000000,0.000000,0.000000,0.000000
1782115679.571197,182560,-0.182129,0.244141,0.944336,0.243902,0.182927,0.975610,-6.206250,-2.375000,34.262501,0.0,1.000000,0.000000,0.000000,0.000000
1782115679.582197,182571,-0.186523,0.244141,0.945801,0.365854,0.304878,1.341463,-5.956250,-2.087500,34.299999,0.0,1.000000,0.000000,0.000000,0.000000
1782115679.591197,182580,-0.187012,0.244629,0.946777,0.914634,0.182927,1.280488,-5.956250,-2.087500,34.299999,0.0,1.000000,0.000000,0.000000,0.000000
1782115679.602197,182591,-0.186035,0.245117,0.948730,1.463415,0.060976,1.402439,-6.143750,-2.293750,34.243752,0.0,1.000000,0.000000,0.000000,0.000000
1782115679.612197,182601,-0.185547,0.245117,0.949707,1.463415,0.000000,1.341463,-6.143750,-2.293750,34.243752,0.0,1.000000,0.000000,0.000000,0.000000
1782115679.621197,182610,-0.181152,0.242676,0.945312,0.670732,-0.304878,0.975610,-6.131250,-2.293750,34.368752,0.0,1.000000,0.000000,0.000000,0.000000
1782115679.631197,182620,-0.182129,0.245605,0.943359,0.304878,0.060976,1.097561,-6.131250,-2.293750,34.368752,0.0,1.000000,0.000000,0.000000,0.000000
1782115679.643197,182632,-0.183105,0.244141,0.946777,0.548781,0.000000,1.097561,-6.125000,-2.281250,34.306252,0.0,1.000000,0.000000,0.000000,0.000000
1782115679.651197,182640,-0.187500,0.243652,0.948730,0.487805,0.243902,1.036585,-6.125000,-2.281250,34.306252,0.0,1.000000,0.000000,0.000000,0.000000
1782115679.661197,182650,-0.187500,0.245117,0.950684,0.975610,0.121951,0.914634,-6.125000,-2.225000,34.250000,0.0,1.000000,0.000000,0.000000,0.000000
1782115679.671197,182660,-0.187500,0.246094,0.952637,1.097561,-0.121951,0.670732,-6.125000,-2.225000,34.250000,0.0,1.000000,0.000000,0.000000,0.000000
1782115679.684197,182673,-0.187012,0.244629,0.946777,0.548781,-0.060976,0.304878,-6.100000,-2.287500,34.331249,0.0,1.000000,0.000000,0.000000,0.000000
1782115679.691197,182680,-0.188477,0.242676,0.943848,0.000000,0.000000,0.304878,-6.100000,-2.287500,34.331249,0.0,1.000000,0.000000,0.000000,0.000000
1782115679.701197,182690,-0.187988,0.243164,0.946289,0.548781,-0.121951,0.121951,-6.075000,-2.256250,34.337502,0.0,1.000000,0.000000,0.000000,0.000000
1782115679.712197,182701,-0.190918,0.246582,0.947266,0.792683,0.182927,0.182927,-6.075000,-2.256250,34.337502,0.0,1.000000,0.000000,0.000000,0.000000
1782115679.724197,182713,-0.191895,0.246094,0.950195,1.524390,-0.060976,0.182927,-6.106250,-2.262500,34.312500,0.0,1.000000,0.000000,0.000000,0.000000
1782115679.731197,182720,-0.189941,0.243652,0.954102,1.829268,-0.426829,0.060976,-6.106250,-2.262500,34.312500,0.0,1.000000,0.000000,0.000000,0.000000
1782115679.741197,182730,-0.189941,0.244141,0.946777,1.036585,-0.243902,0.182927,-5.987500,-2.212500,34.318752,0.0,1.000000,0.000000,0.000000,0.000000
1782115679.751197,182740,-0.186035,0.244629,0.943359,0.426829,-0.426829,0.121951,-5.987500,-2.212500,34.318752,0.0,1.000000,0.000000,0.000000,0.000000
1782115679.764197,182753,-0.184082,0.246094,0.943848,0.304878,-0.182927,0.304878,-6.168750,-2.331250,34.306252,0.0,1.000000,0.000000,0.000000,0.000000
1782115679.771197,182760,-0.188477,0.248535,0.947266,0.975610,0.121951,0.670732,-6.168750,-2.331250,34.306252,0.0,1.000000,0.000000,0.000000,0.000000
1782115679.782197,182771,-0.190918,0.249512,0.954102,1.768293,0.000000,0.792683,-6.081250,-2.312500,34.299999,0.0,1.000000,0.000000,0.000000,0.000000
1782115679.792197,182781,-0.187012,0.246094,0.951660,1.524390,-0.365854,0.548781,-6.081250,-2.312500,34.299999,0.0,1.000000,0.000000,0.000000,0.000000
1782115679.804197,182793,-0.184082,0.248535,0.945312,0.914634,-0.243902,0.548781,-6.118750,-2.406250,34.306252,0.0,1.000000,0.000000,0.000000,0.000000
1782115679.812197,182801,-0.187500,0.252930,0.940430,0.365854,0.121951,0.914634,-6.118750,-2.406250,34.306252,0.0,1.000000,0.000000,0.000000,0.000000
1782115679.821197,182810,-0.186035,0.251465,0.945312,0.670732,-0.243902,0.914634,-6.025000,-2.275000,34.362499,0.0,1.000000,0.000000,0.000000,0.000000
1782115679.831197,182820,-0.189453,0.253418,0.949219,0.914634,0.000000,1.036585,-6.025000,-2.275000,34.362499,0.0,1.000000,0.000000,0.000000,0.000000
1782115679.843197,182832,-0.189453,0.253418,0.949219,0.914634,0.000000,1.036585,-6.068750,-2.337500,34.331249,0.0,1.000000,0.000000,0.000000,0.000000
1782115679.851197,182840,-0.191895,0.254395,0.948242,1.097561,-0.060976,0.914634,-6.068750,-2.337500,34.331249,0.0,1.000000,0.000000,0.000000,0.000000
1782115679.861197,182850,-0.192383,0.253418,0.947754,1.219512,-0.121951,0.792683,-6.093750,-2.368750,34.318752,0.0,1.000000,0.000000,0.000000,0.000000
1782115679.871197,182860,-0.187988,0.250977,0.945801,0.853659,-0.182927,0.792683,-6.093750,-2.375000,34.250000,0.0,1.000000,0.000000,0.000000,0.000000
1782115679.881197,182870,-0.185059,0.250488,0.942871,0.121951,-0.365854,0.731707,-6.093750,-2.375000,34.250000,0.0,1.000000,0.000000,0.000000,0.000000
1782115679.891197,182880,-0.183105,0.249512,0.942871,-0.243902,-0.304878,0.853659,-6.050000,-2.231250,34.368752,0.0,1.000000,0.000000,0.000000,0.000000
1782115679.901197,182890,-0.185059,0.250977,0.945312,-0.121951,0.000000,1.036585,-6.050000,-2.231250,34.368752,0.0,1.000000,0.000000,0.000000,0.000000
1782115679.911197,182900,-0.186035,0.250488,0.949707,0.609756,-0.060976,1.219512,-6.081250,-2.325000,34.343750,0.0,1.000000,0.000000,0.000000,0.000000
1782115679.923197,182912,-0.187988,0.248535,0.951660,0.731707,-0.243902,1.158537,-6.081250,-2.325000,34.343750,0.0,1.000000,0.000000,0.000000,0.000000
1782115679.931197,182920,-0.186523,0.247559,0.951660,0.731707,-0.182927,1.036585,-6.062500,-2.262500,34.331249,0.0,1.000000,0.000000,0.000000,0.000000
1782115679.941197,182930,-0.186035,0.243164,0.948242,-0.060976,-0.243902,1.036585,-6.062500,-2.262500,34.331249,0.0,1.000000,0.000000,0.000000,0.000000
1782115679.951197,182940,-0.184570,0.246582,0.941406,-1.036585,-0.182927,1.097561,-6.106250,-2.306250,34.306252,0.0,1.000000,0.000000,0.000000,0.000000
1782115679.964197,182953,-0.185059,0.247559,0.943359,-0.487805,-0.060976,1.158537,-6.106250,-2.306250,34.306252,0.0,1.000000,0.000000,0.000000,0.000000
1782115679.972197,182961,-0.189453,0.249023,0.948242,0.365854,0.121951,1.280488,-6.100000,-2.225000,34.299999,0.0,1.000000,0.000000,0.000000,0.000000
1782115679.982197,182971,-0.191895,0.250000,0.952637,1.097561,-0.121951,1.280488,-6.100000,-2.225000,34.299999,0.0,1.000000,0.000000,0.000000,0.000000
1782115679.991197,182980,-0.191895,0.244629,0.953125,1.280488,-0.487805,1.036585,-6.050000,-2.206250,34.325001,0.0,1.000000,0.000000,0.000000,0.000000
1782115680.002197,182991,-0.187500,0.242188,0.947266,0.121951,-0.365854,0.792683,-6.050000,-2.206250,34.325001,0.0,1.000000,0.000000,0.000000,0.000000
1782115680.011197,183000,-0.187012,0.242188,0.941406,-0.914634,-0.060976,0.975610,-6.087500,-2.237500,34.362499,0.0,1.000000,0.000000,0.000000,0.000000
1782115680.021197,183010,-0.188965,0.243652,0.943359,-0.670732,0.000000,1.158537,-6.087500,-2.237500,34.362499,0.0,1.000000,0.000000,0.000000,0.000000
1782115680.031197,183020,-0.190430,0.244141,0.948730,0.060976,-0.060976,1.341463,-6.156250,-2.243750,34.337502,0.0,1.000000,0.000000,0.000000,0.000000
1782115680.041197,183030,-0.189453,0.245605,0.952148,0.792683,-0.121951,1.158537,-6.156250,-2.243750,34.337502,0.0,1.000000,0.000000,0.000000,0.000000
1782115680.051197,183040,-0.190430,0.246582,0.953125,1.036585,-0.304878,1.158537,-6.125000,-2.312500,34.343750,0.0,1.000000,0.000000,0.000000,0.000000
1782115680.061197,183050,-0.188965,0.244141,0.947754,1.219512,-0.609756,0.975610,-6.125000,-2.312500,34.343750,0.0,1.000000,0.000000,0.000000,0.000000
1782115680.071197,183060,-0.183105,0.244629,0.942383,0.243902,-0.426829,0.914634,-6.137500,-2.343750,34.256252,0.0,1.000000,0.000000,0.000000,0.000000
1782115680.081197,183070,-0.186523,0.245117,0.945801,-0.121951,-0.121951,1.158537,-6.137500,-2.343750,34.256252,0.0,1.000000,0.000000,0.000000,0.000000
1782115680.091197,183080,-0.186523,0.247070,0.949219,0.304878,-0.182927,1.158537,-6.181250,-2.375000,34.293751,0.0,1.000000,0.000000,0.000000,0.000000
1782115680.101197,183090,-0.188965,0.246094,0.952148,0.670732,-0.121951,1.158537,-6.181250,-2.375000,34.293751,0.0,1.000000,0.000000,0.000000,0.000000
1782115680.111197,183100,-0.187500,0.245605,0.953613,1.036585,-0.060976,0.914634,-6.175000,-2.312500,34.281250,0.0,1.000000,0.000000,0.000000,0.000000
1782115680.121197,183110,-0.187012,0.245117,0.950195,0.731707,-0.243902,0.853659,-6.175000,-2.312500,34.281250,0.0,1.000000,0.000000,0.000000,0.000000
1782115680.131197,183120,-0.185059,0.240723,0.943359,-0.548781,-0.304878,0.731707,-6.187500,-2.293750,34.256252,0.0,1.000000,0.000000,0.000000,0.000000
1782115680.141197,183130,-0.185547,0.243652,0.941406,-0.853659,-0.182927,0.853659,-6.187500,-2.293750,34.256252,0.0,1.000000,0.000000,0.000000,0.000000
1782115680.151197,183140,-0.188477,0.243164,0.950195,0.243902,-0.182927,0.975610,-6.187500,-2.368750,34.243752,0.0,1.000000,0.000000,0.000000,0.000000
1782115680.161197,183150,-0.188477,0.241699,0.948242,0.731707,-0.304878,0.853659,-6.206250,-2.331250,34.318752,0.0,1.000000,0.000000,0.000000,0.000000
1782115680.171197,183160,-0.187012,0.242676,0.950684,1.341463,-0.548781,0.609756,-6.206250,-2.331250,34.318752,0.0,1.000000,0.000000,0.000000,0.000000
1782115680.181197,183170,-0.184570,0.241699,0.946777,0.914634,-0.426829,0.487805,-6.162500,-2.312500,34.268749,0.0,1.000000,0.000000,0.000000,0.000000
1782115680.191197,183180,-0.182617,0.240723,0.942871,0.304878,-0.304878,0.670732,-6.162500,-2.312500,34.268749,0.0,1.000000,0.000000,0.000000,0.000000
1782115680.201197,183190,-0.180664,0.240234,0.943359,0.304878,-0.304878,0.853659,-6.175000,-2.362500,34.262501,0.0,1.000000,0.000000,0.000000,0.000000
1782115680.211197,183200,-0.179688,0.243164,0.948242,0.548781,0.000000,1.097561,-6.175000,-2.362500,34.262501,0.0,1.000000,0.000000,0.000000,0.000000
1782115680.222197,183211,-0.183105,0.244141,0.953125,1.280488,-0.060976,1.097561,-6.106250,-2.250000,34.281250,0.0,1.000000,0.000000,0.000000,0.000000
1782115680.232197,183221,-0.181152,0.243652,0.952637,1.768293,-0.243902,0.975610,-6.106250,-2.250000,34.281250,0.0,1.000000,0.000000,0.000000,0.000000
1782115680.241197,183230,-0.178711,0.242676,0.947754,1.402439,-0.304878,0.670732,-6.206250,-2.375000,34.231251,0.0,1.000000,0.000000,0.000000,0.000000
1782115680.252197,183241,-0.177246,0.245605,0.941406,0.487805,-0.121951,0.792683,-6.206250,-2.375000,34.231251,0.0,1.000000,0.000000,0.000000,0.000000
1782115680.261197,183250,-0.180176,0.248047,0.941406,0.060976,0.182927,1.097561,-6.081250,-2.268750,34.293751,0.0,1.000000,0.000000,0.000000,0.000000
1782115680.271197,183260,-0.181641,0.248535,0.948242,0.731707,-0.121951,1.036585,-6.081250,-2.268750,34.293751,0.0,1.000000,0.000000,0.000000,0.000000
1782115680.281197,183270,-0.187500,0.250977,0.950195,1.036585,0.243902,1.036585,-6.125000,-2.281250,34.287502,0.0,1.000000,0.000000,0.000000,0.000000
1782115680.291197,183280,-0.187500,0.249023,0.953613,1.463415,-0.182927,0.609756,-6.125000,-2.281250,34.287502,0.0,1.000000,0.000000,0.000000,0.000000
1782115680.301197,183290,-0.187988,0.248535,0.950195,0.975610,0.060976,0.365854,-6.112500,-2.281250,34.275002,0.0,1.000000,0.000000,0.000000,0.000000
1782115680.311197,183300,-0.188477,0.245117,0.946289,0.182927,0.060976,0.365854,-6.112500,-2.281250,34.275002,0.0,1.000000,0.000000,0.000000,0.000000
1782115680.322197,183311,-0.187500,0.244141,0.943848,-0.548781,0.121951,0.365854,-6.112500,-2.381250,34.287502,0.0,1.000000,0.000000,0.000000,0.000000
1782115680.331197,183320,-0.188477,0.247070,0.941895,-0.426829,0.182927,0.548781,-6.112500,-2.381250,34.287502,0.0,1.000000,0.000000,0.000000,0.000000
1782115680.341197,183330,-0.186523,0.250000,0.947754,0.365854,0.121951,0.731707,-6.137500,-2.318750,34.243752,0.0,1.000000,0.000000,0.000000,0.000000
1782115680.351197,183340,-0.189941,0.248535,0.954590,1.402439,-0.060976,0.792683,-6.137500,-2.318750,34.243752,0.0,1.000000,0.000000,0.000000,0.000000
1782115680.362197,183351,-0.188477,0.245117,0.949707,1.585366,-0.304878,0.487805,-6.181250,-2.375000,34.293751,0.0,1.000000,0.000000,0.000000,0.000000
1782115680.372197,183361,-0.189941,0.246582,0.946777,0.670732,-0.121951,0.487805,-6.181250,-2.375000,34.293751,0.0,1.000000,0.000000,0.000000,0.000000
1782115680.382197,183371,-0.188477,0.242676,0.943359,-0.121951,-0.365854,0.487805,-6.093750,-2.275000,34.299999,0.0,1.000000,0.000000,0.000000,0.000000
1782115680.391197,183380,-0.185547,0.248047,0.944336,0.000000,-0.121951,0.731707,-6.093750,-2.275000,34.299999,0.0,1.000000,0.000000,0.000000,0.000000
1782115680.402197,183391,-0.189453,0.249512,0.948730,0.609756,0.060976,0.975610,-6.212500,-2.350000,34.250000,0.0,1.000000,0.000000,0.000000,0.000000
1782115680.411197,183400,-0.189453,0.248047,0.952637,1.097561,-0.121951,0.853659,-6.212500,-2.350000,34.250000,0.0,1.000000,0.000000,0.000000,0.000000
1782115680.421197,183410,-0.188965,0.249512,0.953125,1.341463,-0.060976,0.853659,-6.100000,-2.293750,34.225002,0.0,1.000000,0.000000,0.000000,0.000000
1782115680.431197,183420,-0.191406,0.247070,0.947266,0.670732,-0.182927,0.914634,-6.100000,-2.293750,34.225002,0.0,1.000000,0.000000,0.000000,0.000000
1782115680.441197,183430,-0.187012,0.247559,0.943848,-0.182927,-0.182927,0.914634,-6.137500,-2.306250,34.306252,0.0,1.000000,0.000000,0.000000,0.000000
1782115680.451197,183440,-0.186523,0.249023,0.942383,-0.304878,-0.121951,0.975610,-6.137500,-2.306250,34.306252,0.0,1.000000,0.000000,0.000000,0.000000
1782115680.461197,183450,-0.187012,0.250488,0.947754,0.243902,0.060976,1.036585,-6.056250,-2.175000,34.299999,0.0,1.000000,0.000000,0.000000,0.000000
1782115680.471197,183460,-0.188477,0.250488,0.952148,0.670732,0.060976,1.158537,-6.137500,-2.331250,34.212502,0.0,1.000000,0.000000,0.000000,0.000000
1782115680.481197,183470,-0.189941,0.246582,0.951660,0.853659,-0.060976,1.036585,-6.137500,-2.331250,34.212502,0.0,1.000000,0.000000,0.000000,0.000000
1782115680.491197,183480,-0.190918,0.244141,0.947754,0.487805,-0.182927,1.097561,-6.087500,-2.231250,34.306252,0.0,1.000000,0.000000,0.000000,0.000000
1782115680.501197,183490,-0.187500,0.240234,0.945312,0.121951,-0.365854,0.975610,-6.087500,-2.231250,34.306252,0.0,1.000000,0.000000,0.000000,0.000000
1782115680.511197,183500,-0.182617,0.243652,0.945312,-0.121951,-0.121951,0.975610,-6.175000,-2.306250,34.243752,0.0,1.000000,0.000000,0.000000,0.000000
1782115680.521197,183510,-0.184082,0.243164,0.947266,0.182927,0.182927,1.097561,-6.175000,-2.306250,34.243752,0.0,1.000000,0.000000,0.000000,0.000000
1782115680.532197,183521,-0.188965,0.245117,0.951660,0.853659,0.121951,1.097561,-6.093750,-2.250000,34.281250,0.0,1.000000,0.000000,0.000000,0.000000
1782115680.541197,183530,-0.191406,0.242676,0.951660,1.158537,-0.060976,0.914634,-6.093750,-2.250000,34.281250,0.0,1.000000,0.000000,0.000000,0.000000
1782115680.551197,183540,-0.189453,0.241699,0.947754,0.792683,-0.182927,0.792683,-6.106250,-2.293750,34.275002,0.0,1.000000,0.000000,0.000000,0.000000
1782115680.562197,183551,-0.186523,0.242188,0.947754,0.548781,-0.426829,0.731707,-6.106250,-2.293750,34.275002,0.0,1.000000,0.000000,0.000000,0.000000
1782115680.571197,183560,-0.183105,0.243652,0.948242,0.487805,-0.426829,0.548781,-6.143750,-2.300000,34.250000,0.0,1.000000,0.000000,0.000000,0.000000
1782115680.581197,183570,-0.185547,0.245605,0.945312,0.121951,0.182927,0.609756,-6.143750,-2.300000,34.250000,0.0,1.000000,0.000000,0.000000,0.000000
1782115680.591197,183580,-0.193848,0.244141,0.952148,1.036585,0.182927,0.853659,-6.118750,-2.300000,34.281250,0.0,1.000000,0.000000,0.000000,0.000000
1782115680.601197,183590,-0.187988,0.241211,0.953125,1.585366,-0.304878,0.609756,-6.118750,-2.300000,34.281250,0.0,1.000000,0.000000,0.000000,0.000000
1782115680.611197,183600,-0.189453,0.242188,0.946289,0.853659,-0.304878,0.609756,-6.131250,-2.287500,34.312500,0.0,1.000000,0.000000,0.000000,0.000000
1782115680.621197,183610,-0.184570,0.241699,0.944824,0.426829,-0.304878,0.609756,-6.131250,-2.287500,34.312500,0.0,1.000000,0.000000,0.000000,0.000000
1782115680.631197,183620,-0.181152,0.242188,0.943359,0.548781,-0.182927,0.853659,-6.125000,-2.325000,34.237499,0.0,1.000000,0.000000,0.000000,0.000000
1782115680.642197,183631,-0.183105,0.244629,0.949707,1.341463,0.060976,1.219512,-6.125000,-2.325000,34.237499,0.0,1.000000,0.000000,0.000000,0.000000
1782115680.651197,183640,-0.185059,0.243652,0.950684,1.951220,0.060976,1.158537,-6.193750,-2.393750,34.256252,0.0,1.000000,0.000000,0.000000,0.000000
1782115680.661197,183650,-0.183594,0.243652,0.950195,1.951220,-0.060976,1.158537,-6.193750,-2.393750,34.256252,0.0,1.000000,0.000000,0.000000,0.000000
1782115680.671197,183660,-0.180176,0.245117,0.948730,1.585366,-0.304878,1.097561,-6.193750,-2.356250,34.212502,0.0,1.000000,0.000000,0.000000,0.000000
1782115680.681197,183670,-0.179688,0.244141,0.945312,1.097561,-0.182927,1.036585,-6.193750,-2.356250,34.212502,0.0,1.000000,0.000000,0.000000,0.000000
1782115680.691197,183680,-0.180664,0.246582,0.940918,0.426829,0.243902,1.036585,-6.100000,-2.356250,34.337502,0.0,1.000000,0.000000,0.000000,0.000000
1782115680.701197,183690,-0.180664,0.246582,0.940918,0.426829,0.243902,1.036585,-6.100000,-2.356250,34.337502,0.0,1.000000,0.000000,0.000000,0.000000
1782115680.711197,183700,-0.185059,0.249023,0.945801,0.853659,0.243902,1.158537,-6.150000,-2.325000,34.268749,0.0,1.000000,0.000000,0.000000,0.000000
1782115680.721197,183710,-0.185547,0.249512,0.951660,1.707317,0.060976,0.975610,-6.150000,-2.325000,34.268749,0.0,1.000000,0.000000,0.000000,0.000000
1782115680.731197,183720,-0.187012,0.251953,0.946289,1.280488,0.060976,0.853659,-6.137500,-2.393750,34.256252,0.0,1.000000,0.000000,0.000000,0.000000
1782115680.741197,183730,-0.186035,0.250977,0.946289,0.914634,0.000000,0.609756,-6.137500,-2.393750,34.256252,0.0,1.000000,0.000000,0.000000,0.000000
1782115680.751197,183740,-0.184570,0.250977,0.946777,0.792683,-0.243902,0.548781,-6.131250,-2.337500,34.299999,0.0,1.000000,0.000000,0.000000,0.000000
1782115680.761197,183750,-0.184082,0.249512,0.946289,0.304878,-0.304878,0.426829,-6.131250,-2.337500,34.299999,0.0,1.000000,0.000000,0.000000,0.000000
1782115680.771197,183760,-0.186523,0.250000,0.945312,0.121951,0.060976,0.426829,-6.131250,-2.362500,34.268749,0.0,1.000000,0.000000,0.000000,0.000000
1782115680.781197,183770,-0.188965,0.250488,0.947754,0.304878,-0.060976,0.243902,-5.943750,-2.150000,34.350002,0.0,1.000000,0.000000,0.000000,0.000000
1782115680.791197,183780,-0.190918,0.250488,0.950684,0.609756,-0.365854,0.060976,-5.943750,-2.150000,34.350002,0.0,1.000000,0.000000,0.000000,0.000000
1782115680.802197,183791,-0.190918,0.249023,0.950195,0.609756,-0.182927,0.000000,-6.112500,-2.343750,34.243752,0.0,1.000000,0.000000,0.000000,0.000000
1782115680.812197,183801,-0.189941,0.246094,0.946289,0.243902,-0.243902,0.182927,-6.112500,-2.343750,34.243752,0.0,1.000000,0.000000,0.000000,0.000000
1782115680.821197,183810,-0.185059,0.247070,0.944824,-0.243902,-0.243902,0.121951,-6.081250,-2.200000,34.362499,0.0,1.000000,0.000000,0.000000,0.000000
1782115680.831197,183820,-0.187500,0.247070,0.945312,-0.060976,0.000000,0.304878,-6.081250,-2.200000,34.362499,0.0,1.000000,0.000000,0.000000,0.000000
1782115680.841197,183830,-0.190430,0.247070,0.951172,0.853659,-0.060976,0.548781,-6.106250,-2.350000,34.268749,0.0,1.000000,0.000000,0.000000,0.000000
1782115680.852197,183841,-0.189941,0.247070,0.950684,1.158537,-0.365854,0.487805,-6.106250,-2.350000,34.268749,0.0,1.000000,0.000000,0.000000,0.000000
1782115680.861197,183850,-0.187012,0.249512,0.948242,0.670732,-0.243902,0.426829,-5.956250,-2.200000,34.362499,0.0,1.000000,0.000000,0.000000,0.000000
1782115680.872197,183861,-0.188965,0.249023,0.945312,0.060976,-0.182927,0.670732,-5.956250,-2.200000,34.362499,0.0,1.000000,0.000000,0.000000,0.000000
1782115680.881197,183870,-0.186523,0.247070,0.943848,-0.365854,-0.548781,0.670732,-6.093750,-2.325000,34.331249,0.0,1.000000,0.000000,0.000000,0.000000
1782115680.891197,183880,-0.183105,0.249512,0.943359,-0.365854,-0.243902,0.853659,-6.093750,-2.325000,34.331249,0.0,1.000000,0.000000,0.000000,0.000000
1782115680.904197,183893,-0.187012,0.250977,0.947754,0.365854,-0.060976,0.975610,-6.062500,-2.281250,34.275002,0.0,1.000000,0.000000,0.000000,0.000000
1782115680.912197,183901,-0.188965,0.249023,0.951172,0.853659,-0.182927,1.097561,-6.062500,-2.281250,34.275002,0.0,1.000000,0.000000,0.000000,0.000000
1782115680.921197,183910,-0.187500,0.248535,0.951660,1.158537,-0.487805,0.914634,-6.018750,-2.212500,34.250000,0.0,1.000000,0.000000,0.000000,0.000000
1782115680.931197,183920,-0.186035,0.247559,0.946777,0.487805,-0.121951,1.036585,-6.018750,-2.212500,34.250000,0.0,1.000000,0.000000,0.000000,0.000000
1782115680.942197,183931,-0.185547,0.245605,0.945312,0.060976,-0.060976,1.219512,-6.125000,-2.343750,34.287502,0.0,1.000000,0.000000,0.000000,0.000000
1782115680.951197,183940,-0.182617,0.246094,0.944824,-0.182927,-0.121951,1.219512,-6.125000,-2.343750,34.287502,0.0,1.000000,0.000000,0.000000,0.000000
1782115680.961197,183950,-0.186035,0.246582,0.947754,0.060976,0.121951,1.402439,-6.168750,-2.362500,34.231251,0.0,1.000000,0.000000,0.000000,0.000000
1782115680.973197,183962,-0.189453,0.246094,0.949219,0.426829,0.304878,1.402439,-6.168750,-2.362500,34.231251,0.0,1.000000,0.000000,0.000000,0.000000
1782115680.981197,183970,-0.190430,0.245605,0.950684,0.975610,0.182927,1.463415,-6.143750,-2.243750,34.287502,0.0,1.000000,0.000000,0.000000,0.000000
1782115680.991197,183980,-0.190430,0.243652,0.952148,1.097561,-0.365854,1.280488,-6.143750,-2.243750,34.287502,0.0,1.000000,0.000000,0.000000,0.000000
1782115681.001197,183990,-0.186035,0.241699,0.944336,0.060976,-0.243902,1.158537,-6.162500,-2.400000,34.231251,0.0,1.000000,0.000000,0.000000,0.000000
1782115681.012197,184001,-0.184082,0.242676,0.944336,-0.182927,-0.060976,1.097561,-6.162500,-2.400000,34.231251,0.0,1.000000,0.000000,0.000000,0.000000
1782115681.022197,184011,-0.187500,0.243164,0.948242,0.487805,0.060976,1.280488,-6.125000,-2.312500,34.250000,0.0,1.000000,0.000000,0.000000,0.000000
1782115681.032197,184021,-0.189453,0.244141,0.953125,1.158537,0.243902,1.341463,-6.125000,-2.312500,34.250000,0.0,1.000000,0.000000,0.000000,0.000000
1782115681.041197,184030,-0.190430,0.241699,0.953125,1.585366,0.000000,1.219512,-6.156250,-2.381250,34.256252,0.0,1.000000,0.000000,0.000000,0.000000
1782115681.053197,184042,-0.186523,0.240723,0.945801,0.853659,-0.243902,1.097561,-6.118750,-2.368750,34.287502,0.0,1.000000,0.000000,0.000000,0.000000
1782115681.061197,184050,-0.183105,0.240723,0.945312,0.426829,-0.243902,0.914634,-6.118750,-2.368750,34.287502,0.0,1.000000,0.000000,0.000000,0.000000
1782115681.071197,184060,-0.182129,0.243164,0.944336,0.365854,-0.060976,0.914634,-6.181250,-2.312500,34.268749,0.0,1.000000,0.000000,0.000000,0.000000
1782115681.081197,184070,-0.185547,0.243652,0.949219,0.731707,-0.060976,0.853659,-6.181250,-2.312500,34.268749,0.0,1.000000,0.000000,0.000000,0.000000
1782115681.094197,184083,-0.187988,0.247070,0.950195,1.219512,0.060976,0.792683,-6.112500,-2.312500,34.281250,0.0,1.000000,0.000000,0.000000,0.000000
1782115681.101197,184090,-0.187988,0.245117,0.951660,1.463415,-0.182927,0.609756,-6.112500,-2.312500,34.281250,0.0,1.000000,0.000000,0.000000,0.000000
1782115681.111197,184100,-0.185059,0.243164,0.947754,1.219512,-0.121951,0.609756,-6.087500,-2.287500,34.281250,0.0,1.000000,0.000000,0.000000,0.000000
1782115681.121197,184110,-0.187500,0.243164,0.946289,0.792683,-0.182927,0.670732,-6.087500,-2.287500,34.281250,0.0,1.000000,0.000000,0.000000,0.000000
1782115681.133197,184122,-0.182617,0.242188,0.948242,0.426829,-0.365854,0.487805,-6.081250,-2.312500,34.331249,0.0,1.000000,0.000000,0.000000,0.000000
1782115681.141197,184130,-0.182617,0.246582,0.944824,0.121951,0.060976,0.487805,-6.081250,-2.312500,34.331249,0.0,1.000000,0.000000,0.000000,0.000000
1782115681.151197,184140,-0.186523,0.248535,0.946289,0.670732,0.182927,0.609756,-6.118750,-2.281250,34.275002,0.0,1.000000,0.000000,0.000000,0.000000
1782115681.161197,184150,-0.190430,0.249512,0.949707,1.219512,0.000000,0.609756,-6.118750,-2.281250,34.275002,0.0,1.000000,0.000000,0.000000,0.000000
1782115681.172197,184161,-0.190430,0.246094,0.952637,1.524390,-0.609756,0.426829,-6.075000,-2.287500,34.331249,0.0,1.000000,0.000000,0.000000,0.000000
1782115681.182197,184171,-0.184570,0.248047,0.945801,0.792683,-0.487805,0.182927,-6.075000,-2.287500,34.331249,0.0,1.000000,0.000000,0.000000,0.000000
1782115681.191197,184180,-0.185547,0.248047,0.940430,-0.365854,0.000000,0.304878,-6.125000,-2.312500,34.299999,0.0,1.000000,0.000000,0.000000,0.000000
1782115681.201197,184190,-0.184082,0.248535,0.944824,0.060976,-0.182927,0.304878,-6.125000,-2.312500,34.299999,0.0,1.000000,0.000000,0.000000,0.000000
1782115681.215197,184204,-0.187012,0.250488,0.948242,0.670732,0.121951,0.548781,-6.018750,-2.193750,34.306252,0.0,1.000000,0.000000,0.000000,0.000000
1782115681.221197,184210,-0.192871,0.248047,0.952148,1.097561,-0.060976,0.670732,-6.018750,-2.193750,34.306252,0.0,1.000000,0.000000,0.000000,0.000000
1782115681.231197,184220,-0.188477,0.247559,0.947266,0.853659,-0.487805,0.365854,-6.050000,-2.250000,34.331249,0.0,1.000000,0.000000,0.000000,0.000000
1782115681.241197,184230,-0.186035,0.246582,0.945312,0.304878,-0.304878,0.426829,-6.050000,-2.250000,34.331249,0.0,1.000000,0.000000,0.000000,0.000000
1782115681.254197,184243,-0.184570,0.244629,0.946777,0.243902,-0.365854,0.426829,-6.143750,-2.368750,34.275002,0.0,1.000000,0.000000,0.000000,0.000000
1782115681.261197,184250,-0.184082,0.247559,0.946777,0.304878,-0.182927,0.609756,-6.143750,-2.368750,34.275002,0.0,1.000000,0.000000,0.000000,0.000000
1782115681.271197,184260,-0.186035,0.250488,0.947266,0.426829,0.243902,0.792683,-6.087500,-2.350000,34.250000,0.0,1.000000,0.000000,0.000000,0.000000
1782115681.282197,184271,-0.188965,0.250000,0.950684,0.975610,0.060976,0.975610,-6.087500,-2.350000,34.250000,0.0,1.000000,0.000000,0.000000,0.000000
1782115681.293197,184282,-0.189453,0.244629,0.951660,1.036585,-0.243902,0.914634,-6.181250,-2.350000,34.262501,0.0,1.000000,0.000000,0.000000,0.000000
1782115681.302197,184291,-0.186523,0.244629,0.948242,0.487805,-0.365854,0.670732,-6.181250,-2.350000,34.262501,0.0,1.000000,0.000000,0.000000,0.000000
1782115681.311197,184300,-0.182617,0.246094,0.941406,-0.243902,0.060976,0.670732,-6.100000,-2.318750,34.256252,0.0,1.000000,0.000000,0.000000,0.000000
1782115681.322197,184311,-0.183594,0.246582,0.945801,0.060976,0.121951,0.914634,-6.100000,-2.318750,34.256252,0.0,1.000000,0.000000,0.000000,0.000000
1782115681.332197,184321,-0.186523,0.247070,0.950195,0.670732,0.000000,1.036585,-6.156250,-2.375000,34.262501,0.0,1.000000,0.000000,0.000000,0.000000
1782115681.341197,184330,-0.187988,0.247559,0.953125,1.158537,0.121951,1.097561,-6.156250,-2.375000,34.262501,0.0,1.000000,0.000000,0.000000,0.000000
1782115681.352197,184341,-0.188477,0.246094,0.950684,1.524390,-0.060976,0.975610,-6.131250,-2.262500,34.343750,0.0,1.000000,0.000000,0.000000,0.000000
1782115681.361197,184350,-0.189941,0.244141,0.948242,1.158537,0.060976,1.097561,-6.131250,-2.262500,34.343750,0.0,1.000000,0.000000,0.000000,0.000000
1782115681.373197,184362,-0.183105,0.243652,0.944336,0.548781,-0.182927,0.792683,-6.187500,-2.381250,34.275002,0.0,1.000000,0.000000,0.000000,0.000000
1782115681.381197,184370,-0.186035,0.245605,0.943848,0.121951,-0.060976,0.914634,-6.143750,-2.268750,34.256252,0.0,1.000000,0.000000,0.000000,0.000000
1782115681.392197,184381,-0.187500,0.246582,0.945312,0.182927,0.060976,1.036585,-6.143750,-2.268750,34.256252,0.0,1.000000,0.000000,0.000000,0.000000
1782115681.401197,184390,-0.188477,0.248535,0.949707,0.731707,0.121951,1.097561,-6.131250,-2.343750,34.306252,0.0,1.000000,0.000000,0.000000,0.000000
1782115681.414197,184403,-0.190918,0.248047,0.950684,1.036585,-0.243902,1.036585,-6.131250,-2.343750,34.306252,0.0,1.000000,0.000000,0.000000,0.000000
1782115681.421197,184410,-0.190918,0.248047,0.952148,1.036585,-0.365854,0.853659,-6.062500,-2.262500,34.299999,0.0,1.000000,0.000000,0.000000,0.000000
1782115681.431197,184420,-0.187988,0.247559,0.945312,0.243902,-0.304878,0.792683,-6.062500,-2.262500,34.299999,0.0,1.000000,0.000000,0.000000,0.000000
1782115681.441197,184430,-0.186035,0.248535,0.941406,-0.304878,0.000000,0.792683,-6.125000,-2.293750,34.287502,0.0,1.000000,0.000000,0.000000,0.000000
1782115681.454197,184443,-0.188477,0.247559,0.945801,0.182927,-0.060976,0.853659,-6.125000,-2.293750,34.287502,0.0,1.000000,0.000000,0.000000,0.000000
1782115681.461197,184450,-0.188477,0.248047,0.949219,0.731707,-0.060976,0.853659,-6.087500,-2.250000,34.299999,0.0,1.000000,0.000000,0.000000,0.000000
1782115681.471197,184460,-0.189941,0.248535,0.950684,0.853659,-0.182927,0.853659,-6.087500,-2.250000,34.299999,0.0,1.000000,0.000000,0.000000,0.000000
1782115681.481197,184470,-0.188965,0.247070,0.948242,0.914634,-0.487805,0.792683,-6.037500,-2.225000,34.312500,0.0,1.000000,0.000000,0.000000,0.000000
1782115681.494197,184483,-0.187500,0.247070,0.946289,0.548781,-0.365854,0.609756,-6.037500,-2.225000,34.312500,0.0,1.000000,0.000000,0.000000,0.000000
1782115681.501197,184490,-0.187012,0.246094,0.946289,0.182927,-0.365854,0.609756,-6.043750,-2.225000,34.375000,0.0,1.000000,0.000000,0.000000,0.000000
1782115681.511197,184500,-0.182617,0.248535,0.944824,-0.121951,-0.304878,0.548781,-6.043750,-2.225000,34.375000,0.0,1.000000,0.000000,0.000000,0.000000
1782115681.521197,184510,-0.185547,0.250000,0.946777,-0.121951,0.243902,0.792683,-6.118750,-2.275000,34.312500,0.0,1.000000,0.000000,0.000000,0.000000
1782115681.535197,184524,-0.189941,0.249023,0.952148,0.548781,0.121951,1.219512,-6.118750,-2.275000,34.312500,0.0,1.000000,0.000000,0.000000,0.000000
1782115681.542197,184531,-0.187500,0.244141,0.952148,0.975610,-0.487805,1.158537,-6.025000,-2.193750,34.356251,0.0,1.000000,0.000000,0.000000,0.000000
1782115681.551197,184540,-0.187500,0.244141,0.952148,0.975610,-0.487805,1.158537,-6.025000,-2.193750,34.356251,0.0,1.000000,0.000000,0.000000,0.000000
1782115681.561197,184550,-0.183105,0.243652,0.945801,0.487805,-0.365854,0.853659,-6.087500,-2.293750,34.287502,0.0,1.000000,0.000000,0.000000,0.000000
1782115681.574197,184563,-0.179688,0.243652,0.942871,-0.182927,-0.243902,0.670732,-6.100000,-2.331250,34.256252,0.0,1.000000,0.000000,0.000000,0.000000
1782115681.582197,184571,-0.184082,0.246094,0.945312,-0.060976,0.243902,1.036585,-6.100000,-2.331250,34.256252,0.0,1.000000,0.000000,0.000000,0.000000
1782115681.591197,184580,-0.189453,0.245117,0.950195,0.548781,0.060976,1.097561,-6.100000,-2.331250,34.256252,0.0,1.000000,0.000000,0.000000,0.000000
1782115681.601197,184590,-0.186035,0.246582,0.949707,0.731707,0.182927,1.158537,-6.168750,-2.318750,34.287502,0.0,1.000000,0.000000,0.000000,0.000000
1782115681.613197,184602,-0.182617,0.244629,0.945312,0.365854,-0.243902,0.914634,-6.212500,-2.350000,34.293751,0.0,1.000000,0.000000,0.000000,0.000000
1782115681.621197,184610,-0.182617,0.244629,0.945312,0.365854,-0.243902,0.914634,-6.212500,-2.350000,34.293751,0.0,1.000000,0.000000,0.000000,0.000000
1782115681.631197,184620,-0.184570,0.242188,0.944336,0.243902,-0.243902,0.853659,-6.212500,-2.350000,34.293751,0.0,1.000000,0.000000,0.000000,0.000000
1782115681.641197,184630,-0.182129,0.243652,0.946289,0.000000,-0.182927,0.853659,-6.006250,-2.193750,34.337502,0.0,1.000000,0.000000,0.000000,0.000000
1782115681.654197,184643,-0.185059,0.245605,0.946777,0.000000,0.243902,0.914634,-5.887500,-2.068750,34.356251,0.0,1.000000,0.000000,0.000000,0.000000
1782115681.661197,184650,-0.192383,0.246582,0.950684,0.487805,0.060976,1.036585,-5.887500,-2.068750,34.356251,0.0,1.000000,0.000000,0.000000,0.000000
1782115681.671197,184660,-0.190430,0.244141,0.952637,0.975610,-0.243902,0.792683,-6.162500,-2.300000,34.281250,0.0,1.000000,0.000000,0.000000,0.000000
1782115681.681197,184670,-0.189453,0.243164,0.950684,0.975610,-0.304878,0.670732,-6.162500,-2.300000,34.281250,0.0,1.000000,0.000000,0.000000,0.000000
1782115681.692197,184681,-0.184570,0.241699,0.949707,0.548781,-0.426829,0.365854,-6.218750,-2.393750,34.275002,0.0,1.000000,0.000000,0.000000,0.000000
1782115681.701197,184690,-0.186035,0.243164,0.943848,-0.060976,0.121951,0.609756,-6.218750,-2.393750,34.275002,0.0,1.000000,0.000000,0.000000,0.000000
1782115681.711197,184700,-0.187988,0.244141,0.947266,0.426829,0.243902,0.792683,-6.075000,-2.250000,34.250000,0.0,1.000000,0.000000,0.000000,0.000000
1782115681.722197,184711,-0.191406,0.246582,0.952637,1.280488,0.060976,0.792683,-6.075000,-2.250000,34.250000,0.0,1.000000,0.000000,0.000000,0.000000
1782115681.735197,184724,-0.190430,0.242188,0.947266,0.731707,-0.060976,0.853659,-6.018750,-2.093750,34.293751,0.0,1.000000,0.000000,0.000000,0.000000
1782115681.741197,184730,-0.190430,0.242188,0.947266,0.731707,-0.060976,0.853659,-6.018750,-2.093750,34.293751,0.0,1.000000,0.000000,0.000000,0.000000
1782115681.752197,184741,-0.188965,0.245117,0.943848,0.304878,-0.121951,0.792683,-5.881250,-1.975000,34.350002,0.0,1.000000,0.000000,0.000000,0.000000
1782115681.761197,184750,-0.186523,0.245117,0.946289,0.487805,-0.426829,0.731707,-5.881250,-1.975000,34.350002,0.0,1.000000,0.000000,0.000000,0.000000
1782115681.771197,184760,-0.186035,0.247070,0.949219,0.792683,-0.304878,0.853659,-6.075000,-2.250000,34.250000,0.0,1.000000,0.000000,0.000000,0.000000
1782115681.781197,184770,-0.187988,0.248047,0.950195,0.792683,0.060976,0.792683,-6.075000,-2.250000,34.250000,0.0,1.000000,0.000000,0.000000,0.000000
1782115681.791197,184780,-0.190430,0.247559,0.952148,1.158537,-0.121951,0.731707,-6.006250,-2.156250,34.356251,0.0,1.000000,0.000000,0.000000,0.000000
1782115681.801197,184790,-0.185547,0.247070,0.949219,0.975610,-0.426829,0.548781,-6.006250,-2.156250,34.356251,0.0,1.000000,0.000000,0.000000,0.000000
1782115681.811197,184800,-0.185059,0.245605,0.946777,0.548781,-0.243902,0.609756,-6.125000,-2.331250,34.287502,0.0,1.000000,0.000000,0.000000,0.000000
1782115681.821197,184810,-0.183594,0.245117,0.945801,0.304878,-0.243902,0.609756,-6.125000,-2.331250,34.287502,0.0,1.000000,0.000000,0.000000,0.000000
1782115681.831197,184820,-0.182617,0.249512,0.945801,0.304878,-0.121951,0.609756,-6.037500,-2.287500,34.218750,0.0,1.000000,0.000000,0.000000,0.000000
1782115681.841197,184830,-0.188965,0.250000,0.949219,0.792683,0.121951,0.792683,-6.037500,-2.287500,34.218750,0.0,1.000000,0.000000,0.000000,0.000000
1782115681.852197,184841,-0.189941,0.247070,0.951172,1.158537,-0.121951,0.792683,-6.100000,-2.256250,34.318752,0.0,1.000000,0.000000,0.000000,0.000000
1782115681.861197,184850,-0.187988,0.246582,0.947266,0.914634,-0.304878,0.670732,-6.100000,-2.256250,34.318752,0.0,1.000000,0.000000,0.000000,0.000000
1782115681.871197,184860,-0.185547,0.247559,0.944824,0.487805,-0.243902,0.670732,-6.112500,-2.262500,34.312500,0.0,1.000000,0.000000,0.000000,0.000000
1782115681.881197,184870,-0.183594,0.247070,0.944824,0.060976,-0.243902,0.792683,-6.112500,-2.262500,34.312500,0.0,1.000000,0.000000,0.000000,0.000000
1782115681.894197,184883,-0.186523,0.247559,0.946289,0.121951,-0.182927,0.792683,-6.168750,-2.393750,34.306252,0.0,1.000000,0.000000,0.000000,0.000000
1782115681.901197,184890,-0.186523,0.249023,0.948242,0.426829,0.243902,0.914634,-6.168750,-2.393750,34.306252,0.0,1.000000,0.000000,0.000000,0.000000
1782115681.911197,184900,-0.190430,0.246582,0.955078,1.097561,-0.060976,1.158537,-6.075000,-2.256250,34.293751,0.0,1.000000,0.000000,0.000000,0.000000
1782115681.922197,184911,-0.185059,0.245117,0.949707,0.792683,-0.426829,0.853659,-6.075000,-2.256250,34.293751,0.0,1.000000,0.000000,0.000000,0.000000
1782115681.934197,184923,-0.187012,0.245605,0.945312,0.000000,-0.060976,0.853659,-6.162500,-2.356250,34.256252,0.0,1.000000,0.000000,0.000000,0.000000
1782115681.942197,184931,-0.184082,0.245605,0.943848,-0.060976,-0.182927,0.914634,-5.868750,-2.056250,34.375000,0.0,1.000000,0.000000,0.000000,0.000000
1782115681.951197,184940,-0.187012,0.248535,0.948242,0.304878,-0.182927,0.914634,-5.868750,-2.056250,34.375000,0.0,1.000000,0.000000,0.000000,0.000000
1782115681.961197,184950,-0.188965,0.250000,0.947754,0.487805,0.182927,0.914634,-6.181250,-2.368750,34.256252,0.0,1.000000,0.000000,0.000000,0.000000
1782115681.974197,184963,-0.192383,0.249023,0.950684,0.853659,0.182927,1.158537,-6.181250,-2.368750,34.256252,0.0,1.000000,0.000000,0.000000,0.000000
1782115681.981197,184970,-0.189941,0.246094,0.950195,0.670732,-0.365854,0.975610,-6.087500,-2.256250,34.368752,0.0,1.000000,0.000000,0.000000,0.000000
1782115681.992197,184981,-0.186523,0.244141,0.944824,0.000000,-0.304878,0.914634,-6.087500,-2.256250,34.368752,0.0,1.000000,0.000000,0.000000,0.000000
1782115682.002197,184991,-0.184570,0.245117,0.943848,-0.426829,-0.121951,0.914634,-6.200000,-2.343750,34.243752,0.0,1.000000,0.000000,0.000000,0.000000
1782115682.011197,185000,-0.185547,0.248047,0.943848,-0.060976,0.060976,1.036585,-6.200000,-2.343750,34.243752,0.0,1.000000,0.000000,0.000000,0.000000
1782115682.021197,185010,-0.187012,0.246582,0.950195,0.731707,-0.121951,0.975610,-6.043750,-2.156250,34.262501,0.0,1.000000,0.000000,0.000000,0.000000
1782115682.031197,185020,-0.190430,0.245605,0.951172,1.097561,0.121951,1.036585,-6.043750,-2.156250,34.262501,0.0,1.000000,0.000000,0.000000,0.000000
1782115682.041197,185030,-0.189941,0.243164,0.950684,0.792683,-0.243902,0.853659,-6.150000,-2.337500,34.281250,0.0,1.000000,0.000000,0.000000,0.000000
1782115682.051197,185040,-0.187500,0.242676,0.946289,0.304878,-0.121951,0.914634,-6.150000,-2.337500,34.281250,0.0,1.000000,0.000000,0.000000,0.000000
1782115682.061197,185050,-0.186523,0.244141,0.944336,0.243902,0.060976,1.097561,-6.087500,-2.275000,34.312500,0.0,1.000000,0.000000,0.000000,0.000000
1782115682.071197,185060,-0.185059,0.242188,0.946289,0.304878,-0.304878,0.975610,-6.087500,-2.275000,34.312500,0.0,1.000000,0.000000,0.000000,0.000000
1782115682.081197,185070,-0.184082,0.243164,0.948242,0.365854,-0.182927,0.792683,-6.131250,-2.206250,34.275002,0.0,1.000000,0.000000,0.000000,0.000000
1782115682.091197,185080,-0.186523,0.245605,0.951660,0.731707,0.121951,0.853659,-6.131250,-2.206250,34.275002,0.0,1.000000,0.000000,0.000000,0.000000
1782115682.101197,185090,-0.188965,0.245117,0.950684,0.914634,-0.121951,0.853659,-6.181250,-2.212500,34.299999,0.0,1.000000,0.000000,0.000000,0.000000
1782115682.111197,185100,-0.188965,0.242676,0.947754,0.853659,0.000000,0.975610,-6.181250,-2.212500,34.299999,0.0,1.000000,0.000000,0.000000,0.000000
1782115682.121197,185110,-0.187988,0.240234,0.950195,0.670732,-0.365854,0.975610,-6.162500,-2.325000,34.268749,0.0,1.000000,0.000000,0.000000,0.000000
1782115682.131197,185120,-0.182617,0.242676,0.945801,0.426829,-0.304878,0.914634,-6.162500,-2.325000,34.268749,0.0,1.000000,0.000000,0.000000,0.000000
1782115682.141197,185130,-0.185059,0.245117,0.945801,0.609756,-0.060976,0.853659,-6.187500,-2.287500,34.299999,0.0,1.000000,0.000000,0.000000,0.000000
1782115682.151197,185140,-0.184570,0.245117,0.949219,0.792683,-0.121951,0.670732,-6.187500,-2.287500,34.299999,0.0,1.000000,0.000000,0.000000,0.000000
1782115682.162197,185151,-0.186523,0.248047,0.948242,0.853659,0.000000,0.609756,-6.043750,-2.193750,34.275002,0.0,1.000000,0.000000,0.000000,0.000000
1782115682.172197,185161,-0.187500,0.247070,0.950195,1.036585,-0.182927,0.609756,-6.043750,-2.193750,34.275002,0.0,1.000000,0.000000,0.000000,0.000000
1782115682.181197,185170,-0.186035,0.247070,0.946777,0.548781,-0.243902,0.670732,-6.181250,-2.343750,34.306252,0.0,1.000000,0.000000,0.000000,0.000000
1782115682.192197,185181,-0.185547,0.246582,0.945312,0.304878,-0.304878,0.670732,-6.181250,-2.343750,34.306252,0.0,1.000000,0.000000,0.000000,0.000000
1782115682.202197,185191,-0.186035,0.247559,0.949707,0.548781,0.000000,0.792683,-6.187500,-2.312500,34.299999,0.0,1.000000,0.000000,0.000000,0.000000
1782115682.212197,185201,-0.187500,0.248535,0.949219,0.853659,0.000000,0.731707,-6.187500,-2.312500,34.299999,0.0,1.000000,0.000000,0.000000,0.000000
1782115682.222197,185211,-0.186523,0.246582,0.948730,0.914634,0.060976,0.731707,-6.206250,-2.350000,34.250000,0.0,1.000000,0.000000,0.000000,0.000000
1782115682.231197,185220,-0.188477,0.246094,0.945801,0.487805,0.060976,0.731707,-6.206250,-2.350000,34.250000,0.0,1.000000,0.000000,0.000000,0.000000
1782115682.241197,185230,-0.186035,0.244141,0.947266,0.304878,-0.365854,0.548781,-6.168750,-2.268750,34.287502,0.0,1.000000,0.000000,0.000000,0.000000
1782115682.251197,185240,-0.183594,0.243652,0.945801,0.121951,-0.243902,0.548781,-6.168750,-2.268750,34.287502,0.0,1.000000,0.000000,0.000000,0.000000
1782115682.261197,185250,-0.184082,0.247070,0.944824,0.121951,-0.121951,0.426829,-6.175000,-2.300000,34.250000,0.0,1.000000,0.000000,0.000000,0.000000
1782115682.271197,185260,-0.190430,0.249023,0.948242,0.731707,0.000000,0.670732,-6.100000,-2.231250,34.262501,0.0,1.000000,0.000000,0.000000,0.000000
1782115682.281197,185270,-0.191406,0.246582,0.951172,0.975610,-0.060976,0.670732,-6.100000,-2.231250,34.262501,0.0,1.000000,0.000000,0.000000,0.000000
1782115682.291197,185280,-0.188965,0.245605,0.950684,1.036585,-0.304878,0.609756,-6.193750,-2.343750,34.225002,0.0,1.000000,0.000000,0.000000,0.000000
1782115682.301197,185290,-0.187500,0.246582,0.945312,0.487805,-0.182927,0.792683,-6.193750,-2.343750,34.225002,0.0,1.000000,0.000000,0.000000,0.000000
1782115682.311197,185300,-0.184570,0.246094,0.944824,0.243902,-0.304878,0.670732,-6.087500,-2.200000,34.281250,0.0,1.000000,0.000000,0.000000,0.000000
1782115682.321197,185310,-0.185547,0.246582,0.944336,0.243902,-0.060976,0.731707,-6.087500,-2.200000,34.281250,0.0,1.000000,0.000000,0.000000,0.000000
1782115682.331197,185320,-0.188477,0.248535,0.947266,0.548781,0.182927,0.975610,-6.181250,-2.281250,34.256252,0.0,1.000000,0.000000,0.000000,0.000000
1782115682.342197,185331,-0.189453,0.248047,0.949707,0.792683,0.000000,1.097561,-6.181250,-2.281250,34.256252,0.0,1.000000,0.000000,0.000000,0.000000
1782115682.352197,185341,-0.188477,0.245605,0.950195,0.792683,-0.243902,1.097561,-6.093750,-2.206250,34.306252,0.0,1.000000,0.000000,0.000000,0.000000
1782115682.361197,185350,-0.187012,0.244629,0.949219,0.548781,-0.304878,0.975610,-6.093750,-2.206250,34.306252,0.0,1.000000,0.000000,0.000000,0.000000
1782115682.371197,185360,-0.186035,0.244629,0.944824,0.121951,-0.060976,1.036585,-6.137500,-2.237500,34.375000,0.0,1.000000,0.000000,0.000000,0.000000
1782115682.381197,185370,-0.184570,0.245605,0.943848,0.000000,-0.121951,0.975610,-6.137500,-2.237500,34.375000,0.0,1.000000,0.000000,0.000000,0.000000
1782115682.391197,185380,-0.184570,0.245605,0.943848,0.000000,-0.121951,0.975610,-5.825000,-2.031250,34.281250,0.0,1.000000,0.000000,0.000000,0.000000
1782115682.401197,185390,-0.188477,0.245605,0.946289,0.304878,0.182927,1.158537,-5.825000,-2.031250,34.281250,0.0,1.000000,0.000000,0.000000,0.000000
1782115682.411197,185400,-0.189941,0.245117,0.951172,0.731707,0.000000,1.219512,-6.175000,-2.325000,34.250000,0.0,1.000000,0.000000,0.000000,0.000000
1782115682.421197,185410,-0.189453,0.244629,0.952148,1.097561,-0.121951,1.219512,-6.175000,-2.325000,34.250000,0.0,1.000000,0.000000,0.000000,0.000000
1782115682.431197,185420,-0.186523,0.241211,0.948242,0.914634,-0.670732,0.914634,-6.118750,-2.312500,34.299999,0.0,1.000000,0.000000,0.000000,0.000000
1782115682.441197,185430,-0.182129,0.241699,0.942871,0.182927,0.000000,0.914634,-6.118750,-2.312500,34.299999,0.0,1.000000,0.000000,0.000000,0.000000
1782115682.451197,185440,-0.186035,0.243652,0.944824,0.609756,0.182927,0.853659,-6.193750,-2.268750,34.306252,0.0,1.000000,0.000000,0.000000,0.000000
1782115682.461197,185450,-0.190430,0.245117,0.951660,1.097561,0.243902,1.097561,-6.193750,-2.268750,34.306252,0.0,1.000000,0.000000,0.000000,0.000000
1782115682.471197,185460,-0.192383,0.246094,0.952637,1.341463,-0.121951,1.097561,-6.200000,-2.281250,34.287502,0.0,1.000000,0.000000,0.000000,0.000000
1782115682.481197,185470,-0.190430,0.239258,0.952637,1.219512,-0.304878,0.914634,-6.200000,-2.281250,34.287502,0.0,1.000000,0.000000,0.000000,0.000000
1782115682.491197,185480,-0.184082,0.240234,0.947754,0.426829,-0.609756,0.365854,-6.156250,-2.356250,34.243752,0.0,1.000000,0.000000,0.000000,0.000000
1782115682.502197,185491,-0.182617,0.242188,0.943359,-0.243902,-0.060976,0.487805,-6.156250,-2.356250,34.243752,0.0,1.000000,0.000000,0.000000,0.000000
1782115682.511197,185500,-0.185059,0.243652,0.945801,0.243902,-0.121951,0.548781,-6.125000,-2.331250,34.306252,0.0,1.000000,0.000000,0.000000,0.000000
1782115682.521197,185510,-0.187012,0.243652,0.948242,0.670732,0.060976,0.731707,-6.125000,-2.331250,34.306252,0.0,1.000000,0.000000,0.000000,0.000000
1782115682.531197,185520,-0.186523,0.243652,0.950684,1.280488,-0.304878,0.426829,-6.175000,-2.312500,34.250000,0.0,1.000000,0.000000,0.000000,0.000000
1782115682.542197,185531,-0.185059,0.246582,0.948242,1.524390,-0.487805,0.243902,-6.150000,-2.343750,34.287502,0.0,1.000000,0.000000,0.000000,0.000000
1782115682.551197,185540,-0.187012,0.245117,0.946777,1.158537,-0.365854,0.304878,-6.150000,-2.343750,34.287502,0.0,1.000000,0.000000,0.000000,0.000000
1782115682.561197,185550,-0.187012,0.244141,0.946289,0.731707,-0.121951,0.487805,-6.218750,-2.375000,34.262501,0.0,1.000000,0.000000,0.000000,0.000000
1782115682.571197,185560,-0.185059,0.246094,0.947266,0.731707,-0.365854,0.487805,-6.218750,-2.375000,34.262501,0.0,1.000000,0.000000,0.000000,0.000000
1782115682.582197,185571,-0.184082,0.248047,0.947754,0.731707,-0.060976,0.487805,-6.131250,-2.281250,34.306252,0.0,1.000000,0.000000,0.000000,0.000000
1782115682.591197,185580,-0.187012,0.250977,0.950195,1.036585,0.000000,0.487805,-6.131250,-2.281250,34.306252,0.0,1.000000,0.000000,0.000000,0.000000
1782115682.602197,185591,-0.187012,0.251465,0.951172,1.036585,-0.060976,0.487805,-6.137500,-2.268750,34.243752,0.0,1.000000,0.000000,0.000000,0.000000
1782115682.611197,185600,-0.188477,0.250488,0.948730,0.609756,-0.060976,0.670732,-6.137500,-2.268750,34.243752,0.0,1.000000,0.000000,0.000000,0.000000
1782115682.621197,185610,-0.186523,0.246094,0.946777,0.365854,-0.365854,0.670732,-6.143750,-2.287500,34.312500,0.0,1.000000,0.000000,0.000000,0.000000
1782115682.631197,185620,-0.182617,0.248047,0.943848,-0.060976,-0.243902,0.548781,-6.143750,-2.287500,34.312500,0.0,1.000000,0.000000,0.000000,0.000000
1782115682.641197,185630,-0.184082,0.252930,0.943848,-0.060976,0.365854,0.914634,-6.087500,-2.293750,34.243752,0.0,1.000000,0.000000,0.000000,0.000000
1782115682.651197,185640,-0.189941,0.251953,0.949707,0.914634,0.243902,1.219512,-6.087500,-2.293750,34.243752,0.0,1.000000,0.000000,0.000000,0.000000
1782115682.661197,185650,-0.189941,0.248047,0.953613,1.768293,-0.365854,1.097561,-6.093750,-2.281250,34.337502,0.0,1.000000,0.000000,0.000000,0.000000
1782115682.671197,185660,-0.185059,0.247559,0.947754,1.158537,-0.365854,0.853659,-6.093750,-2.281250,34.337502,0.0,1.000000,0.000000,0.000000,0.000000
1782115682.682197,185671,-0.186035,0.246094,0.938965,-0.304878,0.060976,0.975610,-6.168750,-2.331250,34.287502,0.0,1.000000,0.000000,0.000000,0.000000
1782115682.691197,185680,-0.183105,0.246582,0.942871,-0.304878,0.000000,1.097561,-6.168750,-2.331250,34.287502,0.0,1.000000,0.000000,0.000000,0.000000
1782115682.701197,185690,-0.187012,0.250000,0.950195,0.426829,0.182927,1.402439,-6.187500,-2.293750,34.306252,0.0,1.000000,0.000000,0.000000,0.000000
1782115682.711197,185700,-0.191895,0.250000,0.953613,1.036585,0.121951,1.524390,-6.187500,-2.293750,34.306252,0.0,1.000000,0.000000,0.000000,0.000000
1782115682.721197,185710,-0.190430,0.246582,0.952637,0.975610,-0.243902,1.219512,-6.081250,-2.218750,34.293751,0.0,1.000000,0.000000,0.000000,0.000000
1782115682.731197,185720,-0.187500,0.246094,0.945801,0.182927,-0.243902,0.975610,-6.081250,-2.218750,34.293751,0.0,1.000000,0.000000,0.000000,0.000000
1782115682.742197,185731,-0.188965,0.245605,0.944336,-0.182927,-0.243902,0.975610,-6.062500,-2.200000,34.312500,0.0,1.000000,0.000000,0.000000,0.000000
1782115682.751197,185740,-0.187988,0.244141,0.945801,-0.365854,-0.243902,0.914634,-6.062500,-2.200000,34.312500,0.0,1.000000,0.000000,0.000000,0.000000
1782115682.761197,185750,-0.189941,0.244629,0.947754,0.000000,0.060976,0.975610,-6.143750,-2.281250,34.256252,0.0,1.000000,0.000000,0.000000,0.000000
1782115682.771197,185760,-0.190918,0.243164,0.950195,0.487805,-0.182927,0.975610,-6.143750,-2.281250,34.256252,0.0,1.000000,0.000000,0.000000,0.000000
1782115682.783197,185772,-0.189941,0.244141,0.951172,0.792683,0.121951,1.036585,-6.143750,-2.250000,34.268749,0.0,1.000000,0.000000,0.000000,0.000000
1782115682.791197,185780,-0.192871,0.242676,0.952637,1.036585,-0.365854,1.036585,-6.143750,-2.250000,34.268749,0.0,1.000000,0.000000,0.000000,0.000000
1782115682.801197,185790,-0.187012,0.240723,0.947266,0.487805,-0.670732,0.731707,-6.150000,-2.275000,34.268749,0.0,1.000000,0.000000,0.000000,0.000000
1782115682.811197,185800,-0.184570,0.241699,0.942383,-0.365854,0.060976,0.792683,-6.150000,-2.275000,34.268749,0.0,1.000000,0.000000,0.000000,0.000000
1782115682.822197,185811,-0.187500,0.244141,0.949219,0.426829,0.060976,1.097561,-6.225000,-2.393750,34.256252,0.0,1.000000,0.000000,0.000000,0.000000
1782115682.831197,185820,-0.191406,0.245117,0.955078,1.219512,-0.121951,1.097561,-6.225000,-2.393750,34.256252,0.0,1.000000,0.000000,0.000000,0.000000
1782115682.841197,185830,-0.192383,0.243652,0.951660,1.463415,-0.243902,0.853659,-6.131250,-2.262500,34.312500,0.0,1.000000,0.000000,0.000000,0.000000
1782115682.851197,185840,-0.186035,0.245605,0.947754,1.097561,-0.365854,0.609756,-6.131250,-2.262500,34.312500,0.0,1.000000,0.000000,0.000000,0.000000
1782115682.861197,185850,-0.186523,0.244629,0.947266,0.548781,-0.487805,0.670732,-6.193750,-2.406250,34.225002,0.0,1.000000,0.000000,0.000000,0.000000
1782115682.871197,185860,-0.183594,0.243652,0.947266,0.121951,-0.548781,0.487805,-6.081250,-2.218750,34.306252,0.0,1.000000,0.000000,0.000000,0.000000
1782115682.883197,185872,-0.180176,0.245605,0.942871,-0.243902,-0.060976,0.548781,-6.081250,-2.218750,34.306252,0.0,1.000000,0.000000,0.000000,0.000000
1782115682.891197,185880,-0.184570,0.248535,0.949707,0.609756,0.182927,0.792683,-6.168750,-2.331250,34.225002,0.0,1.000000,0.000000,0.000000,0.000000
1782115682.904197,185893,-0.186523,0.244629,0.951172,1.280488,-0.243902,0.792683,-6.168750,-2.331250,34.225002,0.0,1.000000,0.000000,0.000000,0.000000
1782115682.911197,185900,-0.186035,0.245605,0.949219,1.219512,-0.121951,0.609756,-6.168750,-2.312500,34.268749,0.0,1.000000,0.000000,0.000000,0.000000
1782115682.922197,185911,-0.184570,0.243652,0.946777,1.036585,-0.243902,0.670732,-6.168750,-2.312500,34.268749,0.0,1.000000,0.000000,0.000000,0.000000
1782115682.931197,185920,-0.182617,0.244141,0.945312,0.304878,-0.121951,0.792683,-5.906250,-2.062500,34.318752,0.0,1.000000,0.000000,0.000000,0.000000
1782115682.943197,185932,-0.180664,0.244141,0.944824,0.060976,-0.060976,0.853659,-5.906250,-2.062500,34.318752,0.0,1.000000,0.000000,0.000000,0.000000
1782115682.951197,185940,-0.186035,0.248047,0.947754,0.731707,0.243902,1.158537,-6.100000,-2.268750,34.275002,0.0,1.000000,0.000000,0.000000,0.000000
1782115682.962197,185951,-0.187500,0.246094,0.954102,1.646341,-0.060976,0.975610,-6.100000,-2.268750,34.275002,0.0,1.000000,0.000000,0.000000,0.000000
1782115682.972197,185961,-0.187988,0.246094,0.952148,1.463415,-0.304878,0.914634,-6.143750,-2.281250,34.318752,0.0,1.000000,0.000000,0.000000,0.000000
1782115682.982197,185971,-0.185547,0.245117,0.944336,0.365854,-0.304878,0.792683,-6.143750,-2.281250,34.318752,0.0,1.000000,0.000000,0.000000,0.000000
1782115682.991197,185980,-0.185547,0.247070,0.942383,-0.304878,0.182927,0.914634,-5.981250,-2.106250,34.306252,0.0,1.000000,0.000000,0.000000,0.000000
1782115683.002197,185991,-0.187500,0.246094,0.945801,0.243902,-0.060976,0.975610,-5.981250,-2.106250,34.306252,0.0,1.000000,0.000000,0.000000,0.000000
1782115683.011197,186000,-0.187500,0.246094,0.949219,0.914634,0.060976,1.158537,-6.081250,-2.275000,34.268749,0.0,1.000000,0.000000,0.000000,0.000000
1782115683.023197,186012,-0.192383,0.246094,0.950195,1.036585,-0.060976,1.036585,-6.081250,-2.275000,34.268749,0.0,1.000000,0.000000,0.000000,0.000000
1782115683.031197,186020,-0.189941,0.246094,0.949219,1.219512,-0.121951,0.975610,-6.131250,-2.256250,34.275002,0.0,1.000000,0.000000,0.000000,0.000000
1782115683.041197,186030,-0.186035,0.247070,0.946289,1.219512,-0.182927,0.914634,-6.131250,-2.256250,34.275002,0.0,1.000000,0.000000,0.000000,0.000000
1782115683.051197,186040,-0.185059,0.244629,0.949219,0.792683,-0.365854,0.731707,-6.125000,-2.287500,34.281250,0.0,1.000000,0.000000,0.000000,0.000000
1782115683.064197,186053,-0.181641,0.246582,0.943359,-0.060976,-0.121951,0.853659,-6.125000,-2.287500,34.281250,0.0,1.000000,0.000000,0.000000,0.000000
1782115683.071197,186060,-0.183105,0.251953,0.944824,0.182927,0.060976,0.975610,-6.075000,-2.306250,34.306252,0.0,1.000000,0.000000,0.000000,0.000000
1782115683.081197,186070,-0.187988,0.250000,0.950684,0.792683,0.121951,1.158537,-6.075000,-2.306250,34.306252,0.0,1.000000,0.000000,0.000000,0.000000
1782115683.092197,186081,-0.188477,0.248047,0.951172,1.219512,-0.182927,0.792683,-6.137500,-2.318750,34.287502,0.0,1.000000,0.000000,0.000000,0.000000
1782115683.105197,186094,-0.186523,0.248047,0.945801,0.548781,-0.182927,0.670732,-6.112500,-2.268750,34.318752,0.0,1.000000,0.000000,0.000000,0.000000
1782115683.111197,186100,-0.187988,0.245605,0.942383,-0.060976,0.243902,0.975610,-6.112500,-2.268750,34.318752,0.0,1.000000,0.000000,0.000000,0.000000
1782115683.121197,186110,-0.185547,0.246582,0.942871,-0.426829,-0.182927,0.914634,-6.112500,-2.268750,34.318752,0.0,1.000000,0.000000,0.000000,0.000000
1782115683.132197,186121,-0.186523,0.250488,0.945312,-0.182927,0.000000,1.097561,-6.162500,-2.350000,34.218750,0.0,1.000000,0.000000,0.000000,0.000000
1782115683.144197,186133,-0.188477,0.251465,0.951172,0.548781,0.121951,1.097561,-6.156250,-2.375000,34.281250,0.0,1.000000,0.000000,0.000000,0.000000
1782115683.152197,186141,-0.189453,0.248047,0.955078,1.219512,-0.365854,0.853659,-6.156250,-2.375000,34.281250,0.0,1.000000,0.000000,0.000000,0.000000
1782115683.161197,186150,-0.184570,0.247559,0.948730,0.670732,-0.426829,0.548781,-6.175000,-2.287500,34.250000,0.0,1.000000,0.000000,0.000000,0.000000
1782115683.171197,186160,-0.183594,0.246094,0.943848,-0.304878,-0.060976,0.487805,-6.175000,-2.287500,34.250000,0.0,1.000000,0.000000,0.000000,0.000000
1782115683.184197,186173,-0.184570,0.244141,0.944824,-0.609756,0.182927,0.731707,-6.125000,-2.312500,34.299999,0.0,1.000000,0.000000,0.000000,0.000000
1782115683.191197,186180,-0.187012,0.242188,0.949219,-0.182927,-0.121951,0.731707,-6.125000,-2.312500,34.299999,0.0,1.000000,0.000000,0.000000,0.000000
1782115683.201197,186190,-0.187012,0.245605,0.949707,0.304878,-0.060976,0.792683,-6.175000,-2.275000,34.299999,0.0,1.000000,0.000000,0.000000,0.000000
1782115683.211197,186200,-0.190918,0.245117,0.952637,0.670732,0.060976,1.036585,-6.175000,-2.275000,34.299999,0.0,1.000000,0.000000,0.000000,0.000000
1782115683.224197,186213,-0.186523,0.243164,0.948242,0.426829,-0.487805,0.670732,-6.168750,-2.256250,34.287502,0.0,1.000000,0.000000,0.000000,0.000000
1782115683.231197,186220,-0.185547,0.242188,0.945312,0.060976,-0.304878,0.731707,-6.168750,-2.256250,34.287502,0.0,1.000000,0.000000,0.000000,0.000000
1782115683.241197,186230,-0.185547,0.242188,0.945312,0.060976,-0.304878,0.731707,-6.081250,-2.212500,34.268749,0.0,1.000000,0.000000,0.000000,0.000000
1782115683.251197,186240,-0.186035,0.242188,0.945801,-0.182927,-0.243902,0.670732,-6.081250,-2.212500,34.268749,0.0,1.000000,0.000000,0.000000,0.000000
1782115683.263197,186252,-0.186523,0.243164,0.945801,-0.060976,-0.121951,0.670732,-6.131250,-2.275000,34.268749,0.0,1.000000,0.000000,0.000000,0.000000
1782115683.271197,186260,-0.187988,0.246094,0.949707,0.304878,0.182927,0.914634,-6.131250,-2.275000,34.268749,0.0,1.000000,0.000000,0.000000,0.000000
1782115683.281197,186270,-0.191895,0.245117,0.952637,1.219512,0.000000,0.975610,-6.075000,-2.187500,34.268749,0.0,1.000000,0.000000,0.000000,0.000000
1782115683.291197,186280,-0.189941,0.242188,0.953125,1.646341,-0.304878,0.792683,-6.075000,-2.187500,34.268749,0.0,1.000000,0.000000,0.000000,0.000000
1782115683.304197,186293,-0.187012,0.240723,0.946289,0.914634,-0.182927,0.731707,-6.162500,-2.293750,34.256252,0.0,1.000000,0.000000,0.000000,0.000000
1782115683.311197,186300,-0.185547,0.243164,0.945801,0.304878,0.060976,0.914634,-6.162500,-2.293750,34.256252,0.0,1.000000,0.000000,0.000000,0.000000
1782115683.321197,186310,-0.186523,0.245117,0.948730,0.426829,-0.060976,0.975610,-6.131250,-2.275000,34.250000,0.0,1.000000,0.000000,0.000000,0.000000
1782115683.331197,186320,-0.187988,0.244629,0.947266,0.670732,0.304878,1.097561,-6.131250,-2.275000,34.250000,0.0,1.000000,0.000000,0.000000,0.000000
1782115683.342197,186331,-0.192871,0.245117,0.951172,1.341463,0.243902,1.341463,-6.181250,-2.306250,34.287502,0.0,1.000000,0.000000,0.000000,0.000000
1782115683.351197,186340,-0.190430,0.243164,0.953125,1.829268,-0.365854,1.097561,-6.181250,-2.306250,34.287502,0.0,1.000000,0.000000,0.000000,0.000000
1782115683.362197,186351,-0.186035,0.242676,0.948242,1.158537,-0.365854,0.914634,-6.162500,-2.287500,34.281250,0.0,1.000000,0.000000,0.000000,0.000000
1782115683.371197,186360,-0.185059,0.243164,0.941895,0.304878,-0.243902,0.792683,-6.162500,-2.287500,34.281250,0.0,1.000000,0.000000,0.000000,0.000000
1782115683.381197,186370,-0.185059,0.245117,0.946777,0.792683,-0.060976,0.914634,-6.200000,-2.281250,34.243752,0.0,1.000000,0.000000,0.000000,0.000000
1782115683.391197,186380,-0.187012,0.245605,0.950195,1.036585,0.060976,0.975610,-6.200000,-2.281250,34.243752,0.0,1.000000,0.000000,0.000000,0.000000
