Unix_Time_s,IMU1_RefTime,ax_g,ay_g,az_g,gx_dps,gy_dps,gz_dps,mx_uT,my_uT,mz_uT,temp_C,qw,qx,qy,qz
1782115675.461197,174510,0.197266,-0.053711,0.980469,-1.219512,0.000000,-0.548781,15.543750,8.043750,43.031250,0.0,1.000000,0.000000,0.000000,0.000000
1782115675.470197,174519,0.194336,-0.054688,0.979980,-1.219512,0.060976,-0.548781,15.543750,8.043750,43.031250,0.0,1.000000,0.000000,0.000000,0.000000
1782115675.481197,174530,0.192871,-0.055176,0.979980,-1.219512,0.060976,-0.548781,15.412500,7.918750,43.118752,0.0,1.000000,0.000000,0.000000,0.000000
1782115675.490197,174539,0.193359,-0.056152,0.979492,-1.158537,0.000000,-0.487805,15.412500,7.918750,43.118752,0.0,1.000000,0.000000,0.000000,0.000000
1782115675.501197,174550,0.191895,-0.056152,0.979980,-1.097561,0.121951,-0.548781,15.412500,7.912500,43.187500,0.0,1.000000,0.000000,0.000000,0.000000
1782115675.510197,174559,0.192383,-0.059082,0.980957,-1.036585,0.060976,-0.670732,15.412500,7.912500,43.187500,0.0,1.000000,0.000000,0.000000,0.000000
1782115675.521197,174570,0.189453,-0.057617,0.979492,-0.853659,0.000000,-0.609756,15.443750,7.837500,43.187500,0.0,1.000000,0.000000,0.000000,0.000000
1782115675.530197,174579,0.188965,-0.058594,0.978027,-0.426829,-0.121951,-0.487805,15.443750,7.837500,43.187500,0.0,1.000000,0.000000,0.000000,0.000000
1782115675.540197,174589,0.188965,-0.058594,0.978027,-0.426829,-0.121951,-0.487805,15.568750,8.187500,42.950001,0.0,1.000000,0.000000,0.000000,0.000000
1782115675.550197,174599,0.190918,-0.059570,0.979980,-0.182927,-0.243902,-0.365854,15.568750,8.187500,42.950001,0.0,1.000000,0.000000,0.000000,0.000000
1782115675.560197,174609,0.189453,-0.060059,0.978027,0.060976,-0.304878,-0.304878,15.450000,7.950000,43.187500,0.0,1.000000,0.000000,0.000000,0.000000
1782115675.570197,174619,0.188965,-0.057617,0.979492,0.182927,-0.365854,-0.182927,15.450000,7.950000,43.187500,0.0,1.000000,0.000000,0.000000,0.000000
1782115675.580197,174629,0.189941,-0.058105,0.979980,0.304878,-0.365854,-0.121951,15.437500,8.025001,43.081249,0.0,1.000000,0.000000,0.000000,0.000000
1782115675.590197,174639,0.189941,-0.056152,0.978516,0.487805,-0.365854,0.000000,15.437500,8.025001,43.081249,0.0,1.000000,0.000000,0.000000,0.000000
1782115675.600197,174649,0.189941,-0.054688,0.980469,0.609756,-0.426829,-0.060976,15.462501,7.950000,43.100002,0.0,1.000000,0.000000,0.000000,0.000000
1782115675.610197,174659,0.191895,-0.053223,0.979004,0.731707,-0.487805,0.000000,15.462501,7.950000,43.100002,0.0,1.000000,0.000000,0.000000,0.000000
1782115675.620197,174669,0.193359,-0.052734,0.979004,0.853659,-0.426829,0.000000,15.481250,8.000000,43.112499,0.0,1.000000,0.000000,0.000000,0.000000
1782115675.630197,174679,0.193848,-0.051270,0.981934,0.914634,-0.426829,0.000000,15.481250,8.000000,43.112499,0.0,1.000000,0.000000,0.000000,0.000000
1782115675.640197,174689,0.194824,-0.048340,0.980957,0.914634,-0.487805,0.060976,15.462501,7.931250,43.075001,0.0,1.000000,0.000000,0.000000,0.000000
1782115675.651197,174700,0.195801,-0.046875,0.980957,0.853659,-0.548781,0.060976,15.462501,7.931250,43.075001,0.0,1.000000,0.000000,0.000000,0.000000
1782115675.660197,174709,0.195801,-0.046387,0.980469,0.731707,-0.487805,0.000000,15.587501,8.106250,42.956249,0.0,1.000000,0.000000,0.000000,0.000000
1782115675.670197,174719,0.197266,-0.044922,0.980957,0.670732,-0.487805,0.000000,15.587501,8.106250,42.956249,0.0,1.000000,0.000000,0.000000,0.000000
1782115675.680197,174729,0.196289,-0.043945,0.980469,0.487805,-0.365854,0.000000,15.487500,7.862500,43.174999,0.0,1.000000,0.000000,0.000000,0.000000
1782115675.692197,174741,0.197266,-0.042969,0.981934,0.365854,-0.365854,0.060976,15.487500,7.862500,43.174999,0.0,1.000000,0.000000,0.000000,0.000000
1782115675.700197,174749,0.198730,-0.041504,0.980469,0.182927,-0.304878,-0.060976,15.531250,7.968750,43.093750,0.0,1.000000,0.000000,0.000000,0.000000
1782115675.711197,174760,0.198242,-0.041504,0.980469,0.060976,-0.365854,-0.060976,15.531250,7.968750,43.093750,0.0,1.000000,0.000000,0.000000,0.000000
1782115675.721197,174770,0.198242,-0.044434,0.981445,-0.060976,-0.243902,-0.121951,15.525001,7.931250,43.137501,0.0,1.000000,0.000000,0.000000,0.000000
1782115675.731197,174780,0.198242,-0.043945,0.981445,-0.121951,-0.182927,-0.121951,15.525001,7.931250,43.137501,0.0,1.000000,0.000000,0.000000,0.000000
1782115675.740197,174789,0.197266,-0.043457,0.983398,-0.243902,-0.182927,-0.182927,15.581250,8.037500,43.025002,0.0,1.000000,0.000000,0.000000,0.000000
1782115675.751197,174800,0.196777,-0.043945,0.981445,-0.243902,-0.182927,-0.182927,15.581250,8.037500,43.025002,0.0,1.000000,0.000000,0.000000,0.000000
1782115675.760197,174809,0.196777,-0.043945,0.980957,-0.426829,-0.121951,-0.243902,15.468750,7.912500,43.131252,0.0,1.000000,0.000000,0.000000,0.000000
1782115675.770197,174819,0.193848,-0.044434,0.980957,-0.548781,-0.060976,-0.304878,15.468750,7.912500,43.131252,0.0,1.000000,0.000000,0.000000,0.000000
1782115675.780197,174829,0.194336,-0.045410,0.980469,-0.548781,-0.060976,-0.426829,15.556251,7.931250,43.125000,0.0,1.000000,0.000000,0.000000,0.000000
1782115675.790197,174839,0.195312,-0.046875,0.979980,-0.609756,0.000000,-0.548781,15.556251,7.931250,43.125000,0.0,1.000000,0.000000,0.000000,0.000000
1782115675.800197,174849,0.194336,-0.046875,0.981934,-0.609756,0.121951,-0.609756,15.493751,7.943750,43.062500,0.0,1.000000,0.000000,0.000000,0.000000
1782115675.810197,174859,0.193359,-0.047852,0.980957,-0.670732,0.060976,-0.670732,15.493751,7.943750,43.062500,0.0,1.000000,0.000000,0.000000,0.000000
1782115675.820197,174869,0.190918,-0.046875,0.981445,-0.792683,0.060976,-0.670732,15.493751,7.968750,43.150002,0.0,1.000000,0.000000,0.000000,0.000000
1782115675.830197,174879,0.190918,-0.047363,0.981445,-0.853659,0.121951,-0.670732,15.493751,7.968750,43.150002,0.0,1.000000,0.000000,0.000000,0.000000
1782115675.840197,174889,0.189453,-0.047852,0.980469,-0.853659,0.060976,-0.670732,15.525001,7.950000,43.162502,0.0,1.000000,0.000000,0.000000,0.000000
1782115675.850197,174899,0.190430,-0.049316,0.981934,-0.853659,0.060976,-0.670732,15.525001,7.950000,43.162502,0.0,1.000000,0.000000,0.000000,0.000000
1782115675.860197,174909,0.191406,-0.050781,0.980957,-0.853659,0.000000,-0.670732,15.493751,7.950000,43.100002,0.0,1.000000,0.000000,0.000000,0.000000
1782115675.870197,174919,0.192383,-0.051270,0.980957,-0.792683,-0.060976,-0.609756,15.493751,7.950000,43.100002,0.0,1.000000,0.000000,0.000000,0.000000
1782115675.880197,174929,0.193848,-0.051758,0.979980,-0.670732,-0.121951,-0.548781,15.506250,7.975000,43.056252,0.0,1.000000,0.000000,0.000000,0.000000
1782115675.891197,174940,0.193359,-0.051758,0.979492,-0.670732,-0.182927,-0.548781,15.506250,7.975000,43.056252,0.0,1.000000,0.000000,0.000000,0.000000
1782115675.901197,174950,0.195312,-0.054199,0.978027,-0.609756,-0.121951,-0.548781,15.643750,8.206250,42.943752,0.0,1.000000,0.000000,0.000000,0.000000
1782115675.910197,174959,0.194336,-0.053711,0.979492,-0.609756,-0.121951,-0.487805,15.643750,8.206250,42.943752,0.0,1.000000,0.000000,0.000000,0.000000
1782115675.920197,174969,0.195801,-0.054199,0.980469,-0.609756,-0.121951,-0.426829,15.493751,7.943750,43.125000,0.0,1.000000,0.000000,0.000000,0.000000
1782115675.930197,174979,0.194824,-0.054688,0.980469,-0.548781,-0.121951,-0.426829,15.493751,7.943750,43.125000,0.0,1.000000,0.000000,0.000000,0.000000
1782115675.940197,174989,0.197754,-0.053223,0.979004,-0.426829,-0.121951,-0.365854,15.450000,7.956250,43.106251,0.0,1.000000,0.000000,0.000000,0.000000
1782115675.950197,174999,0.196289,-0.051270,0.979004,-0.304878,-0.243902,-0.243902,15.450000,7.956250,43.106251,0.0,1.000000,0.000000,0.000000,0.000000
1782115675.960197,175009,0.196777,-0.051758,0.978027,-0.182927,-0.182927,-0.182927,15.500000,7.987500,43.068752,0.0,1.000000,0.000000,0.000000,0.000000
1782115675.970197,175019,0.197266,-0.051758,0.979004,-0.243902,-0.182927,-0.121951,15.500000,7.987500,43.068752,0.0,1.000000,0.000000,0.000000,0.000000
1782115675.980197,175029,0.195801,-0.052734,0.980469,-0.243902,0.000000,-0.121951,15.475000,7.993750,43.075001,0.0,1.000000,0.000000,0.000000,0.000000
1782115675.990197,175039,0.194336,-0.052246,0.982422,-0.243902,-0.060976,-0.121951,15.475000,7.993750,43.075001,0.0,1.000000,0.000000,0.000000,0.000000
1782115676.000197,175049,0.191895,-0.050293,0.982910,-0.243902,-0.121951,-0.121951,15.406250,7.881250,43.137501,0.0,1.000000,0.000000,0.000000,0.000000
1782115676.011197,175060,0.189941,-0.048828,0.982910,-0.304878,-0.182927,-0.121951,15.406250,7.881250,43.137501,0.0,1.000000,0.000000,0.000000,0.000000
1782115676.020197,175069,0.189453,-0.048340,0.981445,-0.365854,-0.182927,-0.182927,15.593750,8.181251,43.031250,0.0,1.000000,0.000000,0.000000,0.000000
1782115676.031197,175080,0.187500,-0.048340,0.983398,-0.426829,-0.365854,-0.121951,15.593750,8.181251,43.031250,0.0,1.000000,0.000000,0.000000,0.000000
1782115676.040197,175089,0.189453,-0.048828,0.981934,-0.487805,-0.365854,-0.060976,15.425000,7.887500,43.131252,0.0,1.000000,0.000000,0.000000,0.000000
1782115676.050197,175099,0.190918,-0.050781,0.981445,-0.548781,-0.304878,-0.121951,15.425000,7.887500,43.131252,0.0,1.000000,0.000000,0.000000,0.000000
1782115676.061197,175110,0.191406,-0.051270,0.980469,-0.609756,-0.365854,-0.182927,15.500000,7.925000,43.100002,0.0,1.000000,0.000000,0.000000,0.000000
1782115676.073197,175122,0.191406,-0.050293,0.980469,-0.548781,-0.365854,-0.304878,15.500000,7.925000,43.100002,0.0,1.000000,0.000000,0.000000,0.000000
1782115676.081197,175130,0.190430,-0.050293,0.980469,-0.670732,-0.426829,-0.426829,15.475000,7.993750,43.137501,0.0,1.000000,0.000000,0.000000,0.000000
1782115676.090197,175139,0.189453,-0.050293,0.979004,-0.670732,-0.365854,-0.426829,15.475000,7.993750,43.137501,0.0,1.000000,0.000000,0.000000,0.000000
1782115676.101197,175150,0.190918,-0.051270,0.979492,-0.609756,-0.365854,-0.365854,15.518750,8.037500,43.068752,0.0,1.000000,0.000000,0.000000,0.000000
1782115676.110197,175159,0.190918,-0.051758,0.981445,-0.609756,-0.365854,-0.304878,15.518750,8.037500,43.068752,0.0,1.000000,0.000000,0.000000,0.000000
1782115676.121197,175170,0.190430,-0.051758,0.980469,-0.487805,-0.426829,-0.365854,15.393750,7.931250,43.118752,0.0,1.000000,0.000000,0.000000,0.000000
1782115676.130197,175179,0.190430,-0.052734,0.979492,-0.426829,-0.426829,-0.365854,15.393750,7.931250,43.118752,0.0,1.000000,0.000000,0.000000,0.000000
1782115676.140197,175189,0.191895,-0.052734,0.980469,-0.365854,-0.365854,-0.426829,15.443750,7.956250,43.137501,0.0,1.000000,0.000000,0.000000,0.000000
1782115676.150197,175199,0.193359,-0.053711,0.979980,-0.243902,-0.304878,-0.548781,15.443750,7.956250,43.137501,0.0,1.000000,0.000000,0.000000,0.000000
1782115676.160197,175209,0.195312,-0.053711,0.980469,-0.243902,-0.304878,-0.609756,15.425000,7.950000,43.156250,0.0,1.000000,0.000000,0.000000,0.000000
1782115676.170197,175219,0.196777,-0.053223,0.980469,-0.243902,-0.304878,-0.609756,15.425000,7.950000,43.156250,0.0,1.000000,0.000000,0.000000,0.000000
1782115676.180197,175229,0.195801,-0.053711,0.980957,-0.243902,-0.243902,-0.670732,15.450000,7.981250,43.137501,0.0,1.000000,0.000000,0.000000,0.000000
1782115676.190197,175239,0.195312,-0.052246,0.981445,-0.304878,-0.365854,-0.609756,15.450000,7.981250,43.137501,0.0,1.000000,0.000000,0.000000,0.000000
1782115676.200197,175249,0.195312,-0.051270,0.980957,-0.243902,-0.304878,-0.609756,15.431251,7.925000,43.143749,0.0,1.000000,0.000000,0.000000,0.000000
1782115676.210197,175259,0.196289,-0.051758,0.979980,-0.304878,-0.365854,-0.548781,15.431251,7.925000,43.143749,0.0,1.000000,0.000000,0.000000,0.000000
1782115676.220197,175269,0.195801,-0.054199,0.980469,-0.243902,-0.426829,-0.548781,15.500000,8.106250,43.093750,0.0,1.000000,0.000000,0.000000,0.000000
1782115676.230197,175279,0.197266,-0.054199,0.979492,-0.182927,-0.426829,-0.548781,15.500000,8.106250,43.093750,0.0,1.000000,0.000000,0.000000,0.000000
1782115676.241197,175290,0.198730,-0.053223,0.980469,-0.182927,-0.426829,-0.548781,15.387500,7.881250,43.181252,0.0,1.000000,0.000000,0.000000,0.000000
1782115676.251197,175300,0.199219,-0.052734,0.980957,-0.121951,-0.365854,-0.548781,15.387500,7.881250,43.181252,0.0,1.000000,0.000000,0.000000,0.000000
1782115676.260197,175309,0.198730,-0.051758,0.979492,-0.060976,-0.365854,-0.487805,15.375000,7.968750,43.150002,0.0,1.000000,0.000000,0.000000,0.000000
1782115676.270197,175319,0.197266,-0.051758,0.980957,0.121951,-0.304878,-0.426829,15.375000,7.968750,43.150002,0.0,1.000000,0.000000,0.000000,0.000000
1782115676.281197,175330,0.195312,-0.052246,0.979492,0.121951,-0.426829,-0.365854,15.425000,7.962500,43.174999,0.0,1.000000,0.000000,0.000000,0.000000
1782115676.290197,175339,0.196289,-0.053223,0.979980,0.182927,-0.365854,-0.304878,15.425000,7.962500,43.174999,0.0,1.000000,0.000000,0.000000,0.000000
1782115676.301197,175350,0.195312,-0.052734,0.979492,0.182927,-0.365854,-0.304878,15.418750,7.950000,43.100002,0.0,1.000000,0.000000,0.000000,0.000000
1782115676.310197,175359,0.195312,-0.052246,0.980957,0.243902,-0.365854,-0.304878,15.418750,7.950000,43.100002,0.0,1.000000,0.000000,0.000000,0.000000
1782115676.320197,175369,0.195312,-0.051758,0.979004,0.182927,-0.304878,-0.304878,15.481250,8.018750,43.106251,0.0,1.000000,0.000000,0.000000,0.000000
1782115676.330197,175379,0.193359,-0.051758,0.979980,0.182927,-0.243902,-0.304878,15.481250,8.018750,43.106251,0.0,1.000000,0.000000,0.000000,0.000000
1782115676.340197,175389,0.193359,-0.051270,0.979492,0.121951,-0.304878,-0.304878,15.456250,7.981250,43.137501,0.0,1.000000,0.000000,0.000000,0.000000
1782115676.350197,175399,0.192871,-0.051270,0.979004,0.060976,-0.304878,-0.304878,15.456250,7.981250,43.137501,0.0,1.000000,0.000000,0.000000,0.000000
1782115676.360197,175409,0.192871,-0.051758,0.979492,0.121951,-0.304878,-0.304878,15.456250,7.875000,43.206249,0.0,1.000000,0.000000,0.000000,0.000000
1782115676.370197,175419,0.192871,-0.052246,0.979492,0.121951,-0.304878,-0.304878,15.456250,7.875000,43.206249,0.0,1.000000,0.000000,0.000000,0.000000
1782115676.380197,175429,0.192871,-0.051758,0.979980,0.121951,-0.365854,-0.243902,15.462501,7.918750,43.150002,0.0,1.000000,0.000000,0.000000,0.000000
1782115676.390197,175439,0.194336,-0.051270,0.979980,0.121951,-0.365854,-0.182927,15.462501,7.918750,43.150002,0.0,1.000000,0.000000,0.000000,0.000000
1782115676.400197,175449,0.194824,-0.050781,0.979980,0.243902,-0.365854,-0.121951,15.400001,7.881250,43.193752,0.0,1.000000,0.000000,0.000000,0.000000
1782115676.411197,175460,0.194824,-0.050293,0.978516,0.243902,-0.365854,-0.121951,15.400001,7.881250,43.193752,0.0,1.000000,0.000000,0.000000,0.000000
1782115676.420197,175469,0.194824,-0.050293,0.978516,0.243902,-0.365854,-0.121951,15.656250,8.312500,42.906250,0.0,1.000000,0.000000,0.000000,0.000000
1782115676.430197,175479,0.195801,-0.049805,0.979492,0.304878,-0.304878,-0.060976,15.656250,8.312500,42.906250,0.0,1.000000,0.000000,0.000000,0.000000
1782115676.440197,175489,0.194824,-0.049805,0.979980,0.243902,-0.304878,-0.060976,15.443750,7.850000,43.206249,0.0,1.000000,0.000000,0.000000,0.000000
1782115676.450197,175499,0.195312,-0.048340,0.979980,0.243902,-0.304878,-0.060976,15.443750,7.850000,43.206249,0.0,1.000000,0.000000,0.000000,0.000000
1782115676.460197,175509,0.196777,-0.049805,0.980957,0.182927,-0.304878,-0.060976,15.468750,7.937500,43.100002,0.0,1.000000,0.000000,0.000000,0.000000
1782115676.470197,175519,0.195801,-0.048828,0.981445,0.121951,-0.182927,-0.060976,15.468750,7.937500,43.100002,0.0,1.000000,0.000000,0.000000,0.000000
1782115676.480197,175529,0.195801,-0.048828,0.981445,0.060976,-0.182927,-0.060976,15.487500,7.875000,43.131252,0.0,1.000000,0.000000,0.000000,0.000000
1782115676.491197,175540,0.195801,-0.047852,0.981934,0.000000,-0.243902,-0.121951,15.487500,7.875000,43.131252,0.0,1.000000,0.000000,0.000000,0.000000
1782115676.500197,175549,0.195801,-0.047852,0.981934,-0.060976,-0.304878,-0.060976,15.450000,8.012500,43.112499,0.0,1.000000,0.000000,0.000000,0.000000
1782115676.510197,175559,0.196777,-0.046387,0.980957,0.000000,-0.365854,-0.060976,15.450000,8.012500,43.112499,0.0,1.000000,0.000000,0.000000,0.000000
1782115676.520197,175569,0.195801,-0.046387,0.979492,0.000000,-0.304878,-0.060976,15.406250,7.837500,43.174999,0.0,1.000000,0.000000,0.000000,0.000000
1782115676.531197,175580,0.195312,-0.047363,0.979004,-0.060976,-0.365854,-0.121951,15.406250,7.837500,43.174999,0.0,1.000000,0.000000,0.000000,0.000000
1782115676.540197,175589,0.196289,-0.047852,0.980469,-0.060976,-0.182927,-0.182927,15.593750,8.093750,43.018749,0.0,1.000000,0.000000,0.000000,0.000000
1782115676.550197,175599,0.194824,-0.047363,0.980469,-0.060976,-0.121951,-0.182927,15.593750,8.093750,43.018749,0.0,1.000000,0.000000,0.000000,0.000000
1782115676.560197,175609,0.194336,-0.046387,0.982910,-0.060976,-0.121951,-0.243902,15.418750,7.875000,43.156250,0.0,1.000000,0.000000,0.000000,0.000000
1782115676.571197,175620,0.194336,-0.044922,0.982422,-0.243902,-0.182927,-0.182927,15.418750,7.875000,43.156250,0.0,1.000000,0.000000,0.000000,0.000000
1782115676.580197,175629,0.193359,-0.045898,0.980469,-0.304878,-0.060976,-0.304878,15.493751,7.925000,43.162502,0.0,1.000000,0.000000,0.000000,0.000000
1782115676.590197,175639,0.190430,-0.045898,0.981445,-0.426829,-0.060976,-0.304878,15.493751,7.925000,43.162502,0.0,1.000000,0.000000,0.000000,0.000000
1782115676.600197,175649,0.191895,-0.046875,0.979492,-0.426829,-0.121951,-0.365854,15.418750,7.900000,43.143749,0.0,1.000000,0.000000,0.000000,0.000000
1782115676.611197,175660,0.191895,-0.047852,0.979980,-0.426829,-0.121951,-0.365854,15.418750,7.900000,43.143749,0.0,1.000000,0.000000,0.000000,0.000000
1782115676.620197,175669,0.192871,-0.047852,0.980957,-0.426829,-0.121951,-0.426829,15.468750,7.887500,43.143749,0.0,1.000000,0.000000,0.000000,0.000000
1782115676.631197,175680,0.192871,-0.048340,0.979980,-0.426829,-0.121951,-0.487805,15.468750,7.887500,43.143749,0.0,1.000000,0.000000,0.000000,0.000000
1782115676.640197,175689,0.192383,-0.048828,0.979492,-0.487805,-0.121951,-0.487805,15.450000,7.912500,43.174999,0.0,1.000000,0.000000,0.000000,0.000000
1782115676.652197,175701,0.192871,-0.049805,0.981934,-0.548781,-0.121951,-0.609756,15.462501,7.831250,43.125000,0.0,1.000000,0.000000,0.000000,0.000000
1782115676.660197,175709,0.193359,-0.049805,0.980469,-0.487805,-0.121951,-0.548781,15.462501,7.831250,43.125000,0.0,1.000000,0.000000,0.000000,0.000000
1782115676.670197,175719,0.193359,-0.049805,0.980469,-0.609756,-0.182927,-0.548781,15.462501,7.831250,43.125000,0.0,1.000000,0.000000,0.000000,0.000000
1782115676.680197,175729,0.193848,-0.050781,0.979492,-0.609756,-0.304878,-0.548781,15.431251,7.881250,43.193752,0.0,1.000000,0.000000,0.000000,0.000000
1782115676.693197,175742,0.196289,-0.051270,0.979980,-0.548781,-0.182927,-0.487805,15.431251,7.881250,43.193752,0.0,1.000000,0.000000,0.000000,0.000000
1782115676.700197,175749,0.195801,-0.050781,0.979492,-0.548781,-0.121951,-0.426829,15.468750,7.806250,43.168751,0.0,1.000000,0.000000,0.000000,0.000000
1782115676.710197,175759,0.195312,-0.051270,0.978516,-0.426829,-0.182927,-0.365854,15.468750,7.806250,43.168751,0.0,1.000000,0.000000,0.000000,0.000000
1782115676.720197,175769,0.195801,-0.052246,0.979492,-0.365854,-0.182927,-0.304878,15.475000,7.937500,43.174999,0.0,1.000000,0.000000,0.000000,0.000000
1782115676.730197,175779,0.197266,-0.051270,0.979980,-0.365854,-0.182927,-0.182927,15.475000,7.937500,43.174999,0.0,1.000000,0.000000,0.000000,0.000000
1782115676.740197,175789,0.195312,-0.050293,0.980469,-0.304878,-0.182927,-0.121951,15.425000,7.893750,43.181252,0.0,1.000000,0.000000,0.000000,0.000000
1782115676.750197,175799,0.194824,-0.049316,0.980957,-0.304878,-0.243902,-0.060976,15.425000,7.893750,43.181252,0.0,1.000000,0.000000,0.000000,0.000000
1782115676.760197,175809,0.195312,-0.050293,0.981445,-0.365854,-0.304878,-0.060976,15.581250,8.118751,42.987499,0.0,1.000000,0.000000,0.000000,0.000000
1782115676.772197,175821,0.194336,-0.050293,0.979980,-0.365854,-0.304878,-0.121951,15.581250,8.118751,42.987499,0.0,1.000000,0.000000,0.000000,0.000000
1782115676.780197,175829,0.194824,-0.050781,0.979980,-0.304878,-0.243902,-0.121951,15.400001,7.881250,43.168751,0.0,1.000000,0.000000,0.000000,0.000000
1782115676.790197,175839,0.195312,-0.051758,0.979492,-0.304878,-0.182927,-0.121951,15.400001,7.881250,43.168751,0.0,1.000000,0.000000,0.000000,0.000000
1782115676.800197,175849,0.194336,-0.052734,0.980469,-0.304878,-0.182927,-0.182927,15.425000,7.912500,43.174999,0.0,1.000000,0.000000,0.000000,0.000000
1782115676.810197,175859,0.194336,-0.052734,0.979492,-0.304878,-0.182927,-0.243902,15.425000,7.912500,43.174999,0.0,1.000000,0.000000,0.000000,0.000000
1782115676.820197,175869,0.193359,-0.053711,0.980469,-0.243902,-0.243902,-0.243902,15.493751,8.112500,43.056252,0.0,1.000000,0.000000,0.000000,0.000000
1782115676.831197,175880,0.190918,-0.052734,0.981445,-0.243902,-0.182927,-0.304878,15.531250,8.056251,43.093750,0.0,1.000000,0.000000,0.000000,0.000000
1782115676.840197,175889,0.192383,-0.053223,0.980469,-0.182927,-0.243902,-0.304878,15.531250,8.056251,43.093750,0.0,1.000000,0.000000,0.000000,0.000000
1782115676.853197,175902,0.191895,-0.052734,0.979492,0.000000,-0.426829,-0.304878,15.412500,7.850000,43.218750,0.0,1.000000,0.000000,0.000000,0.000000
1782115676.861197,175910,0.193359,-0.052734,0.979980,0.060976,-0.365854,-0.243902,15.412500,7.850000,43.218750,0.0,1.000000,0.000000,0.000000,0.000000
1782115676.870197,175919,0.192871,-0.052246,0.980469,0.121951,-0.243902,-0.304878,15.412500,7.850000,43.218750,0.0,1.000000,0.000000,0.000000,0.000000
1782115676.880197,175929,0.193359,-0.051270,0.979980,0.121951,-0.182927,-0.304878,15.500000,7.962500,43.112499,0.0,1.000000,0.000000,0.000000,0.000000
1782115676.890197,175939,0.192383,-0.050781,0.980469,0.304878,-0.243902,-0.304878,15.500000,7.962500,43.112499,0.0,1.000000,0.000000,0.000000,0.000000
1782115676.900197,175949,0.193848,-0.049805,0.979980,0.304878,-0.243902,-0.365854,15.418750,7.881250,43.150002,0.0,1.000000,0.000000,0.000000,0.000000
1782115676.910197,175959,0.193848,-0.049805,0.980957,0.304878,-0.060976,-0.365854,15.625000,8.200000,42.993752,0.0,1.000000,0.000000,0.000000,0.000000
1782115676.920197,175969,0.194336,-0.047852,0.981445,0.243902,-0.182927,-0.426829,15.625000,8.200000,42.993752,0.0,1.000000,0.000000,0.000000,0.000000
1782115676.930197,175979,0.193359,-0.046875,0.980469,0.243902,-0.304878,-0.304878,15.450000,7.868750,43.150002,0.0,1.000000,0.000000,0.000000,0.000000
1782115676.940197,175989,0.193848,-0.047852,0.981445,0.121951,-0.304878,-0.243902,15.450000,7.868750,43.150002,0.0,1.000000,0.000000,0.000000,0.000000
1782115676.950197,175999,0.194824,-0.046875,0.980469,0.060976,-0.365854,-0.182927,15.518750,7.918750,43.137501,0.0,1.000000,0.000000,0.000000,0.000000
1782115676.960197,176009,0.194824,-0.046387,0.980469,0.000000,-0.304878,-0.182927,15.518750,7.918750,43.137501,0.0,1.000000,0.000000,0.000000,0.000000
1782115676.971197,176020,0.194824,-0.046875,0.978027,-0.060976,-0.304878,-0.243902,15.518750,7.918750,43.150002,0.0,1.000000,0.000000,0.000000,0.000000
1782115676.981197,176030,0.195801,-0.045898,0.979492,-0.121951,-0.304878,-0.182927,15.518750,7.918750,43.150002,0.0,1.000000,0.000000,0.000000,0.000000
1782115676.991197,176040,0.197266,-0.046387,0.981445,-0.182927,-0.243902,-0.182927,15.512500,7.937500,43.131252,0.0,1.000000,0.000000,0.000000,0.000000
1782115677.000197,176049,0.196777,-0.046387,0.980957,-0.304878,-0.304878,-0.182927,15.512500,7.937500,43.131252,0.0,1.000000,0.000000,0.000000,0.000000
1782115677.010197,176059,0.196777,-0.045898,0.981934,-0.365854,-0.121951,-0.243902,15.787500,8.550000,42.818752,0.0,1.000000,0.000000,0.000000,0.000000
1782115677.020197,176069,0.196289,-0.045410,0.980957,-0.426829,-0.060976,-0.243902,15.787500,8.550000,42.818752,0.0,1.000000,0.000000,0.000000,0.000000
1782115677.030197,176079,0.196289,-0.045410,0.980469,-0.487805,-0.060976,-0.243902,15.593750,8.131250,43.018749,0.0,1.000000,0.000000,0.000000,0.000000
1782115677.040197,176089,0.196777,-0.046387,0.979492,-0.487805,-0.121951,-0.304878,15.593750,8.131250,43.018749,0.0,1.000000,0.000000,0.000000,0.000000
1782115677.050197,176099,0.196289,-0.046387,0.980469,-0.487805,-0.060976,-0.243902,15.575000,8.093750,43.031250,0.0,1.000000,0.000000,0.000000,0.000000
1782115677.061197,176110,0.197266,-0.045898,0.980469,-0.609756,0.060976,-0.304878,15.575000,8.093750,43.031250,0.0,1.000000,0.000000,0.000000,0.000000
1782115677.070197,176119,0.197754,-0.046387,0.982422,-0.731707,0.060976,-0.365854,15.493751,7.931250,43.168751,0.0,1.000000,0.000000,0.000000,0.000000
1782115677.080197,176129,0.196777,-0.045410,0.983398,-0.792683,0.121951,-0.365854,15.493751,7.931250,43.168751,0.0,1.000000,0.000000,0.000000,0.000000
1782115677.090197,176139,0.195312,-0.046387,0.982910,-0.914634,0.121951,-0.487805,15.500000,7.900000,43.162502,0.0,1.000000,0.000000,0.000000,0.000000
1782115677.100197,176149,0.193848,-0.046387,0.983398,-0.975610,0.121951,-0.548781,15.500000,7.900000,43.162502,0.0,1.000000,0.000000,0.000000,0.000000
1782115677.110197,176159,0.192871,-0.046875,0.981934,-1.036585,0.000000,-0.548781,15.462501,7.968750,43.137501,0.0,1.000000,0.000000,0.000000,0.000000
1782115677.120197,176169,0.190430,-0.047852,0.983398,-1.036585,-0.121951,-0.548781,15.462501,7.968750,43.137501,0.0,1.000000,0.000000,0.000000,0.000000
1782115677.130197,176179,0.189941,-0.048828,0.981934,-1.036585,-0.121951,-0.609756,15.593750,8.212501,43.025002,0.0,1.000000,0.000000,0.000000,0.000000
1782115677.142197,176191,0.189941,-0.051270,0.979492,-0.975610,-0.243902,-0.609756,15.593750,8.212501,43.025002,0.0,1.000000,0.000000,0.000000,0.000000
1782115677.150197,176199,0.190918,-0.052246,0.979980,-1.036585,-0.243902,-0.670732,15.437500,7.925000,43.156250,0.0,1.000000,0.000000,0.000000,0.000000
1782115677.160197,176209,0.192383,-0.053711,0.979004,-1.097561,-0.243902,-0.731707,15.437500,7.925000,43.156250,0.0,1.000000,0.000000,0.000000,0.000000
1782115677.170197,176219,0.192383,-0.053711,0.979492,-1.097561,-0.182927,-0.731707,15.437500,7.987500,43.131252,0.0,1.000000,0.000000,0.000000,0.000000
1782115677.180197,176229,0.194336,-0.053711,0.979980,-1.036585,0.000000,-0.792683,15.437500,7.987500,43.131252,0.0,1.000000,0.000000,0.000000,0.000000
1782115677.190197,176239,0.192871,-0.052734,0.979492,-0.914634,0.060976,-0.670732,15.525001,8.168750,42.975002,0.0,1.000000,0.000000,0.000000,0.000000
1782115677.200197,176249,0.192383,-0.054199,0.979492,-0.792683,0.000000,-0.548781,15.525001,8.168750,42.975002,0.0,1.000000,0.000000,0.000000,0.000000
1782115677.210197,176259,0.191895,-0.054688,0.979980,-0.670732,0.060976,-0.487805,15.406250,7.937500,43.143749,0.0,1.000000,0.000000,0.000000,0.000000
1782115677.220197,176269,0.190430,-0.054688,0.979004,-0.548781,-0.060976,-0.365854,15.406250,7.937500,43.143749,0.0,1.000000,0.000000,0.000000,0.000000
1782115677.230197,176279,0.190918,-0.056641,0.979492,-0.487805,-0.121951,-0.304878,15.493751,8.075000,43.112499,0.0,1.000000,0.000000,0.000000,0.000000
1782115677.241197,176290,0.191895,-0.056641,0.980469,-0.304878,-0.060976,-0.304878,15.493751,8.075000,43.112499,0.0,1.000000,0.000000,0.000000,0.000000
1782115677.251197,176300,0.191895,-0.057617,0.981445,-0.182927,-0.121951,-0.243902,15.506250,8.081250,43.093750,0.0,1.000000,0.000000,0.000000,0.000000
1782115677.260197,176309,0.192871,-0.057617,0.980469,-0.060976,-0.243902,-0.304878,15.506250,8.081250,43.093750,0.0,1.000000,0.000000,0.000000,0.000000
1782115677.271197,176320,0.191895,-0.056641,0.981445,0.000000,-0.304878,-0.304878,15.468750,8.075000,43.112499,0.0,1.000000,0.000000,0.000000,0.000000
1782115677.281197,176330,0.191895,-0.055176,0.980957,0.000000,-0.365854,-0.304878,15.468750,8.075000,43.112499,0.0,1.000000,0.000000,0.000000,0.000000
1782115677.290197,176339,0.193359,-0.055176,0.980469,0.000000,-0.426829,-0.304878,15.481250,8.043750,43.106251,0.0,1.000000,0.000000,0.000000,0.000000
1782115677.300197,176349,0.193359,-0.055176,0.980469,-0.060976,-0.487805,-0.243902,15.481250,8.043750,43.106251,0.0,1.000000,0.000000,0.000000,0.000000
1782115677.310197,176359,0.193848,-0.054199,0.980469,0.000000,-0.487805,-0.243902,15.450000,8.043750,43.118752,0.0,1.000000,0.000000,0.000000,0.000000
1782115677.320197,176369,0.195312,-0.055176,0.979492,0.121951,-0.426829,-0.182927,15.450000,8.043750,43.118752,0.0,1.000000,0.000000,0.000000,0.000000
1782115677.330197,176379,0.196777,-0.054688,0.978027,0.121951,-0.304878,-0.182927,15.506250,8.062500,43.112499,0.0,1.000000,0.000000,0.000000,0.000000
1782115677.340197,176389,0.196777,-0.054199,0.979492,0.121951,-0.304878,-0.121951,15.506250,8.062500,43.112499,0.0,1.000000,0.000000,0.000000,0.000000
1782115677.350197,176399,0.196777,-0.053223,0.978516,0.243902,-0.304878,-0.060976,15.481250,8.043750,43.106251,0.0,1.000000,0.000000,0.000000,0.000000
1782115677.360197,176409,0.195312,-0.052734,0.979492,0.365854,-0.365854,0.000000,15.481250,8.043750,43.106251,0.0,1.000000,0.000000,0.000000,0.000000
1782115677.371197,176420,0.195312,-0.053223,0.981934,0.365854,-0.304878,0.060976,15.431251,7.987500,43.206249,0.0,1.000000,0.000000,0.000000,0.000000
1782115677.380197,176429,0.192383,-0.051270,0.981445,0.487805,-0.304878,0.000000,15.431251,7.987500,43.206249,0.0,1.000000,0.000000,0.000000,0.000000
1782115677.390197,176439,0.191895,-0.050781,0.979492,0.487805,-0.426829,-0.121951,15.662500,8.293750,42.912502,0.0,1.000000,0.000000,0.000000,0.000000
1782115677.400197,176449,0.191895,-0.050781,0.979004,0.426829,-0.487805,-0.121951,15.662500,8.293750,42.912502,0.0,1.000000,0.000000,0.000000,0.000000
1782115677.410197,176459,0.193359,-0.051270,0.979980,0.304878,-0.304878,-0.243902,15.418750,7.968750,43.168751,0.0,1.000000,0.000000,0.000000,0.000000
1782115677.421197,176470,0.194824,-0.050293,0.980957,0.304878,-0.304878,-0.304878,15.418750,7.968750,43.168751,0.0,1.000000,0.000000,0.000000,0.000000
1782115677.430197,176479,0.195801,-0.050293,0.980957,0.304878,-0.243902,-0.365854,15.493751,8.031250,43.181252,0.0,1.000000,0.000000,0.000000,0.000000
1782115677.441197,176490,0.196289,-0.049316,0.980957,0.304878,-0.304878,-0.365854,15.493751,8.031250,43.181252,0.0,1.000000,0.000000,0.000000,0.000000
1782115677.450197,176499,0.194824,-0.048828,0.980957,0.365854,-0.304878,-0.365854,15.475000,7.981250,43.150002,0.0,1.000000,0.000000,0.000000,0.000000
1782115677.461197,176510,0.196777,-0.047852,0.979980,0.365854,-0.304878,-0.243902,15.475000,7.981250,43.150002,0.0,1.000000,0.000000,0.000000,0.000000
1782115677.471197,176520,0.196289,-0.048340,0.979492,0.304878,-0.243902,-0.182927,15.506250,8.018750,43.093750,0.0,1.000000,0.000000,0.000000,0.000000
1782115677.480197,176529,0.196289,-0.046387,0.981934,0.365854,-0.243902,-0.121951,15.506250,8.018750,43.093750,0.0,1.000000,0.000000,0.000000,0.000000
1782115677.490197,176539,0.194824,-0.047852,0.980957,0.365854,-0.365854,-0.121951,15.481250,7.987500,43.100002,0.0,1.000000,0.000000,0.000000,0.000000
1782115677.500197,176549,0.193359,-0.047363,0.982910,0.304878,-0.365854,-0.060976,15.481250,7.987500,43.100002,0.0,1.000000,0.000000,0.000000,0.000000
1782115677.510197,176559,0.195312,-0.046387,0.982422,0.365854,-0.426829,0.000000,15.593750,8.168750,42.943752,0.0,1.000000,0.000000,0.000000,0.000000
1782115677.520197,176569,0.194824,-0.044434,0.982422,0.243902,-0.304878,0.000000,15.593750,8.168750,42.943752,0.0,1.000000,0.000000,0.000000,0.000000
1782115677.530197,176579,0.193848,-0.044922,0.981934,0.121951,-0.426829,0.000000,15.493751,7.975000,43.100002,0.0,1.000000,0.000000,0.000000,0.000000
1782115677.540197,176589,0.193359,-0.045898,0.981445,0.000000,-0.243902,0.060976,15.493751,7.975000,43.100002,0.0,1.000000,0.000000,0.000000,0.000000
1782115677.550197,176599,0.192871,-0.046387,0.981934,-0.243902,-0.365854,-0.060976,15.575000,8.037500,43.112499,0.0,1.000000,0.000000,0.000000,0.000000
1782115677.560197,176609,0.193359,-0.045898,0.981934,-0.304878,-0.365854,-0.060976,15.575000,8.037500,43.112499,0.0,1.000000,0.000000,0.000000,0.000000
1782115677.570197,176619,0.193359,-0.044434,0.980469,-0.426829,-0.365854,-0.060976,15.481250,8.012500,43.068752,0.0,1.000000,0.000000,0.000000,0.000000
1782115677.580197,176629,0.192871,-0.046875,0.981445,-0.487805,-0.243902,-0.243902,15.481250,8.012500,43.068752,0.0,1.000000,0.000000,0.000000,0.000000
1782115677.590197,176639,0.192383,-0.046387,0.980469,-0.426829,-0.243902,-0.304878,15.462501,7.931250,43.093750,0.0,1.000000,0.000000,0.000000,0.000000
1782115677.600197,176649,0.193359,-0.046875,0.980469,-0.365854,-0.243902,-0.304878,15.462501,7.931250,43.093750,0.0,1.000000,0.000000,0.000000,0.000000
1782115677.610197,176659,0.193359,-0.046875,0.980469,-0.365854,-0.243902,-0.365854,15.556251,7.962500,43.131252,0.0,1.000000,0.000000,0.000000,0.000000
1782115677.621197,176670,0.192383,-0.047363,0.981445,-0.365854,-0.243902,-0.426829,15.556251,7.962500,43.131252,0.0,1.000000,0.000000,0.000000,0.000000
1782115677.631197,176680,0.191406,-0.048828,0.981445,-0.365854,-0.182927,-0.426829,15.562500,8.093750,43.049999,0.0,1.000000,0.000000,0.000000,0.000000
1782115677.640197,176689,0.192383,-0.048828,0.980469,-0.365854,-0.182927,-0.426829,15.562500,8.093750,43.049999,0.0,1.000000,0.000000,0.000000,0.000000
1782115677.651197,176700,0.193359,-0.048828,0.980469,-0.426829,-0.243902,-0.487805,15.506250,7.943750,43.093750,0.0,1.000000,0.000000,0.000000,0.000000
1782115677.662197,176711,0.193848,-0.050781,0.980469,-0.548781,-0.243902,-0.487805,15.506250,7.943750,43.093750,0.0,1.000000,0.000000,0.000000,0.000000
1782115677.671197,176720,0.193848,-0.051270,0.980469,-0.548781,-0.243902,-0.487805,15.468750,7.993750,43.150002,0.0,1.000000,0.000000,0.000000,0.000000
1782115677.680197,176729,0.193359,-0.051758,0.979980,-0.548781,-0.182927,-0.487805,15.468750,7.993750,43.150002,0.0,1.000000,0.000000,0.000000,0.000000
1782115677.690197,176739,0.194336,-0.051758,0.980469,-0.548781,-0.182927,-0.487805,15.481250,7.975000,43.112499,0.0,1.000000,0.000000,0.000000,0.000000
1782115677.700197,176749,0.193848,-0.052734,0.979980,-0.487805,-0.182927,-0.487805,15.481250,7.975000,43.112499,0.0,1.000000,0.000000,0.000000,0.000000
1782115677.710197,176759,0.194336,-0.053223,0.979980,-0.426829,-0.243902,-0.365854,15.537500,8.081250,43.075001,0.0,1.000000,0.000000,0.000000,0.000000
1782115677.720197,176769,0.194336,-0.054199,0.979980,-0.304878,-0.182927,-0.487805,15.537500,8.081250,43.075001,0.0,1.000000,0.000000,0.000000,0.000000
1782115677.730197,176779,0.194336,-0.054199,0.979980,-0.243902,-0.182927,-0.487805,15.500000,7.956250,43.150002,0.0,1.000000,0.000000,0.000000,0.000000
1782115677.740197,176789,0.194824,-0.054688,0.979004,-0.060976,-0.304878,-0.365854,15.500000,7.956250,43.150002,0.0,1.000000,0.000000,0.000000,0.000000
1782115677.750197,176799,0.195312,-0.053711,0.979004,0.000000,-0.304878,-0.365854,15.481250,8.043750,43.093750,0.0,1.000000,0.000000,0.000000,0.000000
1782115677.760197,176809,0.194824,-0.054199,0.979492,0.060976,-0.365854,-0.304878,15.481250,8.043750,43.093750,0.0,1.000000,0.000000,0.000000,0.000000
1782115677.770197,176819,0.196289,-0.054199,0.980469,0.060976,-0.243902,-0.243902,15.462501,7.943750,43.200001,0.0,1.000000,0.000000,0.000000,0.000000
1782115677.780197,176829,0.193359,-0.054199,0.979980,0.060976,-0.365854,-0.304878,15.462501,7.943750,43.200001,0.0,1.000000,0.000000,0.000000,0.000000
1782115677.790197,176839,0.194824,-0.054199,0.980469,0.121951,-0.365854,-0.243902,15.506250,7.962500,43.131252,0.0,1.000000,0.000000,0.000000,0.000000
1782115677.800197,176849,0.194336,-0.051270,0.980469,0.121951,-0.426829,-0.182927,15.506250,7.962500,43.131252,0.0,1.000000,0.000000,0.000000,0.000000
1782115677.810197,176859,0.195312,-0.050781,0.979980,0.060976,-0.304878,-0.182927,15.512500,7.925000,43.112499,0.0,1.000000,0.000000,0.000000,0.000000
1782115677.821197,176870,0.193848,-0.051270,0.980469,0.243902,-0.304878,-0.121951,15.512500,7.925000,43.112499,0.0,1.000000,0.000000,0.000000,0.000000
1782115677.830197,176879,0.194336,-0.050293,0.979980,0.304878,-0.365854,-0.121951,15.468750,7.918750,43.137501,0.0,1.000000,0.000000,0.000000,0.000000
1782115677.841197,176890,0.194824,-0.049805,0.979492,0.304878,-0.487805,-0.121951,15.468750,7.918750,43.137501,0.0,1.000000,0.000000,0.000000,0.000000
1782115677.850197,176899,0.194824,-0.048828,0.981445,0.304878,-0.426829,-0.060976,15.531250,7.956250,43.125000,0.0,1.000000,0.000000,0.000000,0.000000
1782115677.860197,176909,0.195312,-0.047852,0.980957,0.304878,-0.365854,0.000000,15.531250,7.956250,43.125000,0.0,1.000000,0.000000,0.000000,0.000000
1782115677.870197,176919,0.195801,-0.047363,0.980469,0.304878,-0.304878,-0.060976,15.500000,7.943750,43.150002,0.0,1.000000,0.000000,0.000000,0.000000
1782115677.880197,176929,0.194824,-0.045898,0.980957,0.182927,-0.243902,-0.121951,15.500000,7.943750,43.150002,0.0,1.000000,0.000000,0.000000,0.000000
1782115677.890197,176939,0.194336,-0.046875,0.980469,0.182927,-0.243902,-0.121951,15.512500,7.937500,43.174999,0.0,1.000000,0.000000,0.000000,0.000000
1782115677.902197,176951,0.195312,-0.046387,0.980469,0.060976,-0.243902,-0.182927,15.512500,7.937500,43.174999,0.0,1.000000,0.000000,0.000000,0.000000
1782115677.910197,176959,0.196289,-0.045898,0.980469,0.000000,-0.304878,-0.182927,15.543750,7.981250,43.125000,0.0,1.000000,0.000000,0.000000,0.000000
1782115677.920197,176969,0.196289,-0.045410,0.980957,0.000000,-0.243902,-0.182927,15.543750,7.981250,43.125000,0.0,1.000000,0.000000,0.000000,0.000000
1782115677.931197,176980,0.195801,-0.044922,0.980469,-0.060976,-0.121951,-0.243902,15.550000,7.968750,43.150002,0.0,1.000000,0.000000,0.000000,0.000000
1782115677.940197,176989,0.194336,-0.046387,0.980469,-0.121951,-0.121951,-0.243902,15.550000,7.968750,43.150002,0.0,1.000000,0.000000,0.000000,0.000000
1782115677.950197,176999,0.194824,-0.044922,0.980957,-0.182927,-0.182927,-0.243902,15.493751,7.918750,43.125000,0.0,1.000000,0.000000,0.000000,0.000000
1782115677.960197,177009,0.193848,-0.045410,0.979980,-0.243902,-0.182927,-0.243902,15.493751,7.918750,43.125000,0.0,1.000000,0.000000,0.000000,0.000000
1782115677.970197,177019,0.196289,-0.046387,0.980957,-0.304878,-0.060976,-0.304878,15.475000,7.856250,43.181252,0.0,1.000000,0.000000,0.000000,0.000000
1782115677.980197,177029,0.194824,-0.045898,0.980957,-0.365854,-0.060976,-0.304878,15.475000,7.856250,43.181252,0.0,1.000000,0.000000,0.000000,0.000000
1782115677.990197,177039,0.193848,-0.047363,0.981445,-0.304878,-0.121951,-0.304878,15.543750,7.918750,43.093750,0.0,1.000000,0.000000,0.000000,0.000000
1782115678.000197,177049,0.195801,-0.045898,0.979980,-0.365854,-0.182927,-0.182927,15.543750,7.918750,43.093750,0.0,1.000000,0.000000,0.000000,0.000000
1782115678.010197,177059,0.193848,-0.046387,0.982422,-0.487805,-0.121951,-0.243902,15.487500,7.875000,43.162502,0.0,1.000000,0.000000,0.000000,0.000000
1782115678.020197,177069,0.194824,-0.046875,0.980469,-0.609756,-0.243902,-0.243902,15.487500,7.875000,43.162502,0.0,1.000000,0.000000,0.000000,0.000000
1782115678.030197,177079,0.193848,-0.047852,0.980469,-0.792683,-0.182927,-0.243902,15.512500,7.918750,43.075001,0.0,1.000000,0.000000,0.000000,0.000000
1782115678.040197,177089,0.195312,-0.048828,0.981934,-0.853659,-0.182927,-0.243902,15.512500,7.918750,43.075001,0.0,1.000000,0.000000,0.000000,0.000000
1782115678.050197,177099,0.194336,-0.049316,0.980469,-0.731707,-0.182927,-0.304878,15.512500,7.887500,43.174999,0.0,1.000000,0.000000,0.000000,0.000000
1782115678.061197,177110,0.193359,-0.048828,0.979492,-0.548781,-0.121951,-0.243902,15.512500,7.887500,43.174999,0.0,1.000000,0.000000,0.000000,0.000000
1782115678.070197,177119,0.193359,-0.050293,0.981445,-0.487805,0.000000,-0.365854,15.525001,7.987500,43.187500,0.0,1.000000,0.000000,0.000000,0.000000
1782115678.081197,177130,0.191406,-0.049805,0.980957,-0.487805,-0.060976,-0.365854,15.525001,7.987500,43.187500,0.0,1.000000,0.000000,0.000000,0.000000
1782115678.090197,177139,0.190918,-0.049316,0.980469,-0.426829,-0.121951,-0.487805,15.500000,7.968750,43.200001,0.0,1.000000,0.000000,0.000000,0.000000
1782115678.101197,177150,0.191895,-0.049316,0.980957,-0.365854,-0.121951,-0.426829,15.500000,7.968750,43.200001,0.0,1.000000,0.000000,0.000000,0.000000
1782115678.110197,177159,0.193359,-0.048828,0.979004,-0.365854,-0.060976,-0.487805,15.512500,7.937500,43.143749,0.0,1.000000,0.000000,0.000000,0.000000
1782115678.120197,177169,0.191895,-0.049316,0.980957,-0.365854,-0.121951,-0.426829,15.512500,7.937500,43.143749,0.0,1.000000,0.000000,0.000000,0.000000
1782115678.130197,177179,0.193359,-0.049805,0.980469,-0.426829,-0.121951,-0.426829,15.500000,7.931250,43.137501,0.0,1.000000,0.000000,0.000000,0.000000
1782115678.140197,177189,0.192383,-0.049805,0.979980,-0.487805,-0.121951,-0.426829,15.500000,7.931250,43.137501,0.0,1.000000,0.000000,0.000000,0.000000
1782115678.150197,177199,0.193848,-0.052734,0.978516,-0.548781,-0.121951,-0.487805,15.512500,7.993750,43.062500,0.0,1.000000,0.000000,0.000000,0.000000
1782115678.160197,177209,0.195312,-0.052246,0.979980,-0.548781,-0.121951,-0.487805,15.512500,7.993750,43.062500,0.0,1.000000,0.000000,0.000000,0.000000
1782115678.170197,177219,0.193848,-0.052246,0.979980,-0.487805,-0.121951,-0.487805,15.425000,7.943750,43.150002,0.0,1.000000,0.000000,0.000000,0.000000
1782115678.180197,177229,0.195801,-0.053223,0.979492,-0.426829,-0.121951,-0.426829,15.425000,7.943750,43.150002,0.0,1.000000,0.000000,0.000000,0.000000
1782115678.190197,177239,0.193359,-0.053711,0.980469,-0.365854,-0.060976,-0.365854,15.512500,7.943750,43.106251,0.0,1.000000,0.000000,0.000000,0.000000
1782115678.200197,177249,0.194824,-0.051758,0.979492,-0.365854,-0.121951,-0.365854,15.512500,7.943750,43.106251,0.0,1.000000,0.000000,0.000000,0.000000
1782115678.210197,177259,0.193359,-0.052734,0.978516,-0.243902,-0.243902,-0.365854,15.437500,7.887500,43.187500,0.0,1.000000,0.000000,0.000000,0.000000
1782115678.221197,177270,0.194824,-0.053711,0.979004,-0.243902,-0.365854,-0.243902,15.437500,7.887500,43.187500,0.0,1.000000,0.000000,0.000000,0.000000
1782115678.231197,177280,0.195801,-0.053711,0.981934,-0.243902,-0.365854,-0.182927,15.550000,7.987500,43.143749,0.0,1.000000,0.000000,0.000000,0.000000
1782115678.241197,177290,0.194824,-0.050293,0.980469,-0.060976,-0.243902,-0.182927,15.550000,7.987500,43.143749,0.0,1.000000,0.000000,0.000000,0.000000
1782115678.251197,177300,0.194824,-0.050293,0.980469,-0.060976,-0.243902,-0.182927,15.468750,7.887500,43.174999,0.0,1.000000,0.000000,0.000000,0.000000
1782115678.261197,177310,0.193848,-0.049316,0.979004,0.060976,-0.243902,-0.121951,15.468750,7.887500,43.174999,0.0,1.000000,0.000000,0.000000,0.000000
1782115678.270197,177319,0.193848,-0.049316,0.978027,-0.060976,-0.304878,-0.060976,15.487500,7.987500,43.100002,0.0,1.000000,0.000000,0.000000,0.000000
1782115678.280197,177329,0.194336,-0.049805,0.979004,-0.060976,-0.243902,-0.060976,15.487500,7.987500,43.100002,0.0,1.000000,0.000000,0.000000,0.000000
1782115678.290197,177339,0.194824,-0.048828,0.981445,-0.060976,-0.182927,-0.121951,15.493751,7.943750,43.168751,0.0,1.000000,0.000000,0.000000,0.000000
1782115678.300197,177349,0.193848,-0.048828,0.980957,-0.060976,-0.182927,-0.121951,15.493751,7.943750,43.168751,0.0,1.000000,0.000000,0.000000,0.000000
1782115678.311197,177360,0.192383,-0.048340,0.981934,-0.121951,-0.182927,-0.121951,15.500000,7.943750,43.181252,0.0,1.000000,0.000000,0.000000,0.000000
1782115678.320197,177369,0.192383,-0.048340,0.980469,-0.243902,-0.243902,-0.060976,15.500000,7.943750,43.181252,0.0,1.000000,0.000000,0.000000,0.000000
1782115678.330197,177379,0.191895,-0.048828,0.980469,-0.243902,-0.304878,-0.060976,15.606250,8.075000,43.037502,0.0,1.000000,0.000000,0.000000,0.000000
1782115678.340197,177389,0.191406,-0.048340,0.981934,-0.304878,-0.365854,-0.121951,15.606250,8.075000,43.037502,0.0,1.000000,0.000000,0.000000,0.000000
1782115678.350197,177399,0.191406,-0.049316,0.982422,-0.304878,-0.426829,-0.243902,15.481250,7.893750,43.150002,0.0,1.000000,0.000000,0.000000,0.000000
1782115678.360197,177409,0.189941,-0.049316,0.980957,-0.304878,-0.426829,-0.304878,15.481250,7.893750,43.150002,0.0,1.000000,0.000000,0.000000,0.000000
1782115678.370197,177419,0.191406,-0.049805,0.981445,-0.304878,-0.548781,-0.365854,15.443750,7.856250,43.168751,0.0,1.000000,0.000000,0.000000,0.000000
1782115678.381197,177430,0.193848,-0.049805,0.979492,-0.304878,-0.548781,-0.304878,15.443750,7.856250,43.168751,0.0,1.000000,0.000000,0.000000,0.000000
1782115678.390197,177439,0.195312,-0.051758,0.978516,-0.304878,-0.426829,-0.365854,15.506250,7.950000,43.131252,0.0,1.000000,0.000000,0.000000,0.000000
1782115678.400197,177449,0.195312,-0.050781,0.979492,-0.243902,-0.426829,-0.426829,15.506250,7.950000,43.131252,0.0,1.000000,0.000000,0.000000,0.000000
1782115678.410197,177459,0.196777,-0.051758,0.979980,-0.243902,-0.365854,-0.426829,15.450000,7.856250,43.181252,0.0,1.000000,0.000000,0.000000,0.000000
1782115678.421197,177470,0.197754,-0.052246,0.979980,-0.182927,-0.304878,-0.426829,15.450000,7.856250,43.181252,0.0,1.000000,0.000000,0.000000,0.000000
1782115678.430197,177479,0.197266,-0.052734,0.979980,-0.121951,-0.304878,-0.365854,15.506250,7.950000,43.187500,0.0,1.000000,0.000000,0.000000,0.000000
1782115678.440197,177489,0.196777,-0.051758,0.977539,0.000000,-0.304878,-0.304878,15.506250,7.950000,43.187500,0.0,1.000000,0.000000,0.000000,0.000000
1782115678.450197,177499,0.198242,-0.050781,0.978516,0.182927,-0.243902,-0.304878,15.412500,7.868750,43.181252,0.0,1.000000,0.000000,0.000000,0.000000
1782115678.460197,177509,0.197754,-0.051270,0.978516,0.243902,-0.182927,-0.243902,15.412500,7.868750,43.181252,0.0,1.000000,0.000000,0.000000,0.000000
1782115678.470197,177519,0.197266,-0.052246,0.979004,0.304878,-0.182927,-0.243902,15.525001,7.931250,43.125000,0.0,1.000000,0.000000,0.000000,0.000000
1782115678.480197,177529,0.197266,-0.051270,0.979980,0.365854,-0.243902,-0.243902,15.525001,7.931250,43.125000,0.0,1.000000,0.000000,0.000000,0.000000
1782115678.490197,177539,0.197754,-0.050293,0.979004,0.304878,-0.182927,-0.182927,15.468750,7.868750,43.150002,0.0,1.000000,0.000000,0.000000,0.000000
1782115678.501197,177550,0.198730,-0.050293,0.979492,0.304878,-0.060976,-0.121951,15.468750,7.868750,43.150002,0.0,1.000000,0.000000,0.000000,0.000000
1782115678.510197,177559,0.197754,-0.050293,0.980469,0.243902,-0.060976,-0.121951,15.556251,7.943750,43.106251,0.0,1.000000,0.000000,0.000000,0.000000
1782115678.520197,177569,0.195801,-0.049316,0.979492,0.243902,-0.060976,-0.060976,15.556251,7.943750,43.106251,0.0,1.000000,0.000000,0.000000,0.000000
1782115678.530197,177579,0.194824,-0.049316,0.980957,0.182927,-0.060976,-0.121951,15.456250,7.868750,43.168751,0.0,1.000000,0.000000,0.000000,0.000000
1782115678.540197,177589,0.194336,-0.048340,0.981445,0.121951,0.000000,-0.060976,15.456250,7.868750,43.168751,0.0,1.000000,0.000000,0.000000,0.000000
1782115678.550197,177599,0.193848,-0.046387,0.981934,0.121951,0.000000,0.000000,15.493751,7.937500,43.174999,0.0,1.000000,0.000000,0.000000,0.000000
1782115678.560197,177609,0.193359,-0.043457,0.982910,0.060976,0.000000,0.000000,15.493751,7.937500,43.174999,0.0,1.000000,0.000000,0.000000,0.000000
1782115678.570197,177619,0.192383,-0.044922,0.979980,0.000000,-0.060976,0.060976,15.506250,7.831250,43.181252,0.0,1.000000,0.000000,0.000000,0.000000
1782115678.580197,177629,0.191895,-0.044434,0.980469,-0.121951,-0.121951,0.060976,15.506250,7.831250,43.181252,0.0,1.000000,0.000000,0.000000,0.000000
1782115678.590197,177639,0.191406,-0.044434,0.980957,-0.243902,-0.182927,0.121951,15.493751,7.856250,43.168751,0.0,1.000000,0.000000,0.000000,0.000000
1782115678.600197,177649,0.191406,-0.045898,0.980957,-0.304878,-0.182927,0.121951,15.493751,7.856250,43.168751,0.0,1.000000,0.000000,0.000000,0.000000
1782115678.610197,177659,0.190918,-0.044922,0.981445,-0.365854,-0.182927,0.060976,15.506250,7.906250,43.125000,0.0,1.000000,0.000000,0.000000,0.000000
1782115678.621197,177670,0.191406,-0.045898,0.981445,-0.304878,-0.182927,0.000000,15.525001,7.937500,43.143749,0.0,1.000000,0.000000,0.000000,0.000000
1782115678.630197,177679,0.190918,-0.044922,0.980957,-0.304878,-0.182927,0.000000,15.525001,7.937500,43.143749,0.0,1.000000,0.000000,0.000000,0.000000
1782115678.640197,177689,0.191406,-0.045410,0.979980,-0.487805,-0.121951,-0.121951,15.525001,7.937500,43.143749,0.0,1.000000,0.000000,0.000000,0.000000
1782115678.650197,177699,0.191406,-0.046387,0.981934,-0.548781,-0.121951,-0.182927,15.475000,7.893750,43.125000,0.0,1.000000,0.000000,0.000000,0.000000
1782115678.660197,177709,0.190918,-0.045410,0.981445,-0.670732,-0.121951,-0.243902,15.475000,7.893750,43.125000,0.0,1.000000,0.000000,0.000000,0.000000
1782115678.670197,177719,0.192383,-0.046875,0.981934,-0.670732,-0.060976,-0.243902,15.581250,7.993750,43.093750,0.0,1.000000,0.000000,0.000000,0.000000
1782115678.681197,177730,0.191895,-0.046875,0.980957,-0.731707,-0.060976,-0.304878,15.462501,7.862500,43.162502,0.0,1.000000,0.000000,0.000000,0.000000
1782115678.691197,177740,0.192383,-0.048340,0.981934,-0.792683,0.000000,-0.365854,15.462501,7.862500,43.162502,0.0,1.000000,0.000000,0.000000,0.000000
1782115678.700197,177749,0.191895,-0.048828,0.981445,-0.853659,0.000000,-0.426829,15.462501,7.862500,43.162502,0.0,1.000000,0.000000,0.000000,0.000000
1782115678.710197,177759,0.191406,-0.048340,0.981445,-0.792683,-0.182927,-0.487805,15.487500,7.943750,43.106251,0.0,1.000000,0.000000,0.000000,0.000000
1782115678.720197,177769,0.192871,-0.049316,0.981445,-0.731707,-0.182927,-0.487805,15.462501,7.868750,43.168751,0.0,1.000000,0.000000,0.000000,0.000000
1782115678.730197,177779,0.192871,-0.051758,0.980957,-0.731707,-0.121951,-0.548781,15.462501,7.868750,43.168751,0.0,1.000000,0.000000,0.000000,0.000000
1782115678.741197,177790,0.194824,-0.052734,0.981445,-0.731707,-0.121951,-0.548781,15.612500,8.112500,43.056252,0.0,1.000000,0.000000,0.000000,0.000000
1782115678.750197,177799,0.194336,-0.052246,0.981445,-0.670732,-0.121951,-0.548781,15.612500,8.112500,43.056252,0.0,1.000000,0.000000,0.000000,0.000000
1782115678.760197,177809,0.194824,-0.052246,0.980957,-0.609756,-0.243902,-0.487805,15.462501,7.912500,43.131252,0.0,1.000000,0.000000,0.000000,0.000000
1782115678.770197,177819,0.195801,-0.052246,0.979492,-0.548781,-0.243902,-0.426829,15.462501,7.912500,43.131252,0.0,1.000000,0.000000,0.000000,0.000000
1782115678.780197,177829,0.195801,-0.052734,0.979004,-0.548781,-0.304878,-0.365854,15.481250,7.900000,43.162502,0.0,1.000000,0.000000,0.000000,0.000000
1782115678.790197,177839,0.195312,-0.053223,0.979980,-0.426829,-0.304878,-0.304878,15.481250,7.900000,43.162502,0.0,1.000000,0.000000,0.000000,0.000000
1782115678.800197,177849,0.195312,-0.053223,0.980469,-0.426829,-0.243902,-0.304878,15.437500,7.887500,43.206249,0.0,1.000000,0.000000,0.000000,0.000000
1782115678.810197,177859,0.195312,-0.053223,0.980469,-0.365854,-0.121951,-0.365854,15.437500,7.887500,43.206249,0.0,1.000000,0.000000,0.000000,0.000000
1782115678.821197,177870,0.195312,-0.052246,0.979004,-0.243902,-0.121951,-0.365854,15.462501,7.912500,43.143749,0.0,1.000000,0.000000,0.000000,0.000000
1782115678.830197,177879,0.194336,-0.053711,0.979004,-0.182927,-0.182927,-0.365854,15.462501,7.912500,43.143749,0.0,1.000000,0.000000,0.000000,0.000000
1782115678.840197,177889,0.192383,-0.052246,0.979492,-0.182927,-0.182927,-0.365854,15.487500,8.018750,43.106251,0.0,1.000000,0.000000,0.000000,0.000000
1782115678.850197,177899,0.191406,-0.052246,0.979980,-0.121951,-0.182927,-0.304878,15.487500,8.018750,43.106251,0.0,1.000000,0.000000,0.000000,0.000000
1782115678.862197,177911,0.192871,-0.052734,0.981934,-0.121951,-0.121951,-0.365854,15.456250,8.000000,43.100002,0.0,1.000000,0.000000,0.000000,0.000000
1782115678.871197,177920,0.190918,-0.050293,0.981934,-0.121951,-0.182927,-0.426829,15.456250,8.000000,43.100002,0.0,1.000000,0.000000,0.000000,0.000000
1782115678.881197,177930,0.190918,-0.051270,0.980469,0.000000,-0.304878,-0.426829,15.518750,7.975000,43.100002,0.0,1.000000,0.000000,0.000000,0.000000
1782115678.891197,177940,0.192383,-0.051270,0.980469,0.000000,-0.304878,-0.365854,15.518750,7.975000,43.100002,0.0,1.000000,0.000000,0.000000,0.000000
1782115678.904197,177953,0.191895,-0.051270,0.980469,-0.121951,-0.487805,-0.365854,15.537500,8.056251,43.062500,0.0,1.000000,0.000000,0.000000,0.000000
1782115678.911197,177960,0.193359,-0.052246,0.980469,-0.121951,-0.304878,-0.304878,15.537500,8.056251,43.062500,0.0,1.000000,0.000000,0.000000,0.000000
1782115678.921197,177970,0.192383,-0.051270,0.980469,-0.182927,-0.304878,-0.304878,15.500000,7.943750,43.106251,0.0,1.000000,0.000000,0.000000,0.000000
1782115678.930197,177979,0.192871,-0.051758,0.979004,-0.121951,-0.243902,-0.365854,15.500000,7.943750,43.106251,0.0,1.000000,0.000000,0.000000,0.000000
1782115678.943197,177992,0.193359,-0.051758,0.979980,-0.182927,-0.365854,-0.243902,15.575000,8.112500,43.056252,0.0,1.000000,0.000000,0.000000,0.000000
1782115678.950197,177999,0.195312,-0.052734,0.979004,-0.121951,-0.365854,-0.304878,15.575000,8.112500,43.056252,0.0,1.000000,0.000000,0.000000,0.000000
1782115678.960197,178009,0.194824,-0.051758,0.979492,0.000000,-0.243902,-0.304878,15.518750,7.981250,43.137501,0.0,1.000000,0.000000,0.000000,0.000000
1782115678.970197,178019,0.194336,-0.052246,0.980469,0.060976,-0.243902,-0.304878,15.518750,7.981250,43.137501,0.0,1.000000,0.000000,0.000000,0.000000
1782115678.984197,178033,0.193359,-0.051270,0.980469,0.243902,-0.426829,-0.243902,15.500000,7.906250,43.137501,0.0,1.000000,0.000000,0.000000,0.000000
1782115678.990197,178039,0.193359,-0.051270,0.980469,0.243902,-0.426829,-0.243902,15.500000,7.906250,43.137501,0.0,1.000000,0.000000,0.000000,0.000000
1782115679.000197,178049,0.193848,-0.049805,0.980469,0.365854,-0.426829,-0.182927,15.512500,7.943750,43.031250,0.0,1.000000,0.000000,0.000000,0.000000
1782115679.010197,178059,0.193359,-0.050293,0.980957,0.304878,-0.426829,-0.182927,15.512500,7.943750,43.031250,0.0,1.000000,0.000000,0.000000,0.000000
1782115679.023197,178072,0.194336,-0.050293,0.979980,0.243902,-0.426829,-0.121951,15.543750,8.043750,43.000000,0.0,1.000000,0.000000,0.000000,0.000000
1782115679.032197,178081,0.194336,-0.050293,0.979980,0.243902,-0.426829,-0.121951,15.543750,8.043750,43.000000,0.0,1.000000,0.000000,0.000000,0.000000
1782115679.040197,178089,0.193848,-0.049316,0.980469,0.243902,-0.304878,-0.182927,15.612500,8.187500,42.950001,0.0,1.000000,0.000000,0.000000,0.000000
1782115679.050197,178099,0.195801,-0.047852,0.980957,0.121951,-0.365854,-0.182927,15.612500,8.187500,42.950001,0.0,1.000000,0.000000,0.000000,0.000000
1782115679.061197,178110,0.196289,-0.048828,0.980469,0.060976,-0.365854,-0.121951,15.512500,7.943750,43.125000,0.0,1.000000,0.000000,0.000000,0.000000
1782115679.071197,178120,0.195312,-0.047852,0.981445,0.000000,-0.426829,-0.060976,15.512500,7.943750,43.125000,0.0,1.000000,0.000000,0.000000,0.000000
1782115679.081197,178130,0.195801,-0.046875,0.981445,0.000000,-0.304878,-0.121951,15.593750,7.975000,43.056252,0.0,1.000000,0.000000,0.000000,0.000000
1782115679.090197,178139,0.193848,-0.045898,0.980469,0.000000,-0.304878,-0.121951,15.593750,7.975000,43.056252,0.0,1.000000,0.000000,0.000000,0.000000
1782115679.103197,178152,0.194336,-0.047363,0.979980,0.060976,-0.365854,-0.121951,15.531250,7.912500,43.112499,0.0,1.000000,0.000000,0.000000,0.000000
1782115679.111197,178160,0.194824,-0.046875,0.980957,0.060976,-0.365854,-0.121951,15.531250,7.912500,43.112499,0.0,1.000000,0.000000,0.000000,0.000000
1782115679.120197,178169,0.194336,-0.045410,0.979492,0.182927,-0.426829,-0.121951,15.531250,8.000000,43.087502,0.0,1.000000,0.000000,0.000000,0.000000
1782115679.130197,178179,0.195312,-0.045410,0.981934,0.182927,-0.304878,-0.121951,15.531250,8.000000,43.087502,0.0,1.000000,0.000000,0.000000,0.000000
1782115679.140197,178189,0.193848,-0.045898,0.981934,0.060976,-0.304878,-0.182927,15.512500,7.893750,43.106251,0.0,1.000000,0.000000,0.000000,0.000000
1782115679.150197,178199,0.195312,-0.044922,0.978516,-0.060976,-0.243902,-0.182927,15.512500,7.893750,43.106251,0.0,1.000000,0.000000,0.000000,0.000000
1782115679.160197,178209,0.192871,-0.045410,0.981934,-0.182927,-0.182927,-0.304878,15.587501,8.037500,43.100002,0.0,1.000000,0.000000,0.000000,0.000000
1782115679.170197,178219,0.195801,-0.045898,0.981445,-0.304878,-0.243902,-0.243902,15.587501,8.037500,43.100002,0.0,1.000000,0.000000,0.000000,0.000000
1782115679.180197,178229,0.193848,-0.046387,0.981445,-0.365854,-0.121951,-0.304878,15.556251,7.968750,43.093750,0.0,1.000000,0.000000,0.000000,0.000000
1782115679.190197,178239,0.193359,-0.046875,0.981445,-0.487805,-0.121951,-0.365854,15.556251,7.968750,43.093750,0.0,1.000000,0.000000,0.000000,0.000000
1782115679.201197,178250,0.192871,-0.047363,0.980469,-0.487805,-0.243902,-0.304878,15.556251,8.000000,43.068752,0.0,1.000000,0.000000,0.000000,0.000000
1782115679.210197,178259,0.192871,-0.046875,0.980957,-0.487805,-0.243902,-0.365854,15.556251,8.000000,43.068752,0.0,1.000000,0.000000,0.000000,0.000000
1782115679.220197,178269,0.193848,-0.048828,0.979980,-0.487805,-0.182927,-0.365854,15.500000,7.956250,43.093750,0.0,1.000000,0.000000,0.000000,0.000000
1782115679.230197,178279,0.194336,-0.049316,0.980469,-0.487805,-0.182927,-0.487805,15.500000,7.956250,43.093750,0.0,1.000000,0.000000,0.000000,0.000000
1782115679.240197,178289,0.195312,-0.049805,0.979492,-0.487805,-0.182927,-0.487805,15.618751,8.062500,43.037502,0.0,1.000000,0.000000,0.000000,0.000000
1782115679.250197,178299,0.195312,-0.050293,0.980469,-0.548781,-0.182927,-0.487805,15.618751,8.062500,43.037502,0.0,1.000000,0.000000,0.000000,0.000000
1782115679.261197,178310,0.194824,-0.049805,0.979492,-0.548781,-0.121951,-0.426829,15.575000,7.956250,43.093750,0.0,1.000000,0.000000,0.000000,0.000000
1782115679.270197,178319,0.194336,-0.050293,0.979492,-0.487805,-0.182927,-0.365854,15.575000,7.956250,43.093750,0.0,1.000000,0.000000,0.000000,0.000000
1782115679.280197,178329,0.196777,-0.049805,0.979980,-0.426829,-0.121951,-0.304878,15.543750,8.012500,43.143749,0.0,1.000000,0.000000,0.000000,0.000000
1782115679.291197,178340,0.192383,-0.051758,0.980469,-0.426829,0.000000,-0.304878,15.543750,8.012500,43.143749,0.0,1.000000,0.000000,0.000000,0.000000
1782115679.300197,178349,0.190918,-0.050781,0.982422,-0.487805,-0.182927,-0.182927,15.531250,8.000000,43.087502,0.0,1.000000,0.000000,0.000000,0.000000
1782115679.310197,178359,0.190918,-0.052246,0.981445,-0.365854,-0.304878,-0.060976,15.531250,8.000000,43.087502,0.0,1.000000,0.000000,0.000000,0.000000
1782115679.320197,178369,0.189453,-0.051270,0.982910,-0.548781,-0.304878,0.000000,15.550000,8.012500,43.037502,0.0,1.000000,0.000000,0.000000,0.000000
1782115679.331197,178380,0.189453,-0.051270,0.982422,-0.548781,-0.365854,-0.121951,15.550000,8.012500,43.037502,0.0,1.000000,0.000000,0.000000,0.000000
1782115679.340197,178389,0.191895,-0.051758,0.980957,-0.304878,-0.304878,-0.182927,15.456250,7.937500,43.131252,0.0,1.000000,0.000000,0.000000,0.000000
1782115679.350197,178399,0.191406,-0.052734,0.979492,-0.121951,-0.426829,-0.243902,15.456250,7.937500,43.131252,0.0,1.000000,0.000000,0.000000,0.000000
1782115679.360197,178409,0.193848,-0.053223,0.980469,0.060976,-0.426829,-0.365854,15.568750,8.062500,43.056252,0.0,1.000000,0.000000,0.000000,0.000000
1782115679.370197,178419,0.194824,-0.053711,0.979492,0.243902,-0.426829,-0.426829,15.568750,8.062500,43.056252,0.0,1.000000,0.000000,0.000000,0.000000
1782115679.384197,178433,0.195801,-0.051758,0.979492,0.304878,-0.365854,-0.487805,15.493751,7.887500,43.174999,0.0,1.000000,0.000000,0.000000,0.000000
1782115679.390197,178439,0.196289,-0.049805,0.979492,0.243902,-0.243902,-0.548781,15.493751,7.887500,43.174999,0.0,1.000000,0.000000,0.000000,0.000000
1782115679.400197,178449,0.196289,-0.048828,0.980469,0.304878,-0.243902,-0.487805,15.487500,7.950000,43.112499,0.0,1.000000,0.000000,0.000000,0.000000
1782115679.410197,178459,0.195801,-0.048828,0.980469,0.182927,-0.182927,-0.548781,15.487500,7.950000,43.112499,0.0,1.000000,0.000000,0.000000,0.000000
1782115679.420197,178469,0.195801,-0.048340,0.980957,0.060976,-0.304878,-0.487805,15.543750,7.950000,43.131252,0.0,1.000000,0.000000,0.000000,0.000000
1782115679.430197,178479,0.194824,-0.048828,0.980469,0.000000,-0.243902,-0.426829,15.543750,7.950000,43.131252,0.0,1.000000,0.000000,0.000000,0.000000
1782115679.440197,178489,0.194824,-0.049316,0.980469,-0.060976,-0.304878,-0.426829,15.562500,7.993750,43.075001,0.0,1.000000,0.000000,0.000000,0.000000
1782115679.450197,178499,0.194824,-0.048828,0.978516,0.000000,-0.243902,-0.426829,15.562500,7.993750,43.075001,0.0,1.000000,0.000000,0.000000,0.000000
1782115679.460197,178509,0.195801,-0.049316,0.979980,-0.121951,-0.243902,-0.365854,15.518750,7.906250,43.125000,0.0,1.000000,0.000000,0.000000,0.000000
1782115679.470197,178519,0.195312,-0.048340,0.980957,0.000000,-0.243902,-0.365854,15.518750,7.906250,43.125000,0.0,1.000000,0.000000,0.000000,0.000000
1782115679.481197,178530,0.195312,-0.047852,0.979980,0.060976,-0.182927,-0.365854,15.543750,7.993750,43.062500,0.0,1.000000,0.000000,0.000000,0.000000
1782115679.490197,178539,0.193848,-0.047363,0.981445,0.060976,-0.121951,-0.365854,15.543750,7.993750,43.062500,0.0,1.000000,0.000000,0.000000,0.000000
1782115679.500197,178549,0.193848,-0.046387,0.980957,0.000000,-0.243902,-0.304878,15.518750,7.987500,43.100002,0.0,1.000000,0.000000,0.000000,0.000000
1782115679.512197,178561,0.192871,-0.045898,0.980957,-0.060976,-0.182927,-0.182927,15.518750,7.987500,43.100002,0.0,1.000000,0.000000,0.000000,0.000000
1782115679.521197,178570,0.194336,-0.045410,0.981445,-0.121951,-0.243902,-0.121951,15.556251,8.006250,43.062500,0.0,1.000000,0.000000,0.000000,0.000000
1782115679.530197,178579,0.191895,-0.044922,0.980957,-0.182927,-0.304878,-0.121951,15.556251,8.006250,43.062500,0.0,1.000000,0.000000,0.000000,0.000000
1782115679.540197,178589,0.193359,-0.044434,0.980957,-0.304878,-0.243902,-0.121951,15.562500,7.981250,43.106251,0.0,1.000000,0.000000,0.000000,0.000000
1782115679.551197,178600,0.192871,-0.044922,0.981445,-0.487805,-0.243902,-0.060976,15.562500,7.981250,43.106251,0.0,1.000000,0.000000,0.000000,0.000000
1782115679.560197,178609,0.192383,-0.045898,0.980957,-0.609756,-0.243902,-0.121951,15.543750,7.975000,43.112499,0.0,1.000000,0.000000,0.000000,0.000000
1782115679.570197,178619,0.194824,-0.047363,0.979492,-0.670732,-0.182927,-0.182927,15.543750,7.975000,43.112499,0.0,1.000000,0.000000,0.000000,0.000000
1782115679.580197,178629,0.193359,-0.047363,0.980957,-0.731707,-0.182927,-0.243902,15.581250,7.950000,43.100002,0.0,1.000000,0.000000,0.000000,0.000000
1782115679.590197,178639,0.193359,-0.047363,0.979980,-0.731707,-0.060976,-0.182927,15.581250,7.950000,43.100002,0.0,1.000000,0.000000,0.000000,0.000000
1782115679.600197,178649,0.192871,-0.048340,0.980469,-0.731707,-0.060976,-0.243902,15.537500,7.956250,43.125000,0.0,1.000000,0.000000,0.000000,0.000000
1782115679.611197,178660,0.193848,-0.049316,0.980469,-0.670732,-0.060976,-0.304878,15.537500,7.956250,43.125000,0.0,1.000000,0.000000,0.000000,0.000000
1782115679.620197,178669,0.194824,-0.049316,0.980957,-0.548781,-0.182927,-0.243902,15.525001,8.025001,43.087502,0.0,1.000000,0.000000,0.000000,0.000000
1782115679.630197,178679,0.194336,-0.048828,0.979980,-0.426829,-0.121951,-0.243902,15.525001,8.025001,43.087502,0.0,1.000000,0.000000,0.000000,0.000000
1782115679.641197,178690,0.195312,-0.049805,0.977539,-0.426829,-0.121951,-0.304878,15.543750,8.006250,43.106251,0.0,1.000000,0.000000,0.000000,0.000000
1782115679.650197,178699,0.194336,-0.049316,0.980469,-0.487805,-0.121951,-0.426829,15.543750,8.006250,43.106251,0.0,1.000000,0.000000,0.000000,0.000000
1782115679.660197,178709,0.194824,-0.047363,0.980469,-0.548781,-0.121951,-0.487805,15.587501,8.156250,43.031250,0.0,1.000000,0.000000,0.000000,0.000000
1782115679.670197,178719,0.194824,-0.049316,0.980957,-0.426829,-0.060976,-0.670732,15.587501,8.156250,43.031250,0.0,1.000000,0.000000,0.000000,0.000000
1782115679.680197,178729,0.192871,-0.048340,0.979492,-0.548781,0.000000,-0.731707,15.481250,7.950000,43.100002,0.0,1.000000,0.000000,0.000000,0.000000
1782115679.690197,178739,0.192383,-0.047852,0.980957,-0.609756,-0.121951,-0.670732,15.481250,7.950000,43.100002,0.0,1.000000,0.000000,0.000000,0.000000
1782115679.700197,178749,0.192871,-0.049316,0.981934,-0.731707,-0.060976,-0.670732,15.487500,7.937500,43.131252,0.0,1.000000,0.000000,0.000000,0.000000
1782115679.711197,178760,0.192383,-0.049316,0.979492,-0.853659,-0.060976,-0.670732,15.487500,7.937500,43.131252,0.0,1.000000,0.000000,0.000000,0.000000
1782115679.721197,178770,0.192871,-0.049805,0.980469,-0.792683,0.000000,-0.609756,15.468750,7.937500,43.100002,0.0,1.000000,0.000000,0.000000,0.000000
1782115679.731197,178780,0.194824,-0.052246,0.980957,-0.853659,-0.121951,-0.609756,15.468750,7.937500,43.100002,0.0,1.000000,0.000000,0.000000,0.000000
1782115679.740197,178789,0.195312,-0.051270,0.979980,-0.853659,-0.243902,-0.487805,15.525001,8.000000,43.112499,0.0,1.000000,0.000000,0.000000,0.000000
1782115679.751197,178800,0.195801,-0.051758,0.979980,-0.853659,-0.243902,-0.426829,15.525001,8.000000,43.112499,0.0,1.000000,0.000000,0.000000,0.000000
1782115679.761197,178810,0.195801,-0.051270,0.979980,-0.731707,-0.182927,-0.304878,15.512500,8.018750,43.150002,0.0,1.000000,0.000000,0.000000,0.000000
1782115679.771197,178820,0.195312,-0.051270,0.979492,-0.548781,-0.304878,-0.121951,15.512500,8.018750,43.150002,0.0,1.000000,0.000000,0.000000,0.000000
1782115679.780197,178829,0.195312,-0.051270,0.980957,-0.426829,-0.243902,-0.060976,15.475000,7.906250,43.137501,0.0,1.000000,0.000000,0.000000,0.000000
1782115679.790197,178839,0.194824,-0.051270,0.980469,-0.365854,-0.304878,0.000000,15.475000,7.906250,43.137501,0.0,1.000000,0.000000,0.000000,0.000000
1782115679.800197,178849,0.193359,-0.052246,0.981445,-0.426829,-0.304878,0.000000,15.431251,7.925000,43.206249,0.0,1.000000,0.000000,0.000000,0.000000
1782115679.811197,178860,0.193848,-0.051758,0.979980,-0.426829,-0.304878,0.000000,15.431251,7.925000,43.206249,0.0,1.000000,0.000000,0.000000,0.000000
1782115679.820197,178869,0.193359,-0.051758,0.979492,-0.426829,-0.182927,-0.060976,15.437500,7.912500,43.143749,0.0,1.000000,0.000000,0.000000,0.000000
1782115679.830197,178879,0.193848,-0.052246,0.979004,-0.487805,-0.243902,-0.121951,15.437500,7.912500,43.143749,0.0,1.000000,0.000000,0.000000,0.000000
1782115679.840197,178889,0.194336,-0.053223,0.979492,-0.548781,-0.243902,-0.182927,15.468750,7.943750,43.125000,0.0,1.000000,0.000000,0.000000,0.000000
1782115679.850197,178899,0.193359,-0.053711,0.979004,-0.548781,-0.243902,-0.243902,15.468750,7.943750,43.125000,0.0,1.000000,0.000000,0.000000,0.000000
1782115679.860197,178909,0.193359,-0.052734,0.979980,-0.487805,-0.182927,-0.243902,15.431251,7.875000,43.174999,0.0,1.000000,0.000000,0.000000,0.000000
1782115679.870197,178919,0.193359,-0.053223,0.981445,-0.426829,-0.121951,-0.304878,15.431251,7.875000,43.174999,0.0,1.000000,0.000000,0.000000,0.000000
1782115679.880197,178929,0.193848,-0.053223,0.979980,-0.365854,-0.121951,-0.304878,15.437500,7.931250,43.137501,0.0,1.000000,0.000000,0.000000,0.000000
1782115679.890197,178939,0.191895,-0.054688,0.980957,-0.182927,-0.182927,-0.365854,15.437500,7.931250,43.137501,0.0,1.000000,0.000000,0.000000,0.000000
1782115679.900197,178949,0.192383,-0.054199,0.979492,-0.121951,-0.304878,-0.365854,15.443750,7.956250,43.150002,0.0,1.000000,0.000000,0.000000,0.000000
1782115679.910197,178959,0.192871,-0.054199,0.978516,0.060976,-0.243902,-0.365854,15.443750,7.956250,43.150002,0.0,1.000000,0.000000,0.000000,0.000000
1782115679.921197,178970,0.193359,-0.055176,0.981445,0.121951,-0.243902,-0.365854,15.412500,7.868750,43.168751,0.0,1.000000,0.000000,0.000000,0.000000
1782115679.930197,178979,0.193359,-0.054688,0.980469,0.182927,-0.243902,-0.365854,15.412500,7.868750,43.168751,0.0,1.000000,0.000000,0.000000,0.000000
1782115679.941197,178990,0.194336,-0.053711,0.979980,0.304878,-0.243902,-0.304878,15.450000,7.912500,43.131252,0.0,1.000000,0.000000,0.000000,0.000000
1782115679.950197,178999,0.193359,-0.051270,0.979980,0.304878,-0.243902,-0.304878,15.450000,7.912500,43.131252,0.0,1.000000,0.000000,0.000000,0.000000
1782115679.960197,179009,0.193848,-0.052734,0.980957,0.365854,-0.243902,-0.304878,15.525001,8.000000,43.131252,0.0,1.000000,0.000000,0.000000,0.000000
1782115679.970197,179019,0.194336,-0.052246,0.979980,0.365854,-0.304878,-0.304878,15.525001,8.000000,43.131252,0.0,1.000000,0.000000,0.000000,0.000000
1782115679.980197,179029,0.194336,-0.051270,0.979980,0.365854,-0.304878,-0.304878,15.456250,7.887500,43.187500,0.0,1.000000,0.000000,0.000000,0.000000
1782115679.990197,179039,0.193359,-0.050781,0.979980,0.365854,-0.426829,-0.182927,15.456250,7.887500,43.187500,0.0,1.000000,0.000000,0.000000,0.000000
1782115680.000197,179049,0.193359,-0.049805,0.981445,0.304878,-0.365854,-0.060976,15.418750,7.912500,43.143749,0.0,1.000000,0.000000,0.000000,0.000000
1782115680.010197,179059,0.194824,-0.049316,0.981445,0.304878,-0.304878,-0.060976,15.418750,7.912500,43.143749,0.0,1.000000,0.000000,0.000000,0.000000
1782115680.020197,179069,0.194336,-0.048340,0.980469,0.304878,-0.365854,-0.121951,15.437500,7.856250,43.168751,0.0,1.000000,0.000000,0.000000,0.000000
1782115680.030197,179079,0.195312,-0.048828,0.980957,0.243902,-0.426829,-0.060976,15.437500,7.856250,43.168751,0.0,1.000000,0.000000,0.000000,0.000000
1782115680.040197,179089,0.195312,-0.049316,0.980957,0.243902,-0.426829,-0.060976,15.500000,7.968750,43.150002,0.0,1.000000,0.000000,0.000000,0.000000
1782115680.050197,179099,0.197754,-0.047852,0.980469,0.182927,-0.365854,0.060976,15.500000,7.968750,43.150002,0.0,1.000000,0.000000,0.000000,0.000000
1782115680.060197,179109,0.198242,-0.047852,0.979980,0.243902,-0.365854,0.000000,15.468750,7.837500,43.143749,0.0,1.000000,0.000000,0.000000,0.000000
1782115680.070197,179119,0.197754,-0.047852,0.980469,0.243902,-0.365854,0.060976,15.468750,7.837500,43.143749,0.0,1.000000,0.000000,0.000000,0.000000
1782115680.080197,179129,0.198730,-0.046387,0.979980,0.243902,-0.365854,0.060976,15.481250,7.931250,43.150002,0.0,1.000000,0.000000,0.000000,0.000000
1782115680.090197,179139,0.196289,-0.045410,0.980469,0.304878,-0.243902,0.060976,15.481250,7.931250,43.150002,0.0,1.000000,0.000000,0.000000,0.000000
1782115680.100197,179149,0.196777,-0.044922,0.980957,0.182927,-0.182927,-0.060976,15.506250,7.900000,43.143749,0.0,1.000000,0.000000,0.000000,0.000000
1782115680.110197,179159,0.194824,-0.044434,0.981934,0.000000,-0.182927,-0.060976,15.506250,7.900000,43.143749,0.0,1.000000,0.000000,0.000000,0.000000
1782115680.120197,179169,0.194336,-0.044922,0.980469,-0.121951,-0.121951,-0.121951,15.487500,7.981250,43.137501,0.0,1.000000,0.000000,0.000000,0.000000
1782115680.130197,179179,0.192383,-0.044434,0.980469,-0.304878,-0.060976,-0.243902,15.487500,7.981250,43.137501,0.0,1.000000,0.000000,0.000000,0.000000
1782115680.140197,179189,0.193359,-0.046875,0.981445,-0.487805,0.000000,-0.304878,15.493751,7.943750,43.181252,0.0,1.000000,0.000000,0.000000,0.000000
1782115680.150197,179199,0.191406,-0.045410,0.980957,-0.609756,0.060976,-0.426829,15.493751,7.943750,43.181252,0.0,1.000000,0.000000,0.000000,0.000000
1782115680.161197,179210,0.191895,-0.045898,0.980957,-0.670732,0.000000,-0.426829,15.450000,7.887500,43.187500,0.0,1.000000,0.000000,0.000000,0.000000
1782115680.170197,179219,0.192383,-0.046387,0.980957,-0.609756,0.060976,-0.365854,15.450000,7.887500,43.187500,0.0,1.000000,0.000000,0.000000,0.000000
1782115680.180197,179229,0.192871,-0.048340,0.979980,-0.609756,0.121951,-0.304878,15.456250,7.893750,43.118752,0.0,1.000000,0.000000,0.000000,0.000000
1782115680.190197,179239,0.189453,-0.048340,0.980469,-0.670732,-0.060976,-0.243902,15.456250,7.893750,43.118752,0.0,1.000000,0.000000,0.000000,0.000000
1782115680.200197,179249,0.188477,-0.051270,0.981445,-0.670732,-0.060976,-0.121951,15.525001,7.987500,43.087502,0.0,1.000000,0.000000,0.000000,0.000000
1782115680.210197,179259,0.186523,-0.050781,0.981934,-0.670732,-0.121951,-0.182927,15.525001,7.987500,43.087502,0.0,1.000000,0.000000,0.000000,0.000000
1782115680.220197,179269,0.186035,-0.051758,0.981445,-0.609756,-0.182927,-0.182927,15.481250,7.893750,43.181252,0.0,1.000000,0.000000,0.000000,0.000000
1782115680.231197,179280,0.185059,-0.051270,0.979980,-0.548781,-0.243902,-0.243902,15.481250,7.893750,43.181252,0.0,1.000000,0.000000,0.000000,0.000000
1782115680.240197,179289,0.187012,-0.052734,0.980469,-0.487805,-0.243902,-0.365854,15.450000,7.868750,43.168751,0.0,1.000000,0.000000,0.000000,0.000000
1782115680.251197,179300,0.188965,-0.052734,0.980469,-0.304878,-0.365854,-0.365854,15.450000,7.868750,43.168751,0.0,1.000000,0.000000,0.000000,0.000000
1782115680.261197,179310,0.189941,-0.053223,0.979492,-0.243902,-0.365854,-0.365854,15.425000,7.831250,43.193752,0.0,1.000000,0.000000,0.000000,0.000000
1782115680.270197,179319,0.193848,-0.053223,0.980957,-0.121951,-0.304878,-0.365854,15.425000,7.831250,43.193752,0.0,1.000000,0.000000,0.000000,0.000000
1782115680.280197,179329,0.192383,-0.053223,0.980957,-0.060976,-0.365854,-0.426829,15.587501,8.012500,43.100002,0.0,1.000000,0.000000,0.000000,0.000000
1782115680.291197,179340,0.192871,-0.050781,0.980469,0.060976,-0.548781,-0.365854,15.587501,8.012500,43.100002,0.0,1.000000,0.000000,0.000000,0.000000
1782115680.300197,179349,0.194824,-0.052246,0.979004,0.060976,-0.365854,-0.426829,15.450000,7.856250,43.200001,0.0,1.000000,0.000000,0.000000,0.000000
1782115680.311197,179360,0.192871,-0.051758,0.979492,0.060976,-0.426829,-0.365854,15.450000,7.856250,43.200001,0.0,1.000000,0.000000,0.000000,0.000000
1782115680.320197,179369,0.194336,-0.051758,0.980957,0.000000,-0.548781,-0.426829,15.481250,7.931250,43.168751,0.0,1.000000,0.000000,0.000000,0.000000
1782115680.330197,179379,0.195801,-0.051270,0.980469,0.000000,-0.365854,-0.426829,15.481250,7.931250,43.168751,0.0,1.000000,0.000000,0.000000,0.000000
1782115680.341197,179390,0.195801,-0.052734,0.980469,0.000000,-0.304878,-0.487805,15.450000,7.875000,43.143749,0.0,1.000000,0.000000,0.000000,0.000000
1782115680.351197,179400,0.195801,-0.053223,0.980957,0.060976,-0.243902,-0.426829,15.500000,7.950000,43.100002,0.0,1.000000,0.000000,0.000000,0.000000
1782115680.360197,179409,0.194824,-0.051270,0.980957,0.121951,-0.243902,-0.426829,15.500000,7.950000,43.100002,0.0,1.000000,0.000000,0.000000,0.000000
1782115680.370197,179419,0.194336,-0.050293,0.979492,0.243902,-0.365854,-0.365854,15.500000,7.950000,43.100002,0.0,1.000000,0.000000,0.000000,0.000000
1782115680.380197,179429,0.194824,-0.050781,0.980957,0.365854,-0.487805,-0.365854,15.418750,7.856250,43.168751,0.0,1.000000,0.000000,0.000000,0.000000
1782115680.390197,179439,0.194824,-0.049805,0.979004,0.426829,-0.426829,-0.365854,15.418750,7.856250,43.168751,0.0,1.000000,0.000000,0.000000,0.000000
1782115680.400197,179449,0.195312,-0.048828,0.980469,0.426829,-0.304878,-0.304878,15.506250,7.906250,43.125000,0.0,1.000000,0.000000,0.000000,0.000000
1782115680.411197,179460,0.195312,-0.047852,0.979980,0.426829,-0.365854,-0.304878,15.481250,7.843750,43.125000,0.0,1.000000,0.000000,0.000000,0.000000
1782115680.420197,179469,0.195801,-0.045898,0.980469,0.426829,-0.365854,-0.243902,15.481250,7.843750,43.125000,0.0,1.000000,0.000000,0.000000,0.000000
1782115680.432197,179481,0.194824,-0.046387,0.979980,0.243902,-0.304878,-0.243902,15.475000,7.968750,43.093750,0.0,1.000000,0.000000,0.000000,0.000000
1782115680.441197,179490,0.194824,-0.045410,0.981445,0.060976,-0.365854,-0.243902,15.475000,7.968750,43.093750,0.0,1.000000,0.000000,0.000000,0.000000
1782115680.450197,179499,0.196289,-0.045410,0.980469,0.000000,-0.304878,-0.243902,15.475000,7.968750,43.093750,0.0,1.000000,0.000000,0.000000,0.000000
1782115680.460197,179509,0.195801,-0.045898,0.979980,-0.121951,-0.304878,-0.304878,15.512500,7.950000,43.100002,0.0,1.000000,0.000000,0.000000,0.000000
1782115680.470197,179519,0.196289,-0.045410,0.980469,-0.182927,-0.365854,-0.182927,15.512500,7.950000,43.100002,0.0,1.000000,0.000000,0.000000,0.000000
1782115680.480197,179529,0.195801,-0.047363,0.980957,-0.304878,-0.304878,-0.182927,15.518750,8.000000,43.143749,0.0,1.000000,0.000000,0.000000,0.000000
1782115680.490197,179539,0.197266,-0.048340,0.981445,-0.365854,-0.182927,-0.182927,15.518750,8.000000,43.143749,0.0,1.000000,0.000000,0.000000,0.000000
1782115680.500197,179549,0.195312,-0.048340,0.980469,-0.365854,-0.182927,-0.243902,15.481250,7.906250,43.150002,0.0,1.000000,0.000000,0.000000,0.000000
1782115680.510197,179559,0.195312,-0.046875,0.978027,-0.243902,-0.243902,-0.243902,15.543750,7.981250,43.049999,0.0,1.000000,0.000000,0.000000,0.000000
1782115680.520197,179569,0.195312,-0.047852,0.979492,-0.243902,-0.243902,-0.304878,15.543750,7.981250,43.049999,0.0,1.000000,0.000000,0.000000,0.000000
1782115680.530197,179579,0.194824,-0.048340,0.980957,-0.304878,-0.182927,-0.304878,15.493751,7.843750,43.168751,0.0,1.000000,0.000000,0.000000,0.000000
1782115680.540197,179589,0.194824,-0.048340,0.980469,-0.243902,-0.121951,-0.365854,15.493751,7.843750,43.168751,0.0,1.000000,0.000000,0.000000,0.000000
1782115680.550197,179599,0.195312,-0.047363,0.981445,-0.304878,-0.060976,-0.304878,15.562500,7.956250,43.106251,0.0,1.000000,0.000000,0.000000,0.000000
1782115680.560197,179609,0.194336,-0.047852,0.979492,-0.365854,-0.121951,-0.426829,15.562500,7.956250,43.106251,0.0,1.000000,0.000000,0.000000,0.000000
1782115680.570197,179619,0.195312,-0.047363,0.979980,-0.365854,-0.060976,-0.426829,15.512500,7.906250,43.106251,0.0,1.000000,0.000000,0.000000,0.000000
1782115680.580197,179629,0.194824,-0.046387,0.980469,-0.487805,-0.121951,-0.365854,15.512500,7.906250,43.106251,0.0,1.000000,0.000000,0.000000,0.000000
1782115680.591197,179640,0.194336,-0.046387,0.979980,-0.426829,-0.060976,-0.304878,15.487500,7.918750,43.075001,0.0,1.000000,0.000000,0.000000,0.000000
1782115680.600197,179649,0.193359,-0.044434,0.980469,-0.487805,-0.060976,-0.243902,15.487500,7.918750,43.075001,0.0,1.000000,0.000000,0.000000,0.000000
1782115680.610197,179659,0.194336,-0.044922,0.979980,-0.548781,-0.060976,-0.182927,15.481250,7.856250,43.168751,0.0,1.000000,0.000000,0.000000,0.000000
1782115680.620197,179669,0.192871,-0.044922,0.979492,-0.548781,0.000000,-0.060976,15.481250,7.856250,43.168751,0.0,1.000000,0.000000,0.000000,0.000000
1782115680.632197,179681,0.191406,-0.045898,0.981445,-0.670732,-0.060976,0.060976,15.518750,7.893750,43.181252,0.0,1.000000,0.000000,0.000000,0.000000
1782115680.640197,179689,0.191406,-0.045410,0.981934,-0.731707,-0.060976,0.182927,15.518750,7.893750,43.181252,0.0,1.000000,0.000000,0.000000,0.000000
1782115680.650197,179699,0.190430,-0.045898,0.982422,-0.853659,-0.121951,0.121951,15.525001,7.987500,43.100002,0.0,1.000000,0.000000,0.000000,0.000000
1782115680.660197,179709,0.189453,-0.046387,0.981445,-0.914634,-0.121951,0.060976,15.525001,7.987500,43.100002,0.0,1.000000,0.000000,0.000000,0.000000
1782115680.670197,179719,0.189941,-0.047852,0.983398,-0.914634,-0.243902,0.000000,15.506250,8.018750,43.106251,0.0,1.000000,0.000000,0.000000,0.000000
1782115680.680197,179729,0.190918,-0.049805,0.979980,-0.914634,-0.304878,0.060976,15.506250,8.018750,43.106251,0.0,1.000000,0.000000,0.000000,0.000000
1782115680.690197,179739,0.191895,-0.049316,0.980469,-0.853659,-0.182927,-0.060976,15.462501,7.881250,43.181252,0.0,1.000000,0.000000,0.000000,0.000000
1782115680.700197,179749,0.190430,-0.051270,0.979980,-0.914634,-0.243902,-0.182927,15.462501,7.881250,43.181252,0.0,1.000000,0.000000,0.000000,0.000000
1782115680.711197,179760,0.191895,-0.052734,0.979004,-0.914634,-0.243902,-0.243902,15.512500,8.012500,43.068752,0.0,1.000000,0.000000,0.000000,0.000000
1782115680.721197,179770,0.193359,-0.052734,0.980957,-0.792683,-0.182927,-0.426829,15.512500,8.012500,43.068752,0.0,1.000000,0.000000,0.000000,0.000000
1782115680.730197,179779,0.193359,-0.052734,0.980957,-0.731707,-0.121951,-0.487805,15.487500,8.025001,43.056252,0.0,1.000000,0.000000,0.000000,0.000000
1782115680.741197,179790,0.194336,-0.051758,0.979980,-0.548781,-0.060976,-0.609756,15.487500,8.025001,43.056252,0.0,1.000000,0.000000,0.000000,0.000000
1782115680.751197,179800,0.194824,-0.052246,0.979492,-0.548781,-0.121951,-0.670732,15.475000,7.981250,43.137501,0.0,1.000000,0.000000,0.000000,0.000000
1782115680.761197,179810,0.194824,-0.053223,0.981445,-0.548781,-0.304878,-0.670732,15.475000,7.981250,43.137501,0.0,1.000000,0.000000,0.000000,0.000000
1782115680.770197,179819,0.195801,-0.054199,0.979492,-0.487805,-0.182927,-0.609756,15.437500,7.868750,43.150002,0.0,1.000000,0.000000,0.000000,0.000000
1782115680.780197,179829,0.194824,-0.054199,0.979980,-0.548781,-0.182927,-0.670732,15.437500,7.868750,43.150002,0.0,1.000000,0.000000,0.000000,0.000000
1782115680.790197,179839,0.195801,-0.054688,0.980469,-0.426829,-0.182927,-0.670732,15.481250,8.006250,43.106251,0.0,1.000000,0.000000,0.000000,0.000000
1782115680.800197,179849,0.196289,-0.053711,0.979492,-0.304878,-0.121951,-0.609756,15.481250,8.006250,43.106251,0.0,1.000000,0.000000,0.000000,0.000000
1782115680.810197,179859,0.195801,-0.056152,0.979980,-0.121951,-0.121951,-0.609756,15.456250,7.968750,43.118752,0.0,1.000000,0.000000,0.000000,0.000000
1782115680.820197,179869,0.195312,-0.054688,0.979004,-0.060976,-0.243902,-0.548781,15.456250,7.968750,43.118752,0.0,1.000000,0.000000,0.000000,0.000000
1782115680.830197,179879,0.194336,-0.054688,0.979492,0.121951,-0.182927,-0.487805,15.556251,8.243751,42.956249,0.0,1.000000,0.000000,0.000000,0.000000
1782115680.840197,179889,0.194336,-0.054199,0.979492,0.182927,-0.182927,-0.487805,15.556251,8.243751,42.956249,0.0,1.000000,0.000000,0.000000,0.000000
1782115680.850197,179899,0.194336,-0.053711,0.979980,0.243902,-0.182927,-0.365854,15.443750,7.975000,43.112499,0.0,1.000000,0.000000,0.000000,0.000000
1782115680.860197,179909,0.193848,-0.052246,0.980957,0.243902,-0.182927,-0.304878,15.443750,7.975000,43.112499,0.0,1.000000,0.000000,0.000000,0.000000
1782115680.871197,179920,0.193359,-0.051270,0.980469,0.182927,-0.243902,-0.243902,15.500000,7.943750,43.150002,0.0,1.000000,0.000000,0.000000,0.000000
1782115680.880197,179929,0.192383,-0.050781,0.980957,0.243902,-0.304878,-0.182927,15.500000,7.943750,43.150002,0.0,1.000000,0.000000,0.000000,0.000000
1782115680.890197,179939,0.190918,-0.049805,0.980469,0.182927,-0.304878,-0.182927,15.512500,7.993750,43.137501,0.0,1.000000,0.000000,0.000000,0.000000
1782115680.900197,179949,0.191406,-0.049805,0.980469,0.243902,-0.304878,-0.060976,15.512500,7.993750,43.137501,0.0,1.000000,0.000000,0.000000,0.000000
1782115680.910197,179959,0.191895,-0.049805,0.979980,0.182927,-0.304878,0.000000,15.737500,8.425000,42.862499,0.0,1.000000,0.000000,0.000000,0.000000
1782115680.920197,179969,0.191406,-0.047852,0.980957,0.182927,-0.365854,-0.060976,15.737500,8.425000,42.862499,0.0,1.000000,0.000000,0.000000,0.000000
1782115680.930197,179979,0.191895,-0.047852,0.979980,0.121951,-0.304878,-0.060976,15.462501,7.937500,43.100002,0.0,1.000000,0.000000,0.000000,0.000000
1782115680.940197,179989,0.191895,-0.048828,0.980957,0.060976,-0.243902,-0.060976,15.462501,7.937500,43.100002,0.0,1.000000,0.000000,0.000000,0.000000
1782115680.951197,180000,0.190918,-0.047852,0.980469,0.060976,-0.243902,-0.182927,15.506250,8.006250,43.125000,0.0,1.000000,0.000000,0.000000,0.000000
1782115680.960197,180009,0.191895,-0.046875,0.979980,0.060976,-0.365854,-0.182927,15.506250,8.006250,43.125000,0.0,1.000000,0.000000,0.000000,0.000000
1782115680.970197,180019,0.193848,-0.047852,0.980469,0.000000,-0.304878,-0.182927,15.512500,7.987500,43.131252,0.0,1.000000,0.000000,0.000000,0.000000
1782115680.981197,180030,0.193359,-0.046387,0.980469,-0.060976,-0.182927,-0.243902,15.512500,7.987500,43.131252,0.0,1.000000,0.000000,0.000000,0.000000
1782115680.991197,180040,0.194336,-0.047363,0.980957,-0.060976,-0.182927,-0.182927,15.531250,7.981250,43.106251,0.0,1.000000,0.000000,0.000000,0.000000
1782115681.000197,180049,0.194336,-0.046875,0.981934,-0.121951,-0.182927,-0.182927,15.531250,7.981250,43.106251,0.0,1.000000,0.000000,0.000000,0.000000
1782115681.010197,180059,0.194824,-0.046875,0.980957,-0.182927,-0.243902,-0.182927,15.550000,8.012500,43.087502,0.0,1.000000,0.000000,0.000000,0.000000
1782115681.020197,180069,0.195312,-0.046875,0.982422,-0.182927,-0.243902,-0.121951,15.550000,8.012500,43.087502,0.0,1.000000,0.000000,0.000000,0.000000
1782115681.031197,180080,0.194824,-0.045898,0.981934,-0.243902,-0.304878,-0.121951,15.537500,8.006250,43.125000,0.0,1.000000,0.000000,0.000000,0.000000
1782115681.041197,180090,0.194824,-0.045410,0.979492,-0.304878,-0.304878,-0.121951,15.537500,8.006250,43.125000,0.0,1.000000,0.000000,0.000000,0.000000
1782115681.050197,180099,0.194824,-0.047363,0.981934,-0.426829,-0.365854,-0.121951,15.525001,8.006250,43.106251,0.0,1.000000,0.000000,0.000000,0.000000
1782115681.060197,180109,0.195312,-0.046875,0.982910,-0.548781,-0.365854,-0.121951,15.525001,8.006250,43.106251,0.0,1.000000,0.000000,0.000000,0.000000
1782115681.070197,180119,0.195801,-0.048340,0.979492,-0.548781,-0.243902,-0.182927,15.512500,8.000000,43.100002,0.0,1.000000,0.000000,0.000000,0.000000
1782115681.080197,180129,0.195312,-0.049316,0.980469,-0.609756,-0.182927,-0.304878,15.512500,8.000000,43.100002,0.0,1.000000,0.000000,0.000000,0.000000
1782115681.090197,180139,0.194336,-0.047363,0.980469,-0.548781,-0.060976,-0.304878,15.531250,7.987500,43.131252,0.0,1.000000,0.000000,0.000000,0.000000
1782115681.100197,180149,0.194336,-0.048340,0.979492,-0.487805,-0.121951,-0.426829,15.531250,7.987500,43.131252,0.0,1.000000,0.000000,0.000000,0.000000
1782115681.110197,180159,0.192383,-0.048828,0.980469,-0.487805,-0.060976,-0.426829,15.531250,7.968750,43.125000,0.0,1.000000,0.000000,0.000000,0.000000
1782115681.121197,180170,0.191406,-0.047852,0.981445,-0.487805,-0.121951,-0.365854,15.531250,7.968750,43.125000,0.0,1.000000,0.000000,0.000000,0.000000
1782115681.130197,180179,0.192383,-0.049316,0.980469,-0.426829,-0.121951,-0.487805,15.462501,7.968750,43.137501,0.0,1.000000,0.000000,0.000000,0.000000
1782115681.140197,180189,0.191895,-0.049805,0.980957,-0.487805,-0.182927,-0.548781,15.462501,7.968750,43.137501,0.0,1.000000,0.000000,0.000000,0.000000
1782115681.151197,180200,0.192383,-0.049805,0.980469,-0.548781,-0.182927,-0.487805,15.475000,7.962500,43.131252,0.0,1.000000,0.000000,0.000000,0.000000
1782115681.160197,180209,0.194824,-0.050293,0.980469,-0.548781,-0.060976,-0.548781,15.475000,7.962500,43.131252,0.0,1.000000,0.000000,0.000000,0.000000
1782115681.170197,180219,0.193359,-0.051758,0.980957,-0.548781,-0.060976,-0.487805,15.518750,8.050000,43.112499,0.0,1.000000,0.000000,0.000000,0.000000
1782115681.181197,180230,0.194336,-0.052246,0.982422,-0.670732,-0.121951,-0.548781,15.518750,8.050000,43.112499,0.0,1.000000,0.000000,0.000000,0.000000
1782115681.191197,180240,0.192871,-0.052246,0.980957,-0.609756,-0.060976,-0.548781,15.475000,7.956250,43.150002,0.0,1.000000,0.000000,0.000000,0.000000
1782115681.200197,180249,0.194336,-0.052246,0.980469,-0.548781,-0.121951,-0.548781,15.475000,7.956250,43.150002,0.0,1.000000,0.000000,0.000000,0.000000
1782115681.210197,180259,0.194336,-0.053223,0.979980,-0.487805,-0.121951,-0.548781,15.618751,8.275001,42.981251,0.0,1.000000,0.000000,0.000000,0.000000
1782115681.220197,180269,0.195801,-0.053223,0.979980,-0.426829,-0.182927,-0.487805,15.618751,8.275001,42.981251,0.0,1.000000,0.000000,0.000000,0.000000
1782115681.230197,180279,0.195312,-0.053711,0.980469,-0.304878,-0.182927,-0.426829,15.462501,7.918750,43.106251,0.0,1.000000,0.000000,0.000000,0.000000
1782115681.240197,180289,0.194824,-0.054199,0.979980,-0.243902,-0.304878,-0.365854,15.462501,7.918750,43.106251,0.0,1.000000,0.000000,0.000000,0.000000
1782115681.250197,180299,0.195312,-0.053223,0.979980,-0.182927,-0.243902,-0.304878,15.443750,7.993750,43.118752,0.0,1.000000,0.000000,0.000000,0.000000
1782115681.260197,180309,0.194336,-0.053223,0.981445,-0.182927,-0.243902,-0.304878,15.443750,7.993750,43.118752,0.0,1.000000,0.000000,0.000000,0.000000
1782115681.271197,180320,0.192383,-0.051270,0.981445,-0.121951,-0.304878,-0.304878,15.462501,7.956250,43.137501,0.0,1.000000,0.000000,0.000000,0.000000
1782115681.280197,180329,0.193848,-0.050293,0.979004,0.000000,-0.243902,-0.243902,15.462501,7.956250,43.137501,0.0,1.000000,0.000000,0.000000,0.000000
1782115681.290197,180339,0.192871,-0.051270,0.980469,0.000000,-0.182927,-0.243902,15.487500,7.993750,43.200001,0.0,1.000000,0.000000,0.000000,0.000000
1782115681.300197,180349,0.192871,-0.050781,0.980469,0.000000,-0.304878,-0.121951,15.487500,7.993750,43.200001,0.0,1.000000,0.000000,0.000000,0.000000
1782115681.312197,180361,0.189941,-0.050293,0.981934,0.000000,-0.243902,-0.121951,15.512500,8.062500,43.068752,0.0,1.000000,0.000000,0.000000,0.000000
1782115681.320197,180369,0.189453,-0.049316,0.980957,-0.121951,-0.304878,-0.182927,15.512500,8.062500,43.068752,0.0,1.000000,0.000000,0.000000,0.000000
1782115681.330197,180379,0.190918,-0.049316,0.979980,-0.121951,-0.304878,-0.121951,15.512500,8.075000,43.112499,0.0,1.000000,0.000000,0.000000,0.000000
1782115681.341197,180390,0.190430,-0.049316,0.979492,-0.182927,-0.304878,-0.182927,15.512500,8.075000,43.112499,0.0,1.000000,0.000000,0.000000,0.000000
1782115681.350197,180399,0.190918,-0.049805,0.980957,-0.182927,-0.365854,-0.243902,15.568750,8.075000,43.068752,0.0,1.000000,0.000000,0.000000,0.000000
1782115681.360197,180409,0.191895,-0.050293,0.980469,-0.365854,-0.487805,-0.182927,15.568750,8.075000,43.068752,0.0,1.000000,0.000000,0.000000,0.000000
1782115681.370197,180419,0.194336,-0.051270,0.980469,-0.426829,-0.365854,-0.243902,15.500000,8.056251,43.106251,0.0,1.000000,0.000000,0.000000,0.000000
1782115681.380197,180429,0.194336,-0.050781,0.981445,-0.487805,-0.304878,-0.182927,15.500000,8.056251,43.106251,0.0,1.000000,0.000000,0.000000,0.000000
1782115681.391197,180440,0.194336,-0.048828,0.980469,-0.365854,-0.243902,-0.182927,15.500000,7.956250,43.150002,0.0,1.000000,0.000000,0.000000,0.000000
1782115681.400197,180449,0.194824,-0.049805,0.978516,-0.182927,-0.365854,-0.182927,15.500000,7.956250,43.150002,0.0,1.000000,0.000000,0.000000,0.000000
1782115681.410197,180459,0.196289,-0.050293,0.979492,-0.060976,-0.304878,-0.121951,15.487500,7.968750,43.168751,0.0,1.000000,0.000000,0.000000,0.000000
1782115681.420197,180469,0.196777,-0.051270,0.979004,0.000000,-0.365854,-0.182927,15.487500,7.968750,43.168751,0.0,1.000000,0.000000,0.000000,0.000000
1782115681.433197,180482,0.196289,-0.049316,0.979980,0.000000,-0.304878,-0.243902,15.450000,7.975000,43.174999,0.0,1.000000,0.000000,0.000000,0.000000
1782115681.440197,180489,0.196777,-0.048828,0.980469,0.000000,-0.243902,-0.304878,15.450000,7.975000,43.174999,0.0,1.000000,0.000000,0.000000,0.000000
1782115681.450197,180499,0.197266,-0.050293,0.980469,-0.060976,-0.182927,-0.365854,15.475000,8.006250,43.150002,0.0,1.000000,0.000000,0.000000,0.000000
1782115681.460197,180509,0.196777,-0.048828,0.980957,-0.121951,-0.060976,-0.304878,15.475000,8.006250,43.150002,0.0,1.000000,0.000000,0.000000,0.000000
1782115681.473197,180522,0.194824,-0.050293,0.981934,-0.121951,-0.121951,-0.365854,15.437500,7.937500,43.131252,0.0,1.000000,0.000000,0.000000,0.000000
1782115681.481197,180530,0.194824,-0.050293,0.981934,-0.243902,-0.121951,-0.243902,15.437500,7.937500,43.131252,0.0,1.000000,0.000000,0.000000,0.000000
1782115681.491197,180540,0.194336,-0.050293,0.981934,-0.243902,-0.243902,-0.304878,15.531250,7.962500,43.162502,0.0,1.000000,0.000000,0.000000,0.000000
1782115681.501197,180550,0.192383,-0.050293,0.979980,-0.243902,-0.182927,-0.304878,15.531250,7.962500,43.162502,0.0,1.000000,0.000000,0.000000,0.000000
1782115681.512197,180561,0.193848,-0.050293,0.979980,-0.182927,-0.304878,-0.304878,15.512500,7.968750,43.137501,0.0,1.000000,0.000000,0.000000,0.000000
1782115681.520197,180569,0.193359,-0.051758,0.979980,-0.182927,-0.304878,-0.304878,15.512500,7.968750,43.137501,0.0,1.000000,0.000000,0.000000,0.000000
1782115681.530197,180579,0.193359,-0.050781,0.979980,-0.182927,-0.243902,-0.304878,15.462501,7.943750,43.168751,0.0,1.000000,0.000000,0.000000,0.000000
1782115681.540197,180589,0.193359,-0.052734,0.980957,-0.182927,-0.243902,-0.304878,15.462501,7.943750,43.168751,0.0,1.000000,0.000000,0.000000,0.000000
1782115681.552197,180601,0.190918,-0.051270,0.982910,-0.121951,-0.243902,-0.243902,15.531250,8.068750,43.075001,0.0,1.000000,0.000000,0.000000,0.000000
1782115681.560197,180609,0.190430,-0.049805,0.980957,-0.121951,-0.304878,-0.243902,15.531250,8.068750,43.075001,0.0,1.000000,0.000000,0.000000,0.000000
1782115681.570197,180619,0.191406,-0.051270,0.980469,-0.060976,-0.304878,-0.243902,15.506250,8.025001,43.100002,0.0,1.000000,0.000000,0.000000,0.000000
1782115681.580197,180629,0.190918,-0.052734,0.980469,-0.121951,-0.304878,-0.243902,15.506250,8.025001,43.100002,0.0,1.000000,0.000000,0.000000,0.000000
1782115681.592197,180641,0.191406,-0.053711,0.981445,0.000000,-0.365854,-0.243902,15.462501,7.968750,43.168751,0.0,1.000000,0.000000,0.000000,0.000000
1782115681.600197,180649,0.191895,-0.052246,0.980469,0.000000,-0.304878,-0.304878,15.462501,7.968750,43.168751,0.0,1.000000,0.000000,0.000000,0.000000
1782115681.610197,180659,0.191895,-0.051758,0.979980,0.060976,-0.365854,-0.304878,15.481250,7.937500,43.143749,0.0,1.000000,0.000000,0.000000,0.000000
1782115681.621197,180670,0.192383,-0.051270,0.980957,0.121951,-0.426829,-0.243902,15.481250,7.937500,43.143749,0.0,1.000000,0.000000,0.000000,0.000000
1782115681.632197,180681,0.192383,-0.050781,0.981445,0.121951,-0.365854,-0.304878,15.500000,7.931250,43.150002,0.0,1.000000,0.000000,0.000000,0.000000
1782115681.641197,180690,0.192871,-0.050293,0.980469,0.121951,-0.365854,-0.304878,15.500000,7.931250,43.150002,0.0,1.000000,0.000000,0.000000,0.000000
1782115681.650197,180699,0.194824,-0.048828,0.979980,0.121951,-0.365854,-0.304878,15.500000,7.956250,43.125000,0.0,1.000000,0.000000,0.000000,0.000000
1782115681.660197,180709,0.194824,-0.048340,0.980957,0.121951,-0.304878,-0.304878,15.500000,7.956250,43.125000,0.0,1.000000,0.000000,0.000000,0.000000
1782115681.672197,180721,0.194824,-0.047852,0.979980,0.182927,-0.304878,-0.304878,15.487500,7.912500,43.162502,0.0,1.000000,0.000000,0.000000,0.000000
1782115681.680197,180729,0.195801,-0.046875,0.979980,0.182927,-0.304878,-0.243902,15.487500,7.912500,43.162502,0.0,1.000000,0.000000,0.000000,0.000000
1782115681.690197,180739,0.194824,-0.046387,0.980469,0.182927,-0.365854,-0.182927,15.462501,7.956250,43.137501,0.0,1.000000,0.000000,0.000000,0.000000
1782115681.701197,180750,0.195801,-0.046875,0.980957,0.060976,-0.365854,-0.182927,15.462501,7.956250,43.137501,0.0,1.000000,0.000000,0.000000,0.000000
1782115681.712197,180761,0.196289,-0.044434,0.980469,-0.060976,-0.243902,-0.243902,15.475000,7.918750,43.256252,0.0,1.000000,0.000000,0.000000,0.000000
1782115681.720197,180769,0.196289,-0.044434,0.980469,-0.060976,-0.243902,-0.243902,15.475000,7.918750,43.256252,0.0,1.000000,0.000000,0.000000,0.000000
1782115681.730197,180779,0.196289,-0.045898,0.981934,-0.121951,-0.182927,-0.243902,15.537500,7.943750,43.125000,0.0,1.000000,0.000000,0.000000,0.000000
1782115681.740197,180789,0.196777,-0.045898,0.980957,-0.243902,-0.243902,-0.304878,15.537500,7.943750,43.125000,0.0,1.000000,0.000000,0.000000,0.000000
1782115681.753197,180802,0.196777,-0.044922,0.980957,-0.487805,-0.182927,-0.182927,15.475000,7.906250,43.181252,0.0,1.000000,0.000000,0.000000,0.000000
1782115681.762197,180811,0.196777,-0.044922,0.980957,-0.487805,-0.182927,-0.182927,15.475000,7.906250,43.181252,0.0,1.000000,0.000000,0.000000,0.000000
1782115681.770197,180819,0.195801,-0.046387,0.981934,-0.548781,-0.243902,-0.182927,15.550000,8.025001,43.087502,0.0,1.000000,0.000000,0.000000,0.000000
1782115681.780197,180829,0.195312,-0.046875,0.980957,-0.548781,-0.182927,-0.182927,15.550000,8.025001,43.087502,0.0,1.000000,0.000000,0.000000,0.000000
1782115681.792197,180841,0.193359,-0.047852,0.980957,-0.609756,-0.182927,-0.182927,15.493751,7.875000,43.162502,0.0,1.000000,0.000000,0.000000,0.000000
1782115681.800197,180849,0.193359,-0.047852,0.980957,-0.609756,-0.182927,-0.182927,15.493751,7.875000,43.162502,0.0,1.000000,0.000000,0.000000,0.000000
1782115681.811197,180860,0.191895,-0.048828,0.981445,-0.670732,-0.243902,-0.243902,15.437500,7.993750,43.150002,0.0,1.000000,0.000000,0.000000,0.000000
1782115681.821197,180870,0.192383,-0.050781,0.979004,-0.670732,-0.243902,-0.304878,15.437500,7.993750,43.150002,0.0,1.000000,0.000000,0.000000,0.000000
1782115681.832197,180881,0.193848,-0.052246,0.979492,-0.670732,-0.121951,-0.487805,15.418750,7.862500,43.206249,0.0,1.000000,0.000000,0.000000,0.000000
1782115681.840197,180889,0.193848,-0.052246,0.979492,-0.670732,-0.121951,-0.487805,15.418750,7.862500,43.206249,0.0,1.000000,0.000000,0.000000,0.000000
1782115681.851197,180900,0.191895,-0.053711,0.980957,-0.487805,0.000000,-0.609756,15.450000,7.956250,43.106251,0.0,1.000000,0.000000,0.000000,0.000000
1782115681.861197,180910,0.191406,-0.052246,0.979004,-0.304878,-0.121951,-0.548781,15.450000,7.956250,43.106251,0.0,1.000000,0.000000,0.000000,0.000000
1782115681.873197,180922,0.192383,-0.051270,0.979980,-0.182927,-0.060976,-0.487805,15.493751,7.912500,43.162502,0.0,1.000000,0.000000,0.000000,0.000000
1782115681.881197,180930,0.192383,-0.051270,0.979980,-0.182927,-0.060976,-0.487805,15.493751,7.912500,43.162502,0.0,1.000000,0.000000,0.000000,0.000000
1782115681.890197,180939,0.191406,-0.053223,0.979980,-0.060976,-0.182927,-0.304878,15.531250,7.962500,43.187500,0.0,1.000000,0.000000,0.000000,0.000000
1782115681.900197,180949,0.191406,-0.053223,0.979980,-0.060976,-0.182927,-0.304878,15.531250,7.962500,43.187500,0.0,1.000000,0.000000,0.000000,0.000000
1782115681.913197,180962,0.192871,-0.053711,0.980957,0.000000,-0.365854,-0.243902,15.431251,7.881250,43.168751,0.0,1.000000,0.000000,0.000000,0.000000
1782115681.920197,180969,0.193359,-0.053223,0.979492,0.000000,-0.304878,-0.182927,15.431251,7.881250,43.168751,0.0,1.000000,0.000000,0.000000,0.000000
1782115681.930197,180979,0.194336,-0.052734,0.980469,0.060976,-0.304878,-0.182927,15.493751,7.993750,43.075001,0.0,1.000000,0.000000,0.000000,0.000000
1782115681.940197,180989,0.193848,-0.052734,0.979492,0.060976,-0.365854,-0.182927,15.493751,7.993750,43.075001,0.0,1.000000,0.000000,0.000000,0.000000
1782115681.950197,180999,0.193848,-0.053223,0.980469,0.060976,-0.304878,-0.243902,15.537500,8.043750,43.075001,0.0,1.000000,0.000000,0.000000,0.000000
1782115681.960197,181009,0.193359,-0.052734,0.980957,0.121951,-0.243902,-0.243902,15.537500,8.043750,43.075001,0.0,1.000000,0.000000,0.000000,0.000000
1782115681.970197,181019,0.194824,-0.050781,0.980469,0.182927,-0.365854,-0.182927,15.606250,8.137500,43.056252,0.0,1.000000,0.000000,0.000000,0.000000
1782115681.980197,181029,0.195801,-0.049316,0.979004,0.243902,-0.365854,-0.121951,15.606250,8.137500,43.056252,0.0,1.000000,0.000000,0.000000,0.000000
1782115681.992197,181041,0.196289,-0.048340,0.980957,0.304878,-0.426829,-0.060976,15.475000,7.918750,43.150002,0.0,1.000000,0.000000,0.000000,0.000000
1782115682.000197,181049,0.195801,-0.048340,0.979004,0.365854,-0.426829,-0.060976,15.475000,7.918750,43.150002,0.0,1.000000,0.000000,0.000000,0.000000
1782115682.010197,181059,0.195801,-0.046387,0.979980,0.304878,-0.426829,-0.060976,15.543750,7.900000,43.206249,0.0,1.000000,0.000000,0.000000,0.000000
1782115682.020197,181069,0.195801,-0.046875,0.981934,0.243902,-0.365854,-0.060976,15.543750,7.900000,43.206249,0.0,1.000000,0.000000,0.000000,0.000000
1782115682.032197,181081,0.194824,-0.045410,0.981934,0.243902,-0.304878,-0.060976,15.487500,7.912500,43.218750,0.0,1.000000,0.000000,0.000000,0.000000
1782115682.040197,181089,0.193848,-0.045898,0.982422,0.060976,-0.426829,-0.121951,15.487500,7.912500,43.218750,0.0,1.000000,0.000000,0.000000,0.000000
1782115682.050197,181099,0.194824,-0.044922,0.981445,-0.060976,-0.365854,-0.182927,15.500000,7.943750,43.137501,0.0,1.000000,0.000000,0.000000,0.000000
1782115682.060197,181109,0.196289,-0.043457,0.980957,-0.121951,-0.243902,-0.182927,15.500000,7.943750,43.137501,0.0,1.000000,0.000000,0.000000,0.000000
1782115682.070197,181119,0.196289,-0.043945,0.979980,-0.243902,-0.243902,-0.182927,15.487500,7.912500,43.100002,0.0,1.000000,0.000000,0.000000,0.000000
1782115682.081197,181130,0.195312,-0.044922,0.980469,-0.304878,-0.304878,-0.243902,15.487500,7.912500,43.100002,0.0,1.000000,0.000000,0.000000,0.000000
1782115682.090197,181139,0.195312,-0.045410,0.980957,-0.304878,-0.243902,-0.243902,15.525001,7.950000,43.131252,0.0,1.000000,0.000000,0.000000,0.000000
1782115682.101197,181150,0.194336,-0.045898,0.979980,-0.365854,-0.182927,-0.243902,15.525001,7.950000,43.131252,0.0,1.000000,0.000000,0.000000,0.000000
1782115682.111197,181160,0.193848,-0.043945,0.981445,-0.487805,-0.243902,-0.243902,15.450000,7.843750,43.212502,0.0,1.000000,0.000000,0.000000,0.000000
1782115682.121197,181170,0.193359,-0.045898,0.980469,-0.548781,-0.182927,-0.243902,15.450000,7.843750,43.212502,0.0,1.000000,0.000000,0.000000,0.000000
1782115682.130197,181179,0.192871,-0.046387,0.980469,-0.670732,-0.182927,-0.304878,15.493751,7.862500,43.143749,0.0,1.000000,0.000000,0.000000,0.000000
1782115682.140197,181189,0.192871,-0.048340,0.980469,-0.670732,-0.121951,-0.365854,15.493751,7.862500,43.143749,0.0,1.000000,0.000000,0.000000,0.000000
1782115682.153197,181202,0.193359,-0.048828,0.980469,-0.731707,-0.121951,-0.365854,15.450000,7.825000,43.174999,0.0,1.000000,0.000000,0.000000,0.000000
1782115682.160197,181209,0.192383,-0.050293,0.980469,-0.792683,-0.121951,-0.426829,15.450000,7.825000,43.174999,0.0,1.000000,0.000000,0.000000,0.000000
1782115682.170197,181219,0.193848,-0.049805,0.979980,-0.731707,-0.182927,-0.365854,15.512500,7.956250,43.150002,0.0,1.000000,0.000000,0.000000,0.000000
1782115682.180197,181229,0.193359,-0.050781,0.979492,-0.670732,-0.121951,-0.365854,15.512500,7.956250,43.150002,0.0,1.000000,0.000000,0.000000,0.000000
1782115682.190197,181239,0.192871,-0.053711,0.980469,-0.609756,-0.182927,-0.426829,15.418750,7.881250,43.181252,0.0,1.000000,0.000000,0.000000,0.000000
1782115682.201197,181250,0.194824,-0.053223,0.979004,-0.487805,-0.182927,-0.426829,15.418750,7.881250,43.181252,0.0,1.000000,0.000000,0.000000,0.000000
1782115682.210197,181259,0.193359,-0.054199,0.979004,-0.304878,-0.182927,-0.365854,15.418750,7.918750,43.150002,0.0,1.000000,0.000000,0.000000,0.000000
1782115682.220197,181269,0.194336,-0.054199,0.979980,-0.182927,-0.182927,-0.365854,15.418750,7.918750,43.150002,0.0,1.000000,0.000000,0.000000,0.000000
1782115682.230197,181279,0.193848,-0.054199,0.979980,-0.121951,-0.243902,-0.365854,15.400001,7.850000,43.174999,0.0,1.000000,0.000000,0.000000,0.000000
1782115682.240197,181289,0.194824,-0.053223,0.980469,-0.060976,-0.304878,-0.304878,15.400001,7.850000,43.174999,0.0,1.000000,0.000000,0.000000,0.000000
1782115682.250197,181299,0.194824,-0.053223,0.979980,0.000000,-0.304878,-0.365854,15.475000,7.943750,43.062500,0.0,1.000000,0.000000,0.000000,0.000000
1782115682.260197,181309,0.194824,-0.052734,0.979004,0.000000,-0.243902,-0.304878,15.425000,7.862500,43.218750,0.0,1.000000,0.000000,0.000000,0.000000
1782115682.270197,181319,0.195312,-0.052734,0.979004,0.060976,-0.182927,-0.304878,15.425000,7.862500,43.218750,0.0,1.000000,0.000000,0.000000,0.000000
1782115682.280197,181329,0.195312,-0.053223,0.980469,0.060976,-0.182927,-0.243902,15.475000,7.950000,43.131252,0.0,1.000000,0.000000,0.000000,0.000000
1782115682.291197,181340,0.194336,-0.049805,0.980469,0.060976,-0.304878,-0.304878,15.475000,7.950000,43.131252,0.0,1.000000,0.000000,0.000000,0.000000
1782115682.300197,181349,0.192871,-0.049805,0.980957,0.060976,-0.365854,-0.243902,15.475000,7.950000,43.131252,0.0,1.000000,0.000000,0.000000,0.000000
1782115682.311197,181360,0.193359,-0.048828,0.981445,0.121951,-0.304878,-0.182927,15.456250,7.881250,43.181252,0.0,1.000000,0.000000,0.000000,0.000000
1782115682.320197,181369,0.194336,-0.048340,0.979004,0.060976,-0.243902,-0.182927,15.456250,7.881250,43.181252,0.0,1.000000,0.000000,0.000000,0.000000
1782115682.330197,181379,0.193848,-0.047363,0.980469,0.060976,-0.304878,-0.182927,15.487500,7.993750,43.137501,0.0,1.000000,0.000000,0.000000,0.000000
1782115682.340197,181389,0.194824,-0.047363,0.980957,0.060976,-0.365854,-0.121951,15.487500,7.993750,43.137501,0.0,1.000000,0.000000,0.000000,0.000000
1782115682.350197,181399,0.195801,-0.046387,0.981934,0.121951,-0.243902,-0.121951,15.462501,7.868750,43.181252,0.0,1.000000,0.000000,0.000000,0.000000
1782115682.360197,181409,0.194824,-0.045410,0.982910,0.060976,-0.243902,-0.182927,15.537500,8.000000,43.162502,0.0,1.000000,0.000000,0.000000,0.000000
1782115682.370197,181419,0.194824,-0.043945,0.980469,-0.060976,-0.243902,-0.182927,15.537500,8.000000,43.162502,0.0,1.000000,0.000000,0.000000,0.000000
1782115682.380197,181429,0.195312,-0.044922,0.979004,-0.182927,-0.243902,-0.121951,15.556251,8.081250,43.018749,0.0,1.000000,0.000000,0.000000,0.000000
1782115682.390197,181439,0.195801,-0.045410,0.980469,-0.304878,-0.182927,-0.182927,15.556251,8.081250,43.018749,0.0,1.000000,0.000000,0.000000,0.000000
1782115682.400197,181449,0.195312,-0.046387,0.980469,-0.365854,-0.182927,-0.243902,15.543750,7.993750,43.031250,0.0,1.000000,0.000000,0.000000,0.000000
1782115682.410197,181459,0.195312,-0.046387,0.981445,-0.426829,-0.182927,-0.243902,15.543750,7.993750,43.031250,0.0,1.000000,0.000000,0.000000,0.000000
1782115682.420197,181469,0.196289,-0.045410,0.980957,-0.426829,-0.243902,-0.243902,15.506250,7.925000,43.112499,0.0,1.000000,0.000000,0.000000,0.000000
1782115682.431197,181480,0.195312,-0.046387,0.980957,-0.487805,-0.182927,-0.304878,15.506250,7.925000,43.112499,0.0,1.000000,0.000000,0.000000,0.000000
1782115682.440197,181489,0.194336,-0.047852,0.981445,-0.548781,-0.182927,-0.304878,15.581250,8.075000,43.068752,0.0,1.000000,0.000000,0.000000,0.000000
1782115682.451197,181500,0.194824,-0.047363,0.981445,-0.670732,-0.121951,-0.304878,15.581250,8.075000,43.068752,0.0,1.000000,0.000000,0.000000,0.000000
1782115682.460197,181509,0.195801,-0.047852,0.980469,-0.731707,-0.060976,-0.365854,15.456250,7.906250,43.168751,0.0,1.000000,0.000000,0.000000,0.000000
1782115682.470197,181519,0.195312,-0.048828,0.980957,-0.670732,-0.060976,-0.426829,15.456250,7.906250,43.168751,0.0,1.000000,0.000000,0.000000,0.000000
1782115682.481197,181530,0.194336,-0.050293,0.979980,-0.670732,-0.121951,-0.365854,15.506250,8.006250,43.137501,0.0,1.000000,0.000000,0.000000,0.000000
1782115682.490197,181539,0.194336,-0.050293,0.980469,-0.670732,-0.060976,-0.365854,15.506250,8.006250,43.137501,0.0,1.000000,0.000000,0.000000,0.000000
1782115682.501197,181550,0.193359,-0.050293,0.979980,-0.670732,-0.060976,-0.304878,15.437500,7.906250,43.200001,0.0,1.000000,0.000000,0.000000,0.000000
1782115682.511197,181560,0.192383,-0.050781,0.979492,-0.609756,-0.060976,-0.304878,15.437500,7.906250,43.200001,0.0,1.000000,0.000000,0.000000,0.000000
1782115682.521197,181570,0.192871,-0.051758,0.979004,-0.609756,-0.060976,-0.304878,15.568750,8.156250,43.031250,0.0,1.000000,0.000000,0.000000,0.000000
1782115682.531197,181580,0.192383,-0.051270,0.979980,-0.609756,-0.182927,-0.304878,15.568750,8.156250,43.031250,0.0,1.000000,0.000000,0.000000,0.000000
1782115682.540197,181589,0.191406,-0.052246,0.981445,-0.548781,-0.182927,-0.304878,15.456250,7.918750,43.168751,0.0,1.000000,0.000000,0.000000,0.000000
1782115682.550197,181599,0.193359,-0.053223,0.980469,-0.365854,-0.182927,-0.304878,15.456250,7.918750,43.168751,0.0,1.000000,0.000000,0.000000,0.000000
1782115682.560197,181609,0.192383,-0.052734,0.981445,-0.304878,-0.121951,-0.304878,15.587501,8.137500,43.037502,0.0,1.000000,0.000000,0.000000,0.000000
1782115682.570197,181619,0.192383,-0.052734,0.980957,-0.243902,-0.121951,-0.304878,15.587501,8.137500,43.037502,0.0,1.000000,0.000000,0.000000,0.000000
1782115682.580197,181629,0.192383,-0.052246,0.980469,-0.182927,-0.304878,-0.243902,15.437500,7.912500,43.156250,0.0,1.000000,0.000000,0.000000,0.000000
1782115682.590197,181639,0.193359,-0.051270,0.980957,-0.182927,-0.243902,-0.243902,15.437500,7.912500,43.156250,0.0,1.000000,0.000000,0.000000,0.000000
1782115682.600197,181649,0.192871,-0.051270,0.979980,-0.121951,-0.304878,-0.304878,15.456250,8.000000,43.112499,0.0,1.000000,0.000000,0.000000,0.000000
1782115682.611197,181660,0.192871,-0.050781,0.980469,-0.121951,-0.365854,-0.243902,15.456250,8.000000,43.112499,0.0,1.000000,0.000000,0.000000,0.000000
1782115682.622197,181671,0.194336,-0.050293,0.980469,-0.121951,-0.243902,-0.365854,15.493751,7.931250,43.181252,0.0,1.000000,0.000000,0.000000,0.000000
1782115682.630197,181679,0.192871,-0.050293,0.980469,-0.121951,-0.182927,-0.365854,15.493751,7.931250,43.181252,0.0,1.000000,0.000000,0.000000,0.000000
1782115682.640197,181689,0.192383,-0.050293,0.979980,-0.060976,-0.182927,-0.365854,15.512500,7.950000,43.162502,0.0,1.000000,0.000000,0.000000,0.000000
1782115682.650197,181699,0.193359,-0.051270,0.980469,0.000000,-0.243902,-0.304878,15.512500,7.950000,43.162502,0.0,1.000000,0.000000,0.000000,0.000000
1782115682.661197,181710,0.193848,-0.051758,0.980469,-0.060976,-0.182927,-0.304878,15.487500,7.893750,43.150002,0.0,1.000000,0.000000,0.000000,0.000000
1782115682.670197,181719,0.191895,-0.051270,0.981934,-0.121951,-0.304878,-0.304878,15.487500,7.893750,43.150002,0.0,1.000000,0.000000,0.000000,0.000000
1782115682.680197,181729,0.192383,-0.050293,0.981934,-0.060976,-0.304878,-0.304878,15.500000,7.937500,43.162502,0.0,1.000000,0.000000,0.000000,0.000000
1782115682.690197,181739,0.192383,-0.050781,0.979980,0.000000,-0.304878,-0.304878,15.500000,7.937500,43.162502,0.0,1.000000,0.000000,0.000000,0.000000
1782115682.701197,181750,0.192383,-0.050781,0.980469,0.121951,-0.365854,-0.304878,15.481250,7.925000,43.162502,0.0,1.000000,0.000000,0.000000,0.000000
1782115682.710197,181759,0.193848,-0.053223,0.979492,0.060976,-0.365854,-0.365854,15.481250,7.925000,43.162502,0.0,1.000000,0.000000,0.000000,0.000000
1782115682.720197,181769,0.195801,-0.050293,0.979980,0.060976,-0.304878,-0.426829,15.487500,7.981250,43.168751,0.0,1.000000,0.000000,0.000000,0.000000
1782115682.730197,181779,0.196289,-0.050293,0.980957,0.060976,-0.243902,-0.487805,15.487500,7.981250,43.168751,0.0,1.000000,0.000000,0.000000,0.000000
1782115682.740197,181789,0.196289,-0.049805,0.980469,0.121951,-0.304878,-0.487805,15.443750,7.962500,43.112499,0.0,1.000000,0.000000,0.000000,0.000000
1782115682.750197,181799,0.196289,-0.049316,0.979004,0.121951,-0.243902,-0.426829,15.443750,7.962500,43.112499,0.0,1.000000,0.000000,0.000000,0.000000
1782115682.760197,181809,0.196777,-0.049805,0.980469,0.060976,-0.243902,-0.365854,15.475000,7.931250,43.093750,0.0,1.000000,0.000000,0.000000,0.000000
1782115682.770197,181819,0.198242,-0.048828,0.979004,0.121951,-0.182927,-0.304878,15.475000,7.931250,43.093750,0.0,1.000000,0.000000,0.000000,0.000000
1782115682.781197,181830,0.196777,-0.048340,0.982422,0.000000,-0.182927,-0.243902,15.450000,7.906250,43.168751,0.0,1.000000,0.000000,0.000000,0.000000
1782115682.790197,181839,0.197266,-0.047363,0.981445,0.000000,-0.182927,-0.121951,15.450000,7.906250,43.168751,0.0,1.000000,0.000000,0.000000,0.000000
1782115682.801197,181850,0.195312,-0.047363,0.979004,0.000000,-0.243902,0.000000,15.562500,8.118751,43.000000,0.0,1.000000,0.000000,0.000000,0.000000
1782115682.810197,181859,0.194336,-0.047363,0.980469,-0.060976,-0.304878,-0.060976,15.562500,8.118751,43.000000,0.0,1.000000,0.000000,0.000000,0.000000
1782115682.820197,181869,0.193848,-0.047852,0.981445,-0.121951,-0.243902,-0.121951,15.475000,7.950000,43.143749,0.0,1.000000,0.000000,0.000000,0.000000
1782115682.830197,181879,0.192383,-0.047852,0.980957,-0.121951,-0.243902,-0.121951,15.475000,7.950000,43.143749,0.0,1.000000,0.000000,0.000000,0.000000
1782115682.840197,181889,0.192871,-0.048828,0.981934,-0.182927,-0.243902,-0.182927,15.512500,8.000000,43.100002,0.0,1.000000,0.000000,0.000000,0.000000
1782115682.850197,181899,0.194336,-0.048828,0.980469,-0.243902,-0.243902,-0.182927,15.512500,8.000000,43.100002,0.0,1.000000,0.000000,0.000000,0.000000
1782115682.860197,181909,0.193359,-0.047363,0.980957,-0.365854,-0.182927,-0.182927,15.643750,8.143750,43.000000,0.0,1.000000,0.000000,0.000000,0.000000
1782115682.870197,181919,0.193359,-0.045898,0.980469,-0.304878,-0.182927,-0.182927,15.643750,8.143750,43.000000,0.0,1.000000,0.000000,0.000000,0.000000
1782115682.880197,181929,0.193359,-0.046875,0.980469,-0.365854,-0.182927,-0.182927,15.606250,8.175000,43.025002,0.0,1.000000,0.000000,0.000000,0.000000
1782115682.891197,181940,0.192871,-0.045410,0.981445,-0.304878,-0.182927,-0.243902,15.606250,8.175000,43.025002,0.0,1.000000,0.000000,0.000000,0.000000
1782115682.900197,181949,0.192383,-0.047363,0.980469,-0.243902,-0.182927,-0.243902,15.512500,7.925000,43.131252,0.0,1.000000,0.000000,0.000000,0.000000
1782115682.910197,181959,0.191895,-0.047363,0.980469,-0.365854,-0.182927,-0.121951,15.512500,7.925000,43.131252,0.0,1.000000,0.000000,0.000000,0.000000
1782115682.920197,181969,0.192383,-0.047363,0.981934,-0.365854,-0.121951,-0.182927,15.625000,8.150001,43.012501,0.0,1.000000,0.000000,0.000000,0.000000
1782115682.930197,181979,0.188965,-0.048340,0.980957,-0.365854,-0.182927,-0.243902,15.625000,8.150001,43.012501,0.0,1.000000,0.000000,0.000000,0.000000
1782115682.940197,181989,0.190918,-0.050293,0.981445,-0.426829,-0.243902,-0.304878,15.506250,8.018750,43.093750,0.0,1.000000,0.000000,0.000000,0.000000
1782115682.950197,181999,0.191895,-0.050781,0.980469,-0.365854,-0.182927,-0.365854,15.506250,8.018750,43.093750,0.0,1.000000,0.000000,0.000000,0.000000
1782115682.960197,182009,0.191895,-0.050781,0.980469,-0.365854,-0.121951,-0.426829,15.537500,7.975000,43.100002,0.0,1.000000,0.000000,0.000000,0.000000
1782115682.970197,182019,0.192383,-0.051270,0.980469,-0.365854,-0.243902,-0.426829,15.537500,7.975000,43.100002,0.0,1.000000,0.000000,0.000000,0.000000
1782115682.980197,182029,0.192383,-0.051270,0.979980,-0.365854,-0.243902,-0.426829,15.562500,8.100000,43.025002,0.0,1.000000,0.000000,0.000000,0.000000
1782115682.990197,182039,0.192383,-0.050293,0.979980,-0.304878,-0.243902,-0.365854,15.562500,8.100000,43.025002,0.0,1.000000,0.000000,0.000000,0.000000
1782115683.000197,182049,0.193359,-0.049805,0.979980,-0.304878,-0.304878,-0.365854,15.487500,7.968750,43.125000,0.0,1.000000,0.000000,0.000000,0.000000
1782115683.010197,182059,0.192871,-0.051270,0.979980,-0.304878,-0.243902,-0.365854,15.487500,7.968750,43.125000,0.0,1.000000,0.000000,0.000000,0.000000
1782115683.020197,182069,0.193848,-0.051270,0.979980,-0.304878,-0.365854,-0.304878,15.506250,7.950000,43.131252,0.0,1.000000,0.000000,0.000000,0.000000
1782115683.030197,182079,0.195801,-0.052246,0.980957,-0.182927,-0.243902,-0.182927,15.506250,7.950000,43.131252,0.0,1.000000,0.000000,0.000000,0.000000
1782115683.040197,182089,0.194824,-0.052734,0.979980,-0.182927,-0.243902,-0.182927,15.475000,7.962500,43.112499,0.0,1.000000,0.000000,0.000000,0.000000
1782115683.050197,182099,0.192383,-0.052246,0.980469,-0.182927,-0.365854,-0.182927,15.475000,7.962500,43.112499,0.0,1.000000,0.000000,0.000000,0.000000
1782115683.060197,182109,0.192383,-0.050781,0.979980,-0.060976,-0.548781,-0.121951,15.593750,7.993750,43.031250,0.0,1.000000,0.000000,0.000000,0.000000
1782115683.070197,182119,0.194336,-0.051758,0.979980,-0.060976,-0.548781,-0.121951,15.593750,7.993750,43.031250,0.0,1.000000,0.000000,0.000000,0.000000
1782115683.081197,182130,0.193359,-0.052246,0.979492,0.060976,-0.487805,-0.121951,15.487500,7.993750,43.137501,0.0,1.000000,0.000000,0.000000,0.000000
1782115683.090197,182139,0.194824,-0.052246,0.979492,0.000000,-0.426829,-0.243902,15.487500,7.993750,43.137501,0.0,1.000000,0.000000,0.000000,0.000000
1782115683.100197,182149,0.194824,-0.052246,0.980957,0.121951,-0.365854,-0.243902,15.487500,7.950000,43.143749,0.0,1.000000,0.000000,0.000000,0.000000
1782115683.110197,182159,0.194336,-0.051758,0.980469,0.121951,-0.365854,-0.243902,15.487500,7.950000,43.143749,0.0,1.000000,0.000000,0.000000,0.000000
1782115683.120197,182169,0.195312,-0.052734,0.979004,0.121951,-0.304878,-0.304878,15.500000,7.906250,43.137501,0.0,1.000000,0.000000,0.000000,0.000000
1782115683.130197,182179,0.195801,-0.052734,0.980469,0.121951,-0.243902,-0.365854,15.500000,7.906250,43.137501,0.0,1.000000,0.000000,0.000000,0.000000
1782115683.140197,182189,0.194824,-0.049805,0.980957,0.182927,-0.304878,-0.426829,15.512500,7.975000,43.056252,0.0,1.000000,0.000000,0.000000,0.000000
1782115683.150197,182199,0.194824,-0.049805,0.979980,0.304878,-0.304878,-0.365854,15.512500,7.975000,43.056252,0.0,1.000000,0.000000,0.000000,0.000000
1782115683.161197,182210,0.193848,-0.050781,0.980469,0.304878,-0.304878,-0.365854,15.512500,7.975000,43.100002,0.0,1.000000,0.000000,0.000000,0.000000
1782115683.170197,182219,0.192871,-0.050781,0.981934,0.365854,-0.365854,-0.365854,15.512500,7.975000,43.100002,0.0,1.000000,0.000000,0.000000,0.000000
1782115683.180197,182229,0.194336,-0.048828,0.980469,0.243902,-0.304878,-0.365854,15.512500,7.931250,43.150002,0.0,1.000000,0.000000,0.000000,0.000000
1782115683.190197,182239,0.194336,-0.047852,0.980469,0.365854,-0.304878,-0.365854,15.512500,7.931250,43.150002,0.0,1.000000,0.000000,0.000000,0.000000
1782115683.200197,182249,0.194824,-0.047852,0.980469,0.426829,-0.304878,-0.426829,15.687500,8.193750,42.931252,0.0,1.000000,0.000000,0.000000,0.000000
1782115683.210197,182259,0.193848,-0.049316,0.980957,0.487805,-0.365854,-0.426829,15.687500,8.193750,42.931252,0.0,1.000000,0.000000,0.000000,0.000000
1782115683.220197,182269,0.194336,-0.049805,0.980957,0.304878,-0.365854,-0.426829,15.518750,7.943750,43.093750,0.0,1.000000,0.000000,0.000000,0.000000
1782115683.230197,182279,0.194336,-0.046875,0.981934,0.304878,-0.365854,-0.487805,15.518750,7.943750,43.093750,0.0,1.000000,0.000000,0.000000,0.000000
1782115683.242197,182291,0.193359,-0.044922,0.981934,0.365854,-0.304878,-0.426829,15.543750,7.968750,43.062500,0.0,1.000000,0.000000,0.000000,0.000000
1782115683.250197,182299,0.193848,-0.043457,0.979980,0.365854,-0.304878,-0.365854,15.543750,7.968750,43.062500,0.0,1.000000,0.000000,0.000000,0.000000
1782115683.260197,182309,0.194824,-0.043945,0.980957,0.304878,-0.304878,-0.243902,15.581250,7.975000,43.068752,0.0,1.000000,0.000000,0.000000,0.000000
1782115683.270197,182319,0.195312,-0.043457,0.981934,0.182927,-0.243902,-0.304878,15.581250,7.975000,43.068752,0.0,1.000000,0.000000,0.000000,0.000000
1782115683.283197,182332,0.195312,-0.043457,0.982422,0.000000,-0.243902,-0.243902,15.512500,7.925000,43.174999,0.0,1.000000,0.000000,0.000000,0.000000
1782115683.290197,182339,0.195312,-0.041992,0.979980,-0.060976,-0.365854,-0.121951,15.512500,7.925000,43.174999,0.0,1.000000,0.000000,0.000000,0.000000
1782115683.301197,182350,0.195801,-0.041992,0.980469,-0.182927,-0.365854,-0.121951,15.543750,7.968750,43.150002,0.0,1.000000,0.000000,0.000000,0.000000
1782115683.311197,182360,0.195801,-0.041992,0.979492,-0.304878,-0.304878,-0.121951,15.543750,7.968750,43.150002,0.0,1.000000,0.000000,0.000000,0.000000
1782115683.323197,182372,0.195801,-0.042480,0.980469,-0.487805,-0.243902,-0.182927,15.543750,7.956250,43.106251,0.0,1.000000,0.000000,0.000000,0.000000
1782115683.330197,182379,0.196777,-0.043945,0.980957,-0.609756,-0.182927,-0.182927,15.543750,7.956250,43.106251,0.0,1.000000,0.000000,0.000000,0.000000
1782115683.340197,182389,0.197266,-0.043457,0.981934,-0.670732,-0.121951,-0.182927,15.581250,8.025001,43.037502,0.0,1.000000,0.000000,0.000000,0.000000
1782115683.350197,182399,0.196777,-0.045410,0.980957,-0.731707,0.000000,-0.243902,15.581250,8.025001,43.037502,0.0,1.000000,0.000000,0.000000,0.000000
1782115683.363197,182412,0.195312,-0.046387,0.980957,-0.792683,0.000000,-0.243902,15.518750,7.906250,43.137501,0.0,1.000000,0.000000,0.000000,0.000000
