Unix_Time_s,EMG_t_s,sample_idx,fs,gain,flags,emg_valid,ch1_raw_uV,ch1_filt_uV,ch1_env_uV,ch2_raw_uV,ch2_filt_uV,ch2_env_uV
1782115675.461197,0.000000,130720,1000,12,0,1,391.489,-9.919,13.770,439.891,-0.103,1.162
1782115675.462197,0.001000,130721,1000,12,0,1,374.530,-22.545,13.881,440.755,0.730,1.155
1782115675.463197,0.002000,130722,1000,12,0,1,361.727,-30.019,14.320,439.674,-0.144,1.153
1782115675.464197,0.003000,130723,1000,12,0,1,355.602,-24.832,14.629,439.314,-0.825,1.139
1782115675.465197,0.004000,130724,1000,12,0,1,346.955,-20.706,14.905,438.641,-0.897,1.121
1782115675.466197,0.005000,130725,1000,12,0,1,331.221,-21.640,15.216,438.257,-1.297,1.123
1782115675.467197,0.006000,130726,1000,12,0,1,325.384,-16.302,15.373,437.392,-1.397,1.111
1782115675.468197,0.007000,130727,1000,12,0,1,328.819,-1.206,15.293,438.714,-0.364,1.111
1782115675.469197,0.008000,130728,1000,12,0,1,332.062,9.658,15.265,438.497,0.423,1.101
1782115675.470197,0.009000,130729,1000,12,0,1,331.461,13.354,15.327,439.242,0.543,1.095
1782115675.471197,0.010000,130730,1000,12,0,1,336.602,17.050,15.515,437.344,-0.180,1.094
1782115675.472197,0.011000,130731,1000,12,0,1,339.772,17.972,15.689,439.386,0.476,1.094
1782115675.473197,0.012000,130732,1000,12,0,1,341.070,12.308,15.636,438.882,1.432,1.107
1782115675.474197,0.013000,130733,1000,12,0,1,344.625,7.579,15.366,438.569,-0.087,1.107
1782115675.475197,0.014000,130734,1000,12,0,1,349.213,2.959,15.103,439.602,1.227,1.111
1782115675.476197,0.015000,130735,1000,12,0,1,364.105,5.433,14.953,439.530,0.917,1.118
1782115675.477197,0.016000,130736,1000,12,0,1,380.463,11.908,14.848,438.449,-0.325,1.118
1782115675.478197,0.017000,130737,1000,12,0,1,392.041,11.940,14.808,439.026,-0.097,1.110
1782115675.479197,0.018000,130738,1000,12,0,1,392.450,5.310,14.824,441.020,1.434,1.115
1782115675.480197,0.019000,130739,1000,12,0,1,388.318,-5.110,14.744,440.996,1.588,1.087
1782115675.481197,0.020000,130740,1000,12,0,1,381.040,-12.246,14.665,440.947,0.651,1.090
1782115675.482197,0.021000,130741,1000,12,0,1,365.691,-22.839,14.810,438.593,-0.916,1.097
1782115675.483197,0.022000,130742,1000,12,0,1,353.200,-28.079,15.170,439.434,-1.250,1.111
1782115675.484197,0.023000,130743,1000,12,0,1,345.778,-23.794,15.460,439.410,-0.010,1.063
1782115675.485197,0.024000,130744,1000,12,0,1,336.073,-20.061,15.716,441.524,0.835,1.069
1782115675.486197,0.025000,130745,1000,12,0,1,318.850,-21.811,16.010,440.107,0.888,1.076
1782115675.487197,0.026000,130746,1000,12,0,1,313.182,-16.437,16.177,437.464,-2.349,1.109
1782115675.488197,0.027000,130747,1000,12,0,1,317.625,0.059,16.155,438.041,-1.424,1.126
1782115675.489197,0.028000,130748,1000,12,0,1,321.661,11.264,16.188,438.690,-0.225,1.125
1782115675.490197,0.029000,130749,1000,12,0,1,325.240,17.978,16.378,440.275,0.966,1.133
1782115675.491197,0.030000,130750,1000,12,0,1,328.867,20.707,16.607,440.491,1.738,1.149
1782115675.492197,0.031000,130751,1000,12,0,1,331.269,18.960,16.622,438.473,-0.494,1.144
1782115675.493197,0.032000,130752,1000,12,0,1,332.326,13.527,16.343,438.521,-0.633,1.080
1782115675.494197,0.033000,130753,1000,12,0,1,334.872,7.351,16.077,440.251,0.904,1.002
1782115675.495197,0.034000,130754,1000,12,0,1,343.183,5.642,15.940,439.843,0.770,1.007
1782115675.496197,0.035000,130755,1000,12,0,1,359.613,10.393,15.820,437.657,-1.543,1.028
1782115675.497197,0.036000,130756,1000,12,0,1,375.179,15.330,15.881,438.521,-1.150,1.007
1782115675.498197,0.037000,130757,1000,12,0,1,385.244,14.373,16.009,440.683,1.058,1.017
1782115675.499197,0.038000,130758,1000,12,0,1,388.198,9.222,16.001,440.899,1.157,1.030
1782115675.500197,0.039000,130759,1000,12,0,1,384.163,0.106,15.792,440.996,0.730,1.027
1782115675.501197,0.040000,130760,1000,12,0,1,377.269,-7.900,15.528,440.851,0.513,1.016
1782115675.502197,0.041000,130761,1000,12,0,1,364.658,-16.023,15.402,439.410,-0.885,1.022
1782115675.503197,0.042000,130762,1000,12,0,1,351.519,-22.131,15.508,440.011,-0.693,1.009
1782115675.504197,0.043000,130763,1000,12,0,1,341.598,-21.187,15.686,440.851,0.509,0.995
1782115675.505197,0.044000,130764,1000,12,0,1,331.461,-18.559,15.846,439.602,-0.518,0.994
1782115675.506197,0.045000,130765,1000,12,0,1,317.457,-18.442,15.961,440.491,-0.063,0.981
1782115675.507197,0.046000,130766,1000,12,0,1,309.939,-14.445,15.883,442.533,2.118,1.013
1782115675.508197,0.047000,130767,1000,12,0,1,311.548,-2.416,15.703,442.293,1.891,1.017
1782115675.509197,0.048000,130768,1000,12,0,1,316.256,9.059,15.695,439.314,-0.809,1.013
1782115675.510197,0.049000,130769,1000,12,0,1,319.907,15.579,15.848,439.290,-1.384,1.029
1782115675.511197,0.050000,130770,1000,12,0,1,323.366,17.619,15.981,438.810,-0.890,1.037
1782115675.512197,0.051000,130771,1000,12,0,1,326.705,16.435,15.831,440.443,-0.061,1.032
1782115675.513197,0.052000,130772,1000,12,0,1,329.179,12.013,15.346,438.906,-0.293,1.032
1782115675.514197,0.053000,130773,1000,12,0,1,329.900,4.559,14.953,439.002,-1.331,1.043
1782115675.515197,0.054000,130774,1000,12,0,1,340.157,3.559,14.672,438.641,-0.657,1.039
1782115675.516197,0.055000,130775,1000,12,0,1,357.115,10.145,14.421,439.074,-0.936,1.031
1782115675.517197,0.056000,130776,1000,12,0,1,371.816,13.759,14.367,441.380,1.274,1.028
1782115675.518197,0.057000,130777,1000,12,0,1,382.193,13.687,14.496,440.179,0.508,1.029
1782115675.519197,0.058000,130778,1000,12,0,1,383.490,7.774,14.474,440.323,-0.479,1.030
1782115675.520197,0.059000,130779,1000,12,0,1,380.079,-0.833,14.350,442.028,1.446,1.047
1782115675.521197,0.060000,130780,1000,12,0,1,372.152,-8.248,14.194,439.434,-0.860,1.054
1782115675.522197,0.061000,130781,1000,12,0,1,357.764,-18.025,14.196,438.810,-2.062,1.091
1782115675.523197,0.062000,130782,1000,12,0,1,346.066,-22.217,14.435,438.858,-1.274,1.087
1782115675.524197,0.063000,130783,1000,12,0,1,338.980,-18.428,14.629,438.497,-1.523,1.108
1782115675.525197,0.064000,130784,1000,12,0,1,328.315,-15.947,14.796,439.674,-0.233,1.095
1782115675.526197,0.065000,130785,1000,12,0,1,313.926,-17.171,14.974,438.281,-0.669,1.092
1782115675.527197,0.066000,130786,1000,12,0,1,308.497,-11.805,14.972,438.930,-0.643,1.095
1782115675.528197,0.067000,130787,1000,12,0,1,311.260,0.717,14.877,438.569,0.205,1.095
1782115675.529197,0.068000,130788,1000,12,0,1,315.439,10.661,14.934,437.993,-0.723,1.081
1782115675.530197,0.069000,130789,1000,12,0,1,318.370,15.608,15.079,439.050,0.662,1.061
1782115675.531197,0.070000,130790,1000,12,0,1,319.571,15.152,15.132,438.425,0.440,1.059
1782115675.532197,0.071000,130791,1000,12,0,1,323.655,13.715,14.910,438.545,0.187,1.051
1782115675.533197,0.072000,130792,1000,12,0,1,326.177,9.943,14.440,438.545,0.598,1.040
1782115675.534197,0.073000,130793,1000,12,0,1,327.306,2.294,14.046,439.482,0.914,1.048
1782115675.535197,0.074000,130794,1000,12,0,1,335.425,0.326,13.757,437.609,-0.118,1.041
1782115675.536197,0.075000,130795,1000,12,0,1,353.296,7.147,13.445,436.552,-1.902,1.068
1782115675.537197,0.076000,130796,1000,12,0,1,367.204,11.796,13.347,437.753,-0.385,1.017
1782115675.538197,0.077000,130797,1000,12,0,1,375.347,9.865,13.420,440.755,1.981,1.035
1782115675.539197,0.078000,130798,1000,12,0,1,378.902,6.568,13.357,438.882,0.977,1.044
1782115675.540197,0.079000,130799,1000,12,0,1,377.125,0.855,13.113,440.683,0.898,1.043
1782115675.541197,0.080000,130800,1000,12,0,1,369.366,-6.446,12.815,439.266,1.014,1.023
1782115675.542197,0.081000,130801,1000,12,0,1,354.809,-15.876,12.731,439.963,-0.081,1.021
1782115675.543197,0.082000,130802,1000,12,0,1,341.598,-21.428,12.946,439.314,0.600,1.021
1782115675.544197,0.083000,130803,1000,12,0,1,334.680,-17.625,13.143,439.987,0.113,1.013
1782115675.545197,0.084000,130804,1000,12,0,1,324.231,-14.710,13.282,438.353,-0.278,1.008
1782115675.546197,0.085000,130805,1000,12,0,1,308.089,-17.531,13.431,435.615,-3.026,1.073
1782115675.547197,0.086000,130806,1000,12,0,1,304.702,-11.222,13.350,436.600,-1.947,1.096
1782115675.548197,0.087000,130807,1000,12,0,1,308.017,2.390,13.199,438.930,1.038,1.095
1782115675.549197,0.088000,130808,1000,12,0,1,311.644,10.693,13.221,438.113,0.555,1.086
1782115675.550197,0.089000,130809,1000,12,0,1,314.623,15.466,13.401,437.993,0.284,1.082
1782115675.551197,0.090000,130810,1000,12,0,1,315.391,14.179,13.504,436.287,-0.781,1.085
1782115675.552197,0.091000,130811,1000,12,0,1,318.971,12.022,13.420,438.762,0.703,1.082
1782115675.553197,0.092000,130812,1000,12,0,1,322.622,9.012,13.112,439.554,2.364,1.128
1782115675.554197,0.093000,130813,1000,12,0,1,325.192,2.715,12.771,440.035,1.728,1.152
1782115675.555197,0.094000,130814,1000,12,0,1,331.149,-0.780,12.499,438.521,0.702,1.154
1782115675.556197,0.095000,130815,1000,12,0,1,351.134,6.919,12.263,439.194,0.187,1.154
1782115675.557197,0.096000,130816,1000,12,0,1,367.420,14.873,12.273,438.329,0.049,1.115
1782115675.558197,0.097000,130817,1000,12,0,1,375.275,12.205,12.389,439.410,-0.017,1.082
1782115675.559197,0.098000,130818,1000,12,0,1,377.413,7.798,12.372,438.930,0.240,1.077
1782115675.560197,0.099000,130819,1000,12,0,1,372.729,-0.325,12.174,440.179,0.373,1.060
1782115675.561197,0.100000,130820,1000,12,0,1,363.241,-8.962,11.984,440.635,1.280,1.068
1782115675.562197,0.101000,130821,1000,12,0,1,350.005,-16.600,11.988,438.810,-0.641,1.072
1782115675.563197,0.102000,130822,1000,12,0,1,339.148,-19.540,12.185,438.954,-0.935,1.079
1782115675.564197,0.103000,130823,1000,12,0,1,333.743,-14.254,12.334,440.779,1.099,1.074
1782115675.565197,0.104000,130824,1000,12,0,1,324.111,-11.138,12.424,440.996,1.255,1.085
1782115675.566197,0.105000,130825,1000,12,0,1,308.690,-13.971,12.498,439.674,0.146,1.077
1782115675.567197,0.106000,130826,1000,12,0,1,306.336,-7.725,12.394,439.002,-0.760,1.067
1782115675.568197,0.107000,130827,1000,12,0,1,307.417,3.476,12.251,438.521,-0.727,1.070
1782115675.569197,0.108000,130828,1000,12,0,1,313.854,12.170,12.323,437.705,-1.389,1.085
1782115675.570197,0.109000,130829,1000,12,0,1,318.058,18.533,12.598,439.002,-0.166,1.066
1782115675.571197,0.110000,130830,1000,12,0,1,321.325,17.108,12.775,438.786,0.220,1.060
1782115675.572197,0.111000,130831,1000,12,0,1,322.333,13.142,12.655,438.353,-0.540,1.022
1782115675.573197,0.112000,130832,1000,12,0,1,324.952,6.853,12.297,437.609,-0.860,1.013
1782115675.574197,0.113000,130833,1000,12,0,1,326.873,0.726,12.018,436.984,-1.563,1.014
1782115675.575197,0.114000,130834,1000,12,0,1,332.302,-3.845,11.817,439.242,0.297,1.014
1782115675.576197,0.115000,130835,1000,12,0,1,351.615,3.840,11.578,438.209,0.115,1.010
1782115675.577197,0.116000,130836,1000,12,0,1,367.372,11.696,11.576,440.371,0.633,1.010
1782115675.578197,0.117000,130837,1000,12,0,1,378.374,11.813,11.695,439.506,1.107,1.022
1782115675.579197,0.118000,130838,1000,12,0,1,377.917,6.983,11.640,440.996,0.592,1.020
1782115675.580197,0.119000,130839,1000,12,0,1,371.552,-3.828,11.441,443.013,3.162,1.110
1782115675.581197,0.120000,130840,1000,12,0,1,364.586,-8.902,11.309,441.212,0.910,1.115
1782115675.582197,0.121000,130841,1000,12,0,1,351.326,-16.112,11.372,442.076,0.752,1.120
1782115675.583197,0.122000,130842,1000,12,0,1,340.037,-19.520,11.617,442.004,1.274,1.131
1782115675.584197,0.123000,130843,1000,12,0,1,333.983,-14.573,11.794,441.356,-0.131,1.124
1782115675.585197,0.124000,130844,1000,12,0,1,325.961,-10.563,11.889,440.419,-0.453,1.126
1782115675.586197,0.125000,130845,1000,12,0,1,309.554,-13.634,12.001,439.794,-1.330,1.109
1782115675.587197,0.126000,130846,1000,12,0,1,305.423,-9.907,11.967,438.233,-1.943,1.142
1782115675.588197,0.127000,130847,1000,12,0,1,309.266,3.399,11.895,436.600,-3.303,1.201
1782115675.589197,0.128000,130848,1000,12,0,1,309.218,7.846,11.911,438.041,-1.607,1.215
1782115675.590197,0.129000,130849,1000,12,0,1,312.629,11.220,12.015,438.233,-0.476,1.210
1782115675.591197,0.130000,130850,1000,12,0,1,317.529,13.778,12.138,438.906,-0.185,1.202
1782115675.592197,0.131000,130851,1000,12,0,1,320.724,11.049,12.031,437.344,-0.723,1.206
1782115675.593197,0.132000,130852,1000,12,0,1,323.078,5.933,11.673,437.056,-1.677,1.226
1782115675.594197,0.133000,130853,1000,12,0,1,324.063,-1.503,11.406,438.209,-0.040,1.226
1782115675.595197,0.134000,130854,1000,12,0,1,332.110,-3.527,11.225,437.392,-0.684,1.229
1782115675.596197,0.135000,130855,1000,12,0,1,348.492,3.082,10.957,437.248,-1.105,1.163
1782115675.597197,0.136000,130856,1000,12,0,1,362.064,8.098,10.902,438.666,0.262,1.130
1782115675.598197,0.137000,130857,1000,12,0,1,371.215,8.627,10.965,440.275,1.523,1.141
1782115675.599197,0.138000,130858,1000,12,0,1,373.497,5.870,10.891,440.371,1.564,1.160
1782115675.600197,0.139000,130859,1000,12,0,1,370.111,-0.260,10.670,438.329,-0.543,1.162
1782115675.601197,0.140000,130860,1000,12,0,1,362.880,-5.753,10.511,438.233,-1.029,1.166
1782115675.602197,0.141000,130861,1000,12,0,1,347.459,-14.558,10.575,439.098,0.131,1.162
1782115675.603197,0.142000,130862,1000,12,0,1,336.602,-18.050,10.804,439.410,0.479,1.114
1782115675.604197,0.143000,130863,1000,12,0,1,330.332,-12.646,10.944,438.257,-0.254,1.088
1782115675.605197,0.144000,130864,1000,12,0,1,319.979,-10.792,11.049,438.161,-0.466,1.085
1782115675.606197,0.145000,130865,1000,12,0,1,306.167,-12.340,11.144,437.513,-0.370,1.086
1782115675.607197,0.146000,130866,1000,12,0,1,303.117,-6.695,10.984,440.275,1.613,1.110
1782115675.608197,0.147000,130867,1000,12,0,1,306.143,4.684,10.868,439.290,1.991,1.145
1782115675.609197,0.148000,130868,1000,12,0,1,309.891,11.737,10.938,437.633,-0.482,1.147
1782115675.610197,0.149000,130869,1000,12,0,1,314.094,15.814,11.165,438.545,0.671,1.149
1782115675.611197,0.150000,130870,1000,12,0,1,317.361,15.480,11.306,438.690,0.979,1.143
1782115675.612197,0.151000,130871,1000,12,0,1,316.376,8.968,11.132,438.521,0.534,1.142
1782115675.613197,0.152000,130872,1000,12,0,1,320.388,3.945,10.798,437.873,0.088,1.135
1782115675.614197,0.153000,130873,1000,12,0,1,325.096,0.859,10.609,437.657,-0.535,1.127
1782115675.615197,0.154000,130874,1000,12,0,1,332.878,-1.651,10.494,438.954,0.603,1.116
1782115675.616197,0.155000,130875,1000,12,0,1,350.053,4.890,10.330,439.794,1.168,1.128
1782115675.617197,0.156000,130876,1000,12,0,1,363.769,10.320,10.375,439.650,0.750,1.128
1782115675.618197,0.157000,130877,1000,12,0,1,372.753,10.032,10.460,438.810,-0.346,1.124
1782115675.619197,0.158000,130878,1000,12,0,1,373.594,6.403,10.357,438.353,-0.987,1.115
1782115675.620197,0.159000,130879,1000,12,0,1,370.014,-0.460,10.020,439.074,-0.462,1.117
1782115675.621197,0.160000,130880,1000,12,0,1,359.974,-7.365,9.779,437.993,-1.014,1.126
1782115675.622197,0.161000,130881,1000,12,0,1,347.123,-15.041,9.834,438.521,-1.014,1.132
1782115675.623197,0.162000,130882,1000,12,0,1,337.995,-15.402,10.026,438.497,-0.244,1.126
1782115675.624197,0.163000,130883,1000,12,0,1,328.315,-13.561,10.207,439.314,0.098,1.104
1782115675.625197,0.164000,130884,1000,12,0,1,316.088,-13.747,10.376,437.609,-0.485,1.106
1782115675.626197,0.165000,130885,1000,12,0,1,300.643,-16.050,10.608,439.218,0.072,1.106
1782115675.627197,0.166000,130886,1000,12,0,1,299.274,-9.366,10.561,439.650,1.708,1.128
1782115675.628197,0.167000,130887,1000,12,0,1,302.180,3.223,10.438,439.098,0.567,1.120
1782115675.629197,0.168000,130888,1000,12,0,1,306.288,9.660,10.481,437.921,-0.044,1.117
1782115675.630197,0.169000,130889,1000,12,0,1,310.419,14.489,10.666,436.936,-1.049,1.034
1782115675.631197,0.170000,130890,1000,12,0,1,314.959,14.510,10.788,436.287,-1.341,1.044
1782115675.632197,0.171000,130891,1000,12,0,1,316.737,10.677,10.652,436.792,-0.734,1.043
1782115675.633197,0.172000,130892,1000,12,0,1,318.466,3.885,10.303,438.233,0.590,1.031
1782115675.634197,0.173000,130893,1000,12,0,1,319.715,-2.956,10.103,436.744,-0.227,1.032
1782115675.635197,0.174000,130894,1000,12,0,1,331.101,-2.397,9.998,437.128,-0.841,1.036
1782115675.636197,0.175000,130895,1000,12,0,1,347.123,4.887,9.835,440.179,2.187,1.065
1782115675.637197,0.176000,130896,1000,12,0,1,360.646,9.072,9.818,441.236,2.818,1.103
1782115675.638197,0.177000,130897,1000,12,0,1,371.576,11.641,9.944,440.491,1.587,1.025
1782115675.639197,0.178000,130898,1000,12,0,1,373.714,9.122,9.966,439.554,0.184,0.999
1782115675.640197,0.179000,130899,1000,12,0,1,369.990,2.346,9.844,439.674,-0.077,0.997
1782115675.641197,0.180000,130900,1000,12,0,1,360.334,-4.572,9.671,440.155,0.315,0.998
1782115675.642197,0.181000,130901,1000,12,0,1,345.153,-13.957,9.746,439.410,-0.325,0.994
1782115675.643197,0.182000,130902,1000,12,0,1,335.064,-15.773,9.963,437.368,-2.023,1.007
1782115675.644197,0.183000,130903,1000,12,0,1,327.306,-12.061,10.105,438.545,-1.199,1.021
1782115675.645197,0.184000,130904,1000,12,0,1,314.719,-12.181,10.239,439.963,0.917,1.024
1782115675.646197,0.185000,130905,1000,12,0,1,297.640,-16.569,10.495,440.275,1.066,1.024
1782115675.647197,0.186000,130906,1000,12,0,1,295.670,-10.431,10.536,440.275,1.175,1.036
1782115675.648197,0.187000,130907,1000,12,0,1,301.003,3.735,10.478,439.170,0.234,1.014
1782115675.649197,0.188000,130908,1000,12,0,1,305.207,10.775,10.556,437.729,-1.073,1.001
1782115675.650197,0.189000,130909,1000,12,0,1,309.987,14.882,10.764,437.561,-1.113,1.011
1782115675.651197,0.190000,130910,1000,12,0,1,311.260,12.746,10.883,436.047,-1.886,1.035
1782115675.652197,0.191000,130911,1000,12,0,1,315.944,9.501,10.771,436.311,-1.872,1.068
1782115675.653197,0.192000,130912,1000,12,0,1,320.556,6.723,10.507,438.113,0.223,1.067
1782115675.654197,0.193000,130913,1000,12,0,1,321.709,-1.387,10.355,438.593,0.726,1.071
1782115675.655197,0.194000,130914,1000,12,0,1,332.374,-1.651,10.245,439.482,1.042,1.079
1782115675.656197,0.195000,130915,1000,12,0,1,348.684,5.387,10.124,439.602,1.137,1.090
1782115675.657197,0.196000,130916,1000,12,0,1,362.976,10.168,10.182,441.476,1.843,1.097
1782115675.658197,0.197000,130917,1000,12,0,1,371.840,11.343,10.286,440.875,1.639,1.085
1782115675.659197,0.198000,130918,1000,12,0,1,369.342,4.700,10.173,440.827,0.315,1.084
1782115675.660197,0.199000,130919,1000,12,0,1,365.979,-1.532,9.926,438.930,-0.794,1.086
1782115675.661197,0.200000,130920,1000,12,0,1,357.091,-6.261,9.722,436.720,-3.341,1.176
1782115675.662197,0.201000,130921,1000,12,0,1,342.679,-14.647,9.859,437.753,-2.090,1.210
1782115675.663197,0.202000,130922,1000,12,0,1,331.029,-16.858,10.128,437.681,-1.241,1.223
1782115675.664197,0.203000,130923,1000,12,0,1,326.849,-10.809,10.242,438.641,-0.598,1.223
1782115675.665197,0.204000,130924,1000,12,0,1,311.836,-11.183,10.361,437.993,-0.094,1.220
1782115675.666197,0.205000,130925,1000,12,0,1,296.751,-16.193,10.588,437.272,-1.081,1.219
1782115675.667197,0.206000,130926,1000,12,0,1,293.581,-9.152,10.567,438.954,0.887,1.221
1782115675.668197,0.207000,130927,1000,12,0,1,299.009,2.971,10.480,440.371,2.357,1.264
1782115675.669197,0.208000,130928,1000,12,0,1,300.763,9.181,10.521,440.035,2.036,1.289
1782115675.670197,0.209000,130929,1000,12,0,1,305.014,11.507,10.646,438.041,0.126,1.288
1782115675.671197,0.210000,130930,1000,12,0,1,306.840,10.762,10.703,438.690,0.119,1.280
1782115675.672197,0.211000,130931,1000,12,0,1,308.834,5.612,10.520,440.251,1.829,1.298
1782115675.673197,0.212000,130932,1000,12,0,1,311.692,1.142,10.293,438.617,0.276,1.298
1782115675.674197,0.213000,130933,1000,12,0,1,316.761,-2.748,10.120,438.641,-0.481,1.300
1782115675.675197,0.214000,130934,1000,12,0,1,328.098,-1.226,9.933,437.753,-0.776,1.302
1782115675.676197,0.215000,130935,1000,12,0,1,342.367,4.123,9.688,439.194,-0.397,1.304
1782115675.677197,0.216000,130936,1000,12,0,1,356.731,9.071,9.683,438.930,0.179,1.281
1782115675.678197,0.217000,130937,1000,12,0,1,366.219,11.796,9.815,438.738,-0.892,1.285
1782115675.679197,0.218000,130938,1000,12,0,1,369.222,9.406,9.810,439.939,0.394,1.286
1782115675.680197,0.219000,130939,1000,12,0,1,362.904,2.624,9.601,441.044,1.170,1.288
1782115675.681197,0.220000,130940,1000,12,0,1,353.224,-5.360,9.409,441.788,1.590,1.294
1782115675.682197,0.221000,130941,1000,12,0,1,338.812,-12.005,9.441,439.338,-0.352,1.291
1782115675.683197,0.222000,130942,1000,12,0,1,327.426,-15.114,9.665,438.954,-1.527,1.306
1782115675.684197,0.223000,130943,1000,12,0,1,320.051,-10.763,9.775,439.891,0.127,1.306
1782115675.685197,0.224000,130944,1000,12,0,1,308.930,-9.477,9.860,439.963,0.112,1.300
1782115675.686197,0.225000,130945,1000,12,0,1,295.887,-11.093,9.960,438.401,-0.781,1.268
1782115675.687197,0.226000,130946,1000,12,0,1,295.334,-3.840,9.892,438.017,-1.329,1.218
1782115675.688197,0.227000,130947,1000,12,0,1,298.048,6.355,9.796,438.233,-0.497,1.199
1782115675.689197,0.228000,130948,1000,12,0,1,300.571,10.651,9.827,437.753,-0.704,1.203
1782115675.690197,0.229000,130949,1000,12,0,1,304.342,13.189,9.996,437.320,-0.900,1.210
1782115675.691197,0.230000,130950,1000,12,0,1,306.528,11.152,10.099,437.176,-0.777,1.214
1782115675.692197,0.231000,130951,1000,12,0,1,307.369,5.197,9.932,438.762,0.483,1.215
1782115675.693197,0.232000,130952,1000,12,0,1,312.365,1.426,9.680,440.659,2.329,1.226
1782115675.694197,0.233000,130953,1000,12,0,1,316.088,-2.907,9.538,440.611,1.938,1.245
1782115675.695197,0.234000,130954,1000,12,0,1,327.306,-2.640,9.388,439.530,0.487,1.240
1782115675.696197,0.235000,130955,1000,12,0,1,342.439,3.915,9.108,441.092,1.085,1.240
1782115675.697197,0.236000,130956,1000,12,0,1,356.707,8.826,9.074,440.827,1.152,1.240
1782115675.698197,0.237000,130957,1000,12,0,1,366.267,11.386,9.201,438.930,-1.255,1.252
1782115675.699197,0.238000,130958,1000,12,0,1,367.060,7.826,9.141,439.602,-0.930,1.250
1782115675.700197,0.239000,130959,1000,12,0,1,361.559,0.960,8.896,441.356,0.786,1.245
1782115675.701197,0.240000,130960,1000,12,0,1,349.789,-7.031,8.768,441.692,1.050,1.225
1782115675.702197,0.241000,130961,1000,12,0,1,336.986,-13.590,8.875,439.338,-0.942,1.203
1782115675.703197,0.242000,130962,1000,12,0,1,327.186,-13.539,9.030,440.707,-0.474,1.205
1782115675.704197,0.243000,130963,1000,12,0,1,319.907,-9.982,9.137,440.491,0.531,1.203
1782115675.705197,0.244000,130964,1000,12,0,1,307.296,-9.580,9.234,439.122,-1.234,1.206
1782115675.706197,0.245000,130965,1000,12,0,1,293.989,-12.148,9.362,439.434,-0.529,1.198
1782115675.707197,0.246000,130966,1000,12,0,1,290.290,-6.890,9.302,440.803,0.806,1.175
1782115675.708197,0.247000,130967,1000,12,0,1,294.445,3.560,9.176,440.851,1.162,1.163
1782115675.709197,0.248000,130968,1000,12,0,1,298.481,10.434,9.270,438.401,-0.923,1.170
1782115675.710197,0.249000,130969,1000,12,0,1,303.357,13.292,9.456,436.023,-3.139,1.246
1782115675.711197,0.250000,130970,1000,12,0,1,304.966,11.009,9.543,439.602,-0.151,1.153
1782115675.712197,0.251000,130971,1000,12,0,1,305.399,4.169,9.334,439.746,1.250,1.129
1782115675.713197,0.252000,130972,1000,12,0,1,308.762,-0.742,9.025,438.617,-0.773,1.120
1782115675.714197,0.253000,130973,1000,12,0,1,314.094,-4.064,8.913,438.089,-0.910,1.125
1782115675.715197,0.254000,130974,1000,12,0,1,325.024,-3.042,8.782,437.705,-1.465,1.143
1782115675.716197,0.255000,130975,1000,12,0,1,341.886,4.353,8.501,437.176,-1.739,1.160
1782115675.717197,0.256000,130976,1000,12,0,1,356.467,10.448,8.530,437.993,-1.087,1.163
1782115675.718197,0.257000,130977,1000,12,0,1,365.499,12.071,8.689,437.921,-0.763,1.119
1782115675.719197,0.258000,130978,1000,12,0,1,365.547,8.142,8.669,439.002,-0.091,1.082
1782115675.720197,0.259000,130979,1000,12,0,1,360.358,1.526,8.517,439.002,0.350,1.083
1782115675.721197,0.260000,130980,1000,12,0,1,348.324,-6.349,8.428,437.849,-0.793,1.088
1782115675.722197,0.261000,130981,1000,12,0,1,336.073,-12.500,8.575,440.083,0.864,1.064
1782115675.723197,0.262000,130982,1000,12,0,1,325.264,-12.989,8.768,439.650,1.479,1.084
1782115675.724197,0.263000,130983,1000,12,0,1,314.815,-12.114,8.925,439.674,0.559,1.085
1782115675.725197,0.264000,130984,1000,12,0,1,303.501,-11.069,9.060,438.353,0.360,1.080
1782115675.726197,0.265000,130985,1000,12,0,1,287.984,-13.898,9.252,437.729,-0.799,1.085
1782115675.727197,0.266000,130986,1000,12,0,1,287.600,-7.429,9.223,438.377,0.468,1.086
1782115675.728197,0.267000,130987,1000,12,0,1,291.419,4.974,9.098,439.674,1.542,1.101
1782115675.729197,0.268000,130988,1000,12,0,1,295.310,9.708,9.104,438.497,0.969,1.108
1782115675.730197,0.269000,130989,1000,12,0,1,299.370,12.991,9.281,439.170,0.827,1.102
1782115675.731197,0.270000,130990,1000,12,0,1,302.684,10.936,9.378,440.563,2.359,1.129
1782115675.732197,0.271000,130991,1000,12,0,1,305.927,7.037,9.277,441.812,2.903,1.200
1782115675.733197,0.272000,130992,1000,12,0,1,305.975,-0.676,9.027,440.131,1.322,1.195
1782115675.734197,0.273000,130993,1000,12,0,1,309.891,-6.609,8.947,439.266,-0.413,1.197
1782115675.735197,0.274000,130994,1000,12,0,1,322.886,-2.915,8.856,438.089,-1.252,1.210
1782115675.736197,0.275000,130995,1000,12,0,1,338.091,3.354,8.729,438.041,-1.733,1.229
1782115675.737197,0.276000,130996,1000,12,0,1,351.014,8.015,8.785,438.641,-0.957,1.222
1782115675.738197,0.277000,130997,1000,12,0,1,359.926,10.078,8.855,439.290,-0.425,1.222
1782115675.739197,0.278000,130998,1000,12,0,1,358.533,5.880,8.765,440.875,0.743,1.222
1782115675.740197,0.279000,130999,1000,12,0,1,352.960,-0.784,8.565,438.906,-0.456,1.217
1782115675.741197,0.280000,131000,1000,12,0,1,344.240,-5.091,8.449,440.731,-0.156,1.213
1782115675.742197,0.281000,131001,1000,12,0,1,330.284,-11.453,8.572,440.731,1.224,1.223
1782115675.743197,0.282000,131002,1000,12,0,1,320.772,-12.005,8.736,439.218,-1.079,1.188
1782115675.744197,0.283000,131003,1000,12,0,1,313.494,-7.424,8.789,439.602,-0.341,1.157
1782115675.745197,0.284000,131004,1000,12,0,1,298.553,-9.568,8.885,441.044,0.942,1.162
1782115675.746197,0.285000,131005,1000,12,0,1,284.117,-13.146,9.060,440.491,0.842,1.158
1782115675.747197,0.286000,131006,1000,12,0,1,284.621,-4.782,8.999,438.810,-0.781,1.152
1782115675.748197,0.287000,131007,1000,12,0,1,288.777,6.521,8.902,440.059,0.063,1.138
1782115675.749197,0.288000,131008,1000,12,0,1,293.316,11.914,8.992,439.290,0.291,1.131
1782115675.750197,0.289000,131009,1000,12,0,1,295.694,13.139,9.181,439.002,-0.718,1.130
1782115675.751197,0.290000,131010,1000,12,0,1,296.799,8.754,9.211,441.932,2.082,1.159
1782115675.752197,0.291000,131011,1000,12,0,1,300.595,5.134,9.037,439.002,0.103,1.151
1782115675.753197,0.292000,131012,1000,12,0,1,302.901,-0.357,8.832,439.074,-1.370,1.165
1782115675.754197,0.293000,131013,1000,12,0,1,305.975,-6.543,8.768,437.729,-1.177,1.175
1782115675.755197,0.294000,131014,1000,12,0,1,315.536,-6.054,8.705,439.218,-1.226,1.175
1782115675.756197,0.295000,131015,1000,12,0,1,332.614,1.641,8.536,440.083,0.750,1.177
1782115675.757197,0.296000,131016,1000,12,0,1,344.889,7.340,8.544,441.572,0.942,1.179
1782115675.758197,0.297000,131017,1000,12,0,1,352.864,8.115,8.606,441.548,1.369,1.183
1782115675.759197,0.298000,131018,1000,12,0,1,354.449,7.098,8.538,439.650,-0.912,1.183
1782115675.760197,0.299000,131019,1000,12,0,1,349.573,1.781,8.332,440.203,-0.863,1.104
1782115675.761197,0.300000,131020,1000,12,0,1,339.148,-4.356,8.208,440.395,-0.078,1.103
1782115675.762197,0.301000,131021,1000,12,0,1,326.009,-10.239,8.314,441.068,-0.048,1.089
1782115675.763197,0.302000,131022,1000,12,0,1,315.415,-11.210,8.463,440.563,0.216,1.084
1782115675.764197,0.303000,131023,1000,12,0,1,308.281,-7.181,8.505,439.482,-1.171,1.089
1782115675.765197,0.304000,131024,1000,12,0,1,294.686,-7.846,8.566,438.593,-1.372,1.087
1782115675.766197,0.305000,131025,1000,12,0,1,280.706,-11.305,8.692,441.668,0.915,1.066
1782115675.767197,0.306000,131026,1000,12,0,1,281.859,-2.882,8.575,441.716,2.180,1.099
1782115675.768197,0.307000,131027,1000,12,0,1,286.278,8.344,8.486,440.179,-0.066,1.094
1782115675.769197,0.308000,131028,1000,12,0,1,288.152,11.121,8.554,440.587,0.429,1.096
1782115675.770197,0.309000,131029,1000,12,0,1,292.332,12.819,8.741,440.611,0.575,1.098
1782115675.771197,0.310000,131030,1000,12,0,1,295.094,10.591,8.823,439.410,-0.566,1.095
1782115675.772197,0.311000,131031,1000,12,0,1,295.046,3.358,8.657,440.251,-0.095,1.088
1782115675.773197,0.312000,131032,1000,12,0,1,299.009,-1.880,8.464,439.050,-0.651,1.072
1782115675.774197,0.313000,131033,1000,12,0,1,302.997,-5.829,8.330,440.443,-0.271,1.070
1782115675.775197,0.314000,131034,1000,12,0,1,314.262,-5.044,8.212,441.452,1.238,1.083
1782115675.776197,0.315000,131035,1000,12,0,1,332.350,4.275,7.996,439.554,-0.817,1.083
1782115675.777197,0.316000,131036,1000,12,0,1,346.738,10.622,8.068,438.545,-2.078,1.120
1782115675.778197,0.317000,131037,1000,12,0,1,353.776,11.042,8.188,440.683,-0.204,1.099
1782115675.779197,0.318000,131038,1000,12,0,1,352.647,6.608,8.126,441.932,1.180,1.103
1782115675.780197,0.319000,131039,1000,12,0,1,346.834,0.385,7.915,439.098,-1.188,1.110
1782115675.781197,0.320000,131040,1000,12,0,1,333.743,-7.415,7.833,438.954,-2.099,1.099
1782115675.782197,0.321000,131041,1000,12,0,1,317.481,-15.959,8.091,439.482,-0.624,1.023
1782115675.783197,0.322000,131042,1000,12,0,1,310.371,-13.540,8.314,440.851,0.213,1.007
1782115675.784197,0.323000,131043,1000,12,0,1,304.078,-7.156,8.323,441.620,1.530,1.028
1782115675.785197,0.324000,131044,1000,12,0,1,289.665,-9.048,8.411,438.521,-1.083,1.024
1782115675.786197,0.325000,131045,1000,12,0,1,276.910,-11.279,8.548,439.026,-1.236,1.010
1782115675.787197,0.326000,131046,1000,12,0,1,279.913,-1.257,8.474,440.587,1.173,1.014
1782115675.788197,0.327000,131047,1000,12,0,1,282.435,8.409,8.437,439.410,0.137,1.013
1782115675.789197,0.328000,131048,1000,12,0,1,283.972,9.958,8.514,438.113,-0.965,1.016
1782115675.790197,0.329000,131049,1000,12,0,1,288.993,12.686,8.700,438.834,-0.318,1.015
1782115675.791197,0.330000,131050,1000,12,0,1,293.437,11.526,8.822,437.921,-0.470,1.017
1782115675.792197,0.331000,131051,1000,12,0,1,295.815,6.174,8.716,438.714,-0.293,1.003
1782115675.793197,0.332000,131052,1000,12,0,1,299.370,0.447,8.549,437.176,-0.705,0.997
1782115675.794197,0.333000,131053,1000,12,0,1,304.006,-4.145,8.505,438.329,-0.682,1.000
1782115675.795197,0.334000,131054,1000,12,0,1,315.295,-3.114,8.408,438.954,0.864,0.999
1782115675.796197,0.335000,131055,1000,12,0,1,331.149,3.681,8.216,439.122,0.289,0.992
1782115675.797197,0.336000,131056,1000,12,0,1,344.913,9.291,8.293,440.443,1.431,1.007
1782115675.798197,0.337000,131057,1000,12,0,1,353.921,11.552,8.402,440.996,1.765,1.037
1782115675.799197,0.338000,131058,1000,12,0,1,353.488,8.179,8.312,440.347,0.761,1.042
1782115675.800197,0.339000,131059,1000,12,0,1,347.219,1.275,8.104,441.044,0.992,1.046
1782115675.801197,0.340000,131060,1000,12,0,1,336.674,-4.784,8.037,439.386,-0.223,1.005
1782115675.802197,0.341000,131061,1000,12,0,1,323.775,-10.447,8.140,438.810,-1.265,1.020
1782115675.803197,0.342000,131062,1000,12,0,1,314.094,-10.550,8.275,439.915,0.087,1.002
1782115675.804197,0.343000,131063,1000,12,0,1,306.240,-7.173,8.286,437.729,-1.199,1.002
1782115675.805197,0.344000,131064,1000,12,0,1,289.905,-10.388,8.371,437.609,-1.827,1.021
1782115675.806197,0.345000,131065,1000,12,0,1,277.319,-13.415,8.580,437.561,-0.660,1.019
1782115675.807197,0.346000,131066,1000,12,0,1,278.592,-3.999,8.536,438.930,0.163,1.011
1782115675.808197,0.347000,131067,1000,12,0,1,283.804,6.787,8.513,438.930,1.150,1.005
1782115675.809197,0.348000,131068,1000,12,0,1,288.200,11.826,8.617,438.978,0.600,1.001
1782115675.810197,0.349000,131069,1000,12,0,1,292.836,13.417,8.820,437.368,-0.177,0.993
1782115675.811197,0.350000,131070,1000,12,0,1,296.655,11.064,8.937,439.050,0.432,0.995
1782115675.812197,0.351000,131071,1000,12,0,1,297.784,4.490,8.841,438.185,0.768,1.001
1782115675.813197,0.352000,131072,1000,12,0,1,301.988,-1.341,8.700,438.617,-0.036,1.001
1782115675.814197,0.353000,131073,1000,12,0,1,304.414,-6.874,8.695,436.480,-0.912,0.995
1782115675.815197,0.354000,131074,1000,12,0,1,317.193,-5.699,8.662,438.930,-0.193,0.977
1782115675.816197,0.355000,131075,1000,12,0,1,335.761,4.830,8.540,438.521,0.942,0.977
1782115675.817197,0.356000,131076,1000,12,0,1,347.099,8.296,8.611,440.707,1.125,0.941
1782115675.818197,0.357000,131077,1000,12,0,1,352.816,7.602,8.597,441.500,2.748,1.018
1782115675.819197,0.358000,131078,1000,12,0,1,351.999,4.318,8.474,441.620,1.612,1.041
1782115675.820197,0.359000,131079,1000,12,0,1,348.444,0.424,8.278,440.827,0.924,1.046
1782115675.821197,0.360000,131080,1000,12,0,1,336.385,-5.600,8.180,439.891,-0.328,1.044
1782115675.822197,0.361000,131081,1000,12,0,1,319.811,-14.702,8.427,437.921,-1.967,1.081
1782115675.823197,0.362000,131082,1000,12,0,1,310.443,-13.971,8.651,439.074,-1.084,1.088
1782115675.824197,0.363000,131083,1000,12,0,1,303.429,-8.771,8.700,436.624,-2.063,1.125
1782115675.825197,0.364000,131084,1000,12,0,1,286.879,-11.725,8.828,436.936,-2.393,1.162
1782115675.826197,0.365000,131085,1000,12,0,1,275.061,-13.862,9.023,439.987,1.266,1.170
1782115675.827197,0.366000,131086,1000,12,0,1,278.592,-2.369,8.904,439.122,1.101,1.143
1782115675.828197,0.367000,131087,1000,12,0,1,280.994,6.607,8.815,439.482,0.575,1.146
1782115675.829197,0.368000,131088,1000,12,0,1,284.285,9.545,8.869,440.707,2.247,1.177
1782115675.830197,0.369000,131089,1000,12,0,1,287.624,11.167,9.008,440.035,1.197,1.177
1782115675.831197,0.370000,131090,1000,12,0,1,290.482,7.715,9.013,439.338,0.410,1.141
1782115675.832197,0.371000,131091,1000,12,0,1,291.707,2.118,8.731,439.602,0.265,1.138
1782115675.833197,0.372000,131092,1000,12,0,1,292.548,-5.646,8.556,438.810,-0.263,1.138
1782115675.834197,0.373000,131093,1000,12,0,1,297.160,-9.653,8.605,438.593,-0.953,1.125
1782115675.835197,0.374000,131094,1000,12,0,1,309.843,-6.101,8.553,439.482,-0.088,1.115
1782115675.836197,0.375000,131095,1000,12,0,1,327.258,2.897,8.413,440.395,0.545,1.104
1782115675.837197,0.376000,131096,1000,12,0,1,340.925,9.428,8.516,441.404,1.156,1.104
1782115675.838197,0.377000,131097,1000,12,0,1,347.627,10.279,8.557,438.762,-0.943,1.111
1782115675.839197,0.378000,131098,1000,12,0,1,347.507,7.502,8.507,439.915,-1.119,1.114
1782115675.840197,0.379000,131099,1000,12,0,1,339.364,0.593,8.316,439.794,0.036,1.113
1782115675.841197,0.380000,131100,1000,12,0,1,327.546,-6.516,8.206,440.155,-0.616,1.115
1782115675.842197,0.381000,131101,1000,12,0,1,313.686,-11.544,8.321,439.843,-0.033,1.114
1782115675.843197,0.382000,131102,1000,12,0,1,306.456,-9.476,8.428,439.242,-0.950,1.118
1782115675.844197,0.383000,131103,1000,12,0,1,298.745,-4.509,8.432,440.923,0.664,1.118
1782115675.845197,0.384000,131104,1000,12,0,1,282.459,-8.440,8.505,439.891,0.453,1.113
1782115675.846197,0.385000,131105,1000,12,0,1,269.776,-11.133,8.634,439.074,-0.903,1.119
1782115675.847197,0.386000,131106,1000,12,0,1,270.209,-2.873,8.543,437.272,-1.542,1.122
1782115675.848197,0.387000,131107,1000,12,0,1,272.202,5.253,8.418,437.008,-2.199,1.137
1782115675.849197,0.388000,131108,1000,12,0,1,274.772,8.377,8.422,439.194,0.476,1.134
1782115675.850197,0.389000,131109,1000,12,0,1,278.135,9.618,8.529,440.491,1.752,1.153
1782115675.851197,0.390000,131110,1000,12,0,1,281.690,7.484,8.568,438.401,0.082,1.152
1782115675.852197,0.391000,131111,1000,12,0,1,285.822,3.950,8.458,437.801,-1.139,1.150
1782115675.853197,0.392000,131112,1000,12,0,1,287.143,-2.703,8.334,438.978,0.192,1.150
1782115675.854197,0.393000,131113,1000,12,0,1,291.971,-7.619,8.342,440.467,1.326,1.153
1782115675.855197,0.394000,131114,1000,12,0,1,303.165,-4.997,8.242,438.882,0.101,1.123
1782115675.856197,0.395000,131115,1000,12,0,1,320.099,2.771,8.030,440.443,0.376,1.121
1782115675.857197,0.396000,131116,1000,12,0,1,333.431,9.544,8.123,440.035,0.841,1.127
1782115675.858197,0.397000,131117,1000,12,0,1,340.925,10.822,8.210,438.161,-1.616,1.138
1782115675.859197,0.398000,131118,1000,12,0,1,338.019,6.495,8.090,440.491,0.196,1.135
1782115675.860197,0.399000,131119,1000,12,0,1,331.173,-0.192,7.865,440.563,1.062,1.145
1782115675.861197,0.400000,131120,1000,12,0,1,320.532,-4.902,7.739,438.401,-1.423,1.161
1782115675.862197,0.401000,131121,1000,12,0,1,305.255,-11.440,7.880,438.786,-0.977,1.164
1782115675.863197,0.402000,131122,1000,12,0,1,297.280,-10.031,8.005,441.092,1.208,1.177
1782115675.864197,0.403000,131123,1000,12,0,1,291.947,-3.013,7.957,441.284,1.845,1.198
1782115675.865197,0.404000,131124,1000,12,0,1,276.238,-6.072,7.962,439.891,0.260,1.198
1782115675.866197,0.405000,131125,1000,12,0,1,265.260,-8.146,8.016,437.849,-1.319,1.206
1782115675.867197,0.406000,131126,1000,12,0,1,265.212,-0.202,7.930,438.281,-1.133,1.206
1782115675.868197,0.407000,131127,1000,12,0,1,269.464,8.385,7.946,437.488,-0.872,1.148
1782115675.869197,0.408000,131128,1000,12,0,1,273.091,12.566,8.119,441.524,1.744,1.152
1782115675.870197,0.409000,131129,1000,12,0,1,275.493,11.702,8.286,439.266,1.552,1.165
1782115675.871197,0.410000,131130,1000,12,0,1,278.904,8.635,8.338,438.690,-1.087,1.174
1782115675.872197,0.411000,131131,1000,12,0,1,282.819,4.558,8.100,438.954,0.400,1.142
1782115675.873197,0.412000,131132,1000,12,0,1,284.669,-2.378,7.863,438.329,-0.851,1.138
1782115675.874197,0.413000,131133,1000,12,0,1,290.794,-6.267,7.815,440.683,1.004,1.110
1782115675.875197,0.414000,131134,1000,12,0,1,302.660,-3.566,7.653,440.443,1.319,1.073
1782115675.876197,0.415000,131135,1000,12,0,1,317.769,2.578,7.407,437.681,-1.921,1.092
1782115675.877197,0.416000,131136,1000,12,0,1,329.660,7.421,7.473,438.810,-1.122,1.093
1782115675.878197,0.417000,131137,1000,12,0,1,335.184,7.601,7.492,439.410,-0.126,1.090
1782115675.879197,0.418000,131138,1000,12,0,1,334.752,4.905,7.402,439.146,-0.504,1.045
1782115675.880197,0.419000,131139,1000,12,0,1,328.315,0.046,7.232,439.746,-0.045,1.031
1782115675.881197,0.420000,131140,1000,12,0,1,318.850,-4.669,7.180,441.932,1.828,1.062
1782115675.882197,0.421000,131141,1000,12,0,1,305.927,-8.718,7.278,441.836,1.952,1.096
1782115675.883197,0.422000,131142,1000,12,0,1,296.583,-8.745,7.340,440.419,0.261,1.096
1782115675.884197,0.423000,131143,1000,12,0,1,290.482,-3.398,7.227,437.464,-2.070,1.127
1782115675.885197,0.424000,131144,1000,12,0,1,275.253,-5.966,7.225,439.362,-0.948,1.134
1782115675.886197,0.425000,131145,1000,12,0,1,264.732,-8.158,7.305,439.650,0.728,1.136
1782115675.887197,0.426000,131146,1000,12,0,1,266.485,1.029,7.184,437.609,-1.455,1.143
1782115675.888197,0.427000,131147,1000,12,0,1,270.305,9.074,7.151,439.482,0.111,1.136
1782115675.889197,0.428000,131148,1000,12,0,1,272.731,11.445,7.255,440.443,1.735,1.151
1782115675.890197,0.429000,131149,1000,12,0,1,274.340,9.715,7.384,438.449,-0.346,1.152
1782115675.891197,0.430000,131150,1000,12,0,1,277.751,6.487,7.383,437.777,-1.112,1.159
1782115675.892197,0.431000,131151,1000,12,0,1,280.057,1.423,7.203,437.008,-1.481,1.178
1782115675.893197,0.432000,131152,1000,12,0,1,283.900,-4.295,7.103,439.722,0.450,1.172
1782115675.894197,0.433000,131153,1000,12,0,1,287.816,-8.558,7.178,438.041,0.094,1.169
1782115675.895197,0.434000,131154,1000,12,0,1,300.859,-6.117,7.130,439.362,-0.373,1.168
1782115675.896197,0.435000,131155,1000,12,0,1,318.634,3.808,6.975,440.155,1.475,1.180
1782115675.897197,0.436000,131156,1000,12,0,1,329.011,7.273,7.039,440.323,0.547,1.162
1782115675.898197,0.437000,131157,1000,12,0,1,332.710,5.634,7.045,438.690,-0.447,1.121
1782115675.899197,0.438000,131158,1000,12,0,1,334.344,4.794,6.977,439.098,-0.889,1.126
1782115675.900197,0.439000,131159,1000,12,0,1,328.483,1.091,6.845,438.521,-0.632,1.102
1782115675.901197,0.440000,131160,1000,12,0,1,316.713,-5.670,6.810,438.930,-0.693,1.107
1782115675.902197,0.441000,131161,1000,12,0,1,302.636,-10.981,6.963,439.626,0.398,1.096
1782115675.903197,0.442000,131162,1000,12,0,1,293.388,-10.336,7.104,438.762,-0.137,1.096
1782115675.904197,0.443000,131163,1000,12,0,1,286.975,-5.034,7.058,437.753,-1.103,1.091
1782115675.905197,0.444000,131164,1000,12,0,1,271.313,-7.600,7.104,437.248,-1.021,1.101
1782115675.906197,0.445000,131165,1000,12,0,1,261.081,-9.451,7.218,438.954,0.358,1.100
1782115675.907197,0.446000,131166,1000,12,0,1,262.786,0.144,7.091,438.641,1.057,1.104
1782115675.908197,0.447000,131167,1000,12,0,1,268.263,9.354,7.049,437.585,-0.428,1.082
1782115675.909197,0.448000,131168,1000,12,0,1,271.506,12.905,7.223,437.513,-0.084,1.082
1782115675.910197,0.449000,131169,1000,12,0,1,271.530,9.496,7.347,438.714,0.781,1.077
1782115675.911197,0.450000,131170,1000,12,0,1,275.229,6.104,7.365,436.600,-0.401,1.059
1782115675.912197,0.451000,131171,1000,12,0,1,278.015,1.852,7.190,437.681,-0.524,1.053
1782115675.913197,0.452000,131172,1000,12,0,1,279.697,-5.655,7.094,440.107,2.340,1.090
1782115675.914197,0.453000,131173,1000,12,0,1,285.966,-8.464,7.182,438.209,0.520,1.061
1782115675.915197,0.454000,131174,1000,12,0,1,299.562,-4.330,7.156,436.840,-1.444,1.080
1782115675.916197,0.455000,131175,1000,12,0,1,315.728,3.552,7.081,438.834,0.326,1.065
1782115675.917197,0.456000,131176,1000,12,0,1,326.825,7.704,7.164,439.050,0.783,1.059
1782115675.918197,0.457000,131177,1000,12,0,1,330.861,6.755,7.130,440.323,1.213,1.065
1782115675.919197,0.458000,131178,1000,12,0,1,329.347,3.421,6.921,440.539,1.644,1.062
1782115675.920197,0.459000,131179,1000,12,0,1,322.429,-1.445,6.724,441.980,2.023,1.078
1782115675.921197,0.460000,131180,1000,12,0,1,308.522,-8.830,6.729,440.563,1.244,1.081
1782115675.922197,0.461000,131181,1000,12,0,1,297.808,-11.727,6.900,439.170,-0.893,1.087
1782115675.923197,0.462000,131182,1000,12,0,1,289.305,-8.525,6.997,441.500,1.154,1.093
1782115675.924197,0.463000,131183,1000,12,0,1,280.105,-6.334,6.998,439.050,-0.056,1.083
1782115675.925197,0.464000,131184,1000,12,0,1,264.660,-8.694,7.087,439.650,-0.906,1.075
1782115675.926197,0.465000,131185,1000,12,0,1,256.325,-8.450,7.178,440.323,1.106,1.052
1782115675.927197,0.466000,131186,1000,12,0,1,258.414,1.515,7.104,437.897,-1.467,1.060
1782115675.928197,0.467000,131187,1000,12,0,1,261.777,8.980,7.136,438.930,-0.690,1.064
1782115675.929197,0.468000,131188,1000,12,0,1,265.308,12.055,7.304,438.641,-0.091,1.062
1782115675.930197,0.469000,131189,1000,12,0,1,269.128,12.263,7.507,438.690,-0.639,1.066
1782115675.931197,0.470000,131190,1000,12,0,1,272.226,8.635,7.577,439.602,0.589,1.038
1782115675.932197,0.471000,131191,1000,12,0,1,276.646,4.396,7.502,440.035,0.644,1.004
1782115675.933197,0.472000,131192,1000,12,0,1,278.039,-2.730,7.409,441.020,1.260,1.019
1782115675.934197,0.473000,131193,1000,12,0,1,283.876,-7.208,7.464,440.227,0.467,0.979
1782115675.935197,0.474000,131194,1000,12,0,1,297.904,-2.530,7.424,438.449,-1.585,0.995
1782115675.936197,0.475000,131195,1000,12,0,1,311.860,3.381,7.350,440.323,-0.408,0.991
1782115675.937197,0.476000,131196,1000,12,0,1,326.585,9.587,7.472,439.698,-0.222,0.970
1782115675.938197,0.477000,131197,1000,12,0,1,331.894,11.099,7.527,438.762,-1.825,1.004
1782115675.939197,0.478000,131198,1000,12,0,1,328.579,4.823,7.382,440.227,-0.309,0.974
1782115675.940197,0.479000,131199,1000,12,0,1,324.231,1.704,7.257,440.539,0.240,0.974
1782115675.941197,0.480000,131200,1000,12,0,1,310.779,-5.101,7.235,439.698,-0.628,0.965
1782115675.942197,0.481000,131201,1000,12,0,1,295.478,-12.609,7.449,436.720,-2.742,1.019
1782115675.943197,0.482000,131202,1000,12,0,1,287.167,-10.324,7.566,437.032,-2.813,1.092
1782115675.944197,0.483000,131203,1000,12,0,1,281.042,-4.873,7.501,438.017,-0.619,1.095
1782115675.945197,0.484000,131204,1000,12,0,1,265.981,-7.061,7.517,439.963,0.888,1.101
1782115675.946197,0.485000,131205,1000,12,0,1,256.685,-8.311,7.589,439.554,1.433,1.100
1782115675.947197,0.486000,131206,1000,12,0,1,256.397,-0.577,7.520,439.891,0.958,1.106
1782115675.948197,0.487000,131207,1000,12,0,1,259.399,5.938,7.525,440.515,1.940,1.137
1782115675.949197,0.488000,131208,1000,12,0,1,263.699,10.181,7.631,438.738,0.261,1.131
1782115675.950197,0.489000,131209,1000,12,0,1,267.326,10.198,7.765,437.657,-1.080,1.138
1782115675.951197,0.490000,131210,1000,12,0,1,270.833,6.904,7.785,438.617,-0.060,1.134
1782115675.952197,0.491000,131211,1000,12,0,1,274.724,2.518,7.636,440.923,1.772,1.160
1782115675.953197,0.492000,131212,1000,12,0,1,276.430,-4.551,7.523,440.707,1.839,1.188
1782115675.954197,0.493000,131213,1000,12,0,1,284.092,-7.160,7.557,437.633,-1.443,1.195
1782115675.955197,0.494000,131214,1000,12,0,1,297.520,-2.660,7.490,438.281,-1.440,1.204
1782115675.956197,0.495000,131215,1000,12,0,1,313.590,4.329,7.395,438.401,-0.594,1.206
1782115675.957197,0.496000,131216,1000,12,0,1,324.447,8.579,7.494,439.891,0.041,1.197
1782115675.958197,0.497000,131217,1000,12,0,1,330.957,9.212,7.490,441.164,1.647,1.218
1782115675.959197,0.498000,131218,1000,12,0,1,327.906,5.380,7.304,440.803,0.881,1.224
1782115675.960197,0.499000,131219,1000,12,0,1,322.429,0.297,7.180,440.996,0.745,1.223
1782115675.961197,0.500000,131220,1000,12,0,1,308.089,-6.418,7.185,440.299,0.248,1.223
1782115675.962197,0.501000,131221,1000,12,0,1,293.509,-13.427,7.427,439.794,-0.523,1.223
1782115675.963197,0.502000,131222,1000,12,0,1,284.837,-10.756,7.539,441.068,0.710,1.181
1782115675.964197,0.503000,131223,1000,12,0,1,277.391,-6.373,7.498,441.116,1.001,1.187
1782115675.965197,0.504000,131224,1000,12,0,1,263.315,-7.855,7.555,440.323,0.145,1.170
1782115675.966197,0.505000,131225,1000,12,0,1,256.637,-6.355,7.592,440.131,-0.042,1.169
1782115675.967197,0.506000,131226,1000,12,0,1,258.486,2.823,7.524,441.044,0.759,1.169
1782115675.968197,0.507000,131227,1000,12,0,1,261.921,9.463,7.582,438.161,-1.167,1.168
1782115675.969197,0.508000,131228,1000,12,0,1,264.660,11.459,7.738,440.683,-0.196,1.145
1782115675.970197,0.509000,131229,1000,12,0,1,264.323,7.867,7.815,439.554,0.628,1.112
1782115675.971197,0.510000,131230,1000,12,0,1,268.287,4.045,7.736,438.449,-1.859,1.129
1782115675.972197,0.511000,131231,1000,12,0,1,271.842,0.739,7.557,438.353,-1.006,1.131
1782115675.973197,0.512000,131232,1000,12,0,1,275.589,-5.389,7.499,437.320,-2.099,1.158
1782115675.974197,0.513000,131233,1000,12,0,1,280.898,-8.391,7.539,439.770,-0.210,1.158
1782115675.975197,0.514000,131234,1000,12,0,1,294.590,-5.001,7.472,440.419,1.187,1.163
1782115675.976197,0.515000,131235,1000,12,0,1,310.972,3.899,7.396,439.843,-0.229,1.153
1782115675.977197,0.516000,131236,1000,12,0,1,323.102,8.695,7.494,438.762,-0.792,1.140
1782115675.978197,0.517000,131237,1000,12,0,1,325.264,7.061,7.453,439.122,-1.108,1.146
1782115675.979197,0.518000,131238,1000,12,0,1,322.309,2.121,7.262,438.641,-0.767,1.151
1782115675.980197,0.519000,131239,1000,12,0,1,316.424,-1.181,7.054,441.668,1.012,1.157
1782115675.981197,0.520000,131240,1000,12,0,1,303.117,-7.451,7.027,441.044,1.747,1.180
1782115675.982197,0.521000,131241,1000,12,0,1,288.248,-13.404,7.251,441.284,0.516,1.179
1782115675.983197,0.522000,131242,1000,12,0,1,281.378,-9.669,7.369,438.209,-0.886,1.172
1782115675.984197,0.523000,131243,1000,12,0,1,276.070,-2.936,7.310,437.633,-2.530,1.223
1782115675.985197,0.524000,131244,1000,12,0,1,261.825,-4.763,7.332,438.930,-0.134,1.203
1782115675.986197,0.525000,131245,1000,12,0,1,254.475,-4.669,7.346,439.770,0.658,1.205
1782115675.987197,0.526000,131246,1000,12,0,1,256.805,4.737,7.251,442.269,2.715,1.264
1782115675.988197,0.527000,131247,1000,12,0,1,259.880,10.626,7.237,441.428,2.565,1.290
1782115675.989197,0.528000,131248,1000,12,0,1,264.900,13.989,7.471,442.701,2.138,1.324
1782115675.990197,0.529000,131249,1000,12,0,1,266.774,12.123,7.662,441.524,2.084,1.356
1782115675.991197,0.530000,131250,1000,12,0,1,270.329,7.340,7.698,438.593,-1.775,1.376
1782115675.992197,0.531000,131251,1000,12,0,1,272.947,2.236,7.495,438.041,-1.994,1.350
1782115675.993197,0.532000,131252,1000,12,0,1,275.853,-4.920,7.385,438.305,-1.670,1.312
1782115675.994197,0.533000,131253,1000,12,0,1,279.937,-9.310,7.469,438.593,-1.186,1.319
1782115675.995197,0.534000,131254,1000,12,0,1,295.382,-4.708,7.432,437.849,-1.591,1.333
1782115675.996197,0.535000,131255,1000,12,0,1,312.413,5.266,7.376,438.449,-1.319,1.330
1782115675.997197,0.536000,131256,1000,12,0,1,322.309,7.888,7.460,439.434,-0.006,1.323
1782115675.998197,0.537000,131257,1000,12,0,1,328.579,8.865,7.518,438.930,-0.503,1.297
1782115675.999197,0.538000,131258,1000,12,0,1,325.312,5.105,7.414,441.308,1.131,1.306
1782115676.000197,0.539000,131259,1000,12,0,1,319.091,-0.439,7.272,441.284,1.742,1.320
1782115676.001197,0.540000,131260,1000,12,0,1,303.813,-7.507,7.284,440.011,-0.160,1.320
1782115676.002197,0.541000,131261,1000,12,0,1,290.770,-13.474,7.521,439.891,-0.155,1.296
1782115676.003197,0.542000,131262,1000,12,0,1,286.038,-6.990,7.558,439.915,-0.071,1.270
1782115676.004197,0.543000,131263,1000,12,0,1,274.052,-6.081,7.539,438.329,-1.122,1.264
1782115676.005197,0.544000,131264,1000,12,0,1,258.270,-10.889,7.686,437.849,-1.594,1.267
1782115676.006197,0.545000,131265,1000,12,0,1,251.881,-8.049,7.745,438.041,-0.823,1.270
1782115676.007197,0.546000,131266,1000,12,0,1,255.964,2.384,7.657,438.353,-0.274,1.270
1782115676.008197,0.547000,131267,1000,12,0,1,259.279,9.675,7.669,439.050,0.559,1.251
1782115676.009197,0.548000,131268,1000,12,0,1,264.684,12.645,7.838,438.882,0.693,1.249
1782115676.010197,0.549000,131269,1000,12,0,1,265.741,10.788,7.985,439.987,1.269,1.257
1782115676.011197,0.550000,131270,1000,12,0,1,269.896,5.942,7.977,438.714,0.711,1.261
1782115676.012197,0.551000,131271,1000,12,0,1,271.626,0.902,7.749,438.137,-0.646,1.262
1782115676.013197,0.552000,131272,1000,12,0,1,275.301,-6.112,7.647,439.578,0.888,1.264
1782115676.014197,0.553000,131273,1000,12,0,1,280.537,-8.806,7.695,439.434,0.746,1.261
1782115676.015197,0.554000,131274,1000,12,0,1,294.638,-5.205,7.650,439.578,0.368,1.262
1782115676.016197,0.555000,131275,1000,12,0,1,309.843,3.117,7.610,439.674,0.492,1.264
1782115676.017197,0.556000,131276,1000,12,0,1,322.526,8.208,7.688,439.146,-0.292,1.260
1782115676.018197,0.557000,131277,1000,12,0,1,326.273,8.433,7.664,439.722,0.022,1.249
1782115676.019197,0.558000,131278,1000,12,0,1,322.381,3.061,7.503,440.563,0.748,1.253
1782115676.020197,0.559000,131279,1000,12,0,1,316.184,-1.034,7.421,440.467,0.590,1.253
1782115676.021197,0.560000,131280,1000,12,0,1,302.372,-7.179,7.469,439.722,-0.212,1.225
1782115676.022197,0.561000,131281,1000,12,0,1,288.416,-12.916,7.688,438.377,-1.293,1.231
1782115676.023197,0.562000,131282,1000,12,0,1,281.522,-8.657,7.748,438.113,-1.512,1.213
1782115676.024197,0.563000,131283,1000,12,0,1,273.091,-4.975,7.688,439.146,-0.217,1.213
1782115676.025197,0.564000,131284,1000,12,0,1,255.292,-9.898,7.783,438.521,-0.260,1.202
1782115676.026197,0.565000,131285,1000,12,0,1,248.110,-9.577,7.880,437.513,-1.163,1.213
1782115676.027197,0.566000,131286,1000,12,0,1,251.184,1.526,7.787,438.762,0.086,1.208
1782115676.028197,0.567000,131287,1000,12,0,1,255.364,8.503,7.816,438.666,0.600,1.201
1782115676.029197,0.568000,131288,1000,12,0,1,257.934,10.660,7.954,440.299,1.442,1.213
1782115676.030197,0.569000,131289,1000,12,0,1,260.216,8.512,8.043,440.203,1.969,1.236
1782115676.031197,0.570000,131290,1000,12,0,1,263.219,4.769,8.002,438.882,0.060,1.211
1782115676.032197,0.571000,131291,1000,12,0,1,267.975,0.972,7.775,439.602,0.501,1.211
1782115676.033197,0.572000,131292,1000,12,0,1,270.809,-4.725,7.683,439.410,0.479,1.207
1782115676.034197,0.573000,131293,1000,12,0,1,273.451,-10.768,7.822,439.746,0.181,1.153
1782115676.035197,0.574000,131294,1000,12,0,1,287.840,-6.352,7.844,438.786,-0.325,1.153
1782115676.036197,0.575000,131295,1000,12,0,1,304.678,3.973,7.837,438.690,-1.091,1.160
1782115676.037197,0.576000,131296,1000,12,0,1,317.505,9.481,7.922,440.875,0.969,1.103
1782115676.038197,0.577000,131297,1000,12,0,1,320.820,9.603,7.896,440.803,1.041,1.052
1782115676.039197,0.578000,131298,1000,12,0,1,316.448,3.700,7.662,438.257,-1.476,1.029
1782115676.040197,0.579000,131299,1000,12,0,1,310.011,-0.172,7.468,438.834,-1.388,1.005
1782115676.041197,0.580000,131300,1000,12,0,1,296.487,-6.210,7.447,439.410,-0.147,0.974
1782115676.042197,0.581000,131301,1000,12,0,1,284.813,-9.832,7.570,439.362,-0.343,0.933
1782115676.043197,0.582000,131302,1000,12,0,1,280.561,-3.519,7.554,439.050,-0.306,0.904
1782115676.044197,0.583000,131303,1000,12,0,1,269.824,-1.783,7.443,440.155,0.508,0.891
1782115676.045197,0.584000,131304,1000,12,0,1,255.172,-6.097,7.463,438.906,0.070,0.862
1782115676.046197,0.585000,131305,1000,12,0,1,250.223,-3.007,7.438,439.602,-0.004,0.842
1782115676.047197,0.586000,131306,1000,12,0,1,250.536,4.121,7.377,436.960,-1.112,0.857
1782115676.048197,0.587000,131307,1000,12,0,1,253.034,8.678,7.372,436.408,-2.516,0.925
1782115676.049197,0.588000,131308,1000,12,0,1,255.604,10.486,7.485,438.353,0.189,0.911
1782115676.050197,0.589000,131309,1000,12,0,1,257.550,7.870,7.567,438.449,0.496,0.880
1782115676.051197,0.590000,131310,1000,12,0,1,259.495,3.205,7.506,438.786,0.485,0.882
1782115676.052197,0.591000,131311,1000,12,0,1,263.843,-1.141,7.262,436.648,-0.818,0.890
1782115676.053197,0.592000,131312,1000,12,0,1,269.392,-4.453,7.222,437.945,-0.761,0.896
1782115676.054197,0.593000,131313,1000,12,0,1,276.382,-6.748,7.234,440.083,2.078,0.930
1782115676.055197,0.594000,131314,1000,12,0,1,291.755,-1.590,7.071,440.203,1.513,0.927
1782115676.056197,0.595000,131315,1000,12,0,1,305.495,5.106,7.016,438.329,-0.087,0.920
1782115676.057197,0.596000,131316,1000,12,0,1,317.625,8.987,7.123,439.843,0.256,0.920
1782115676.058197,0.597000,131317,1000,12,0,1,321.301,9.617,7.121,440.491,1.535,0.942
1782115676.059197,0.598000,131318,1000,12,0,1,318.971,4.914,6.928,439.722,0.191,0.937
1782115676.060197,0.599000,131319,1000,12,0,1,310.395,-0.188,6.758,438.521,-0.757,0.926
1782115676.061197,0.600000,131320,1000,12,0,1,296.439,-7.929,6.798,440.803,0.735,0.926
1782115676.062197,0.601000,131321,1000,12,0,1,282.795,-12.160,7.011,440.947,1.652,0.951
1782115676.063197,0.602000,131322,1000,12,0,1,274.292,-9.796,7.094,438.930,-0.612,0.946
1782115676.064197,0.603000,131323,1000,12,0,1,266.750,-5.387,7.026,438.473,-1.060,0.952
1782115676.065197,0.604000,131324,1000,12,0,1,250.848,-8.465,7.089,439.698,0.304,0.952
1782115676.066197,0.605000,131325,1000,12,0,1,243.594,-8.378,7.174,441.212,1.681,0.979
1782115676.067197,0.606000,131326,1000,12,0,1,246.404,1.962,7.085,439.554,0.638,0.982
1782115676.068197,0.607000,131327,1000,12,0,1,253.298,10.559,7.141,439.218,-0.516,0.985
1782115676.069197,0.608000,131328,1000,12,0,1,256.325,13.284,7.372,438.906,-0.085,0.979
1782115676.070197,0.609000,131329,1000,12,0,1,258.919,9.984,7.504,438.738,-0.700,0.981
1782115676.071197,0.610000,131330,1000,12,0,1,263.170,7.036,7.501,440.515,0.958,0.989
1782115676.072197,0.611000,131331,1000,12,0,1,264.035,-0.307,7.276,439.170,0.107,0.972
1782115676.073197,0.612000,131332,1000,12,0,1,266.557,-7.621,7.253,437.873,-1.761,0.981
1782115676.074197,0.613000,131333,1000,12,0,1,276.094,-7.415,7.294,437.777,-1.493,1.003
1782115676.075197,0.614000,131334,1000,12,0,1,292.163,-0.968,7.160,438.089,-1.295,1.019
1782115676.076197,0.615000,131335,1000,12,0,1,305.255,4.854,7.064,439.891,0.321,1.006
1782115676.077197,0.616000,131336,1000,12,0,1,315.776,7.669,7.144,439.843,0.556,1.009
1782115676.078197,0.617000,131337,1000,12,0,1,316.905,6.273,7.097,441.932,1.511,1.028
1782115676.079197,0.618000,131338,1000,12,0,1,313.566,1.126,6.937,439.963,0.656,1.012
1782115676.080197,0.619000,131339,1000,12,0,1,306.528,-1.925,6.837,437.969,-2.301,1.026
1782115676.081197,0.620000,131340,1000,12,0,1,292.067,-9.043,6.923,440.515,0.260,1.027
1782115676.082197,0.621000,131341,1000,12,0,1,282.891,-10.085,7.067,441.884,1.925,1.060
1782115676.083197,0.622000,131342,1000,12,0,1,275.733,-5.169,7.073,440.635,0.607,1.061
1782115676.084197,0.623000,131343,1000,12,0,1,267.158,-3.127,6.922,440.611,0.297,1.062
1782115676.085197,0.624000,131344,1000,12,0,1,248.158,-8.674,6.972,439.770,-0.113,1.061
1782115676.086197,0.625000,131345,1000,12,0,1,242.297,-8.672,7.057,438.593,-1.209,1.063
1782115676.087197,0.626000,131346,1000,12,0,1,244.338,2.197,6.935,440.011,0.007,1.054
1782115676.088197,0.627000,131347,1000,12,0,1,248.037,7.306,6.879,439.770,0.520,1.047
1782115676.089197,0.628000,131348,1000,12,0,1,250.536,9.705,6.995,436.720,-2.280,1.075
1782115676.090197,0.629000,131349,1000,12,0,1,252.818,7.038,7.065,437.272,-2.004,1.094
1782115676.091197,0.630000,131350,1000,12,0,1,257.454,4.505,7.039,437.873,-0.566,1.097
1782115676.092197,0.631000,131351,1000,12,0,1,261.129,0.228,6.901,438.593,-0.207,1.096
1782115676.093197,0.632000,131352,1000,12,0,1,260.961,-8.537,6.988,438.281,-0.038,1.096
1782115676.094197,0.633000,131353,1000,12,0,1,268.551,-10.638,7.143,438.209,-0.530,1.096
1782115676.095197,0.634000,131354,1000,12,0,1,285.053,-2.836,7.103,435.711,-2.136,1.137
1782115676.096197,0.635000,131355,1000,12,0,1,298.241,3.707,7.109,437.248,-1.635,1.160
1782115676.097197,0.636000,131356,1000,12,0,1,308.882,7.103,7.156,439.578,1.434,1.167
1782115676.098197,0.637000,131357,1000,12,0,1,313.302,8.703,7.157,439.170,0.813,1.117
1782115676.099197,0.638000,131358,1000,12,0,1,310.635,4.893,7.036,439.939,1.006,1.126
1782115676.100197,0.639000,131359,1000,12,0,1,301.099,-0.781,6.948,438.209,0.038,1.124
1782115676.101197,0.640000,131360,1000,12,0,1,287.479,-7.748,7.019,437.561,-1.355,1.138
1782115676.102197,0.641000,131361,1000,12,0,1,274.893,-10.554,7.174,439.170,0.698,1.136
1782115676.103197,0.642000,131362,1000,12,0,1,268.503,-6.440,7.204,438.882,0.643,1.135
1782115676.104197,0.643000,131363,1000,12,0,1,260.937,-1.758,7.145,442.365,3.036,1.177
1782115676.105197,0.644000,131364,1000,12,0,1,244.891,-5.951,7.191,440.707,2.750,1.221
1782115676.106197,0.645000,131365,1000,12,0,1,239.390,-4.676,7.185,439.098,-0.260,1.222
1782115676.107197,0.646000,131366,1000,12,0,1,242.441,5.432,7.113,438.666,0.163,1.221
1782115676.108197,0.647000,131367,1000,12,0,1,244.627,9.627,7.114,439.338,0.273,1.203
1782115676.109197,0.648000,131368,1000,12,0,1,248.158,11.337,7.259,437.633,-0.446,1.204
1782115676.110197,0.649000,131369,1000,12,0,1,252.121,10.399,7.406,436.936,-1.637,1.221
1782115676.111197,0.650000,131370,1000,12,0,1,258.198,8.200,7.412,436.960,-0.999,1.225
1782115676.112197,0.651000,131371,1000,12,0,1,259.832,1.924,7.215,439.434,0.861,1.209
1782115676.113197,0.652000,131372,1000,12,0,1,263.170,-5.517,7.124,438.762,0.955,1.213
1782115676.114197,0.653000,131373,1000,12,0,1,270.545,-6.903,7.150,440.923,1.525,1.223
1782115676.115197,0.654000,131374,1000,12,0,1,285.990,-1.857,7.054,442.413,3.319,1.309
1782115676.116197,0.655000,131375,1000,12,0,1,301.411,6.310,7.011,441.188,1.342,1.301
1782115676.117197,0.656000,131376,1000,12,0,1,310.323,8.395,7.105,440.107,-0.239,1.299
1782115676.118197,0.657000,131377,1000,12,0,1,312.581,6.844,7.013,438.786,-1.411,1.312
1782115676.119197,0.658000,131378,1000,12,0,1,309.122,2.854,6.769,439.050,-1.646,1.332
1782115676.120197,0.659000,131379,1000,12,0,1,300.403,-2.504,6.630,439.314,-0.774,1.333
1782115676.121197,0.660000,131380,1000,12,0,1,285.822,-9.376,6.687,439.626,-0.798,1.331
1782115676.122197,0.661000,131381,1000,12,0,1,275.493,-11.195,6.872,439.602,-0.316,1.332
1782115676.123197,0.662000,131382,1000,12,0,1,268.503,-6.300,6.845,437.392,-2.088,1.341
1782115676.124197,0.663000,131383,1000,12,0,1,260.360,-3.401,6.782,439.722,-0.427,1.326
1782115676.125197,0.664000,131384,1000,12,0,1,244.362,-6.961,6.851,438.834,0.304,1.314
1782115676.126197,0.665000,131385,1000,12,0,1,239.006,-5.984,6.869,437.513,-1.692,1.335
1782115676.127197,0.666000,131386,1000,12,0,1,241.672,3.953,6.806,438.065,-0.433,1.334
1782115676.128197,0.667000,131387,1000,12,0,1,246.284,9.728,6.887,438.641,0.187,1.317
1782115676.129197,0.668000,131388,1000,12,0,1,250.992,12.795,7.119,436.840,-0.885,1.319
1782115676.130197,0.669000,131389,1000,12,0,1,253.874,10.353,7.263,437.224,-0.977,1.286
1782115676.131197,0.670000,131390,1000,12,0,1,257.670,5.893,7.198,439.026,1.106,1.295
1782115676.132197,0.671000,131391,1000,12,0,1,257.237,-2.133,7.061,437.681,0.181,1.266
1782115676.133197,0.672000,131392,1000,12,0,1,260.288,-9.604,7.154,441.236,2.014,1.295
1782115676.134197,0.673000,131393,1000,12,0,1,270.329,-8.096,7.231,440.131,2.446,1.340
1782115676.135197,0.674000,131394,1000,12,0,1,287.239,-1.104,7.128,439.074,-0.544,1.342
1782115676.136197,0.675000,131395,1000,12,0,1,301.796,6.392,7.080,439.650,0.636,1.334
1782115676.137197,0.676000,131396,1000,12,0,1,310.299,7.933,7.161,437.513,-1.542,1.352
1782115676.138197,0.677000,131397,1000,12,0,1,311.692,6.089,7.138,437.320,-2.060,1.381
1782115676.139197,0.678000,131398,1000,12,0,1,308.041,1.828,7.010,439.722,0.421,1.344
1782115676.140197,0.679000,131399,1000,12,0,1,298.649,-3.466,6.956,441.068,1.710,1.336
1782115676.141197,0.680000,131400,1000,12,0,1,285.486,-9.386,7.053,440.371,1.088,1.342
1782115676.142197,0.681000,131401,1000,12,0,1,273.091,-11.880,7.250,439.050,-0.416,1.343
1782115676.143197,0.682000,131402,1000,12,0,1,266.942,-7.349,7.224,438.738,-0.590,1.346
1782115676.144197,0.683000,131403,1000,12,0,1,256.036,-5.131,7.103,438.690,-0.428,1.345
1782115676.145197,0.684000,131404,1000,12,0,1,239.678,-10.240,7.238,439.050,0.082,1.311
1782115676.146197,0.685000,131405,1000,12,0,1,236.892,-5.779,7.265,438.858,0.179,1.291
1782115676.147197,0.686000,131406,1000,12,0,1,239.991,4.675,7.226,437.993,-0.461,1.276
1782115676.148197,0.687000,131407,1000,12,0,1,241.624,7.975,7.209,438.617,0.010,1.271
1782115676.149197,0.688000,131408,1000,12,0,1,244.098,9.004,7.288,437.152,-0.612,1.266
1782115676.150197,0.689000,131409,1000,12,0,1,248.206,7.912,7.372,437.368,-1.025,1.274
1782115676.151197,0.690000,131410,1000,12,0,1,250.872,3.854,7.311,437.080,-0.428,1.261
1782115676.152197,0.691000,131411,1000,12,0,1,253.178,-2.581,7.166,437.320,-0.706,1.261
1782115676.153197,0.692000,131412,1000,12,0,1,258.174,-6.734,7.171,435.086,-1.852,1.285
1782115676.154197,0.693000,131413,1000,12,0,1,266.774,-7.124,7.238,439.242,0.476,1.213
1782115676.155197,0.694000,131414,1000,12,0,1,282.915,-0.722,7.189,439.122,2.209,1.191
1782115676.156197,0.695000,131415,1000,12,0,1,298.577,7.676,7.241,440.035,0.931,1.197
1782115676.157197,0.696000,131416,1000,12,0,1,309.530,11.446,7.379,437.921,0.327,1.198
1782115676.158197,0.697000,131417,1000,12,0,1,310.011,9.133,7.367,437.921,-1.275,1.211
1782115676.159197,0.698000,131418,1000,12,0,1,308.882,5.666,7.235,437.272,-0.684,1.213
1782115676.160197,0.699000,131419,1000,12,0,1,300.955,2.340,7.092,436.960,-1.480,1.209
1782115676.161197,0.700000,131420,1000,12,0,1,287.239,-5.452,7.038,438.449,0.168,1.201
1782115676.162197,0.701000,131421,1000,12,0,1,276.550,-7.184,7.106,436.408,-0.749,1.200
1782115676.163197,0.702000,131422,1000,12,0,1,269.200,-3.942,7.085,436.167,-1.773,1.218
1782115676.164197,0.703000,131423,1000,12,0,1,259.087,-2.673,7.028,437.921,0.934,1.206
1782115676.165197,0.704000,131424,1000,12,0,1,243.425,-7.040,7.093,438.473,1.271,1.126
1782115676.166197,0.705000,131425,1000,12,0,1,239.006,-5.032,7.073,439.098,2.027,1.146
1782115676.167197,0.706000,131426,1000,12,0,1,242.513,5.028,7.008,438.978,1.753,1.172
1782115676.168197,0.707000,131427,1000,12,0,1,248.398,11.362,7.125,439.338,1.816,1.183
1782115676.169197,0.708000,131428,1000,12,0,1,253.947,14.707,7.411,437.897,0.670,1.164
1782115676.170197,0.709000,131429,1000,12,0,1,253.947,9.316,7.519,437.897,0.002,1.159
1782115676.171197,0.710000,131430,1000,12,0,1,256.373,2.809,7.412,439.362,1.473,1.172
1782115676.172197,0.711000,131431,1000,12,0,1,258.126,-3.291,7.256,439.122,1.130,1.182
1782115676.173197,0.712000,131432,1000,12,0,1,261.105,-10.214,7.344,437.513,-0.614,1.148
1782115676.174197,0.713000,131433,1000,12,0,1,270.016,-10.183,7.469,439.242,0.270,1.147
1782115676.175197,0.714000,131434,1000,12,0,1,288.224,-1.907,7.408,440.611,1.824,1.174
1782115676.176197,0.715000,131435,1000,12,0,1,301.483,5.107,7.395,438.305,-0.512,1.152
1782115676.177197,0.716000,131436,1000,12,0,1,313.614,8.864,7.480,439.915,-0.131,1.151
1782115676.178197,0.717000,131437,1000,12,0,1,314.262,8.035,7.440,440.323,1.077,1.160
1782115676.179197,0.718000,131438,1000,12,0,1,307.609,-0.148,7.216,439.530,-0.507,1.156
1782115676.180197,0.719000,131439,1000,12,0,1,296.823,-6.007,7.117,439.674,-0.212,1.148
1782115676.181197,0.720000,131440,1000,12,0,1,283.204,-12.082,7.272,439.410,-0.496,1.139
1782115676.182197,0.721000,131441,1000,12,0,1,273.523,-12.004,7.461,437.921,-1.591,1.161
1782115676.183197,0.722000,131442,1000,12,0,1,266.894,-6.808,7.399,436.408,-2.752,1.191
1782115676.184197,0.723000,131443,1000,12,0,1,254.187,-6.932,7.376,438.641,-0.769,1.145
1782115676.185197,0.724000,131444,1000,12,0,1,239.991,-10.063,7.510,439.170,0.811,1.148
1782115676.186197,0.725000,131445,1000,12,0,1,237.661,-4.814,7.486,437.561,-0.916,1.152
1782115676.187197,0.726000,131446,1000,12,0,1,240.759,4.992,7.435,437.032,-1.146,1.142
1782115676.188197,0.727000,131447,1000,12,0,1,245.707,10.656,7.538,437.488,-0.547,1.107
1782115676.189197,0.728000,131448,1000,12,0,1,249.070,12.515,7.738,437.488,-0.203,1.106
1782115676.190197,0.729000,131449,1000,12,0,1,252.193,9.356,7.835,439.194,1.022,1.089
1782115676.191197,0.730000,131450,1000,12,0,1,253.346,3.614,7.739,439.794,1.877,1.110
1782115676.192197,0.731000,131451,1000,12,0,1,256.084,-3.187,7.568,440.251,1.571,1.131
1782115676.193197,0.732000,131452,1000,12,0,1,259.495,-8.142,7.584,439.002,0.543,1.130
1782115676.194197,0.733000,131453,1000,12,0,1,268.503,-8.924,7.654,437.969,-1.042,1.138
1782115676.195197,0.734000,131454,1000,12,0,1,283.204,-2.591,7.525,438.401,-0.645,1.142
1782115676.196197,0.735000,131455,1000,12,0,1,298.673,5.130,7.515,439.506,0.279,1.142
1782115676.197197,0.736000,131456,1000,12,0,1,308.089,8.913,7.591,440.635,1.126,1.151
1782115676.198197,0.737000,131457,1000,12,0,1,308.570,6.435,7.562,438.690,-0.357,1.153
1782115676.199197,0.738000,131458,1000,12,0,1,302.132,0.332,7.454,436.720,-2.641,1.208
1782115676.200197,0.739000,131459,1000,12,0,1,293.653,-4.135,7.393,438.329,-0.997,1.208
1782115676.201197,0.740000,131460,1000,12,0,1,277.751,-10.831,7.530,439.410,0.546,1.209
1782115676.202197,0.741000,131461,1000,12,0,1,266.461,-13.108,7.747,439.002,0.192,1.205
1782115676.203197,0.742000,131462,1000,12,0,1,258.799,-7.936,7.769,437.416,-0.982,1.184
1782115676.204197,0.743000,131463,1000,12,0,1,246.788,-7.415,7.775,436.624,-1.667,1.206
1782115676.205197,0.744000,131464,1000,12,0,1,232.952,-9.685,7.894,438.882,0.502,1.167
1782115676.206197,0.745000,131465,1000,12,0,1,229.397,-5.166,7.853,439.891,2.011,1.194
1782115676.207197,0.746000,131466,1000,12,0,1,233.817,5.258,7.720,440.011,1.656,1.216
1782115676.208197,0.747000,131467,1000,12,0,1,236.892,10.586,7.757,439.386,1.162,1.213
1782115676.209197,0.748000,131468,1000,12,0,1,240.999,11.756,7.893,439.242,0.544,1.212
1782115676.210197,0.749000,131469,1000,12,0,1,242.224,8.773,7.983,439.362,0.679,1.198
1782115676.211197,0.750000,131470,1000,12,0,1,246.788,4.261,7.968,437.849,-0.686,1.201
1782115676.212197,0.751000,131471,1000,12,0,1,250.079,0.121,7.903,438.569,-0.605,1.200
1782115676.213197,0.752000,131472,1000,12,0,1,253.802,-6.314,7.934,439.674,0.788,1.178
1782115676.214197,0.753000,131473,1000,12,0,1,264.924,-4.725,7.953,440.275,0.852,1.177
1782115676.215197,0.754000,131474,1000,12,0,1,283.156,3.810,7.909,439.867,0.495,1.166
1782115676.216197,0.755000,131475,1000,12,0,1,294.373,8.320,7.964,437.921,-1.468,1.149
1782115676.217197,0.756000,131476,1000,12,0,1,302.612,8.986,8.034,439.554,-0.569,1.124
1782115676.218197,0.757000,131477,1000,12,0,1,304.030,8.210,7.956,440.083,0.692,1.099
1782115676.219197,0.758000,131478,1000,12,0,1,302.276,5.215,7.715,438.641,-1.027,1.105
1782115676.220197,0.759000,131479,1000,12,0,1,291.299,-0.371,7.602,440.443,0.322,1.105
1782115676.221197,0.760000,131480,1000,12,0,1,274.965,-9.738,7.716,440.395,0.946,1.094
1782115676.222197,0.761000,131481,1000,12,0,1,264.780,-10.436,7.842,438.834,-0.889,1.089
1782115676.223197,0.762000,131482,1000,12,0,1,259.832,-4.023,7.728,440.011,0.101,1.086
1782115676.224197,0.763000,131483,1000,12,0,1,248.158,-3.318,7.608,440.731,1.149,1.097
1782115676.225197,0.764000,131484,1000,12,0,1,230.791,-9.507,7.721,438.473,-0.758,1.072
1782115676.226197,0.765000,131485,1000,12,0,1,226.035,-7.291,7.756,436.263,-2.798,1.140
1782115676.227197,0.766000,131486,1000,12,0,1,229.662,3.093,7.666,438.233,-1.016,1.149
1782115676.228197,0.767000,131487,1000,12,0,1,234.538,9.016,7.688,438.714,0.413,1.141
1782115676.229197,0.768000,131488,1000,12,0,1,238.165,10.920,7.842,440.131,0.962,1.147
1782115676.230197,0.769000,131489,1000,12,0,1,240.855,7.755,7.872,438.762,0.565,1.149
1782115676.231197,0.770000,131490,1000,12,0,1,241.480,1.426,7.687,437.705,-1.330,1.162
1782115676.232197,0.771000,131491,1000,12,0,1,243.666,-5.420,7.536,437.849,-0.722,1.145
1782115676.233197,0.772000,131492,1000,12,0,1,249.431,-8.458,7.570,440.563,1.180,1.089
1782115676.234197,0.773000,131493,1000,12,0,1,261.057,-6.286,7.559,440.107,1.426,1.103
1782115676.235197,0.774000,131494,1000,12,0,1,277.223,1.000,7.425,440.203,0.376,1.098
1782115676.236197,0.775000,131495,1000,12,0,1,289.761,6.415,7.449,439.482,0.157,1.090
1782115676.237197,0.776000,131496,1000,12,0,1,298.697,8.736,7.518,439.506,-0.475,1.080
1782115676.238197,0.777000,131497,1000,12,0,1,298.721,6.878,7.429,437.921,-1.329,1.094
1782115676.239197,0.778000,131498,1000,12,0,1,297.568,4.306,7.241,438.762,-1.143,1.105
1782115676.240197,0.779000,131499,1000,12,0,1,287.744,0.467,7.119,441.572,1.791,1.125
1782115676.241197,0.780000,131500,1000,12,0,1,272.010,-8.581,7.204,441.812,2.202,1.136
1782115676.242197,0.781000,131501,1000,12,0,1,261.873,-8.993,7.301,440.996,0.872,1.121
1782115676.243197,0.782000,131502,1000,12,0,1,255.916,-3.726,7.229,439.554,-0.186,1.119
1782115676.244197,0.783000,131503,1000,12,0,1,242.345,-4.524,7.147,442.100,1.202,1.122
1782115676.245197,0.784000,131504,1000,12,0,1,229.157,-7.918,7.225,440.996,1.509,1.139
1782115676.246197,0.785000,131505,1000,12,0,1,231.511,0.927,7.189,438.666,-1.720,1.164
1782115676.247197,0.786000,131506,1000,12,0,1,233.145,9.306,7.199,438.521,-1.313,1.168
1782115676.248197,0.787000,131507,1000,12,0,1,236.748,11.514,7.325,439.674,-0.321,1.167
1782115676.249197,0.788000,131508,1000,12,0,1,242.248,14.751,7.616,438.329,-0.865,1.113
1782115676.250197,0.789000,131509,1000,12,0,1,243.185,9.404,7.709,437.392,-2.075,1.142
1782115676.251197,0.790000,131510,1000,12,0,1,247.029,4.084,7.577,439.602,-0.013,1.140
1782115676.252197,0.791000,131511,1000,12,0,1,249.263,-1.983,7.352,440.755,1.448,1.157
1782115676.253197,0.792000,131512,1000,12,0,1,251.953,-9.419,7.387,439.458,-0.069,1.149
1782115676.254197,0.793000,131513,1000,12,0,1,262.258,-8.563,7.412,439.770,-0.203,1.125
1782115676.255197,0.794000,131514,1000,12,0,1,277.391,-2.148,7.291,441.068,0.893,1.130
1782115676.256197,0.795000,131515,1000,12,0,1,292.572,5.294,7.293,441.644,1.254,1.108
1782115676.257197,0.796000,131516,1000,12,0,1,303.045,9.810,7.386,440.155,-0.221,1.083
1782115676.258197,0.797000,131517,1000,12,0,1,305.135,8.734,7.338,440.011,-0.853,1.077
1782115676.259197,0.798000,131518,1000,12,0,1,297.640,1.895,7.152,441.692,0.728,1.080
1782115676.260197,0.799000,131519,1000,12,0,1,287.023,-5.011,7.079,442.437,1.463,1.095
1782115676.261197,0.800000,131520,1000,12,0,1,274.268,-9.397,7.177,438.401,-1.802,1.120
1782115676.262197,0.801000,131521,1000,12,0,1,263.002,-10.856,7.340,437.152,-3.595,1.227
1782115676.263197,0.802000,131522,1000,12,0,1,257.285,-5.658,7.329,438.858,-1.087,1.232
1782115676.264197,0.803000,131523,1000,12,0,1,244.386,-5.332,7.337,441.116,1.120,1.236
1782115676.265197,0.804000,131524,1000,12,0,1,231.703,-8.688,7.420,440.803,1.361,1.249
1782115676.266197,0.805000,131525,1000,12,0,1,232.136,-0.931,7.327,440.035,0.245,1.232
1782115676.267197,0.806000,131526,1000,12,0,1,234.538,7.138,7.286,439.530,-0.037,1.229
1782115676.268197,0.807000,131527,1000,12,0,1,237.348,9.930,7.329,438.353,-0.957,1.233
1782115676.269197,0.808000,131528,1000,12,0,1,240.735,10.755,7.449,440.083,0.185,1.225
1782115676.270197,0.809000,131529,1000,12,0,1,243.089,7.037,7.515,439.915,0.865,1.230
1782115676.271197,0.810000,131530,1000,12,0,1,245.515,1.575,7.391,440.899,0.680,1.226
1782115676.272197,0.811000,131531,1000,12,0,1,249.046,-3.981,7.264,439.506,0.274,1.221
1782115676.273197,0.812000,131532,1000,12,0,1,252.697,-9.170,7.357,441.188,0.292,1.221
1782115676.274197,0.813000,131533,1000,12,0,1,260.048,-10.901,7.502,440.635,0.941,1.218
1782115676.275197,0.814000,131534,1000,12,0,1,276.886,-3.261,7.395,438.113,-2.254,1.254
1782115676.276197,0.815000,131535,1000,12,0,1,291.395,5.158,7.359,440.035,-0.732,1.195
1782115676.277197,0.816000,131536,1000,12,0,1,299.586,7.264,7.417,438.449,-1.005,1.194
1782115676.278197,0.817000,131537,1000,12,0,1,301.339,6.684,7.368,438.209,-2.278,1.236
1782115676.279197,0.818000,131538,1000,12,0,1,297.496,3.112,7.217,440.371,0.602,1.231
1782115676.280197,0.819000,131539,1000,12,0,1,288.416,-1.416,7.136,440.011,0.326,1.229
1782115676.281197,0.820000,131540,1000,12,0,1,273.547,-8.099,7.225,439.290,-0.343,1.216
1782115676.282197,0.821000,131541,1000,12,0,1,261.561,-10.623,7.340,439.434,-0.136,1.212
1782115676.283197,0.822000,131542,1000,12,0,1,253.682,-6.707,7.303,440.011,0.543,1.203
1782115676.284197,0.823000,131543,1000,12,0,1,240.711,-7.003,7.316,440.011,0.732,1.190
1782115676.285197,0.824000,131544,1000,12,0,1,227.308,-9.815,7.446,440.395,0.916,1.196
1782115676.286197,0.825000,131545,1000,12,0,1,228.533,-1.868,7.395,440.683,1.303,1.210
1782115676.287197,0.826000,131546,1000,12,0,1,232.568,8.428,7.388,439.963,0.567,1.211
1782115676.288197,0.827000,131547,1000,12,0,1,236.339,11.807,7.511,439.314,-0.138,1.196
1782115676.289197,0.828000,131548,1000,12,0,1,240.399,13.105,7.713,437.224,-1.681,1.209
1782115676.290197,0.829000,131549,1000,12,0,1,245.683,11.255,7.875,439.410,-0.406,1.183
1782115676.291197,0.830000,131550,1000,12,0,1,246.908,5.012,7.813,439.915,1.179,1.154
1782115676.292197,0.831000,131551,1000,12,0,1,247.245,-4.441,7.734,439.242,-0.261,1.148
1782115676.293197,0.832000,131552,1000,12,0,1,249.503,-10.915,7.869,438.185,-0.832,1.153
1782115676.294197,0.833000,131553,1000,12,0,1,261.153,-9.220,7.951,439.314,-0.401,1.142
1782115676.295197,0.834000,131554,1000,12,0,1,278.640,0.086,7.872,439.314,0.214,1.123
1782115676.296197,0.835000,131555,1000,12,0,1,294.469,8.179,7.955,440.155,0.304,1.097
1782115676.297197,0.836000,131556,1000,12,0,1,301.892,10.164,7.976,440.923,1.232,1.095
1782115676.298197,0.837000,131557,1000,12,0,1,301.435,6.646,7.864,440.707,0.750,1.099
1782115676.299197,0.838000,131558,1000,12,0,1,299.298,4.138,7.605,439.891,-0.134,1.092
1782115676.300197,0.839000,131559,1000,12,0,1,289.113,-0.581,7.488,439.050,-0.844,1.059
1782115676.301197,0.840000,131560,1000,12,0,1,275.421,-7.640,7.544,439.434,-0.614,1.062
1782115676.302197,0.841000,131561,1000,12,0,1,266.389,-6.974,7.603,439.987,0.318,1.044
1782115676.303197,0.842000,131562,1000,12,0,1,259.808,-2.858,7.496,439.650,0.013,1.043
1782115676.304197,0.843000,131563,1000,12,0,1,244.867,-5.174,7.434,438.954,-0.397,1.045
1782115676.305197,0.844000,131564,1000,12,0,1,232.736,-8.545,7.525,435.975,-2.588,1.100
1782115676.306197,0.845000,131565,1000,12,0,1,232.448,-1.276,7.490,436.768,-2.193,1.129
1782115676.307197,0.846000,131566,1000,12,0,1,235.307,6.499,7.418,438.497,0.461,1.130
1782115676.308197,0.847000,131567,1000,12,0,1,240.495,11.295,7.486,440.563,1.977,1.158
1782115676.309197,0.848000,131568,1000,12,0,1,243.185,11.575,7.659,441.404,2.971,1.228
1782115676.310197,0.849000,131569,1000,12,0,1,245.083,6.474,7.681,439.194,0.665,1.214
1782115676.311197,0.850000,131570,1000,12,0,1,249.238,2.480,7.573,439.146,-0.174,1.187
1782115676.312197,0.851000,131571,1000,12,0,1,253.562,-2.558,7.424,439.170,0.298,1.073
1782115676.313197,0.852000,131572,1000,12,0,1,256.877,-8.387,7.476,438.521,-0.722,1.067
1782115676.314197,0.853000,131573,1000,12,0,1,268.023,-7.731,7.518,438.089,-0.937,1.063
1782115676.315197,0.854000,131574,1000,12,0,1,284.573,0.340,7.417,438.233,-0.948,1.054
1782115676.316197,0.855000,131575,1000,12,0,1,298.433,6.488,7.472,437.993,-0.857,1.061
1782115676.317197,0.856000,131576,1000,12,0,1,303.429,6.461,7.460,438.690,-0.424,1.063
1782115676.318197,0.857000,131577,1000,12,0,1,304.486,4.097,7.349,440.155,1.055,1.064
1782115676.319197,0.858000,131578,1000,12,0,1,301.291,2.111,7.196,441.524,2.119,1.105
1782115676.320197,0.859000,131579,1000,12,0,1,290.506,-3.719,7.147,440.395,1.175,1.111
1782115676.321197,0.860000,131580,1000,12,0,1,274.965,-11.035,7.312,440.083,0.254,1.108
1782115676.322197,0.861000,131581,1000,12,0,1,265.404,-11.064,7.456,439.963,0.439,1.109
1782115676.323197,0.862000,131582,1000,12,0,1,258.438,-5.985,7.391,438.834,-0.589,1.111
1782115676.324197,0.863000,131583,1000,12,0,1,241.672,-9.396,7.349,437.032,-1.956,1.137
1782115676.325197,0.864000,131584,1000,12,0,1,228.821,-12.828,7.556,439.530,-0.025,1.092
1782115676.326197,0.865000,131585,1000,12,0,1,231.583,-2.323,7.528,440.731,2.016,1.123
1782115676.327197,0.866000,131586,1000,12,0,1,235.379,7.274,7.528,439.530,0.505,1.117
1782115676.328197,0.867000,131587,1000,12,0,1,238.453,10.224,7.607,439.362,0.156,1.069
1782115676.329197,0.868000,131588,1000,12,0,1,242.008,10.901,7.749,439.290,0.216,1.066
1782115676.330197,0.869000,131589,1000,12,0,1,246.908,8.962,7.850,439.626,0.219,1.066
1782115676.331197,0.870000,131590,1000,12,0,1,250.824,4.865,7.796,439.963,0.618,1.068
1782115676.332197,0.871000,131591,1000,12,0,1,253.730,-1.876,7.655,439.050,-0.373,1.070
1782115676.333197,0.872000,131592,1000,12,0,1,256.973,-7.931,7.678,438.954,-0.711,1.072
1782115676.334197,0.873000,131593,1000,12,0,1,263.963,-10.060,7.746,439.963,0.135,1.067
1782115676.335197,0.874000,131594,1000,12,0,1,282.507,-1.324,7.623,438.521,-0.831,1.065
1782115676.336197,0.875000,131595,1000,12,0,1,297.256,7.805,7.697,439.554,-0.703,1.054
1782115676.337197,0.876000,131596,1000,12,0,1,302.324,6.991,7.669,440.539,0.864,1.058
1782115676.338197,0.877000,131597,1000,12,0,1,303.237,5.416,7.524,440.971,0.682,1.062
1782115676.339197,0.878000,131598,1000,12,0,1,298.361,1.901,7.297,441.068,0.874,1.043
1782115676.340197,0.879000,131599,1000,12,0,1,287.263,-4.134,7.145,439.338,-0.718,1.046
1782115676.341197,0.880000,131600,1000,12,0,1,272.154,-10.492,7.263,439.963,-0.625,1.036
1782115676.342197,0.881000,131601,1000,12,0,1,261.849,-11.011,7.402,441.308,1.121,1.048
1782115676.343197,0.882000,131602,1000,12,0,1,255.027,-5.699,7.283,440.035,0.011,1.041
1782115676.344197,0.883000,131603,1000,12,0,1,239.606,-7.921,7.253,439.122,-0.969,1.049
1782115676.345197,0.884000,131604,1000,12,0,1,226.971,-10.929,7.416,437.993,-1.541,1.070
1782115676.346197,0.885000,131605,1000,12,0,1,226.851,-3.069,7.338,439.578,-0.367,1.071
1782115676.347197,0.886000,131606,1000,12,0,1,233.313,7.912,7.282,440.155,0.969,1.065
1782115676.348197,0.887000,131607,1000,12,0,1,239.198,14.185,7.495,441.380,1.380,1.078
1782115676.349197,0.888000,131608,1000,12,0,1,244.266,15.114,7.771,440.755,1.308,1.094
1782115676.350197,0.889000,131609,1000,12,0,1,246.716,11.047,7.927,441.092,0.651,1.091
1782115676.351197,0.890000,131610,1000,12,0,1,249.407,4.484,7.878,439.674,-0.083,1.088
1782115676.352197,0.891000,131611,1000,12,0,1,252.073,-2.078,7.822,440.203,-0.576,1.090
1782115676.353197,0.892000,131612,1000,12,0,1,253.754,-9.512,7.926,439.987,-0.106,1.090
1782115676.354197,0.893000,131613,1000,12,0,1,266.702,-7.367,7.961,438.738,-1.626,1.112
1782115676.355197,0.894000,131614,1000,12,0,1,284.357,2.594,7.877,439.602,-0.976,1.059
1782115676.356197,0.895000,131615,1000,12,0,1,295.598,6.505,7.929,440.563,0.256,1.014
1782115676.357197,0.896000,131616,1000,12,0,1,303.357,8.315,7.962,439.458,-0.794,1.018
1782115676.358197,0.897000,131617,1000,12,0,1,303.429,6.682,7.858,438.041,-1.978,1.018
1782115676.359197,0.898000,131618,1000,12,0,1,297.568,1.422,7.688,438.954,-1.284,0.945
1782115676.360197,0.899000,131619,1000,12,0,1,287.239,-3.521,7.649,439.218,-0.264,0.941
1782115676.361197,0.900000,131620,1000,12,0,1,273.211,-9.227,7.752,440.131,0.183,0.941
1782115676.362197,0.901000,131621,1000,12,0,1,263.891,-8.896,7.845,439.242,0.151,0.940
1782115676.363197,0.902000,131622,1000,12,0,1,255.508,-5.164,7.789,440.779,0.691,0.940
1782115676.364197,0.903000,131623,1000,12,0,1,241.984,-6.805,7.772,442.076,2.598,1.000
1782115676.365197,0.904000,131624,1000,12,0,1,227.692,-10.423,7.910,440.875,1.108,1.003
1782115676.366197,0.905000,131625,1000,12,0,1,227.500,-4.263,7.880,440.011,0.081,0.996
1782115676.367197,0.906000,131626,1000,12,0,1,232.448,6.422,7.879,440.491,0.458,0.996
1782115676.368197,0.907000,131627,1000,12,0,1,235.018,9.185,7.965,439.290,-0.354,0.986
1782115676.369197,0.908000,131628,1000,12,0,1,236.796,8.011,8.039,439.674,-0.435,0.942
1782115676.370197,0.909000,131629,1000,12,0,1,240.615,5.396,8.058,439.434,-0.133,0.927
1782115676.371197,0.910000,131630,1000,12,0,1,243.353,0.714,7.906,438.810,-0.936,0.936
1782115676.372197,0.911000,131631,1000,12,0,1,246.116,-5.579,7.790,440.371,0.325,0.935
1782115676.373197,0.912000,131632,1000,12,0,1,250.968,-9.598,7.862,439.602,0.189,0.932
1782115676.374197,0.913000,131633,1000,12,0,1,261.393,-8.210,7.835,439.458,-0.728,0.896
1782115676.375197,0.914000,131634,1000,12,0,1,276.070,-1.578,7.626,441.164,1.046,0.908
1782115676.376197,0.915000,131635,1000,12,0,1,290.722,6.112,7.668,440.395,0.404,0.864
1782115676.377197,0.916000,131636,1000,12,0,1,298.241,9.100,7.706,442.052,1.035,0.873
1782115676.378197,0.917000,131637,1000,12,0,1,296.607,5.670,7.612,441.404,1.147,0.888
1782115676.379197,0.918000,131638,1000,12,0,1,289.689,0.224,7.454,439.074,-1.672,0.918
1782115676.380197,0.919000,131639,1000,12,0,1,279.625,-4.230,7.370,440.515,-0.518,0.921
1782115676.381197,0.920000,131640,1000,12,0,1,264.299,-10.065,7.475,441.812,1.149,0.931
1782115676.382197,0.921000,131641,1000,12,0,1,245.515,-16.675,7.833,441.452,0.612,0.933
1782115676.383197,0.922000,131642,1000,12,0,1,245.515,-7.626,7.827,441.452,0.493,0.931
1782115676.384197,0.923000,131643,1000,12,0,1,231.775,-3.808,7.716,440.011,-0.587,0.934
1782115676.385197,0.924000,131644,1000,12,0,1,222.263,-7.547,7.787,440.587,-0.490,0.929
1782115676.386197,0.925000,131645,1000,12,0,1,222.455,2.693,7.718,441.140,0.582,0.928
1782115676.387197,0.926000,131646,1000,12,0,1,223.849,7.269,7.723,441.044,0.250,0.920
1782115676.388197,0.927000,131647,1000,12,0,1,235.307,16.947,8.050,442.197,1.142,0.929
1782115676.389197,0.928000,131648,1000,12,0,1,238.189,18.246,8.449,440.563,0.071,0.921
1782115676.390197,0.929000,131649,1000,12,0,1,240.375,10.469,8.558,440.419,-0.910,0.924
1782115676.391197,0.930000,131650,1000,12,0,1,240.663,4.258,8.450,441.092,0.237,0.921
1782115676.392197,0.931000,131651,1000,12,0,1,245.707,-2.866,8.315,439.915,-0.951,0.917
1782115676.393197,0.932000,131652,1000,12,0,1,261.393,2.493,8.283,439.819,-1.227,0.933
1782115676.394197,0.933000,131653,1000,12,0,1,276.958,7.302,8.272,441.476,0.289,0.924
1782115676.395197,0.934000,131654,1000,12,0,1,290.002,9.714,8.241,440.779,-0.018,0.898
1782115676.396197,0.935000,131655,1000,12,0,1,298.913,10.204,8.356,440.131,-1.088,0.910
1782115676.397197,0.936000,131656,1000,12,0,1,297.712,4.130,8.301,439.915,-1.013,0.911
1782115676.398197,0.937000,131657,1000,12,0,1,291.107,-4.176,8.076,441.596,0.188,0.890
1782115676.399197,0.938000,131658,1000,12,0,1,277.511,-13.396,8.016,440.779,0.130,0.870
1782115676.400197,0.939000,131659,1000,12,0,1,263.555,-20.280,8.369,441.332,-0.195,0.866
1782115676.401197,0.940000,131660,1000,12,0,1,254.955,-18.233,8.734,441.284,0.457,0.868
1782115676.402197,0.941000,131661,1000,12,0,1,246.044,-13.948,8.949,440.731,-0.430,0.867
1782115676.403197,0.942000,131662,1000,12,0,1,233.217,-13.224,9.043,438.714,-1.692,0.899
1782115676.404197,0.943000,131663,1000,12,0,1,221.326,-12.354,9.151,439.074,-1.669,0.901
1782115676.405197,0.944000,131664,1000,12,0,1,223.536,-1.642,9.147,440.851,0.571,0.894
1782115676.406197,0.945000,131665,1000,12,0,1,227.212,10.580,9.222,438.810,-0.640,0.897
1782115676.407197,0.946000,131666,1000,12,0,1,227.980,13.283,9.338,439.915,-0.515,0.893
1782115676.408197,0.947000,131667,1000,12,0,1,232.976,16.524,9.579,438.906,0.042,0.848
1782115676.409197,0.948000,131668,1000,12,0,1,236.075,15.454,9.824,440.371,0.050,0.829
1782115676.410197,0.949000,131669,1000,12,0,1,236.988,8.676,9.887,440.683,1.628,0.859
1782115676.411197,0.950000,131670,1000,12,0,1,239.390,2.215,9.806,439.314,-0.440,0.861
1782115676.412197,0.951000,131671,1000,12,0,1,243.329,-3.455,9.737,440.131,0.293,0.862
1782115676.413197,0.952000,131672,1000,12,0,1,257.742,-0.732,9.710,440.947,1.121,0.871
1782115676.414197,0.953000,131673,1000,12,0,1,274.628,6.569,9.707,440.996,0.847,0.799
1782115676.415197,0.954000,131674,1000,12,0,1,284.909,7.343,9.650,439.530,-0.327,0.785
1782115676.416197,0.955000,131675,1000,12,0,1,293.196,7.152,9.685,439.554,-0.925,0.795
1782115676.417197,0.956000,131676,1000,12,0,1,291.419,2.358,9.648,441.140,0.837,0.801
1782115676.418197,0.957000,131677,1000,12,0,1,283.804,-6.622,9.606,441.404,0.983,0.812
1782115676.419197,0.958000,131678,1000,12,0,1,272.947,-12.602,9.704,441.404,0.760,0.817
1782115676.420197,0.959000,131679,1000,12,0,1,259.952,-17.793,9.995,441.404,0.638,0.821
1782115676.421197,0.960000,131680,1000,12,0,1,253.634,-14.360,10.199,438.834,-1.360,0.833
1782115676.422197,0.961000,131681,1000,12,0,1,244.867,-9.601,10.259,439.746,-1.217,0.850
1782115676.423197,0.962000,131682,1000,12,0,1,228.845,-12.522,10.322,441.500,1.251,0.867
1782115676.424197,0.963000,131683,1000,12,0,1,217.819,-11.898,10.393,441.356,0.938,0.871
1782115676.425197,0.964000,131684,1000,12,0,1,218.852,-1.522,10.393,441.020,0.561,0.862
1782115676.426197,0.965000,131685,1000,12,0,1,221.014,8.297,10.423,440.755,0.300,0.862
1782115676.427197,0.966000,131686,1000,12,0,1,225.962,14.412,10.543,439.410,-0.785,0.856
1782115676.428197,0.967000,131687,1000,12,0,1,228.701,16.697,10.774,437.272,-2.499,0.912
1782115676.429197,0.968000,131688,1000,12,0,1,230.911,13.022,10.930,438.641,-1.481,0.905
1782115676.430197,0.969000,131689,1000,12,0,1,235.162,9.842,11.002,438.641,-0.370,0.904
1782115676.431197,0.970000,131690,1000,12,0,1,236.580,2.771,10.917,439.722,-0.107,0.889
1782115676.432197,0.971000,131691,1000,12,0,1,241.648,-2.927,10.667,441.164,1.736,0.918
1782115676.433197,0.972000,131692,1000,12,0,1,257.694,1.902,10.616,439.074,-0.221,0.916
1782115676.434197,0.973000,131693,1000,12,0,1,273.379,7.796,10.659,439.002,-0.968,0.923
1782115676.435197,0.974000,131694,1000,12,0,1,284.621,9.000,10.682,440.803,0.974,0.930
1782115676.436197,0.975000,131695,1000,12,0,1,290.962,7.861,10.733,441.956,1.749,0.959
1782115676.437197,0.976000,131696,1000,12,0,1,288.680,1.835,10.687,441.452,1.236,0.974
1782115676.438197,0.977000,131697,1000,12,0,1,285.870,-2.678,10.421,439.915,-0.519,0.964
1782115676.439197,0.978000,131698,1000,12,0,1,275.133,-7.892,10.158,440.515,-0.278,0.964
1782115676.440197,0.979000,131699,1000,12,0,1,258.534,-17.298,10.343,440.323,0.012,0.956
1782115676.441197,0.980000,131700,1000,12,0,1,250.391,-15.774,10.564,440.131,-0.458,0.957
1782115676.442197,0.981000,131701,1000,12,0,1,241.960,-10.775,10.665,439.314,-0.718,0.953
1782115676.443197,0.982000,131702,1000,12,0,1,229.061,-11.118,10.775,440.347,-0.131,0.938
1782115676.444197,0.983000,131703,1000,12,0,1,218.252,-10.018,10.819,440.083,0.407,0.938
1782115676.445197,0.984000,131704,1000,12,0,1,221.254,0.522,10.731,440.707,0.406,0.940
1782115676.446197,0.985000,131705,1000,12,0,1,223.680,10.725,10.741,439.963,0.416,0.929
1782115676.447197,0.986000,131706,1000,12,0,1,227.500,14.377,10.917,439.410,-0.555,0.922
1782115676.448197,0.987000,131707,1000,12,0,1,229.037,15.276,11.113,438.521,-0.856,0.929
1782115676.449197,0.988000,131708,1000,12,0,1,231.920,11.436,11.069,438.161,-1.281,0.947
1782115676.450197,0.989000,131709,1000,12,0,1,236.556,8.768,10.762,438.449,-0.731,0.952
1782115676.451197,0.990000,131710,1000,12,0,1,238.021,1.411,10.451,438.858,-0.204,0.950
1782115676.452197,0.991000,131711,1000,12,0,1,243.113,-4.251,10.280,440.731,1.188,0.963
1782115676.453197,0.992000,131712,1000,12,0,1,258.222,0.004,10.109,441.788,2.330,0.989
1782115676.454197,0.993000,131713,1000,12,0,1,272.539,4.834,9.980,442.365,2.070,1.004
1782115676.455197,0.994000,131714,1000,12,0,1,284.213,6.840,10.024,442.173,1.745,1.031
1782115676.456197,0.995000,131715,1000,12,0,1,289.209,5.504,9.943,442.725,1.387,1.045
1782115676.457197,0.996000,131716,1000,12,0,1,289.545,1.491,9.766,442.124,0.934,1.051
1782115676.458197,0.997000,131717,1000,12,0,1,284.213,-3.286,9.493,440.635,-0.921,1.059
1782115676.459197,0.998000,131718,1000,12,0,1,270.785,-11.785,9.388,441.932,-0.076,1.059
1782115676.460197,0.999000,131719,1000,12,0,1,256.517,-18.234,9.658,441.548,0.173,1.034
1782115676.461197,1.000000,131720,1000,12,0,1,247.749,-16.181,9.920,441.548,-0.456,1.034
1782115676.462197,1.001000,131721,1000,12,0,1,238.910,-12.059,10.054,439.867,-1.158,1.046
1782115676.463197,1.002000,131722,1000,12,0,1,222.528,-14.178,10.251,440.203,-1.500,1.056
1782115676.464197,1.003000,131723,1000,12,0,1,212.006,-13.871,10.396,439.819,-0.730,1.054
1782115676.465197,1.004000,131724,1000,12,0,1,213.784,-2.370,10.349,438.449,-2.101,1.094
1782115676.466197,1.005000,131725,1000,12,0,1,218.564,8.730,10.373,438.377,-1.741,1.114
1782115676.467197,1.006000,131726,1000,12,0,1,222.816,14.585,10.571,439.362,-0.515,1.110
1782115676.468197,1.007000,131727,1000,12,0,1,226.107,15.692,10.761,439.674,0.071,1.101
1782115676.469197,1.008000,131728,1000,12,0,1,229.830,13.457,10.782,439.194,-0.244,1.097
1782115676.470197,1.009000,131729,1000,12,0,1,234.418,9.937,10.578,438.762,-0.715,1.098
1782115676.471197,1.010000,131730,1000,12,0,1,235.715,2.414,10.387,438.906,-0.467,1.083
1782115676.472197,1.011000,131731,1000,12,0,1,243.666,-1.257,10.299,441.308,1.305,1.085
1782115676.473197,1.012000,131732,1000,12,0,1,255.604,1.134,10.147,439.891,0.748,1.075
1782115676.474197,1.013000,131733,1000,12,0,1,269.872,4.469,10.026,440.107,-0.389,1.069
1782115676.475197,1.014000,131734,1000,12,0,1,283.996,9.673,10.117,439.050,-0.354,1.067
1782115676.476197,1.015000,131735,1000,12,0,1,290.314,9.370,10.136,438.641,-1.579,1.089
1782115676.477197,1.016000,131736,1000,12,0,1,288.416,3.575,9.941,438.161,-1.198,1.097
1782115676.478197,1.017000,131737,1000,12,0,1,280.970,-3.452,9.669,439.170,-0.648,1.042
1782115676.479197,1.018000,131738,1000,12,0,1,268.431,-11.183,9.623,437.969,-0.773,1.027
1782115676.480197,1.019000,131739,1000,12,0,1,256.997,-14.810,9.750,441.716,1.516,1.048
1782115676.481197,1.020000,131740,1000,12,0,1,247.509,-13.308,9.922,442.581,3.676,1.169
1782115676.482197,1.021000,131741,1000,12,0,1,238.621,-10.182,10.017,439.386,-0.009,1.143
1782115676.483197,1.022000,131742,1000,12,0,1,223.656,-11.403,10.143,440.011,0.068,1.143
1782115676.484197,1.023000,131743,1000,12,0,1,216.546,-9.054,10.163,440.731,1.463,1.153
1782115676.485197,1.024000,131744,1000,12,0,1,217.411,1.357,10.085,438.233,-0.883,1.152
1782115676.486197,1.025000,131745,1000,12,0,1,219.237,8.251,10.092,438.281,-1.010,1.134
1782115676.487197,1.026000,131746,1000,12,0,1,223.056,12.938,10.253,438.641,-0.135,1.121
1782115676.488197,1.027000,131747,1000,12,0,1,226.659,14.196,10.441,438.882,0.072,1.118
1782115676.489197,1.028000,131748,1000,12,0,1,230.382,11.597,10.510,440.539,1.411,1.135
1782115676.490197,1.029000,131749,1000,12,0,1,234.009,7.361,10.274,441.164,2.105,1.174
1782115676.491197,1.030000,131750,1000,12,0,1,236.267,0.230,10.029,441.620,1.786,1.199
1782115676.492197,1.031000,131751,1000,12,0,1,240.159,-5.613,9.944,441.476,1.538,1.214
1782115676.493197,1.032000,131752,1000,12,0,1,255.220,-2.029,9.823,441.572,0.878,1.220
1782115676.494197,1.033000,131753,1000,12,0,1,271.049,5.348,9.750,441.020,0.346,1.220
1782115676.495197,1.034000,131754,1000,12,0,1,282.195,7.232,9.803,438.714,-1.931,1.249
1782115676.496197,1.035000,131755,1000,12,0,1,288.176,7.073,9.736,438.401,-2.497,1.296
1782115676.497197,1.036000,131756,1000,12,0,1,288.873,4.086,9.539,442.076,0.829,1.299
1782115676.498197,1.037000,131757,1000,12,0,1,281.426,-2.200,9.297,441.188,0.907,1.300
1782115676.499197,1.038000,131758,1000,12,0,1,268.479,-10.514,9.275,439.963,-1.178,1.298
1782115676.500197,1.039000,131759,1000,12,0,1,254.547,-15.869,9.462,440.299,-0.407,1.295
1782115676.501197,1.040000,131760,1000,12,0,1,247.245,-13.177,9.641,441.188,0.284,1.296
1782115676.502197,1.041000,131761,1000,12,0,1,240.255,-7.455,9.680,438.449,-1.409,1.300
1782115676.503197,1.042000,131762,1000,12,0,1,225.650,-9.128,9.766,439.530,-1.311,1.271
1782115676.504197,1.043000,131763,1000,12,0,1,217.123,-8.230,9.811,441.116,1.271,1.250
1782115676.505197,1.044000,131764,1000,12,0,1,218.516,1.697,9.766,441.548,1.257,1.238
1782115676.506197,1.045000,131765,1000,12,0,1,221.519,9.522,9.828,441.284,1.115,1.233
1782115676.507197,1.046000,131766,1000,12,0,1,224.641,13.259,10.003,439.915,-0.200,1.226
1782115676.508197,1.047000,131767,1000,12,0,1,227.332,13.036,10.161,439.290,-1.032,1.228
1782115676.509197,1.048000,131768,1000,12,0,1,230.719,10.143,10.125,438.930,-0.973,1.235
1782115676.510197,1.049000,131769,1000,12,0,1,232.880,4.645,9.814,439.843,-0.470,1.237
1782115676.511197,1.050000,131770,1000,12,0,1,235.066,-2.510,9.550,438.497,-0.908,1.242
1782115676.512197,1.051000,131771,1000,12,0,1,239.942,-7.013,9.448,438.762,-1.482,1.249
1782115676.513197,1.052000,131772,1000,12,0,1,254.643,-3.181,9.244,438.113,-1.075,1.240
1782115676.514197,1.053000,131773,1000,12,0,1,270.329,4.151,9.053,439.122,-0.921,1.242
1782115676.515197,1.054000,131774,1000,12,0,1,284.933,9.175,9.139,438.089,-0.777,1.211
1782115676.516197,1.055000,131775,1000,12,0,1,289.665,8.980,9.144,439.867,-0.230,1.187
1782115676.517197,1.056000,131776,1000,12,0,1,287.864,2.951,8.918,441.524,2.139,1.222
1782115676.518197,1.057000,131777,1000,12,0,1,281.402,-2.164,8.643,442.317,2.131,1.259
1782115676.519197,1.058000,131778,1000,12,0,1,267.638,-10.482,8.560,439.290,-0.146,1.259
1782115676.520197,1.059000,131779,1000,12,0,1,253.370,-16.489,8.760,438.185,-1.979,1.285
1782115676.521197,1.060000,131780,1000,12,0,1,246.788,-12.671,8.935,439.530,-0.190,1.284
1782115676.522197,1.061000,131781,1000,12,0,1,239.870,-6.959,8.987,439.770,0.426,1.272
1782115676.523197,1.062000,131782,1000,12,0,1,223.584,-9.917,9.094,440.059,0.486,1.270
1782115676.524197,1.063000,131783,1000,12,0,1,213.304,-10.796,9.200,438.882,0.035,1.268
1782115676.525197,1.064000,131784,1000,12,0,1,216.426,0.590,9.098,439.530,-0.028,1.267
1782115676.526197,1.065000,131785,1000,12,0,1,221.302,10.544,9.124,439.602,0.916,1.254
1782115676.527197,1.066000,131786,1000,12,0,1,223.753,13.525,9.308,441.212,1.497,1.261
1782115676.528197,1.067000,131787,1000,12,0,1,225.698,12.271,9.456,438.930,0.517,1.259
1782115676.529197,1.068000,131788,1000,12,0,1,231.199,10.888,9.449,442.413,1.614,1.275
1782115676.530197,1.069000,131789,1000,12,0,1,234.514,6.697,9.263,441.356,2.578,1.309
1782115676.531197,1.070000,131790,1000,12,0,1,237.324,-0.591,9.070,439.434,-1.172,1.213
1782115676.532197,1.071000,131791,1000,12,0,1,240.039,-6.747,9.006,440.731,0.407,1.214
1782115676.533197,1.072000,131792,1000,12,0,1,253.995,-4.359,8.881,441.356,0.811,1.219
1782115676.534197,1.073000,131793,1000,12,0,1,269.152,3.306,8.801,440.443,-0.263,1.202
1782115676.535197,1.074000,131794,1000,12,0,1,282.051,7.022,8.855,439.722,-1.003,1.204
1782115676.536197,1.075000,131795,1000,12,0,1,288.752,8.612,8.862,441.644,0.168,1.196
1782115676.537197,1.076000,131796,1000,12,0,1,286.783,3.743,8.687,443.734,2.440,1.245
1782115676.538197,1.077000,131797,1000,12,0,1,279.985,-2.229,8.458,441.644,0.309,1.245
1782115676.539197,1.078000,131798,1000,12,0,1,267.470,-8.886,8.392,442.052,-0.150,1.229
1782115676.540197,1.079000,131799,1000,12,0,1,253.514,-14.659,8.581,442.413,0.639,1.196
1782115676.541197,1.080000,131800,1000,12,0,1,244.434,-12.853,8.771,441.452,-0.485,1.171
1782115676.542197,1.081000,131801,1000,12,0,1,233.577,-10.708,8.866,438.954,-2.380,1.199
1782115676.543197,1.082000,131802,1000,12,0,1,215.369,-15.092,9.115,439.194,-2.391,1.240
1782115676.544197,1.083000,131803,1000,12,0,1,208.475,-12.617,9.257,441.764,0.504,1.241
1782115676.545197,1.084000,131804,1000,12,0,1,212.247,0.666,9.200,440.395,-0.023,1.210
1782115676.546197,1.085000,131805,1000,12,0,1,215.610,8.853,9.231,440.083,-1.042,1.167
1782115676.547197,1.086000,131806,1000,12,0,1,217.411,11.517,9.356,440.491,0.047,1.161
1782115676.548197,1.087000,131807,1000,12,0,1,220.966,11.661,9.495,438.882,-1.406,1.171
1782115676.549197,1.088000,131808,1000,12,0,1,224.401,9.405,9.472,440.875,-0.037,1.159
1782115676.550197,1.089000,131809,1000,12,0,1,229.181,5.567,9.236,441.044,0.961,1.166
1782115676.551197,1.090000,131810,1000,12,0,1,231.703,-0.437,9.046,439.698,-0.902,1.172
1782115676.552197,1.091000,131811,1000,12,0,1,235.210,-6.746,9.035,439.891,-0.685,1.159
1782115676.553197,1.092000,131812,1000,12,0,1,250.199,-2.527,8.949,438.425,-1.652,1.168
1782115676.554197,1.093000,131813,1000,12,0,1,264.444,4.303,8.894,439.170,-1.472,1.172
1782115676.555197,1.094000,131814,1000,12,0,1,277.030,7.693,8.957,438.834,-0.837,1.165
1782115676.556197,1.095000,131815,1000,12,0,1,282.363,8.796,8.942,439.626,-0.755,1.159
1782115676.557197,1.096000,131816,1000,12,0,1,279.913,3.313,8.756,442.124,1.892,1.189
1782115676.558197,1.097000,131817,1000,12,0,1,274.076,-1.019,8.561,441.956,1.781,1.207
1782115676.559197,1.098000,131818,1000,12,0,1,260.288,-8.389,8.523,440.371,-0.014,1.199
1782115676.560197,1.099000,131819,1000,12,0,1,246.308,-14.263,8.734,440.875,0.200,1.197
1782115676.561197,1.100000,131820,1000,12,0,1,239.270,-10.417,8.850,440.179,0.048,1.190
1782115676.562197,1.101000,131821,1000,12,0,1,231.559,-5.705,8.831,440.491,-0.045,1.172
1782115676.563197,1.102000,131822,1000,12,0,1,215.610,-8.574,8.903,440.875,0.771,1.167
1782115676.564197,1.103000,131823,1000,12,0,1,206.794,-8.459,8.964,440.755,0.553,1.162
1782115676.565197,1.104000,131824,1000,12,0,1,213.448,5.180,8.899,438.209,-1.256,1.171
1782115676.566197,1.105000,131825,1000,12,0,1,215.850,13.117,9.001,437.705,-2.067,1.206
1782115676.567197,1.106000,131826,1000,12,0,1,215.201,11.419,9.136,438.641,-0.499,1.170
1782115676.568197,1.107000,131827,1000,12,0,1,219.645,12.045,9.288,439.002,0.022,1.130
1782115676.569197,1.108000,131828,1000,12,0,1,225.074,11.016,9.300,438.617,-0.177,1.130
1782115676.570197,1.109000,131829,1000,12,0,1,228.749,6.110,9.045,439.843,0.692,1.100
1782115676.571197,1.110000,131830,1000,12,0,1,227.836,-3.380,8.878,440.491,1.452,1.118
1782115676.572197,1.111000,131831,1000,12,0,1,233.385,-8.648,8.908,442.845,2.777,1.184
1782115676.573197,1.112000,131832,1000,12,0,1,248.518,-2.833,8.806,442.245,2.499,1.233
1782115676.574197,1.113000,131833,1000,12,0,1,263.843,3.841,8.690,439.891,-0.548,1.236
1782115676.575197,1.114000,131834,1000,12,0,1,276.526,8.414,8.770,438.257,-2.070,1.270
1782115676.576197,1.115000,131835,1000,12,0,1,280.009,7.370,8.705,439.122,-1.444,1.280
1782115676.577197,1.116000,131836,1000,12,0,1,277.847,2.252,8.498,439.794,-0.342,1.263
1782115676.578197,1.117000,131837,1000,12,0,1,269.968,-3.044,8.330,442.004,1.265,1.274
1782115676.579197,1.118000,131838,1000,12,0,1,255.844,-11.166,8.338,441.380,1.288,1.266
1782115676.580197,1.119000,131839,1000,12,0,1,244.843,-13.709,8.508,439.915,-0.647,1.216
1782115676.581197,1.120000,131840,1000,12,0,1,236.700,-10.276,8.631,438.714,-1.375,1.220
1782115676.582197,1.121000,131841,1000,12,0,1,229.133,-6.294,8.624,438.978,-1.120,1.229
1782115676.583197,1.122000,131842,1000,12,0,1,212.511,-9.086,8.697,440.275,0.411,1.225
1782115676.584197,1.123000,131843,1000,12,0,1,206.530,-7.632,8.751,440.347,0.831,1.230
1782115676.585197,1.124000,131844,1000,12,0,1,207.515,2.828,8.704,441.692,1.547,1.241
1782115676.586197,1.125000,131845,1000,12,0,1,210.733,8.774,8.707,440.971,1.488,1.259
1782115676.587197,1.126000,131846,1000,12,0,1,214.457,13.046,8.885,439.794,-0.327,1.212
1782115676.588197,1.127000,131847,1000,12,0,1,216.931,11.668,9.031,439.722,-0.156,1.211
1782115676.589197,1.128000,131848,1000,12,0,1,220.125,8.132,9.017,440.707,0.444,1.212
1782115676.590197,1.129000,131849,1000,12,0,1,223.104,3.166,8.787,440.251,0.335,1.210
1782115676.591197,1.130000,131850,1000,12,0,1,226.419,-3.083,8.608,438.834,-1.259,1.221
1782115676.592197,1.131000,131851,1000,12,0,1,235.258,-4.212,8.494,438.233,-1.789,1.201
1782115676.593197,1.132000,131852,1000,12,0,1,250.440,0.654,8.223,439.434,-0.715,1.157
1782115676.594197,1.133000,131853,1000,12,0,1,265.212,6.626,8.081,437.777,-1.537,1.175
1782115676.595197,1.134000,131854,1000,12,0,1,275.829,8.968,8.179,438.810,-1.367,1.190
1782115676.596197,1.135000,131855,1000,12,0,1,280.273,8.212,8.166,441.476,1.652,1.204
1782115676.597197,1.136000,131856,1000,12,0,1,280.273,5.308,8.037,441.476,1.580,1.225
1782115676.598197,1.137000,131857,1000,12,0,1,257.285,-11.242,8.025,439.170,-0.664,1.212
1782115676.599197,1.138000,131858,1000,12,0,1,242.945,-22.916,8.552,439.338,-0.913,1.219
1782115676.600197,1.139000,131859,1000,12,0,1,235.763,-16.668,8.836,440.155,0.291,1.212
1782115676.601197,1.140000,131860,1000,12,0,1,226.611,-14.479,9.070,440.996,0.956,1.213
1782115676.602197,1.141000,131861,1000,12,0,1,211.910,-14.256,9.242,440.443,0.703,1.213
1782115676.603197,1.142000,131862,1000,12,0,1,204.416,-11.032,9.366,440.803,0.660,1.194
1782115676.604197,1.143000,131863,1000,12,0,1,204.176,-0.341,9.346,439.770,0.200,1.176
1782115676.605197,1.144000,131864,1000,12,0,1,209.604,10.984,9.412,439.266,-0.604,1.173
1782115676.606197,1.145000,131865,1000,12,0,1,213.976,18.235,9.679,439.074,-0.363,1.170
1782115676.607197,1.146000,131866,1000,12,0,1,217.867,19.989,10.073,440.251,0.507,1.141
1782115676.608197,1.147000,131867,1000,12,0,1,220.486,17.448,10.370,439.987,0.708,1.117
1782115676.609197,1.148000,131868,1000,12,0,1,221.831,11.324,10.425,439.266,-0.294,1.118
1782115676.610197,1.149000,131869,1000,12,0,1,224.978,4.620,10.249,438.690,-0.703,1.122
1782115676.611197,1.150000,131870,1000,12,0,1,234.658,3.447,10.154,441.452,1.261,1.136
1782115676.612197,1.151000,131871,1000,12,0,1,249.287,6.327,10.162,441.452,1.878,1.167
1782115676.613197,1.152000,131872,1000,12,0,1,260.384,7.139,10.139,439.867,-0.398,1.163
1782115676.614197,1.153000,131873,1000,12,0,1,272.058,7.234,10.120,438.641,-1.455,1.178
1782115676.615197,1.154000,131874,1000,12,0,1,279.336,7.493,10.149,440.131,-0.498,1.167
1782115676.616197,1.155000,131875,1000,12,0,1,274.412,-1.533,9.981,440.923,0.672,1.134
1782115676.617197,1.156000,131876,1000,12,0,1,267.182,-9.906,9.948,440.131,-0.256,1.132
1782115676.618197,1.157000,131877,1000,12,0,1,254.883,-16.630,10.080,439.194,-1.165,1.144
1782115676.619197,1.158000,131878,1000,12,0,1,243.401,-21.042,10.394,439.819,-0.600,1.147
1782115676.620197,1.159000,131879,1000,12,0,1,236.099,-17.133,10.637,440.971,0.601,1.146
1782115676.621197,1.160000,131880,1000,12,0,1,226.443,-13.950,10.808,439.170,-0.516,1.130
1782115676.622197,1.161000,131881,1000,12,0,1,209.965,-16.224,10.981,438.521,-1.600,1.083
1782115676.623197,1.162000,131882,1000,12,0,1,203.599,-12.210,11.109,439.843,0.175,1.024
1782115676.624197,1.163000,131883,1000,12,0,1,207.827,2.177,11.100,440.851,1.150,1.034
1782115676.625197,1.164000,131884,1000,12,0,1,207.827,9.397,11.116,440.851,1.275,1.008
1782115676.626197,1.165000,131885,1000,12,0,1,223.945,22.716,11.523,437.513,-1.433,1.008
1782115676.627197,1.166000,131886,1000,12,0,1,227.163,27.885,12.175,438.810,-1.136,1.019
1782115676.628197,1.167000,131887,1000,12,0,1,228.244,18.189,12.437,440.011,1.173,1.017
1782115676.629197,1.168000,131888,1000,12,0,1,235.186,17.550,12.583,438.978,-0.219,1.001
1782115676.630197,1.169000,131889,1000,12,0,1,253.754,21.005,12.783,440.755,1.070,1.008
1782115676.631197,1.170000,131890,1000,12,0,1,271.217,26.109,13.226,438.978,0.196,0.990
1782115676.632197,1.171000,131891,1000,12,0,1,280.297,19.916,13.493,439.146,-0.898,0.985
1782115676.633197,1.172000,131892,1000,12,0,1,282.915,9.354,13.497,439.194,0.101,0.984
1782115676.634197,1.173000,131893,1000,12,0,1,280.393,-2.972,13.460,440.827,0.559,0.980
1782115676.635197,1.174000,131894,1000,12,0,1,274.172,-15.314,13.627,438.401,-0.462,0.957
1782115676.636197,1.175000,131895,1000,12,0,1,257.381,-30.227,14.228,440.611,-0.261,0.935
1782115676.637197,1.176000,131896,1000,12,0,1,246.020,-39.268,15.162,441.836,2.304,0.989
1782115676.638197,1.177000,131897,1000,12,0,1,239.870,-34.744,15.852,439.650,-0.484,0.991
1782115676.639197,1.178000,131898,1000,12,0,1,228.389,-33.856,16.520,440.923,0.213,0.989
1782115676.640197,1.179000,131899,1000,12,0,1,211.094,-35.237,17.249,443.013,2.488,1.049
1782115676.641197,1.180000,131900,1000,12,0,1,207.923,-25.760,17.624,439.915,-0.208,1.034
1782115676.642197,1.181000,131901,1000,12,0,1,209.893,-7.930,17.650,440.011,-0.980,1.012
1782115676.643197,1.182000,131902,1000,12,0,1,211.334,3.794,17.658,439.002,-0.815,1.014
1782115676.644197,1.183000,131903,1000,12,0,1,217.267,16.607,17.789,439.650,-0.850,0.997
1782115676.645197,1.184000,131904,1000,12,0,1,220.342,23.727,18.058,439.242,-0.221,0.979
1782115676.646197,1.185000,131905,1000,12,0,1,223.056,24.656,18.355,440.683,0.417,0.953
1782115676.647197,1.186000,131906,1000,12,0,1,223.104,21.891,18.599,440.539,1.070,0.938
1782115676.648197,1.187000,131907,1000,12,0,1,225.818,16.476,18.677,439.843,-0.127,0.934
1782115676.649197,1.188000,131908,1000,12,0,1,232.736,14.907,18.514,438.738,-0.871,0.933
1782115676.650197,1.189000,131909,1000,12,0,1,248.398,17.502,18.529,439.218,-0.704,0.937
1782115676.651197,1.190000,131910,1000,12,0,1,267.062,23.500,18.713,439.362,-0.255,0.928
1782115676.652197,1.191000,131911,1000,12,0,1,280.177,22.612,18.877,441.236,0.983,0.933
1782115676.653197,1.192000,131912,1000,12,0,1,280.057,11.392,18.881,440.467,0.723,0.934
1782115676.654197,1.193000,131913,1000,12,0,1,277.655,-1.594,18.883,438.041,-1.927,0.973
1782115676.655197,1.194000,131914,1000,12,0,1,268.047,-13.967,18.922,439.170,-1.267,0.985
1782115676.656197,1.195000,131915,1000,12,0,1,252.794,-28.879,19.185,439.650,-0.041,0.984
1782115676.657197,1.196000,131916,1000,12,0,1,244.362,-32.726,19.532,437.969,-1.750,1.012
1782115676.658197,1.197000,131917,1000,12,0,1,236.435,-30.260,19.842,437.873,-1.705,1.036
1782115676.659197,1.198000,131918,1000,12,0,1,225.338,-29.511,20.213,441.284,1.250,1.050
1782115676.660197,1.199000,131919,1000,12,0,1,210.013,-29.444,20.627,438.545,0.132,1.045
1782115676.661197,1.200000,131920,1000,12,0,1,204.440,-22.571,20.867,438.930,-1.146,1.043
1782115676.662197,1.201000,131921,1000,12,0,1,208.716,-4.835,20.859,437.513,-0.518,1.011
1782115676.663197,1.202000,131922,1000,12,0,1,211.718,8.179,20.867,438.569,-0.843,1.016
1782115676.664197,1.203000,131923,1000,12,0,1,215.225,17.197,20.983,440.155,1.891,1.031
1782115676.665197,1.204000,131924,1000,12,0,1,215.225,20.441,21.155,440.155,1.443,1.048
1782115676.666197,1.205000,131925,1000,12,0,1,221.855,23.425,21.412,437.993,-0.194,1.044
1782115676.667197,1.206000,131926,1000,12,0,1,227.188,25.444,21.667,438.305,-0.428,1.045
1782115676.668197,1.207000,131927,1000,12,0,1,234.322,22.549,21.773,438.353,0.211,1.033
1782115676.669197,1.208000,131928,1000,12,0,1,252.169,28.160,21.934,438.714,0.294,1.030
1782115676.670197,1.209000,131929,1000,12,0,1,265.693,29.314,22.190,439.722,1.163,1.040
1782115676.671197,1.210000,131930,1000,12,0,1,277.463,24.876,22.380,439.674,1.201,1.051
1782115676.672197,1.211000,131931,1000,12,0,1,280.057,15.857,22.375,439.602,0.563,1.029
1782115676.673197,1.212000,131932,1000,12,0,1,275.445,-0.518,22.309,440.275,1.137,1.042
1782115676.674197,1.213000,131933,1000,12,0,1,267.927,-13.810,22.392,441.548,1.741,1.058
1782115676.675197,1.214000,131934,1000,12,0,1,254.571,-28.092,22.703,439.746,0.439,1.044
1782115676.676197,1.215000,131935,1000,12,0,1,242.921,-36.779,23.068,438.954,-1.258,1.040
1782115676.677197,1.216000,131936,1000,12,0,1,235.619,-36.181,23.297,438.281,-1.184,1.041
1782115676.678197,1.217000,131937,1000,12,0,1,225.962,-34.269,23.657,438.641,-1.255,1.043
1782115676.679197,1.218000,131938,1000,12,0,1,210.445,-35.279,24.049,438.810,-0.455,1.044
1782115676.680197,1.219000,131939,1000,12,0,1,203.791,-29.027,24.216,440.179,0.440,1.035
1782115676.681197,1.220000,131940,1000,12,0,1,207.707,-11.210,23.985,440.395,1.140,1.047
1782115676.682197,1.221000,131941,1000,12,0,1,212.319,4.551,23.828,439.050,-0.259,1.040
1782115676.683197,1.222000,131942,1000,12,0,1,216.739,16.159,23.900,440.083,0.341,1.041
1782115676.684197,1.223000,131943,1000,12,0,1,219.693,23.047,24.118,440.491,1.257,1.053
1782115676.685197,1.224000,131944,1000,12,0,1,220.750,24.179,24.263,439.602,0.093,1.051
1782115676.686197,1.225000,131945,1000,12,0,1,225.746,25.144,24.146,438.834,-0.451,1.052
1782115676.687197,1.226000,131946,1000,12,0,1,231.343,24.815,23.760,437.681,-1.425,1.021
1782115676.688197,1.227000,131947,1000,12,0,1,236.844,21.073,23.436,437.729,-1.313,1.035
1782115676.689197,1.228000,131948,1000,12,0,1,253.826,24.659,23.206,440.539,1.145,1.048
1782115676.690197,1.229000,131949,1000,12,0,1,270.088,28.878,23.029,440.059,1.343,1.005
1782115676.691197,1.230000,131950,1000,12,0,1,278.544,22.920,22.969,438.714,-0.679,1.009
1782115676.692197,1.231000,131951,1000,12,0,1,282.003,13.820,23.025,439.434,-0.029,0.999
1782115676.693197,1.232000,131952,1000,12,0,1,280.105,2.087,23.021,438.617,-0.513,0.995
1782115676.694197,1.233000,131953,1000,12,0,1,271.650,-11.730,22.960,437.633,-1.686,1.016
1782115676.695197,1.234000,131954,1000,12,0,1,259.327,-24.896,22.985,439.098,-0.347,1.017
1782115676.696197,1.235000,131955,1000,12,0,1,245.155,-34.717,23.244,437.921,-0.758,1.021
1782115676.697197,1.236000,131956,1000,12,0,1,236.940,-35.777,23.586,438.353,-1.023,1.020
1782115676.698197,1.237000,131957,1000,12,0,1,226.491,-33.550,23.945,438.690,0.061,1.020
1782115676.699197,1.238000,131958,1000,12,0,1,212.607,-34.131,24.336,436.912,-1.527,1.035
1782115676.700197,1.239000,131959,1000,12,0,1,208.860,-25.245,24.471,437.585,-1.051,1.041
1782115676.701197,1.240000,131960,1000,12,0,1,211.766,-9.193,24.279,438.593,0.547,1.043
1782115676.702197,1.241000,131961,1000,12,0,1,215.345,3.945,24.074,437.248,-0.498,1.037
1782115676.703197,1.242000,131962,1000,12,0,1,217.843,13.302,24.094,437.993,-0.046,1.031
1782115676.704197,1.243000,131963,1000,12,0,1,221.134,18.954,24.241,438.930,1.299,1.012
1782115676.705197,1.244000,131964,1000,12,0,1,224.689,22.133,24.363,437.681,0.257,0.996
1782115676.706197,1.245000,131965,1000,12,0,1,228.365,21.696,24.213,437.368,-0.277,0.997
1782115676.707197,1.246000,131966,1000,12,0,1,232.424,19.279,23.923,439.026,1.306,0.983
1782115676.708197,1.247000,131967,1000,12,0,1,239.030,16.733,23.655,440.683,2.730,1.029
1782115676.709197,1.248000,131968,1000,12,0,1,255.436,20.733,23.468,438.690,1.074,1.025
1782115676.710197,1.249000,131969,1000,12,0,1,269.632,23.768,23.339,438.593,-0.046,1.024
1782115676.711197,1.250000,131970,1000,12,0,1,281.258,21.118,23.312,440.467,1.878,1.046
1782115676.712197,1.251000,131971,1000,12,0,1,281.258,11.815,23.362,440.443,1.640,1.069
1782115676.713197,1.252000,131972,1000,12,0,1,276.814,-2.545,23.336,441.356,1.720,1.090
1782115676.714197,1.253000,131973,1000,12,0,1,269.248,-13.103,23.283,443.037,2.971,1.137
1782115676.715197,1.254000,131974,1000,12,0,1,251.785,-28.719,23.457,440.371,0.519,1.121
1782115676.716197,1.255000,131975,1000,12,0,1,239.942,-36.669,23.794,440.683,-0.498,1.123
1782115676.717197,1.256000,131976,1000,12,0,1,232.976,-33.353,23.988,440.371,0.050,1.121
1782115676.718197,1.257000,131977,1000,12,0,1,222.528,-31.897,24.200,437.825,-2.611,1.180
1782115676.719197,1.258000,131978,1000,12,0,1,207.154,-32.524,24.309,438.858,-1.831,1.207
1782115676.720197,1.259000,131979,1000,12,0,1,205.377,-23.264,24.178,439.242,-0.571,1.199
1782115676.721197,1.260000,131980,1000,12,0,1,206.241,-7.860,23.946,441.476,0.744,1.191
1782115676.722197,1.261000,131981,1000,12,0,1,211.886,4.711,23.850,441.116,1.404,1.205
1782115676.723197,1.262000,131982,1000,12,0,1,215.658,15.959,23.957,438.113,-1.931,1.225
1782115676.724197,1.263000,131983,1000,12,0,1,217.579,18.819,24.025,438.690,-1.510,1.219
1782115676.725197,1.264000,131984,1000,12,0,1,218.828,19.503,23.854,439.963,0.188,1.218
1782115676.726197,1.265000,131985,1000,12,0,1,220.318,16.876,23.402,439.482,-0.198,1.205
1782115676.727197,1.266000,131986,1000,12,0,1,224.978,14.871,22.932,440.851,0.669,1.197
1782115676.728197,1.267000,131987,1000,12,0,1,235.138,16.276,22.532,441.404,1.430,1.201
1782115676.729197,1.268000,131988,1000,12,0,1,250.752,20.495,22.163,439.482,-0.520,1.201
1782115676.730197,1.269000,131989,1000,12,0,1,264.347,22.974,22.021,438.641,-1.644,1.222
1782115676.731197,1.270000,131990,1000,12,0,1,273.619,19.670,22.139,440.323,-0.101,1.212
1782115676.732197,1.271000,131991,1000,12,0,1,275.301,11.977,22.195,441.860,1.373,1.226
1782115676.733197,1.272000,131992,1000,12,0,1,273.331,1.630,22.078,442.725,1.822,1.252
1782115676.734197,1.273000,131993,1000,12,0,1,263.531,-10.046,21.882,441.764,0.805,1.245
1782115676.735197,1.274000,131994,1000,12,0,1,249.815,-23.167,21.860,439.554,-1.475,1.262
1782115676.736197,1.275000,131995,1000,12,0,1,238.838,-28.526,21.943,439.554,-1.733,1.284
1782115676.737197,1.276000,131996,1000,12,0,1,231.175,-27.565,22.009,437.681,-2.503,1.317
1782115676.738197,1.277000,131997,1000,12,0,1,220.270,-26.352,22.122,438.569,-2.258,1.342
1782115676.739197,1.278000,131998,1000,12,0,1,206.121,-27.440,22.187,440.875,0.795,1.337
1782115676.740197,1.279000,131999,1000,12,0,1,206.482,-16.953,21.940,441.356,1.176,1.334
1782115676.741197,1.280000,132000,1000,12,0,1,210.397,-0.696,21.699,439.434,-0.342,1.331
1782115676.742197,1.281000,132001,1000,12,0,1,212.799,8.171,21.642,438.401,-1.557,1.349
1782115676.743197,1.282000,132002,1000,12,0,1,215.970,15.850,21.756,437.921,-1.485,1.364
1782115676.744197,1.283000,132003,1000,12,0,1,220.414,20.306,21.882,439.530,-0.115,1.343
1782115676.745197,1.284000,132004,1000,12,0,1,223.560,21.261,21.805,440.035,0.940,1.348
1782115676.746197,1.285000,132005,1000,12,0,1,225.242,17.635,21.391,437.921,-0.950,1.351
1782115676.747197,1.286000,132006,1000,12,0,1,225.818,11.485,20.847,438.810,-0.656,1.346
1782115676.748197,1.287000,132007,1000,12,0,1,234.658,10.408,20.353,439.410,0.672,1.350
1782115676.749197,1.288000,132008,1000,12,0,1,250.704,16.161,19.904,437.921,-0.916,1.339
1782115676.750197,1.289000,132009,1000,12,0,1,267.302,21.071,19.807,439.002,-0.163,1.330
1782115676.751197,1.290000,132010,1000,12,0,1,277.030,19.741,19.960,437.440,-0.767,1.333
1782115676.752197,1.291000,132011,1000,12,0,1,274.676,8.644,19.990,438.714,-0.584,1.333
1782115676.753197,1.292000,132012,1000,12,0,1,269.776,-3.602,19.908,439.939,1.489,1.350
1782115676.754197,1.293000,132013,1000,12,0,1,261.201,-13.136,19.814,439.530,0.592,1.340
1782115676.755197,1.294000,132014,1000,12,0,1,247.557,-24.455,19.868,440.155,1.033,1.347
1782115676.756197,1.295000,132015,1000,12,0,1,236.724,-29.239,20.061,439.794,0.834,1.352
1782115676.757197,1.296000,132016,1000,12,0,1,230.310,-26.504,20.225,440.155,0.657,1.342
1782115676.758197,1.297000,132017,1000,12,0,1,219.693,-24.738,20.388,439.819,0.750,1.290
1782115676.759197,1.298000,132018,1000,12,0,1,203.503,-27.710,20.553,439.026,-0.324,1.282
1782115676.760197,1.299000,132019,1000,12,0,1,201.197,-19.824,20.470,439.530,0.248,1.282
1782115676.761197,1.300000,132020,1000,12,0,1,201.605,-6.485,20.271,439.530,0.415,1.256
1782115676.762197,1.301000,132021,1000,12,0,1,206.482,4.008,20.210,439.602,0.377,1.236
1782115676.763197,1.302000,132022,1000,12,0,1,210.829,14.056,20.305,438.185,-0.542,1.214
1782115676.764197,1.303000,132023,1000,12,0,1,216.402,18.511,20.389,439.266,-0.124,1.139
1782115676.765197,1.304000,132024,1000,12,0,1,216.546,17.760,20.137,438.209,-0.081,1.137
1782115676.766197,1.305000,132025,1000,12,0,1,217.964,12.710,19.541,439.722,0.199,1.135
1782115676.767197,1.306000,132026,1000,12,0,1,224.785,12.620,19.047,437.488,-0.370,1.136
1782115676.768197,1.307000,132027,1000,12,0,1,235.090,13.819,18.608,439.218,-0.524,1.077
1782115676.769197,1.308000,132028,1000,12,0,1,252.217,19.125,18.232,439.770,1.492,1.066
1782115676.770197,1.309000,132029,1000,12,0,1,264.660,21.729,18.194,439.338,-0.008,1.063
1782115676.771197,1.310000,132030,1000,12,0,1,277.631,21.074,18.403,440.011,0.752,1.063
1782115676.772197,1.311000,132031,1000,12,0,1,279.961,16.369,18.536,439.843,0.512,1.047
1782115676.773197,1.312000,132032,1000,12,0,1,276.358,4.103,18.408,440.395,0.461,1.013
1782115676.774197,1.313000,132033,1000,12,0,1,266.581,-6.482,18.237,438.762,-0.414,0.992
1782115676.775197,1.314000,132034,1000,12,0,1,250.295,-20.917,18.269,437.440,-2.330,1.045
1782115676.776197,1.315000,132035,1000,12,0,1,240.303,-25.730,18.474,437.368,-1.645,1.070
1782115676.777197,1.316000,132036,1000,12,0,1,234.178,-22.294,18.623,439.026,-0.391,1.067
1782115676.778197,1.317000,132037,1000,12,0,1,224.545,-21.002,18.717,440.443,1.520,1.070
1782115676.779197,1.318000,132038,1000,12,0,1,209.917,-22.848,18.771,440.083,0.987,1.076
1782115676.780197,1.319000,132039,1000,12,0,1,208.451,-15.720,18.621,437.080,-1.394,1.069
1782115676.781197,1.320000,132040,1000,12,0,1,210.205,-2.484,18.416,438.041,-1.215,1.083
1782115676.782197,1.321000,132041,1000,12,0,1,212.511,4.696,18.350,439.963,1.436,1.085
1782115676.783197,1.322000,132042,1000,12,0,1,217.339,12.879,18.438,439.194,0.694,1.058
1782115676.784197,1.323000,132043,1000,12,0,1,217.747,13.503,18.482,438.113,-0.445,1.054
1782115676.785197,1.324000,132044,1000,12,0,1,220.630,12.185,18.271,437.849,-0.574,1.036
1782115676.786197,1.325000,132045,1000,12,0,1,222.960,10.295,17.880,437.537,-0.734,1.012
1782115676.787197,1.326000,132046,1000,12,0,1,226.995,6.236,17.472,437.392,-0.696,0.953
1782115676.788197,1.327000,132047,1000,12,0,1,237.276,7.903,17.106,438.473,0.168,0.898
1782115676.789197,1.328000,132048,1000,12,0,1,253.658,13.474,16.769,440.491,2.015,0.936
1782115676.790197,1.329000,132049,1000,12,0,1,265.765,16.170,16.753,440.107,1.662,0.950
1782115676.791197,1.330000,132050,1000,12,0,1,274.845,14.204,16.873,439.722,0.645,0.954
1782115676.792197,1.331000,132051,1000,12,0,1,279.168,10.917,16.904,439.482,0.405,0.930
1782115676.793197,1.332000,132052,1000,12,0,1,274.196,1.127,16.756,440.251,0.644,0.910
1782115676.794197,1.333000,132053,1000,12,0,1,260.720,-12.754,16.606,441.692,1.844,0.947
1782115676.795197,1.334000,132054,1000,12,0,1,245.731,-24.195,16.686,441.452,1.490,0.961
1782115676.796197,1.335000,132055,1000,12,0,1,237.396,-25.940,16.902,440.275,0.014,0.951
1782115676.797197,1.336000,132056,1000,12,0,1,229.325,-23.031,17.136,439.410,-0.832,0.954
1782115676.798197,1.337000,132057,1000,12,0,1,217.603,-23.136,17.383,439.554,-0.769,0.955
1782115676.799197,1.338000,132058,1000,12,0,1,203.191,-24.229,17.570,440.923,0.554,0.950
1782115676.800197,1.339000,132059,1000,12,0,1,202.758,-15.448,17.452,440.611,0.554,0.953
1782115676.801197,1.340000,132060,1000,12,0,1,205.857,-1.093,17.228,440.011,-0.292,0.947
1782115676.802197,1.341000,132061,1000,12,0,1,208.692,6.644,17.210,437.753,-1.822,0.978
1782115676.803197,1.342000,132062,1000,12,0,1,208.692,10.634,17.269,437.753,-2.215,1.006
1782115676.804197,1.343000,132063,1000,12,0,1,219.093,17.330,17.342,439.122,-0.251,1.003
1782115676.805197,1.344000,132064,1000,12,0,1,221.591,19.069,17.207,439.194,-0.054,0.992
1782115676.806197,1.345000,132065,1000,12,0,1,226.011,13.979,16.819,439.410,0.026,0.985
1782115676.807197,1.346000,132066,1000,12,0,1,236.700,16.783,16.567,439.602,0.291,0.981
1782115676.808197,1.347000,132067,1000,12,0,1,254.235,21.898,16.487,438.810,-0.497,0.978
1782115676.809197,1.348000,132068,1000,12,0,1,265.933,23.216,16.347,439.242,-0.351,0.978
1782115676.810197,1.349000,132069,1000,12,0,1,274.220,18.604,16.319,440.515,0.796,0.984
1782115676.811197,1.350000,132070,1000,12,0,1,275.709,11.113,16.369,439.338,-0.078,0.983
1782115676.812197,1.351000,132071,1000,12,0,1,270.785,-0.683,16.359,439.794,-0.409,0.983
1782115676.813197,1.352000,132072,1000,12,0,1,258.366,-14.786,16.372,439.891,0.223,0.980
1782115676.814197,1.353000,132073,1000,12,0,1,244.122,-26.755,16.598,437.993,-1.653,1.008
1782115676.815197,1.354000,132074,1000,12,0,1,233.793,-31.042,16.984,438.930,-1.048,1.018
1782115676.816197,1.355000,132075,1000,12,0,1,227.500,-27.687,17.337,439.098,-0.118,1.018
1782115676.817197,1.356000,132076,1000,12,0,1,215.586,-26.988,17.662,438.906,-0.581,1.020
1782115676.818197,1.357000,132077,1000,12,0,1,199.852,-29.325,18.037,440.467,0.993,1.027
1782115676.819197,1.358000,132078,1000,12,0,1,199.996,-18.990,18.034,439.362,0.462,1.007
1782115676.820197,1.359000,132079,1000,12,0,1,204.152,-2.188,17.773,438.690,-0.626,1.011
1782115676.821197,1.360000,132080,1000,12,0,1,207.394,7.284,17.551,438.089,-0.571,1.009
1782115676.822197,1.361000,132081,1000,12,0,1,212.439,16.488,17.554,438.834,-0.171,1.007
1782115676.823197,1.362000,132082,1000,12,0,1,215.610,19.972,17.770,438.593,0.294,1.005
1782115676.824197,1.363000,132083,1000,12,0,1,220.342,21.131,17.996,438.617,-0.059,1.004
1782115676.825197,1.364000,132084,1000,12,0,1,222.696,18.824,17.950,439.122,0.660,0.953
1782115676.826197,1.365000,132085,1000,12,0,1,226.491,14.146,17.691,438.473,0.105,0.924
