Unix_Time_s,EMG_t_s,sample_idx,fs,gain,flags,emg_valid,ch1_raw_uV,ch1_filt_uV,ch1_env_uV,ch2_raw_uV,ch2_filt_uV,ch2_env_uV
1782115872.214341,0.000000,326720,1000,12,0,1,812.547,-12.196,28.226,353.993,4.039,13.852
1782115872.215341,0.001000,326721,1000,12,0,1,806.758,-18.043,28.340,363.048,11.897,13.949
1782115872.216341,0.002000,326722,1000,12,0,1,799.432,-22.681,28.518,371.624,15.817,14.125
1782115872.217341,0.003000,326723,1000,12,0,1,793.427,-27.466,28.759,378.686,16.534,14.162
1782115872.218341,0.004000,326724,1000,12,0,1,792.154,-26.742,28.955,384.883,14.951,13.669
1782115872.219341,0.005000,326725,1000,12,0,1,795.901,-21.609,29.016,395.765,16.284,13.074
1782115872.220341,0.006000,326726,1000,12,0,1,799.408,-16.552,28.164,399.176,13.468,12.949
1782115872.221341,0.007000,326727,1000,12,0,1,798.976,-15.296,26.828,402.683,7.835,12.988
1782115872.222341,0.008000,326728,1000,12,0,1,810.409,-6.130,24.793,401.506,3.494,12.978
1782115872.223341,0.009000,326729,1000,12,0,1,827.368,10.909,22.546,396.077,-5.381,12.974
1782115872.224341,0.010000,326730,1000,12,0,1,832.581,15.090,21.103,390.000,-10.494,13.048
1782115872.225341,0.011000,326731,1000,12,0,1,831.860,12.331,20.612,388.246,-10.524,13.104
1782115872.226341,0.012000,326732,1000,12,0,1,830.299,10.077,20.456,384.139,-8.937,13.060
1782115872.227341,0.013000,326733,1000,12,0,1,826.503,6.832,20.374,382.025,-6.566,12.969
1782115872.228341,0.014000,326734,1000,12,0,1,822.732,4.206,20.336,378.398,-3.060,12.858
1782115872.229341,0.015000,326735,1000,12,0,1,817.472,1.635,20.289,372.032,-3.228,12.695
1782115872.230341,0.016000,326736,1000,12,0,1,810.001,-2.662,19.835,366.652,-2.770,12.496
1782115872.231341,0.017000,326737,1000,12,0,1,805.509,-4.287,19.309,360.502,-2.922,12.366
1782115872.232341,0.018000,326738,1000,12,0,1,800.537,-5.085,19.036,359.181,-1.459,12.303
1782115872.233341,0.019000,326739,1000,12,0,1,801.858,-2.662,18.970,360.190,2.480,12.307
1782115872.234341,0.020000,326740,1000,12,0,1,804.044,2.084,18.880,364.081,5.103,12.255
1782115872.235341,0.021000,326741,1000,12,0,1,803.371,1.353,18.859,367.108,6.725,12.174
1782115872.236341,0.022000,326742,1000,12,0,1,805.173,1.960,18.833,372.392,6.580,11.955
1782115872.237341,0.023000,326743,1000,12,0,1,805.797,1.591,18.692,379.382,8.183,11.721
1782115872.238341,0.024000,326744,1000,12,0,1,807.071,0.025,18.537,384.163,6.301,11.650
1782115872.239341,0.025000,326745,1000,12,0,1,811.202,1.508,18.538,390.960,5.396,11.625
1782115872.240341,0.026000,326746,1000,12,0,1,811.707,-0.055,18.181,394.203,3.222,11.581
1782115872.241341,0.027000,326747,1000,12,0,1,811.923,-2.680,17.365,395.188,-1.674,11.527
1782115872.242341,0.028000,326748,1000,12,0,1,808.992,-5.968,16.699,394.275,-5.142,11.507
1782115872.243341,0.029000,326749,1000,12,0,1,803.636,-11.391,16.354,395.380,-6.294,11.541
1782115872.244341,0.030000,326750,1000,12,0,1,798.663,-14.390,16.093,394.227,-5.715,11.491
1782115872.245341,0.031000,326751,1000,12,0,1,797.702,-12.967,15.813,393.915,-4.710,11.113
1782115872.246341,0.032000,326752,1000,12,0,1,798.952,-7.977,15.710,394.948,0.096,10.498
1782115872.247341,0.033000,326753,1000,12,0,1,800.681,-2.773,15.643,396.173,4.884,10.044
1782115872.248341,0.034000,326754,1000,12,0,1,801.522,1.640,15.529,390.960,5.130,9.708
1782115872.249341,0.035000,326755,1000,12,0,1,803.756,6.363,15.250,384.091,2.271,9.581
1782115872.250341,0.036000,326756,1000,12,0,1,802.363,8.271,14.717,378.109,1.232,9.564
1782115872.251341,0.037000,326757,1000,12,0,1,800.273,7.597,13.109,371.648,-0.843,9.564
1782115872.252341,0.038000,326758,1000,12,0,1,800.441,9.083,12.297,369.990,-0.302,9.540
1782115872.253341,0.039000,326759,1000,12,0,1,800.273,9.633,11.575,369.054,1.129,9.398
1782115872.254341,0.040000,326760,1000,12,0,1,801.161,9.663,11.075,368.621,-0.142,8.967
1782115872.255341,0.041000,326761,1000,12,0,1,803.588,10.649,10.725,373.594,2.295,8.399
1782115872.256341,0.042000,326762,1000,12,0,1,805.293,9.931,10.652,376.860,2.488,7.968
1782115872.257341,0.043000,326763,1000,12,0,1,808.031,9.146,10.719,379.358,-0.392,7.700
1782115872.258341,0.044000,326764,1000,12,0,1,807.959,6.178,10.741,387.405,1.190,7.451
1782115872.259341,0.045000,326765,1000,12,0,1,807.935,2.136,10.692,398.887,5.949,7.241
1782115872.260341,0.046000,326766,1000,12,0,1,810.313,1.247,10.675,400.521,2.887,7.064
1782115872.261341,0.047000,326767,1000,12,0,1,810.097,-1.104,10.653,402.875,-1.729,6.917
1782115872.262341,0.048000,326768,1000,12,0,1,813.268,-1.293,10.646,403.739,-2.914,6.868
1782115872.263341,0.049000,326769,1000,12,0,1,812.163,-2.111,10.598,403.860,-5.325,6.902
1782115872.264341,0.050000,326770,1000,12,0,1,805.990,-8.620,10.527,403.860,-4.461,6.908
1782115872.265341,0.051000,326771,1000,12,0,1,804.957,-9.001,10.292,404.700,-2.279,6.707
1782115872.266341,0.052000,326772,1000,12,0,1,801.906,-8.468,9.853,403.884,0.424,6.324
1782115872.267341,0.053000,326773,1000,12,0,1,793.619,-12.946,9.238,403.595,3.414,5.895
1782115872.268341,0.054000,326774,1000,12,0,1,784.227,-17.000,8.765,393.699,0.171,5.503
1782115872.269341,0.055000,326775,1000,12,0,1,781.777,-14.896,8.481,381.016,-7.545,5.111
1782115872.270341,0.056000,326776,1000,12,0,1,777.525,-11.824,8.321,371.191,-10.520,4.970
1782115872.271341,0.057000,326777,1000,12,0,1,767.797,-15.547,8.330,367.997,-8.531,4.993
1782115872.272341,0.058000,326778,1000,12,0,1,767.965,-11.682,8.448,366.507,-4.813,5.015
1782115872.273341,0.059000,326779,1000,12,0,1,770.487,-3.734,8.323,367.132,-2.095,4.966
1782115872.274341,0.060000,326780,1000,12,0,1,779.735,5.220,8.078,374.578,4.469,4.781
1782115872.275341,0.061000,326781,1000,12,0,1,792.826,18.159,8.295,382.025,9.971,4.757
1782115872.276341,0.062000,326782,1000,12,0,1,796.021,19.333,8.617,386.877,9.552,4.781
1782115872.277341,0.063000,326783,1000,12,0,1,791.914,11.710,8.722,393.795,9.770,4.889
1782115872.278341,0.064000,326784,1000,12,0,1,794.075,8.951,8.793,405.373,12.789,5.195
1782115872.279341,0.065000,326785,1000,12,0,1,796.261,8.526,8.872,411.306,11.944,5.444
1782115872.280341,0.066000,326786,1000,12,0,1,795.709,4.485,8.887,404.292,-0.899,5.431
1782115872.281341,0.067000,326787,1000,12,0,1,813.532,14.838,9.111,391.129,-17.399,5.948
1782115872.282341,0.068000,326788,1000,12,0,1,839.907,35.790,10.398,388.390,-22.352,6.733
1782115872.283341,0.069000,326789,1000,12,0,1,840.868,32.865,11.383,397.494,-12.536,6.953
1782115872.284341,0.070000,326790,1000,12,0,1,833.685,17.879,11.657,401.025,-5.525,6.960
1782115872.285341,0.071000,326791,1000,12,0,1,828.545,10.110,11.743,398.359,-5.410,6.937
1782115872.286341,0.072000,326792,1000,12,0,1,823.309,3.049,11.747,394.684,-4.397,6.902
1782115872.287341,0.073000,326793,1000,12,0,1,821.411,0.919,11.746,394.203,-0.485,6.805
1782115872.288341,0.074000,326794,1000,12,0,1,818.456,-0.361,11.746,389.399,1.615,6.750
1782115872.289341,0.075000,326795,1000,12,0,1,814.733,-2.801,11.751,383.202,0.239,6.707
1782115872.290341,0.076000,326796,1000,12,0,1,812.307,-3.133,11.759,373.666,-2.392,6.700
1782115872.291341,0.077000,326797,1000,12,0,1,808.680,-4.643,11.771,369.630,-3.055,6.710
1782115872.292341,0.078000,326798,1000,12,0,1,805.966,-5.877,11.770,365.691,-1.635,6.674
1782115872.293341,0.079000,326799,1000,12,0,1,800.849,-8.783,11.725,365.090,-1.373,6.617
1782115872.294341,0.080000,326800,1000,12,0,1,800.777,-9.260,11.622,372.176,5.214,6.609
1782115872.295341,0.081000,326801,1000,12,0,1,801.161,-7.644,11.527,380.800,11.197,6.763
1782115872.296341,0.082000,326802,1000,12,0,1,804.668,-6.297,11.506,386.565,11.941,6.971
1782115872.297341,0.083000,326803,1000,12,0,1,809.088,-3.095,11.508,388.606,8.294,7.035
1782115872.298341,0.084000,326804,1000,12,0,1,816.246,0.014,11.505,392.906,4.975,7.033
1782115872.299341,0.085000,326805,1000,12,0,1,822.444,3.063,11.478,402.370,7.407,7.103
1782115872.300341,0.086000,326806,1000,12,0,1,824.101,1.005,11.419,403.619,3.920,7.123
1782115872.301341,0.087000,326807,1000,12,0,1,824.846,-1.906,11.372,399.968,-4.714,7.153
1782115872.302341,0.088000,326808,1000,12,0,1,823.381,-4.915,11.320,399.536,-7.759,7.237
1782115872.303341,0.089000,326809,1000,12,0,1,819.970,-9.284,11.315,401.698,-6.135,7.287
1782115872.304341,0.090000,326810,1000,12,0,1,819.826,-9.175,11.306,402.394,-4.037,7.309
1782115872.305341,0.091000,326811,1000,12,0,1,816.319,-9.828,11.292,400.449,-3.189,7.316
1782115872.306341,0.092000,326812,1000,12,0,1,816.655,-8.185,11.264,398.719,-1.425,7.310
1782115872.307341,0.093000,326813,1000,12,0,1,814.829,-5.221,11.213,396.485,1.242,7.312
1782115872.308341,0.094000,326814,1000,12,0,1,813.340,-4.305,11.196,391.081,1.199,7.312
1782115872.309341,0.095000,326815,1000,12,0,1,809.184,-3.449,11.202,384.163,-0.351,7.263
1782115872.310341,0.096000,326816,1000,12,0,1,802.867,-6.194,11.235,377.653,-1.674,7.256
1782115872.311341,0.097000,326817,1000,12,0,1,798.351,-6.806,11.275,371.576,-3.001,7.264
1782115872.312341,0.098000,326818,1000,12,0,1,795.997,-5.701,11.303,370.783,-1.334,7.255
1782115872.313341,0.099000,326819,1000,12,0,1,797.943,-2.112,11.303,373.185,2.686,7.226
1782115872.314341,0.100000,326820,1000,12,0,1,799.912,1.523,11.239,376.500,4.868,7.231
1782115872.315341,0.101000,326821,1000,12,0,1,803.107,3.350,11.176,382.505,7.458,7.300
1782115872.316341,0.102000,326822,1000,12,0,1,806.926,5.802,11.142,385.796,6.772,7.363
1782115872.317341,0.103000,326823,1000,12,0,1,810.866,6.332,11.027,388.126,2.982,7.359
1782115872.318341,0.104000,326824,1000,12,0,1,813.652,5.960,10.795,395.476,3.566,7.376
1782115872.319341,0.105000,326825,1000,12,0,1,815.334,3.746,10.601,404.436,6.078,7.349
1782115872.320341,0.106000,326826,1000,12,0,1,812.091,-1.549,10.470,405.901,2.592,7.206
1782115872.321341,0.107000,326827,1000,12,0,1,810.457,-6.051,10.273,406.766,-2.152,7.111
1782115872.322341,0.108000,326828,1000,12,0,1,809.232,-7.215,10.190,406.454,-4.338,7.105
1782115872.323341,0.109000,326829,1000,12,0,1,808.872,-7.709,10.235,406.934,-5.461,7.141
1782115872.324341,0.110000,326830,1000,12,0,1,809.929,-5.292,10.235,405.613,-4.915,7.146
1782115872.325341,0.111000,326831,1000,12,0,1,807.047,-5.276,9.936,404.844,-3.805,7.027
1782115872.326341,0.112000,326832,1000,12,0,1,803.876,-5.996,9.590,402.250,-1.818,6.900
1782115872.327341,0.113000,326833,1000,12,0,1,805.125,-1.565,9.448,398.767,-0.956,6.762
1782115872.328341,0.114000,326834,1000,12,0,1,801.762,-0.217,9.363,392.594,-1.151,6.517
1782115872.329341,0.115000,326835,1000,12,0,1,797.943,-1.104,9.287,383.178,-4.518,6.327
1782115872.330341,0.116000,326836,1000,12,0,1,794.820,-0.133,9.265,375.131,-7.021,6.403
1782115872.331341,0.117000,326837,1000,12,0,1,796.477,3.249,9.036,368.213,-8.013,6.019
1782115872.332341,0.118000,326838,1000,12,0,1,798.591,7.675,7.564,367.516,-5.785,5.187
1782115872.333341,0.119000,326839,1000,12,0,1,798.663,7.905,6.071,368.093,-1.952,4.883
1782115872.334341,0.120000,326840,1000,12,0,1,796.405,5.518,5.574,374.458,2.518,4.833
1782115872.335341,0.121000,326841,1000,12,0,1,797.390,4.395,5.423,378.109,5.541,4.836
1782115872.336341,0.122000,326842,1000,12,0,1,799.432,4.771,5.448,383.154,4.740,4.843
1782115872.337341,0.123000,326843,1000,12,0,1,802.867,4.864,5.490,388.895,5.931,4.914
1782115872.338341,0.124000,326844,1000,12,0,1,806.590,5.348,5.542,398.431,7.633,5.026
1782115872.339341,0.125000,326845,1000,12,0,1,811.851,6.315,5.599,402.322,6.638,5.113
1782115872.340341,0.126000,326846,1000,12,0,1,813.700,5.164,5.629,404.220,1.633,5.107
1782115872.341341,0.127000,326847,1000,12,0,1,813.700,1.715,5.596,404.220,-1.800,5.095
1782115872.342341,0.128000,326848,1000,12,0,1,811.971,-1.571,5.538,407.295,-2.428,5.101
1782115872.343341,0.129000,326849,1000,12,0,1,812.715,-2.410,5.408,405.277,-3.585,5.123
1782115872.344341,0.130000,326850,1000,12,0,1,809.353,-4.120,5.279,403.307,-5.417,5.127
1782115872.345341,0.131000,326851,1000,12,0,1,809.953,-3.815,5.195,401.986,-3.281,4.898
1782115872.346341,0.132000,326852,1000,12,0,1,808.944,-1.290,5.122,398.911,-2.071,4.607
1782115872.347341,0.133000,326853,1000,12,0,1,806.758,-1.731,5.109,392.714,-2.718,4.472
1782115872.348341,0.134000,326854,1000,12,0,1,803.323,-1.482,5.113,384.379,-4.613,4.464
1782115872.349341,0.135000,326855,1000,12,0,1,797.919,-3.462,5.118,375.972,-6.654,4.441
1782115872.350341,0.136000,326856,1000,12,0,1,794.532,-3.854,5.145,369.774,-6.407,4.498
1782115872.351341,0.137000,326857,1000,12,0,1,792.970,-2.094,5.147,370.759,-1.589,4.454
1782115872.352341,0.138000,326858,1000,12,0,1,795.156,1.205,5.102,369.990,2.246,4.328
1782115872.353341,0.139000,326859,1000,12,0,1,797.847,5.177,4.985,372.344,3.856,4.275
1782115872.354341,0.140000,326860,1000,12,0,1,800.297,6.298,4.895,376.764,7.815,4.379
1782115872.355341,0.141000,326861,1000,12,0,1,802.002,6.553,4.784,383.250,9.686,4.566
1782115872.356341,0.142000,326862,1000,12,0,1,795.276,-1.003,4.644,390.792,12.005,4.867
1782115872.357341,0.143000,326863,1000,12,0,1,789.992,-8.936,4.756,400.881,14.060,5.255
1782115872.358341,0.144000,326864,1000,12,0,1,793.475,-7.239,4.826,409.264,14.803,5.654
1782115872.359341,0.145000,326865,1000,12,0,1,793.715,-6.997,4.903,410.393,8.706,5.786
1782115872.360341,0.146000,326866,1000,12,0,1,792.370,-9.807,5.019,408.183,-0.121,5.781
1782115872.361341,0.147000,326867,1000,12,0,1,794.988,-7.723,5.046,409.168,-3.868,5.792
1782115872.362341,0.148000,326868,1000,12,0,1,797.534,-4.876,5.028,408.976,-5.856,5.847
1782115872.363341,0.149000,326869,1000,12,0,1,801.330,-1.347,5.023,408.976,-6.606,5.909
1782115872.364341,0.150000,326870,1000,12,0,1,805.509,3.438,5.042,407.727,-5.893,5.928
1782115872.365341,0.151000,326871,1000,12,0,1,813.172,10.168,5.221,403.211,-6.853,5.913
1782115872.366341,0.152000,326872,1000,12,0,1,825.807,21.389,5.978,400.280,-5.704,5.891
1782115872.367341,0.153000,326873,1000,12,0,1,822.204,19.639,6.531,392.137,-6.495,5.947
1782115872.368341,0.154000,326874,1000,12,0,1,813.556,8.973,6.599,383.682,-9.292,6.070
1782115872.369341,0.155000,326875,1000,12,0,1,813.652,9.221,6.706,374.482,-10.218,6.180
1782115872.370341,0.156000,326876,1000,12,0,1,807.527,5.721,6.751,364.538,-13.339,6.451
1782115872.371341,0.157000,326877,1000,12,0,1,800.201,-1.339,6.699,362.448,-10.156,6.602
1782115872.372341,0.158000,326878,1000,12,0,1,797.871,-2.042,6.628,365.354,-2.898,6.586
1782115872.373341,0.159000,326879,1000,12,0,1,798.976,-0.593,6.538,370.999,3.547,6.560
1782115872.374341,0.160000,326880,1000,12,0,1,798.375,-0.418,6.495,379.358,10.230,6.681
1782115872.375341,0.161000,326881,1000,12,0,1,795.925,-3.611,6.472,384.763,12.043,6.874
1782115872.376341,0.162000,326882,1000,12,0,1,797.582,-3.694,6.438,387.525,9.155,6.990
1782115872.377341,0.163000,326883,1000,12,0,1,802.411,-0.806,6.435,396.293,10.006,7.131
1782115872.378341,0.164000,326884,1000,12,0,1,815.045,6.855,6.507,401.482,9.518,7.255
1782115872.379341,0.165000,326885,1000,12,0,1,818.120,8.394,6.613,403.379,3.940,7.248
1782115872.380341,0.166000,326886,1000,12,0,1,814.949,0.050,6.613,405.517,0.857,7.181
1782115872.381341,0.167000,326887,1000,12,0,1,816.126,-1.823,6.602,406.406,-2.103,7.097
1782115872.382341,0.168000,326888,1000,12,0,1,816.270,-3.216,6.528,405.397,-4.791,7.082
1782115872.383341,0.169000,326889,1000,12,0,1,814.973,-5.590,6.480,405.013,-5.305,7.116
1782115872.384341,0.170000,326890,1000,12,0,1,818.624,-2.753,6.445,403.235,-4.736,7.139
1782115872.385341,0.171000,326891,1000,12,0,1,817.039,-2.196,6.422,404.604,-1.043,7.097
1782115872.386341,0.172000,326892,1000,12,0,1,815.093,-3.713,6.408,401.962,1.723,7.070
1782115872.387341,0.173000,326893,1000,12,0,1,811.923,-3.561,6.391,395.644,-0.043,7.020
1782115872.388341,0.174000,326894,1000,12,0,1,805.293,-6.892,6.420,385.508,-3.507,6.954
1782115872.389341,0.175000,326895,1000,12,0,1,796.742,-10.965,6.544,379.022,-5.040,6.927
1782115872.390341,0.176000,326896,1000,12,0,1,792.922,-10.983,6.686,375.659,-2.509,6.933
1782115872.391341,0.177000,326897,1000,12,0,1,792.322,-7.234,6.760,372.609,-1.439,6.931
1782115872.392341,0.178000,326898,1000,12,0,1,793.859,-2.925,6.769,370.903,-0.734,6.923
1782115872.393341,0.179000,326899,1000,12,0,1,795.276,0.425,6.761,375.899,3.737,6.925
1782115872.394341,0.180000,326900,1000,12,0,1,799.048,3.862,6.758,383.850,9.574,7.014
1782115872.395341,0.181000,326901,1000,12,0,1,801.906,6.015,6.789,387.381,9.415,7.124
1782115872.396341,0.182000,326902,1000,12,0,1,805.701,6.847,6.856,392.402,7.556,7.198
1782115872.397341,0.183000,326903,1000,12,0,1,809.881,7.875,6.941,399.776,8.432,7.286
1782115872.398341,0.184000,326904,1000,12,0,1,815.502,8.909,7.052,405.781,7.095,7.326
1782115872.399341,0.185000,326905,1000,12,0,1,818.817,8.344,7.133,407.511,2.808,7.276
1782115872.400341,0.186000,326906,1000,12,0,1,820.210,5.369,7.152,409.625,-1.219,7.221
1782115872.401341,0.187000,326907,1000,12,0,1,816.246,-0.704,7.147,407.295,-5.700,7.263
1782115872.402341,0.188000,326908,1000,12,0,1,812.259,-6.830,7.210,409.336,-6.954,7.322
1782115872.403341,0.189000,326909,1000,12,0,1,808.224,-10.040,7.312,407.967,-5.935,7.350
1782115872.404341,0.190000,326910,1000,12,0,1,802.771,-13.484,7.504,406.526,-6.606,7.326
1782115872.405341,0.191000,326911,1000,12,0,1,799.144,-14.103,7.709,404.556,-3.919,7.218
1782115872.406341,0.192000,326912,1000,12,0,1,798.327,-10.840,7.858,402.827,-1.707,7.020
1782115872.407341,0.193000,326913,1000,12,0,1,791.793,-11.388,7.922,399.031,0.309,6.733
1782115872.408341,0.194000,326914,1000,12,0,1,784.227,-13.959,8.099,391.969,-1.043,6.400
1782115872.409341,0.195000,326915,1000,12,0,1,781.368,-11.304,8.196,383.706,-3.711,6.303
1782115872.410341,0.196000,326916,1000,12,0,1,781.489,-6.030,8.123,377.989,-4.315,6.332
1782115872.411341,0.197000,326917,1000,12,0,1,783.891,-0.098,8.049,377.101,-1.829,6.314
1782115872.412341,0.198000,326918,1000,12,0,1,785.380,4.246,8.042,377.245,1.058,6.261
1782115872.413341,0.199000,326919,1000,12,0,1,786.269,5.768,8.081,379.094,2.329,6.200
1782115872.414341,0.200000,326920,1000,12,0,1,789.968,8.684,8.159,381.905,3.708,6.166
1782115872.415341,0.201000,326921,1000,12,0,1,793.883,10.900,8.178,386.925,4.341,6.120
1782115872.416341,0.202000,326922,1000,12,0,1,797.270,11.152,7.760,391.129,4.169,6.095
1782115872.417341,0.203000,326923,1000,12,0,1,800.633,10.744,7.404,397.254,3.482,6.046
1782115872.418341,0.204000,326924,1000,12,0,1,805.677,11.102,7.461,403.403,3.871,5.927
1782115872.419341,0.205000,326925,1000,12,0,1,803.251,6.291,7.400,405.397,0.347,5.748
1782115872.420341,0.206000,326926,1000,12,0,1,791.553,-7.156,7.425,404.580,-4.792,5.472
1782115872.421341,0.207000,326927,1000,12,0,1,780.432,-18.260,7.859,403.331,-8.446,5.413
1782115872.422341,0.208000,326928,1000,12,0,1,774.859,-21.548,8.424,404.340,-8.437,5.528
1782115872.423341,0.209000,326929,1000,12,0,1,783.338,-12.013,8.593,401.938,-8.419,5.632
1782115872.424341,0.210000,326930,1000,12,0,1,789.463,-1.112,8.595,397.878,-9.725,5.615
1782115872.425341,0.211000,326931,1000,12,0,1,793.643,3.601,8.594,393.170,-8.907,5.496
1782115872.426341,0.212000,326932,1000,12,0,1,792.898,6.458,8.627,390.888,-5.947,5.407
1782115872.427341,0.213000,326933,1000,12,0,1,792.514,6.586,8.676,385.340,-3.739,5.246
1782115872.428341,0.214000,326934,1000,12,0,1,786.653,4.887,8.650,378.302,-4.547,5.111
1782115872.429341,0.215000,326935,1000,12,0,1,770.511,-7.016,8.625,374.506,-2.109,5.089
1782115872.430341,0.216000,326936,1000,12,0,1,765.491,-10.204,8.745,372.152,0.916,5.089
1782115872.431341,0.217000,326937,1000,12,0,1,768.758,-2.118,8.746,376.068,6.829,5.171
1782115872.432341,0.218000,326938,1000,12,0,1,788.455,14.779,8.981,373.353,7.645,5.240
1782115872.433341,0.219000,326939,1000,12,0,1,804.765,31.594,10.000,370.783,2.973,5.203
1782115872.434341,0.220000,326940,1000,12,0,1,813.964,33.444,11.055,376.356,6.371,5.237
1782115872.435341,0.221000,326941,1000,12,0,1,817.952,31.703,11.926,382.313,8.574,5.374
1782115872.436341,0.222000,326942,1000,12,0,1,819.393,24.775,12.419,385.484,6.606,5.449
1782115872.437341,0.223000,326943,1000,12,0,1,821.291,19.343,12.706,391.513,5.870,5.512
1782115872.438341,0.224000,326944,1000,12,0,1,823.645,14.688,12.838,397.758,6.127,5.558
1782115872.439341,0.225000,326945,1000,12,0,1,831.187,14.271,12.903,401.482,3.974,5.540
1782115872.440341,0.226000,326946,1000,12,0,1,841.636,18.172,13.064,401.457,-0.388,5.529
1782115872.441341,0.227000,326947,1000,12,0,1,851.533,20.366,13.339,401.626,-3.548,5.548
1782115872.442341,0.228000,326948,1000,12,0,1,844.687,10.843,13.420,400.905,-4.874,5.590
1782115872.443341,0.229000,326949,1000,12,0,1,842.165,0.829,13.421,401.433,-4.084,5.595
1782115872.444341,0.230000,326950,1000,12,0,1,838.057,-2.145,13.413,401.602,-1.375,5.432
1782115872.445341,0.231000,326951,1000,12,0,1,827.920,-12.910,13.510,398.767,-0.517,5.267
1782115872.446341,0.232000,326952,1000,12,0,1,819.081,-18.959,13.739,396.317,0.936,5.159
1782115872.447341,0.233000,326953,1000,12,0,1,811.154,-22.694,14.065,389.327,0.220,5.019
1782115872.448341,0.234000,326954,1000,12,0,1,803.299,-25.334,14.460,380.608,-3.412,4.942
1782115872.449341,0.235000,326955,1000,12,0,1,796.910,-25.806,14.866,373.906,-4.124,4.960
1782115872.450341,0.236000,326956,1000,12,0,1,792.346,-24.924,15.260,365.715,-6.448,5.040
1782115872.451341,0.237000,326957,1000,12,0,1,788.455,-23.068,15.604,366.339,-3.422,4.999
1782115872.452341,0.238000,326958,1000,12,0,1,784.251,-22.712,15.902,368.021,1.819,4.908
1782115872.453341,0.239000,326959,1000,12,0,1,788.671,-16.187,16.003,372.561,4.593,4.879
1782115872.454341,0.240000,326960,1000,12,0,1,807.431,1.468,15.890,376.476,7.260,4.898
1782115872.455341,0.241000,326961,1000,12,0,1,824.582,17.001,15.947,376.068,2.992,4.884
1782115872.456341,0.242000,326962,1000,12,0,1,831.019,18.462,16.086,378.710,0.351,4.879
1782115872.457341,0.243000,326963,1000,12,0,1,832.605,14.113,16.130,387.429,3.237,4.900
1782115872.458341,0.244000,326964,1000,12,0,1,829.866,6.646,16.036,395.644,5.736,4.964
1782115872.459341,0.245000,326965,1000,12,0,1,824.942,-2.125,15.959,397.830,2.922,4.954
1782115872.460341,0.246000,326966,1000,12,0,1,825.735,-4.564,15.949,402.466,1.463,4.921
1782115872.461341,0.247000,326967,1000,12,0,1,830.371,-1.325,15.950,402.034,-0.330,4.914
1782115872.462341,0.248000,326968,1000,12,0,1,832.364,0.210,15.939,398.887,-5.610,4.975
1782115872.463341,0.249000,326969,1000,12,0,1,829.938,-1.732,15.920,395.548,-7.068,5.064
1782115872.464341,0.250000,326970,1000,12,0,1,827.440,-3.258,15.879,395.644,-5.167,5.090
1782115872.465341,0.251000,326971,1000,12,0,1,823.453,-4.308,15.816,397.182,0.573,5.053
1782115872.466341,0.252000,326972,1000,12,0,1,822.204,-3.397,15.744,395.092,3.112,5.038
1782115872.467341,0.253000,326973,1000,12,0,1,819.537,-1.856,15.673,386.589,0.283,5.014
1782115872.468341,0.254000,326974,1000,12,0,1,812.331,-5.288,15.612,379.022,-2.370,4.995
1782115872.469341,0.255000,326975,1000,12,0,1,805.461,-8.487,15.633,369.942,-4.794,5.041
1782115872.470341,0.256000,326976,1000,12,0,1,796.718,-12.273,15.696,363.000,-7.026,5.093
1782115872.471341,0.257000,326977,1000,12,0,1,790.809,-14.962,15.626,359.830,-5.704,5.016
1782115872.472341,0.258000,326978,1000,12,0,1,783.939,-16.695,15.507,356.755,-5.491,4.933
1782115872.473341,0.259000,326979,1000,12,0,1,775.075,-21.877,15.721,358.268,-3.788,4.818
1782115872.474341,0.260000,326980,1000,12,0,1,770.847,-22.799,16.048,363.793,0.979,4.619
1782115872.475341,0.261000,326981,1000,12,0,1,766.115,-23.179,16.371,368.717,2.891,4.463
1782115872.476341,0.262000,326982,1000,12,0,1,754.922,-29.599,16.873,372.585,2.565,4.398
1782115872.477341,0.263000,326983,1000,12,0,1,753.000,-29.266,17.348,377.197,1.778,4.373
1782115872.478341,0.264000,326984,1000,12,0,1,759.990,-18.323,17.527,383.826,2.834,4.344
1782115872.479341,0.265000,326985,1000,12,0,1,770.343,-6.358,17.522,385.388,0.517,4.335
1782115872.480341,0.266000,326986,1000,12,0,1,785.572,8.503,17.504,387.477,-2.167,4.343
1782115872.481341,0.267000,326987,1000,12,0,1,810.554,29.436,17.990,387.429,-3.252,4.260
1782115872.482341,0.268000,326988,1000,12,0,1,840.988,53.328,19.394,387.405,-4.491,4.169
1782115872.483341,0.269000,326989,1000,12,0,1,858.859,64.227,20.945,387.598,-2.528,4.163
1782115872.484341,0.270000,326990,1000,12,0,1,878.220,70.046,22.681,388.606,0.529,4.065
1782115872.485341,0.271000,326991,1000,12,0,1,888.597,71.951,24.452,388.318,4.100,3.923
1782115872.486341,0.272000,326992,1000,12,0,1,885.186,57.593,25.533,384.427,4.697,3.868
1782115872.487341,0.273000,326993,1000,12,0,1,875.914,40.798,26.034,377.605,2.913,3.800
1782115872.488341,0.274000,326994,1000,12,0,1,856.769,18.231,26.078,373.473,3.338,3.730
1782115872.489341,0.275000,326995,1000,12,0,1,848.506,4.819,26.009,369.894,4.735,3.747
1782115872.490341,0.276000,326996,1000,12,0,1,855.568,10.182,25.922,370.231,7.526,3.895
1782115872.491341,0.277000,326997,1000,12,0,1,852.686,7.334,25.782,373.113,11.976,4.218
1782115872.492341,0.278000,326998,1000,12,0,1,839.474,-7.183,25.757,378.518,15.766,4.721
1782115872.493341,0.279000,326999,1000,12,0,1,829.338,-18.295,25.886,382.769,17.153,5.276
1782115872.494341,0.280000,327000,1000,12,0,1,824.053,-23.329,26.094,387.814,16.269,5.753
1782115872.495341,0.281000,327001,1000,12,0,1,826.119,-22.414,26.222,394.419,15.893,6.176
1782115872.496341,0.282000,327002,1000,12,0,1,818.649,-27.229,26.367,400.016,13.625,6.468
1782115872.497341,0.283000,327003,1000,12,0,1,809.545,-37.353,26.699,406.093,10.777,6.645
1782115872.498341,0.284000,327004,1000,12,0,1,811.274,-35.002,26.917,409.216,6.547,6.692
1782115872.499341,0.285000,327005,1000,12,0,1,812.211,-31.767,27.044,410.273,0.264,6.667
1782115872.500341,0.286000,327006,1000,12,0,1,810.698,-31.993,27.192,409.913,-4.767,6.638
1782115872.501341,0.287000,327007,1000,12,0,1,816.487,-25.357,27.233,406.190,-10.991,6.801
1782115872.502341,0.288000,327008,1000,12,0,1,821.003,-17.944,27.162,404.724,-13.506,7.059
1782115872.503341,0.289000,327009,1000,12,0,1,820.402,-16.100,27.161,403.139,-12.839,7.260
1782115872.504341,0.290000,327010,1000,12,0,1,819.321,-14.142,27.233,400.713,-12.206,7.391
1782115872.505341,0.291000,327011,1000,12,0,1,817.784,-11.293,27.174,397.806,-10.187,7.518
1782115872.506341,0.292000,327012,1000,12,0,1,818.048,-6.968,27.066,398.047,-5.524,7.559
1782115872.507341,0.293000,327013,1000,12,0,1,813.556,-4.953,27.002,392.738,-3.803,7.564
1782115872.508341,0.294000,327014,1000,12,0,1,808.440,-5.404,26.996,379.839,-10.395,7.663
1782115872.509341,0.295000,327015,1000,12,0,1,802.314,-4.651,27.002,371.071,-13.567,7.888
1782115872.510341,0.296000,327016,1000,12,0,1,799.816,-2.724,26.997,367.420,-11.140,8.042
1782115872.511341,0.297000,327017,1000,12,0,1,801.354,3.560,27.001,365.979,-8.347,8.128
1782115872.512341,0.298000,327018,1000,12,0,1,802.266,7.521,27.022,367.853,-4.211,8.111
1782115872.513341,0.299000,327019,1000,12,0,1,807.455,12.653,27.080,371.191,-0.577,8.049
1782115872.514341,0.300000,327020,1000,12,0,1,808.392,14.398,27.153,377.989,3.581,8.032
1782115872.515341,0.301000,327021,1000,12,0,1,812.427,14.116,27.219,382.673,5.214,8.065
1782115872.516341,0.302000,327022,1000,12,0,1,816.775,16.076,27.310,386.132,3.204,8.066
1782115872.517341,0.303000,327023,1000,12,0,1,821.171,14.609,27.387,394.876,5.424,8.102
1782115872.518341,0.304000,327024,1000,12,0,1,823.501,12.614,27.435,400.497,6.119,8.142
1782115872.519341,0.305000,327025,1000,12,0,1,820.810,5.362,27.419,401.698,1.693,8.117
1782115872.520341,0.306000,327026,1000,12,0,1,821.579,1.230,27.364,402.899,-1.042,8.057
1782115872.521341,0.307000,327027,1000,12,0,1,818.841,-2.532,27.285,399.560,-5.511,8.054
1782115872.522341,0.308000,327028,1000,12,0,1,815.502,-8.031,27.206,396.653,-8.862,8.114
1782115872.523341,0.309000,327029,1000,12,0,1,815.838,-7.093,27.048,394.516,-8.209,8.179
1782115872.524341,0.310000,327030,1000,12,0,1,813.100,-7.666,26.877,391.873,-7.139,8.240
1782115872.525341,0.311000,327031,1000,12,0,1,816.343,-3.661,26.682,390.408,-3.776,8.248
1782115872.526341,0.312000,327032,1000,12,0,1,815.574,0.347,26.351,388.438,-0.139,8.240
1782115872.527341,0.313000,327033,1000,12,0,1,808.320,-3.694,26.029,377.389,-3.635,8.252
1782115872.528341,0.314000,327034,1000,12,0,1,798.567,-8.021,25.925,369.078,-6.975,8.301
1782115872.529341,0.315000,327035,1000,12,0,1,787.854,-12.890,25.973,357.812,-9.432,8.407
1782115872.530341,0.316000,327036,1000,12,0,1,785.500,-10.560,25.989,349.213,-13.092,8.603
1782115872.531341,0.317000,327037,1000,12,0,1,790.112,-1.147,25.653,348.564,-8.473,8.674
1782115872.532341,0.318000,327038,1000,12,0,1,795.228,6.469,24.537,351.999,-2.263,8.657
1782115872.533341,0.319000,327039,1000,12,0,1,796.742,9.282,22.832,360.334,5.488,8.684
1782115872.534341,0.320000,327040,1000,12,0,1,787.782,1.646,20.572,367.108,10.644,8.813
1782115872.535341,0.321000,327041,1000,12,0,1,779.639,-7.476,17.910,373.281,11.325,8.939
1782115872.536341,0.322000,327042,1000,12,0,1,782.209,-5.865,15.973,380.704,12.920,9.099
1782115872.537341,0.323000,327043,1000,12,0,1,797.438,6.029,14.919,386.084,11.525,9.235
1782115872.538341,0.324000,327044,1000,12,0,1,825.879,27.480,15.200,387.237,6.820,9.273
1782115872.539341,0.325000,327045,1000,12,0,1,847.665,42.213,16.316,386.829,1.012,9.250
1782115872.540341,0.326000,327046,1000,12,0,1,849.251,35.195,16.997,386.373,-2.645,9.196
1782115872.541341,0.327000,327047,1000,12,0,1,841.660,19.170,17.181,386.469,-4.211,9.058
1782115872.542341,0.328000,327048,1000,12,0,1,838.706,9.515,17.203,387.165,-3.291,8.792
1782115872.543341,0.329000,327049,1000,12,0,1,836.664,4.655,17.020,387.622,-1.107,8.452
1782115872.544341,0.330000,327050,1000,12,0,1,834.862,0.833,16.698,386.469,0.828,8.134
1782115872.545341,0.331000,327051,1000,12,0,1,848.482,10.651,16.463,383.922,2.261,7.824
1782115872.546341,0.332000,327052,1000,12,0,1,858.883,21.655,16.297,378.542,2.032,7.588
1782115872.547341,0.333000,327053,1000,12,0,1,855.712,16.813,15.599,368.958,-1.505,7.437
1782115872.548341,0.334000,327054,1000,12,0,1,848.026,8.581,14.843,360.406,-4.482,7.406
1782115872.549341,0.335000,327055,1000,12,0,1,836.232,-1.622,14.149,353.897,-4.862,7.438
1782115872.550341,0.336000,327056,1000,12,0,1,819.441,-15.025,13.573,352.864,-2.085,7.413
1782115872.551341,0.337000,327057,1000,12,0,1,796.357,-31.592,13.832,362.664,8.709,7.352
1782115872.552341,0.338000,327058,1000,12,0,1,777.933,-43.822,14.943,372.320,18.129,7.548
1782115872.553341,0.339000,327059,1000,12,0,1,760.374,-50.867,16.427,382.505,22.793,8.004
1782115872.554341,0.340000,327060,1000,12,0,1,766.596,-41.497,17.329,388.246,23.097,8.471
1782115872.555341,0.341000,327061,1000,12,0,1,775.916,-23.147,17.563,393.747,19.190,8.778
1782115872.556341,0.342000,327062,1000,12,0,1,779.879,-18.037,17.720,400.040,17.040,9.069
1782115872.557341,0.343000,327063,1000,12,0,1,793.139,-5.697,17.725,405.253,13.010,9.238
1782115872.558341,0.344000,327064,1000,12,0,1,807.407,6.784,17.734,410.177,9.399,9.217
1782115872.559341,0.345000,327065,1000,12,0,1,810.530,6.962,17.749,413.708,5.831,9.053
1782115872.560341,0.346000,327066,1000,12,0,1,807.695,0.806,17.745,409.288,-2.683,8.922
1782115872.561341,0.347000,327067,1000,12,0,1,812.091,0.837,17.739,402.202,-12.326,9.014
1782115872.562341,0.348000,327068,1000,12,0,1,813.148,2.279,17.710,392.834,-19.812,9.421
1782115872.563341,0.349000,327069,1000,12,0,1,807.239,-4.055,17.628,387.718,-22.114,9.926
1782115872.564341,0.350000,327070,1000,12,0,1,811.610,-0.122,17.510,379.575,-22.544,10.413
1782115872.565341,0.351000,327071,1000,12,0,1,812.139,4.632,17.408,372.825,-22.734,10.873
1782115872.566341,0.352000,327072,1000,12,0,1,808.464,2.965,17.264,369.774,-17.124,11.130
1782115872.567341,0.353000,327073,1000,12,0,1,796.958,-1.964,17.143,367.925,-11.117,11.215
1782115872.568341,0.354000,327074,1000,12,0,1,780.263,-12.502,17.141,365.931,-6.063,11.214
1782115872.569341,0.355000,327075,1000,12,0,1,761.167,-21.898,17.402,361.103,-4.463,11.229
1782115872.570341,0.356000,327076,1000,12,0,1,763.329,-14.999,17.530,357.548,-4.247,11.244
1782115872.571341,0.357000,327077,1000,12,0,1,790.736,16.130,17.674,357.980,-1.037,11.218
1782115872.572341,0.358000,327078,1000,12,0,1,835.895,56.571,19.367,361.535,2.642,11.154
1782115872.573341,0.359000,327079,1000,12,0,1,877.908,88.937,23.071,363.409,3.833,11.107
1782115872.574341,0.360000,327080,1000,12,0,1,899.118,94.926,26.671,365.835,2.614,11.067
1782115872.575341,0.361000,327081,1000,12,0,1,899.406,77.385,28.824,366.099,-0.012,11.054
1782115872.576341,0.362000,327082,1000,12,0,1,885.378,47.424,29.594,377.149,3.540,11.066
1782115872.577341,0.363000,327083,1000,12,0,1,866.474,15.096,29.666,390.240,12.097,11.185
1782115872.578341,0.364000,327084,1000,12,0,1,853.887,-7.060,29.661,400.977,14.948,11.340
1782115872.579341,0.365000,327085,1000,12,0,1,845.984,-20.343,29.745,405.733,14.276,11.441
1782115872.580341,0.366000,327086,1000,12,0,1,835.055,-32.475,30.060,408.303,10.654,11.391
1782115872.581341,0.367000,327087,1000,12,0,1,818.600,-46.802,30.780,408.568,7.904,11.382
1782115872.582341,0.368000,327088,1000,12,0,1,805.077,-55.692,31.758,409.144,6.222,11.412
1782115872.583341,0.369000,327089,1000,12,0,1,802.026,-52.205,32.579,404.100,2.736,11.392
1782115872.584341,0.370000,327090,1000,12,0,1,801.834,-43.220,33.146,399.007,-0.846,11.293
1782115872.585341,0.371000,327091,1000,12,0,1,800.345,-36.108,33.521,395.212,-0.514,11.179
1782115872.586341,0.372000,327092,1000,12,0,1,798.399,-29.145,33.763,390.576,-0.394,11.029
1782115872.587341,0.373000,327093,1000,12,0,1,801.402,-19.174,33.861,386.397,-0.016,10.907
1782115872.588341,0.374000,327094,1000,12,0,1,797.630,-13.694,33.693,374.074,-5.270,10.890
1782115872.589341,0.375000,327095,1000,12,0,1,787.374,-17.225,33.249,360.262,-14.512,11.081
1782115872.590341,0.376000,327096,1000,12,0,1,785.740,-13.640,32.931,352.936,-16.277,11.311
1782115872.591341,0.377000,327097,1000,12,0,1,788.142,-5.473,32.828,350.269,-14.875,11.490
1782115872.592341,0.378000,327098,1000,12,0,1,794.916,2.902,32.803,353.512,-9.751,11.563
1782115872.593341,0.379000,327099,1000,12,0,1,806.182,14.290,32.859,357.524,-5.140,11.585
1782115872.594341,0.380000,327100,1000,12,0,1,808.608,16.072,32.937,364.658,-1.117,11.585
1782115872.595341,0.381000,327101,1000,12,0,1,804.789,9.205,32.929,370.807,1.930,11.584
1782115872.596341,0.382000,327102,1000,12,0,1,801.882,3.609,32.790,387.405,9.826,11.664
1782115872.597341,0.383000,327103,1000,12,0,1,816.463,11.574,32.744,395.572,14.165,11.832
1782115872.598341,0.384000,327104,1000,12,0,1,833.517,25.106,32.914,396.101,6.351,11.850
1782115872.599341,0.385000,327105,1000,12,0,1,832.941,20.118,33.036,397.518,2.823,11.836
1782115872.600341,0.386000,327106,1000,12,0,1,825.518,7.689,32.985,399.320,0.682,11.833
1782115872.601341,0.387000,327107,1000,12,0,1,820.714,0.559,32.682,396.317,-2.983,11.776
1782115872.602341,0.388000,327108,1000,12,0,1,836.784,10.939,32.126,390.864,-7.527,11.543
1782115872.603341,0.389000,327109,1000,12,0,1,861.477,33.129,31.659,383.514,-11.010,11.193
1782115872.604341,0.390000,327110,1000,12,0,1,871.974,39.344,31.604,378.229,-11.101,10.820
1782115872.605341,0.391000,327111,1000,12,0,1,856.505,22.663,31.597,378.278,-5.314,10.501
1782115872.606341,0.392000,327112,1000,12,0,1,841.516,3.669,31.498,372.897,-2.296,10.226
1782115872.607341,0.393000,327113,1000,12,0,1,832.773,-2.774,31.490,365.691,-3.805,10.073
1782115872.608341,0.394000,327114,1000,12,0,1,819.681,-12.140,31.522,356.058,-5.336,10.014
1782115872.609341,0.395000,327115,1000,12,0,1,803.732,-22.959,31.674,353.176,-4.375,9.999
1782115872.610341,0.396000,327116,1000,12,0,1,796.742,-25.369,31.876,356.539,3.477,10.004
1782115872.611341,0.397000,327117,1000,12,0,1,798.375,-18.883,31.987,360.815,8.602,9.926
1782115872.612341,0.398000,327118,1000,12,0,1,816.006,-1.416,31.986,366.507,12.631,9.688
1782115872.613341,0.399000,327119,1000,12,0,1,838.562,19.744,32.103,374.939,16.497,9.462
1782115872.614341,0.400000,327120,1000,12,0,1,837.168,17.200,32.195,378.157,14.717,9.148
1782115872.615341,0.401000,327121,1000,12,0,1,819.249,-5.039,32.196,386.445,13.747,8.782
1782115872.616341,0.402000,327122,1000,12,0,1,804.524,-21.568,32.338,397.974,17.327,8.790
1782115872.617341,0.403000,327123,1000,12,0,1,806.830,-21.968,32.485,401.698,13.220,8.848
1782115872.618341,0.404000,327124,1000,12,0,1,814.565,-13.369,32.492,404.052,6.928,8.861
1782115872.619341,0.405000,327125,1000,12,0,1,812.475,-14.800,32.412,406.142,3.524,8.853
1782115872.620341,0.406000,327126,1000,12,0,1,806.302,-20.211,32.468,408.207,0.679,8.833
1782115872.621341,0.407000,327127,1000,12,0,1,793.355,-28.286,32.634,411.810,1.815,8.835
1782115872.622341,0.408000,327128,1000,12,0,1,784.635,-33.089,31.983,413.324,2.623,8.835
1782115872.623341,0.409000,327129,1000,12,0,1,780.215,-29.236,29.695,412.459,2.527,8.826
1782115872.624341,0.410000,327130,1000,12,0,1,774.426,-26.714,26.755,409.913,2.253,8.824
1782115872.625341,0.411000,327131,1000,12,0,1,763.065,-27.332,24.719,404.316,0.522,8.824
1782115872.626341,0.412000,327132,1000,12,0,1,753.192,-27.536,24.108,392.234,-5.738,8.847
1782115872.627341,0.413000,327133,1000,12,0,1,763.281,-10.761,24.062,383.298,-9.923,8.793
1782115872.628341,0.414000,327134,1000,12,0,1,766.836,3.871,24.047,373.137,-12.313,8.711
1782115872.629341,0.415000,327135,1000,12,0,1,759.414,1.436,23.875,369.174,-12.398,8.653
1782115872.630341,0.416000,327136,1000,12,0,1,756.915,3.575,23.435,366.988,-8.857,8.612
1782115872.631341,0.417000,327137,1000,12,0,1,768.493,15.831,22.592,369.894,-5.372,8.573
1782115872.632341,0.418000,327138,1000,12,0,1,801.282,43.916,22.067,373.521,-0.796,8.529
1782115872.633341,0.419000,327139,1000,12,0,1,842.813,76.309,23.428,378.350,0.722,8.521
1782115872.634341,0.420000,327140,1000,12,0,1,861.093,83.593,25.520,383.394,1.948,8.524
1782115872.635341,0.421000,327141,1000,12,0,1,875.289,77.847,27.321,390.672,2.916,8.534
1782115872.636341,0.422000,327142,1000,12,0,1,893.593,78.351,29.192,398.551,4.318,8.556
1782115872.637341,0.423000,327143,1000,12,0,1,889.990,60.281,30.291,402.418,2.159,8.561
1782115872.638341,0.424000,327144,1000,12,0,1,871.446,27.375,30.476,407.343,0.119,8.529
1782115872.639341,0.425000,327145,1000,12,0,1,865.104,9.430,30.407,411.354,0.180,8.278
1782115872.640341,0.426000,327146,1000,12,0,1,857.154,-2.345,30.348,412.843,-1.911,7.956
1782115872.641341,0.427000,327147,1000,12,0,1,844.759,-17.627,30.440,412.531,-2.998,7.685
1782115872.642341,0.428000,327148,1000,12,0,1,838.778,-23.625,30.620,414.429,-1.440,7.563
1782115872.643341,0.429000,327149,1000,12,0,1,837.577,-22.264,30.715,413.348,0.626,7.528
1782115872.644341,0.430000,327150,1000,12,0,1,838.418,-18.582,30.744,410.273,0.409,7.527
1782115872.645341,0.431000,327151,1000,12,0,1,834.935,-17.279,30.813,406.334,1.340,7.524
1782115872.646341,0.432000,327152,1000,12,0,1,826.623,-21.327,30.956,400.929,1.013,7.396
1782115872.647341,0.433000,327153,1000,12,0,1,816.775,-25.624,31.125,395.044,0.386,7.120
1782115872.648341,0.434000,327154,1000,12,0,1,808.728,-28.384,31.181,386.949,-2.067,7.069
1782115872.649341,0.435000,327155,1000,12,0,1,805.509,-26.478,31.276,381.160,-4.107,7.082
1782115872.650341,0.436000,327156,1000,12,0,1,806.758,-21.194,31.400,380.944,-1.473,7.084
1782115872.651341,0.437000,327157,1000,12,0,1,809.953,-15.320,31.475,383.058,1.560,7.075
1782115872.652341,0.438000,327158,1000,12,0,1,815.310,-9.488,31.465,388.943,5.374,7.035
1782115872.653341,0.439000,327159,1000,12,0,1,823.285,-2.896,31.117,392.834,6.409,6.921
1782115872.654341,0.440000,327160,1000,12,0,1,826.599,-1.034,30.616,395.428,3.407,6.757
1782115872.655341,0.441000,327161,1000,12,0,1,830.491,-1.342,30.449,401.890,3.211,6.731
1782115872.656341,0.442000,327162,1000,12,0,1,835.079,0.382,30.444,408.423,3.297,6.739
1782115872.657341,0.443000,327163,1000,12,0,1,835.367,-2.060,30.443,413.900,1.727,6.722
1782115872.658341,0.444000,327164,1000,12,0,1,833.013,-6.296,30.408,416.014,-1.427,6.683
1782115872.659341,0.445000,327165,1000,12,0,1,833.253,-7.249,30.251,414.861,-6.765,6.722
1782115872.660341,0.446000,327166,1000,12,0,1,833.013,-6.502,30.052,411.810,-11.314,6.893
1782115872.661341,0.447000,327167,1000,12,0,1,832.412,-5.827,29.944,411.498,-11.855,6.988
1782115872.662341,0.448000,327168,1000,12,0,1,827.104,-7.271,29.961,410.417,-9.845,6.898
1782115872.663341,0.449000,327169,1000,12,0,1,823.741,-7.780,29.851,410.850,-6.438,6.555
1782115872.664341,0.450000,327170,1000,12,0,1,821.963,-4.457,29.758,409.480,-2.234,6.224
1782115872.665341,0.451000,327171,1000,12,0,1,820.882,-1.433,29.751,406.934,0.061,5.913
1782115872.666341,0.452000,327172,1000,12,0,1,818.841,1.092,29.594,400.521,0.266,5.381
1782115872.667341,0.453000,327173,1000,12,0,1,814.445,0.666,29.431,390.792,-3.386,5.069
1782115872.668341,0.454000,327174,1000,12,0,1,804.789,-4.473,29.377,385.532,-3.606,4.999
1782115872.669341,0.455000,327175,1000,12,0,1,801.666,-5.815,29.314,383.346,-0.717,4.975
1782115872.670341,0.456000,327176,1000,12,0,1,808.007,2.058,29.176,382.529,1.045,4.977
1782115872.671341,0.457000,327177,1000,12,0,1,814.757,8.877,28.927,384.955,4.102,5.004
1782115872.672341,0.458000,327178,1000,12,0,1,821.819,12.848,28.604,389.735,7.100,5.090
1782115872.673341,0.459000,327179,1000,12,0,1,825.855,13.719,28.370,393.435,7.542,5.188
1782115872.674341,0.460000,327180,1000,12,0,1,830.299,12.224,28.170,397.902,6.322,5.255
1782115872.675341,0.461000,327181,1000,12,0,1,836.112,12.821,27.963,403.715,5.929,5.321
1782115872.676341,0.462000,327182,1000,12,0,1,842.813,13.120,27.752,409.552,4.869,5.304
1782115872.677341,0.463000,327183,1000,12,0,1,842.837,9.186,27.741,413.828,2.750,5.129
1782115872.678341,0.464000,327184,1000,12,0,1,838.081,0.296,27.736,415.101,-1.276,4.828
1782115872.679341,0.465000,327185,1000,12,0,1,838.225,-2.455,27.737,413.900,-6.122,4.581
1782115872.680341,0.466000,327186,1000,12,0,1,839.306,-1.571,27.734,416.158,-6.519,4.502
1782115872.681341,0.467000,327187,1000,12,0,1,836.352,-3.730,27.648,414.573,-6.735,4.538
1782115872.682341,0.468000,327188,1000,12,0,1,830.659,-7.021,26.960,412.507,-7.722,4.667
1782115872.683341,0.469000,327189,1000,12,0,1,827.776,-7.278,24.727,411.498,-4.709,4.713
1782115872.684341,0.470000,327190,1000,12,0,1,825.302,-5.166,21.730,410.753,-1.208,4.708
1782115872.685341,0.471000,327191,1000,12,0,1,825.422,-1.964,18.737,405.565,-0.184,4.690
1782115872.686341,0.472000,327192,1000,12,0,1,820.210,-1.716,15.112,398.719,-1.567,4.655
1782115872.687341,0.473000,327193,1000,12,0,1,815.982,-3.755,12.489,388.919,-4.300,4.685
1782115872.688341,0.474000,327194,1000,12,0,1,814.709,-1.560,11.875,380.920,-6.803,4.782
1782115872.689341,0.475000,327195,1000,12,0,1,812.307,-1.874,11.803,378.085,-4.620,4.827
1782115872.690341,0.476000,327196,1000,12,0,1,811.274,-2.208,11.803,379.431,-0.129,4.819
1782115872.691341,0.477000,327197,1000,12,0,1,812.571,-0.989,11.537,382.793,4.082,4.835
1782115872.692341,0.478000,327198,1000,12,0,1,821.435,4.633,11.062,386.877,6.778,4.925
1782115872.693341,0.479000,327199,1000,12,0,1,821.915,4.786,10.626,391.969,7.959,5.051
1782115872.694341,0.480000,327200,1000,12,0,1,816.559,-4.633,10.317,398.047,8.724,5.199
1782115872.695341,0.481000,327201,1000,12,0,1,815.430,-8.052,10.088,402.995,7.321,5.298
1782115872.696341,0.482000,327202,1000,12,0,1,818.024,-7.698,9.688,409.384,6.348,5.372
1782115872.697341,0.483000,327203,1000,12,0,1,822.204,-5.120,9.014,410.513,2.222,5.381
1782115872.698341,0.484000,327204,1000,12,0,1,826.864,-1.893,8.075,412.987,-1.874,5.379
1782115872.699341,0.485000,327205,1000,12,0,1,827.824,-1.181,7.156,409.144,-6.932,5.437
1782115872.700341,0.486000,327206,1000,12,0,1,828.545,-0.853,6.500,407.391,-11.571,5.674
1782115872.701341,0.487000,327207,1000,12,0,1,823.669,-3.078,6.143,407.799,-9.107,5.814
1782115872.702341,0.488000,327208,1000,12,0,1,817.976,-6.661,6.069,405.541,-8.603,5.891
1782115872.703341,0.489000,327209,1000,12,0,1,819.802,-2.031,6.061,401.361,-8.110,5.933
1782115872.704341,0.490000,327210,1000,12,0,1,818.576,1.864,6.065,398.767,-5.362,5.962
1782115872.705341,0.491000,327211,1000,12,0,1,812.523,-0.521,6.063,392.402,-4.405,5.977
1782115872.706341,0.492000,327212,1000,12,0,1,797.799,-8.474,6.180,387.670,-3.228,5.976
1782115872.707341,0.493000,327213,1000,12,0,1,793.403,-10.677,6.355,379.503,-3.390,5.991
1782115872.708341,0.494000,327214,1000,12,0,1,801.882,2.000,6.299,373.930,-4.012,6.014
1782115872.709341,0.495000,327215,1000,12,0,1,813.052,13.780,6.513,376.356,2.465,5.948
1782115872.710341,0.496000,327216,1000,12,0,1,810.794,13.091,6.708,382.073,10.144,5.905
1782115872.711341,0.497000,327217,1000,12,0,1,808.824,7.126,6.734,387.069,14.177,6.007
1782115872.712341,0.498000,327218,1000,12,0,1,822.228,15.550,7.009,387.886,12.711,6.113
1782115872.713341,0.499000,327219,1000,12,0,1,831.716,21.518,7.561,390.264,9.474,6.192
1782115872.714341,0.500000,327220,1000,12,0,1,836.736,18.585,7.980,394.636,8.586,6.302
1782115872.715341,0.501000,327221,1000,12,0,1,847.834,21.585,8.542,400.064,6.952,6.378
1782115872.716341,0.502000,327222,1000,12,0,1,862.799,27.355,9.375,406.021,6.274,6.440
1782115872.717341,0.503000,327223,1000,12,0,1,859.484,19.406,9.768,408.520,2.781,6.434
1782115872.718341,0.504000,327224,1000,12,0,1,846.633,-0.130,9.748,409.264,-1.758,6.418
1782115872.719341,0.505000,327225,1000,12,0,1,836.808,-11.592,9.851,409.288,-4.873,6.454
1782115872.720341,0.506000,327226,1000,12,0,1,831.620,-16.584,10.122,404.940,-9.631,6.595
1782115872.721341,0.507000,327227,1000,12,0,1,832.484,-13.787,10.231,406.502,-8.723,6.684
1782115872.722341,0.508000,327228,1000,12,0,1,833.589,-8.992,10.148,407.775,-3.787,6.630
1782115872.723341,0.509000,327229,1000,12,0,1,837.192,-3.347,9.972,403.619,-4.237,6.571
1782115872.724341,0.510000,327230,1000,12,0,1,835.535,-0.302,9.822,399.608,-3.565,6.529
1782115872.725341,0.511000,327231,1000,12,0,1,825.494,-6.702,9.699,396.870,-0.756,6.476
1782115872.726341,0.512000,327232,1000,12,0,1,803.876,-20.909,9.969,387.910,-2.623,6.450
1782115872.727341,0.513000,327233,1000,12,0,1,784.011,-34.769,11.039,379.695,-5.549,6.486
1782115872.728341,0.514000,327234,1000,12,0,1,769.598,-39.502,12.372,376.764,-3.053,6.498
1782115872.729341,0.515000,327235,1000,12,0,1,758.068,-41.885,13.713,377.317,1.268,6.442
1782115872.730341,0.516000,327236,1000,12,0,1,757.924,-35.067,14.580,376.788,3.209,6.392
1782115872.731341,0.517000,327237,1000,12,0,1,775.724,-13.705,14.699,376.620,2.934,6.335
1782115872.732341,0.518000,327238,1000,12,0,1,809.136,17.747,14.879,382.433,5.946,6.296
1782115872.733341,0.519000,327239,1000,12,0,1,848.867,49.966,16.439,384.979,6.212,6.322
1782115872.734341,0.520000,327240,1000,12,0,1,883.288,71.340,19.274,384.907,0.871,6.321
1782115872.735341,0.521000,327241,1000,12,0,1,889.149,65.363,21.374,386.276,-2.360,6.330
1782115872.736341,0.522000,327242,1000,12,0,1,876.274,37.990,22.038,393.122,-1.562,6.330
1782115872.737341,0.523000,327243,1000,12,0,1,864.264,15.999,22.147,396.437,-1.518,6.304
1782115872.738341,0.524000,327244,1000,12,0,1,854.487,0.587,22.147,396.918,-5.347,6.276
1782115872.739341,0.525000,327245,1000,12,0,1,841.132,-13.443,22.226,395.356,-8.172,6.348
1782115872.740341,0.526000,327246,1000,12,0,1,829.554,-23.473,22.471,392.978,-10.725,6.527
1782115872.741341,0.527000,327247,1000,12,0,1,820.258,-27.228,22.798,391.033,-10.541,6.670
1782115872.742341,0.528000,327248,1000,12,0,1,819.898,-22.507,23.010,388.703,-8.941,6.721
1782115872.743341,0.529000,327249,1000,12,0,1,824.894,-10.798,23.050,388.871,-4.591,6.657
1782115872.744341,0.530000,327250,1000,12,0,1,840.627,7.029,23.062,385.484,-1.212,6.544
1782115872.745341,0.531000,327251,1000,12,0,1,847.065,18.334,23.180,383.034,0.965,6.463
1782115872.746341,0.532000,327252,1000,12,0,1,835.511,8.573,23.186,375.755,1.462,6.404
1782115872.747341,0.533000,327253,1000,12,0,1,826.792,-0.309,23.175,365.643,-3.257,6.413
1782115872.748341,0.534000,327254,1000,12,0,1,830.827,3.472,23.178,360.742,-2.741,6.419
1782115872.749341,0.535000,327255,1000,12,0,1,850.644,18.667,23.328,361.583,1.911,6.350
1782115872.750341,0.536000,327256,1000,12,0,1,893.353,50.308,24.388,363.096,5.864,6.191
1782115872.751341,0.537000,327257,1000,12,0,1,920.688,67.722,26.198,367.348,9.228,6.194
1782115872.752341,0.538000,327258,1000,12,0,1,915.212,48.137,27.051,376.068,14.656,6.418
1782115872.753341,0.539000,327259,1000,12,0,1,890.879,12.242,27.105,384.427,18.088,6.813
1782115872.754341,0.540000,327260,1000,12,0,1,860.853,-24.295,27.321,390.840,17.298,7.199
1782115872.755341,0.541000,327261,1000,12,0,1,833.157,-52.658,28.317,401.121,18.539,7.636
1782115872.756341,0.542000,327262,1000,12,0,1,813.268,-67.989,29.881,412.651,21.054,8.183
1782115872.757341,0.543000,327263,1000,12,0,1,802.194,-71.033,31.488,418.752,18.625,8.583
1782115872.758341,0.544000,327264,1000,12,0,1,796.838,-65.580,32.825,421.106,12.771,8.753
1782115872.759341,0.545000,327265,1000,12,0,1,809.977,-45.278,33.387,420.194,6.366,8.792
1782115872.760341,0.546000,327266,1000,12,0,1,821.867,-22.066,33.481,415.293,-1.618,8.677
1782115872.761341,0.547000,327267,1000,12,0,1,813.412,-21.213,33.600,413.684,-4.814,8.470
1782115872.762341,0.548000,327268,1000,12,0,1,805.053,-22.679,33.681,413.612,-3.293,8.290
1782115872.763341,0.549000,327269,1000,12,0,1,800.633,-17.613,33.636,408.832,-4.660,8.208
1782115872.764341,0.550000,327270,1000,12,0,1,794.484,-15.164,33.601,405.181,-4.916,8.147
1782115872.765341,0.551000,327271,1000,12,0,1,793.379,-9.308,33.488,399.055,-4.934,8.118
1782115872.766341,0.552000,327272,1000,12,0,1,798.471,1.312,33.264,390.720,-7.965,8.147
1782115872.767341,0.553000,327273,1000,12,0,1,804.380,10.822,33.186,382.962,-9.646,8.251
1782115872.768341,0.554000,327274,1000,12,0,1,804.188,12.899,33.236,373.161,-13.211,8.456
1782115872.769341,0.555000,327275,1000,12,0,1,804.596,12.317,33.242,367.949,-14.360,8.670
1782115872.770341,0.556000,327276,1000,12,0,1,802.435,10.377,33.191,367.036,-11.319,8.710
1782115872.771341,0.557000,327277,1000,12,0,1,799.744,5.654,33.144,371.095,-6.714,8.675
1782115872.772341,0.558000,327278,1000,12,0,1,797.678,2.692,33.121,377.821,-0.715,8.659
1782115872.773341,0.559000,327279,1000,12,0,1,800.849,3.213,33.121,382.625,1.103,8.639
1782115872.774341,0.560000,327280,1000,12,0,1,804.164,5.564,33.130,385.436,-0.394,8.625
1782115872.775341,0.561000,327281,1000,12,0,1,804.644,4.358,33.123,391.153,-0.453,8.624
1782115872.776341,0.562000,327282,1000,12,0,1,813.316,9.571,33.018,399.632,2.340,8.623
1782115872.777341,0.563000,327283,1000,12,0,1,820.762,16.453,32.733,405.157,2.872,8.596
1782115872.778341,0.564000,327284,1000,12,0,1,816.415,11.403,32.293,404.580,-1.584,8.589
1782115872.779341,0.565000,327285,1000,12,0,1,809.232,4.123,31.750,402.298,-6.419,8.635
1782115872.780341,0.566000,327286,1000,12,0,1,802.435,-0.378,31.361,400.953,-8.003,8.697
1782115872.781341,0.567000,327287,1000,12,0,1,795.324,-3.801,31.305,400.304,-6.955,8.742
1782115872.782341,0.568000,327288,1000,12,0,1,792.418,-2.906,31.207,397.086,-6.256,8.746
1782115872.783341,0.569000,327289,1000,12,0,1,794.820,3.387,30.400,394.059,-4.892,8.730
1782115872.784341,0.570000,327290,1000,12,0,1,796.333,8.632,28.703,392.210,-1.091,8.730
1782115872.785341,0.571000,327291,1000,12,0,1,800.057,13.381,27.240,384.883,-1.300,8.726
1782115872.786341,0.572000,327292,1000,12,0,1,803.756,17.932,26.825,371.840,-7.176,8.782
1782115872.787341,0.573000,327293,1000,12,0,1,801.570,15.486,26.819,360.262,-11.603,8.931
1782115872.788341,0.574000,327294,1000,12,0,1,792.778,6.375,26.834,352.647,-12.117,9.063
1782115872.789341,0.575000,327295,1000,12,0,1,792.178,2.738,26.770,350.438,-8.903,9.076
1782115872.790341,0.576000,327296,1000,12,0,1,804.092,11.412,26.612,351.759,-3.744,8.964
1782115872.791341,0.577000,327297,1000,12,0,1,820.258,22.340,26.521,353.416,-0.514,8.840
1782115872.792341,0.578000,327298,1000,12,0,1,818.673,17.660,26.447,360.670,4.577,8.773
1782115872.793341,0.579000,327299,1000,12,0,1,825.566,13.777,26.475,364.249,6.541,8.798
1782115872.794341,0.580000,327300,1000,12,0,1,848.074,28.570,26.763,369.678,5.718,8.833
1782115872.795341,0.581000,327301,1000,12,0,1,834.694,14.658,26.718,397.062,22.753,9.400
1782115872.796341,0.582000,327302,1000,12,0,1,834.694,1.163,26.691,397.062,21.671,9.885
1782115872.797341,0.583000,327303,1000,12,0,1,811.082,-12.938,26.753,404.220,13.085,10.046
1782115872.798341,0.584000,327304,1000,12,0,1,788.551,-40.317,27.350,410.705,17.948,10.354
1782115872.799341,0.585000,327305,1000,12,0,1,775.772,-41.561,27.849,414.188,12.142,10.492
1782115872.800341,0.586000,327306,1000,12,0,1,776.588,-36.650,27.419,412.987,9.895,10.553
1782115872.801341,0.587000,327307,1000,12,0,1,777.933,-23.938,25.914,408.015,2.726,10.479
1782115872.802341,0.588000,327308,1000,12,0,1,782.089,-14.489,25.088,403.980,-0.046,10.272
1782115872.803341,0.589000,327309,1000,12,0,1,794.027,1.889,25.030,401.409,0.663,9.949
1782115872.804341,0.590000,327310,1000,12,0,1,797.606,10.915,24.841,405.205,6.340,9.685
1782115872.805341,0.591000,327311,1000,12,0,1,781.465,-1.532,23.699,405.973,12.517,9.490
1782115872.806341,0.592000,327312,1000,12,0,1,762.128,-16.568,21.787,399.680,8.724,9.094
1782115872.807341,0.593000,327313,1000,12,0,1,765.971,-12.735,19.417,393.026,5.642,8.741
1782115872.808341,0.594000,327314,1000,12,0,1,789.752,12.302,17.148,385.460,0.715,8.553
1782115872.809341,0.595000,327315,1000,12,0,1,805.029,25.943,16.325,375.707,-5.824,8.545
1782115872.810341,0.596000,327316,1000,12,0,1,812.283,27.494,16.489,368.789,-11.567,8.698
1782115872.811341,0.597000,327317,1000,12,0,1,818.624,26.616,16.645,364.970,-13.887,8.891
1782115872.812341,0.598000,327318,1000,12,0,1,832.388,30.791,16.903,369.414,-11.398,9.023
1782115872.813341,0.599000,327319,1000,12,0,1,853.406,41.169,17.704,375.155,-6.965,9.053
1782115872.814341,0.600000,327320,1000,12,0,1,859.868,39.548,18.442,383.634,-3.867,9.043
1782115872.815341,0.601000,327321,1000,12,0,1,855.881,25.141,18.735,391.129,-0.820,9.017
1782115872.816341,0.602000,327322,1000,12,0,1,843.222,7.944,18.768,408.231,6.967,9.000
1782115872.817341,0.603000,327323,1000,12,0,1,837.505,-3.661,18.713,419.257,13.184,9.089
1782115872.818341,0.604000,327324,1000,12,0,1,847.425,3.565,18.630,429.394,13.574,9.100
1782115872.819341,0.605000,327325,1000,12,0,1,870.197,21.626,18.799,435.375,14.789,9.114
1782115872.820341,0.606000,327326,1000,12,0,1,890.566,37.620,19.482,432.949,7.901,9.042
1782115872.821341,0.607000,327327,1000,12,0,1,886.099,30.381,19.934,427.976,1.082,8.993
1782115872.822341,0.608000,327328,1000,12,0,1,863.015,4.210,19.940,425.862,-0.542,8.993
1782115872.823341,0.609000,327329,1000,12,0,1,822.276,-31.241,20.418,432.877,6.661,9.040
1782115872.824341,0.610000,327330,1000,12,0,1,787.374,-61.105,22.158,442.677,18.661,9.418
1782115872.825341,0.611000,327331,1000,12,0,1,771.160,-66.179,24.045,442.917,20.578,9.857
1782115872.826341,0.612000,327332,1000,12,0,1,766.812,-59.570,25.442,439.434,17.545,10.159
1782115872.827341,0.613000,327333,1000,12,0,1,774.450,-43.374,26.068,432.612,12.200,10.296
1782115872.828341,0.614000,327334,1000,12,0,1,797.270,-16.848,26.127,424.253,4.599,10.314
1782115872.829341,0.615000,327335,1000,12,0,1,819.777,6.850,26.138,418.776,-0.610,10.275
1782115872.830341,0.616000,327336,1000,12,0,1,821.075,7.860,26.162,419.377,-1.152,10.214
1782115872.831341,0.617000,327337,1000,12,0,1,810.289,-6.365,26.172,428.241,4.007,10.182
1782115872.832341,0.618000,327338,1000,12,0,1,799.720,-17.936,26.291,434.462,6.387,10.184
1782115872.833341,0.619000,327339,1000,12,0,1,795.517,-22.853,26.485,436.792,1.676,10.163
1782115872.834341,0.620000,327340,1000,12,0,1,798.423,-18.943,26.592,436.624,-4.849,10.185
1782115872.835341,0.621000,327341,1000,12,0,1,809.160,-8.410,26.551,435.591,-12.622,10.338
1782115872.836341,0.622000,327342,1000,12,0,1,817.688,1.585,26.431,436.672,-17.173,10.571
1782115872.837341,0.623000,327343,1000,12,0,1,809.953,-3.052,26.343,436.191,-21.117,10.862
1782115872.838341,0.624000,327344,1000,12,0,1,788.983,-19.153,26.467,439.434,-21.542,11.150
1782115872.839341,0.625000,327345,1000,12,0,1,779.399,-24.092,26.682,439.338,-20.909,11.466
1782115872.840341,0.626000,327346,1000,12,0,1,782.666,-12.922,26.696,436.648,-23.045,11.909
1782115872.841341,0.627000,327347,1000,12,0,1,806.710,13.099,26.573,434.414,-21.534,12.292
1782115872.842341,0.628000,327348,1000,12,0,1,842.069,48.984,27.347,439.794,-13.288,12.418
1782115872.843341,0.629000,327349,1000,12,0,1,858.835,63.809,28.732,444.479,-2.688,12.389
1782115872.844341,0.630000,327350,1000,12,0,1,858.331,56.498,29.547,446.809,3.475,12.372
1782115872.845341,0.631000,327351,1000,12,0,1,860.204,49.836,30.305,449.018,9.753,12.026
1782115872.846341,0.632000,327352,1000,12,0,1,861.021,43.523,30.924,443.854,9.433,11.705
1782115872.847341,0.633000,327353,1000,12,0,1,857.562,32.308,31.206,438.305,6.138,11.591
1782115872.848341,0.634000,327354,1000,12,0,1,850.140,18.297,30.789,433.141,4.728,11.329
1782115872.849341,0.635000,327355,1000,12,0,1,827.848,-6.095,30.235,437.104,7.759,11.252
1782115872.850341,0.636000,327356,1000,12,0,1,805.125,-31.506,30.119,443.037,14.091,11.341
1782115872.851341,0.637000,327357,1000,12,0,1,798.111,-38.097,30.410,448.082,14.744,11.524
1782115872.852341,0.638000,327358,1000,12,0,1,797.390,-35.996,30.764,450.051,12.478,11.659
1782115872.853341,0.639000,327359,1000,12,0,1,793.475,-36.404,31.191,452.501,7.740,11.710
1782115872.854341,0.640000,327360,1000,12,0,1,793.235,-34.269,31.528,455.840,4.431,11.692
1782115872.855341,0.641000,327361,1000,12,0,1,799.648,-25.058,31.725,461.101,1.980,11.561
1782115872.856341,0.642000,327362,1000,12,0,1,815.598,-8.755,31.663,463.671,-1.621,11.497
1782115872.857341,0.643000,327363,1000,12,0,1,831.452,7.767,31.631,460.548,-9.631,11.550
1782115872.858341,0.644000,327364,1000,12,0,1,848.626,21.321,31.727,457.498,-16.519,11.783
1782115872.859341,0.645000,327365,1000,12,0,1,860.156,30.451,31.807,458.531,-16.855,11.994
1782115872.860341,0.646000,327366,1000,12,0,1,864.000,29.868,31.849,459.251,-15.369,12.079
1782115872.861341,0.647000,327367,1000,12,0,1,865.729,27.512,31.865,456.777,-15.101,12.108
1782115872.862341,0.648000,327368,1000,12,0,1,862.174,21.771,31.715,460.572,-9.460,12.074
1782115872.863341,0.649000,327369,1000,12,0,1,845.576,5.658,31.187,464.848,-0.312,12.034
1782115872.864341,0.650000,327370,1000,12,0,1,837.601,-4.048,30.686,465.016,3.421,12.032
1782115872.865341,0.651000,327371,1000,12,0,1,842.789,2.096,30.481,461.581,4.474,12.048
1782115872.866341,0.652000,327372,1000,12,0,1,835.415,-1.523,30.461,457.306,3.835,12.020
1782115872.867341,0.653000,327373,1000,12,0,1,814.757,-19.705,30.584,454.447,4.435,11.891
1782115872.868341,0.654000,327374,1000,12,0,1,805.918,-26.977,30.817,449.475,2.922,11.742
1782115872.869341,0.655000,327375,1000,12,0,1,805.125,-23.465,30.844,447.841,2.040,11.558
1782115872.870341,0.656000,327376,1000,12,0,1,799.768,-24.817,30.584,448.514,3.548,11.515
1782115872.871341,0.657000,327377,1000,12,0,1,802.363,-21.799,30.437,455.168,6.986,11.556
1782115872.872341,0.658000,327378,1000,12,0,1,818.528,-6.100,30.443,460.500,9.738,11.637
1782115872.873341,0.659000,327379,1000,12,0,1,844.231,15.098,30.197,461.990,5.651,11.627
1782115872.874341,0.660000,327380,1000,12,0,1,873.175,36.398,29.388,464.776,2.377,11.328
1782115872.875341,0.661000,327381,1000,12,0,1,895.154,48.203,28.680,470.349,1.444,10.950
1782115872.876341,0.662000,327382,1000,12,0,1,899.598,42.787,28.074,472.631,-1.498,10.667
1782115872.877341,0.663000,327383,1000,12,0,1,886.411,21.455,27.564,476.642,-3.665,10.540
1782115872.878341,0.664000,327384,1000,12,0,1,866.498,-3.202,27.464,477.267,-5.798,10.551
1782115872.879341,0.665000,327385,1000,12,0,1,842.261,-25.797,27.688,477.747,-8.546,10.620
1782115872.880341,0.666000,327386,1000,12,0,1,821.603,-41.847,28.292,475.753,-9.927,10.711
1782115872.881341,0.667000,327387,1000,12,0,1,823.549,-34.994,28.707,470.133,-13.722,10.871
1782115872.882341,0.668000,327388,1000,12,0,1,837.048,-14.034,28.664,466.986,-13.669,11.004
1782115872.883341,0.669000,327389,1000,12,0,1,835.775,-7.481,28.501,463.215,-11.495,11.121
1782115872.884341,0.670000,327390,1000,12,0,1,822.636,-14.907,28.453,459.588,-9.694,11.184
1782115872.885341,0.671000,327391,1000,12,0,1,808.800,-22.039,28.598,457.017,-5.655,11.070
1782115872.886341,0.672000,327392,1000,12,0,1,782.353,-37.191,29.077,456.489,-1.078,10.801
1782115872.887341,0.673000,327393,1000,12,0,1,766.596,-46.367,29.804,458.699,5.444,10.409
1782115872.888341,0.674000,327394,1000,12,0,1,777.429,-28.298,29.949,451.469,3.321,9.964
1782115872.889341,0.675000,327395,1000,12,0,1,802.146,-0.101,29.755,445.848,-1.524,9.518
1782115872.890341,0.676000,327396,1000,12,0,1,837.625,31.367,30.028,441.884,-2.659,8.950
1782115872.891341,0.677000,327397,1000,12,0,1,867.579,54.587,30.949,444.695,-1.557,8.419
1782115872.892341,0.678000,327398,1000,12,0,1,878.940,54.913,31.148,456.129,7.476,8.274
1782115872.893341,0.679000,327399,1000,12,0,1,872.887,38.277,30.299,469.004,15.283,8.544
1782115872.894341,0.680000,327400,1000,12,0,1,842.357,2.926,29.230,483.536,21.570,9.058
1782115872.895341,0.681000,327401,1000,12,0,1,815.262,-28.874,28.660,496.699,25.796,9.668
1782115872.896341,0.682000,327402,1000,12,0,1,791.433,-46.416,28.750,504.626,23.728,10.146
1782115872.897341,0.683000,327403,1000,12,0,1,791.169,-44.824,29.084,506.188,16.701,10.381
1782115872.898341,0.684000,327404,1000,12,0,1,831.452,-2.907,28.972,502.320,5.856,10.393
1782115872.899341,0.685000,327405,1000,12,0,1,887.612,50.822,29.838,500.351,-1.234,10.336
1782115872.900341,0.686000,327406,1000,12,0,1,910.528,71.044,31.167,502.777,-1.541,10.144
1782115872.901341,0.687000,327407,1000,12,0,1,897.364,50.970,31.533,502.897,-1.353,9.930
1782115872.902341,0.688000,327408,1000,12,0,1,877.667,25.273,31.324,500.831,-2.663,9.779
1782115872.903341,0.689000,327409,1000,12,0,1,862.943,9.054,30.924,502.440,0.419,9.718
1782115872.904341,0.690000,327410,1000,12,0,1,858.090,2.942,30.545,504.122,4.925,9.722
1782115872.905341,0.691000,327411,1000,12,0,1,843.150,-6.620,30.353,504.506,7.360,9.774
1782115872.906341,0.692000,327412,1000,12,0,1,813.004,-31.826,30.660,505.059,9.604,9.865
1782115872.907341,0.693000,327413,1000,12,0,1,787.181,-50.474,31.461,501.792,8.121,9.838
1782115872.908341,0.694000,327414,1000,12,0,1,772.409,-56.111,32.306,502.008,7.305,9.612
1782115872.909341,0.695000,327415,1000,12,0,1,767.172,-52.177,32.857,502.897,7.960,9.380
1782115872.910341,0.696000,327416,1000,12,0,1,770.487,-41.370,33.105,499.630,2.751,9.133
1782115872.911341,0.697000,327417,1000,12,0,1,786.677,-22.047,33.023,495.931,-3.775,8.896
1782115872.912341,0.698000,327418,1000,12,0,1,803.251,-3.183,32.882,493.409,-9.299,8.892
1782115872.913341,0.699000,327419,1000,12,0,1,794.916,-8.468,32.894,497.492,-10.024,9.004
1782115872.914341,0.700000,327420,1000,12,0,1,777.669,-25.760,33.091,504.386,-7.193,9.049
1782115872.915341,0.701000,327421,1000,12,0,1,772.217,-28.918,33.341,507.941,-8.410,9.105
1782115872.916341,0.702000,327422,1000,12,0,1,778.726,-19.424,33.453,505.779,-14.118,9.305
1782115872.917341,0.703000,327423,1000,12,0,1,791.889,-3.714,33.341,504.338,-19.129,9.670
1782115872.918341,0.704000,327424,1000,12,0,1,812.523,16.630,33.206,508.422,-17.019,9.956
1782115872.919341,0.705000,327425,1000,12,0,1,838.201,39.761,33.514,516.901,-9.840,10.049
1782115872.920341,0.706000,327426,1000,12,0,1,864.000,59.992,34.393,518.318,-7.015,10.086
1782115872.921341,0.707000,327427,1000,12,0,1,872.407,63.896,35.426,514.355,-9.822,10.133
1782115872.922341,0.708000,327428,1000,12,0,1,884.513,64.587,36.575,505.851,-13.784,10.226
1782115872.923341,0.709000,327429,1000,12,0,1,876.610,55.321,37.341,496.844,-17.553,10.493
1782115872.924341,0.710000,327430,1000,12,0,1,857.322,28.998,37.211,489.902,-17.224,10.767
1782115872.925341,0.711000,327431,1000,12,0,1,851.124,19.763,36.688,484.593,-14.805,10.966
1782115872.926341,0.712000,327432,1000,12,0,1,843.270,12.594,36.230,482.791,-9.722,11.050
1782115872.927341,0.713000,327433,1000,12,0,1,840.099,6.412,36.114,486.971,-0.296,11.038
1782115872.928341,0.714000,327434,1000,12,0,1,840.796,7.129,36.125,488.364,5.756,11.038
1782115872.929341,0.715000,327435,1000,12,0,1,857.274,15.979,36.011,491.103,8.998,11.045
1782115872.930341,0.716000,327436,1000,12,0,1,883.384,35.488,35.874,495.042,12.711,11.102
1782115872.931341,0.717000,327437,1000,12,0,1,916.629,53.284,36.322,501.287,15.281,11.142
1782115872.932341,0.718000,327438,1000,12,0,1,934.981,58.749,37.207,502.969,13.661,11.142
1782115872.933341,0.719000,327439,1000,12,0,1,922.130,31.837,37.463,511.760,14.082,11.201
1782115872.934341,0.720000,327440,1000,12,0,1,887.756,-12.048,37.443,525.164,20.496,11.489
1782115872.935341,0.721000,327441,1000,12,0,1,863.519,-43.436,37.815,530.593,18.184,11.746
1782115872.936341,0.722000,327442,1000,12,0,1,840.219,-62.734,38.484,530.280,9.792,11.826
1782115872.937341,0.723000,327443,1000,12,0,1,813.124,-82.959,39.695,530.328,3.321,11.811
1782115872.938341,0.724000,327444,1000,12,0,1,798.351,-87.874,41.402,532.730,0.444,11.801
1782115872.939341,0.725000,327445,1000,12,0,1,796.069,-76.683,42.798,528.719,-4.651,11.818
1782115872.940341,0.726000,327446,1000,12,0,1,787.662,-68.992,43.672,526.317,-9.151,11.882
1782115872.941341,0.727000,327447,1000,12,0,1,793.091,-53.000,43.633,520.984,-10.890,11.980
1782115872.942341,0.728000,327448,1000,12,0,1,820.330,-16.406,42.999,520.840,-10.000,12.017
1782115872.943341,0.729000,327449,1000,12,0,1,841.828,13.079,42.697,520.936,-4.235,11.836
1782115872.944341,0.730000,327450,1000,12,0,1,856.073,27.882,42.876,523.939,1.003,11.437
1782115872.945341,0.731000,327451,1000,12,0,1,866.714,38.003,43.019,522.498,4.896,10.861
1782115872.946341,0.732000,327452,1000,12,0,1,881.535,46.515,43.021,521.152,5.116,10.355
1782115872.947341,0.733000,327453,1000,12,0,1,883.552,45.788,43.041,519.879,6.686,10.127
1782115872.948341,0.734000,327454,1000,12,0,1,877.283,31.696,43.272,520.504,7.458,10.148
1782115872.949341,0.735000,327455,1000,12,0,1,862.847,14.648,42.721,525.428,11.009,10.265
1782115872.950341,0.736000,327456,1000,12,0,1,850.596,-2.340,41.524,528.743,12.346,10.410
1782115872.951341,0.737000,327457,1000,12,0,1,842.213,-11.100,40.924,529.800,8.778,10.482
1782115872.952341,0.738000,327458,1000,12,0,1,849.587,-7.798,40.782,529.704,4.305,10.493
1782115872.953341,0.739000,327459,1000,12,0,1,851.437,-4.181,40.766,527.398,-3.044,10.502
1782115872.954341,0.740000,327460,1000,12,0,1,853.647,-6.180,40.774,526.485,-8.653,10.550
1782115872.955341,0.741000,327461,1000,12,0,1,856.986,-3.333,40.766,526.941,-12.156,10.638
1782115872.956341,0.742000,327462,1000,12,0,1,858.187,-3.920,40.520,531.650,-11.497,10.676
1782115872.957341,0.743000,327463,1000,12,0,1,855.208,-6.959,39.899,532.610,-11.891,10.746
1782115872.958341,0.744000,327464,1000,12,0,1,850.764,-10.710,39.131,533.331,-13.487,10.865
1782115872.959341,0.745000,327465,1000,12,0,1,845.912,-13.624,38.477,531.001,-14.399,10.997
1782115872.960341,0.746000,327466,1000,12,0,1,843.342,-13.087,38.075,529.848,-14.794,11.187
1782115872.961341,0.747000,327467,1000,12,0,1,840.603,-11.919,37.984,530.208,-10.920,11.281
1782115872.962341,0.748000,327468,1000,12,0,1,834.406,-12.743,38.024,530.088,-7.331,11.252
1782115872.963341,0.749000,327469,1000,12,0,1,827.032,-15.186,38.066,530.160,-3.102,11.171
1782115872.964341,0.750000,327470,1000,12,0,1,829.890,-8.632,37.911,526.629,-1.334,11.126
1782115872.965341,0.751000,327471,1000,12,0,1,827.945,-4.081,37.694,523.483,-0.714,11.063
1782115872.966341,0.752000,327472,1000,12,0,1,820.042,-8.327,37.612,518.150,-0.536,10.881
1782115872.967341,0.753000,327473,1000,12,0,1,812.331,-11.497,37.644,512.025,-3.122,10.549
1782115872.968341,0.754000,327474,1000,12,0,1,821.579,-2.278,37.572,507.221,-3.987,10.286
1782115872.969341,0.755000,327475,1000,12,0,1,842.093,18.304,37.239,505.851,-3.428,10.203
1782115872.970341,0.756000,327476,1000,12,0,1,833.397,12.962,36.306,505.491,-2.121,10.159
1782115872.971341,0.757000,327477,1000,12,0,1,804.789,-16.219,35.238,508.133,-0.526,10.064
1782115872.972341,0.758000,327478,1000,12,0,1,791.914,-28.119,34.265,506.572,-2.153,9.878
1782115872.973341,0.759000,327479,1000,12,0,1,800.825,-17.485,33.451,505.731,-6.034,9.599
1782115872.974341,0.760000,327480,1000,12,0,1,827.032,7.675,33.217,508.229,-5.665,9.319
1782115872.975341,0.761000,327481,1000,12,0,1,838.297,20.441,33.225,512.457,-4.353,9.102
1782115872.976341,0.762000,327482,1000,12,0,1,843.078,19.285,33.289,509.190,-8.225,9.072
1782115872.977341,0.763000,327483,1000,12,0,1,856.433,27.804,33.508,502.753,-15.704,9.340
1782115872.978341,0.764000,327484,1000,12,0,1,873.416,38.369,33.930,501.768,-16.229,9.583
1782115872.979341,0.765000,327485,1000,12,0,1,897.965,53.019,34.675,499.942,-14.617,9.721
1782115872.980341,0.766000,327486,1000,12,0,1,903.850,53.845,35.145,503.209,-9.734,9.652
1782115872.981341,0.767000,327487,1000,12,0,1,872.359,19.156,34.434,509.382,0.604,9.407
1782115872.982341,0.768000,327488,1000,12,0,1,840.868,-15.230,33.486,514.955,8.558,9.286
1782115872.983341,0.769000,327489,1000,12,0,1,836.856,-18.399,33.284,518.871,15.370,9.327
1782115872.984341,0.770000,327490,1000,12,0,1,835.223,-13.409,33.294,521.032,19.205,9.272
1782115872.985341,0.771000,327491,1000,12,0,1,836.976,-10.083,32.754,522.257,21.757,9.424
1782115872.986341,0.772000,327492,1000,12,0,1,826.695,-12.636,31.580,521.825,22.100,9.832
1782115872.987341,0.773000,327493,1000,12,0,1,798.759,-34.338,29.719,518.991,19.472,10.199
1782115872.988341,0.774000,327494,1000,12,0,1,767.797,-55.810,28.126,512.745,13.521,10.377
1782115872.989341,0.775000,327495,1000,12,0,1,747.715,-65.343,27.548,517.141,14.361,10.553
1782115872.990341,0.776000,327496,1000,12,0,1,763.113,-44.269,26.512,518.078,15.405,10.698
1782115872.991341,0.777000,327497,1000,12,0,1,785.092,-12.841,25.495,510.728,4.725,10.608
1782115872.992341,0.778000,327498,1000,12,0,1,789.752,-5.151,25.399,505.731,-3.161,10.522
1782115872.993341,0.779000,327499,1000,12,0,1,797.126,0.909,25.332,508.926,-3.795,10.519
1782115872.994341,0.780000,327500,1000,12,0,1,803.900,7.594,25.047,513.178,-2.269,10.523
1782115872.995341,0.781000,327501,1000,12,0,1,827.248,22.936,24.677,512.841,-5.549,10.529
1782115872.996341,0.782000,327502,1000,12,0,1,859.460,48.955,24.772,509.046,-11.700,10.634
1782115872.997341,0.783000,327503,1000,12,0,1,864.744,48.443,24.872,509.022,-13.754,10.769
1782115872.998341,0.784000,327504,1000,12,0,1,853.406,28.786,24.801,515.339,-8.782,10.789
1782115872.999341,0.785000,327505,1000,12,0,1,822.372,-0.936,24.715,526.605,1.109,10.677
1782115873.000341,0.786000,327506,1000,12,0,1,797.174,-26.750,25.001,531.073,5.868,10.566
1782115873.001341,0.787000,327507,1000,12,0,1,798.399,-20.683,25.122,526.557,1.670,10.496
1782115873.002341,0.788000,327508,1000,12,0,1,807.311,-5.200,25.109,520.192,-3.241,10.488
1782115873.003341,0.789000,327509,1000,12,0,1,819.970,10.356,25.145,517.381,-3.474,10.491
1782115873.004341,0.790000,327510,1000,12,0,1,811.610,9.969,25.169,519.447,1.387,10.421
1782115873.005341,0.791000,327511,1000,12,0,1,791.217,-7.623,25.188,524.684,9.064,10.358
1782115873.006341,0.792000,327512,1000,12,0,1,769.959,-20.689,25.351,527.998,14.105,10.422
1782115873.007341,0.793000,327513,1000,12,0,1,755.762,-28.533,25.651,532.658,18.025,10.597
1782115873.008341,0.794000,327514,1000,12,0,1,759.822,-18.848,25.745,536.165,20.539,10.821
1782115873.009341,0.795000,327515,1000,12,0,1,782.305,5.446,25.684,541.138,21.555,11.056
1782115873.010341,0.796000,327516,1000,12,0,1,837.144,50.784,26.605,535.805,14.794,11.056
1782115873.011341,0.797000,327517,1000,12,0,1,859.988,71.559,28.415,528.959,2.817,10.955
1782115873.012341,0.798000,327518,1000,12,0,1,841.180,39.755,28.910,523.963,-4.292,10.922
1782115873.013341,0.799000,327519,1000,12,0,1,792.178,-10.742,28.870,519.471,-11.531,11.035
1782115873.014341,0.800000,327520,1000,12,0,1,732.462,-68.660,30.434,516.709,-16.055,11.264
1782115873.015341,0.801000,327521,1000,12,0,1,694.870,-97.040,33.380,513.009,-20.242,11.622
1782115873.016341,0.802000,327522,1000,12,0,1,670.033,-103.218,36.414,509.743,-23.925,12.104
1782115873.017341,0.803000,327523,1000,12,0,1,649.087,-104.339,39.256,511.112,-22.118,12.494
1782115873.018341,0.804000,327524,1000,12,0,1,650.023,-84.602,41.038,516.420,-16.236,12.691
1782115873.019341,0.805000,327525,1000,12,0,1,687.736,-34.336,41.243,524.828,-7.376,12.724
1782115873.020341,0.806000,327526,1000,12,0,1,775.219,52.949,41.877,534.484,2.123,12.724
1782115873.021341,0.807000,327527,1000,12,0,1,849.299,124.939,45.394,543.972,10.920,12.818
1782115873.022341,0.808000,327528,1000,12,0,1,914.539,165.228,50.900,552.043,17.637,13.054
1782115873.023341,0.809000,327529,1000,12,0,1,970.267,195.081,57.843,559.273,22.853,13.421
1782115873.024341,0.810000,327530,1000,12,0,1,979.419,176.765,63.004,562.132,24.162,13.826
1782115873.025341,0.811000,327531,1000,12,0,1,963.709,130.384,65.584,562.780,22.369,14.170
1782115873.026341,0.812000,327532,1000,12,0,1,962.556,101.650,67.085,558.120,17.087,14.328
1782115873.027341,0.813000,327533,1000,12,0,1,953.525,74.494,67.793,554.349,11.163,14.242
1782115873.028341,0.814000,327534,1000,12,0,1,939.881,42.352,67.841,550.530,7.290,14.094
1782115873.029341,0.815000,327535,1000,12,0,1,924.580,15.771,67.462,552.596,6.580,13.973
1782115873.030341,0.816000,327536,1000,12,0,1,912.281,-6.304,67.037,561.459,12.657,14.019
1782115873.031341,0.817000,327537,1000,12,0,1,907.405,-17.789,67.029,568.617,15.824,14.197
1782115873.032341,0.818000,327538,1000,12,0,1,915.692,-16.650,67.036,575.391,16.002,14.325
1782115873.033341,0.819000,327539,1000,12,0,1,932.819,-6.948,66.993,580.411,14.672,14.310
1782115873.034341,0.820000,327540,1000,12,0,1,939.352,-6.246,66.972,587.642,13.066,14.171
1782115873.035341,0.821000,327541,1000,12,0,1,933.179,-19.956,67.016,598.331,15.350,14.002
1782115873.036341,0.822000,327542,1000,12,0,1,920.328,-36.964,67.196,607.531,15.623,13.827
1782115873.037341,0.823000,327543,1000,12,0,1,908.774,-51.674,67.417,614.209,13.477,13.683
1782115873.038341,0.824000,327544,1000,12,0,1,903.994,-56.550,67.430,624.081,13.777,13.688
1782115873.039341,0.825000,327545,1000,12,0,1,882.207,-71.218,67.549,636.956,17.939,13.772
1782115873.040341,0.826000,327546,1000,12,0,1,855.712,-91.691,68.496,649.351,21.566,13.937
1782115873.041341,0.827000,327547,1000,12,0,1,842.405,-94.163,69.755,658.335,22.387,14.276
1782115873.042341,0.828000,327548,1000,12,0,1,839.979,-84.333,70.764,666.550,22.206,14.611
1782115873.043341,0.829000,327549,1000,12,0,1,848.963,-64.426,71.348,670.321,19.638,14.863
1782115873.044341,0.830000,327550,1000,12,0,1,871.134,-34.365,71.505,675.581,17.351,15.060
1782115873.045341,0.831000,327551,1000,12,0,1,886.819,-11.096,71.449,681.010,17.382,15.239
1782115873.046341,0.832000,327552,1000,12,0,1,892.320,-2.395,71.113,686.439,16.294,15.324
1782115873.047341,0.833000,327553,1000,12,0,1,891.960,0.147,70.782,691.819,15.660,15.360
1782115873.048341,0.834000,327554,1000,12,0,1,891.551,1.188,70.665,691.723,10.215,15.378
1782115873.049341,0.835000,327555,1000,12,0,1,903.946,12.089,70.686,691.627,3.320,15.384
1782115873.050341,0.836000,327556,1000,12,0,1,938.271,40.579,70.818,695.086,0.737,15.362
1782115873.051341,0.837000,327557,1000,12,0,1,992.030,81.616,71.692,699.170,-1.747,15.362
1782115873.052341,0.838000,327558,1000,12,0,1,1043.050,115.320,73.520,704.406,-3.701,15.364
1782115873.053341,0.839000,327559,1000,12,0,1,1050.496,106.098,75.022,712.861,-3.485,15.364
1782115873.054341,0.840000,327560,1000,12,0,1,1031.255,65.811,75.584,717.161,-6.156,15.388
1782115873.055341,0.841000,327561,1000,12,0,1,1003.992,25.581,75.662,725.448,-7.808,15.374
1782115873.056341,0.842000,327562,1000,12,0,1,978.746,-8.958,75.616,729.172,-9.920,15.309
1782115873.057341,0.843000,327563,1000,12,0,1,954.413,-34.562,75.667,724.536,-20.958,15.383
1782115873.058341,0.844000,327564,1000,12,0,1,918.454,-64.635,76.170,720.044,-29.687,15.679
1782115873.059341,0.845000,327565,1000,12,0,1,879.109,-94.210,77.323,717.017,-34.334,16.128
1782115873.060341,0.846000,327566,1000,12,0,1,841.180,-114.593,78.676,716.368,-35.332,16.754
1782115873.061341,0.847000,327567,1000,12,0,1,826.864,-113.450,79.655,715.696,-33.862,17.421
1782115873.062341,0.848000,327568,1000,12,0,1,814.133,-101.552,80.744,715.071,-32.132,17.993
1782115873.063341,0.849000,327569,1000,12,0,1,785.644,-107.543,82.149,723.046,-22.512,18.200
1782115873.064341,0.850000,327570,1000,12,0,1,776.564,-98.216,82.748,731.502,-11.052,18.125
1782115873.065341,0.851000,327571,1000,12,0,1,806.206,-53.742,81.955,731.550,-8.638,17.939
1782115873.066341,0.852000,327572,1000,12,0,1,835.367,-10.342,80.658,732.078,-7.639,17.650
1782115873.067341,0.853000,327573,1000,12,0,1,862.486,18.839,79.341,737.867,-1.472,17.372
1782115873.068341,0.854000,327574,1000,12,0,1,897.797,51.272,78.768,751.775,9.811,17.276
1782115873.069341,0.855000,327575,1000,12,0,1,927.414,73.913,79.310,759.390,16.065,17.393
1782115873.070341,0.856000,327576,1000,12,0,1,944.757,79.878,79.760,761.287,12.559,17.481
1782115873.071341,0.857000,327577,1000,12,0,1,951.555,74.694,78.492,771.256,15.415,17.549
1782115873.072341,0.858000,327578,1000,12,0,1,940.289,54.299,75.326,782.858,20.195,17.604
1782115873.073341,0.859000,327579,1000,12,0,1,918.406,25.698,70.186,780.984,12.116,17.389
1782115873.074341,0.860000,327580,1000,12,0,1,938.584,32.515,65.744,759.846,-12.588,17.143
1782115873.075341,0.861000,327581,1000,12,0,1,989.796,75.150,63.994,729.244,-43.780,17.950
1782115873.076341,0.862000,327582,1000,12,0,1,1006.274,84.077,63.482,709.859,-60.999,19.768
1782115873.077341,0.863000,327583,1000,12,0,1,993.087,58.161,63.140,705.655,-59.457,21.424
1782115873.078341,0.864000,327584,1000,12,0,1,967.096,25.925,62.962,711.252,-47.800,22.442
1782115873.079341,0.865000,327585,1000,12,0,1,962.220,11.178,62.942,716.873,-35.549,22.979
1782115873.080341,0.866000,327586,1000,12,0,1,975.504,21.126,63.007,720.620,-26.839,23.221
1782115873.081341,0.867000,327587,1000,12,0,1,983.671,24.185,63.050,720.068,-21.714,23.316
1782115873.082341,0.868000,327588,1000,12,0,1,987.514,21.217,63.077,719.419,-18.080,23.347
1782115873.083341,0.869000,327589,1000,12,0,1,991.189,17.673,63.119,720.668,-12.026,23.317
1782115873.084341,0.870000,327590,1000,12,0,1,986.193,6.963,63.120,721.797,-6.499,23.261
1782115873.085341,0.871000,327591,1000,12,0,1,970.483,-12.955,63.084,718.915,-4.669,23.169
1782115873.086341,0.872000,327592,1000,12,0,1,949.849,-35.520,63.067,714.135,-5.392,23.076
1782115873.087341,0.873000,327593,1000,12,0,1,935.629,-49.639,63.035,710.363,-5.104,23.009
1782115873.088341,0.874000,327594,1000,12,0,1,940.049,-45.589,62.857,705.727,-5.252,22.938
1782115873.089341,0.875000,327595,1000,12,0,1,944.805,-37.001,62.265,700.034,-6.987,22.819
1782115873.090341,0.876000,327596,1000,12,0,1,934.764,-43.680,61.212,695.230,-7.907,22.642
1782115873.091341,0.877000,327597,1000,12,0,1,922.490,-52.255,60.201,699.890,-1.992,22.421
1782115873.092341,0.878000,327598,1000,12,0,1,913.602,-54.680,59.513,705.727,6.248,22.218
1782115873.093341,0.879000,327599,1000,12,0,1,912.930,-49.127,59.220,709.763,9.377,22.083
1782115873.094341,0.880000,327600,1000,12,0,1,912.762,-40.330,59.295,710.363,9.646,21.989
1782115873.095341,0.881000,327601,1000,12,0,1,908.053,-36.750,59.502,710.531,7.668,21.878
1782115873.096341,0.882000,327602,1000,12,0,1,908.053,-29.409,59.646,710.531,6.531,21.776
1782115873.097341,0.883000,327603,1000,12,0,1,908.053,-20.476,59.716,710.531,5.033,21.675
1782115873.098341,0.884000,327604,1000,12,0,1,902.409,-17.870,59.770,710.892,4.427,21.635
1782115873.099341,0.885000,327605,1000,12,0,1,895.923,-16.496,59.791,710.892,4.033,21.638
1782115873.100341,0.886000,327606,1000,12,0,1,883.504,-19.032,59.575,707.337,1.196,21.638
1782115873.101341,0.887000,327607,1000,12,0,1,867.362,-25.810,58.561,703.710,-1.532,21.638
1782115873.102341,0.888000,327608,1000,12,0,1,854.247,-28.735,56.390,702.028,-1.337,21.632
1782115873.103341,0.889000,327609,1000,12,0,1,857.586,-18.460,54.420,698.954,-1.383,21.628
1782115873.104341,0.890000,327610,1000,12,0,1,878.340,7.052,53.628,693.573,-3.497,21.616
1782115873.105341,0.891000,327611,1000,12,0,1,903.754,32.954,53.708,686.175,-6.530,21.607
1782115873.106341,0.892000,327612,1000,12,0,1,902.577,33.567,53.903,680.001,-8.566,21.596
1782115873.107341,0.893000,327613,1000,12,0,1,858.283,-6.623,53.689,679.377,-5.307,21.405
1782115873.108341,0.894000,327614,1000,12,0,1,833.181,-33.951,53.122,681.995,0.733,20.989
1782115873.109341,0.895000,327615,1000,12,0,1,843.342,-18.347,51.490,681.779,3.439,20.425
1782115873.110341,0.896000,327616,1000,12,0,1,858.235,0.477,48.873,682.187,4.572,19.815
1782115873.111341,0.897000,327617,1000,12,0,1,880.598,21.138,46.261,684.253,7.112,19.254
1782115873.112341,0.898000,327618,1000,12,0,1,921.673,54.936,44.656,689.177,10.515,18.769
1782115873.113341,0.899000,327619,1000,12,0,1,931.329,63.215,42.928,691.939,12.132,18.577
1782115873.114341,0.900000,327620,1000,12,0,1,913.890,37.371,40.961,698.065,14.029,18.617
1782115873.115341,0.901000,327621,1000,12,0,1,886.267,9.260,40.271,710.219,21.603,18.826
1782115873.116341,0.902000,327622,1000,12,0,1,864.504,-12.254,40.282,718.362,25.128,19.128
1782115873.117341,0.903000,327623,1000,12,0,1,858.090,-14.302,40.244,720.956,21.927,19.377
1782115873.118341,0.904000,327624,1000,12,0,1,863.807,-3.783,39.589,717.762,14.733,19.439
1782115873.119341,0.905000,327625,1000,12,0,1,871.206,7.904,38.201,713.054,6.240,19.326
1782115873.120341,0.906000,327626,1000,12,0,1,882.471,20.175,36.604,710.123,1.726,19.246
1782115873.121341,0.907000,327627,1000,12,0,1,890.038,28.172,35.272,708.994,-0.138,19.122
1782115873.122341,0.908000,327628,1000,12,0,1,881.823,20.785,34.551,708.706,-0.009,18.908
1782115873.123341,0.909000,327629,1000,12,0,1,866.762,4.737,34.366,712.117,3.179,18.835
1782115873.124341,0.910000,327630,1000,12,0,1,866.378,2.494,34.059,714.111,6.254,18.772
1782115873.125341,0.911000,327631,1000,12,0,1,886.435,18.575,32.465,711.733,4.394,17.732
1782115873.126341,0.912000,327632,1000,12,0,1,903.634,32.564,30.558,703.277,-2.159,15.495
1782115873.127341,0.913000,327633,1000,12,0,1,900.847,24.624,29.636,698.737,-6.338,13.046
1782115873.128341,0.914000,327634,1000,12,0,1,893.761,10.560,29.446,696.239,-6.281,11.194
1782115873.129341,0.915000,327635,1000,12,0,1,880.982,-4.250,29.410,694.149,-7.240,10.053
1782115873.130341,0.916000,327636,1000,12,0,1,856.481,-27.836,29.521,692.228,-7.693,9.373
1782115873.131341,0.917000,327637,1000,12,0,1,840.820,-41.986,29.917,692.420,-7.275,8.915
1782115873.132341,0.918000,327638,1000,12,0,1,837.841,-39.202,30.278,693.501,-6.009,8.583
1782115873.133341,0.919000,327639,1000,12,0,1,847.617,-25.638,30.392,691.339,-7.840,8.485
1782115873.134341,0.920000,327640,1000,12,0,1,871.254,0.016,30.376,687.472,-11.926,8.602
1782115873.135341,0.921000,327641,1000,12,0,1,894.890,23.838,30.508,687.784,-11.909,8.741
1782115873.136341,0.922000,327642,1000,12,0,1,916.172,40.415,30.629,692.132,-7.799,8.777
1782115873.137341,0.923000,327643,1000,12,0,1,929.936,49.063,30.611,694.053,-5.312,8.779
1782115873.138341,0.924000,327644,1000,12,0,1,934.500,46.394,30.635,695.230,-4.671,8.773
1782115873.139341,0.925000,327645,1000,12,0,1,937.623,41.819,30.759,690.570,-7.137,8.775
1782115873.140341,0.926000,327646,1000,12,0,1,942.571,39.190,30.637,688.456,-9.075,8.798
1782115873.141341,0.927000,327647,1000,12,0,1,941.827,32.550,30.087,688.408,-5.900,8.833
1782115873.142341,0.928000,327648,1000,12,0,1,913.194,4.082,29.082,693.621,0.075,8.788
1782115873.143341,0.929000,327649,1000,12,0,1,871.110,-37.133,28.724,697.392,6.799,8.741
1782115873.144341,0.930000,327650,1000,12,0,1,852.974,-52.302,29.108,693.837,5.260,8.666
1782115873.145341,0.931000,327651,1000,12,0,1,848.530,-47.804,29.427,685.718,-0.275,8.598
1782115873.146341,0.932000,327652,1000,12,0,1,853.551,-37.946,29.622,676.398,-6.099,8.591
1782115873.147341,0.933000,327653,1000,12,0,1,873.584,-15.321,29.559,666.766,-11.434,8.713
1782115873.148341,0.934000,327654,1000,12,0,1,884.681,-1.269,29.452,660.424,-13.337,8.893
1782115873.149341,0.935000,327655,1000,12,0,1,879.853,-6.447,29.373,656.101,-12.921,9.061
1782115873.150341,0.936000,327656,1000,12,0,1,873.968,-13.267,29.310,659.079,-7.430,9.120
1782115873.151341,0.937000,327657,1000,12,0,1,864.192,-20.826,29.230,662.370,-1.024,9.119
1782115873.152341,0.938000,327658,1000,12,0,1,857.994,-26.003,29.179,665.277,2.031,9.121
1782115873.153341,0.939000,327659,1000,12,0,1,856.313,-23.778,29.256,668.687,5.166,9.148
1782115873.154341,0.940000,327660,1000,12,0,1,860.084,-17.543,29.344,667.727,3.835,9.151
1782115873.155341,0.941000,327661,1000,12,0,1,846.392,-22.396,29.144,666.261,0.729,9.105
1782115873.156341,0.942000,327662,1000,12,0,1,820.450,-41.228,29.340,664.003,-1.494,9.026
1782115873.157341,0.943000,327663,1000,12,0,1,805.533,-46.518,30.054,663.115,-3.205,9.006
1782115873.158341,0.944000,327664,1000,12,0,1,807.887,-33.893,30.053,659.584,-4.938,9.033
1782115873.159341,0.945000,327665,1000,12,0,1,814.781,-16.336,30.030,660.977,-3.987,9.037
1782115873.160341,0.946000,327666,1000,12,0,1,833.157,6.569,30.044,663.427,1.008,9.015
1782115873.161341,0.947000,327667,1000,12,0,1,865.609,39.562,30.414,659.271,-0.740,8.960
1782115873.162341,0.948000,327668,1000,12,0,1,882.856,56.950,30.488,661.745,2.169,8.841
1782115873.163341,0.949000,327669,1000,12,0,1,871.446,42.773,29.769,665.541,9.127,8.768
1782115873.164341,0.950000,327670,1000,12,0,1,882.712,42.433,29.904,661.673,7.522,8.607
1782115873.165341,0.951000,327671,1000,12,0,1,888.429,47.433,30.619,654.876,3.225,8.059
1782115873.166341,0.952000,327672,1000,12,0,1,878.460,29.573,30.855,647.477,-0.938,7.235
1782115873.167341,0.953000,327673,1000,12,0,1,847.113,-0.060,30.789,645.075,-0.951,6.538
1782115873.168341,0.954000,327674,1000,12,0,1,821.603,-28.032,31.038,640.607,-1.066,6.199
1782115873.169341,0.955000,327675,1000,12,0,1,814.901,-30.543,31.317,632.801,-5.960,6.193
1782115873.170341,0.956000,327676,1000,12,0,1,821.795,-20.696,31.324,628.044,-7.921,6.289
1782115873.171341,0.957000,327677,1000,12,0,1,828.737,-10.014,31.102,624.513,-8.297,6.397
1782115873.172341,0.958000,327678,1000,12,0,1,836.256,-1.637,30.964,620.502,-9.745,6.544
1782115873.173341,0.959000,327679,1000,12,0,1,850.188,10.497,30.992,612.839,-13.855,6.816
1782115873.174341,0.960000,327680,1000,12,0,1,867.146,25.056,31.192,610.053,-15.208,7.093
1782115873.175341,0.961000,327681,1000,12,0,1,879.469,32.492,31.419,605.633,-15.014,7.378
1782115873.176341,0.962000,327682,1000,12,0,1,877.908,28.027,31.331,603.351,-15.548,7.692
1782115873.177341,0.963000,327683,1000,12,0,1,879.613,22.320,31.297,600.205,-13.949,7.890
1782115873.178341,0.964000,327684,1000,12,0,1,881.222,22.040,31.416,595.424,-15.204,8.130
1782115873.179341,0.965000,327685,1000,12,0,1,879.709,16.243,31.494,591.533,-14.321,8.315
1782115873.180341,0.966000,327686,1000,12,0,1,878.796,13.254,31.303,587.305,-13.067,8.449
1782115873.181341,0.967000,327687,1000,12,0,1,878.220,10.482,30.771,585.600,-9.789,8.499
1782115873.182341,0.968000,327688,1000,12,0,1,876.178,7.313,30.285,584.159,-4.925,8.485
1782115873.183341,0.969000,327689,1000,12,0,1,871.398,2.077,30.069,577.553,-5.058,8.443
1782115873.184341,0.970000,327690,1000,12,0,1,859.219,-8.584,30.093,575.751,-2.048,8.278
1782115873.185341,0.971000,327691,1000,12,0,1,860.517,-9.419,29.933,577.769,5.681,8.144
1782115873.186341,0.972000,327692,1000,12,0,1,859.652,-6.493,29.397,578.490,10.813,8.213
1782115873.187341,0.973000,327693,1000,12,0,1,851.317,-14.451,28.639,578.226,13.839,8.409
1782115873.188341,0.974000,327694,1000,12,0,1,845.263,-18.902,28.005,574.983,13.729,8.605
1782115873.189341,0.975000,327695,1000,12,0,1,839.691,-21.796,27.547,571.308,11.741,8.706
1782115873.190341,0.976000,327696,1000,12,0,1,833.589,-25.261,27.219,571.644,13.073,8.807
1782115873.191341,0.977000,327697,1000,12,0,1,818.048,-34.335,27.263,571.524,13.911,8.985
1782115873.192341,0.978000,327698,1000,12,0,1,803.780,-44.209,27.965,570.227,12.318,9.153
1782115873.193341,0.979000,327699,1000,12,0,1,801.282,-39.915,28.041,564.174,7.045,9.156
1782115873.194341,0.980000,327700,1000,12,0,1,803.948,-30.563,27.391,553.508,-2.730,9.134
1782115873.195341,0.981000,327701,1000,12,0,1,812.763,-17.152,26.654,547.527,-7.920,9.202
1782115873.196341,0.982000,327702,1000,12,0,1,820.979,-4.331,26.116,543.155,-9.179,9.253
1782115873.197341,0.983000,327703,1000,12,0,1,809.088,-9.407,26.060,538.135,-11.390,9.252
1782115873.198341,0.984000,327704,1000,12,0,1,795.517,-19.660,26.207,530.160,-14.556,9.289
1782115873.199341,0.985000,327705,1000,12,0,1,795.445,-14.105,26.267,523.290,-17.076,9.422
1782115873.200341,0.986000,327706,1000,12,0,1,798.783,-4.588,26.208,524.227,-11.603,9.506
1782115873.201341,0.987000,327707,1000,12,0,1,797.486,-0.232,26.042,525.404,-4.625,9.528
1782115873.202341,0.988000,327708,1000,12,0,1,794.724,1.529,25.782,520.144,-4.319,9.543
1782115873.203341,0.989000,327709,1000,12,0,1,786.149,-1.011,25.562,520.504,-0.605,9.515
1782115873.204341,0.990000,327710,1000,12,0,1,791.217,4.923,25.451,523.795,7.537,9.559
1782115873.205341,0.991000,327711,1000,12,0,1,814.997,28.934,25.582,519.279,7.688,9.620
1782115873.206341,0.992000,327712,1000,12,0,1,823.285,38.738,25.504,513.178,4.754,9.642
1782115873.207341,0.993000,327713,1000,12,0,1,827.680,36.460,25.175,503.786,0.817,9.632
1782115873.208341,0.994000,327714,1000,12,0,1,846.032,47.768,25.621,502.368,1.362,9.608
1782115873.209341,0.995000,327715,1000,12,0,1,862.606,56.456,26.737,511.016,12.774,9.760
1782115873.210341,0.996000,327716,1000,12,0,1,853.767,42.058,27.375,512.217,16.634,10.039
1782115873.211341,0.997000,327717,1000,12,0,1,852.518,28.329,27.095,511.712,15.101,10.263
1782115873.212341,0.998000,327718,1000,12,0,1,879.805,44.587,26.627,506.572,11.549,10.387
1782115873.213341,0.999000,327719,1000,12,0,1,869.957,34.326,26.382,500.543,4.672,10.328
1782115873.214341,1.000000,327720,1000,12,0,1,796.117,-36.397,26.201,505.371,8.289,10.340
1782115873.215341,1.001000,327721,1000,12,0,1,767.845,-69.846,27.185,501.504,6.966,10.377
1782115873.216341,1.002000,327722,1000,12,0,1,746.226,-69.807,28.618,500.879,3.411,10.387
1782115873.217341,1.003000,327723,1000,12,0,1,751.511,-62.723,29.962,493.192,-0.102,10.386
1782115873.218341,1.004000,327724,1000,12,0,1,779.615,-20.946,29.846,482.215,-10.772,10.496
1782115873.219341,1.005000,327725,1000,12,0,1,797.823,1.654,29.532,468.307,-18.482,10.784
1782115873.220341,1.006000,327726,1000,12,0,1,803.588,10.399,29.424,459.732,-23.028,11.209
1782115873.221341,1.007000,327727,1000,12,0,1,815.045,19.530,29.519,456.777,-18.726,11.458
1782115873.222341,1.008000,327728,1000,12,0,1,818.000,22.630,29.691,461.053,-9.502,11.454
1782115873.223341,1.009000,327729,1000,12,0,1,815.838,17.569,29.758,463.575,-0.712,11.285
1782115873.224341,1.010000,327730,1000,12,0,1,815.958,14.623,29.618,460.692,1.144,11.080
1782115873.225341,1.011000,327731,1000,12,0,1,826.479,20.942,29.409,458.771,2.607,10.880
1782115873.226341,1.012000,327732,1000,12,0,1,848.482,35.634,29.574,454.663,3.498,10.667
1782115873.227341,1.013000,327733,1000,12,0,1,875.866,54.174,30.386,451.324,2.712,10.490
1782115873.228341,1.014000,327734,1000,12,0,1,880.021,50.792,31.068,450.724,5.709,10.299
1782115873.229341,1.015000,327735,1000,12,0,1,860.973,23.990,31.168,452.742,9.183,10.182
1782115873.230341,1.016000,327736,1000,12,0,1,850.596,5.092,31.120,455.288,13.305,10.188
1782115873.231341,1.017000,327737,1000,12,0,1,832.941,-10.448,31.120,454.279,12.871,10.256
1782115873.232341,1.018000,327738,1000,12,0,1,824.582,-22.576,31.266,454.879,12.593,10.386
1782115873.233341,1.019000,327739,1000,12,0,1,831.331,-13.278,31.321,455.792,13.235,10.529
1782115873.234341,1.020000,327740,1000,12,0,1,838.946,-5.297,31.306,455.816,12.051,10.662
1782115873.235341,1.021000,327741,1000,12,0,1,846.753,1.988,31.279,451.420,7.858,10.690
1782115873.236341,1.022000,327742,1000,12,0,1,841.877,-1.075,31.266,447.889,3.362,10.591
1782115873.237341,1.023000,327743,1000,12,0,1,816.559,-23.074,31.369,451.012,5.980,10.443
1782115873.238341,1.024000,327744,1000,12,0,1,783.410,-49.707,32.036,456.056,10.811,10.374
1782115873.239341,1.025000,327745,1000,12,0,1,741.278,-78.149,33.748,461.101,14.547,10.445
1782115873.240341,1.026000,327746,1000,12,0,1,706.880,-97.581,36.285,462.518,15.378,10.507
1782115873.241341,1.027000,327747,1000,12,0,1,688.000,-97.045,38.489,455.336,8.436,10.390
1782115873.242341,1.028000,327748,1000,12,0,1,673.251,-90.493,40.076,454.615,5.870,10.277
1782115873.243341,1.029000,327749,1000,12,0,1,675.461,-72.244,40.971,452.910,6.521,10.270
1782115873.244341,1.030000,327750,1000,12,0,1,692.660,-39.626,41.126,445.896,0.472,10.263
1782115873.245341,1.031000,327751,1000,12,0,1,701.596,-18.166,41.135,430.258,-10.519,10.309
1782115873.246341,1.032000,327752,1000,12,0,1,700.299,-10.822,41.159,422.139,-16.738,10.498
1782115873.247341,1.033000,327753,1000,12,0,1,693.429,-9.787,41.160,421.755,-11.860,10.508
1782115873.248341,1.034000,327754,1000,12,0,1,711.925,8.738,41.085,419.065,-10.010,10.401
1782115873.249341,1.035000,327755,1000,12,0,1,753.072,49.527,41.630,419.929,-6.764,10.162
1782115873.250341,1.036000,327756,1000,12,0,1,774.643,69.347,42.765,424.878,0.617,10.029
1782115873.251341,1.037000,327757,1000,12,0,1,782.377,68.064,43.834,432.084,7.639,10.066
1782115873.252341,1.038000,327758,1000,12,0,1,801.594,76.091,45.135,430.210,7.490,10.103
1782115873.253341,1.039000,327759,1000,12,0,1,831.524,93.044,47.014,417.792,-4.495,10.123
1782115873.254341,1.040000,327760,1000,12,0,1,848.530,98.216,49.018,416.014,-7.288,10.119
1782115873.255341,1.041000,327761,1000,12,0,1,842.981,80.233,50.148,421.899,-0.063,10.060
1782115873.256341,1.042000,327762,1000,12,0,1,841.925,64.572,50.677,426.943,4.838,10.061
1782115873.257341,1.043000,327763,1000,12,0,1,865.056,72.912,51.458,423.797,3.052,10.070
1782115873.258341,1.044000,327764,1000,12,0,1,875.169,74.089,52.077,418.224,-2.571,10.074
1782115873.259341,1.045000,327765,1000,12,0,1,853.647,43.214,51.823,419.017,-1.152,9.912
1782115873.260341,1.046000,327766,1000,12,0,1,837.505,16.267,51.532,417.191,-0.136,9.629
1782115873.261341,1.047000,327767,1000,12,0,1,826.287,2.217,51.377,413.852,-2.047,9.394
1782115873.262341,1.048000,327768,1000,12,0,1,808.440,-17.389,51.048,412.891,-0.453,9.251
1782115873.263341,1.049000,327769,1000,12,0,1,790.785,-34.348,51.048,412.651,1.615,9.230
1782115873.264341,1.050000,327770,1000,12,0,1,777.405,-45.126,51.188,412.483,3.745,9.171
1782115873.265341,1.051000,327771,1000,12,0,1,764.866,-52.764,50.777,410.009,3.725,9.133
1782115873.266341,1.052000,327772,1000,12,0,1,752.784,-59.108,50.504,406.262,1.982,9.125
1782115873.267341,1.053000,327773,1000,12,0,1,748.604,-58.164,50.395,408.448,4.821,9.150
1782115873.268341,1.054000,327774,1000,12,0,1,749.037,-51.284,50.828,410.657,8.663,9.105
1782115873.269341,1.055000,327775,1000,12,0,1,743.344,-50.008,51.317,412.003,9.449,8.824
1782115873.270341,1.056000,327776,1000,12,0,1,751.078,-40.161,51.610,415.101,11.545,8.362
1782115873.271341,1.057000,327777,1000,12,0,1,781.008,-9.472,51.553,424.782,17.735,8.318
1782115873.272341,1.058000,327778,1000,12,0,1,803.804,14.313,51.493,434.774,24.406,8.905
1782115873.273341,1.059000,327779,1000,12,0,1,792.466,4.839,51.438,437.008,22.454,9.454
1782115873.274341,1.060000,327780,1000,12,0,1,790.905,-2.456,51.398,440.011,19.241,9.836
1782115873.275341,1.061000,327781,1000,12,0,1,813.724,18.916,51.382,440.035,15.760,10.079
1782115873.276341,1.062000,327782,1000,12,0,1,835.007,37.662,51.411,439.050,9.779,10.161
1782115873.277341,1.063000,327783,1000,12,0,1,839.547,39.231,51.139,440.011,7.647,10.211
1782115873.278341,1.064000,327784,1000,12,0,1,826.599,24.371,50.749,437.681,3.377,10.191
1782115873.279341,1.065000,327785,1000,12,0,1,817.904,12.172,50.664,433.813,-1.932,10.111
1782115873.280341,1.066000,327786,1000,12,0,1,810.770,7.241,50.670,432.877,-3.491,9.947
1782115873.281341,1.067000,327787,1000,12,0,1,812.956,7.256,50.659,434.582,-1.816,9.782
1782115873.282341,1.068000,327788,1000,12,0,1,820.306,15.435,50.605,435.783,-0.110,9.619
1782115873.283341,1.069000,327789,1000,12,0,1,831.740,22.534,50.670,434.870,-0.553,9.435
1782115873.284341,1.070000,327790,1000,12,0,1,863.375,44.402,51.052,431.171,-3.149,9.291
1782115873.285341,1.071000,327791,1000,12,0,1,890.278,62.428,51.809,425.406,-7.480,9.285
1782115873.286341,1.072000,327792,1000,12,0,1,888.789,49.291,52.276,419.233,-11.536,9.415
1782115873.287341,1.073000,327793,1000,12,0,1,884.537,29.916,52.345,417.816,-11.516,9.517
1782115873.288341,1.074000,327794,1000,12,0,1,886.843,20.439,51.952,418.945,-8.267,9.466
1782115873.289341,1.075000,327795,1000,12,0,1,884.513,8.522,50.777,419.185,-6.791,9.290
1782115873.290341,1.076000,327796,1000,12,0,1,879.709,-5.067,48.871,422.067,-4.033,9.049
1782115873.291341,1.077000,327797,1000,12,0,1,884.729,-8.385,46.919,426.127,-0.213,8.970
1782115873.292341,1.078000,327798,1000,12,0,1,891.623,-6.577,45.150,429.922,2.069,8.937
1782115873.293341,1.079000,327799,1000,12,0,1,893.401,-9.495,43.999,435.351,5.126,8.919
1782115873.294341,1.080000,327800,1000,12,0,1,875.121,-26.374,43.800,441.404,8.328,8.996
1782115873.295341,1.081000,327801,1000,12,0,1,848.026,-51.324,44.323,444.118,8.366,8.950
1782115873.296341,1.082000,327802,1000,12,0,1,821.939,-68.313,45.338,443.638,5.121,8.662
1782115873.297341,1.083000,327803,1000,12,0,1,813.724,-68.089,46.328,438.281,-1.194,8.500
1782115873.298341,1.084000,327804,1000,12,0,1,808.296,-58.586,47.047,436.576,-4.695,8.407
1782115873.299341,1.085000,327805,1000,12,0,1,814.085,-44.632,46.949,430.907,-7.864,8.426
1782115873.300341,1.086000,327806,1000,12,0,1,828.041,-20.943,46.009,429.538,-9.621,8.535
1782115873.301341,1.087000,327807,1000,12,0,1,852.109,4.895,44.996,429.754,-6.066,8.510
1782115873.302341,1.088000,327808,1000,12,0,1,875.505,28.703,43.878,429.129,-5.145,8.475
1782115873.303341,1.089000,327809,1000,12,0,1,908.053,51.556,42.489,429.634,-2.515,8.459
1782115873.304341,1.090000,327810,1000,12,0,1,946.078,77.122,41.609,431.315,0.657,8.396
1782115873.305341,1.091000,327811,1000,12,0,1,961.572,79.097,41.566,433.309,3.503,8.411
1782115873.306341,1.092000,327812,1000,12,0,1,960.322,59.658,41.419,436.528,6.739,8.437
1782115873.307341,1.093000,327813,1000,12,0,1,929.504,21.131,40.226,446.064,13.662,8.644
1782115873.308341,1.094000,327814,1000,12,0,1,869.140,-42.638,39.303,464.584,27.492,9.472
1782115873.309341,1.095000,327815,1000,12,0,1,829.001,-81.914,40.516,478.276,35.807,10.739
1782115873.310341,1.096000,327816,1000,12,0,1,832.821,-72.662,41.735,482.599,32.548,11.684
1782115873.311341,1.097000,327817,1000,12,0,1,860.420,-38.313,42.085,483.824,25.545,12.226
1782115873.312341,1.098000,327818,1000,12,0,1,860.420,-27.329,42.190,483.824,18.349,12.498
1782115873.313341,1.099000,327819,1000,12,0,1,823.693,-54.268,42.606,473.135,3.753,12.508
1782115873.314341,1.100000,327820,1000,12,0,1,814.757,-59.189,42.949,476.162,-1.336,12.498
1782115873.315341,1.101000,327821,1000,12,0,1,812.836,-44.595,42.764,479.549,1.499,12.489
1782115873.316341,1.102000,327822,1000,12,0,1,812.691,-37.271,42.269,481.398,-1.717,12.488
1782115873.317341,1.103000,327823,1000,12,0,1,822.204,-18.049,41.539,479.212,-4.315,12.484
1782115873.318341,1.104000,327824,1000,12,0,1,827.945,-5.117,40.907,475.898,-9.744,12.500
1782115873.319341,1.105000,327825,1000,12,0,1,826.768,-1.014,40.292,469.964,-14.329,12.592
1782115873.320341,1.106000,327826,1000,12,0,1,822.588,-0.725,39.890,466.890,-16.924,12.713
1782115873.321341,1.107000,327827,1000,12,0,1,820.546,-0.137,39.867,459.732,-20.045,12.782
1782115873.322341,1.108000,327828,1000,12,0,1,818.384,1.483,39.816,453.847,-23.360,12.743
1782115873.323341,1.109000,327829,1000,12,0,1,813.652,-0.953,39.811,448.754,-23.597,12.784
1782115873.324341,1.110000,327830,1000,12,0,1,811.947,-0.699,39.809,443.782,-24.037,12.945
1782115873.325341,1.111000,327831,1000,12,0,1,811.610,0.849,39.719,440.443,-22.985,13.160
1782115873.326341,1.112000,327832,1000,12,0,1,815.814,5.277,39.368,440.107,-19.155,13.364
1782115873.327341,1.113000,327833,1000,12,0,1,826.215,14.722,39.030,439.074,-16.442,13.522
1782115873.328341,1.114000,327834,1000,12,0,1,826.359,15.920,38.943,438.377,-14.261,13.663
1782115873.329341,1.115000,327835,1000,12,0,1,825.326,11.932,38.942,439.819,-11.004,13.749
1782115873.330341,1.116000,327836,1000,12,0,1,827.488,13.807,38.977,439.386,-9.067,13.800
1782115873.331341,1.117000,327837,1000,12,0,1,855.496,33.522,39.251,439.650,-8.330,13.848
1782115873.332341,1.118000,327838,1000,12,0,1,888.837,62.417,40.172,445.055,-2.727,13.853
1782115873.333341,1.119000,327839,1000,12,0,1,889.149,57.173,40.853,451.420,3.384,13.861
1782115873.334341,1.120000,327840,1000,12,0,1,862.150,24.938,40.522,453.294,5.006,13.872
1782115873.335341,1.121000,327841,1000,12,0,1,853.623,9.139,39.569,456.129,5.999,13.857
1782115873.336341,1.122000,327842,1000,12,0,1,862.678,16.719,39.022,457.690,7.404,13.801
1782115873.337341,1.123000,327843,1000,12,0,1,847.401,5.318,38.800,460.933,8.823,13.761
1782115873.338341,1.124000,327844,1000,12,0,1,833.926,-11.209,38.724,466.001,13.075,13.835
1782115873.339341,1.125000,327845,1000,12,0,1,842.477,-1.708,38.706,463.287,10.789,13.886
1782115873.340341,1.126000,327846,1000,12,0,1,832.268,-6.066,38.709,458.603,5.335,13.895
1782115873.341341,1.127000,327847,1000,12,0,1,816.439,-21.657,38.812,457.161,4.618,13.910
1782115873.342341,1.128000,327848,1000,12,0,1,813.484,-21.467,38.919,454.183,3.099,13.914
1782115873.343341,1.129000,327849,1000,12,0,1,818.048,-14.748,38.952,447.049,-1.808,13.898
1782115873.344341,1.130000,327850,1000,12,0,1,816.751,-12.654,38.814,446.376,-2.129,13.851
1782115873.345341,1.131000,327851,1000,12,0,1,813.532,-15.222,38.190,446.112,0.396,13.800
1782115873.346341,1.132000,327852,1000,12,0,1,817.111,-11.431,36.984,443.710,-1.318,13.783
1782115873.347341,1.133000,327853,1000,12,0,1,828.425,-1.172,35.708,440.515,-3.146,13.789
1782115873.348341,1.134000,327854,1000,12,0,1,839.018,7.842,34.752,440.083,-3.621,13.782
1782115873.349341,1.135000,327855,1000,12,0,1,837.337,5.448,34.182,440.539,-2.632,13.742
1782115873.350341,1.136000,327856,1000,12,0,1,823.140,-8.818,34.077,438.425,-4.480,13.689
1782115873.351341,1.137000,327857,1000,12,0,1,806.878,-22.872,34.223,434.798,-8.007,13.709
1782115873.352341,1.138000,327858,1000,12,0,1,806.878,-21.410,34.116,434.798,-8.204,13.739
1782115873.353341,1.139000,327859,1000,12,0,1,806.878,-14.252,33.388,434.798,-7.313,13.773
1782115873.354341,1.140000,327860,1000,12,0,1,810.674,-8.537,31.580,415.510,-21.066,14.092
1782115873.355341,1.141000,327861,1000,12,0,1,808.872,-3.354,29.536,411.066,-26.853,14.586
1782115873.356341,1.142000,327862,1000,12,0,1,800.465,-7.918,28.328,406.454,-21.878,14.880
1782115873.357341,1.143000,327863,1000,12,0,1,781.008,-18.531,28.291,408.928,-18.597,14.987
1782115873.358341,1.144000,327864,1000,12,0,1,772.769,-22.624,27.826,412.987,-7.144,14.509
1782115873.359341,1.145000,327865,1000,12,0,1,781.945,-7.098,25.320,414.092,-3.362,13.605
1782115873.360341,1.146000,327866,1000,12,0,1,803.419,15.982,23.251,414.621,1.134,12.803
1782115873.361341,1.147000,327867,1000,12,0,1,822.011,34.530,23.132,412.219,2.439,12.288
1782115873.362341,1.148000,327868,1000,12,0,1,822.972,33.730,23.300,414.188,5.665,12.038
1782115873.363341,1.149000,327869,1000,12,0,1,825.927,29.032,22.380,410.489,6.938,12.066
1782115873.364341,1.150000,327870,1000,12,0,1,865.273,55.014,22.166,401.025,-0.660,12.065
1782115873.365341,1.151000,327871,1000,12,0,1,888.164,71.554,23.536,394.852,-3.182,12.071
1782115873.366341,1.152000,327872,1000,12,0,1,862.967,37.478,23.542,395.933,-0.355,12.069
1782115873.367341,1.153000,327873,1000,12,0,1,829.434,-4.597,23.413,400.641,6.688,12.090
1782115873.368341,1.154000,327874,1000,12,0,1,795.613,-36.111,23.952,407.102,12.706,12.145
1782115873.369341,1.155000,327875,1000,12,0,1,757.684,-67.102,25.763,412.747,17.437,12.226
1782115873.370341,1.156000,327876,1000,12,0,1,759.654,-61.365,27.185,413.035,16.017,12.202
1782115873.371341,1.157000,327877,1000,12,0,1,794.003,-19.490,27.325,408.496,9.638,11.946
1782115873.372341,1.158000,327878,1000,12,0,1,818.096,9.728,27.359,410.946,8.646,11.545
1782115873.373341,1.159000,327879,1000,12,0,1,831.884,22.003,27.535,408.808,6.922,11.096
1782115873.374341,1.160000,327880,1000,12,0,1,827.368,19.185,27.668,409.096,3.962,10.577
1782115873.375341,1.161000,327881,1000,12,0,1,806.278,-1.526,27.668,407.631,3.507,10.077
1782115873.376341,1.162000,327882,1000,12,0,1,794.820,-12.161,27.712,406.045,0.660,9.707
1782115873.377341,1.163000,327883,1000,12,0,1,784.419,-16.273,27.729,399.368,-3.407,9.436
1782115873.378341,1.164000,327884,1000,12,0,1,780.696,-17.258,27.745,397.134,-5.627,9.253
1782115873.379341,1.165000,327885,1000,12,0,1,782.185,-10.238,27.732,393.459,-5.087,9.149
1782115873.380341,1.166000,327886,1000,12,0,1,780.047,-8.483,27.689,389.303,-6.949,9.112
1782115873.381341,1.167000,327887,1000,12,0,1,781.585,-5.112,27.289,383.274,-8.346,9.112
1782115873.382341,1.168000,327888,1000,12,0,1,783.146,-0.917,25.823,375.275,-11.824,9.256
1782115873.383341,1.169000,327889,1000,12,0,1,770.367,-9.754,24.563,369.414,-13.171,9.430
1782115873.384341,1.170000,327890,1000,12,0,1,768.445,-12.791,24.376,369.054,-9.098,9.491
1782115873.385341,1.171000,327891,1000,12,0,1,776.925,-1.775,24.343,367.372,-6.175,9.493
1782115873.386341,1.172000,327892,1000,12,0,1,789.584,9.266,24.263,364.418,-5.671,9.469
1782115873.387341,1.173000,327893,1000,12,0,1,804.885,21.981,24.450,361.127,-5.852,9.423
1782115873.388341,1.174000,327894,1000,12,0,1,821.219,32.865,24.837,361.127,-3.848,9.256
1782115873.389341,1.175000,327895,1000,12,0,1,814.997,25.414,25.095,363.577,0.140,9.129
1782115873.390341,1.176000,327896,1000,12,0,1,797.702,4.078,25.087,365.258,2.817,9.107
1782115873.391341,1.177000,327897,1000,12,0,1,803.948,5.541,24.911,367.901,4.944,9.110
1782115873.392341,1.178000,327898,1000,12,0,1,816.703,18.728,24.867,369.774,6.786,9.150
1782115873.393341,1.179000,327899,1000,12,0,1,793.571,0.355,24.779,369.054,5.486,9.179
1782115873.394341,1.180000,327900,1000,12,0,1,765.419,-26.999,25.008,365.571,2.349,9.180
1782115873.395341,1.181000,327901,1000,12,0,1,761.888,-25.931,25.184,359.301,-2.762,9.189
1782115873.396341,1.182000,327902,1000,12,0,1,773.346,-9.203,25.165,354.497,-5.837,9.224
1782115873.397341,1.183000,327903,1000,12,0,1,786.485,7.122,25.185,350.438,-6.566,9.260
1782115873.398341,1.184000,327904,1000,12,0,1,789.776,12.975,25.227,351.038,-3.587,9.259
1782115873.399341,1.185000,327905,1000,12,0,1,779.231,3.955,25.222,348.948,-0.916,9.253
1782115873.400341,1.186000,327906,1000,12,0,1,763.233,-9.909,25.230,342.463,-3.725,9.246
1782115873.401341,1.187000,327907,1000,12,0,1,760.350,-12.563,25.085,339.316,-3.279,9.188
1782115873.402341,1.188000,327908,1000,12,0,1,778.774,4.954,24.911,341.694,2.348,9.121
1782115873.403341,1.189000,327909,1000,12,0,1,785.116,13.470,24.902,342.991,6.920,9.115
1782115873.404341,1.190000,327910,1000,12,0,1,781.152,5.889,24.887,340.829,6.974,8.670
1782115873.405341,1.191000,327911,1000,12,0,1,772.433,-2.701,24.885,343.568,9.668,7.913
1782115873.406341,1.192000,327912,1000,12,0,1,759.966,-15.026,24.951,343.640,11.468,7.462
1782115873.407341,1.193000,327913,1000,12,0,1,766.764,-10.544,24.858,341.598,8.418,7.084
1782115873.408341,1.194000,327914,1000,12,0,1,790.857,12.334,24.713,336.241,4.060,7.035
1782115873.409341,1.195000,327915,1000,12,0,1,808.344,27.329,24.993,329.876,-2.466,7.027
1782115873.410341,1.196000,327916,1000,12,0,1,813.268,27.996,25.203,324.543,-6.454,7.084
1782115873.411341,1.197000,327917,1000,12,0,1,802.723,15.321,24.820,322.862,-7.322,7.151
1782115873.412341,1.198000,327918,1000,12,0,1,780.215,-6.858,24.377,320.244,-7.515,7.185
1782115873.413341,1.199000,327919,1000,12,0,1,760.687,-23.776,24.263,315.656,-9.935,7.255
1782115873.414341,1.200000,327920,1000,12,0,1,750.262,-28.229,23.326,312.101,-10.882,7.416
1782115873.415341,1.201000,327921,1000,12,0,1,748.148,-23.828,21.285,309.002,-10.397,7.547
1782115873.416341,1.202000,327922,1000,12,0,1,746.082,-18.011,20.771,305.615,-10.077,7.680
1782115873.417341,1.203000,327923,1000,12,0,1,772.721,6.652,20.783,300.210,-10.521,7.766
1782115873.418341,1.204000,327924,1000,12,0,1,812.763,46.517,21.192,298.313,-8.727,7.655
1782115873.419341,1.205000,327925,1000,12,0,1,854.680,76.604,21.827,298.649,-3.356,7.263
1782115873.420341,1.206000,327926,1000,12,0,1,883.096,92.514,23.922,297.472,-0.380,6.901
1782115873.421341,1.207000,327927,1000,12,0,1,888.116,80.930,26.376,297.568,3.087,6.779
1782115873.422341,1.208000,327928,1000,12,0,1,880.790,57.038,27.547,299.490,7.798,6.758
1782115873.423341,1.209000,327929,1000,12,0,1,870.605,33.288,27.773,304.606,13.977,6.973
1782115873.424341,1.210000,327930,1000,12,0,1,859.676,11.702,27.690,310.251,20.051,7.506
1782115873.425341,1.211000,327931,1000,12,0,1,830.371,-19.154,27.821,320.027,26.992,8.407
1782115873.426341,1.212000,327932,1000,12,0,1,793.907,-56.020,28.876,324.447,29.885,9.409
1782115873.427341,1.213000,327933,1000,12,0,1,757.924,-82.385,31.052,330.308,29.622,10.288
1782115873.428341,1.214000,327934,1000,12,0,1,728.619,-99.592,34.010,333.191,29.127,11.053
1782115873.429341,1.215000,327935,1000,12,0,1,703.638,-105.610,37.117,337.202,26.181,11.635
1782115873.430341,1.216000,327936,1000,12,0,1,699.218,-94.671,39.439,333.743,19.942,11.931
1782115873.431341,1.217000,327937,1000,12,0,1,711.564,-64.900,40.487,324.543,6.531,11.909
1782115873.432341,1.218000,327938,1000,12,0,1,716.729,-44.077,40.964,322.550,1.277,11.792
1782115873.433341,1.219000,327939,1000,12,0,1,720.476,-30.387,41.165,322.141,0.393,11.644
1782115873.434341,1.220000,327940,1000,12,0,1,734.024,-9.490,41.147,323.078,-0.619,11.573
1782115873.435341,1.221000,327941,1000,12,0,1,753.144,13.114,41.188,318.874,-3.273,11.549
1782115873.436341,1.222000,327942,1000,12,0,1,757.924,21.774,41.283,313.734,-8.876,11.590
1782115873.437341,1.223000,327943,1000,12,0,1,764.194,24.148,41.307,310.083,-10.103,11.648
1782115873.438341,1.224000,327944,1000,12,0,1,798.111,50.240,41.655,301.003,-15.648,11.844
1782115873.439341,1.225000,327945,1000,12,0,1,835.823,79.426,42.993,292.043,-20.979,12.210
1782115873.440341,1.226000,327946,1000,12,0,1,859.219,88.781,44.785,288.656,-19.910,12.524
1782115873.441341,1.227000,327947,1000,12,0,1,863.111,79.011,46.151,294.830,-10.872,12.599
1782115873.442341,1.228000,327948,1000,12,0,1,845.360,49.738,46.609,303.886,1.143,12.563
1782115873.443341,1.229000,327949,1000,12,0,1,813.172,11.134,46.635,314.359,11.001,12.635
1782115873.444341,1.230000,327950,1000,12,0,1,780.792,-22.459,46.587,316.737,13.943,12.784
1782115873.445341,1.231000,327951,1000,12,0,1,770.463,-32.076,46.664,313.182,8.253,12.831
1782115873.446341,1.232000,327952,1000,12,0,1,767.124,-27.898,46.812,307.248,1.947,12.808
1782115873.447341,1.233000,327953,1000,12,0,1,774.354,-18.512,46.874,301.507,-4.300,12.788
1782115873.448341,1.234000,327954,1000,12,0,1,779.879,-6.571,46.848,301.483,-4.771,12.796
1782115873.449341,1.235000,327955,1000,12,0,1,766.067,-14.941,46.892,304.270,-1.555,12.797
1782115873.450341,1.236000,327956,1000,12,0,1,753.240,-24.656,47.001,310.924,3.542,12.796
1782115873.451341,1.237000,327957,1000,12,0,1,764.962,-11.605,46.996,315.031,7.546,12.832
1782115873.452341,1.238000,327958,1000,12,0,1,780.504,6.834,47.000,310.924,2.829,12.834
1782115873.453341,1.239000,327959,1000,12,0,1,807.767,27.361,47.121,308.858,-0.542,12.797
1782115873.454341,1.240000,327960,1000,12,0,1,826.743,42.786,47.501,309.218,0.228,12.759
1782115873.455341,1.241000,327961,1000,12,0,1,826.047,33.661,47.737,309.771,0.835,12.686
1782115873.456341,1.242000,327962,1000,12,0,1,807.551,10.392,47.712,313.566,4.255,12.596
1782115873.457341,1.243000,327963,1000,12,0,1,803.179,-2.592,47.690,312.725,4.660,12.557
1782115873.458341,1.244000,327964,1000,12,0,1,822.900,11.234,47.685,306.816,-0.764,12.545
1782115873.459341,1.245000,327965,1000,12,0,1,834.814,20.076,47.613,304.198,-2.795,12.546
1782115873.460341,1.246000,327966,1000,12,0,1,830.971,10.685,47.472,302.516,-2.610,12.518
1782115873.461341,1.247000,327967,1000,12,0,1,823.741,0.092,47.422,303.573,-1.095,12.476
1782115873.462341,1.248000,327968,1000,12,0,1,814.853,-9.992,47.434,304.558,1.306,12.432
1782115873.463341,1.249000,327969,1000,12,0,1,817.808,-8.848,47.331,305.663,2.166,12.356
1782115873.464341,1.250000,327970,1000,12,0,1,824.437,-0.936,47.162,306.312,2.998,12.268
1782115873.465341,1.251000,327971,1000,12,0,1,816.871,-5.747,47.049,305.591,1.794,12.182
1782115873.466341,1.252000,327972,1000,12,0,1,801.210,-18.920,47.056,304.630,0.284,12.098
1782115873.467341,1.253000,327973,1000,12,0,1,785.188,-29.416,47.230,310.852,4.144,12.021
1782115873.468341,1.254000,327974,1000,12,0,1,768.277,-38.802,47.091,313.013,6.349,11.991
1782115873.469341,1.255000,327975,1000,12,0,1,752.496,-45.461,46.276,315.367,5.295,12.005
1782115873.470341,1.256000,327976,1000,12,0,1,745.073,-44.334,44.829,317.169,6.016,12.035
1782115873.471341,1.257000,327977,1000,12,0,1,748.989,-32.679,43.589,317.649,4.129,12.041
1782115873.472341,1.258000,327978,1000,12,0,1,768.013,-10.417,42.861,316.544,1.992,11.994
1782115873.473341,1.259000,327979,1000,12,0,1,791.889,14.398,42.651,313.854,-1.375,11.831
1782115873.474341,1.260000,327980,1000,12,0,1,815.766,33.085,42.875,313.590,-2.373,11.491
1782115873.475341,1.261000,327981,1000,12,0,1,819.970,33.846,43.056,313.470,-1.650,10.841
1782115873.476341,1.262000,327982,1000,12,0,1,816.174,21.226,42.427,311.332,-3.223,9.994
1782115873.477341,1.263000,327983,1000,12,0,1,820.690,18.753,40.882,305.975,-6.480,9.120
1782115873.478341,1.264000,327984,1000,12,0,1,816.847,11.884,38.416,304.414,-7.366,8.203
1782115873.479341,1.265000,327985,1000,12,0,1,806.038,-2.560,35.396,305.807,-3.672,7.338
1782115873.480341,1.266000,327986,1000,12,0,1,803.107,-7.108,32.781,303.405,-3.969,6.798
1782115873.481341,1.267000,327987,1000,12,0,1,809.497,-1.456,31.471,299.970,-5.875,6.786
1782115873.482341,1.268000,327988,1000,12,0,1,815.021,5.113,30.856,298.073,-6.038,6.837
1782115873.483341,1.269000,327989,1000,12,0,1,824.942,12.812,30.609,298.121,-4.748,6.870
1782115873.484341,1.270000,327990,1000,12,0,1,844.543,29.273,30.858,298.481,-3.114,6.883
1782115873.485341,1.271000,327991,1000,12,0,1,860.637,41.563,31.358,294.349,-5.579,6.913
1782115873.486341,1.272000,327992,1000,12,0,1,865.056,40.684,31.733,289.785,-9.292,6.924
1782115873.487341,1.273000,327993,1000,12,0,1,849.563,22.782,31.713,292.284,-6.518,6.837
1782115873.488341,1.274000,327994,1000,12,0,1,822.132,-6.094,30.918,297.664,-0.427,6.469
1782115873.489341,1.275000,327995,1000,12,0,1,798.952,-27.382,29.065,304.078,4.902,5.791
1782115873.490341,1.276000,327996,1000,12,0,1,788.406,-34.338,26.659,310.323,9.770,5.245
1782115873.491341,1.277000,327997,1000,12,0,1,782.473,-34.171,24.682,309.819,8.357,5.152
1782115873.492341,1.278000,327998,1000,12,0,1,790.184,-24.924,23.920,305.447,2.602,5.163
1782115873.493341,1.279000,327999,1000,12,0,1,794.147,-15.766,23.972,305.927,1.771,4.929
1782115873.494341,1.280000,328000,1000,12,0,1,783.170,-24.153,24.005,305.687,2.267,4.529
1782115873.495341,1.281000,328001,1000,12,0,1,774.378,-31.377,23.986,303.165,-0.041,4.376
1782115873.496341,1.282000,328002,1000,12,0,1,774.282,-28.694,24.005,302.204,-0.314,4.368
1782115873.497341,1.283000,328003,1000,12,0,1,772.481,-26.589,24.156,298.193,-2.132,4.336
1782115873.498341,1.284000,328004,1000,12,0,1,757.636,-34.952,24.639,294.373,-4.656,4.333
1782115873.499341,1.285000,328005,1000,12,0,1,767.653,-26.415,24.831,291.683,-4.700,4.378
1782115873.500341,1.286000,328006,1000,12,0,1,817.832,21.528,24.773,288.224,-5.708,4.424
1782115873.501341,1.287000,328007,1000,12,0,1,856.986,58.437,26.063,288.128,-4.109,4.332
1782115873.502341,1.288000,328008,1000,12,0,1,851.413,48.757,26.943,307.344,12.234,4.648
1782115873.503341,1.289000,328009,1000,12,0,1,851.413,36.338,27.154,307.344,16.607,5.207
1782115873.504341,1.290000,328010,1000,12,0,1,835.919,23.368,26.677,314.383,14.694,5.606
1782115873.505341,1.291000,328011,1000,12,0,1,841.084,17.134,26.360,323.510,23.701,6.531
1782115873.506341,1.292000,328012,1000,12,0,1,831.476,15.900,26.415,333.263,25.023,7.403
1782115873.507341,1.293000,328013,1000,12,0,1,809.328,-8.823,26.442,340.733,27.831,8.359
1782115873.508341,1.294000,328014,1000,12,0,1,808.992,-7.305,26.415,346.810,25.769,9.118
1782115873.509341,1.295000,328015,1000,12,0,1,809.449,-1.577,26.262,345.778,19.436,9.515
1782115873.510341,1.296000,328016,1000,12,0,1,813.412,1.266,26.220,345.489,12.349,9.667
1782115873.511341,1.297000,328017,1000,12,0,1,816.367,7.191,26.239,346.642,8.847,9.746
1782115873.512341,1.298000,328018,1000,12,0,1,810.241,-0.196,26.201,341.238,1.435,9.747
1782115873.513341,1.299000,328019,1000,12,0,1,793.307,-14.197,26.248,337.274,-6.037,9.779
1782115873.514341,1.300000,328020,1000,12,0,1,779.014,-28.852,26.563,334.392,-8.128,9.837
1782115873.515341,1.301000,328021,1000,12,0,1,767.653,-35.138,27.012,327.186,-14.658,10.050
1782115873.516341,1.302000,328022,1000,12,0,1,761.816,-38.465,27.424,319.547,-19.687,10.429
1782115873.517341,1.303000,328023,1000,12,0,1,756.651,-37.515,27.621,315.608,-21.099,10.831
1782115873.518341,1.304000,328024,1000,12,0,1,759.269,-32.495,27.457,309.578,-22.022,11.234
1782115873.519341,1.305000,328025,1000,12,0,1,765.635,-21.470,26.866,307.248,-21.631,11.619
1782115873.520341,1.306000,328026,1000,12,0,1,773.129,-11.983,26.179,307.032,-17.246,11.842
1782115873.521341,1.307000,328027,1000,12,0,1,792.946,6.458,25.784,309.747,-12.578,11.961
1782115873.522341,1.308000,328028,1000,12,0,1,823.741,34.046,26.189,315.608,-5.073,11.979
1782115873.523341,1.309000,328029,1000,12,0,1,837.313,45.193,26.880,320.051,-0.189,11.977
1782115873.524341,1.310000,328030,1000,12,0,1,835.703,37.859,27.006,322.550,1.400,11.974
1782115873.525341,1.311000,328031,1000,12,0,1,820.498,21.517,26.752,324.735,2.186,11.976
1782115873.526341,1.312000,328032,1000,12,0,1,828.185,21.613,26.758,322.478,-0.862,11.968
1782115873.527341,1.313000,328033,1000,12,0,1,847.089,39.904,27.218,321.156,-3.945,11.946
1782115873.528341,1.314000,328034,1000,12,0,1,845.984,36.865,27.662,322.117,-3.614,11.911
1782115873.529341,1.315000,328035,1000,12,0,1,855.808,37.375,28.160,327.834,0.345,11.900
1782115873.530341,1.316000,328036,1000,12,0,1,862.366,42.045,28.763,329.203,2.143,11.891
1782115873.531341,1.317000,328037,1000,12,0,1,856.361,28.798,29.049,324.735,-2.653,11.867
1782115873.532341,1.318000,328038,1000,12,0,1,852.902,19.682,29.173,320.700,-6.103,11.868
1782115873.533341,1.319000,328039,1000,12,0,1,845.360,8.260,29.141,320.508,-5.166,11.872
1782115873.534341,1.320000,328040,1000,12,0,1,823.453,-14.356,28.916,321.757,-2.164,11.867
1782115873.535341,1.321000,328041,1000,12,0,1,802.891,-35.943,28.765,321.853,-0.172,11.841
1782115873.536341,1.322000,328042,1000,12,0,1,789.704,-45.990,28.925,321.589,0.926,11.769
1782115873.537341,1.323000,328043,1000,12,0,1,786.052,-46.815,29.497,324.784,4.742,11.752
1782115873.538341,1.324000,328044,1000,12,0,1,799.960,-32.041,29.831,328.651,9.079,11.822
1782115873.539341,1.325000,328045,1000,12,0,1,819.321,-11.631,29.624,334.152,13.195,11.948
1782115873.540341,1.326000,328046,1000,12,0,1,844.447,8.198,29.247,336.001,14.208,12.037
1782115873.541341,1.327000,328047,1000,12,0,1,870.845,28.636,29.127,332.398,8.863,12.044
1782115873.542341,1.328000,328048,1000,12,0,1,897.797,44.248,29.583,325.552,0.993,12.039
1782115873.543341,1.329000,328049,1000,12,0,1,909.399,47.455,30.252,320.868,-4.819,12.056
1782115873.544341,1.330000,328050,1000,12,0,1,902.577,31.064,30.378,323.510,-3.560,12.062
1782115873.545341,1.331000,328051,1000,12,0,1,877.187,2.748,30.055,328.603,0.741,12.062
1782115873.546341,1.332000,328052,1000,12,0,1,842.717,-30.676,30.094,329.972,0.832,12.063
1782115873.547341,1.333000,328053,1000,12,0,1,822.924,-46.222,30.565,330.236,-0.739,12.059
1782115873.548341,1.334000,328054,1000,12,0,1,809.785,-47.956,30.916,331.029,-1.401,12.043
1782115873.549341,1.335000,328055,1000,12,0,1,796.549,-50.220,31.501,334.031,-0.132,12.025
1782115873.550341,1.336000,328056,1000,12,0,1,797.751,-39.484,31.847,334.368,-0.131,11.998
1782115873.551341,1.337000,328057,1000,12,0,1,803.756,-23.275,30.931,333.551,-1.974,11.987
1782115873.552341,1.338000,328058,1000,12,0,1,806.734,-13.655,30.215,330.621,-4.086,11.875
1782115873.553341,1.339000,328059,1000,12,0,1,817.520,-0.899,29.775,325.048,-8.367,11.701
1782115873.554341,1.340000,328060,1000,12,0,1,824.101,8.192,29.613,322.045,-9.747,11.597
1782115873.555341,1.341000,328061,1000,12,0,1,814.277,-0.923,29.514,321.613,-7.565,11.154
