Unix_Time_s,EMG_t_s,sample_idx,fs,gain,flags,emg_valid,ch1_raw_uV,ch1_filt_uV,ch1_env_uV,ch2_raw_uV,ch2_filt_uV,ch2_env_uV
1782115872.214341,0.000000,326720,1000,12,0,1,383.826,27.969,18.427,466.121,1.098,0.928
1782115872.215341,0.001000,326721,1000,12,0,1,383.994,23.147,18.027,466.337,0.897,0.937
1782115872.216341,0.002000,326722,1000,12,0,1,376.236,15.187,17.589,466.698,1.252,0.953
1782115872.217341,0.003000,326723,1000,12,0,1,363.409,1.238,17.581,465.521,-0.056,0.940
1782115872.218341,0.004000,326724,1000,12,0,1,357.139,-4.954,17.372,465.545,-0.291,0.932
1782115872.219341,0.005000,326725,1000,12,0,1,353.993,-5.774,17.266,462.662,-2.291,0.986
1782115872.220341,0.006000,326726,1000,12,0,1,351.519,-7.102,17.278,463.911,-1.989,1.024
1782115872.221341,0.007000,326727,1000,12,0,1,366.411,5.361,17.154,464.776,0.070,1.022
1782115872.222341,0.008000,326728,1000,12,0,1,380.439,19.032,17.362,464.320,-0.748,1.027
1782115872.223341,0.009000,326729,1000,12,0,1,364.418,4.165,17.241,464.680,-0.228,1.021
1782115872.224341,0.010000,326730,1000,12,0,1,345.874,-17.702,17.119,465.617,0.621,1.025
1782115872.225341,0.011000,326731,1000,12,0,1,334.560,-25.753,17.257,463.527,-0.859,1.022
1782115872.226341,0.012000,326732,1000,12,0,1,339.604,-21.688,17.423,463.383,-1.508,1.043
1782115872.227341,0.013000,326733,1000,12,0,1,367.396,4.501,17.417,464.896,0.342,0.990
1782115872.228341,0.014000,326734,1000,12,0,1,376.548,15.445,17.474,464.920,0.577,0.989
1782115872.229341,0.015000,326735,1000,12,0,1,374.915,8.028,17.320,465.401,0.644,0.970
1782115872.230341,0.016000,326736,1000,12,0,1,383.946,12.829,17.347,468.331,3.079,1.060
1782115872.231341,0.017000,326737,1000,12,0,1,387.285,14.106,17.460,467.899,2.857,1.134
1782115872.232341,0.018000,326738,1000,12,0,1,385.892,8.960,17.436,466.554,0.747,1.136
1782115872.233341,0.019000,326739,1000,12,0,1,379.046,1.919,17.349,466.193,0.281,1.136
1782115872.234341,0.020000,326740,1000,12,0,1,376.356,-2.805,17.266,465.785,-0.170,1.128
1782115872.235341,0.021000,326741,1000,12,0,1,360.118,-13.045,17.288,465.112,-0.804,1.133
1782115872.236341,0.022000,326742,1000,12,0,1,339.796,-30.505,17.807,465.352,-0.610,1.135
1782115872.237341,0.023000,326743,1000,12,0,1,335.281,-29.439,17.968,467.514,1.168,1.124
1782115872.238341,0.024000,326744,1000,12,0,1,356.130,-6.699,17.771,465.569,0.129,1.123
1782115872.239341,0.025000,326745,1000,12,0,1,373.906,15.344,17.875,465.304,-1.244,1.135
1782115872.240341,0.026000,326746,1000,12,0,1,370.855,12.994,17.962,465.449,-0.229,1.134
1782115872.241341,0.027000,326747,1000,12,0,1,371.624,9.758,18.010,465.881,-0.378,1.121
1782115872.242341,0.028000,326748,1000,12,0,1,373.545,11.523,18.078,464.752,-0.757,1.111
1782115872.243341,0.029000,326749,1000,12,0,1,373.257,7.634,18.093,463.623,-2.106,1.150
1782115872.244341,0.030000,326750,1000,12,0,1,377.341,8.679,18.112,466.385,0.284,1.149
1782115872.245341,0.031000,326751,1000,12,0,1,376.092,5.364,18.123,465.641,0.600,1.146
1782115872.246341,0.032000,326752,1000,12,0,1,369.174,-3.784,18.124,465.232,-0.836,1.148
1782115872.247341,0.033000,326753,1000,12,0,1,366.027,-8.954,18.109,464.824,-0.391,1.142
1782115872.248341,0.034000,326754,1000,12,0,1,359.637,-13.961,17.997,465.881,-0.155,1.142
1782115872.249341,0.035000,326755,1000,12,0,1,352.599,-20.287,18.154,465.304,0.171,1.142
1782115872.250341,0.036000,326756,1000,12,0,1,353.897,-17.515,18.267,466.265,0.149,1.139
1782115872.251341,0.037000,326757,1000,12,0,1,354.737,-13.100,18.262,464.103,-0.707,1.142
1782115872.252341,0.038000,326758,1000,12,0,1,352.383,-12.761,18.340,463.959,-1.851,1.165
1782115872.253341,0.039000,326759,1000,12,0,1,349.885,-11.738,18.396,464.992,0.013,1.164
1782115872.254341,0.040000,326760,1000,12,0,1,345.369,-12.003,18.311,466.457,1.027,1.171
1782115872.255341,0.041000,326761,1000,12,0,1,342.775,-10.852,17.860,465.497,0.635,1.153
1782115872.256341,0.042000,326762,1000,12,0,1,338.163,-9.993,17.282,464.632,-0.597,1.121
1782115872.257341,0.043000,326763,1000,12,0,1,356.755,6.435,16.762,464.944,-0.188,1.107
1782115872.258341,0.044000,326764,1000,12,0,1,387.165,36.915,17.511,462.830,-1.468,1.119
1782115872.259341,0.045000,326765,1000,12,0,1,374.554,27.627,17.154,462.974,-1.923,1.151
1782115872.260341,0.046000,326766,1000,12,0,1,344.673,-5.653,15.598,462.902,-0.787,1.156
1782115872.261341,0.047000,326767,1000,12,0,1,343.688,-8.398,15.278,467.755,2.373,1.196
1782115872.262341,0.048000,326768,1000,12,0,1,352.167,2.402,15.223,465.665,2.486,1.245
1782115872.263341,0.049000,326769,1000,12,0,1,356.611,6.055,15.002,466.674,0.673,1.192
1782115872.264341,0.050000,326770,1000,12,0,1,361.943,9.447,14.533,466.938,2.546,1.236
1782115872.265341,0.051000,326771,1000,12,0,1,363.289,9.215,14.219,463.935,-1.254,1.242
1782115872.266341,0.052000,326772,1000,12,0,1,370.735,11.612,14.152,463.551,-1.664,1.252
1782115872.267341,0.053000,326773,1000,12,0,1,378.734,16.932,14.352,465.112,0.044,1.252
1782115872.268341,0.054000,326774,1000,12,0,1,378.326,12.858,14.450,465.425,0.406,1.252
1782115872.269341,0.055000,326775,1000,12,0,1,372.873,4.609,14.441,464.848,0.012,1.210
1782115872.270341,0.056000,326776,1000,12,0,1,359.782,-8.132,14.452,465.208,-0.069,1.177
1782115872.271341,0.057000,326777,1000,12,0,1,340.589,-24.766,14.851,465.761,0.805,1.182
1782115872.272341,0.058000,326778,1000,12,0,1,333.095,-29.536,15.191,464.656,-0.328,1.178
1782115872.273341,0.059000,326779,1000,12,0,1,347.363,-12.878,15.288,466.121,0.636,1.181
1782115872.274341,0.060000,326780,1000,12,0,1,360.622,4.706,15.097,466.578,1.469,1.196
1782115872.275341,0.061000,326781,1000,12,0,1,350.462,-1.161,14.652,465.256,-0.028,1.190
1782115872.276341,0.062000,326782,1000,12,0,1,360.454,3.845,14.337,463.071,-1.865,1.200
1782115872.277341,0.063000,326783,1000,12,0,1,371.504,18.923,14.571,462.278,-2.575,1.253
1782115872.278341,0.064000,326784,1000,12,0,1,347.963,-1.430,14.408,464.320,-0.502,1.252
1782115872.279341,0.065000,326785,1000,12,0,1,324.063,-24.814,14.785,464.776,0.603,1.252
1782115872.280341,0.066000,326786,1000,12,0,1,318.610,-25.653,15.115,464.632,0.085,1.174
1782115872.281341,0.067000,326787,1000,12,0,1,327.546,-13.847,15.111,466.313,1.540,1.124
1782115872.282341,0.068000,326788,1000,12,0,1,329.852,-5.855,15.080,465.112,0.777,1.124
1782115872.283341,0.069000,326789,1000,12,0,1,348.756,7.992,15.120,464.151,-0.769,1.128
1782115872.284341,0.070000,326790,1000,12,0,1,361.295,23.088,15.464,466.433,1.207,1.141
1782115872.285341,0.071000,326791,1000,12,0,1,373.738,26.601,15.807,465.425,0.828,1.141
1782115872.286341,0.072000,326792,1000,12,0,1,378.710,29.288,15.761,466.313,0.484,1.140
1782115872.287341,0.073000,326793,1000,12,0,1,356.659,5.381,15.220,466.986,1.719,1.154
1782115872.288341,0.074000,326794,1000,12,0,1,334.512,-19.269,15.433,465.593,-0.074,1.154
1782115872.289341,0.075000,326795,1000,12,0,1,349.237,-7.850,15.320,465.352,-0.480,1.142
1782115872.290341,0.076000,326796,1000,12,0,1,366.459,11.972,15.304,465.977,0.142,1.142
1782115872.291341,0.077000,326797,1000,12,0,1,362.952,8.527,15.289,466.457,0.516,1.143
1782115872.292341,0.078000,326798,1000,12,0,1,350.918,-3.691,15.211,465.184,-0.394,1.140
1782115872.293341,0.079000,326799,1000,12,0,1,338.956,-12.983,15.283,465.304,-0.773,1.105
1782115872.294341,0.080000,326800,1000,12,0,1,327.978,-20.048,15.495,465.304,-0.185,1.105
1782115872.295341,0.081000,326801,1000,12,0,1,333.911,-12.084,15.571,463.022,-2.133,1.142
1782115872.296341,0.082000,326802,1000,12,0,1,346.690,4.202,15.573,462.662,-2.495,1.190
1782115872.297341,0.083000,326803,1000,12,0,1,373.257,26.570,15.970,463.935,-0.785,1.194
1782115872.298341,0.084000,326804,1000,12,0,1,373.257,30.027,16.406,463.935,-0.396,1.195
1782115872.299341,0.085000,326805,1000,12,0,1,381.400,26.157,16.572,466.193,1.223,1.207
1782115872.300341,0.086000,326806,1000,12,0,1,394.876,37.212,17.210,463.215,-0.312,1.208
1782115872.301341,0.087000,326807,1000,12,0,1,399.704,33.292,17.746,463.887,-1.328,1.218
1782115872.302341,0.088000,326808,1000,12,0,1,399.608,26.302,18.041,464.704,0.853,1.196
1782115872.303341,0.089000,326809,1000,12,0,1,395.933,16.164,18.110,465.737,0.789,1.201
1782115872.304341,0.090000,326810,1000,12,0,1,387.405,2.706,18.034,464.800,0.659,1.196
1782115872.305341,0.091000,326811,1000,12,0,1,378.013,-9.170,18.015,463.551,-1.114,1.203
1782115872.306341,0.092000,326812,1000,12,0,1,370.567,-18.200,18.143,463.935,-0.629,1.203
1782115872.307341,0.093000,326813,1000,12,0,1,366.940,-20.839,18.359,462.830,-1.081,1.212
1782115872.308341,0.094000,326814,1000,12,0,1,363.745,-22.545,17.887,463.095,-1.271,1.208
1782115872.309341,0.095000,326815,1000,12,0,1,357.259,-25.196,17.815,464.704,0.824,1.183
1782115872.310341,0.096000,326816,1000,12,0,1,352.359,-27.292,18.211,463.335,-0.207,1.178
1782115872.311341,0.097000,326817,1000,12,0,1,371.408,-9.098,18.218,462.470,-1.136,1.140
1782115872.312341,0.098000,326818,1000,12,0,1,387.405,10.291,18.273,462.422,-0.798,1.091
1782115872.313341,0.099000,326819,1000,12,0,1,375.851,0.570,18.253,462.902,-0.182,1.087
1782115872.314341,0.100000,326820,1000,12,0,1,362.400,-13.600,18.305,464.920,1.629,1.051
1782115872.315341,0.101000,326821,1000,12,0,1,362.256,-12.121,18.339,464.944,2.042,1.075
1782115872.316341,0.102000,326822,1000,12,0,1,359.253,-11.153,18.333,463.503,0.308,1.050
1782115872.317341,0.103000,326823,1000,12,0,1,354.305,-13.896,18.282,463.455,0.140,1.050
1782115872.318341,0.104000,326824,1000,12,0,1,350.774,-14.125,18.301,463.455,0.287,1.050
1782115872.319341,0.105000,326825,1000,12,0,1,349.765,-12.613,18.376,464.464,0.920,1.058
1782115872.320341,0.106000,326826,1000,12,0,1,355.938,-5.358,18.356,462.998,0.103,1.058
1782115872.321341,0.107000,326827,1000,12,0,1,354.641,-3.123,18.024,463.143,-0.570,1.055
1782115872.322341,0.108000,326828,1000,12,0,1,349.933,-7.753,17.567,463.335,0.270,1.054
1782115872.323341,0.109000,326829,1000,12,0,1,347.651,-8.047,17.510,463.119,-0.287,1.051
1782115872.324341,0.110000,326830,1000,12,0,1,358.533,0.878,17.497,464.031,0.564,1.034
1782115872.325341,0.111000,326831,1000,12,0,1,364.754,9.249,17.545,462.350,-0.525,1.036
1782115872.326341,0.112000,326832,1000,12,0,1,353.344,-1.394,17.538,461.413,-1.876,1.037
1782115872.327341,0.113000,326833,1000,12,0,1,345.153,-10.162,17.392,463.167,0.068,0.971
1782115872.328341,0.114000,326834,1000,12,0,1,350.774,-3.799,17.399,462.182,-0.270,0.969
1782115872.329341,0.115000,326835,1000,12,0,1,359.589,5.889,17.062,461.149,-1.486,0.988
1782115872.330341,0.116000,326836,1000,12,0,1,365.330,11.560,16.752,462.974,0.296,0.988
1782115872.331341,0.117000,326837,1000,12,0,1,359.854,7.223,16.668,463.935,1.583,0.990
1782115872.332341,0.118000,326838,1000,12,0,1,342.559,-7.689,16.683,463.071,0.655,0.988
1782115872.333341,0.119000,326839,1000,12,0,1,353.752,-0.739,16.645,463.287,0.583,0.985
1782115872.334341,0.120000,326840,1000,12,0,1,379.238,26.102,16.734,464.536,1.683,0.999
1782115872.335341,0.121000,326841,1000,12,0,1,389.711,33.687,16.988,463.359,0.821,0.999
1782115872.336341,0.122000,326842,1000,12,0,1,385.123,25.811,16.874,463.191,0.023,0.997
1782115872.337341,0.123000,326843,1000,12,0,1,380.439,16.246,17.013,465.593,2.162,1.014
1782115872.338341,0.124000,326844,1000,12,0,1,378.085,11.276,16.869,464.968,1.838,1.047
1782115872.339341,0.125000,326845,1000,12,0,1,364.586,-1.481,16.834,462.854,-0.675,1.049
1782115872.340341,0.126000,326846,1000,12,0,1,354.401,-13.449,16.856,463.743,-0.169,1.049
1782115872.341341,0.127000,326847,1000,12,0,1,358.845,-8.654,16.857,465.809,1.785,1.076
1782115872.342341,0.128000,326848,1000,12,0,1,363.697,-2.798,16.854,463.815,0.263,1.076
1782115872.343341,0.129000,326849,1000,12,0,1,358.148,-6.829,16.781,463.503,-0.972,1.079
1782115872.344341,0.130000,326850,1000,12,0,1,347.651,-16.248,16.699,462.494,-1.054,1.089
1782115872.345341,0.131000,326851,1000,12,0,1,335.545,-24.815,16.978,463.455,-0.929,1.054
1782115872.346341,0.132000,326852,1000,12,0,1,337.010,-22.336,17.259,464.320,0.611,0.997
1782115872.347341,0.133000,326853,1000,12,0,1,353.897,-3.950,16.854,463.767,-0.193,0.991
1782115872.348341,0.134000,326854,1000,12,0,1,360.742,5.511,16.329,463.935,-0.146,0.990
1782115872.349341,0.135000,326855,1000,12,0,1,357.356,1.365,15.906,463.551,-0.266,0.976
1782115872.350341,0.136000,326856,1000,12,0,1,367.396,8.031,15.053,464.512,0.143,0.975
1782115872.351341,0.137000,326857,1000,12,0,1,374.026,15.289,14.460,464.151,0.399,0.958
1782115872.352341,0.138000,326858,1000,12,0,1,376.116,13.695,14.107,463.815,-0.511,0.953
1782115872.353341,0.139000,326859,1000,12,0,1,376.740,12.903,14.040,463.143,-0.625,0.951
1782115872.354341,0.140000,326860,1000,12,0,1,372.777,7.466,14.074,465.545,0.797,0.953
1782115872.355341,0.141000,326861,1000,12,0,1,367.132,1.161,14.015,462.974,-0.175,0.940
1782115872.356341,0.142000,326862,1000,12,0,1,370.423,2.746,13.783,462.902,-1.789,0.970
1782115872.357341,0.143000,326863,1000,12,0,1,375.155,7.690,13.508,464.344,0.661,0.962
1782115872.358341,0.144000,326864,1000,12,0,1,372.296,4.847,13.144,462.590,-0.972,0.955
1782115872.359341,0.145000,326865,1000,12,0,1,368.933,0.329,12.652,462.086,-1.670,0.977
1782115872.360341,0.146000,326866,1000,12,0,1,368.141,-0.379,12.049,464.031,0.388,0.978
1782115872.361341,0.147000,326867,1000,12,0,1,368.813,-0.301,11.980,464.103,0.703,0.970
1782115872.362341,0.148000,326868,1000,12,0,1,366.579,-1.852,11.894,462.518,-0.732,0.969
1782115872.363341,0.149000,326869,1000,12,0,1,364.370,-4.791,11.913,462.638,-0.947,0.978
1782115872.364341,0.150000,326870,1000,12,0,1,365.306,-3.960,11.770,462.182,-0.687,0.955
1782115872.365341,0.151000,326871,1000,12,0,1,367.612,-2.177,11.649,461.605,-1.434,0.933
1782115872.366341,0.152000,326872,1000,12,0,1,364.562,-4.526,11.559,462.470,-0.336,0.933
1782115872.367341,0.153000,326873,1000,12,0,1,360.526,-9.018,11.462,464.272,1.248,0.949
1782115872.368341,0.154000,326874,1000,12,0,1,356.875,-11.374,11.401,465.136,2.140,0.995
1782115872.369341,0.155000,326875,1000,12,0,1,353.320,-13.548,11.422,463.767,0.735,0.992
1782115872.370341,0.156000,326876,1000,12,0,1,356.611,-9.774,11.480,464.728,0.882,1.000
1782115872.371341,0.157000,326877,1000,12,0,1,360.214,-4.047,11.486,464.175,0.964,1.006
1782115872.372341,0.158000,326878,1000,12,0,1,354.929,-7.105,11.478,462.830,-0.849,1.012
1782115872.373341,0.159000,326879,1000,12,0,1,343.520,-15.481,11.629,462.470,-0.919,1.020
1782115872.374341,0.160000,326880,1000,12,0,1,343.087,-14.668,11.812,462.158,-1.059,1.028
1782115872.375341,0.161000,326881,1000,12,0,1,353.416,-1.730,11.742,461.869,-1.089,1.037
1782115872.376341,0.162000,326882,1000,12,0,1,363.169,9.156,11.812,463.191,0.114,1.002
1782115872.377341,0.163000,326883,1000,12,0,1,359.541,7.697,11.774,463.839,1.050,1.013
1782115872.378341,0.164000,326884,1000,12,0,1,340.733,-8.363,11.821,463.719,0.748,1.018
1782115872.379341,0.165000,326885,1000,12,0,1,329.155,-18.455,12.077,463.551,0.518,0.999
1782115872.380341,0.166000,326886,1000,12,0,1,344.961,-2.550,11.972,464.488,1.103,1.010
1782115872.381341,0.167000,326887,1000,12,0,1,350.293,8.548,11.989,462.758,-0.066,0.985
1782115872.382341,0.168000,326888,1000,12,0,1,355.746,9.896,12.021,464.224,0.241,0.981
1782115872.383341,0.169000,326889,1000,12,0,1,381.352,30.963,12.794,463.935,0.966,0.987
1782115872.384341,0.170000,326890,1000,12,0,1,411.186,53.491,14.397,464.992,0.730,0.963
1782115872.385341,0.171000,326891,1000,12,0,1,420.698,55.304,15.676,464.440,0.999,0.967
1782115872.386341,0.172000,326892,1000,12,0,1,410.994,36.513,16.096,464.368,-0.029,0.967
1782115872.387341,0.173000,326893,1000,12,0,1,377.629,0.840,15.932,465.617,1.240,0.934
1782115872.388341,0.174000,326894,1000,12,0,1,353.128,-27.603,16.325,465.545,1.082,0.910
1782115872.389341,0.175000,326895,1000,12,0,1,349.981,-28.305,16.808,464.392,-0.297,0.906
1782115872.390341,0.176000,326896,1000,12,0,1,359.325,-16.966,16.871,463.239,-1.260,0.923
1782115872.391341,0.177000,326897,1000,12,0,1,366.003,-7.260,16.858,462.950,-1.649,0.918
1782115872.392341,0.178000,326898,1000,12,0,1,368.501,-3.917,16.863,462.926,-1.185,0.932
1782115872.393341,0.179000,326899,1000,12,0,1,370.903,-1.365,16.836,463.503,-0.745,0.928
1782115872.394341,0.180000,326900,1000,12,0,1,360.526,-7.987,16.717,462.182,-1.219,0.932
1782115872.395341,0.181000,326901,1000,12,0,1,351.855,-16.868,16.517,463.359,-0.800,0.930
1782115872.396341,0.182000,326902,1000,12,0,1,355.722,-10.603,16.282,462.782,-0.167,0.926
1782115872.397341,0.183000,326903,1000,12,0,1,374.530,6.346,16.297,461.893,-1.561,0.952
1782115872.398341,0.184000,326904,1000,12,0,1,381.184,15.317,16.422,463.095,-0.109,0.951
1782115872.399341,0.185000,326905,1000,12,0,1,373.497,5.096,16.436,462.014,-0.586,0.954
1782115872.400341,0.186000,326906,1000,12,0,1,372.272,1.384,16.398,463.815,0.255,0.955
1782115872.401341,0.187000,326907,1000,12,0,1,371.456,0.724,16.255,462.518,0.355,0.954
1782115872.402341,0.188000,326908,1000,12,0,1,372.176,-0.685,16.140,462.854,-0.684,0.957
1782115872.403341,0.189000,326909,1000,12,0,1,372.537,-0.066,16.036,462.494,0.184,0.953
1782115872.404341,0.190000,326910,1000,12,0,1,371.071,-2.652,16.006,464.103,0.538,0.949
1782115872.405341,0.191000,326911,1000,12,0,1,369.174,-4.292,16.017,464.055,1.447,0.971
1782115872.406341,0.192000,326912,1000,12,0,1,366.796,-6.491,16.038,462.470,-0.648,0.942
1782115872.407341,0.193000,326913,1000,12,0,1,366.411,-6.401,16.027,462.542,-0.573,0.941
1782115872.408341,0.194000,326914,1000,12,0,1,365.859,-5.699,16.032,462.014,-0.602,0.934
1782115872.409341,0.195000,326915,1000,12,0,1,369.102,-2.653,16.037,461.509,-1.222,0.920
1782115872.410341,0.196000,326916,1000,12,0,1,372.969,2.123,16.040,461.869,-0.439,0.921
1782115872.411341,0.197000,326917,1000,12,0,1,371.480,1.207,16.040,464.752,1.761,0.949
1782115872.412341,0.198000,326918,1000,12,0,1,361.343,-6.784,16.067,463.479,1.629,0.971
1782115872.413341,0.199000,326919,1000,12,0,1,360.983,-8.097,16.093,463.095,-0.045,0.961
1782115872.414341,0.200000,326920,1000,12,0,1,361.319,-3.986,16.094,463.983,1.406,0.977
1782115872.415341,0.201000,326921,1000,12,0,1,364.225,-1.779,16.093,464.055,1.048,0.967
1782115872.416341,0.202000,326922,1000,12,0,1,363.337,0.126,16.080,464.272,1.147,0.980
1782115872.417341,0.203000,326923,1000,12,0,1,365.595,0.798,16.030,464.440,1.115,0.976
1782115872.418341,0.204000,326924,1000,12,0,1,357.283,-3.515,15.956,464.968,1.229,0.944
1782115872.419341,0.205000,326925,1000,12,0,1,354.761,-8.165,15.883,464.272,0.691,0.944
1782115872.420341,0.206000,326926,1000,12,0,1,370.014,6.271,15.848,463.983,-0.158,0.936
1782115872.421341,0.207000,326927,1000,12,0,1,375.395,13.055,15.944,464.151,0.161,0.926
1782115872.422341,0.208000,326928,1000,12,0,1,374.843,8.670,15.960,462.038,-1.633,0.947
1782115872.423341,0.209000,326929,1000,12,0,1,369.366,3.821,15.818,460.236,-3.313,1.048
1782115872.424341,0.210000,326930,1000,12,0,1,367.805,-0.986,15.682,461.413,-2.035,1.077
1782115872.425341,0.211000,326931,1000,12,0,1,370.086,1.898,15.683,463.863,0.602,1.069
1782115872.426341,0.212000,326932,1000,12,0,1,374.578,4.332,15.641,465.857,2.374,1.120
1782115872.427341,0.213000,326933,1000,12,0,1,374.026,4.460,15.616,462.782,0.009,1.111
1782115872.428341,0.214000,326934,1000,12,0,1,379.358,6.259,15.596,463.071,-1.032,1.115
1782115872.429341,0.215000,326935,1000,12,0,1,379.839,7.895,15.417,463.743,0.622,1.116
1782115872.430341,0.216000,326936,1000,12,0,1,375.035,1.445,15.414,460.548,-2.300,1.152
1782115872.431341,0.217000,326937,1000,12,0,1,371.432,-2.024,15.369,460.236,-2.840,1.220
1782115872.432341,0.218000,326938,1000,12,0,1,359.950,-10.400,15.376,463.383,0.546,1.222
1782115872.433341,0.219000,326939,1000,12,0,1,358.028,-13.176,14.856,463.311,1.053,1.223
1782115872.434341,0.220000,326940,1000,12,0,1,364.946,-3.271,12.795,463.143,0.364,1.220
1782115872.435341,0.221000,326941,1000,12,0,1,367.540,0.270,10.126,462.302,-0.014,1.212
1782115872.436341,0.222000,326942,1000,12,0,1,364.370,-1.489,8.713,463.623,0.586,1.215
1782115872.437341,0.223000,326943,1000,12,0,1,378.061,7.725,8.780,462.638,0.497,1.204
1782115872.438341,0.224000,326944,1000,12,0,1,380.944,13.607,8.097,462.374,-0.536,1.197
1782115872.439341,0.225000,326945,1000,12,0,1,373.185,2.223,7.045,462.062,-0.202,1.196
1782115872.440341,0.226000,326946,1000,12,0,1,371.888,-0.329,6.624,462.254,-0.342,1.184
1782115872.441341,0.227000,326947,1000,12,0,1,366.291,-4.814,6.579,463.503,0.907,1.168
1782115872.442341,0.228000,326948,1000,12,0,1,366.051,-7.109,6.633,462.662,0.450,1.158
1782115872.443341,0.229000,326949,1000,12,0,1,372.489,-0.068,6.630,462.782,-0.085,1.153
1782115872.444341,0.230000,326950,1000,12,0,1,371.792,-0.433,6.533,462.134,-0.034,1.140
1782115872.445341,0.231000,326951,1000,12,0,1,368.429,-4.037,6.109,463.071,0.069,1.134
1782115872.446341,0.232000,326952,1000,12,0,1,360.070,-10.260,6.097,463.791,1.339,1.150
1782115872.447341,0.233000,326953,1000,12,0,1,357.139,-12.861,6.299,462.830,0.101,1.128
1782115872.448341,0.234000,326954,1000,12,0,1,361.007,-6.767,5.992,460.981,-1.392,1.145
1782115872.449341,0.235000,326955,1000,12,0,1,358.605,-5.975,6.008,462.566,-0.430,1.144
1782115872.450341,0.236000,326956,1000,12,0,1,350.774,-11.327,6.215,463.022,0.823,1.149
1782115872.451341,0.237000,326957,1000,12,0,1,344.120,-14.582,6.547,463.551,0.671,1.152
1782115872.452341,0.238000,326958,1000,12,0,1,347.675,-9.321,6.678,464.103,1.392,1.165
1782115872.453341,0.239000,326959,1000,12,0,1,371.504,13.018,6.927,460.452,-1.585,1.186
1782115872.454341,0.240000,326960,1000,12,0,1,385.916,28.525,8.007,462.950,-0.654,1.187
1782115872.455341,0.241000,326961,1000,12,0,1,380.151,19.949,8.468,462.902,1.187,1.181
1782115872.456341,0.242000,326962,1000,12,0,1,372.993,9.475,8.524,462.590,-0.548,1.180
1782115872.457341,0.243000,326963,1000,12,0,1,381.881,13.525,8.689,460.692,-0.998,1.186
1782115872.458341,0.244000,326964,1000,12,0,1,396.485,24.794,9.335,461.365,-1.443,1.200
1782115872.459341,0.245000,326965,1000,12,0,1,396.077,21.667,9.818,462.182,0.404,1.189
1782115872.460341,0.246000,326966,1000,12,0,1,390.096,10.468,9.924,462.878,0.541,1.190
1782115872.461341,0.247000,326967,1000,12,0,1,384.595,2.953,9.932,463.143,1.002,1.172
1782115872.462341,0.248000,326968,1000,12,0,1,380.560,-3.208,9.896,462.302,0.163,1.150
1782115872.463341,0.249000,326969,1000,12,0,1,377.821,-6.035,9.866,462.518,-0.049,1.150
1782115872.464341,0.250000,326970,1000,12,0,1,372.969,-10.149,9.954,462.950,0.679,1.136
1782115872.465341,0.251000,326971,1000,12,0,1,367.468,-14.242,10.153,462.542,0.025,1.127
1782115872.466341,0.252000,326972,1000,12,0,1,369.990,-11.279,10.277,461.245,-0.859,1.122
1782115872.467341,0.253000,326973,1000,12,0,1,379.431,-1.219,10.278,461.509,-1.002,1.119
1782115872.468341,0.254000,326974,1000,12,0,1,379.022,0.466,10.266,461.293,-0.491,1.108
1782115872.469341,0.255000,326975,1000,12,0,1,373.353,-5.634,10.232,463.263,0.658,1.108
1782115872.470341,0.256000,326976,1000,12,0,1,376.020,-3.475,10.205,461.053,-0.111,1.107
1782115872.471341,0.257000,326977,1000,12,0,1,377.389,-0.728,10.038,461.053,-1.413,1.125
1782115872.472341,0.258000,326978,1000,12,0,1,381.040,1.214,9.964,463.311,1.497,1.121
1782115872.473341,0.259000,326979,1000,12,0,1,381.905,2.857,9.957,462.662,0.907,1.027
1782115872.474341,0.260000,326980,1000,12,0,1,378.902,-1.174,9.958,460.140,-1.448,1.007
1782115872.475341,0.261000,326981,1000,12,0,1,378.518,-2.193,9.959,463.095,0.564,1.006
1782115872.476341,0.262000,326982,1000,12,0,1,365.739,-11.411,10.070,462.494,1.279,0.966
1782115872.477341,0.263000,326983,1000,12,0,1,351.494,-24.597,10.635,462.830,0.280,0.966
1782115872.478341,0.264000,326984,1000,12,0,1,358.412,-16.642,10.857,462.254,0.605,0.959
1782115872.479341,0.265000,326985,1000,12,0,1,369.150,-2.477,10.805,462.014,-0.345,0.956
1782115872.480341,0.266000,326986,1000,12,0,1,379.022,6.358,10.840,461.533,-0.337,0.901
1782115872.481341,0.267000,326987,1000,12,0,1,380.511,8.908,10.909,459.660,-1.908,0.850
1782115872.482341,0.268000,326988,1000,12,0,1,377.221,3.803,10.823,460.596,-1.378,0.869
1782115872.483341,0.269000,326989,1000,12,0,1,372.681,-0.276,10.662,460.476,-0.409,0.858
1782115872.484341,0.270000,326990,1000,12,0,1,366.892,-5.436,10.679,460.596,-0.872,0.865
1782115872.485341,0.271000,326991,1000,12,0,1,363.697,-7.559,10.733,461.653,0.673,0.870
1782115872.486341,0.272000,326992,1000,12,0,1,363.072,-6.279,10.767,462.974,1.495,0.892
1782115872.487341,0.273000,326993,1000,12,0,1,366.291,-2.343,10.717,462.470,1.356,0.910
1782115872.488341,0.274000,326994,1000,12,0,1,368.741,1.821,10.546,463.575,1.455,0.929
1782115872.489341,0.275000,326995,1000,12,0,1,364.826,-0.767,10.542,464.680,2.680,1.003
1782115872.490341,0.276000,326996,1000,12,0,1,360.334,-4.328,10.559,461.725,-0.088,1.002
1782115872.491341,0.277000,326997,1000,12,0,1,359.517,-3.998,10.553,461.173,-1.431,1.014
1782115872.492341,0.278000,326998,1000,12,0,1,363.096,0.238,10.505,461.413,-0.456,1.015
1782115872.493341,0.279000,326999,1000,12,0,1,366.459,4.318,10.522,461.461,-0.682,1.019
1782115872.494341,0.280000,327000,1000,12,0,1,365.739,3.897,10.537,463.191,0.986,1.028
1782115872.495341,0.281000,327001,1000,12,0,1,365.090,2.633,10.528,462.374,0.609,1.032
1782115872.496341,0.282000,327002,1000,12,0,1,360.406,-0.774,10.428,460.716,-1.269,1.030
1782115872.497341,0.283000,327003,1000,12,0,1,345.922,-12.576,10.421,462.302,0.022,1.030
1782115872.498341,0.284000,327004,1000,12,0,1,341.574,-16.598,10.639,461.821,0.276,1.012
1782115872.499341,0.285000,327005,1000,12,0,1,345.345,-9.100,10.683,462.206,-0.093,1.010
1782115872.500341,0.286000,327006,1000,12,0,1,336.722,-12.645,10.713,464.055,1.822,1.036
1782115872.501341,0.287000,327007,1000,12,0,1,327.858,-19.020,10.851,463.095,0.976,1.041
1782115872.502341,0.288000,327008,1000,12,0,1,347.435,-0.592,10.771,461.053,-1.251,1.037
1782115872.503341,0.289000,327009,1000,12,0,1,358.557,15.650,10.841,462.038,-0.613,1.016
1782115872.504341,0.290000,327010,1000,12,0,1,360.983,14.485,10.269,462.014,-0.076,1.012
1782115872.505341,0.291000,327011,1000,12,0,1,364.946,17.514,10.179,463.575,0.673,1.003
1782115872.506341,0.292000,327012,1000,12,0,1,365.018,15.618,10.330,463.191,0.964,1.009
1782115872.507341,0.293000,327013,1000,12,0,1,346.714,-0.172,10.151,462.302,-0.550,1.002
1782115872.508341,0.294000,327014,1000,12,0,1,333.047,-14.761,9.752,462.014,-0.579,0.985
1782115872.509341,0.295000,327015,1000,12,0,1,349.645,0.395,9.259,461.533,-0.992,0.993
1782115872.510341,0.296000,327016,1000,12,0,1,355.602,11.707,9.288,465.521,1.957,1.028
1782115872.511341,0.297000,327017,1000,12,0,1,342.271,-1.867,9.283,462.902,1.091,1.030
1782115872.512341,0.298000,327018,1000,12,0,1,349.429,2.359,9.277,460.020,-3.169,1.123
1782115872.513341,0.299000,327019,1000,12,0,1,361.968,16.018,9.512,462.710,-0.160,1.123
1782115872.514341,0.300000,327020,1000,12,0,1,379.358,27.473,10.174,460.068,-1.473,1.138
1782115872.515341,0.301000,327021,1000,12,0,1,383.514,30.577,10.870,461.533,-1.464,1.157
1782115872.516341,0.302000,327022,1000,12,0,1,380.535,20.599,11.140,462.350,0.958,1.158
1782115872.517341,0.303000,327023,1000,12,0,1,383.538,18.861,11.453,461.581,-0.594,1.153
1782115872.518341,0.304000,327024,1000,12,0,1,367.612,3.833,11.466,463.791,1.492,1.170
1782115872.519341,0.305000,327025,1000,12,0,1,352.647,-14.846,11.629,462.806,1.051,1.176
1782115872.520341,0.306000,327026,1000,12,0,1,361.823,-6.677,11.657,462.350,-0.266,1.176
1782115872.521341,0.307000,327027,1000,12,0,1,369.702,2.621,11.663,459.227,-2.042,1.194
1782115872.522341,0.308000,327028,1000,12,0,1,370.567,2.133,11.665,463.095,-0.232,1.176
1782115872.523341,0.309000,327029,1000,12,0,1,369.822,0.565,11.659,461.605,0.968,1.177
1782115872.524341,0.310000,327030,1000,12,0,1,371.528,0.611,11.658,461.197,-1.598,1.181
1782115872.525341,0.311000,327031,1000,12,0,1,365.162,-4.207,11.669,462.494,0.941,1.186
1782115872.526341,0.312000,327032,1000,12,0,1,368.501,-4.328,11.573,461.389,-0.413,1.173
1782115872.527341,0.313000,327033,1000,12,0,1,383.178,9.329,11.116,461.773,-0.292,1.173
1782115872.528341,0.314000,327034,1000,12,0,1,394.155,17.562,11.145,460.861,-0.417,1.172
1782115872.529341,0.315000,327035,1000,12,0,1,394.251,14.812,11.334,462.686,0.264,1.171
1782115872.530341,0.316000,327036,1000,12,0,1,390.456,7.281,11.345,462.110,1.075,1.180
1782115872.531341,0.317000,327037,1000,12,0,1,383.154,-1.416,11.277,463.695,0.931,1.156
1782115872.532341,0.318000,327038,1000,12,0,1,377.101,-8.709,11.331,464.296,2.587,1.197
1782115872.533341,0.319000,327039,1000,12,0,1,361.727,-20.400,11.693,463.743,0.956,1.203
1782115872.534341,0.320000,327040,1000,12,0,1,355.482,-26.628,12.260,462.182,-0.049,1.197
1782115872.535341,0.321000,327041,1000,12,0,1,363.048,-15.967,12.420,463.239,0.069,1.193
1782115872.536341,0.322000,327042,1000,12,0,1,357.884,-15.494,12.581,461.797,-0.277,1.175
1782115872.537341,0.323000,327043,1000,12,0,1,336.337,-31.862,13.359,462.134,-0.912,1.166
1782115872.538341,0.324000,327044,1000,12,0,1,307.801,-51.312,15.201,462.182,-0.035,1.148
1782115872.539341,0.325000,327045,1000,12,0,1,339.436,-24.291,15.584,463.575,0.591,1.087
1782115872.540341,0.326000,327046,1000,12,0,1,393.194,34.872,16.334,464.704,1.902,1.120
1782115872.541341,0.327000,327047,1000,12,0,1,410.225,48.296,17.696,464.584,1.428,1.119
1782115872.542341,0.328000,327048,1000,12,0,1,410.705,40.180,18.586,462.782,-0.378,1.119
1782115872.543341,0.329000,327049,1000,12,0,1,405.733,29.081,19.025,462.542,-0.960,1.123
1782115872.544341,0.330000,327050,1000,12,0,1,391.008,10.050,19.070,463.095,-0.341,1.115
1782115872.545341,0.331000,327051,1000,12,0,1,366.459,-13.893,19.168,462.614,-0.572,1.115
1782115872.546341,0.332000,327052,1000,12,0,1,356.443,-25.333,19.499,464.536,0.535,1.103
1782115872.547341,0.333000,327053,1000,12,0,1,363.505,-14.980,19.533,463.959,0.839,1.109
1782115872.548341,0.334000,327054,1000,12,0,1,370.927,-5.412,19.407,462.494,-1.337,1.125
1782115872.549341,0.335000,327055,1000,12,0,1,371.648,-2.446,19.367,461.990,-1.364,1.141
1782115872.550341,0.336000,327056,1000,12,0,1,370.423,-3.097,19.289,461.461,-1.802,1.140
1782115872.551341,0.337000,327057,1000,12,0,1,375.299,1.522,19.102,460.572,-2.158,1.172
1782115872.552341,0.338000,327058,1000,12,0,1,373.858,2.309,19.105,460.813,-1.810,1.187
1782115872.553341,0.339000,327059,1000,12,0,1,370.279,-2.059,18.978,462.638,0.117,1.184
1782115872.554341,0.340000,327060,1000,12,0,1,364.418,-5.562,18.884,462.854,0.769,1.189
1782115872.555341,0.341000,327061,1000,12,0,1,366.676,-4.654,18.732,463.431,0.802,1.190
1782115872.556341,0.342000,327062,1000,12,0,1,367.756,-0.857,18.602,460.813,-0.791,1.188
1782115872.557341,0.343000,327063,1000,12,0,1,366.051,-3.089,18.607,462.422,-0.594,1.188
1782115872.558341,0.344000,327064,1000,12,0,1,369.630,0.011,18.490,462.350,0.858,1.192
1782115872.559341,0.345000,327065,1000,12,0,1,372.248,2.865,18.494,462.470,-0.157,1.184
1782115872.560341,0.346000,327066,1000,12,0,1,370.663,0.588,18.420,462.134,0.335,1.152
1782115872.561341,0.347000,327067,1000,12,0,1,361.559,-6.875,18.444,462.614,0.135,1.142
1782115872.562341,0.348000,327068,1000,12,0,1,352.960,-15.050,18.563,463.335,1.082,1.061
1782115872.563341,0.349000,327069,1000,12,0,1,349.933,-15.337,18.552,463.935,1.352,1.078
1782115872.564341,0.350000,327070,1000,12,0,1,348.132,-14.135,18.250,461.653,-0.480,1.060
1782115872.565341,0.351000,327071,1000,12,0,1,354.737,-6.496,17.754,462.350,-0.603,1.043
1782115872.566341,0.352000,327072,1000,12,0,1,349.020,-6.302,17.536,462.062,-0.019,1.034
1782115872.567341,0.353000,327073,1000,12,0,1,346.834,-9.271,17.382,462.302,-0.343,1.032
1782115872.568341,0.354000,327074,1000,12,0,1,342.247,-7.727,17.408,461.533,-0.444,1.012
1782115872.569341,0.355000,327075,1000,12,0,1,341.430,-8.106,17.318,463.239,0.475,1.003
1782115872.570341,0.356000,327076,1000,12,0,1,344.577,-1.093,17.293,464.151,1.873,1.037
1782115872.571341,0.357000,327077,1000,12,0,1,354.857,8.504,17.331,462.854,0.401,0.997
1782115872.572341,0.358000,327078,1000,12,0,1,370.519,23.043,17.632,461.461,-1.044,1.008
1782115872.573341,0.359000,327079,1000,12,0,1,371.624,24.154,17.960,462.038,-0.528,1.001
1782115872.574341,0.360000,327080,1000,12,0,1,370.111,17.515,18.130,461.509,-0.607,0.979
1782115872.575341,0.361000,327081,1000,12,0,1,366.363,13.476,18.220,462.230,-0.221,0.970
1782115872.576341,0.362000,327082,1000,12,0,1,348.540,-3.805,18.218,462.230,0.219,0.969
1782115872.577341,0.363000,327083,1000,12,0,1,324.928,-24.294,18.492,460.909,-1.005,0.979
1782115872.578341,0.364000,327084,1000,12,0,1,303.309,-39.764,19.168,461.821,-0.445,0.979
1782115872.579341,0.365000,327085,1000,12,0,1,293.364,-42.690,19.987,462.350,0.605,0.982
1782115872.580341,0.366000,327086,1000,12,0,1,300.282,-29.090,20.380,463.311,0.928,0.979
1782115872.581341,0.367000,327087,1000,12,0,1,325.312,-1.277,20.379,462.662,0.811,0.977
1782115872.582341,0.368000,327088,1000,12,0,1,344.432,20.869,20.555,464.248,1.214,0.922
1782115872.583341,0.369000,327089,1000,12,0,1,350.317,24.616,20.647,463.287,1.196,0.927
1782115872.584341,0.370000,327090,1000,12,0,1,355.698,26.003,20.631,464.464,0.838,0.935
1782115872.585341,0.371000,327091,1000,12,0,1,357.572,24.968,20.809,463.335,0.847,0.943
1782115872.586341,0.372000,327092,1000,12,0,1,353.656,17.774,20.845,462.470,-1.032,0.953
1782115872.587341,0.373000,327093,1000,12,0,1,359.950,18.725,20.524,463.071,-0.050,0.944
1782115872.588341,0.374000,327094,1000,12,0,1,366.291,22.998,19.472,464.512,1.000,0.955
1782115872.589341,0.375000,327095,1000,12,0,1,366.724,19.489,19.364,463.431,0.352,0.952
1782115872.590341,0.376000,327096,1000,12,0,1,362.784,13.220,18.818,462.374,-1.021,0.925
1782115872.591341,0.377000,327097,1000,12,0,1,365.547,11.787,17.614,462.974,-0.464,0.905
1782115872.592341,0.378000,327098,1000,12,0,1,388.967,28.462,17.151,463.335,0.180,0.904
1782115872.593341,0.379000,327099,1000,12,0,1,400.857,38.231,17.507,462.686,-0.524,0.897
1782115872.594341,0.380000,327100,1000,12,0,1,399.992,29.096,17.928,460.500,-2.067,0.942
1782115872.595341,0.381000,327101,1000,12,0,1,399.416,22.768,18.108,462.278,-1.124,0.952
1782115872.596341,0.382000,327102,1000,12,0,1,398.407,16.053,17.895,463.095,0.800,0.955
1782115872.597341,0.383000,327103,1000,12,0,1,392.161,6.555,17.793,462.230,-0.556,0.951
1782115872.598341,0.384000,327104,1000,12,0,1,387.718,-1.844,17.779,462.182,-0.404,0.934
1782115872.599341,0.385000,327105,1000,12,0,1,383.466,-7.196,17.804,460.885,-1.348,0.934
1782115872.600341,0.386000,327106,1000,12,0,1,368.141,-20.707,18.038,461.461,-1.131,0.912
1782115872.601341,0.387000,327107,1000,12,0,1,344.072,-41.231,18.956,462.566,0.415,0.862
1782115872.602341,0.388000,327108,1000,12,0,1,327.546,-52.618,20.362,462.590,0.295,0.824
1782115872.603341,0.389000,327109,1000,12,0,1,332.662,-43.117,21.253,462.182,-0.001,0.824
1782115872.604341,0.390000,327110,1000,12,0,1,348.276,-22.072,21.467,463.143,0.541,0.820
1782115872.605341,0.391000,327111,1000,12,0,1,380.944,7.370,21.482,463.551,1.180,0.829
1782115872.606341,0.392000,327112,1000,12,0,1,399.055,26.709,21.811,464.296,1.351,0.843
1782115872.607341,0.393000,327113,1000,12,0,1,400.449,21.154,22.011,462.542,0.186,0.840
1782115872.608341,0.394000,327114,1000,12,0,1,401.962,17.410,22.148,460.668,-1.992,0.877
1782115872.609341,0.395000,327115,1000,12,0,1,393.963,7.043,22.167,458.747,-3.034,0.976
1782115872.610341,0.396000,327116,1000,12,0,1,386.397,-4.387,22.176,460.692,-1.515,0.998
1782115872.611341,0.397000,327117,1000,12,0,1,380.103,-9.561,22.195,461.173,0.212,0.999
1782115872.612341,0.398000,327118,1000,12,0,1,373.233,-15.770,22.205,461.701,0.170,0.987
1782115872.613341,0.399000,327119,1000,12,0,1,365.378,-19.702,22.274,460.236,-0.325,0.970
1782115872.614341,0.400000,327120,1000,12,0,1,362.784,-19.857,22.361,460.452,-0.750,0.973
1782115872.615341,0.401000,327121,1000,12,0,1,360.598,-16.608,22.466,461.869,1.065,0.981
1782115872.616341,0.402000,327122,1000,12,0,1,360.214,-13.982,22.535,462.014,1.198,0.995
1782115872.617341,0.403000,327123,1000,12,0,1,366.267,-5.266,22.509,461.533,0.532,0.997
1782115872.618341,0.404000,327124,1000,12,0,1,365.210,-2.304,22.485,462.662,1.309,1.012
1782115872.619341,0.405000,327125,1000,12,0,1,360.550,-5.921,22.471,462.662,1.360,1.028
1782115872.620341,0.406000,327126,1000,12,0,1,360.694,-4.246,22.479,461.893,0.359,0.995
1782115872.621341,0.407000,327127,1000,12,0,1,359.854,-3.362,22.452,460.789,-0.708,0.998
1782115872.622341,0.408000,327128,1000,12,0,1,362.688,-0.972,22.214,460.596,-0.936,0.996
1782115872.623341,0.409000,327129,1000,12,0,1,362.208,0.025,21.950,461.245,-0.243,0.994
1782115872.624341,0.410000,327130,1000,12,0,1,351.855,-8.931,21.846,460.668,-0.396,0.992
1782115872.625341,0.411000,327131,1000,12,0,1,357.836,-5.950,21.779,460.548,-0.727,0.996
1782115872.626341,0.412000,327132,1000,12,0,1,370.783,8.094,21.803,461.005,0.047,0.996
1782115872.627341,0.413000,327133,1000,12,0,1,378.638,13.303,21.612,461.533,0.474,0.988
1782115872.628341,0.414000,327134,1000,12,0,1,369.654,5.467,20.882,460.500,-0.087,0.986
1782115872.629341,0.415000,327135,1000,12,0,1,364.850,-3.086,19.995,460.164,-0.685,0.987
1782115872.630341,0.416000,327136,1000,12,0,1,361.223,-3.852,19.575,460.837,0.251,0.979
1782115872.631341,0.417000,327137,1000,12,0,1,364.225,-2.296,19.577,460.092,-0.161,0.973
1782115872.632341,0.418000,327138,1000,12,0,1,371.912,6.769,19.377,459.780,-0.591,0.961
1782115872.633341,0.419000,327139,1000,12,0,1,379.743,13.616,19.159,461.701,1.162,0.960
1782115872.634341,0.420000,327140,1000,12,0,1,381.232,14.982,18.921,461.918,1.668,0.982
1782115872.635341,0.421000,327141,1000,12,0,1,385.724,16.468,18.734,460.092,-0.225,0.975
1782115872.636341,0.422000,327142,1000,12,0,1,386.709,16.872,18.718,461.821,0.702,0.969
1782115872.637341,0.423000,327143,1000,12,0,1,382.601,11.040,18.595,461.149,0.939,0.978
1782115872.638341,0.424000,327144,1000,12,0,1,374.074,2.318,18.311,459.732,-1.149,0.981
1782115872.639341,0.425000,327145,1000,12,0,1,363.985,-7.051,18.130,462.230,1.013,0.990
1782115872.640341,0.426000,327146,1000,12,0,1,355.482,-14.052,18.143,462.902,2.022,1.021
1782115872.641341,0.427000,327147,1000,12,0,1,349.477,-17.213,18.229,459.539,-1.205,1.033
1782115872.642341,0.428000,327148,1000,12,0,1,337.899,-24.094,18.103,460.164,-1.362,1.050
1782115872.643341,0.429000,327149,1000,12,0,1,326.897,-30.931,17.822,460.020,-0.442,1.049
1782115872.644341,0.430000,327150,1000,12,0,1,320.148,-32.107,17.925,460.957,-0.270,1.009
1782115872.645341,0.431000,327151,1000,12,0,1,317.265,-29.466,18.119,461.653,1.028,1.007
1782115872.646341,0.432000,327152,1000,12,0,1,323.534,-19.704,18.191,461.749,0.710,1.005
1782115872.647341,0.433000,327153,1000,12,0,1,343.376,1.025,18.168,459.756,-0.694,1.007
1782115872.648341,0.434000,327154,1000,12,0,1,349.357,10.413,18.225,458.531,-2.097,1.048
1782115872.649341,0.435000,327155,1000,12,0,1,350.678,8.595,18.238,461.581,0.621,1.034
1782115872.650341,0.436000,327156,1000,12,0,1,359.734,15.850,18.140,460.861,1.066,1.033
1782115872.651341,0.437000,327157,1000,12,0,1,354.329,11.930,17.260,461.341,0.240,1.032
1782115872.652341,0.438000,327158,1000,12,0,1,341.310,-1.963,15.576,460.380,0.474,1.033
1782115872.653341,0.439000,327159,1000,12,0,1,339.316,-3.184,14.340,461.221,0.035,1.033
1782115872.654341,0.440000,327160,1000,12,0,1,349.789,7.544,14.037,462.566,1.965,1.067
1782115872.655341,0.441000,327161,1000,12,0,1,357.500,16.982,14.202,464.175,2.558,1.114
1782115872.656341,0.442000,327162,1000,12,0,1,366.051,22.757,14.064,461.749,0.840,1.104
1782115872.657341,0.443000,327163,1000,12,0,1,375.899,30.481,14.402,461.557,-0.669,1.108
1782115872.658341,0.444000,327164,1000,12,0,1,365.931,20.901,14.495,462.758,0.915,1.079
1782115872.659341,0.445000,327165,1000,12,0,1,339.604,-5.062,14.478,461.557,-0.240,0.991
1782115872.660341,0.446000,327166,1000,12,0,1,338.956,-8.781,14.518,461.893,-0.530,0.970
1782115872.661341,0.447000,327167,1000,12,0,1,364.249,15.747,14.626,461.942,0.075,0.970
1782115872.662341,0.448000,327168,1000,12,0,1,382.505,32.011,15.147,460.765,-1.324,0.988
1782115872.663341,0.449000,327169,1000,12,0,1,392.161,34.503,15.668,459.227,-2.264,1.037
1782115872.664341,0.450000,327170,1000,12,0,1,387.333,25.352,15.826,458.891,-2.614,1.096
1782115872.665341,0.451000,327171,1000,12,0,1,389.615,17.398,15.842,459.660,-1.289,1.101
1782115872.666341,0.452000,327172,1000,12,0,1,398.167,20.782,15.991,458.627,-1.695,1.114
1782115872.667341,0.453000,327173,1000,12,0,1,393.050,10.987,16.049,459.059,-1.388,1.128
1782115872.668341,0.454000,327174,1000,12,0,1,386.973,-1.014,16.046,459.227,-0.481,1.115
1782115872.669341,0.455000,327175,1000,12,0,1,375.875,-12.146,16.116,459.107,-0.655,1.102
1782115872.670341,0.456000,327176,1000,12,0,1,353.176,-32.876,16.763,458.459,-0.767,1.107
1782115872.671341,0.457000,327177,1000,12,0,1,340.517,-42.958,17.823,458.435,-0.845,1.109
1782115872.672341,0.458000,327178,1000,12,0,1,344.769,-33.941,18.458,458.867,-0.094,1.101
1782115872.673341,0.459000,327179,1000,12,0,1,348.612,-23.570,18.757,457.858,-0.690,1.104
1782115872.674341,0.460000,327180,1000,12,0,1,342.559,-23.614,19.010,457.882,-0.829,1.109
1782115872.675341,0.461000,327181,1000,12,0,1,330.212,-29.358,19.439,458.747,0.362,1.106
1782115872.676341,0.462000,327182,1000,12,0,1,337.442,-20.075,19.612,460.164,1.475,1.125
1782115872.677341,0.463000,327183,1000,12,0,1,359.133,5.247,19.536,459.948,1.568,1.145
1782115872.678341,0.464000,327184,1000,12,0,1,363.793,13.146,19.609,459.660,0.779,1.150
1782115872.679341,0.465000,327185,1000,12,0,1,352.744,2.464,19.607,459.828,1.011,1.155
1782115872.680341,0.466000,327186,1000,12,0,1,343.183,-6.413,19.621,458.338,-0.227,1.155
1782115872.681341,0.467000,327187,1000,12,0,1,347.291,-2.876,19.622,458.338,-0.564,1.157
1782115872.682341,0.468000,327188,1000,12,0,1,357.452,7.823,19.630,458.843,0.387,1.156
1782115872.683341,0.469000,327189,1000,12,0,1,381.208,25.455,19.864,458.579,0.131,1.144
1782115872.684341,0.470000,327190,1000,12,0,1,409.793,47.862,20.879,459.083,0.599,1.123
1782115872.685341,0.471000,327191,1000,12,0,1,418.993,49.491,21.897,459.251,0.919,1.130
1782115872.686341,0.472000,327192,1000,12,0,1,405.781,28.814,22.145,458.242,0.046,1.125
1782115872.687341,0.473000,327193,1000,12,0,1,376.236,-3.721,22.096,460.861,1.792,1.146
1782115872.688341,0.474000,327194,1000,12,0,1,330.212,-45.231,23.001,460.885,2.597,1.192
1782115872.689341,0.475000,327195,1000,12,0,1,312.053,-61.282,24.559,458.266,-0.496,1.186
1782115872.690341,0.476000,327196,1000,12,0,1,321.036,-42.427,25.203,457.642,-1.177,1.163
1782115872.691341,0.477000,327197,1000,12,0,1,336.626,-20.568,25.254,456.777,-1.495,1.169
1782115872.692341,0.478000,327198,1000,12,0,1,320.604,-23.776,25.248,456.945,-1.477,1.172
1782115872.693341,0.479000,327199,1000,12,0,1,306.672,-35.157,25.358,457.978,-0.069,1.170
1782115872.694341,0.480000,327200,1000,12,0,1,329.588,-8.944,24.980,458.891,0.680,1.174
1782115872.695341,0.481000,327201,1000,12,0,1,345.994,14.303,24.713,458.723,0.697,1.169
1782115872.696341,0.482000,327202,1000,12,0,1,351.254,17.467,24.679,458.555,0.208,1.165
1782115872.697341,0.483000,327203,1000,12,0,1,344.601,13.379,24.751,458.747,0.415,1.162
1782115872.698341,0.484000,327204,1000,12,0,1,331.389,-1.008,24.708,458.699,0.293,1.125
1782115872.699341,0.485000,327205,1000,12,0,1,320.268,-9.417,24.714,458.362,-0.033,1.121
1782115872.700341,0.486000,327206,1000,12,0,1,297.832,-25.454,24.874,457.738,-0.542,1.114
1782115872.701341,0.487000,327207,1000,12,0,1,275.973,-41.347,25.496,457.233,-0.936,1.121
1782115872.702341,0.488000,327208,1000,12,0,1,286.230,-27.747,25.795,458.170,-0.059,1.119
1782115872.703341,0.489000,327209,1000,12,0,1,309.650,1.575,25.792,458.747,0.773,1.124
1782115872.704341,0.490000,327210,1000,12,0,1,326.945,19.492,25.917,457.954,0.092,1.089
1782115872.705341,0.491000,327211,1000,12,0,1,362.208,46.361,26.625,457.426,-0.455,1.030
1782115872.706341,0.492000,327212,1000,12,0,1,413.300,86.174,29.104,456.897,-0.652,1.027
1782115872.707341,0.493000,327213,1000,12,0,1,435.207,96.745,31.870,458.555,0.585,1.026
1782115872.708341,0.494000,327214,1000,12,0,1,428.697,74.247,33.424,457.762,0.660,1.022
1782115872.709341,0.495000,327215,1000,12,0,1,423.028,53.463,34.261,458.050,0.072,1.021
1782115872.710341,0.496000,327216,1000,12,0,1,431.964,48.613,34.922,458.795,1.271,1.034
1782115872.711341,0.497000,327217,1000,12,0,1,434.630,42.756,35.372,455.864,-1.248,1.049
1782115872.712341,0.498000,327218,1000,12,0,1,398.239,5.035,35.088,456.393,-1.494,1.054
1782115872.713341,0.499000,327219,1000,12,0,1,374.819,-26.028,34.942,457.089,0.165,1.004
1782115872.714341,0.500000,327220,1000,12,0,1,377.245,-20.842,34.882,457.041,-0.319,0.935
1782115872.715341,0.501000,327221,1000,12,0,1,381.064,-15.396,34.863,456.777,-0.152,0.917
1782115872.716341,0.502000,327222,1000,12,0,1,383.994,-11.410,34.777,457.426,0.085,0.886
1782115872.717341,0.503000,327223,1000,12,0,1,381.016,-12.599,34.787,458.627,1.336,0.884
1782115872.718341,0.504000,327224,1000,12,0,1,364.922,-25.722,34.977,455.504,-1.033,0.893
1782115872.719341,0.505000,327225,1000,12,0,1,346.186,-41.007,35.413,457.161,-0.768,0.895
1782115872.720341,0.506000,327226,1000,12,0,1,331.461,-50.071,35.813,457.954,1.403,0.910
1782115872.721341,0.507000,327227,1000,12,0,1,333.263,-44.454,35.850,456.537,-0.611,0.907
1782115872.722341,0.508000,327228,1000,12,0,1,335.329,-35.109,35.872,455.384,-1.209,0.923
1782115872.723341,0.509000,327229,1000,12,0,1,336.866,-30.752,35.981,457.834,0.538,0.920
1782115872.724341,0.510000,327230,1000,12,0,1,339.532,-24.274,35.990,458.170,1.772,0.947
1782115872.725341,0.511000,327231,1000,12,0,1,338.235,-22.264,35.888,459.059,1.640,0.973
1782115872.726341,0.512000,327232,1000,12,0,1,339.364,-19.417,35.880,458.026,1.281,0.968
1782115872.727341,0.513000,327233,1000,12,0,1,341.478,-13.924,35.927,457.450,-0.019,0.942
1782115872.728341,0.514000,327234,1000,12,0,1,339.148,-13.156,35.927,455.528,-1.132,0.949
1782115872.729341,0.515000,327235,1000,12,0,1,344.144,-6.796,35.938,456.177,-1.114,0.952
1782115872.730341,0.516000,327236,1000,12,0,1,354.665,5.883,35.936,455.504,-0.719,0.956
1782115872.731341,0.517000,327237,1000,12,0,1,360.742,13.593,35.985,457.954,0.649,0.958
1782115872.732341,0.518000,327238,1000,12,0,1,353.248,9.055,35.991,458.338,1.970,0.996
1782115872.733341,0.519000,327239,1000,12,0,1,347.027,3.441,35.814,457.930,0.702,1.001
1782115872.734341,0.520000,327240,1000,12,0,1,348.636,7.532,35.184,455.384,-1.112,1.009
1782115872.735341,0.521000,327241,1000,12,0,1,356.659,16.269,34.558,455.264,-1.890,1.036
1782115872.736341,0.522000,327242,1000,12,0,1,361.295,22.144,34.459,456.849,0.069,1.036
1782115872.737341,0.523000,327243,1000,12,0,1,367.781,25.812,34.648,457.858,1.037,1.015
1782115872.738341,0.524000,327244,1000,12,0,1,370.135,26.939,34.265,456.105,-0.422,0.948
1782115872.739341,0.525000,327245,1000,12,0,1,368.717,21.659,33.292,455.528,-1.278,0.963
1782115872.740341,0.526000,327246,1000,12,0,1,373.954,21.662,32.890,455.792,-0.728,0.954
1782115872.741341,0.527000,327247,1000,12,0,1,366.772,13.750,32.819,456.008,-0.335,0.931
1782115872.742341,0.528000,327248,1000,12,0,1,353.608,-3.668,32.650,458.002,1.193,0.923
1782115872.743341,0.529000,327249,1000,12,0,1,359.205,-2.331,32.271,455.624,0.028,0.923
1782115872.744341,0.530000,327250,1000,12,0,1,369.102,5.876,32.257,455.048,-1.664,0.948
1782115872.745341,0.531000,327251,1000,12,0,1,361.583,-2.205,32.195,455.000,-0.497,0.945
1782115872.746341,0.532000,327252,1000,12,0,1,352.744,-13.946,32.161,455.696,-0.373,0.946
1782115872.747341,0.533000,327253,1000,12,0,1,345.561,-19.318,32.221,454.447,-0.502,0.947
1782115872.748341,0.534000,327254,1000,12,0,1,336.986,-25.568,32.423,453.078,-2.067,0.990
1782115872.749341,0.535000,327255,1000,12,0,1,346.570,-16.209,32.477,454.207,-0.678,0.995
1782115872.750341,0.536000,327256,1000,12,0,1,368.765,7.124,32.292,454.928,0.509,0.995
1782115872.751341,0.537000,327257,1000,12,0,1,387.622,24.097,31.941,456.825,1.784,1.018
1782115872.752341,0.538000,327258,1000,12,0,1,391.729,26.625,31.922,457.113,2.525,1.078
1782115872.753341,0.539000,327259,1000,12,0,1,372.753,7.914,31.940,456.177,0.928,1.081
1782115872.754341,0.540000,327260,1000,12,0,1,349.525,-14.905,31.891,457.930,2.128,1.122
1782115872.755341,0.541000,327261,1000,12,0,1,337.995,-22.766,31.375,458.146,2.404,1.170
1782115872.756341,0.542000,327262,1000,12,0,1,328.242,-25.383,29.134,457.882,1.398,1.183
1782115872.757341,0.543000,327263,1000,12,0,1,325.576,-23.323,25.932,456.129,-0.045,1.181
1782115872.758341,0.544000,327264,1000,12,0,1,322.910,-18.448,23.854,455.768,-1.031,1.186
1782115872.759341,0.545000,327265,1000,12,0,1,330.380,-9.510,22.664,455.744,-0.547,1.188
1782115872.760341,0.546000,327266,1000,12,0,1,344.192,6.903,21.618,456.801,0.067,1.175
1782115872.761341,0.547000,327267,1000,12,0,1,345.321,9.176,20.796,457.570,1.092,1.172
1782115872.762341,0.548000,327268,1000,12,0,1,343.448,4.799,20.795,458.242,1.329,1.168
1782115872.763341,0.549000,327269,1000,12,0,1,347.099,6.490,20.487,457.618,0.846,1.173
1782115872.764341,0.550000,327270,1000,12,0,1,356.755,12.097,20.346,457.258,0.104,1.173
1782115872.765341,0.551000,327271,1000,12,0,1,372.152,22.357,20.475,457.834,0.564,1.175
1782115872.766341,0.552000,327272,1000,12,0,1,374.939,21.827,20.643,457.161,0.121,1.175
1782115872.767341,0.553000,327273,1000,12,0,1,361.535,5.093,20.579,456.080,-1.110,1.171
1782115872.768341,0.554000,327274,1000,12,0,1,350.317,-8.735,20.292,456.465,-0.705,1.166
1782115872.769341,0.555000,327275,1000,12,0,1,346.738,-11.671,19.516,457.498,0.272,1.161
1782115872.770341,0.556000,327276,1000,12,0,1,349.333,-8.100,18.222,457.209,0.194,1.145
1782115872.771341,0.557000,327277,1000,12,0,1,347.051,-6.531,17.128,456.008,-1.070,1.151
1782115872.772341,0.558000,327278,1000,12,0,1,351.494,-2.291,16.396,455.504,-1.505,1.158
1782115872.773341,0.559000,327279,1000,12,0,1,360.454,9.039,15.860,455.456,-1.369,1.172
1782115872.774341,0.560000,327280,1000,12,0,1,358.533,9.199,15.539,456.080,-0.732,1.149
1782115872.775341,0.561000,327281,1000,12,0,1,352.720,3.816,15.226,455.504,-0.875,1.133
1782115872.776341,0.562000,327282,1000,12,0,1,349.813,2.311,14.980,457.041,0.025,1.118
1782115872.777341,0.563000,327283,1000,12,0,1,343.231,-1.801,14.852,456.321,0.197,1.118
1782115872.778341,0.564000,327284,1000,12,0,1,340.517,-3.958,14.746,458.338,0.844,1.113
1782115872.779341,0.565000,327285,1000,12,0,1,345.057,1.150,14.715,457.546,1.268,1.117
1782115872.780341,0.566000,327286,1000,12,0,1,343.400,1.113,14.693,457.426,-0.139,1.112
1782115872.781341,0.567000,327287,1000,12,0,1,341.310,-2.611,14.571,456.969,0.216,1.109
1782115872.782341,0.568000,327288,1000,12,0,1,345.802,0.584,14.515,456.801,-0.479,1.075
1782115872.783341,0.569000,327289,1000,12,0,1,350.438,3.525,14.515,456.129,-0.616,1.074
1782115872.784341,0.570000,327290,1000,12,0,1,349.453,0.987,14.477,457.810,0.481,1.065
1782115872.785341,0.571000,327291,1000,12,0,1,347.555,-3.277,14.300,457.137,0.617,1.034
1782115872.786341,0.572000,327292,1000,12,0,1,344.985,-6.481,13.983,455.216,-1.459,1.055
1782115872.787341,0.573000,327293,1000,12,0,1,339.652,-11.465,13.596,456.129,-0.730,1.050
1782115872.788341,0.574000,327294,1000,12,0,1,340.685,-10.836,13.140,455.936,-0.104,1.048
1782115872.789341,0.575000,327295,1000,12,0,1,337.514,-10.233,12.860,455.912,-0.612,1.036
1782115872.790341,0.576000,327296,1000,12,0,1,330.356,-15.143,12.672,457.906,1.435,1.051
1782115872.791341,0.577000,327297,1000,12,0,1,327.114,-14.464,12.688,458.026,1.567,1.073
1782115872.792341,0.578000,327298,1000,12,0,1,332.230,-6.494,12.711,457.786,0.894,1.067
1782115872.793341,0.579000,327299,1000,12,0,1,343.832,7.424,12.750,457.546,0.544,1.070
1782115872.794341,0.580000,327300,1000,12,0,1,341.862,9.824,12.798,457.306,0.077,1.043
1782115872.795341,0.581000,327301,1000,12,0,1,334.128,2.589,12.800,455.576,-1.304,1.057
1782115872.796341,0.582000,327302,1000,12,0,1,334.824,4.578,12.663,455.264,-1.919,1.090
1782115872.797341,0.583000,327303,1000,12,0,1,355.578,21.863,12.746,457.209,0.075,1.088
1782115872.798341,0.584000,327304,1000,12,0,1,383.946,46.322,13.867,457.834,0.920,1.056
1782115872.799341,0.585000,327305,1000,12,0,1,390.144,47.805,15.256,457.185,0.103,1.052
1782115872.800341,0.586000,327306,1000,12,0,1,367.973,20.894,15.507,456.032,-0.855,1.056
1782115872.801341,0.587000,327307,1000,12,0,1,346.258,-6.025,15.152,456.129,-0.936,1.034
1782115872.802341,0.588000,327308,1000,12,0,1,338.379,-15.243,14.834,455.024,-1.269,0.987
1782115872.803341,0.589000,327309,1000,12,0,1,339.124,-14.543,14.934,456.537,-0.418,0.980
1782115872.804341,0.590000,327310,1000,12,0,1,342.367,-11.139,14.868,455.624,-0.043,0.933
1782115872.805341,0.591000,327311,1000,12,0,1,339.508,-12.499,14.623,455.480,-0.961,0.879
1782115872.806341,0.592000,327312,1000,12,0,1,339.316,-13.648,14.306,456.008,0.278,0.858
1782115872.807341,0.593000,327313,1000,12,0,1,335.785,-14.081,14.062,456.153,0.242,0.858
1782115872.808341,0.594000,327314,1000,12,0,1,329.275,-19.121,14.080,456.921,0.947,0.856
1782115872.809341,0.595000,327315,1000,12,0,1,332.710,-14.237,14.160,456.297,0.618,0.857
1782115872.810341,0.596000,327316,1000,12,0,1,344.192,-1.267,14.127,455.624,-0.393,0.859
1782115872.811341,0.597000,327317,1000,12,0,1,347.627,4.556,14.082,456.153,0.230,0.846
1782115872.812341,0.598000,327318,1000,12,0,1,349.597,5.658,14.089,456.825,0.713,0.831
1782115872.813341,0.599000,327319,1000,12,0,1,350.918,7.931,14.103,455.936,0.122,0.822
1782115872.814341,0.600000,327320,1000,12,0,1,343.111,1.976,14.002,456.561,0.081,0.822
1782115872.815341,0.601000,327321,1000,12,0,1,334.632,-5.528,13.663,457.930,1.565,0.848
1782115872.816341,0.602000,327322,1000,12,0,1,331.293,-6.336,13.340,457.017,0.633,0.852
1782115872.817341,0.603000,327323,1000,12,0,1,333.191,-2.828,13.326,455.576,-0.941,0.848
1782115872.818341,0.604000,327324,1000,12,0,1,338.643,3.889,13.280,456.681,-0.170,0.843
1782115872.819341,0.605000,327325,1000,12,0,1,338.115,4.787,13.195,456.561,0.239,0.842
1782115872.820341,0.606000,327326,1000,12,0,1,334.464,0.832,13.145,456.153,-0.476,0.845
1782115872.821341,0.607000,327327,1000,12,0,1,324.063,-7.247,13.153,456.056,-0.309,0.832
1782115872.822341,0.608000,327328,1000,12,0,1,321.012,-11.299,13.246,456.489,0.010,0.804
1782115872.823341,0.609000,327329,1000,12,0,1,322.189,-7.557,13.227,456.441,0.204,0.781
1782115872.824341,0.610000,327330,1000,12,0,1,336.121,3.138,13.170,456.921,0.455,0.777
1782115872.825341,0.611000,327331,1000,12,0,1,360.526,24.481,13.607,457.450,1.022,0.781
1782115872.826341,0.612000,327332,1000,12,0,1,377.869,36.498,14.550,458.122,1.402,0.805
1782115872.827341,0.613000,327333,1000,12,0,1,394.227,42.763,15.754,457.065,0.544,0.809
1782115872.828341,0.614000,327334,1000,12,0,1,404.965,45.346,17.000,457.858,0.574,0.804
1782115872.829341,0.615000,327335,1000,12,0,1,390.408,25.371,17.374,456.177,-0.243,0.784
1782115872.830341,0.616000,327336,1000,12,0,1,374.290,2.263,17.376,457.258,-0.379,0.786
1782115872.831341,0.617000,327337,1000,12,0,1,372.729,-2.140,17.375,455.792,-0.462,0.788
1782115872.832341,0.618000,327338,1000,12,0,1,373.666,-1.369,17.376,457.306,-0.471,0.788
1782115872.833341,0.619000,327339,1000,12,0,1,370.303,-4.436,17.380,457.233,0.728,0.790
1782115872.834341,0.620000,327340,1000,12,0,1,362.064,-10.706,17.445,456.008,-1.203,0.805
1782115872.835341,0.621000,327341,1000,12,0,1,357.980,-13.839,17.549,455.936,-1.018,0.813
1782115872.836341,0.622000,327342,1000,12,0,1,380.800,5.659,17.543,455.648,-1.059,0.801
1782115872.837341,0.623000,327343,1000,12,0,1,413.492,35.545,18.177,455.984,-0.894,0.804
1782115872.838341,0.624000,327344,1000,12,0,1,417.335,36.363,18.828,455.240,-0.913,0.814
1782115872.839341,0.625000,327345,1000,12,0,1,383.346,0.551,18.772,451.517,-4.036,0.991
1782115872.840341,0.626000,327346,1000,12,0,1,354.113,-32.120,19.195,455.744,-0.887,0.978
1782115872.841341,0.627000,327347,1000,12,0,1,349.381,-35.215,19.725,456.897,2.085,0.997
1782115872.842341,0.628000,327348,1000,12,0,1,353.945,-27.461,20.083,453.943,-1.329,1.006
1782115872.843341,0.629000,327349,1000,12,0,1,356.203,-22.583,20.308,455.336,-0.280,1.004
1782115872.844341,0.630000,327350,1000,12,0,1,363.577,-15.452,20.378,453.895,-0.386,1.006
1782115872.845341,0.631000,327351,1000,12,0,1,365.787,-11.227,20.436,453.054,-1.929,1.026
1782115872.846341,0.632000,327352,1000,12,0,1,359.181,-17.068,20.568,456.537,1.693,1.018
1782115872.847341,0.633000,327353,1000,12,0,1,348.204,-25.440,20.650,455.696,1.583,1.042
1782115872.848341,0.634000,327354,1000,12,0,1,336.506,-32.898,20.129,454.207,-0.479,1.036
1782115872.849341,0.635000,327355,1000,12,0,1,331.942,-32.956,19.524,454.567,0.072,1.036
1782115872.850341,0.636000,327356,1000,12,0,1,324.351,-31.910,19.819,457.209,2.130,1.072
1782115872.851341,0.637000,327357,1000,12,0,1,335.425,-19.409,19.990,455.456,1.309,1.080
1782115872.852341,0.638000,327358,1000,12,0,1,356.395,6.987,19.898,455.096,-0.271,1.065
1782115872.853341,0.639000,327359,1000,12,0,1,370.903,21.549,20.025,453.895,-0.396,1.065
1782115872.854341,0.640000,327360,1000,12,0,1,370.471,22.340,20.211,454.567,-0.616,1.069
1782115872.855341,0.641000,327361,1000,12,0,1,363.553,13.909,20.230,456.825,1.923,1.094
1782115872.856341,0.642000,327362,1000,12,0,1,355.482,6.698,20.160,456.729,1.810,1.123
1782115872.857341,0.643000,327363,1000,12,0,1,345.633,-1.252,20.062,455.720,0.431,1.124
1782115872.858341,0.644000,327364,1000,12,0,1,343.327,-2.948,19.883,454.327,-0.664,1.120
1782115872.859341,0.645000,327365,1000,12,0,1,338.956,-2.979,19.786,455.984,0.181,1.117
1782115872.860341,0.646000,327366,1000,12,0,1,326.201,-12.548,19.864,454.735,0.195,1.116
1782115872.861341,0.647000,327367,1000,12,0,1,322.622,-14.211,19.955,454.735,-0.931,1.123
1782115872.862341,0.648000,327368,1000,12,0,1,338.091,1.290,19.940,453.294,-0.974,1.127
1782115872.863341,0.649000,327369,1000,12,0,1,357.692,20.459,20.118,453.775,-1.415,1.145
1782115872.864341,0.650000,327370,1000,12,0,1,360.262,21.770,20.350,454.831,0.507,1.147
1782115872.865341,0.651000,327371,1000,12,0,1,355.602,12.668,20.414,456.105,1.213,1.138
1782115872.866341,0.652000,327372,1000,12,0,1,357.404,10.597,20.449,456.225,1.574,1.157
1782115872.867341,0.653000,327373,1000,12,0,1,359.974,10.701,20.501,455.168,0.328,1.150
1782115872.868341,0.654000,327374,1000,12,0,1,353.464,3.333,20.499,453.775,-1.027,1.159
1782115872.869341,0.655000,327375,1000,12,0,1,339.628,-10.100,20.538,453.750,-1.031,1.167
1782115872.870341,0.656000,327376,1000,12,0,1,336.434,-13.612,20.627,455.144,0.231,1.166
1782115872.871341,0.657000,327377,1000,12,0,1,336.530,-9.529,20.646,453.895,-0.260,1.166
1782115872.872341,0.658000,327378,1000,12,0,1,335.112,-8.648,20.620,453.847,-1.024,1.175
1782115872.873341,0.659000,327379,1000,12,0,1,337.731,-3.650,20.599,452.646,-1.115,1.185
1782115872.874341,0.660000,327380,1000,12,0,1,341.910,2.745,20.598,453.414,-1.132,1.194
1782115872.875341,0.661000,327381,1000,12,0,1,348.180,9.419,20.348,455.216,1.258,1.198
1782115872.876341,0.662000,327382,1000,12,0,1,346.834,10.234,19.736,454.183,0.348,1.183
1782115872.877341,0.663000,327383,1000,12,0,1,338.764,2.550,18.790,452.838,-1.058,1.190
1782115872.878341,0.664000,327384,1000,12,0,1,331.269,-3.355,17.668,452.694,-0.988,1.195
1782115872.879341,0.665000,327385,1000,12,0,1,334.488,-0.591,17.300,452.405,-0.967,1.202
1782115872.880341,0.666000,327386,1000,12,0,1,344.865,9.875,17.354,453.222,-0.148,1.201
1782115872.881341,0.667000,327387,1000,12,0,1,349.309,13.595,17.457,456.417,2.588,1.254
1782115872.882341,0.668000,327388,1000,12,0,1,348.636,10.387,17.518,455.264,2.211,1.291
1782115872.883341,0.669000,327389,1000,12,0,1,347.843,7.147,17.536,451.997,-1.530,1.305
1782115872.884341,0.670000,327390,1000,12,0,1,347.867,4.654,17.483,451.565,-1.816,1.319
1782115872.885341,0.671000,327391,1000,12,0,1,349.885,4.192,17.383,451.613,-1.256,1.323
1782115872.886341,0.672000,327392,1000,12,0,1,358.845,9.145,17.413,453.606,0.423,1.316
1782115872.887341,0.673000,327393,1000,12,0,1,371.624,17.966,16.864,453.102,0.806,1.315
1782115872.888341,0.674000,327394,1000,12,0,1,368.597,13.425,16.172,454.303,0.912,1.315
1782115872.889341,0.675000,327395,1000,12,0,1,369.342,7.605,16.208,453.366,1.028,1.193
1782115872.890341,0.676000,327396,1000,12,0,1,378.758,14.267,15.689,454.783,0.996,1.195
1782115872.891341,0.677000,327397,1000,12,0,1,383.778,16.010,15.048,451.973,-0.119,1.158
1782115872.892341,0.678000,327398,1000,12,0,1,386.348,14.699,14.686,452.814,-1.087,1.153
1782115872.893341,0.679000,327399,1000,12,0,1,380.752,8.068,14.380,453.006,0.655,1.156
1782115872.894341,0.680000,327400,1000,12,0,1,374.098,-1.036,14.214,452.910,-0.319,1.156
1782115872.895341,0.681000,327401,1000,12,0,1,367.348,-6.461,14.155,451.733,-0.660,1.127
1782115872.896341,0.682000,327402,1000,12,0,1,364.249,-9.683,14.014,452.309,-0.608,1.105
1782115872.897341,0.683000,327403,1000,12,0,1,363.793,-8.146,13.594,452.405,0.070,1.082
1782115872.898341,0.684000,327404,1000,12,0,1,368.189,-4.158,12.786,453.078,0.453,1.081
1782115872.899341,0.685000,327405,1000,12,0,1,370.831,-0.494,11.907,451.613,-0.420,1.083
1782115872.900341,0.686000,327406,1000,12,0,1,364.057,-6.565,11.057,450.796,-1.391,1.059
1782115872.901341,0.687000,327407,1000,12,0,1,360.214,-11.647,10.837,450.051,-1.572,1.066
1782115872.902341,0.688000,327408,1000,12,0,1,359.974,-10.964,10.903,450.964,-0.686,1.070
1782115872.903341,0.689000,327409,1000,12,0,1,362.448,-9.484,10.554,451.757,0.471,1.070
1782115872.904341,0.690000,327410,1000,12,0,1,359.686,-10.727,10.183,451.132,0.121,1.067
1782115872.905341,0.691000,327411,1000,12,0,1,356.659,-14.750,10.207,449.931,-0.990,1.041
1782115872.906341,0.692000,327412,1000,12,0,1,351.254,-17.733,10.468,448.658,-1.722,1.038
1782115872.907341,0.693000,327413,1000,12,0,1,344.601,-22.803,10.952,449.427,-1.098,1.048
1782115872.908341,0.694000,327414,1000,12,0,1,330.500,-30.950,11.787,452.285,1.878,1.077
1782115872.909341,0.695000,327415,1000,12,0,1,319.499,-37.526,12.920,449.835,0.379,1.078
1782115872.910341,0.696000,327416,1000,12,0,1,312.221,-36.422,13.795,447.962,-2.100,1.118
1782115872.911341,0.697000,327417,1000,12,0,1,297.256,-40.883,14.822,447.889,-1.397,1.127
1782115872.912341,0.698000,327418,1000,12,0,1,290.578,-39.817,15.854,446.352,-2.278,1.164
1782115872.913341,0.699000,327419,1000,12,0,1,308.762,-15.317,15.738,447.937,-0.946,1.155
1782115872.914341,0.700000,327420,1000,12,0,1,348.612,25.556,15.851,449.763,1.623,1.175
1782115872.915341,0.701000,327421,1000,12,0,1,389.880,63.783,18.150,447.721,-0.029,1.163
1782115872.916341,0.702000,327422,1000,12,0,1,414.453,79.914,21.328,447.577,-0.541,1.144
1782115872.917341,0.703000,327423,1000,12,0,1,404.316,63.123,23.072,446.929,-0.296,1.144
1782115872.918341,0.704000,327424,1000,12,0,1,380.680,30.012,23.454,447.889,0.163,1.134
1782115872.919341,0.705000,327425,1000,12,0,1,351.615,0.035,23.411,448.346,1.346,1.141
1782115872.920341,0.706000,327426,1000,12,0,1,338.956,-15.842,23.439,449.283,1.686,1.165
1782115872.921341,0.707000,327427,1000,12,0,1,351.470,-3.360,23.405,448.250,1.301,1.179
1782115872.922341,0.708000,327428,1000,12,0,1,361.847,8.360,23.403,448.730,0.954,1.178
1782115872.923341,0.709000,327429,1000,12,0,1,358.172,4.072,23.404,448.682,1.473,1.186
1782115872.924341,0.710000,327430,1000,12,0,1,351.519,-3.521,23.406,448.778,1.054,1.184
1782115872.925341,0.711000,327431,1000,12,0,1,355.698,-1.893,23.370,449.499,1.747,1.197
1782115872.926341,0.712000,327432,1000,12,0,1,350.149,-4.195,23.332,447.889,0.503,1.198
1782115872.927341,0.713000,327433,1000,12,0,1,349.597,-8.360,23.359,447.001,-0.825,1.194
1782115872.928341,0.714000,327434,1000,12,0,1,351.062,-4.278,23.362,445.992,-1.041,1.195
1782115872.929341,0.715000,327435,1000,12,0,1,331.605,-19.654,23.527,446.208,-1.135,1.198
1782115872.930341,0.716000,327436,1000,12,0,1,305.159,-41.504,24.208,445.247,-1.029,1.207
1782115872.931341,0.717000,327437,1000,12,0,1,276.790,-58.823,25.525,445.247,-1.367,1.166
1782115872.932341,0.718000,327438,1000,12,0,1,259.111,-66.258,27.151,445.487,-0.349,1.124
1782115872.933341,0.719000,327439,1000,12,0,1,266.798,-47.905,27.965,447.193,0.877,1.110
1782115872.934341,0.720000,327440,1000,12,0,1,306.480,-4.206,27.964,446.424,0.946,1.088
1782115872.935341,0.721000,327441,1000,12,0,1,349.597,41.342,28.562,446.136,-0.016,1.074
1782115872.936341,0.722000,327442,1000,12,0,1,373.714,60.551,29.790,444.118,-1.034,1.082
1782115872.937341,0.723000,327443,1000,12,0,1,392.714,68.479,31.222,443.013,-2.391,1.128
1782115872.938341,0.724000,327444,1000,12,0,1,400.304,66.842,32.566,444.022,-0.903,1.128
1782115872.939341,0.725000,327445,1000,12,0,1,390.816,47.499,33.234,443.902,-0.410,1.120
1782115872.940341,0.726000,327446,1000,12,0,1,367.012,18.531,33.276,444.695,0.098,1.111
1782115872.941341,0.727000,327447,1000,12,0,1,348.036,-5.046,33.207,443.566,-0.025,1.111
1782115872.942341,0.728000,327448,1000,12,0,1,329.972,-19.832,33.260,443.854,-0.424,1.102
1782115872.943341,0.729000,327449,1000,12,0,1,314.335,-32.244,33.552,445.752,1.925,1.131
1782115872.944341,0.730000,327450,1000,12,0,1,307.272,-33.325,33.881,445.559,1.739,1.157
1782115872.945341,0.731000,327451,1000,12,0,1,319.403,-18.464,33.969,444.695,0.787,1.158
1782115872.946341,0.732000,327452,1000,12,0,1,352.431,14.176,34.001,446.088,1.707,1.180
1782115872.947341,0.733000,327453,1000,12,0,1,376.668,37.622,34.395,445.776,1.835,1.208
1782115872.948341,0.734000,327454,1000,12,0,1,368.093,26.780,34.598,444.791,0.450,1.208
1782115872.949341,0.735000,327455,1000,12,0,1,365.787,15.498,34.667,443.374,-0.550,1.209
1782115872.950341,0.736000,327456,1000,12,0,1,364.754,13.324,34.706,442.389,-1.464,1.211
1782115872.951341,0.737000,327457,1000,12,0,1,356.683,1.609,34.668,442.028,-1.375,1.206
1782115872.952341,0.738000,327458,1000,12,0,1,360.166,0.856,34.633,445.199,1.286,1.216
1782115872.953341,0.739000,327459,1000,12,0,1,363.985,4.041,34.612,443.878,1.243,1.227
1782115872.954341,0.740000,327460,1000,12,0,1,362.208,-0.439,34.579,440.779,-2.281,1.268
1782115872.955341,0.741000,327461,1000,12,0,1,354.665,-7.666,34.533,442.797,-0.493,1.263
1782115872.956341,0.742000,327462,1000,12,0,1,344.288,-17.838,34.534,444.406,1.753,1.263
1782115872.957341,0.743000,327463,1000,12,0,1,342.799,-18.486,34.482,443.326,0.543,1.256
1782115872.958341,0.744000,327464,1000,12,0,1,348.516,-11.065,34.239,443.374,0.368,1.229
1782115872.959341,0.745000,327465,1000,12,0,1,354.281,-4.003,33.830,443.662,0.701,1.232
1782115872.960341,0.746000,327466,1000,12,0,1,355.098,-1.966,33.437,445.175,1.730,1.220
1782115872.961341,0.747000,327467,1000,12,0,1,358.653,0.567,32.933,445.896,2.439,1.253
1782115872.962341,0.748000,327468,1000,12,0,1,366.123,7.436,32.465,442.773,-0.364,1.212
1782115872.963341,0.749000,327469,1000,12,0,1,368.861,9.491,32.421,441.260,-2.345,1.249
1782115872.964341,0.750000,327470,1000,12,0,1,365.330,4.944,32.226,440.971,-1.841,1.255
1782115872.965341,0.751000,327471,1000,12,0,1,358.605,-2.074,30.939,440.611,-1.947,1.285
1782115872.966341,0.752000,327472,1000,12,0,1,348.300,-10.975,28.843,441.380,-0.840,1.288
1782115872.967341,0.753000,327473,1000,12,0,1,355.314,-6.456,27.442,443.326,1.110,1.297
1782115872.968341,0.754000,327474,1000,12,0,1,374.554,12.277,27.168,442.389,0.824,1.302
1782115872.969341,0.755000,327475,1000,12,0,1,372.056,11.013,27.212,442.052,-0.041,1.288
1782115872.970341,0.756000,327476,1000,12,0,1,367.781,1.624,27.121,442.293,0.600,1.269
1782115872.971341,0.757000,327477,1000,12,0,1,371.792,4.415,27.124,441.908,0.204,1.255
1782115872.972341,0.758000,327478,1000,12,0,1,369.798,1.453,27.099,441.836,0.147,1.248
1782115872.973341,0.759000,327479,1000,12,0,1,372.777,1.023,27.093,440.515,-0.684,1.235
1782115872.974341,0.760000,327480,1000,12,0,1,376.548,4.182,27.095,440.996,-0.633,1.229
1782115872.975341,0.761000,327481,1000,12,0,1,370.231,-2.588,27.096,439.987,-0.623,1.207
1782115872.976341,0.762000,327482,1000,12,0,1,355.434,-15.968,27.184,439.674,-1.391,1.221
1782115872.977341,0.763000,327483,1000,12,0,1,353.200,-18.871,27.289,438.762,-1.289,1.229
1782115872.978341,0.764000,327484,1000,12,0,1,350.942,-15.866,27.374,437.921,-2.137,1.257
1782115872.979341,0.765000,327485,1000,12,0,1,363.145,-6.170,27.247,441.164,0.849,1.252
1782115872.980341,0.766000,327486,1000,12,0,1,397.518,25.352,26.847,439.843,0.885,1.250
1782115872.981341,0.767000,327487,1000,12,0,1,394.924,26.244,25.794,437.633,-1.981,1.266
1782115872.982341,0.768000,327488,1000,12,0,1,361.583,-9.632,24.071,438.521,-0.621,1.269
1782115872.983341,0.769000,327489,1000,12,0,1,347.435,-24.400,23.354,439.242,0.351,1.263
1782115872.984341,0.770000,327490,1000,12,0,1,361.583,-9.879,23.388,438.858,0.269,1.257
1782115872.985341,0.771000,327491,1000,12,0,1,356.779,-6.975,22.667,441.140,1.922,1.286
1782115872.986341,0.772000,327492,1000,12,0,1,345.081,-19.086,21.160,442.052,3.251,1.358
1782115872.987341,0.773000,327493,1000,12,0,1,349.525,-12.428,18.896,440.275,1.233,1.327
1782115872.988341,0.774000,327494,1000,12,0,1,338.715,-15.928,16.516,438.113,-0.825,1.326
1782115872.989341,0.775000,327495,1000,12,0,1,339.436,-17.236,15.284,436.504,-2.061,1.356
1782115872.990341,0.776000,327496,1000,12,0,1,344.384,-5.956,15.081,435.158,-2.784,1.412
1782115872.991341,0.777000,327497,1000,12,0,1,323.438,-21.040,15.355,437.104,-0.852,1.417
1782115872.992341,0.778000,327498,1000,12,0,1,322.838,-22.939,15.441,437.152,0.306,1.416
1782115872.993341,0.779000,327499,1000,12,0,1,339.676,-1.295,14.754,439.242,1.471,1.406
1782115872.994341,0.780000,327500,1000,12,0,1,311.044,-18.726,14.230,439.050,2.266,1.420
1782115872.995341,0.781000,327501,1000,12,0,1,268.623,-56.009,16.075,437.080,-0.198,1.416
1782115872.996341,0.782000,327502,1000,12,0,1,251.160,-62.219,18.216,434.582,-2.009,1.424
1782115872.997341,0.783000,327503,1000,12,0,1,242.633,-55.739,19.122,436.672,-0.618,1.403
1782115872.998341,0.784000,327504,1000,12,0,1,239.702,-45.966,19.838,436.600,0.623,1.405
1782115872.999341,0.785000,327505,1000,12,0,1,233.889,-36.847,20.394,436.047,-0.504,1.404
1782115873.000341,0.786000,327506,1000,12,0,1,213.976,-41.846,21.151,435.855,-0.165,1.389
1782115873.001341,0.787000,327507,1000,12,0,1,192.598,-48.816,22.248,436.456,0.268,1.376
1782115873.002341,0.788000,327508,1000,12,0,1,181.836,-44.779,23.132,434.606,-0.780,1.368
1782115873.003341,0.789000,327509,1000,12,0,1,194.039,-21.697,23.327,434.558,-1.202,1.368
1782115873.004341,0.790000,327510,1000,12,0,1,204.776,2.092,23.329,435.927,0.594,1.332
1782115873.005341,0.791000,327511,1000,12,0,1,192.261,0.122,23.304,436.239,1.122,1.339
1782115873.006341,0.792000,327512,1000,12,0,1,192.910,3.823,23.173,435.759,0.619,1.319
1782115873.007341,0.793000,327513,1000,12,0,1,261.009,63.552,24.717,434.414,-0.269,1.317
1782115873.008341,0.794000,327514,1000,12,0,1,354.809,146.616,32.224,435.567,0.336,1.317
1782115873.009341,0.795000,327515,1000,12,0,1,382.433,161.297,39.477,435.038,0.861,1.319
1782115873.010341,0.796000,327516,1000,12,0,1,356.323,113.280,42.603,434.846,0.018,1.296
1782115873.011341,0.797000,327517,1000,12,0,1,294.926,43.677,43.048,435.207,0.953,1.257
1782115873.012341,0.798000,327518,1000,12,0,1,251.016,-10.324,43.060,437.056,2.107,1.290
1782115873.013341,0.799000,327519,1000,12,0,1,239.414,-18.674,43.120,435.086,1.143,1.257
1782115873.014341,0.800000,327520,1000,12,0,1,276.454,12.335,43.150,434.558,-0.434,1.232
1782115873.015341,0.801000,327521,1000,12,0,1,343.808,73.791,44.393,434.318,0.162,1.201
1782115873.016341,0.802000,327522,1000,12,0,1,395.957,112.805,47.147,434.078,-0.381,1.196
1782115873.017341,0.803000,327523,1000,12,0,1,396.629,100.017,49.214,435.183,0.729,1.190
1782115873.018341,0.804000,327524,1000,12,0,1,390.168,71.266,50.206,435.062,0.908,1.192
1782115873.019341,0.805000,327525,1000,12,0,1,406.814,68.843,51.117,435.327,0.629,1.195
1782115873.020341,0.806000,327526,1000,12,0,1,423.581,69.476,52.052,432.588,-1.042,1.201
1782115873.021341,0.807000,327527,1000,12,0,1,409.745,42.827,52.400,434.558,-0.589,1.203
1782115873.022341,0.808000,327528,1000,12,0,1,388.054,7.467,52.410,435.759,1.985,1.236
1782115873.023341,0.809000,327529,1000,12,0,1,387.525,-4.647,52.414,433.549,-0.664,1.235
1782115873.024341,0.810000,327530,1000,12,0,1,380.872,-13.705,52.447,433.213,-0.984,1.240
1782115873.025341,0.811000,327531,1000,12,0,1,378.998,-24.382,52.558,434.774,0.560,1.239
1782115873.026341,0.812000,327532,1000,12,0,1,362.808,-36.908,52.769,434.390,0.582,1.226
1782115873.027341,0.813000,327533,1000,12,0,1,322.574,-73.870,53.727,433.429,-0.450,1.214
1782115873.028341,0.814000,327534,1000,12,0,1,290.218,-98.735,55.466,434.726,0.548,1.179
1782115873.029341,0.815000,327535,1000,12,0,1,271.554,-104.181,57.383,436.047,2.070,1.209
1782115873.030341,0.816000,327536,1000,12,0,1,268.455,-94.721,58.817,436.408,2.017,1.235
1782115873.031341,0.817000,327537,1000,12,0,1,275.901,-73.526,59.613,433.477,-0.277,1.204
1782115873.032341,0.818000,327538,1000,12,0,1,278.111,-58.832,60.176,432.877,-1.679,1.224
1782115873.033341,0.819000,327539,1000,12,0,1,267.518,-56.770,60.611,433.045,-0.605,1.226
1782115873.034341,0.820000,327540,1000,12,0,1,268.983,-48.371,60.979,431.988,-1.556,1.245
1782115873.035341,0.821000,327541,1000,12,0,1,304.390,-9.825,60.987,432.444,-0.993,1.223
1782115873.036341,0.822000,327542,1000,12,0,1,357.524,41.580,61.211,430.691,-1.727,1.159
1782115873.037341,0.823000,327543,1000,12,0,1,386.709,66.886,61.912,432.444,-0.865,1.153
1782115873.038341,0.824000,327544,1000,12,0,1,374.698,48.801,62.255,431.027,-0.466,1.149
1782115873.039341,0.825000,327545,1000,12,0,1,316.376,-7.448,62.216,430.330,-2.129,1.151
1782115873.040341,0.826000,327546,1000,12,0,1,258.847,-62.220,62.830,431.291,-0.235,1.082
1782115873.041341,0.827000,327547,1000,12,0,1,218.420,-86.616,63.943,432.877,0.927,1.083
1782115873.042341,0.828000,327548,1000,12,0,1,176.096,-106.107,65.600,431.483,0.362,1.084
1782115873.043341,0.829000,327549,1000,12,0,1,146.382,-112.702,67.509,430.523,-1.067,1.074
1782115873.044341,0.830000,327550,1000,12,0,1,172.685,-70.157,68.182,431.219,-0.096,1.025
1782115873.045341,0.831000,327551,1000,12,0,1,254.571,20.001,67.780,429.105,-1.307,1.042
1782115873.046341,0.832000,327552,1000,12,0,1,282.027,62.007,67.776,432.564,0.697,1.007
1782115873.047341,0.833000,327553,1000,12,0,1,271.241,43.857,67.601,431.796,2.016,1.043
1782115873.048341,0.834000,327554,1000,12,0,1,274.845,43.663,67.571,428.577,-2.159,1.083
1782115873.049341,0.835000,327555,1000,12,0,1,314.094,69.633,68.085,429.754,-0.596,1.084
1782115873.050341,0.836000,327556,1000,12,0,1,320.988,76.004,68.674,430.763,0.826,1.090
1782115873.051341,0.837000,327557,1000,12,0,1,302.973,44.805,68.619,431.075,1.096,1.100
1782115873.052341,0.838000,327558,1000,12,0,1,289.689,25.743,68.423,429.706,0.284,1.095
1782115873.053341,0.839000,327559,1000,12,0,1,286.999,17.341,68.398,427.784,-1.582,1.105
1782115873.054341,0.840000,327560,1000,12,0,1,299.874,24.258,68.484,428.865,-0.442,1.104
1782115873.055341,0.841000,327561,1000,12,0,1,320.460,39.815,68.715,427.928,-0.399,1.094
1782115873.056341,0.842000,327562,1000,12,0,1,370.375,72.543,69.474,428.841,-0.087,1.090
1782115873.057341,0.843000,327563,1000,12,0,1,441.620,125.587,71.143,428.625,0.688,1.094
1782115873.058341,0.844000,327564,1000,12,0,1,465.112,131.538,70.551,429.225,0.585,1.096
1782115873.059341,0.845000,327565,1000,12,0,1,455.624,96.870,68.153,427.496,-0.078,1.089
1782115873.060341,0.846000,327566,1000,12,0,1,452.718,71.875,67.019,426.919,-1.276,1.104
1782115873.061341,0.847000,327567,1000,12,0,1,455.408,57.023,67.219,426.271,-0.977,1.104
1782115873.062341,0.848000,327568,1000,12,0,1,446.664,35.328,67.388,424.950,-2.061,1.103
1782115873.063341,0.849000,327569,1000,12,0,1,442.749,17.208,67.381,425.550,-1.283,1.106
1782115873.064341,0.850000,327570,1000,12,0,1,430.306,-0.632,67.358,424.734,-1.042,1.114
1782115873.065341,0.851000,327571,1000,12,0,1,408.616,-27.781,66.661,423.148,-2.431,1.166
1782115873.066341,0.852000,327572,1000,12,0,1,373.449,-59.444,65.267,423.340,-1.600,1.186
1782115873.067341,0.853000,327573,1000,12,0,1,355.386,-77.332,64.648,423.100,-1.146,1.193
1782115873.068341,0.854000,327574,1000,12,0,1,366.507,-62.050,64.458,422.908,-0.861,1.192
1782115873.069341,0.855000,327575,1000,12,0,1,381.352,-42.978,64.007,425.526,1.560,1.209
1782115873.070341,0.856000,327576,1000,12,0,1,402.202,-25.036,63.348,424.181,1.493,1.218
1782115873.071341,0.857000,327577,1000,12,0,1,400.545,-22.992,63.141,421.467,-1.482,1.233
1782115873.072341,0.858000,327578,1000,12,0,1,382.481,-43.779,63.435,421.323,-1.078,1.211
1782115873.073341,0.859000,327579,1000,12,0,1,361.968,-59.843,63.994,422.836,0.661,1.211
1782115873.074341,0.860000,327580,1000,12,0,1,351.158,-67.592,64.675,421.899,0.610,1.206
1782115873.075341,0.861000,327581,1000,12,0,1,358.292,-55.118,65.052,421.395,-0.073,1.203
1782115873.076341,0.862000,327582,1000,12,0,1,347.195,-54.165,65.293,420.098,-0.450,1.202
1782115873.077341,0.863000,327583,1000,12,0,1,315.463,-75.273,65.325,420.938,0.053,1.200
1782115873.078341,0.864000,327584,1000,12,0,1,277.871,-95.428,65.226,420.049,0.338,1.199
1782115873.079341,0.865000,327585,1000,12,0,1,238.982,-112.583,65.505,418.921,-0.913,1.170
1782115873.080341,0.866000,327586,1000,12,0,1,249.599,-87.612,65.307,420.170,0.554,1.137
1782115873.081341,0.867000,327587,1000,12,0,1,325.864,-1.938,64.474,418.608,0.041,1.136
1782115873.082341,0.868000,327588,1000,12,0,1,400.256,77.416,64.866,417.431,-1.402,1.129
1782115873.083341,0.869000,327589,1000,12,0,1,446.376,113.346,66.333,416.663,-1.090,1.136
1782115873.084341,0.870000,327590,1000,12,0,1,463.527,117.226,68.030,417.816,-0.212,1.115
1782115873.085341,0.871000,327591,1000,12,0,1,445.007,85.766,69.089,417.383,0.569,1.109
1782115873.086341,0.872000,327592,1000,12,0,1,430.498,54.756,69.273,417.095,-0.055,1.082
1782115873.087341,0.873000,327593,1000,12,0,1,419.473,37.037,68.823,417.671,1.067,1.085
1782115873.088341,0.874000,327594,1000,12,0,1,441.452,42.021,68.734,417.575,1.129,1.095
1782115873.089341,0.875000,327595,1000,12,0,1,463.839,58.736,69.226,419.017,2.239,1.100
1782115873.090341,0.876000,327596,1000,12,0,1,455.984,40.114,68.898,416.470,0.867,1.106
1782115873.091341,0.877000,327597,1000,12,0,1,443.253,16.978,67.843,415.846,-0.707,1.103
1782115873.092341,0.878000,327598,1000,12,0,1,433.717,1.581,66.163,413.612,-1.133,1.113
1782115873.093341,0.879000,327599,1000,12,0,1,421.587,-14.079,64.246,414.693,-1.048,1.113
1782115873.094341,0.880000,327600,1000,12,0,1,394.564,-37.472,63.696,414.621,0.665,1.117
1782115873.095341,0.881000,327601,1000,12,0,1,372.945,-57.637,64.153,415.029,0.358,1.102
1782115873.096341,0.882000,327602,1000,12,0,1,360.334,-61.022,64.134,415.101,1.341,1.114
1782115873.097341,0.883000,327603,1000,12,0,1,350.750,-62.255,64.438,415.269,1.204,1.090
1782115873.098341,0.884000,327604,1000,12,0,1,342.799,-59.274,64.687,413.636,0.281,1.048
1782115873.099341,0.885000,327605,1000,12,0,1,343.255,-50.577,64.331,412.891,-0.597,1.048
1782115873.100341,0.886000,327606,1000,12,0,1,332.110,-48.173,63.792,413.708,0.449,1.043
1782115873.101341,0.887000,327607,1000,12,0,1,319.067,-52.684,63.912,412.771,0.238,1.032
1782115873.102341,0.888000,327608,1000,12,0,1,323.438,-39.656,64.055,413.228,0.168,1.031
1782115873.103341,0.889000,327609,1000,12,0,1,322.910,-28.477,64.134,413.083,0.917,1.015
1782115873.104341,0.890000,327610,1000,12,0,1,321.709,-23.961,64.132,411.642,-0.629,1.017
1782115873.105341,0.891000,327611,1000,12,0,1,322.021,-15.350,63.921,411.762,-0.253,1.016
1782115873.106341,0.892000,327612,1000,12,0,1,328.699,-5.493,63.097,411.234,-0.262,1.017
1782115873.107341,0.893000,327613,1000,12,0,1,335.545,6.475,60.553,412.147,0.445,1.014
1782115873.108341,0.894000,327614,1000,12,0,1,343.207,14.519,57.661,412.795,1.582,1.035
1782115873.109341,0.895000,327615,1000,12,0,1,343.400,17.529,56.065,410.489,-0.286,1.036
1782115873.110341,0.896000,327616,1000,12,0,1,336.121,10.999,55.158,410.489,-0.624,1.024
1782115873.111341,0.897000,327617,1000,12,0,1,313.182,-5.818,54.571,411.738,1.164,1.028
1782115873.112341,0.898000,327618,1000,12,0,1,303.765,-14.177,54.379,411.066,0.773,0.992
1782115873.113341,0.899000,327619,1000,12,0,1,310.299,-1.557,54.325,410.657,0.337,0.976
1782115873.114341,0.900000,327620,1000,12,0,1,317.385,9.408,54.341,412.747,2.138,1.011
1782115873.115341,0.901000,327621,1000,12,0,1,315.367,11.477,54.223,411.018,1.336,0.970
1782115873.116341,0.902000,327622,1000,12,0,1,297.712,-0.557,53.568,410.537,-0.046,0.943
1782115873.117341,0.903000,327623,1000,12,0,1,295.478,-3.047,52.441,409.336,-0.147,0.929
1782115873.118341,0.904000,327624,1000,12,0,1,297.784,6.225,51.709,409.408,-0.636,0.925
1782115873.119341,0.905000,327625,1000,12,0,1,290.362,1.811,51.352,408.976,-0.121,0.899
1782115873.120341,0.906000,327626,1000,12,0,1,272.899,-9.104,51.246,408.015,-1.071,0.887
1782115873.121341,0.907000,327627,1000,12,0,1,273.403,-8.311,51.156,408.159,-0.638,0.866
1782115873.122341,0.908000,327628,1000,12,0,1,287.912,10.332,50.801,408.496,0.069,0.853
1782115873.123341,0.909000,327629,1000,12,0,1,311.020,30.562,50.277,409.504,0.897,0.857
1782115873.124341,0.910000,327630,1000,12,0,1,332.374,48.469,49.834,409.745,1.504,0.879
1782115873.125341,0.911000,327631,1000,12,0,1,337.899,48.527,49.696,410.922,1.962,0.922
1782115873.126341,0.912000,327632,1000,12,0,1,332.446,36.105,49.367,410.177,1.783,0.953
1782115873.127341,0.913000,327633,1000,12,0,1,318.826,19.180,48.282,410.057,0.789,0.960
1782115873.128341,0.914000,327634,1000,12,0,1,289.401,-9.081,46.375,410.297,1.366,0.978
1782115873.129341,0.915000,327635,1000,12,0,1,263.603,-32.259,43.795,408.856,-0.065,0.969
1782115873.130341,0.916000,327636,1000,12,0,1,263.723,-28.548,42.199,407.102,-1.578,0.992
1782115873.131341,0.917000,327637,1000,12,0,1,280.009,-6.893,42.210,409.817,0.544,0.995
1782115873.132341,0.918000,327638,1000,12,0,1,298.313,13.244,40.808,411.306,2.714,1.047
1782115873.133341,0.919000,327639,1000,12,0,1,334.656,43.335,38.025,413.228,3.488,1.148
1782115873.134341,0.920000,327640,1000,12,0,1,386.445,84.415,36.243,409.769,1.183,1.159
1782115873.135341,0.921000,327641,1000,12,0,1,406.262,94.681,36.685,408.423,-1.566,1.177
1782115873.136341,0.922000,327642,1000,12,0,1,389.471,63.998,36.983,407.367,-1.300,1.192
1782115873.137341,0.923000,327643,1000,12,0,1,379.935,39.491,37.033,406.502,-2.364,1.228
1782115873.138341,0.924000,327644,1000,12,0,1,370.375,23.666,36.706,406.478,-1.702,1.242
1782115873.139341,0.925000,327645,1000,12,0,1,354.329,1.529,35.755,409.456,0.875,1.207
1782115873.140341,0.926000,327646,1000,12,0,1,335.641,-18.047,35.394,408.039,0.637,1.204
1782115873.141341,0.927000,327647,1000,12,0,1,322.598,-31.164,35.586,408.279,-0.245,1.200
1782115873.142341,0.928000,327648,1000,12,0,1,319.739,-31.738,35.868,408.327,0.603,1.193
1782115873.143341,0.929000,327649,1000,12,0,1,318.538,-29.117,36.048,407.126,-0.770,1.188
1782115873.144341,0.930000,327650,1000,12,0,1,314.214,-29.875,35.906,407.439,-0.583,1.188
1782115873.145341,0.931000,327651,1000,12,0,1,314.286,-27.268,35.181,408.904,0.964,1.194
1782115873.146341,0.932000,327652,1000,12,0,1,320.964,-18.646,34.208,408.063,0.320,1.180
1782115873.147341,0.933000,327653,1000,12,0,1,318.178,-17.217,33.145,406.742,-0.988,1.176
1782115873.148341,0.934000,327654,1000,12,0,1,309.795,-23.972,32.246,406.454,-1.231,1.188
1782115873.149341,0.935000,327655,1000,12,0,1,295.286,-32.545,31.778,404.916,-1.919,1.216
1782115873.150341,0.936000,327656,1000,12,0,1,273.788,-47.044,31.744,402.659,-3.739,1.324
1782115873.151341,0.937000,327657,1000,12,0,1,251.088,-59.454,31.982,404.940,-1.463,1.340
1782115873.152341,0.938000,327658,1000,12,0,1,259.615,-45.975,32.151,406.550,1.104,1.349
1782115873.153341,0.939000,327659,1000,12,0,1,274.893,-19.245,32.014,405.613,0.308,1.343
1782115873.154341,0.940000,327660,1000,12,0,1,319.331,19.503,31.953,406.430,0.857,1.346
1782115873.155341,0.941000,327661,1000,12,0,1,355.458,58.026,32.918,406.358,1.332,1.358
1782115873.156341,0.942000,327662,1000,12,0,1,391.369,77.478,34.685,407.463,1.716,1.379
1782115873.157341,0.943000,327663,1000,12,0,1,433.933,105.147,37.727,407.775,2.449,1.421
1782115873.158341,0.944000,327664,1000,12,0,1,447.337,102.955,40.387,407.102,1.287,1.415
1782115873.159341,0.945000,327665,1000,12,0,1,426.079,66.036,41.379,407.295,1.316,1.426
1782115873.160341,0.946000,327666,1000,12,0,1,399.536,27.294,41.529,405.781,0.126,1.424
1782115873.161341,0.947000,327667,1000,12,0,1,382.241,2.412,41.523,404.460,-1.387,1.428
1782115873.162341,0.948000,327668,1000,12,0,1,377.677,-5.500,41.481,405.901,-0.006,1.424
1782115873.163341,0.949000,327669,1000,12,0,1,397.038,6.910,41.492,407.583,1.718,1.443
1782115873.164341,0.950000,327670,1000,12,0,1,412.219,21.081,41.578,406.814,1.098,1.420
1782115873.165341,0.951000,327671,1000,12,0,1,390.984,-0.982,41.547,406.646,0.379,1.408
1782115873.166341,0.952000,327672,1000,12,0,1,363.769,-30.424,41.769,407.246,1.015,1.416
1782115873.167341,0.953000,327673,1000,12,0,1,353.272,-39.294,42.135,407.030,0.685,1.419
1782115873.168341,0.954000,327674,1000,12,0,1,341.598,-44.369,42.590,404.844,-1.129,1.425
1782115873.169341,0.955000,327675,1000,12,0,1,327.954,-52.577,43.233,407.006,0.040,1.425
1782115873.170341,0.956000,327676,1000,12,0,1,330.476,-45.942,43.700,407.030,1.217,1.427
1782115873.171341,0.957000,327677,1000,12,0,1,341.934,-29.560,43.884,407.102,0.260,1.425
1782115873.172341,0.958000,327678,1000,12,0,1,334.848,-29.925,44.063,406.646,0.469,1.426
1782115873.173341,0.959000,327679,1000,12,0,1,312.821,-46.704,44.345,408.207,1.051,1.428
1782115873.174341,0.960000,327680,1000,12,0,1,301.243,-52.979,44.448,408.616,1.956,1.439
1782115873.175341,0.961000,327681,1000,12,0,1,293.989,-50.392,44.490,407.343,0.299,1.413
1782115873.176341,0.962000,327682,1000,12,0,1,302.300,-37.621,44.515,406.382,-0.708,1.394
1782115873.177341,0.963000,327683,1000,12,0,1,309.675,-20.776,44.529,407.679,0.290,1.390
1782115873.178341,0.964000,327684,1000,12,0,1,298.721,-24.262,44.643,407.967,0.808,1.381
1782115873.179341,0.965000,327685,1000,12,0,1,267.206,-43.899,44.841,409.288,1.444,1.396
1782115873.180341,0.966000,327686,1000,12,0,1,218.348,-75.883,45.930,407.583,0.343,1.379
1782115873.181341,0.967000,327687,1000,12,0,1,174.558,-99.633,48.033,406.766,-1.245,1.388
1782115873.182341,0.968000,327688,1000,12,0,1,152.195,-97.872,49.952,404.820,-2.220,1.371
1782115873.183341,0.969000,327689,1000,12,0,1,136.245,-86.223,51.052,407.078,-1.020,1.287
1782115873.184341,0.970000,327690,1000,12,0,1,134.155,-65.856,50.503,408.111,1.093,1.285
1782115873.185341,0.971000,327691,1000,12,0,1,135.188,-41.028,49.040,409.000,0.990,1.274
1782115873.186341,0.972000,327692,1000,12,0,1,109.630,-42.027,48.563,407.078,-0.120,1.260
1782115873.187341,0.973000,327693,1000,12,0,1,103.841,-35.239,48.498,407.751,-0.603,1.218
1782115873.188341,0.974000,327694,1000,12,0,1,131.489,6.530,48.391,407.679,0.168,1.195
1782115873.189341,0.975000,327695,1000,12,0,1,178.113,56.159,49.038,407.607,-0.471,1.190
1782115873.190341,0.976000,327696,1000,12,0,1,208.596,88.385,50.541,408.399,0.358,1.188
1782115873.191341,0.977000,327697,1000,12,0,1,228.341,97.406,52.199,408.015,0.173,1.187
1782115873.192341,0.978000,327698,1000,12,0,1,270.040,121.472,54.770,409.408,0.740,1.189
1782115873.193341,0.979000,327699,1000,12,0,1,317.169,149.508,58.565,408.111,0.426,1.185
1782115873.194341,0.980000,327700,1000,12,0,1,365.138,168.253,63.072,408.784,-0.263,1.183
1782115873.195341,0.981000,327701,1000,12,0,1,391.969,169.330,67.355,411.186,2.519,1.228
1782115873.196341,0.982000,327702,1000,12,0,1,397.566,144.081,70.320,408.327,-0.031,1.227
1782115873.197341,0.983000,327703,1000,12,0,1,399.368,119.143,72.270,411.042,0.892,1.226
1782115873.198341,0.984000,327704,1000,12,0,1,382.001,83.070,73.140,410.489,1.907,1.243
1782115873.199341,0.985000,327705,1000,12,0,1,366.940,48.905,73.322,411.618,0.884,1.219
1782115873.200341,0.986000,327706,1000,12,0,1,363.048,34.229,73.180,411.450,1.835,1.129
1782115873.201341,0.987000,327707,1000,12,0,1,356.803,20.111,72.751,411.690,0.563,1.113
1782115873.202341,0.988000,327708,1000,12,0,1,333.383,-4.790,72.463,410.705,0.253,1.102
1782115873.203341,0.989000,327709,1000,12,0,1,308.642,-31.287,72.547,408.712,-2.117,1.141
1782115873.204341,0.990000,327710,1000,12,0,1,293.196,-43.444,72.754,409.745,-1.410,1.152
1782115873.205341,0.991000,327711,1000,12,0,1,285.414,-47.255,72.598,410.874,0.163,1.137
1782115873.206341,0.992000,327712,1000,12,0,1,286.639,-42.906,72.022,413.204,1.466,1.130
1782115873.207341,0.993000,327713,1000,12,0,1,291.779,-35.203,70.646,413.540,2.246,1.122
1782115873.208341,0.994000,327714,1000,12,0,1,298.913,-28.802,69.249,410.922,-0.913,1.114
1782115873.209341,0.995000,327715,1000,12,0,1,301.820,-26.433,68.719,412.843,0.089,1.099
1782115873.210341,0.996000,327716,1000,12,0,1,273.692,-50.121,68.975,412.171,0.284,1.099
1782115873.211341,0.997000,327717,1000,12,0,1,245.683,-77.937,69.850,412.075,-0.925,1.090
1782115873.212341,0.998000,327718,1000,12,0,1,246.236,-73.187,70.608,412.003,-0.392,1.091
1782115873.213341,0.999000,327719,1000,12,0,1,263.146,-51.456,70.975,411.546,-1.247,1.078
1782115873.214341,1.000000,327720,1000,12,0,1,288.752,-24.622,70.998,411.858,-0.839,1.073
1782115873.215341,1.001000,327721,1000,12,0,1,324.039,7.805,71.006,414.140,0.929,1.080
1782115873.216341,1.002000,327722,1000,12,0,1,364.730,41.033,71.113,412.915,0.353,1.072
1782115873.217341,1.003000,327723,1000,12,0,1,393.579,61.371,71.425,413.684,-0.089,1.067
1782115873.218341,1.004000,327724,1000,12,0,1,391.921,52.071,71.529,414.741,1.349,1.072
1782115873.219341,1.005000,327725,1000,12,0,1,371.744,25.182,71.230,412.939,-0.529,1.075
1782115873.220341,1.006000,327726,1000,12,0,1,353.440,4.174,70.936,414.381,-0.070,1.061
1782115873.221341,1.007000,327727,1000,12,0,1,349.092,-0.481,70.813,415.510,1.545,1.083
1782115873.222341,1.008000,327728,1000,12,0,1,357.259,8.730,70.697,415.149,0.461,1.083
1782115873.223341,1.009000,327729,1000,12,0,1,343.400,2.002,70.388,414.837,0.133,1.073
1782115873.224341,1.010000,327730,1000,12,0,1,343.400,-2.126,69.989,1.153,-301.770,42.689
1782115873.225341,1.011000,327731,1000,12,0,1,343.400,4.445,69.628,1.153,-377.717,68.380
1782115873.226341,1.012000,327732,1000,12,0,1,286.663,-40.369,69.659,416.110,97.961,69.769
1782115873.227341,1.013000,327733,1000,12,0,1,295.382,-43.562,69.869,416.398,153.378,73.063
1782115873.228341,1.014000,327734,1000,12,0,1,298.361,-20.003,69.842,416.735,78.007,73.891
1782115873.229341,1.015000,327735,1000,12,0,1,299.850,-28.170,69.680,419.353,114.165,75.634
1782115873.230341,1.016000,327736,1000,12,0,1,313.494,-9.733,68.862,418.728,62.775,76.153
1782115873.231341,1.017000,327737,1000,12,0,1,301.003,-22.023,67.477,418.945,76.633,76.920
1782115873.232341,1.018000,327738,1000,12,0,1,268.887,-51.680,66.445,419.545,47.848,77.217
1782115873.233341,1.019000,327739,1000,12,0,1,237.252,-76.407,66.205,418.344,48.325,77.518
1782115873.234341,1.020000,327740,1000,12,0,1,195.432,-103.399,67.158,418.440,34.081,77.668
1782115873.235341,1.021000,327741,1000,12,0,1,178.209,-107.474,68.611,418.584,29.939,77.783
1782115873.236341,1.022000,327742,1000,12,0,1,202.302,-69.777,69.062,421.082,27.058,77.877
1782115873.237341,1.023000,327743,1000,12,0,1,201.533,-46.603,69.196,419.737,20.205,77.930
1782115873.238341,1.024000,327744,1000,12,0,1,188.154,-49.219,69.539,420.626,19.498,77.978
1782115873.239341,1.025000,327745,1000,12,0,1,177.513,-39.902,69.314,421.395,14.769,78.006
1782115873.240341,1.026000,327746,1000,12,0,1,163.677,-37.171,68.380,421.395,14.989,78.035
1782115873.241341,1.027000,327747,1000,12,0,1,139.248,-39.021,67.206,421.058,9.336,78.046
1782115873.242341,1.028000,327748,1000,12,0,1,105.763,-50.348,65.362,421.851,9.744,78.058
1782115873.243341,1.029000,327749,1000,12,0,1,107.156,-33.225,62.026,423.581,6.312,78.063
1782115873.244341,1.030000,327750,1000,12,0,1,110.351,-5.761,57.286,423.220,4.673,78.066
1782115873.245341,1.031000,327751,1000,12,0,1,125.772,16.946,52.096,422.692,-0.982,78.066
1782115873.246341,1.032000,327752,1000,12,0,1,140.689,44.336,48.354,422.043,-3.953,78.068
1782115873.247341,1.033000,327753,1000,12,0,1,173.501,70.854,46.418,423.316,-7.366,78.074
1782115873.248341,1.034000,327754,1000,12,0,1,224.089,114.011,47.713,423.941,-9.286,78.085
1782115873.249341,1.035000,327755,1000,12,0,1,269.824,141.824,51.293,422.908,-13.600,78.109
1782115873.250341,1.036000,327756,1000,12,0,1,309.723,155.988,55.626,425.046,-14.546,78.135
1782115873.251341,1.037000,327757,1000,12,0,1,331.822,151.756,59.554,425.166,-15.431,78.166
1782115873.252341,1.038000,327758,1000,12,0,1,344.601,132.562,62.432,424.854,-17.589,78.205
1782115873.253341,1.039000,327759,1000,12,0,1,301.556,76.497,63.208,424.109,-17.774,78.245
1782115873.254341,1.040000,327760,1000,12,0,1,275.325,22.107,62.986,423.941,-17.730,78.285
1782115873.255341,1.041000,327761,1000,12,0,1,262.762,7.939,62.640,425.118,-14.823,78.313
1782115873.256341,1.042000,327762,1000,12,0,1,267.350,-0.184,62.346,425.262,-12.559,78.333
1782115873.257341,1.043000,327763,1000,12,0,1,268.479,3.733,62.149,425.406,-10.117,78.345
1782115873.258341,1.044000,327764,1000,12,0,1,264.059,-4.477,62.019,423.845,-8.510,78.354
1782115873.259341,1.045000,327765,1000,12,0,1,276.214,5.124,61.910,424.541,-5.853,78.359
1782115873.260341,1.046000,327766,1000,12,0,1,282.555,13.894,61.534,425.718,-1.799,78.359
1782115873.261341,1.047000,327767,1000,12,0,1,289.978,15.664,60.580,428.265,1.674,78.359
1782115873.262341,1.048000,327768,1000,12,0,1,314.310,35.209,59.896,427.400,2.758,78.360
1782115873.263341,1.049000,327769,1000,12,0,1,363.673,69.022,60.249,427.064,1.790,78.361
1782115873.264341,1.050000,327770,1000,12,0,1,398.095,92.249,61.546,427.760,2.563,78.361
1782115873.265341,1.051000,327771,1000,12,0,1,397.686,72.752,62.391,429.994,3.093,78.362
1782115873.266341,1.052000,327772,1000,12,0,1,356.371,21.413,62.194,429.466,1.635,78.363
1782115873.267341,1.053000,327773,1000,12,0,1,308.522,-37.639,61.815,428.553,-1.737,78.363
1782115873.268341,1.054000,327774,1000,12,0,1,264.323,-79.023,62.384,429.466,-2.893,78.364
1782115873.269341,1.055000,327775,1000,12,0,1,222.864,-113.216,64.307,431.796,-2.834,78.365
1782115873.270341,1.056000,327776,1000,12,0,1,207.539,-119.557,66.490,431.243,-4.803,78.368
1782115873.271341,1.057000,327777,1000,12,0,1,217.747,-97.320,67.900,431.459,-6.611,78.373
1782115873.272341,1.058000,327778,1000,12,0,1,225.026,-77.784,68.774,432.660,-6.203,78.378
1782115873.273341,1.059000,327779,1000,12,0,1,231.944,-62.903,69.346,429.081,-9.011,78.388
1782115873.274341,1.060000,327780,1000,12,0,1,224.978,-58.127,69.831,429.826,-9.037,65.765
1782115873.275341,1.061000,327781,1000,12,0,1,203.695,-68.346,70.494,432.372,-4.409,38.368
1782115873.276341,1.062000,327782,1000,12,0,1,236.027,-36.953,70.457,432.564,-3.051,35.782
1782115873.277341,1.063000,327783,1000,12,0,1,326.897,51.402,70.562,434.582,0.202,28.458
1782115873.278341,1.064000,327784,1000,12,0,1,401.482,117.676,72.443,433.549,1.587,26.233
1782115873.279341,1.065000,327785,1000,12,0,1,411.210,115.209,74.146,432.204,1.306,20.677
1782115873.280341,1.066000,327786,1000,12,0,1,356.106,51.310,74.487,432.877,3.641,18.681
1782115873.281341,1.067000,327787,1000,12,0,1,316.689,-0.452,74.422,433.813,5.515,15.236
1782115873.282341,1.068000,327788,1000,12,0,1,304.054,-10.116,74.076,436.336,8.012,13.698
1782115873.283341,1.069000,327789,1000,12,0,1,297.400,-14.234,73.312,435.735,7.730,11.922
1782115873.284341,1.070000,327790,1000,12,0,1,279.456,-23.450,71.915,434.294,4.905,10.926
1782115873.285341,1.071000,327791,1000,12,0,1,260.648,-36.428,70.479,433.957,3.503,10.085
1782115873.286341,1.072000,327792,1000,12,0,1,264.468,-27.943,69.896,433.813,1.709,9.334
1782115873.287341,1.073000,327793,1000,12,0,1,272.418,-12.744,69.608,434.966,0.786,8.886
1782115873.288341,1.074000,327794,1000,12,0,1,274.965,-8.422,69.270,433.405,-1.996,8.452
1782115873.289341,1.075000,327795,1000,12,0,1,283.996,-0.141,69.039,436.191,-2.538,8.198
1782115873.290341,1.076000,327796,1000,12,0,1,287.624,2.858,68.840,435.639,-3.174,7.932
1782115873.291341,1.077000,327797,1000,12,0,1,279.889,-6.574,68.625,437.152,-4.827,7.851
1782115873.292341,1.078000,327798,1000,12,0,1,287.431,-5.627,68.259,437.440,-4.156,7.751
1782115873.293341,1.079000,327799,1000,12,0,1,314.575,15.478,68.133,435.831,-6.719,7.758
1782115873.294341,1.080000,327800,1000,12,0,1,323.222,20.724,68.191,437.440,-5.135,7.764
1782115873.295341,1.081000,327801,1000,12,0,1,319.019,8.545,68.159,437.344,-3.761,7.781
1782115873.296341,1.082000,327802,1000,12,0,1,339.124,18.089,67.918,438.786,-2.227,7.767
1782115873.297341,1.083000,327803,1000,12,0,1,356.275,31.518,67.323,437.440,-0.851,7.698
1782115873.298341,1.084000,327804,1000,12,0,1,347.795,18.360,65.415,438.281,0.069,7.585
1782115873.299341,1.085000,327805,1000,12,0,1,321.108,-8.412,62.276,439.434,3.658,7.356
1782115873.300341,1.086000,327806,1000,12,0,1,298.073,-29.445,58.386,438.185,3.312,7.078
1782115873.301341,1.087000,327807,1000,12,0,1,291.803,-29.949,54.464,438.882,4.616,6.764
1782115873.302341,1.088000,327808,1000,12,0,1,298.193,-16.770,51.191,441.140,7.093,6.370
1782115873.303341,1.089000,327809,1000,12,0,1,303.309,-4.731,50.039,440.923,6.826,5.932
1782115873.304341,1.090000,327810,1000,12,0,1,296.151,-5.060,49.946,439.314,4.376,5.412
1782115873.305341,1.091000,327811,1000,12,0,1,277.583,-17.069,49.992,440.203,3.576,5.015
1782115873.306341,1.092000,327812,1000,12,0,1,268.983,-21.534,50.085,442.004,3.932,4.722
1782115873.307341,1.093000,327813,1000,12,0,1,264.852,-18.656,50.151,441.452,1.557,4.506
1782115873.308341,1.094000,327814,1000,12,0,1,248.446,-27.751,50.301,441.284,-0.905,4.344
1782115873.309341,1.095000,327815,1000,12,0,1,240.183,-33.221,50.514,442.124,-2.011,4.274
1782115873.310341,1.096000,327816,1000,12,0,1,266.461,-8.323,50.490,443.590,-2.492,4.281
1782115873.311341,1.097000,327817,1000,12,0,1,266.461,-0.556,50.441,443.590,-3.702,4.306
1782115873.312341,1.098000,327818,1000,12,0,1,300.691,16.124,50.247,443.253,-5.233,4.352
1782115873.313341,1.099000,327819,1000,12,0,1,293.172,20.019,49.371,441.764,-6.640,4.445
1782115873.314341,1.100000,327820,1000,12,0,1,297.712,3.256,47.618,443.205,-5.683,4.502
1782115873.315341,1.101000,327821,1000,12,0,1,308.209,18.014,46.563,444.070,-3.451,4.508
1782115873.316341,1.102000,327822,1000,12,0,1,323.294,20.242,46.553,444.382,-2.584,4.517
1782115873.317341,1.103000,327823,1000,12,0,1,332.662,28.244,46.419,444.959,-0.653,4.511
1782115873.318341,1.104000,327824,1000,12,0,1,331.029,21.338,45.155,443.566,-0.367,4.492
1782115873.319341,1.105000,327825,1000,12,0,1,303.597,-3.056,42.223,444.406,1.151,4.478
1782115873.320341,1.106000,327826,1000,12,0,1,273.067,-29.522,38.915,441.140,0.706,4.427
1782115873.321341,1.107000,327827,1000,12,0,1,268.143,-29.782,36.643,442.677,1.471,4.332
1782115873.322341,1.108000,327828,1000,12,0,1,298.601,5.762,34.962,443.758,4.787,4.296
1782115873.323341,1.109000,327829,1000,12,0,1,323.703,35.110,34.174,444.406,4.330,4.148
1782115873.324341,1.110000,327830,1000,12,0,1,313.061,29.168,33.426,443.758,4.075,3.988
1782115873.325341,1.111000,327831,1000,12,0,1,294.710,8.124,32.019,444.575,3.072,3.963
1782115873.326341,1.112000,327832,1000,12,0,1,295.983,9.345,31.617,446.016,3.435,3.969
1782115873.327341,1.113000,327833,1000,12,0,1,302.036,14.529,30.838,446.304,1.951,3.979
1782115873.328341,1.114000,327834,1000,12,0,1,330.741,33.837,26.400,447.121,0.517,3.973
1782115873.329341,1.115000,327835,1000,12,0,1,356.371,52.748,22.071,445.848,-1.852,3.977
1782115873.330341,1.116000,327836,1000,12,0,1,338.067,28.134,21.221,445.175,-4.657,3.998
1782115873.331341,1.117000,327837,1000,12,0,1,338.067,9.842,21.266,445.175,-5.120,3.988
1782115873.332341,1.118000,327838,1000,12,0,1,194.303,-97.319,25.291,445.487,-5.744,3.909
1782115873.333341,1.119000,327839,1000,12,0,1,153.468,-166.004,34.449,447.265,-4.135,3.798
1782115873.334341,1.120000,327840,1000,12,0,1,183.542,-94.303,36.791,447.697,-3.327,3.764
1782115873.335341,1.121000,327841,1000,12,0,1,226.659,-53.963,37.219,448.730,-2.215,3.744
1782115873.336341,1.122000,327842,1000,12,0,1,235.234,-21.837,37.138,447.601,-1.827,3.745
1782115873.337341,1.123000,327843,1000,12,0,1,244.002,-17.158,37.173,448.442,-0.794,3.745
1782115873.338341,1.124000,327844,1000,12,0,1,232.976,-13.566,37.203,447.049,0.217,3.735
1782115873.339341,1.125000,327845,1000,12,0,1,221.182,-21.375,37.326,447.962,1.167,3.721
1782115873.340341,1.126000,327846,1000,12,0,1,236.652,-2.326,37.325,449.931,4.734,3.754
1782115873.341341,1.127000,327847,1000,12,0,1,242.345,16.513,37.387,449.499,4.810,3.754
1782115873.342341,1.128000,327848,1000,12,0,1,260.961,28.840,37.600,447.577,3.320,3.737
1782115873.343341,1.129000,327849,1000,12,0,1,290.554,63.235,38.587,447.793,3.147,3.642
1782115873.344341,1.130000,327850,1000,12,0,1,277.751,50.065,39.122,448.658,3.719,3.607
1782115873.345341,1.131000,327851,1000,12,0,1,227.212,5.201,39.110,450.652,4.379,3.621
1782115873.346341,1.132000,327852,1000,12,0,1,187.962,-32.312,39.293,450.940,3.578,3.643
1782115873.347341,1.133000,327853,1000,12,0,1,176.648,-33.202,39.320,449.619,0.598,3.642
1782115873.348341,1.134000,327854,1000,12,0,1,213.256,2.163,39.236,450.099,-0.929,3.644
1782115873.349341,1.135000,327855,1000,12,0,1,240.999,37.804,39.580,449.787,-2.210,3.621
1782115873.350341,1.136000,327856,1000,12,0,1,240.423,32.145,39.622,449.259,-4.338,3.642
1782115873.351341,1.137000,327857,1000,12,0,1,259.567,40.289,39.805,450.292,-4.209,3.632
1782115873.352341,1.138000,327858,1000,12,0,1,300.330,68.774,40.908,451.877,-3.425,3.524
1782115873.353341,1.139000,327859,1000,12,0,1,320.268,76.344,42.303,452.237,-3.199,3.420
1782115873.354341,1.140000,327860,1000,12,0,1,324.327,62.995,43.225,450.219,-4.825,3.432
1782115873.355341,1.141000,327861,1000,12,0,1,331.317,52.987,43.803,451.060,-4.045,3.442
1782115873.356341,1.142000,327862,1000,12,0,1,331.437,41.239,44.085,453.414,-0.591,3.398
1782115873.357341,1.143000,327863,1000,12,0,1,328.122,25.398,44.152,452.069,-0.527,3.392
1782115873.358341,1.144000,327864,1000,12,0,1,313.374,6.731,43.988,452.718,0.386,3.390
1782115873.359341,1.145000,327865,1000,12,0,1,289.954,-19.250,43.821,452.021,1.667,3.386
1782115873.360341,1.146000,327866,1000,12,0,1,269.128,-36.285,44.104,454.327,3.526,3.404
1782115873.361341,1.147000,327867,1000,12,0,1,247.293,-49.483,44.656,454.375,5.293,3.446
1782115873.362341,1.148000,327868,1000,12,0,1,221.783,-62.285,45.459,452.718,3.144,3.395
1782115873.363341,1.149000,327869,1000,12,0,1,198.074,-70.924,46.467,451.420,2.213,3.277
1782115873.364341,1.150000,327870,1000,12,0,1,190.484,-64.476,47.351,452.189,2.206,3.193
1782115873.365341,1.151000,327871,1000,12,0,1,217.940,-28.595,47.455,453.823,3.190,3.187
1782115873.366341,1.152000,327872,1000,12,0,1,256.541,16.447,47.425,454.279,2.594,3.187
1782115873.367341,1.153000,327873,1000,12,0,1,292.380,48.067,47.743,457.330,3.186,3.218
1782115873.368341,1.154000,327874,1000,12,0,1,310.539,59.891,48.395,456.080,1.508,3.224
1782115873.369341,1.155000,327875,1000,12,0,1,314.166,51.086,48.929,453.871,-3.193,3.252
1782115873.370341,1.156000,327876,1000,12,0,1,318.538,41.961,49.110,454.111,-3.787,3.294
1782115873.371341,1.157000,327877,1000,12,0,1,314.695,28.020,49.090,455.504,-3.620,3.327
1782115873.372341,1.158000,327878,1000,12,0,1,306.696,8.968,49.099,455.912,-3.488,3.295
1782115873.373341,1.159000,327879,1000,12,0,1,291.923,-10.269,48.869,454.519,-4.979,3.313
1782115873.374341,1.160000,327880,1000,12,0,1,274.484,-30.973,48.891,454.687,-4.905,3.335
1782115873.375341,1.161000,327881,1000,12,0,1,259.880,-43.183,49.258,456.417,-2.521,3.326
1782115873.376341,1.162000,327882,1000,12,0,1,235.282,-59.124,49.945,457.330,-0.887,3.293
1782115873.377341,1.163000,327883,1000,12,0,1,220.462,-66.395,50.779,456.993,-0.249,3.281
1782115873.378341,1.164000,327884,1000,12,0,1,247.125,-34.395,50.786,455.504,-0.629,3.282
1782115873.379341,1.165000,327885,1000,12,0,1,297.928,20.283,50.317,456.849,1.183,3.276
1782115873.380341,1.166000,327886,1000,12,0,1,295.310,27.916,50.315,457.714,3.353,3.244
1782115873.381341,1.167000,327887,1000,12,0,1,256.373,-9.956,50.315,456.801,2.877,3.188
1782115873.382341,1.168000,327888,1000,12,0,1,196.345,-54.528,49.007,454.855,1.575,3.091
1782115873.383341,1.169000,327889,1000,12,0,1,142.899,-93.399,45.000,455.816,2.051,3.049
1782115873.384341,1.170000,327890,1000,12,0,1,140.665,-80.023,44.443,458.483,4.455,3.077
1782115873.385341,1.171000,327891,1000,12,0,1,170.042,-33.789,44.043,459.179,4.386,3.124
1782115873.386341,1.172000,327892,1000,12,0,1,184.863,-5.964,43.943,459.660,3.223,3.146
1782115873.387341,1.173000,327893,1000,12,0,1,191.229,4.872,43.881,459.539,1.882,3.155
1782115873.388341,1.174000,327894,1000,12,0,1,258.054,57.332,44.582,458.074,-1.011,3.158
1782115873.389341,1.175000,327895,1000,12,0,1,342.271,130.593,48.162,456.969,-3.289,3.188
1782115873.390341,1.176000,327896,1000,12,0,1,338.956,115.645,50.862,456.945,-4.263,3.175
1782115873.391341,1.177000,327897,1000,12,0,1,302.612,55.254,51.405,458.411,-3.616,3.143
1782115873.392341,1.178000,327898,1000,12,0,1,279.384,20.185,51.323,459.107,-3.153,3.140
1782115873.393341,1.179000,327899,1000,12,0,1,250.055,-13.344,50.573,459.563,-3.133,3.139
1782115873.394341,1.180000,327900,1000,12,0,1,243.954,-25.327,50.203,459.395,-2.976,3.123
1782115873.395341,1.181000,327901,1000,12,0,1,251.016,-14.788,50.241,459.876,-2.388,3.080
1782115873.396341,1.182000,327902,1000,12,0,1,247.365,-15.371,50.080,459.708,-1.560,3.046
1782115873.397341,1.183000,327903,1000,12,0,1,234.129,-22.749,49.963,460.188,-0.613,3.046
1782115873.398341,1.184000,327904,1000,12,0,1,233.865,-19.740,50.040,461.485,1.552,3.051
1782115873.399341,1.185000,327905,1000,12,0,1,238.189,-7.347,49.764,460.356,1.601,3.044
1782115873.400341,1.186000,327906,1000,12,0,1,223.320,-12.715,49.589,460.524,1.848,2.993
1782115873.401341,1.187000,327907,1000,12,0,1,210.829,-19.740,49.340,459.443,2.107,2.948
1782115873.402341,1.188000,327908,1000,12,0,1,204.392,-16.405,48.427,460.837,2.766,2.934
1782115873.403341,1.189000,327909,1000,12,0,1,197.306,-16.035,47.263,460.332,3.327,2.937
1782115873.404341,1.190000,327910,1000,12,0,1,220.342,6.528,46.425,461.581,2.964,2.887
1782115873.405341,1.191000,327911,1000,12,0,1,290.170,67.131,46.789,462.686,3.997,2.886
1782115873.406341,1.192000,327912,1000,12,0,1,357.380,121.282,49.491,459.539,0.160,2.885
1782115873.407341,1.193000,327913,1000,12,0,1,357.812,107.315,51.641,459.107,-1.932,2.897
1782115873.408341,1.194000,327914,1000,12,0,1,325.888,53.363,52.181,463.071,0.868,2.899
1782115873.409341,1.195000,327915,1000,12,0,1,303.886,16.451,52.162,463.359,0.505,2.890
1782115873.410341,1.196000,327916,1000,12,0,1,293.364,-4.317,51.912,463.743,-1.015,2.850
1782115873.411341,1.197000,327917,1000,12,0,1,289.017,-14.942,51.482,463.839,-1.530,2.759
1782115873.412341,1.198000,327918,1000,12,0,1,275.301,-29.190,50.891,462.494,-3.526,2.768
1782115873.413341,1.199000,327919,1000,12,0,1,263.555,-42.149,50.247,463.911,-2.961,2.782
1782115873.414341,1.200000,327920,1000,12,0,1,262.834,-39.739,49.731,463.551,-2.453,2.786
1782115873.415341,1.201000,327921,1000,12,0,1,274.941,-25.908,49.702,463.911,-2.596,2.774
1782115873.416341,1.202000,327922,1000,12,0,1,312.653,8.910,49.664,464.199,-1.123,2.754
1782115873.417341,1.203000,327923,1000,12,0,1,360.935,51.989,49.742,464.031,-0.939,2.720
1782115873.418341,1.204000,327924,1000,12,0,1,365.787,54.843,49.626,465.088,0.848,2.714
1782115873.419341,1.205000,327925,1000,12,0,1,335.761,18.334,49.166,462.662,-0.005,2.676
1782115873.420341,1.206000,327926,1000,12,0,1,307.056,-12.243,48.837,465.016,1.555,2.631
1782115873.421341,1.207000,327927,1000,12,0,1,282.099,-32.867,48.897,464.272,3.058,2.617
1782115873.422341,1.208000,327928,1000,12,0,1,232.712,-67.912,49.815,463.551,1.255,2.576
1782115873.423341,1.209000,327929,1000,12,0,1,187.577,-100.764,51.793,464.512,2.851,2.511
1782115873.424341,1.210000,327930,1000,12,0,1,173.669,-97.787,53.428,464.704,2.465,2.438
1782115873.425341,1.211000,327931,1000,12,0,1,180.251,-74.648,54.118,465.497,2.458,2.437
1782115873.426341,1.212000,327932,1000,12,0,1,191.757,-49.863,53.931,465.929,2.117,2.452
1782115873.427341,1.213000,327933,1000,12,0,1,211.502,-23.538,53.212,464.464,-0.286,2.452
1782115873.428341,1.214000,327934,1000,12,0,1,222.816,-6.423,52.997,462.902,-2.681,2.480
1782115873.429341,1.215000,327935,1000,12,0,1,221.230,-6.518,52.927,466.217,-1.206,2.480
1782115873.430341,1.216000,327936,1000,12,0,1,222.407,-6.283,52.787,463.815,-2.534,2.460
1782115873.431341,1.217000,327937,1000,12,0,1,206.986,-15.999,52.817,463.863,-4.882,2.523
1782115873.432341,1.218000,327938,1000,12,0,1,162.932,-51.517,52.756,465.977,-2.032,2.529
1782115873.433341,1.219000,327939,1000,12,0,1,145.277,-63.934,51.870,466.409,-2.212,2.532
1782115873.434341,1.220000,327940,1000,12,0,1,146.406,-47.222,51.059,465.713,-2.504,2.478
1782115873.435341,1.221000,327941,1000,12,0,1,169.009,-18.307,50.901,466.529,-1.800,2.412
1782115873.436341,1.222000,327942,1000,12,0,1,185.944,11.276,50.919,465.665,-1.512,2.379
1782115873.437341,1.223000,327943,1000,12,0,1,164.758,1.376,50.915,466.217,-0.829,2.367
1782115873.438341,1.224000,327944,1000,12,0,1,153.564,-5.704,50.271,465.545,-0.026,2.362
1782115873.439341,1.225000,327945,1000,12,0,1,170.451,19.023,46.833,464.031,-0.778,2.319
1782115873.440341,1.226000,327946,1000,12,0,1,172.012,30.240,44.093,466.698,1.964,2.256
1782115873.441341,1.227000,327947,1000,12,0,1,172.901,32.507,43.638,468.307,4.700,2.296
1782115873.442341,1.228000,327948,1000,12,0,1,201.509,58.213,44.316,468.908,4.595,2.344
1782115873.443341,1.229000,327949,1000,12,0,1,254.475,101.719,46.554,466.241,2.705,2.333
1782115873.444341,1.230000,327950,1000,12,0,1,308.137,138.995,50.406,463.551,-0.812,2.298
1782115873.445341,1.231000,327951,1000,12,0,1,327.065,139.558,54.092,464.103,-0.382,2.273
1782115873.446341,1.232000,327952,1000,12,0,1,328.026,114.072,56.405,465.593,0.620,2.264
1782115873.447341,1.233000,327953,1000,12,0,1,316.328,82.978,57.523,466.073,0.524,2.264
1782115873.448341,1.234000,327954,1000,12,0,1,304.774,50.263,57.893,466.746,0.112,2.253
1782115873.449341,1.235000,327955,1000,12,0,1,307.344,36.063,58.108,465.713,-1.385,2.250
1782115873.450341,1.236000,327956,1000,12,0,1,308.065,24.365,58.182,465.136,-2.957,2.274
1782115873.451341,1.237000,327957,1000,12,0,1,294.878,1.774,58.116,466.145,-2.461,2.281
1782115873.452341,1.238000,327958,1000,12,0,1,281.835,-18.822,58.130,465.449,-2.996,2.287
1782115873.453341,1.239000,327959,1000,12,0,1,266.125,-35.358,58.301,466.025,-3.032,2.279
1782115873.454341,1.240000,327960,1000,12,0,1,256.084,-45.654,58.650,464.752,-3.142,2.283
1782115873.455341,1.241000,327961,1000,12,0,1,252.481,-45.109,58.227,465.617,-2.752,2.246
1782115873.456341,1.242000,327962,1000,12,0,1,242.345,-48.098,56.058,464.584,-1.851,2.262
1782115873.457341,1.243000,327963,1000,12,0,1,217.075,-62.791,54.690,465.713,-1.085,2.250
1782115873.458341,1.244000,327964,1000,12,0,1,187.241,-79.844,55.331,465.857,0.946,2.251
1782115873.459341,1.245000,327965,1000,12,0,1,163.244,-87.876,56.662,464.632,0.126,2.250
1782115873.460341,1.246000,327966,1000,12,0,1,139.968,-91.159,58.107,464.055,0.531,2.246
1782115873.461341,1.247000,327967,1000,12,0,1,106.508,-101.480,59.815,466.626,3.108,2.279
1782115873.462341,1.248000,327968,1000,12,0,1,101.800,-90.451,61.029,467.586,4.752,2.323
1782115873.463341,1.249000,327969,1000,12,0,1,130.312,-45.633,61.079,466.217,3.203,2.329
1782115873.464341,1.250000,327970,1000,12,0,1,157.552,-7.012,60.828,465.304,1.835,2.318
1782115873.465341,1.251000,327971,1000,12,0,1,175.183,14.381,60.751,465.256,1.510,2.299
1782115873.466341,1.252000,327972,1000,12,0,1,171.532,14.898,60.775,465.497,1.040,2.298
1782115873.467341,1.253000,327973,1000,12,0,1,168.265,8.426,60.340,465.713,0.717,2.296
1782115873.468341,1.254000,327974,1000,12,0,1,198.627,32.220,60.013,469.076,2.273,2.315
1782115873.469341,1.255000,327975,1000,12,0,1,266.341,85.841,61.173,467.346,0.980,2.320
1782115873.470341,1.256000,327976,1000,12,0,1,344.168,143.076,64.410,466.049,-2.429,2.335
1782115873.471341,1.257000,327977,1000,12,0,1,391.561,165.257,68.361,464.944,-2.994,2.333
1782115873.472341,1.258000,327978,1000,12,0,1,421.106,160.323,71.379,464.296,-4.345,2.406
1782115873.473341,1.259000,327979,1000,12,0,1,427.520,139.210,72.660,465.304,-3.035,2.410
1782115873.474341,1.260000,327980,1000,12,0,1,413.180,97.840,72.662,465.256,-2.528,2.412
1782115873.475341,1.261000,327981,1000,12,0,1,396.846,61.256,72.411,465.401,-2.200,2.407
1782115873.476341,1.262000,327982,1000,12,0,1,360.454,17.016,72.107,465.064,-1.474,2.397
1782115873.477341,1.263000,327983,1000,12,0,1,260.096,-72.463,72.755,464.944,-1.178,2.403
1782115873.478341,1.264000,327984,1000,12,0,1,242.393,-99.739,74.104,466.578,1.146,2.378
1782115873.479341,1.265000,327985,1000,12,0,1,228.028,-80.637,74.971,466.650,2.072,2.390
1782115873.480341,1.266000,327986,1000,12,0,1,206.266,-96.070,76.187,465.785,1.617,2.374
1782115873.481341,1.267000,327987,1000,12,0,1,191.108,-87.961,77.163,465.040,1.374,2.280
1782115873.482341,1.268000,327988,1000,12,0,1,202.831,-69.235,77.440,467.010,3.027,2.302
1782115873.483341,1.269000,327989,1000,12,0,1,230.430,-31.236,77.037,465.617,2.616,2.310
1782115873.484341,1.270000,327990,1000,12,0,1,236.195,-18.661,76.792,465.304,1.150,2.288
1782115873.485341,1.271000,327991,1000,12,0,1,236.267,-22.035,76.812,464.776,1.128,2.280
1782115873.486341,1.272000,327992,1000,12,0,1,240.231,-17.258,76.834,466.073,1.086,2.275
1782115873.487341,1.273000,327993,1000,12,0,1,232.568,-27.045,76.929,466.337,1.408,2.281
1782115873.488341,1.274000,327994,1000,12,0,1,213.135,-43.512,77.170,465.857,-0.192,2.281
1782115873.489341,1.275000,327995,1000,12,0,1,196.345,-59.026,77.574,465.857,-0.791,2.281
1782115873.490341,1.276000,327996,1000,12,0,1,187.938,-59.593,77.913,465.136,-1.857,2.279
1782115873.491341,1.277000,327997,1000,12,0,1,180.011,-58.550,78.217,465.881,-1.985,2.198
1782115873.492341,1.278000,327998,1000,12,0,1,162.188,-61.620,78.269,463.839,-3.137,2.146
1782115873.493341,1.279000,327999,1000,12,0,1,143.812,-65.570,77.492,465.232,-3.036,2.155
1782115873.494341,1.280000,328000,1000,12,0,1,146.670,-47.986,75.264,464.103,-2.220,2.175
1782115873.495341,1.281000,328001,1000,12,0,1,191.973,5.019,72.634,463.671,-3.359,2.225
1782115873.496341,1.282000,328002,1000,12,0,1,298.769,104.620,72.349,465.497,-0.400,2.224
1782115873.497341,1.283000,328003,1000,12,0,1,366.892,170.883,75.370,464.800,-0.234,2.223
1782115873.498341,1.284000,328004,1000,12,0,1,345.105,136.123,77.464,464.776,-0.016,2.223
1782115873.499341,1.285000,328005,1000,12,0,1,297.640,74.181,78.005,462.902,-0.293,2.215
1782115873.500341,1.286000,328006,1000,12,0,1,271.434,38.926,78.123,463.263,-0.181,2.175
1782115873.501341,1.287000,328007,1000,12,0,1,263.483,26.839,78.215,463.022,1.231,2.154
1782115873.502341,1.288000,328008,1000,12,0,1,265.020,24.521,78.246,464.031,1.672,2.126
1782115873.503341,1.289000,328009,1000,12,0,1,240.807,3.190,78.088,462.854,1.794,2.097
1782115873.504341,1.290000,328010,1000,12,0,1,204.488,-33.708,77.966,460.548,-0.847,2.053
1782115873.505341,1.291000,328011,1000,12,0,1,185.704,-49.968,78.025,463.359,1.337,2.025
1782115873.506341,1.292000,328012,1000,12,0,1,183.013,-48.214,78.027,466.457,4.350,2.100
1782115873.507341,1.293000,328013,1000,12,0,1,193.631,-35.949,77.686,463.359,1.151,2.101
1782115873.508341,1.294000,328014,1000,12,0,1,203.191,-23.626,76.934,463.575,-0.416,2.097
1782115873.509341,1.295000,328015,1000,12,0,1,203.191,-23.540,75.997,463.575,-0.038,2.097
1782115873.510341,1.296000,328016,1000,12,0,1,201.581,-25.029,74.979,461.773,-2.478,2.125
1782115873.511341,1.297000,328017,1000,12,0,1,192.718,-30.659,73.720,463.623,-1.417,2.089
1782115873.512341,1.298000,328018,1000,12,0,1,179.146,-39.771,72.819,463.431,-0.873,1.981
1782115873.513341,1.299000,328019,1000,12,0,1,168.361,-43.213,72.790,462.734,-2.221,1.954
1782115873.514341,1.300000,328020,1000,12,0,1,174.006,-31.228,72.917,461.605,-2.386,1.966
1782115873.515341,1.301000,328021,1000,12,0,1,188.370,-8.390,72.898,461.101,-2.808,1.994
1782115873.516341,1.302000,328022,1000,12,0,1,169.778,-12.568,72.889,461.533,-1.390,1.999
1782115873.517341,1.303000,328023,1000,12,0,1,110.375,-54.667,73.289,462.638,0.151,1.996
1782115873.518341,1.304000,328024,1000,12,0,1,68.003,-80.659,74.031,460.020,-0.814,1.974
1782115873.519341,1.305000,328025,1000,12,0,1,91.375,-43.045,73.282,461.701,0.220,1.969
1782115873.520341,1.306000,328026,1000,12,0,1,178.353,48.988,70.773,462.014,2.435,1.969
1782115873.521341,1.307000,328027,1000,12,0,1,267.518,135.156,69.484,460.428,0.746,1.926
1782115873.522341,1.308000,328028,1000,12,0,1,287.503,146.416,68.867,461.293,1.816,1.843
1782115873.523341,1.309000,328029,1000,12,0,1,259.015,99.714,67.483,462.374,3.127,1.846
1782115873.524341,1.310000,328030,1000,12,0,1,242.441,64.731,66.681,462.782,3.098,1.864
1782115873.525341,1.311000,328031,1000,12,0,1,249.118,56.375,66.594,462.686,2.747,1.878
1782115873.526341,1.312000,328032,1000,12,0,1,271.578,62.080,67.127,460.620,0.376,1.867
1782115873.527341,1.313000,328033,1000,12,0,1,290.242,65.118,66.977,461.053,-0.134,1.860
1782115873.528341,1.314000,328034,1000,12,0,1,284.477,45.066,65.784,461.029,-0.075,1.853
1782115873.529341,1.315000,328035,1000,12,0,1,273.643,18.604,64.842,459.756,-1.786,1.847
1782115873.530341,1.316000,328036,1000,12,0,1,275.469,8.459,63.413,460.140,-1.872,1.852
1782115873.531341,1.317000,328037,1000,12,0,1,273.836,0.224,62.181,460.861,-1.115,1.848
1782115873.532341,1.318000,328038,1000,12,0,1,262.402,-15.770,61.446,459.780,-2.067,1.821
1782115873.533341,1.319000,328039,1000,12,0,1,268.215,-16.157,61.330,458.026,-3.477,1.850
1782115873.534341,1.320000,328040,1000,12,0,1,272.346,-10.098,61.290,459.251,-2.318,1.872
1782115873.535341,1.321000,328041,1000,12,0,1,253.706,-25.781,61.319,459.371,-0.977,1.870
1782115873.536341,1.322000,328042,1000,12,0,1,237.396,-39.414,61.523,459.107,-1.108,1.870
1782115873.537341,1.323000,328043,1000,12,0,1,215.730,-49.692,61.805,457.282,-1.515,1.872
1782115873.538341,1.324000,328044,1000,12,0,1,194.087,-61.806,62.116,456.969,-1.591,1.885
1782115873.539341,1.325000,328045,1000,12,0,1,200.573,-47.034,61.911,457.978,0.532,1.883
1782115873.540341,1.326000,328046,1000,12,0,1,216.114,-21.362,61.409,457.161,0.631,1.867
1782115873.541341,1.327000,328047,1000,12,0,1,220.318,-11.062,60.868,454.663,-0.992,1.851
1782115873.542341,1.328000,328048,1000,12,0,1,209.148,-16.559,60.287,455.816,0.158,1.797
1782115873.543341,1.329000,328049,1000,12,0,1,208.235,-17.869,59.623,458.915,3.604,1.818
1782115873.544341,1.330000,328050,1000,12,0,1,220.894,-4.162,59.238,455.456,1.293,1.800
1782115873.545341,1.331000,328051,1000,12,0,1,246.188,15.596,59.275,455.168,-0.509,1.738
1782115873.546341,1.332000,328052,1000,12,0,1,266.726,31.047,57.567,456.345,1.544,1.751
1782115873.547341,1.333000,328053,1000,12,0,1,261.969,20.425,52.328,456.032,0.547,1.752
1782115873.548341,1.334000,328054,1000,12,0,1,259.255,7.210,48.669,455.384,-0.102,1.752
1782115873.549341,1.335000,328055,1000,12,0,1,251.713,-2.043,47.526,456.225,0.017,1.752
1782115873.550341,1.336000,328056,1000,12,0,1,235.643,-20.760,47.297,455.888,-0.120,1.752
1782115873.551341,1.337000,328057,1000,12,0,1,229.013,-26.907,47.298,454.903,-1.414,1.754
1782115873.552341,1.338000,328058,1000,12,0,1,232.544,-20.804,47.262,455.000,-1.373,1.749
1782115873.553341,1.339000,328059,1000,12,0,1,224.785,-21.207,47.355,455.960,-0.297,1.731
1782115873.554341,1.340000,328060,1000,12,0,1,206.530,-32.228,47.335,455.168,-0.592,1.729
1782115873.555341,1.341000,328061,1000,12,0,1,203.311,-29.114,46.985,455.048,-0.659,1.721
1782115873.556341,1.342000,328062,1000,12,0,1,207.659,-14.670,46.534,453.294,-1.263,1.617
1782115873.557341,1.343000,328063,1000,12,0,1,200.116,-12.414,46.289,453.847,-0.776,1.613
1782115873.558341,1.344000,328064,1000,12,0,1,208.764,-1.108,46.168,452.213,-0.577,1.614
1782115873.559341,1.345000,328065,1000,12,0,1,223.272,19.378,46.129,452.021,-0.873,1.619
1782115873.560341,1.346000,328066,1000,12,0,1,246.644,38.455,46.314,452.646,1.021,1.587
1782115873.561341,1.347000,328067,1000,12,0,1,270.977,58.593,46.849,453.054,1.660,1.592
1782115873.562341,1.348000,328068,1000,12,0,1,274.268,54.875,47.153,451.541,0.994,1.593
1782115873.563341,1.349000,328069,1000,12,0,1,239.342,17.251,46.819,449.955,-0.405,1.563
