Unix_Time_s,RelativeTime_s,P_1,P_2,P_3,P_4,P_5,P_6,P_7,P_8,P_9,P_10,P_11,P_12,P_13,P_14,P_15,P_16,P_17,P_18,P_19,P_20,P_21,P_22,P_23,P_24,P_25,P_26,P_27,P_28,P_29,P_30,P_31,P_32,P_33,P_34,P_35,P_36,P_37,P_38,P_39,P_40,P_41,P_42,P_43,P_44,P_45,P_46,P_47,P_48,P_49,P_50,P_51,P_52,P_53,P_54,P_55,P_56,P_57,P_58,P_59,P_60,P_61,P_62,P_63,P_64,P_65,P_66,P_67,P_68,P_69,P_70,P_71,P_72,P_73,P_74,P_75,P_76,P_77,P_78,P_79,P_80,P_81,P_82,P_83,P_84,P_85,P_86,P_87,P_88,P_89,P_90,P_91,P_92,P_93,P_94,P_95,P_96,P_97,P_98,P_99,P_100,P_101,P_102,P_103,P_104,P_105,P_106,P_107,P_108,P_109,P_110,P_111,P_112,P_113,P_114,P_115,P_116,P_117,P_118,P_119,P_120,P_121,P_122,P_123,P_124,P_125,P_126,P_127,P_128,P_129,P_130,P_131,P_132,P_133,P_134,P_135,P_136,P_137,P_138,P_139,P_140,P_141,P_142,P_143,P_144,P_145,P_146,P_147,P_148,P_149,P_150,P_151,P_152,P_153,P_154,P_155,P_156,P_157,P_158,P_159,P_160,P_161,P_162,P_163,P_164,P_165,P_166,P_167,P_168,P_169,P_170,P_171,P_172,P_173,P_174,P_175,P_176,P_177,P_178,P_179,P_180,P_181,P_182,P_183,P_184,P_185,P_186,P_187,P_188,P_189,P_190,P_191,P_192,P_193,P_194,P_195,P_196,P_197,P_198,P_199,P_200,P_201,P_202,P_203,P_204,P_205,P_206,P_207,P_208,P_209,P_210,P_211,P_212,P_213,P_214,P_215,P_216,P_217,P_218,P_219,P_220,P_221,P_222,P_223,P_224,P_225,P_226,P_227,P_228,P_229,P_230,P_231,P_232,P_233,Flex1,Flex2,Bat,IMU1_RefTime,IMU1_Ax,IMU1_Ay,IMU1_Az,IMU1_Wx,IMU1_Wy,IMU1_Wz,IMU1_Roll,IMU1_Pitch,IMU1_Yaw,IMU1_Hx,IMU1_Hy,IMU1_Hz,IMU1_Q0,IMU1_Q1,IMU1_Q2,IMU1_Q3,IMU2_RefTime,IMU2_Ax,IMU2_Ay,IMU2_Az,IMU2_Wx,IMU2_Wy,IMU2_Wz,IMU2_Roll,IMU2_Pitch,IMU2_Yaw,IMU2_Hx,IMU2_Hy,IMU2_Hz,IMU2_Q0,IMU2_Q1,IMU2_Q2,IMU2_Q3,IMU1_FusedRoll,IMU1_FusedPitch,IMU1_FusedYaw,IMU1_FusedQ0,IMU1_FusedQ1,IMU1_FusedQ2,IMU1_FusedQ3,IMU1_MagValid,IMU2_FusedRoll,IMU2_FusedPitch,IMU2_FusedYaw,IMU2_FusedQ0,IMU2_FusedQ1,IMU2_FusedQ2,IMU2_FusedQ3,IMU2_MagValid
1782115872.227410,0.013,1019.0,1020.0,1019.0,1019.0,1020.0,1019.0,1019.0,1021.0,1020.0,1020.0,1020.0,1020.0,1020.0,1021.0,1020.0,1019.0,1020.0,1020.0,1020.0,1019.0,1020.0,1019.0,1019.0,1019.0,1019.0,1019.0,1020.0,1019.0,1021.0,1019.0,1019.0,1020.0,1020.0,1020.0,1020.0,1020.0,1019.0,1021.0,1020.0,1019.0,1020.0,1020.0,1019.0,1019.0,1020.0,1019.0,1021.0,1019.0,1019.0,1019.0,1020.0,1018.0,1020.0,1020.0,1020.0,1019.0,1021.0,1019.0,1020.0,1019.0,1020.0,1019.0,1020.0,1020.0,1020.0,1020.0,1021.0,1020.0,1020.0,1020.0,1021.0,1020.0,1019.0,1020.0,1020.0,1019.0,1021.0,1020.0,1020.0,1020.0,1020.0,1019.0,1019.0,1020.0,1020.0,1020.0,1021.0,1019.0,1020.0,1019.0,1019.0,1019.0,1020.0,1020.0,1020.0,1019.0,1021.0,1019.0,1020.0,1019.0,1020.0,1019.0,1020.0,1020.0,1020.0,1020.0,1021.0,1020.0,1019.0,1020.0,1020.0,1020.0,1020.0,1020.0,1020.0,1020.0,1021.0,1021.0,1021.0,1020.0,1022.0,1019.0,1020.0,1020.0,1020.0,1022.0,1021.0,1020.0,1020.0,1020.0,1020.0,1020.0,1019.0,1021.0,1019.0,1019.0,1019.0,1020.0,1021.0,1020.0,1022.0,1020.0,1020.0,1020.0,1019.0,1020.0,1020.0,1021.0,1020.0,1020.0,1019.0,1020.0,1020.0,1020.0,1021.0,1020.0,1020.0,1020.0,1020.0,1019.0,1021.0,1019.0,1020.0,1020.0,1020.0,1020.0,1021.0,1020.0,1020.0,1020.0,1020.0,1020.0,1021.0,1019.0,1020.0,1020.0,1020.0,1020.0,1021.0,1019.0,1020.0,1020.0,1021.0,1020.0,1021.0,1020.0,1019.0,1020.0,1020.0,1019.0,1021.0,1020.0,1020.0,1020.0,1020.0,1019.0,1022.0,1021.0,1020.0,1019.0,1020.0,1020.0,1022.0,1021.0,1020.0,1019.0,1021.0,1020.0,1022.0,1022.0,1019.0,1019.0,1021.0,1020.0,1023.0,1022.0,1020.0,1020.0,1021.0,1019.0,1023.0,1021.0,1020.0,1020.0,1022.0,1021.0,1024.0,1057.0,1020.0,1020.0,1021.0,1020.0,1024.0,2337,2180,1897,	00:06:03.091,-0.00927734375,0.05810546875,1.017578125,0.48828125,-0.3662109375,-0.06103515625,3.2080078125,0.560302734375,33.2940673828125,774.0,-266.0,-4274.0,0.957733154296875,0.025390625,0.012725830078125,0.286224365234375,3.2063071668126932,0.5622878408014129,34.947643411265794,0.9535106238130212,0.02521252388659521,0.013079054589825508,0.3000179282076447,1,	00:06:03.092,0.06396484375,0.03759765625,1.01953125,-1.220703125,-6.103515625,0.6103515625,2.098388671875,-3.6419677734375,138.7078857421875,383.0,603.0,-1918.0,0.351806640625,0.03619384765625,0.00592041015625,0.93536376953125,2.0981978613989303,-3.6416229356810086,140.0448157833874,0.34087611745314456,0.036109083642386824,0.0063450022969791815,0.9393930740507025,1
1782115872.239626,0.025,1019.0,1020.0,1019.0,1020.0,1019.0,1020.0,1019.0,1021.0,1020.0,1019.0,1019.0,1020.0,1019.0,1021.0,1020.0,1020.0,1019.0,1020.0,1020.0,1020.0,1021.0,1020.0,1019.0,1019.0,1020.0,1019.0,1019.0,1020.0,1021.0,1020.0,1020.0,1019.0,1020.0,1019.0,1020.0,1020.0,1020.0,1020.0,1020.0,1020.0,1020.0,1020.0,1019.0,1020.0,1020.0,1020.0,1021.0,1019.0,1020.0,1019.0,1020.0,1019.0,1020.0,1019.0,1020.0,1020.0,1020.0,1019.0,1020.0,1019.0,1020.0,1020.0,1019.0,1019.0,1020.0,1020.0,1021.0,1020.0,1019.0,1020.0,1020.0,1020.0,1020.0,1020.0,1020.0,1020.0,1021.0,1020.0,1020.0,1020.0,1020.0,1019.0,1019.0,1020.0,1020.0,1019.0,1021.0,1020.0,1019.0,1020.0,1020.0,1019.0,1019.0,1020.0,1021.0,1020.0,1021.0,1020.0,1019.0,1020.0,1020.0,1019.0,1019.0,1019.0,1020.0,1020.0,1021.0,1020.0,1020.0,1019.0,1020.0,1020.0,1019.0,1019.0,1020.0,1020.0,1022.0,1021.0,1020.0,1020.0,1021.0,1020.0,1020.0,1021.0,1020.0,1021.0,1020.0,1019.0,1020.0,1019.0,1020.0,1021.0,1020.0,1021.0,1020.0,1020.0,1019.0,1020.0,1021.0,1020.0,1021.0,1020.0,1020.0,1019.0,1020.0,1020.0,1020.0,1022.0,1020.0,1019.0,1019.0,1019.0,1020.0,1020.0,1021.0,1020.0,1020.0,1019.0,1020.0,1020.0,1020.0,1019.0,1020.0,1020.0,1021.0,1020.0,1021.0,1020.0,1019.0,1019.0,1020.0,1020.0,1021.0,1020.0,1019.0,1019.0,1020.0,1020.0,1020.0,1019.0,1020.0,1019.0,1020.0,1019.0,1022.0,1021.0,1020.0,1020.0,1021.0,1020.0,1021.0,1020.0,1020.0,1021.0,1020.0,1020.0,1021.0,1021.0,1020.0,1019.0,1021.0,1020.0,1022.0,1021.0,1019.0,1020.0,1021.0,1020.0,1022.0,1022.0,1020.0,1020.0,1021.0,1020.0,1023.0,1022.0,1020.0,1020.0,1021.0,1020.0,1022.0,1021.0,1020.0,1020.0,1022.0,1020.0,1023.0,1058.0,1019.0,1019.0,1021.0,1020.0,1023.0,2340,2181,1897,	00:06:03.101,-0.00830078125,0.0576171875,1.017578125,0.48828125,-0.30517578125,0.0,3.240966796875,0.472412109375,33.2940673828125,779.0,-271.0,-4276.0,0.957733154296875,0.025909423828125,0.012054443359375,0.286224365234375,3.2422296538359183,0.47298796881001215,34.94774935089772,0.953499132611345,0.025745416249991188,0.012430135691645052,0.300036780042405,1,	00:06:03.103,0.0654296875,0.037109375,1.0185546875,-1.220703125,-5.7373046875,0.67138671875,2.054443359375,-3.7847900390625,138.7188720703125,381.0,599.0,-1921.0,0.351715087890625,0.037200927734375,0.005126953125,0.93536376953125,2.0538891801889116,-3.78509372593612,140.05150945899626,0.3408002471678946,0.037152576322107056,0.005555794997306334,0.9393849108565029,1
1782115872.248742,0.034,1018.0,1020.0,1019.0,1019.0,1020.0,1020.0,1020.0,1020.0,1021.0,1020.0,1019.0,1020.0,1020.0,1021.0,1020.0,1019.0,1019.0,1019.0,1020.0,1019.0,1020.0,1020.0,1019.0,1020.0,1020.0,1020.0,1020.0,1020.0,1021.0,1020.0,1020.0,1019.0,1021.0,1020.0,1020.0,1020.0,1019.0,1021.0,1019.0,1020.0,1020.0,1020.0,1020.0,1020.0,1020.0,1020.0,1021.0,1019.0,1019.0,1020.0,1020.0,1019.0,1020.0,1019.0,1020.0,1020.0,1021.0,1019.0,1019.0,1019.0,1020.0,1019.0,1019.0,1020.0,1020.0,1019.0,1022.0,1019.0,1020.0,1021.0,1021.0,1021.0,1020.0,1019.0,1020.0,1020.0,1022.0,1019.0,1019.0,1020.0,1020.0,1020.0,1020.0,1020.0,1020.0,1020.0,1021.0,1019.0,1019.0,1019.0,1020.0,1019.0,1020.0,1020.0,1020.0,1020.0,1021.0,1019.0,1020.0,1020.0,1020.0,1019.0,1019.0,1019.0,1020.0,1020.0,1021.0,1019.0,1019.0,1020.0,1020.0,1020.0,1020.0,1020.0,1020.0,1020.0,1022.0,1021.0,1020.0,1021.0,1022.0,1019.0,1020.0,1020.0,1020.0,1022.0,1021.0,1020.0,1020.0,1020.0,1020.0,1021.0,1020.0,1021.0,1019.0,1019.0,1020.0,1020.0,1020.0,1020.0,1022.0,1021.0,1020.0,1020.0,1020.0,1020.0,1020.0,1022.0,1020.0,1020.0,1019.0,1019.0,1020.0,1020.0,1021.0,1020.0,1020.0,1020.0,1020.0,1019.0,1021.0,1019.0,1020.0,1020.0,1020.0,1020.0,1022.0,1020.0,1020.0,1020.0,1020.0,1020.0,1021.0,1020.0,1020.0,1019.0,1020.0,1020.0,1021.0,1019.0,1020.0,1020.0,1020.0,1020.0,1021.0,1020.0,1020.0,1019.0,1020.0,1019.0,1022.0,1019.0,1020.0,1020.0,1021.0,1020.0,1022.0,1021.0,1020.0,1019.0,1021.0,1019.0,1022.0,1021.0,1020.0,1019.0,1021.0,1021.0,1022.0,1022.0,1020.0,1020.0,1021.0,1020.0,1023.0,1022.0,1020.0,1019.0,1021.0,1020.0,1023.0,1021.0,1020.0,1020.0,1022.0,1021.0,1024.0,1057.0,1020.0,1019.0,1022.0,1021.0,1023.0,2342,2181,1898,	00:06:03.112,-0.0078125,0.0576171875,1.01806640625,0.42724609375,-0.244140625,0.06103515625,3.240966796875,0.3790283203125,33.2940673828125,772.0,-267.0,-4275.0,0.957733154296875,0.026123046875,0.011260986328125,0.2862548828125,3.2383303108328207,0.37921506470222144,34.948156366232105,0.9534949006694653,0.025958629813458863,0.011639800471404055,0.3000635582347852,1,	00:06:03.113,0.0673828125,0.03759765625,1.017578125,-1.0986328125,-5.2490234375,0.6103515625,2.1368408203125,-3.8397216796875,138.71337890625,380.0,603.0,-1918.0,0.3516845703125,0.03790283203125,0.005615234375,0.935333251953125,2.1344276240686413,-3.839036939860127,140.0496387527901,0.34077580289943826,0.03783419604749106,0.006054442228181181,0.9393634916777364,1
1782115872.260454,0.046,1019.0,1019.0,1019.0,1019.0,1020.0,1020.0,1019.0,1020.0,1020.0,1020.0,1019.0,1020.0,1020.0,1021.0,1020.0,1020.0,1020.0,1019.0,1020.0,1019.0,1021.0,1020.0,1019.0,1019.0,1019.0,1020.0,1020.0,1019.0,1021.0,1019.0,1020.0,1019.0,1019.0,1019.0,1020.0,1019.0,1020.0,1021.0,1020.0,1020.0,1020.0,1020.0,1020.0,1020.0,1020.0,1020.0,1021.0,1020.0,1020.0,1019.0,1020.0,1019.0,1019.0,1020.0,1020.0,1019.0,1021.0,1019.0,1020.0,1019.0,1020.0,1019.0,1019.0,1020.0,1020.0,1019.0,1021.0,1020.0,1020.0,1020.0,1020.0,1021.0,1019.0,1019.0,1020.0,1019.0,1021.0,1020.0,1020.0,1019.0,1020.0,1019.0,1020.0,1019.0,1020.0,1020.0,1021.0,1019.0,1019.0,1020.0,1021.0,1019.0,1020.0,1020.0,1020.0,1020.0,1022.0,1019.0,1020.0,1019.0,1020.0,1019.0,1019.0,1020.0,1020.0,1019.0,1021.0,1019.0,1020.0,1019.0,1020.0,1020.0,1020.0,1020.0,1020.0,1020.0,1022.0,1021.0,1020.0,1020.0,1021.0,1020.0,1019.0,1020.0,1020.0,1022.0,1021.0,1020.0,1019.0,1020.0,1020.0,1020.0,1020.0,1021.0,1020.0,1019.0,1019.0,1020.0,1020.0,1020.0,1021.0,1021.0,1020.0,1020.0,1020.0,1021.0,1020.0,1021.0,1020.0,1020.0,1020.0,1019.0,1020.0,1020.0,1021.0,1020.0,1019.0,1020.0,1019.0,1019.0,1021.0,1019.0,1020.0,1019.0,1020.0,1020.0,1021.0,1020.0,1020.0,1020.0,1020.0,1020.0,1021.0,1020.0,1020.0,1020.0,1020.0,1019.0,1021.0,1019.0,1020.0,1019.0,1020.0,1020.0,1021.0,1021.0,1019.0,1020.0,1020.0,1019.0,1021.0,1020.0,1020.0,1019.0,1020.0,1020.0,1022.0,1021.0,1019.0,1019.0,1020.0,1020.0,1022.0,1022.0,1020.0,1020.0,1020.0,1020.0,1023.0,1023.0,1020.0,1020.0,1021.0,1020.0,1023.0,1023.0,1019.0,1020.0,1021.0,1019.0,1023.0,1021.0,1020.0,1020.0,1022.0,1021.0,1024.0,1059.0,1020.0,1020.0,1021.0,1020.0,1024.0,2345,2182,1898,	00:06:03.122,-0.01025390625,0.0576171875,1.0185546875,0.42724609375,-0.244140625,0.06103515625,3.240966796875,0.4669189453125,33.2940673828125,779.0,-276.0,-4277.0,0.957733154296875,0.02593994140625,0.01202392578125,0.2862548828125,3.242281646136402,0.4684133792359841,34.94862876720572,0.9534966355380902,0.02575774035515932,0.012392407816320346,0.3000452183552555,1,	00:06:03.123,0.0673828125,0.037109375,1.0166015625,-1.03759765625,-4.69970703125,0.79345703125,2.0654296875,-3.8177490234375,138.724365234375,380.0,601.0,-1921.0,0.351654052734375,0.037506103515625,0.005096435546875,0.93536376953125,2.0628701499109217,-3.8178687308738697,140.05988705275936,0.3407205808770148,0.03744744267380514,0.005534362543410773,0.9394022278211075,1
1782115872.268256,0.054,1019.0,1019.0,1018.0,1019.0,1020.0,1020.0,1019.0,1021.0,1020.0,1019.0,1019.0,1019.0,1019.0,1021.0,1020.0,1019.0,1019.0,1020.0,1020.0,1019.0,1021.0,1020.0,1019.0,1020.0,1019.0,1019.0,1020.0,1019.0,1021.0,1019.0,1019.0,1019.0,1019.0,1020.0,1019.0,1020.0,1019.0,1021.0,1019.0,1020.0,1020.0,1020.0,1020.0,1020.0,1020.0,1020.0,1021.0,1019.0,1019.0,1019.0,1020.0,1020.0,1019.0,1020.0,1020.0,1020.0,1021.0,1019.0,1019.0,1020.0,1020.0,1020.0,1020.0,1019.0,1020.0,1020.0,1021.0,1020.0,1020.0,1020.0,1021.0,1020.0,1020.0,1019.0,1020.0,1019.0,1021.0,1020.0,1020.0,1020.0,1020.0,1020.0,1020.0,1020.0,1020.0,1020.0,1021.0,1019.0,1019.0,1020.0,1020.0,1019.0,1020.0,1019.0,1019.0,1020.0,1021.0,1020.0,1020.0,1020.0,1020.0,1019.0,1019.0,1020.0,1020.0,1020.0,1021.0,1019.0,1020.0,1020.0,1020.0,1020.0,1019.0,1020.0,1020.0,1020.0,1022.0,1020.0,1020.0,1021.0,1021.0,1020.0,1020.0,1020.0,1020.0,1022.0,1021.0,1019.0,1020.0,1019.0,1020.0,1020.0,1019.0,1021.0,1019.0,1019.0,1020.0,1020.0,1020.0,1020.0,1021.0,1020.0,1020.0,1020.0,1020.0,1021.0,1020.0,1021.0,1020.0,1020.0,1020.0,1019.0,1020.0,1019.0,1021.0,1019.0,1020.0,1019.0,1020.0,1020.0,1021.0,1019.0,1020.0,1020.0,1020.0,1020.0,1022.0,1019.0,1020.0,1020.0,1020.0,1020.0,1021.0,1019.0,1020.0,1019.0,1020.0,1019.0,1021.0,1019.0,1019.0,1020.0,1021.0,1020.0,1022.0,1019.0,1020.0,1020.0,1020.0,1020.0,1021.0,1020.0,1020.0,1020.0,1020.0,1020.0,1022.0,1020.0,1020.0,1020.0,1021.0,1020.0,1022.0,1021.0,1020.0,1020.0,1021.0,1020.0,1023.0,1022.0,1020.0,1020.0,1021.0,1020.0,1023.0,1022.0,1020.0,1020.0,1021.0,1020.0,1022.0,1022.0,1020.0,1020.0,1021.0,1021.0,1025.0,1058.0,1020.0,1020.0,1020.0,1021.0,1024.0,2347,2182,1897,	00:06:03.132,-0.00830078125,0.05810546875,1.01904296875,0.42724609375,-0.244140625,0.1220703125,3.33984375,0.4559326171875,33.2940673828125,772.0,-266.0,-4276.0,0.95770263671875,0.026763916015625,0.01214599609375,0.2862548828125,3.3374792382557565,0.4553048190285276,34.950441799873715,0.9534696001932663,0.026584003777866606,0.012533024903616566,0.3000532211745049,1,	00:06:03.133,0.06787109375,0.0361328125,1.01513671875,-0.79345703125,-4.21142578125,0.732421875,1.966552734375,-3.878173828125,138.7353515625,377.0,604.0,-1921.0,0.3515625,0.037689208984375,0.004119873046875,0.935394287109375,1.9644030493208908,-3.877863626405108,140.07175734703165,0.34064088916173196,0.03764580159210963,0.004552078546761836,0.9394284735063635,1
1782115872.277793,0.063,1019.0,1019.0,1019.0,1019.0,1020.0,1019.0,1020.0,1020.0,1020.0,1019.0,1020.0,1020.0,1019.0,1021.0,1019.0,1020.0,1020.0,1019.0,1020.0,1020.0,1021.0,1019.0,1020.0,1019.0,1020.0,1020.0,1020.0,1020.0,1021.0,1019.0,1019.0,1020.0,1020.0,1020.0,1019.0,1020.0,1020.0,1022.0,1019.0,1020.0,1020.0,1020.0,1020.0,1020.0,1020.0,1020.0,1021.0,1019.0,1020.0,1019.0,1020.0,1019.0,1019.0,1020.0,1020.0,1020.0,1021.0,1019.0,1020.0,1020.0,1020.0,1019.0,1019.0,1020.0,1020.0,1019.0,1021.0,1020.0,1021.0,1020.0,1020.0,1020.0,1020.0,1020.0,1019.0,1020.0,1021.0,1020.0,1020.0,1020.0,1020.0,1020.0,1019.0,1020.0,1020.0,1019.0,1021.0,1019.0,1021.0,1019.0,1020.0,1019.0,1020.0,1020.0,1020.0,1019.0,1021.0,1019.0,1021.0,1020.0,1020.0,1019.0,1020.0,1019.0,1019.0,1020.0,1021.0,1020.0,1020.0,1020.0,1020.0,1020.0,1020.0,1020.0,1020.0,1019.0,1022.0,1020.0,1021.0,1021.0,1022.0,1019.0,1020.0,1020.0,1019.0,1022.0,1020.0,1020.0,1020.0,1019.0,1019.0,1020.0,1019.0,1021.0,1020.0,1021.0,1020.0,1020.0,1020.0,1019.0,1021.0,1020.0,1021.0,1020.0,1019.0,1020.0,1020.0,1022.0,1020.0,1020.0,1019.0,1020.0,1019.0,1019.0,1022.0,1020.0,1020.0,1020.0,1020.0,1019.0,1021.0,1019.0,1020.0,1020.0,1020.0,1020.0,1022.0,1020.0,1019.0,1020.0,1020.0,1020.0,1022.0,1019.0,1020.0,1020.0,1020.0,1020.0,1021.0,1019.0,1020.0,1020.0,1020.0,1020.0,1022.0,1019.0,1019.0,1019.0,1020.0,1020.0,1021.0,1019.0,1020.0,1019.0,1020.0,1020.0,1022.0,1020.0,1020.0,1019.0,1020.0,1020.0,1022.0,1021.0,1020.0,1020.0,1021.0,1021.0,1023.0,1023.0,1020.0,1020.0,1020.0,1019.0,1023.0,1023.0,1020.0,1020.0,1021.0,1020.0,1024.0,1023.0,1020.0,1020.0,1021.0,1020.0,1025.0,1060.0,1020.0,1020.0,1021.0,1020.0,1024.0,2349,2183,1897,	00:06:03.142,-0.009765625,0.05810546875,1.01806640625,0.42724609375,-0.244140625,0.18310546875,3.284912109375,0.52734375,33.2940673828125,776.0,-270.0,-4272.0,0.95770263671875,0.026153564453125,0.012603759765625,0.2862548828125,3.2863515293021353,0.5257465606302093,34.95165593755017,0.9534809715916016,0.02597386003589567,0.01298550286455606,0.3000512824883865,1,	00:06:03.144,0.06787109375,0.03662109375,1.01611328125,-0.732421875,-3.90625,0.8544921875,2.0379638671875,-3.8726806640625,138.7408447265625,377.0,600.0,-1922.0,0.351531982421875,0.037841796875,0.004730224609375,0.935394287109375,2.0356308560032463,-3.870453018148085,140.07363391523927,0.34060386458187447,0.037796719397127816,0.005158727124190412,0.939432702735627,1
1782115872.288534,0.074,1019.0,1019.0,1019.0,1019.0,1020.0,1020.0,1020.0,1020.0,1020.0,1019.0,1020.0,1020.0,1019.0,1021.0,1019.0,1020.0,1019.0,1020.0,1019.0,1021.0,1021.0,1019.0,1020.0,1020.0,1020.0,1020.0,1020.0,1020.0,1021.0,1019.0,1020.0,1020.0,1020.0,1020.0,1019.0,1020.0,1020.0,1021.0,1019.0,1020.0,1020.0,1020.0,1019.0,1019.0,1020.0,1020.0,1021.0,1020.0,1020.0,1019.0,1020.0,1019.0,1019.0,1020.0,1020.0,1020.0,1021.0,1019.0,1019.0,1019.0,1020.0,1020.0,1020.0,1019.0,1020.0,1020.0,1021.0,1019.0,1020.0,1020.0,1020.0,1020.0,1020.0,1020.0,1020.0,1020.0,1021.0,1019.0,1020.0,1020.0,1020.0,1020.0,1020.0,1019.0,1020.0,1020.0,1022.0,1020.0,1020.0,1020.0,1020.0,1019.0,1019.0,1019.0,1020.0,1020.0,1021.0,1019.0,1020.0,1020.0,1020.0,1019.0,1019.0,1020.0,1020.0,1020.0,1021.0,1020.0,1020.0,1020.0,1020.0,1020.0,1020.0,1020.0,1020.0,1020.0,1022.0,1021.0,1020.0,1021.0,1021.0,1020.0,1020.0,1020.0,1021.0,1022.0,1021.0,1020.0,1021.0,1020.0,1020.0,1020.0,1020.0,1021.0,1020.0,1019.0,1020.0,1019.0,1020.0,1020.0,1021.0,1021.0,1019.0,1020.0,1020.0,1020.0,1020.0,1021.0,1020.0,1020.0,1020.0,1020.0,1021.0,1020.0,1021.0,1020.0,1019.0,1020.0,1020.0,1020.0,1020.0,1019.0,1020.0,1020.0,1020.0,1020.0,1021.0,1020.0,1020.0,1020.0,1020.0,1019.0,1021.0,1020.0,1020.0,1020.0,1020.0,1020.0,1021.0,1019.0,1020.0,1019.0,1020.0,1020.0,1021.0,1019.0,1019.0,1020.0,1020.0,1020.0,1021.0,1019.0,1020.0,1020.0,1020.0,1021.0,1022.0,1021.0,1019.0,1020.0,1020.0,1020.0,1022.0,1021.0,1020.0,1020.0,1021.0,1022.0,1023.0,1023.0,1019.0,1020.0,1020.0,1022.0,1023.0,1023.0,1020.0,1020.0,1021.0,1020.0,1022.0,1023.0,1020.0,1020.0,1023.0,1021.0,1024.0,1061.0,1020.0,1020.0,1021.0,1021.0,1024.0,2351,2183,1897,	00:06:03.153,-0.00830078125,0.05712890625,1.01806640625,0.42724609375,-0.30517578125,0.18310546875,3.218994140625,0.4669189453125,33.299560546875,774.0,-273.0,-4273.0,0.957733154296875,0.0257568359375,0.011932373046875,0.286285400390625,3.218991658478965,0.46558390115680603,34.95268710491222,0.953491111617341,0.025570926073767413,0.01230878891472931,0.3000821912775061,1,	00:06:03.154,0.06787109375,0.0361328125,1.017578125,-0.54931640625,-3.7841796875,0.91552734375,2.0269775390625,-3.8177490234375,138.746337890625,375.0,605.0,-1921.0,0.351470947265625,0.037384033203125,0.00482177734375,0.9354248046875,2.0264186784665403,-3.817190183606886,140.0816686015282,0.340554073381151,0.037332501398021155,0.005244659703785599,0.9394688398171936,1
1782115872.300160,0.086,1019.0,1019.0,1019.0,1019.0,1020.0,1020.0,1020.0,1021.0,1020.0,1019.0,1019.0,1019.0,1019.0,1021.0,1020.0,1020.0,1019.0,1019.0,1019.0,1020.0,1021.0,1019.0,1020.0,1019.0,1019.0,1020.0,1020.0,1019.0,1021.0,1019.0,1019.0,1019.0,1020.0,1020.0,1020.0,1019.0,1020.0,1021.0,1020.0,1020.0,1020.0,1020.0,1019.0,1020.0,1020.0,1021.0,1021.0,1019.0,1020.0,1019.0,1020.0,1019.0,1019.0,1020.0,1020.0,1020.0,1021.0,1020.0,1020.0,1019.0,1020.0,1019.0,1020.0,1019.0,1020.0,1020.0,1021.0,1020.0,1020.0,1020.0,1020.0,1021.0,1020.0,1020.0,1020.0,1020.0,1021.0,1020.0,1020.0,1020.0,1020.0,1019.0,1020.0,1020.0,1020.0,1020.0,1021.0,1020.0,1020.0,1020.0,1020.0,1019.0,1020.0,1020.0,1020.0,1020.0,1022.0,1019.0,1020.0,1020.0,1020.0,1019.0,1019.0,1019.0,1020.0,1020.0,1021.0,1020.0,1019.0,1020.0,1020.0,1020.0,1020.0,1020.0,1021.0,1020.0,1022.0,1021.0,1020.0,1021.0,1021.0,1020.0,1020.0,1020.0,1020.0,1022.0,1021.0,1020.0,1020.0,1019.0,1020.0,1020.0,1020.0,1021.0,1020.0,1019.0,1020.0,1020.0,1020.0,1020.0,1022.0,1021.0,1020.0,1019.0,1020.0,1020.0,1020.0,1021.0,1020.0,1019.0,1020.0,1020.0,1020.0,1020.0,1021.0,1020.0,1020.0,1020.0,1020.0,1020.0,1021.0,1019.0,1020.0,1020.0,1020.0,1020.0,1021.0,1020.0,1019.0,1019.0,1020.0,1020.0,1021.0,1020.0,1020.0,1019.0,1020.0,1020.0,1021.0,1019.0,1020.0,1020.0,1020.0,1020.0,1021.0,1020.0,1020.0,1019.0,1020.0,1019.0,1022.0,1020.0,1020.0,1020.0,1021.0,1020.0,1022.0,1021.0,1020.0,1020.0,1021.0,1020.0,1021.0,1021.0,1020.0,1020.0,1021.0,1022.0,1023.0,1023.0,1020.0,1020.0,1021.0,1021.0,1023.0,1024.0,1019.0,1019.0,1021.0,1021.0,1023.0,1023.0,1020.0,1019.0,1022.0,1021.0,1025.0,1061.0,1020.0,1019.0,1022.0,1021.0,1024.0,2352,2184,1897,	00:06:03.163,-0.00830078125,0.0576171875,1.01806640625,0.48828125,-0.30517578125,0.18310546875,3.31787109375,0.4669189453125,33.299560546875,769.0,-270.0,-4276.0,0.95770263671875,0.02655029296875,0.012176513671875,0.286285400390625,3.3153389553431016,0.4661429930095631,34.955087479209034,0.9534630124479239,0.02637087320093589,0.012566294301321139,0.3000915680053058,1,	00:06:03.164,0.068359375,0.03759765625,1.01806640625,-0.48828125,-3.7841796875,0.8544921875,2.109375,-3.878173828125,138.746337890625,373.0,599.0,-1922.0,0.351409912109375,0.03814697265625,0.00531005859375,0.9354248046875,2.1101836869799273,-3.877081519935579,140.0829085725892,0.34050149890820314,0.03807215770370924,0.005753230482243786,0.9394552359682016,1
1782115872.309332,0.095,1019.0,1019.0,1019.0,1019.0,1019.0,1020.0,1020.0,1021.0,1020.0,1019.0,1020.0,1020.0,1020.0,1021.0,1020.0,1020.0,1020.0,1020.0,1020.0,1020.0,1021.0,1019.0,1020.0,1019.0,1020.0,1019.0,1020.0,1020.0,1021.0,1020.0,1019.0,1020.0,1020.0,1020.0,1019.0,1020.0,1020.0,1021.0,1019.0,1020.0,1020.0,1020.0,1020.0,1020.0,1020.0,1019.0,1021.0,1019.0,1019.0,1019.0,1019.0,1020.0,1020.0,1020.0,1020.0,1020.0,1021.0,1019.0,1019.0,1019.0,1020.0,1019.0,1019.0,1020.0,1020.0,1019.0,1022.0,1020.0,1019.0,1020.0,1020.0,1020.0,1020.0,1019.0,1020.0,1020.0,1021.0,1020.0,1020.0,1020.0,1020.0,1019.0,1020.0,1019.0,1020.0,1020.0,1021.0,1020.0,1019.0,1020.0,1020.0,1019.0,1019.0,1020.0,1020.0,1020.0,1021.0,1020.0,1019.0,1019.0,1020.0,1019.0,1020.0,1019.0,1019.0,1020.0,1021.0,1020.0,1020.0,1020.0,1019.0,1020.0,1020.0,1020.0,1020.0,1020.0,1023.0,1021.0,1020.0,1021.0,1022.0,1020.0,1020.0,1021.0,1020.0,1022.0,1021.0,1019.0,1020.0,1020.0,1020.0,1020.0,1020.0,1022.0,1019.0,1019.0,1020.0,1020.0,1020.0,1020.0,1022.0,1021.0,1020.0,1019.0,1020.0,1020.0,1019.0,1022.0,1020.0,1020.0,1020.0,1020.0,1020.0,1020.0,1022.0,1020.0,1020.0,1019.0,1020.0,1020.0,1021.0,1019.0,1020.0,1020.0,1020.0,1020.0,1022.0,1020.0,1020.0,1020.0,1020.0,1020.0,1021.0,1020.0,1019.0,1019.0,1020.0,1020.0,1021.0,1020.0,1020.0,1019.0,1021.0,1019.0,1022.0,1020.0,1020.0,1019.0,1020.0,1020.0,1021.0,1020.0,1019.0,1019.0,1021.0,1020.0,1022.0,1022.0,1020.0,1020.0,1021.0,1020.0,1022.0,1022.0,1020.0,1020.0,1022.0,1020.0,1024.0,1024.0,1020.0,1020.0,1022.0,1020.0,1023.0,1024.0,1019.0,1019.0,1021.0,1020.0,1023.0,1023.0,1021.0,1020.0,1023.0,1021.0,1025.0,1061.0,1020.0,1020.0,1022.0,1020.0,1026.0,2353,2185,1898,	00:06:03.173,-0.0068359375,0.05810546875,1.0166015625,0.3662109375,-0.3662109375,0.244140625,3.27392578125,0.3790283203125,33.299560546875,773.0,-272.0,-4275.0,0.95770263671875,0.02642822265625,0.011383056640625,0.28631591796875,3.275440934656148,0.3817515691105725,34.95698799462731,0.953463435275137,0.02625986684174911,0.01176010405542071,0.3001326322468023,1,	00:06:03.174,0.0693359375,0.03564453125,1.01904296875,-0.54931640625,-3.72314453125,0.79345703125,2.010498046875,-3.9276123046875,138.7628173828125,372.0,604.0,-1919.0,0.351348876953125,0.038238525390625,0.004364013671875,0.935455322265625,2.0130614027848868,-3.9256369845183667,140.0956886562081,0.3404169537330552,0.03818091304619356,0.004816482903940164,0.9394867306048031,1
1782115872.318854,0.105,1019.0,1020.0,1019.0,1019.0,1019.0,1020.0,1019.0,1021.0,1020.0,1020.0,1019.0,1019.0,1020.0,1021.0,1019.0,1020.0,1020.0,1019.0,1019.0,1019.0,1021.0,1019.0,1019.0,1019.0,1020.0,1020.0,1020.0,1020.0,1021.0,1019.0,1019.0,1020.0,1020.0,1019.0,1020.0,1020.0,1020.0,1021.0,1019.0,1020.0,1020.0,1020.0,1020.0,1020.0,1020.0,1019.0,1021.0,1019.0,1019.0,1019.0,1019.0,1019.0,1020.0,1019.0,1020.0,1020.0,1021.0,1019.0,1019.0,1019.0,1020.0,1019.0,1020.0,1019.0,1020.0,1020.0,1021.0,1019.0,1020.0,1020.0,1020.0,1020.0,1020.0,1020.0,1020.0,1020.0,1022.0,1020.0,1019.0,1020.0,1020.0,1019.0,1020.0,1020.0,1020.0,1020.0,1021.0,1019.0,1020.0,1020.0,1020.0,1019.0,1020.0,1020.0,1021.0,1019.0,1021.0,1019.0,1019.0,1019.0,1020.0,1019.0,1020.0,1019.0,1020.0,1020.0,1021.0,1019.0,1020.0,1020.0,1020.0,1019.0,1020.0,1020.0,1021.0,1020.0,1023.0,1020.0,1020.0,1021.0,1022.0,1020.0,1020.0,1021.0,1020.0,1023.0,1019.0,1020.0,1021.0,1020.0,1020.0,1020.0,1020.0,1022.0,1019.0,1020.0,1019.0,1019.0,1021.0,1020.0,1022.0,1020.0,1020.0,1020.0,1020.0,1021.0,1020.0,1021.0,1019.0,1020.0,1020.0,1020.0,1021.0,1020.0,1022.0,1019.0,1019.0,1020.0,1020.0,1020.0,1021.0,1018.0,1020.0,1019.0,1020.0,1020.0,1022.0,1020.0,1020.0,1019.0,1020.0,1019.0,1022.0,1020.0,1020.0,1019.0,1020.0,1020.0,1021.0,1019.0,1020.0,1020.0,1021.0,1020.0,1022.0,1019.0,1019.0,1020.0,1020.0,1019.0,1023.0,1019.0,1020.0,1019.0,1020.0,1020.0,1022.0,1021.0,1019.0,1019.0,1021.0,1020.0,1023.0,1022.0,1020.0,1020.0,1021.0,1020.0,1024.0,1024.0,1020.0,1019.0,1021.0,1020.0,1024.0,1024.0,1020.0,1020.0,1020.0,1020.0,1023.0,1022.0,1020.0,1020.0,1022.0,1021.0,1025.0,1062.0,1019.0,1019.0,1022.0,1021.0,1024.0,2354,2185,1898,	00:06:03.183,-0.0078125,0.05810546875,1.01806640625,0.30517578125,-0.244140625,0.18310546875,3.262939453125,0.472412109375,33.3050537109375,770.0,-270.0,-4278.0,0.95770263671875,0.026123046875,0.0120849609375,0.28631591796875,3.2644648608581943,0.4698013492274599,34.95857463325314,0.9534656421842403,0.025937603945708855,0.01246429128533277,0.30012522606156244,1,	00:06:03.184,0.07080078125,0.037109375,1.01953125,-0.6103515625,-3.60107421875,0.79345703125,2.0819091796875,-4.010009765625,138.7628173828125,372.0,599.0,-1922.0,0.351287841796875,0.039154052734375,0.00469970703125,0.9354248046875,2.0844172007410395,-4.010117850295656,140.09698192450622,0.34036120501022493,0.03908511991948542,0.005150123951312463,0.9394679769678971,1
1782115872.329188,0.115,1018.0,1019.0,1019.0,1019.0,1019.0,1020.0,1019.0,1021.0,1020.0,1019.0,1019.0,1020.0,1020.0,1021.0,1020.0,1020.0,1020.0,1020.0,1019.0,1020.0,1022.0,1020.0,1020.0,1020.0,1020.0,1019.0,1020.0,1019.0,1021.0,1019.0,1020.0,1019.0,1020.0,1019.0,1020.0,1020.0,1019.0,1021.0,1019.0,1019.0,1020.0,1020.0,1019.0,1020.0,1020.0,1020.0,1021.0,1019.0,1020.0,1019.0,1020.0,1019.0,1020.0,1019.0,1020.0,1020.0,1021.0,1019.0,1020.0,1020.0,1020.0,1019.0,1019.0,1019.0,1020.0,1020.0,1022.0,1019.0,1020.0,1021.0,1020.0,1019.0,1019.0,1019.0,1020.0,1020.0,1021.0,1019.0,1020.0,1020.0,1020.0,1019.0,1020.0,1020.0,1019.0,1020.0,1021.0,1019.0,1020.0,1020.0,1020.0,1019.0,1019.0,1020.0,1020.0,1020.0,1022.0,1019.0,1020.0,1019.0,1020.0,1019.0,1020.0,1020.0,1020.0,1019.0,1021.0,1019.0,1019.0,1020.0,1020.0,1020.0,1020.0,1020.0,1020.0,1020.0,1024.0,1020.0,1020.0,1021.0,1022.0,1020.0,1020.0,1020.0,1021.0,1023.0,1021.0,1020.0,1020.0,1019.0,1019.0,1020.0,1020.0,1022.0,1019.0,1019.0,1020.0,1020.0,1020.0,1020.0,1023.0,1020.0,1020.0,1019.0,1020.0,1020.0,1020.0,1023.0,1019.0,1019.0,1020.0,1020.0,1019.0,1020.0,1022.0,1019.0,1020.0,1019.0,1020.0,1020.0,1022.0,1019.0,1019.0,1020.0,1020.0,1019.0,1022.0,1019.0,1019.0,1019.0,1020.0,1020.0,1022.0,1019.0,1020.0,1020.0,1020.0,1020.0,1022.0,1019.0,1020.0,1020.0,1021.0,1020.0,1022.0,1020.0,1020.0,1020.0,1020.0,1020.0,1022.0,1020.0,1020.0,1020.0,1020.0,1021.0,1023.0,1021.0,1020.0,1020.0,1020.0,1020.0,1024.0,1021.0,1020.0,1020.0,1020.0,1021.0,1024.0,1023.0,1020.0,1019.0,1020.0,1021.0,1024.0,1024.0,1019.0,1020.0,1020.0,1020.0,1024.0,1022.0,1020.0,1020.0,1021.0,1021.0,1027.0,1062.0,1020.0,1019.0,1020.0,1021.0,1026.0,2355,2186,1897,	00:06:03.194,-0.0068359375,0.05859375,1.017578125,0.244140625,-0.30517578125,0.18310546875,3.2958984375,0.3790283203125,33.3050537109375,770.0,-272.0,-4274.0,0.957672119140625,0.026611328125,0.01141357421875,0.286346435546875,3.298219996866225,0.3804933687900056,34.960459313985844,0.9534490440007319,0.02645234002408131,0.01181009874429912,0.30015948388979935,1,	00:06:03.195,0.0703125,0.03662109375,1.0205078125,-0.54931640625,-3.23486328125,0.67138671875,2.04345703125,-3.9605712890625,138.768310546875,370.0,605.0,-1917.0,0.35125732421875,0.038604736328125,0.0045166015625,0.93548583984375,2.0438237556298913,-3.9581057608375785,140.1049378180827,0.34032278940866806,0.038537973353092336,0.004975022934600321,0.9395054405195,1
1782115872.341249,0.127,1019.0,1019.0,1019.0,1019.0,1019.0,1019.0,1019.0,1021.0,1020.0,1019.0,1019.0,1020.0,1019.0,1021.0,1019.0,1019.0,1019.0,1019.0,1020.0,1019.0,1022.0,1019.0,1020.0,1020.0,1019.0,1020.0,1019.0,1019.0,1021.0,1019.0,1019.0,1020.0,1021.0,1020.0,1020.0,1020.0,1020.0,1021.0,1019.0,1020.0,1019.0,1021.0,1019.0,1020.0,1020.0,1020.0,1022.0,1019.0,1020.0,1019.0,1020.0,1019.0,1020.0,1019.0,1019.0,1020.0,1022.0,1019.0,1019.0,1020.0,1020.0,1019.0,1020.0,1020.0,1020.0,1020.0,1022.0,1019.0,1020.0,1020.0,1020.0,1020.0,1019.0,1020.0,1020.0,1020.0,1022.0,1019.0,1020.0,1020.0,1020.0,1020.0,1019.0,1020.0,1020.0,1020.0,1022.0,1019.0,1020.0,1020.0,1020.0,1019.0,1019.0,1019.0,1020.0,1020.0,1021.0,1019.0,1020.0,1020.0,1020.0,1019.0,1019.0,1020.0,1020.0,1020.0,1022.0,1019.0,1020.0,1020.0,1020.0,1019.0,1020.0,1020.0,1021.0,1021.0,1023.0,1021.0,1020.0,1022.0,1022.0,1020.0,1019.0,1020.0,1020.0,1022.0,1020.0,1020.0,1020.0,1020.0,1019.0,1020.0,1020.0,1022.0,1020.0,1019.0,1020.0,1020.0,1020.0,1020.0,1023.0,1020.0,1020.0,1019.0,1019.0,1020.0,1020.0,1022.0,1020.0,1020.0,1020.0,1020.0,1020.0,1019.0,1022.0,1019.0,1020.0,1019.0,1020.0,1020.0,1021.0,1019.0,1020.0,1020.0,1020.0,1020.0,1021.0,1020.0,1020.0,1019.0,1020.0,1021.0,1022.0,1019.0,1020.0,1020.0,1020.0,1019.0,1021.0,1020.0,1020.0,1020.0,1020.0,1020.0,1022.0,1021.0,1020.0,1020.0,1020.0,1020.0,1022.0,1019.0,1020.0,1020.0,1020.0,1020.0,1023.0,1020.0,1020.0,1019.0,1021.0,1021.0,1023.0,1021.0,1020.0,1020.0,1021.0,1021.0,1024.0,1023.0,1020.0,1020.0,1021.0,1021.0,1024.0,1023.0,1020.0,1020.0,1020.0,1021.0,1024.0,1023.0,1020.0,1020.0,1021.0,1022.0,1026.0,1063.0,1020.0,1020.0,1020.0,1021.0,1025.0,2355,2187,1898,	00:06:03.204,-0.00830078125,0.05908203125,1.01708984375,0.18310546875,-0.18310546875,0.244140625,3.328857421875,0.4669189453125,33.3050537109375,771.0,-269.0,-4286.0,0.957672119140625,0.026641845703125,0.01220703125,0.286346435546875,3.3267940095167776,0.46618821031719215,34.96299019888861,0.9534396756836998,0.02646519795590669,0.012598494039039777,0.300156052874607,1,	00:06:03.205,0.07177734375,0.03662109375,1.021484375,-0.54931640625,-2.62451171875,0.67138671875,2.054443359375,-4.075927734375,138.7738037109375,370.0,600.0,-1919.0,0.351165771484375,0.039581298828125,0.004241943359375,0.935455322265625,2.052368521246907,-4.074849687781532,140.10971964216156,0.34025139229279966,0.03951985574028289,0.0046988290193957245,0.9394919329355228,1
1782115872.349944,0.136,1019.0,1018.0,1019.0,1019.0,1019.0,1019.0,1020.0,1020.0,1019.0,1019.0,1019.0,1019.0,1019.0,1021.0,1019.0,1020.0,1019.0,1020.0,1019.0,1020.0,1020.0,1018.0,1020.0,1019.0,1019.0,1020.0,1020.0,1020.0,1022.0,1019.0,1019.0,1020.0,1020.0,1019.0,1019.0,1020.0,1020.0,1022.0,1019.0,1020.0,1020.0,1020.0,1020.0,1019.0,1020.0,1020.0,1022.0,1019.0,1019.0,1020.0,1020.0,1019.0,1020.0,1020.0,1020.0,1020.0,1021.0,1019.0,1020.0,1019.0,1020.0,1019.0,1019.0,1020.0,1019.0,1019.0,1022.0,1019.0,1019.0,1021.0,1020.0,1020.0,1020.0,1019.0,1019.0,1020.0,1022.0,1019.0,1020.0,1020.0,1020.0,1019.0,1019.0,1019.0,1020.0,1020.0,1022.0,1019.0,1020.0,1020.0,1020.0,1019.0,1020.0,1020.0,1020.0,1020.0,1021.0,1019.0,1020.0,1019.0,1020.0,1020.0,1020.0,1020.0,1020.0,1020.0,1022.0,1019.0,1019.0,1020.0,1020.0,1019.0,1019.0,1020.0,1019.0,1020.0,1022.0,1021.0,1019.0,1021.0,1022.0,1020.0,1020.0,1020.0,1021.0,1023.0,1021.0,1020.0,1020.0,1020.0,1019.0,1020.0,1020.0,1022.0,1020.0,1020.0,1020.0,1020.0,1020.0,1021.0,1022.0,1020.0,1020.0,1019.0,1020.0,1020.0,1020.0,1022.0,1020.0,1019.0,1020.0,1019.0,1020.0,1019.0,1021.0,1019.0,1020.0,1019.0,1020.0,1019.0,1021.0,1018.0,1019.0,1020.0,1020.0,1020.0,1022.0,1020.0,1020.0,1019.0,1020.0,1020.0,1022.0,1020.0,1019.0,1019.0,1020.0,1020.0,1022.0,1020.0,1020.0,1020.0,1019.0,1020.0,1022.0,1021.0,1020.0,1020.0,1020.0,1020.0,1022.0,1020.0,1020.0,1020.0,1020.0,1020.0,1023.0,1021.0,1020.0,1019.0,1019.0,1021.0,1023.0,1022.0,1020.0,1019.0,1020.0,1021.0,1024.0,1024.0,1020.0,1020.0,1020.0,1021.0,1024.0,1024.0,1019.0,1020.0,1020.0,1021.0,1024.0,1023.0,1021.0,1020.0,1021.0,1021.0,1027.0,1064.0,1020.0,1020.0,1020.0,1021.0,1026.0,2356,2187,1898,	00:06:03.214,-0.0078125,0.05859375,1.017578125,0.06103515625,-0.1220703125,0.18310546875,3.2574462890625,0.406494140625,33.310546875,767.0,-270.0,-4276.0,0.957672119140625,0.026214599609375,0.01153564453125,0.286376953125,3.258164846784094,0.4049589127090766,34.964220646777434,0.9534495047953206,0.026054547525046576,0.011909586360454704,0.30018888072602845,1,	00:06:03.215,0.07177734375,0.03662109375,1.021484375,-0.6103515625,-2.13623046875,0.6103515625,2.0489501953125,-4.0045166015625,138.779296875,368.0,606.0,-1921.0,0.35113525390625,0.038970947265625,0.004425048828125,0.93548583984375,2.0472366061712832,-4.004976216310114,140.11496882241195,0.3402276884722696,0.03893178602369787,0.0048667381524195785,0.9395242151714754,1
1782115872.363905,0.150,1019.0,1018.0,1019.0,1020.0,1020.0,1020.0,1019.0,1021.0,1019.0,1019.0,1020.0,1019.0,1020.0,1022.0,1019.0,1020.0,1019.0,1020.0,1019.0,1020.0,1021.0,1019.0,1020.0,1020.0,1019.0,1020.0,1019.0,1019.0,1022.0,1019.0,1019.0,1019.0,1020.0,1020.0,1020.0,1019.0,1020.0,1022.0,1019.0,1020.0,1020.0,1020.0,1019.0,1019.0,1020.0,1020.0,1022.0,1018.0,1019.0,1019.0,1020.0,1019.0,1019.0,1019.0,1020.0,1020.0,1022.0,1019.0,1019.0,1020.0,1020.0,1020.0,1020.0,1019.0,1021.0,1019.0,1022.0,1019.0,1019.0,1020.0,1020.0,1020.0,1019.0,1019.0,1021.0,1019.0,1022.0,1019.0,1019.0,1020.0,1020.0,1019.0,1019.0,1020.0,1020.0,1020.0,1021.0,1019.0,1020.0,1019.0,1020.0,1019.0,1019.0,1020.0,1020.0,1020.0,1021.0,1018.0,1019.0,1020.0,1020.0,1019.0,1020.0,1019.0,1020.0,1020.0,1022.0,1018.0,1020.0,1019.0,1020.0,1019.0,1020.0,1020.0,1021.0,1020.0,1023.0,1020.0,1020.0,1021.0,1022.0,1020.0,1020.0,1021.0,1020.0,1023.0,1020.0,1020.0,1020.0,1020.0,1019.0,1020.0,1020.0,1021.0,1019.0,1019.0,1020.0,1020.0,1020.0,1020.0,1023.0,1020.0,1020.0,1019.0,1020.0,1019.0,1020.0,1022.0,1020.0,1020.0,1020.0,1019.0,1020.0,1020.0,1022.0,1019.0,1020.0,1020.0,1020.0,1020.0,1022.0,1019.0,1020.0,1020.0,1020.0,1020.0,1021.0,1020.0,1020.0,1020.0,1020.0,1020.0,1022.0,1020.0,1020.0,1019.0,1020.0,1020.0,1022.0,1019.0,1020.0,1019.0,1020.0,1020.0,1023.0,1021.0,1020.0,1020.0,1020.0,1020.0,1021.0,1020.0,1020.0,1020.0,1020.0,1020.0,1023.0,1022.0,1020.0,1020.0,1020.0,1020.0,1024.0,1022.0,1020.0,1019.0,1020.0,1021.0,1024.0,1024.0,1020.0,1020.0,1020.0,1021.0,1024.0,1024.0,1020.0,1020.0,1020.0,1021.0,1024.0,1023.0,1020.0,1020.0,1021.0,1021.0,1026.0,1065.0,1019.0,1020.0,1020.0,1021.0,1025.0,2356,2188,1898,	00:06:03.224,-0.00830078125,0.05908203125,1.017578125,0.0,-0.1220703125,0.244140625,3.3233642578125,0.4669189453125,33.310546875,768.0,-275.0,-4277.0,0.957672119140625,0.026611328125,0.01220703125,0.286376953125,3.3245285701860983,0.46671974848325526,34.96709339459784,0.9534294727793523,0.026444504334112395,0.012597929202019591,0.30019030764838195,1,	00:06:03.225,0.07177734375,0.037109375,1.0224609375,-0.79345703125,-1.89208984375,0.54931640625,2.1258544921875,-4.0484619140625,138.779296875,369.0,602.0,-1921.0,0.35113525390625,0.039581298828125,0.00494384765625,0.93548583984375,2.127876325238569,-4.046763475741457,140.11355499024302,0.34020106984888976,0.03951371014617026,0.005402902504024027,0.9395066297949617,1
1782115872.371984,0.158,1019.0,1019.0,1019.0,1020.0,1019.0,1019.0,1019.0,1021.0,1020.0,1019.0,1019.0,1020.0,1020.0,1021.0,1019.0,1020.0,1020.0,1020.0,1020.0,1019.0,1021.0,1019.0,1020.0,1019.0,1020.0,1019.0,1020.0,1020.0,1021.0,1019.0,1020.0,1019.0,1020.0,1019.0,1020.0,1019.0,1019.0,1022.0,1019.0,1020.0,1020.0,1020.0,1020.0,1020.0,1020.0,1020.0,1021.0,1019.0,1020.0,1019.0,1019.0,1019.0,1020.0,1019.0,1020.0,1020.0,1022.0,1019.0,1020.0,1019.0,1019.0,1019.0,1020.0,1020.0,1020.0,1020.0,1022.0,1019.0,1020.0,1020.0,1020.0,1020.0,1020.0,1019.0,1020.0,1020.0,1022.0,1019.0,1020.0,1020.0,1020.0,1019.0,1020.0,1020.0,1020.0,1020.0,1021.0,1019.0,1019.0,1020.0,1020.0,1019.0,1020.0,1020.0,1020.0,1020.0,1022.0,1019.0,1020.0,1019.0,1020.0,1019.0,1020.0,1020.0,1020.0,1020.0,1022.0,1019.0,1020.0,1020.0,1020.0,1019.0,1019.0,1020.0,1020.0,1020.0,1022.0,1020.0,1020.0,1021.0,1022.0,1020.0,1020.0,1020.0,1020.0,1023.0,1020.0,1020.0,1020.0,1020.0,1020.0,1019.0,1020.0,1022.0,1020.0,1019.0,1020.0,1020.0,1020.0,1020.0,1023.0,1020.0,1020.0,1020.0,1020.0,1020.0,1019.0,1022.0,1020.0,1020.0,1020.0,1019.0,1020.0,1020.0,1022.0,1019.0,1020.0,1020.0,1020.0,1019.0,1022.0,1019.0,1020.0,1019.0,1020.0,1020.0,1022.0,1019.0,1020.0,1020.0,1020.0,1020.0,1022.0,1020.0,1020.0,1020.0,1020.0,1020.0,1022.0,1020.0,1020.0,1020.0,1020.0,1020.0,1022.0,1020.0,1020.0,1020.0,1020.0,1020.0,1022.0,1020.0,1020.0,1020.0,1020.0,1019.0,1023.0,1022.0,1020.0,1020.0,1020.0,1020.0,1024.0,1022.0,1020.0,1020.0,1020.0,1021.0,1025.0,1024.0,1020.0,1020.0,1020.0,1021.0,1025.0,1024.0,1020.0,1020.0,1020.0,1021.0,1024.0,1024.0,1020.0,1020.0,1021.0,1021.0,1027.0,1065.0,1020.0,1020.0,1021.0,1021.0,1025.0,2356,2189,1898,	00:06:03.235,-0.0078125,0.05859375,1.01806640625,-0.1220703125,-0.244140625,0.18310546875,3.2574462890625,0.4010009765625,33.310546875,767.0,-270.0,-4273.0,0.957672119140625,0.026214599609375,0.011505126953125,0.286407470703125,3.25555251253219,0.4025919045396832,34.968266480701445,0.953439392376713,0.02603859691332633,0.011883969054185518,0.30022339651437685,1,	00:06:03.236,0.07177734375,0.0361328125,1.0224609375,-0.8544921875,-1.77001953125,0.6103515625,2.032470703125,-4.0374755859375,138.790283203125,366.0,606.0,-1923.0,0.35107421875,0.0391845703125,0.004180908203125,0.935516357421875,2.0316705038334875,-4.036418851405279,140.12516136623827,0.3401415528810273,0.03914283346547821,0.004648919049797824,0.9395477370222577,1
1782115872.381022,0.167,1019.0,1019.0,1019.0,1019.0,1020.0,1020.0,1020.0,1021.0,1019.0,1019.0,1020.0,1019.0,1020.0,1022.0,1019.0,1020.0,1019.0,1020.0,1019.0,1020.0,1022.0,1019.0,1020.0,1019.0,1019.0,1019.0,1020.0,1020.0,1021.0,1019.0,1020.0,1019.0,1020.0,1019.0,1020.0,1020.0,1020.0,1022.0,1019.0,1020.0,1020.0,1020.0,1020.0,1020.0,1020.0,1020.0,1021.0,1018.0,1019.0,1019.0,1020.0,1020.0,1020.0,1019.0,1020.0,1020.0,1022.0,1019.0,1020.0,1020.0,1020.0,1019.0,1019.0,1020.0,1020.0,1020.0,1022.0,1019.0,1020.0,1020.0,1021.0,1020.0,1020.0,1020.0,1020.0,1019.0,1022.0,1019.0,1020.0,1019.0,1020.0,1019.0,1020.0,1020.0,1020.0,1020.0,1021.0,1019.0,1020.0,1019.0,1020.0,1019.0,1020.0,1020.0,1020.0,1020.0,1021.0,1019.0,1020.0,1019.0,1021.0,1019.0,1019.0,1020.0,1020.0,1019.0,1022.0,1019.0,1019.0,1019.0,1020.0,1019.0,1020.0,1019.0,1020.0,1020.0,1023.0,1021.0,1020.0,1021.0,1022.0,1020.0,1020.0,1020.0,1020.0,1023.0,1020.0,1020.0,1020.0,1019.0,1020.0,1020.0,1020.0,1022.0,1020.0,1019.0,1019.0,1019.0,1020.0,1020.0,1022.0,1021.0,1019.0,1020.0,1020.0,1020.0,1020.0,1022.0,1019.0,1019.0,1020.0,1020.0,1020.0,1020.0,1022.0,1019.0,1020.0,1020.0,1020.0,1020.0,1021.0,1018.0,1020.0,1020.0,1020.0,1020.0,1022.0,1020.0,1020.0,1019.0,1020.0,1020.0,1022.0,1020.0,1019.0,1020.0,1020.0,1020.0,1022.0,1019.0,1019.0,1020.0,1020.0,1020.0,1022.0,1020.0,1020.0,1020.0,1019.0,1019.0,1022.0,1019.0,1020.0,1020.0,1020.0,1020.0,1023.0,1021.0,1020.0,1020.0,1021.0,1021.0,1024.0,1021.0,1020.0,1021.0,1020.0,1021.0,1024.0,1024.0,1020.0,1020.0,1021.0,1021.0,1025.0,1024.0,1020.0,1020.0,1021.0,1021.0,1023.0,1023.0,1021.0,1020.0,1022.0,1021.0,1026.0,1066.0,1020.0,1020.0,1021.0,1021.0,1025.0,2356,2189,1898,	00:06:03.245,-0.0078125,0.05810546875,1.01806640625,-0.244140625,-0.42724609375,0.18310546875,3.2794189453125,0.4833984375,33.3160400390625,769.0,-271.0,-4278.0,0.957672119140625,0.026214599609375,0.01226806640625,0.286407470703125,3.2797080605255577,0.4859287412457246,34.97005633055475,0.9534327578206049,0.026020898616611974,0.012641000068687146,0.3002150800127192,1,	00:06:03.246,0.0712890625,0.03564453125,1.02197265625,-0.8544921875,-1.77001953125,0.48828125,1.9720458984375,-3.97705078125,138.7957763671875,364.0,608.0,-1922.0,0.351043701171875,0.038543701171875,0.003875732421875,0.935546875,1.9702469110490024,-3.979425615053734,140.13309496708186,0.3401113983990149,0.03849311178425092,0.004317714029236522,0.9395870765234021,1
1782115872.390677,0.176,1018.0,1019.0,1019.0,1019.0,1020.0,1020.0,1020.0,1021.0,1020.0,1020.0,1019.0,1019.0,1020.0,1021.0,1019.0,1020.0,1019.0,1020.0,1020.0,1020.0,1022.0,1019.0,1020.0,1019.0,1020.0,1020.0,1019.0,1020.0,1021.0,1019.0,1019.0,1019.0,1020.0,1020.0,1020.0,1019.0,1020.0,1021.0,1019.0,1020.0,1020.0,1020.0,1019.0,1020.0,1020.0,1020.0,1021.0,1019.0,1020.0,1019.0,1020.0,1019.0,1019.0,1020.0,1019.0,1020.0,1021.0,1018.0,1019.0,1019.0,1020.0,1019.0,1020.0,1019.0,1020.0,1020.0,1022.0,1019.0,1019.0,1020.0,1021.0,1020.0,1020.0,1020.0,1020.0,1020.0,1022.0,1019.0,1020.0,1020.0,1020.0,1020.0,1020.0,1019.0,1019.0,1019.0,1021.0,1019.0,1019.0,1019.0,1020.0,1020.0,1020.0,1019.0,1019.0,1020.0,1022.0,1019.0,1019.0,1019.0,1020.0,1019.0,1020.0,1020.0,1020.0,1020.0,1022.0,1019.0,1020.0,1020.0,1020.0,1019.0,1020.0,1020.0,1020.0,1020.0,1023.0,1021.0,1020.0,1021.0,1021.0,1020.0,1020.0,1020.0,1021.0,1022.0,1021.0,1019.0,1020.0,1020.0,1020.0,1020.0,1020.0,1022.0,1019.0,1019.0,1020.0,1019.0,1020.0,1020.0,1023.0,1020.0,1020.0,1020.0,1020.0,1020.0,1020.0,1022.0,1020.0,1019.0,1019.0,1020.0,1020.0,1020.0,1022.0,1019.0,1020.0,1020.0,1020.0,1020.0,1021.0,1019.0,1020.0,1020.0,1020.0,1020.0,1022.0,1020.0,1020.0,1019.0,1020.0,1020.0,1022.0,1020.0,1020.0,1020.0,1020.0,1020.0,1021.0,1019.0,1020.0,1020.0,1019.0,1020.0,1022.0,1021.0,1019.0,1020.0,1019.0,1020.0,1022.0,1020.0,1020.0,1019.0,1021.0,1021.0,1023.0,1022.0,1020.0,1020.0,1021.0,1021.0,1023.0,1022.0,1020.0,1020.0,1022.0,1021.0,1024.0,1024.0,1021.0,1020.0,1021.0,1022.0,1024.0,1025.0,1020.0,1019.0,1021.0,1020.0,1024.0,1024.0,1021.0,1020.0,1022.0,1021.0,1026.0,1066.0,1020.0,1020.0,1021.0,1021.0,1025.0,2355,2190,1898,	00:06:03.255,-0.00732421875,0.05810546875,1.01806640625,-0.244140625,-0.48828125,0.1220703125,3.262939453125,0.3900146484375,33.3160400390625,764.0,-271.0,-4270.0,0.957672119140625,0.026275634765625,0.01141357421875,0.28643798828125,3.261341673080501,0.3907201143321738,34.970875866856986,0.9534306951124866,0.026117618855413742,0.011800960148516393,0.30024742620415135,1,	00:06:03.256,0.07177734375,0.0361328125,1.021484375,-0.8544921875,-1.64794921875,0.48828125,2.0379638671875,-4.0484619140625,138.7957763671875,367.0,604.0,-1921.0,0.35101318359375,0.039306640625,0.00421142578125,0.935546875,2.03736233016476,-4.047282358649474,140.13210737733846,0.34007993347763643,0.039248476013618826,0.00466560844354122,0.9395655528350889,1
1782115872.401573,0.187,1019.0,1019.0,1019.0,1020.0,1019.0,1019.0,1019.0,1021.0,1020.0,1019.0,1019.0,1020.0,1020.0,1021.0,1019.0,1020.0,1019.0,1019.0,1020.0,1020.0,1021.0,1019.0,1019.0,1020.0,1019.0,1020.0,1020.0,1020.0,1021.0,1018.0,1020.0,1019.0,1020.0,1020.0,1020.0,1020.0,1020.0,1021.0,1019.0,1020.0,1019.0,1020.0,1020.0,1019.0,1020.0,1020.0,1022.0,1019.0,1020.0,1019.0,1019.0,1019.0,1020.0,1019.0,1020.0,1020.0,1022.0,1019.0,1020.0,1019.0,1020.0,1019.0,1020.0,1020.0,1020.0,1020.0,1022.0,1019.0,1020.0,1020.0,1020.0,1020.0,1019.0,1019.0,1020.0,1020.0,1022.0,1020.0,1020.0,1019.0,1020.0,1019.0,1020.0,1020.0,1020.0,1020.0,1022.0,1019.0,1020.0,1019.0,1020.0,1019.0,1019.0,1020.0,1019.0,1020.0,1021.0,1019.0,1020.0,1019.0,1020.0,1019.0,1020.0,1020.0,1020.0,1020.0,1021.0,1020.0,1020.0,1020.0,1020.0,1019.0,1020.0,1020.0,1020.0,1020.0,1023.0,1021.0,1020.0,1021.0,1022.0,1020.0,1020.0,1020.0,1020.0,1023.0,1021.0,1020.0,1019.0,1019.0,1020.0,1020.0,1020.0,1022.0,1020.0,1020.0,1019.0,1019.0,1020.0,1020.0,1022.0,1021.0,1019.0,1019.0,1020.0,1020.0,1020.0,1022.0,1020.0,1020.0,1019.0,1019.0,1020.0,1020.0,1022.0,1020.0,1019.0,1020.0,1020.0,1020.0,1020.0,1020.0,1019.0,1019.0,1020.0,1020.0,1022.0,1020.0,1020.0,1019.0,1020.0,1020.0,1022.0,1021.0,1019.0,1019.0,1020.0,1020.0,1021.0,1019.0,1020.0,1020.0,1021.0,1021.0,1022.0,1022.0,1020.0,1019.0,1020.0,1020.0,1022.0,1021.0,1020.0,1020.0,1021.0,1021.0,1022.0,1022.0,1019.0,1019.0,1021.0,1020.0,1023.0,1022.0,1020.0,1020.0,1020.0,1021.0,1024.0,1025.0,1020.0,1020.0,1020.0,1021.0,1024.0,1026.0,1020.0,1020.0,1020.0,1020.0,1024.0,1024.0,1021.0,1020.0,1021.0,1021.0,1025.0,1066.0,1020.0,1019.0,1021.0,1021.0,1024.0,2355,2190,1898,	00:06:03.265,-0.00732421875,0.05908203125,1.01806640625,-0.30517578125,-0.6103515625,0.1220703125,3.3453369140625,0.4119873046875,33.3160400390625,769.0,-273.0,-4277.0,0.9576416015625,0.02691650390625,0.0118408203125,0.28643798828125,3.3447856045533686,0.41450523241411613,34.972354460952204,0.9534086746524947,0.026749369967176532,0.012217819540734004,0.30024505855950856,1,	00:06:03.266,0.0732421875,0.03564453125,1.0205078125,-0.8544921875,-1.46484375,0.42724609375,1.9775390625,-4.1363525390625,138.8067626953125,364.0,608.0,-1922.0,0.3509521484375,0.03985595703125,0.003448486328125,0.935546875,1.977645114931695,-4.1383120608257045,140.13950596508647,0.34001712941376394,0.03981702747829803,0.00390746014007893,0.9395678196826825,1
1782115872.413023,0.199,1018.0,1019.0,1019.0,1020.0,1020.0,1019.0,1020.0,1021.0,1019.0,1019.0,1019.0,1019.0,1020.0,1021.0,1020.0,1019.0,1019.0,1020.0,1020.0,1020.0,1021.0,1019.0,1020.0,1020.0,1019.0,1020.0,1019.0,1020.0,1021.0,1019.0,1020.0,1020.0,1020.0,1020.0,1020.0,1019.0,1020.0,1021.0,1019.0,1020.0,1020.0,1020.0,1019.0,1020.0,1020.0,1020.0,1021.0,1019.0,1020.0,1020.0,1020.0,1019.0,1020.0,1020.0,1019.0,1020.0,1021.0,1019.0,1020.0,1019.0,1020.0,1019.0,1019.0,1019.0,1019.0,1020.0,1022.0,1019.0,1020.0,1020.0,1020.0,1020.0,1020.0,1019.0,1019.0,1020.0,1021.0,1020.0,1020.0,1020.0,1020.0,1020.0,1020.0,1020.0,1020.0,1020.0,1021.0,1019.0,1019.0,1020.0,1020.0,1019.0,1019.0,1019.0,1020.0,1020.0,1021.0,1019.0,1020.0,1020.0,1020.0,1019.0,1019.0,1020.0,1020.0,1020.0,1022.0,1019.0,1020.0,1020.0,1020.0,1020.0,1020.0,1020.0,1020.0,1020.0,1023.0,1021.0,1021.0,1021.0,1021.0,1020.0,1019.0,1020.0,1020.0,1022.0,1021.0,1020.0,1020.0,1020.0,1020.0,1020.0,1020.0,1022.0,1020.0,1020.0,1020.0,1020.0,1020.0,1020.0,1023.0,1021.0,1020.0,1020.0,1020.0,1020.0,1020.0,1022.0,1020.0,1020.0,1020.0,1020.0,1020.0,1020.0,1022.0,1019.0,1020.0,1020.0,1020.0,1020.0,1021.0,1019.0,1020.0,1019.0,1020.0,1020.0,1022.0,1020.0,1020.0,1020.0,1019.0,1019.0,1022.0,1020.0,1019.0,1019.0,1020.0,1020.0,1021.0,1019.0,1020.0,1019.0,1021.0,1020.0,1022.0,1020.0,1020.0,1020.0,1020.0,1020.0,1022.0,1020.0,1020.0,1020.0,1020.0,1020.0,1023.0,1022.0,1020.0,1020.0,1020.0,1020.0,1023.0,1022.0,1020.0,1020.0,1020.0,1021.0,1024.0,1024.0,1020.0,1020.0,1022.0,1021.0,1025.0,1026.0,1020.0,1020.0,1021.0,1021.0,1024.0,1024.0,1020.0,1020.0,1022.0,1022.0,1025.0,1066.0,1020.0,1020.0,1021.0,1021.0,1024.0,2354,2191,1898,	00:06:03.276,-0.0068359375,0.05859375,1.0185546875,-0.30517578125,-0.67138671875,0.1220703125,3.262939453125,0.362548828125,33.3160400390625,760.0,-272.0,-4272.0,0.957672119140625,0.0263671875,0.01116943359375,0.286468505859375,3.2626946545130426,0.3615531793973122,34.97264751336522,0.9534243638389965,0.02620516532718865,0.01156224859836931,0.3002691894879143,1,	00:06:03.277,0.07373046875,0.0361328125,1.0185546875,-0.8544921875,-1.220703125,0.42724609375,2.0599365234375,-4.1473388671875,138.80126953125,362.0,606.0,-1917.0,0.350921630859375,0.040191650390625,0.00408935546875,0.935516357421875,2.0606748317876664,-4.149575958234998,140.13672793168664,0.3400080956914275,0.040155805751972876,0.004553729617060722,0.9395537609287046,1
1782115872.421365,0.207,1019.0,1019.0,1019.0,1019.0,1019.0,1019.0,1020.0,1021.0,1020.0,1019.0,1020.0,1020.0,1020.0,1021.0,1019.0,1020.0,1019.0,1020.0,1020.0,1020.0,1021.0,1019.0,1020.0,1019.0,1019.0,1019.0,1020.0,1020.0,1021.0,1018.0,1019.0,1019.0,1020.0,1019.0,1019.0,1020.0,1020.0,1021.0,1019.0,1020.0,1019.0,1020.0,1020.0,1020.0,1019.0,1020.0,1022.0,1019.0,1020.0,1019.0,1020.0,1019.0,1020.0,1019.0,1020.0,1020.0,1021.0,1019.0,1020.0,1019.0,1020.0,1019.0,1019.0,1019.0,1019.0,1020.0,1022.0,1020.0,1020.0,1020.0,1020.0,1020.0,1020.0,1019.0,1020.0,1020.0,1022.0,1019.0,1020.0,1020.0,1020.0,1020.0,1019.0,1019.0,1020.0,1020.0,1022.0,1020.0,1019.0,1020.0,1020.0,1019.0,1020.0,1019.0,1019.0,1020.0,1021.0,1020.0,1020.0,1020.0,1020.0,1019.0,1020.0,1020.0,1020.0,1020.0,1022.0,1019.0,1020.0,1020.0,1021.0,1019.0,1020.0,1020.0,1020.0,1021.0,1023.0,1021.0,1020.0,1021.0,1022.0,1019.0,1020.0,1020.0,1020.0,1023.0,1021.0,1020.0,1020.0,1019.0,1019.0,1019.0,1020.0,1022.0,1020.0,1020.0,1020.0,1020.0,1020.0,1020.0,1023.0,1021.0,1020.0,1019.0,1020.0,1020.0,1020.0,1022.0,1020.0,1019.0,1020.0,1020.0,1020.0,1020.0,1022.0,1020.0,1020.0,1019.0,1020.0,1020.0,1021.0,1019.0,1020.0,1019.0,1020.0,1020.0,1022.0,1020.0,1020.0,1020.0,1020.0,1020.0,1022.0,1020.0,1019.0,1020.0,1020.0,1020.0,1022.0,1019.0,1020.0,1019.0,1020.0,1020.0,1022.0,1021.0,1019.0,1020.0,1020.0,1020.0,1022.0,1020.0,1020.0,1020.0,1021.0,1021.0,1023.0,1022.0,1019.0,1020.0,1020.0,1020.0,1024.0,1022.0,1020.0,1020.0,1021.0,1021.0,1025.0,1025.0,1019.0,1020.0,1021.0,1021.0,1025.0,1025.0,1020.0,1019.0,1020.0,1021.0,1024.0,1024.0,1021.0,1020.0,1022.0,1022.0,1027.0,1066.0,1020.0,1020.0,1021.0,1021.0,1025.0,2354,2191,1898,	00:06:03.286,-0.00634765625,0.05859375,1.017578125,-0.30517578125,-0.732421875,0.18310546875,3.350830078125,0.340576171875,33.321533203125,768.0,-270.0,-4277.0,0.9576416015625,0.02716064453125,0.01123046875,0.286468505859375,3.3502445498685156,0.34106946896969487,34.97461472783338,0.9533978618947477,0.026987094262464633,0.011621704090706791,0.3002817837828663,1,	00:06:03.287,0.07421875,0.03466796875,1.01806640625,-0.79345703125,-0.6103515625,0.42724609375,1.9610595703125,-4.1693115234375,138.812255859375,364.0,607.0,-1917.0,0.350860595703125,0.040069580078125,0.003204345703125,0.935546875,1.9617075442729797,-4.170298050900497,140.14737263134234,0.3399502253824636,0.04003162709588715,0.0036842965331979663,0.9395838116174222,1
1782115872.433507,0.219,1019.0,1019.0,1019.0,1019.0,1020.0,1019.0,1019.0,1021.0,1019.0,1020.0,1020.0,1020.0,1020.0,1021.0,1019.0,1020.0,1020.0,1020.0,1020.0,1020.0,1021.0,1019.0,1020.0,1019.0,1019.0,1019.0,1020.0,1019.0,1021.0,1019.0,1020.0,1020.0,1020.0,1020.0,1019.0,1020.0,1020.0,1021.0,1019.0,1019.0,1019.0,1020.0,1020.0,1020.0,1020.0,1020.0,1021.0,1019.0,1020.0,1019.0,1020.0,1019.0,1020.0,1019.0,1020.0,1020.0,1021.0,1018.0,1019.0,1019.0,1020.0,1019.0,1019.0,1020.0,1020.0,1020.0,1022.0,1019.0,1020.0,1020.0,1021.0,1020.0,1020.0,1019.0,1020.0,1020.0,1022.0,1019.0,1019.0,1020.0,1020.0,1020.0,1019.0,1020.0,1020.0,1020.0,1021.0,1019.0,1020.0,1019.0,1020.0,1019.0,1019.0,1020.0,1020.0,1021.0,1022.0,1019.0,1020.0,1019.0,1020.0,1019.0,1020.0,1020.0,1020.0,1020.0,1022.0,1019.0,1020.0,1020.0,1020.0,1019.0,1020.0,1020.0,1020.0,1021.0,1023.0,1020.0,1020.0,1021.0,1021.0,1019.0,1020.0,1020.0,1021.0,1023.0,1020.0,1020.0,1020.0,1020.0,1019.0,1019.0,1020.0,1022.0,1019.0,1019.0,1020.0,1020.0,1020.0,1021.0,1023.0,1021.0,1020.0,1020.0,1019.0,1020.0,1020.0,1022.0,1020.0,1020.0,1020.0,1019.0,1020.0,1020.0,1022.0,1019.0,1020.0,1020.0,1019.0,1020.0,1021.0,1018.0,1019.0,1020.0,1020.0,1021.0,1022.0,1020.0,1020.0,1020.0,1020.0,1021.0,1023.0,1020.0,1020.0,1020.0,1020.0,1020.0,1021.0,1019.0,1020.0,1020.0,1020.0,1021.0,1022.0,1020.0,1020.0,1020.0,1020.0,1020.0,1022.0,1019.0,1020.0,1019.0,1020.0,1021.0,1023.0,1021.0,1020.0,1020.0,1021.0,1021.0,1024.0,1022.0,1020.0,1019.0,1020.0,1021.0,1024.0,1024.0,1019.0,1020.0,1021.0,1022.0,1025.0,1025.0,1020.0,1020.0,1021.0,1021.0,1024.0,1024.0,1020.0,1020.0,1022.0,1023.0,1027.0,1066.0,1020.0,1020.0,1021.0,1022.0,1025.0,2353,2192,1897,	00:06:03.296,-0.0068359375,0.0576171875,1.01806640625,-0.244140625,-0.6103515625,0.18310546875,3.262939453125,0.3680419921875,33.321533203125,761.0,-272.0,-4270.0,0.9576416015625,0.026336669921875,0.01123046875,0.2864990234375,3.2624425945968216,0.3679463714664031,34.97555727964826,0.9534171045221643,0.026186011245280947,0.011615442639320541,0.3002918565527996,1,	00:06:03.297,0.0732421875,0.03466796875,1.01904296875,-0.6103515625,-0.18310546875,0.3662109375,1.93359375,-4.0814208984375,138.8177490234375,366.0,605.0,-1921.0,0.350860595703125,0.039276123046875,0.003265380859375,0.93560791015625,1.9361494782071946,-4.082880630970717,140.1523558986036,0.3399397528061636,0.03923917816437622,0.0037366639039582497,0.939620821769046,1
1782115872.444312,0.230,1018.0,1019.0,1019.0,1019.0,1019.0,1019.0,1019.0,1021.0,1020.0,1020.0,1019.0,1020.0,1020.0,1021.0,1019.0,1020.0,1019.0,1020.0,1019.0,1020.0,1021.0,1020.0,1020.0,1020.0,1020.0,1020.0,1020.0,1020.0,1021.0,1018.0,1020.0,1020.0,1020.0,1019.0,1020.0,1019.0,1020.0,1022.0,1019.0,1020.0,1019.0,1020.0,1020.0,1019.0,1020.0,1020.0,1021.0,1019.0,1019.0,1019.0,1020.0,1019.0,1019.0,1020.0,1020.0,1020.0,1021.0,1019.0,1019.0,1019.0,1020.0,1019.0,1019.0,1020.0,1020.0,1020.0,1022.0,1020.0,1020.0,1020.0,1021.0,1020.0,1019.0,1019.0,1020.0,1020.0,1021.0,1019.0,1020.0,1020.0,1020.0,1019.0,1019.0,1020.0,1020.0,1020.0,1021.0,1019.0,1020.0,1019.0,1020.0,1020.0,1020.0,1020.0,1019.0,1020.0,1021.0,1019.0,1019.0,1019.0,1020.0,1019.0,1019.0,1019.0,1020.0,1020.0,1022.0,1019.0,1020.0,1020.0,1020.0,1019.0,1020.0,1020.0,1020.0,1021.0,1023.0,1021.0,1020.0,1021.0,1022.0,1019.0,1020.0,1020.0,1020.0,1023.0,1021.0,1020.0,1020.0,1020.0,1019.0,1020.0,1020.0,1022.0,1020.0,1020.0,1019.0,1020.0,1021.0,1020.0,1023.0,1021.0,1020.0,1020.0,1020.0,1020.0,1020.0,1021.0,1020.0,1019.0,1020.0,1020.0,1020.0,1020.0,1022.0,1019.0,1020.0,1020.0,1021.0,1020.0,1021.0,1020.0,1020.0,1020.0,1021.0,1020.0,1022.0,1020.0,1020.0,1020.0,1020.0,1020.0,1022.0,1020.0,1020.0,1019.0,1020.0,1020.0,1021.0,1019.0,1020.0,1019.0,1020.0,1021.0,1022.0,1021.0,1019.0,1020.0,1020.0,1020.0,1022.0,1020.0,1020.0,1020.0,1021.0,1021.0,1022.0,1022.0,1019.0,1020.0,1021.0,1020.0,1023.0,1022.0,1020.0,1020.0,1021.0,1021.0,1024.0,1024.0,1020.0,1020.0,1022.0,1021.0,1024.0,1025.0,1019.0,1020.0,1022.0,1020.0,1023.0,1024.0,1020.0,1020.0,1023.0,1022.0,1025.0,1067.0,1020.0,1020.0,1022.0,1022.0,1024.0,2352,2192,1897,	00:06:03.306,-0.00634765625,0.0576171875,1.01806640625,-0.244140625,-0.3662109375,0.18310546875,3.175048828125,0.3240966796875,33.321533203125,769.0,-268.0,-4278.0,0.957672119140625,0.0257568359375,0.010650634765625,0.286529541015625,3.177643950806151,0.3242345257574189,34.97668045682031,0.9534311979084774,0.025594974816636397,0.011029795937014954,0.3003201487088889,1,	00:06:03.307,0.07373046875,0.03515625,1.017578125,-0.3662109375,0.18310546875,0.3662109375,1.988525390625,-4.15283203125,138.8177490234375,362.0,610.0,-1919.0,0.350830078125,0.040008544921875,0.003448486328125,0.935577392578125,1.9858147081529647,-4.15530555154548,140.15223993603132,0.33990563600284235,0.039980102570536004,0.00392829036966158,0.9396011486512373,1
1782115872.452690,0.238,1019.0,1018.0,1019.0,1019.0,1019.0,1019.0,1019.0,1020.0,1019.0,1019.0,1020.0,1019.0,1019.0,1021.0,1019.0,1020.0,1020.0,1019.0,1020.0,1020.0,1021.0,1019.0,1019.0,1019.0,1019.0,1019.0,1020.0,1020.0,1021.0,1018.0,1020.0,1019.0,1020.0,1019.0,1020.0,1020.0,1020.0,1021.0,1018.0,1020.0,1020.0,1020.0,1020.0,1019.0,1020.0,1020.0,1021.0,1019.0,1020.0,1020.0,1020.0,1019.0,1020.0,1019.0,1020.0,1020.0,1021.0,1018.0,1019.0,1019.0,1019.0,1019.0,1019.0,1020.0,1020.0,1020.0,1021.0,1019.0,1020.0,1020.0,1020.0,1020.0,1019.0,1020.0,1020.0,1020.0,1021.0,1019.0,1020.0,1020.0,1020.0,1019.0,1020.0,1020.0,1020.0,1020.0,1021.0,1019.0,1020.0,1020.0,1020.0,1019.0,1019.0,1020.0,1020.0,1020.0,1021.0,1019.0,1020.0,1020.0,1020.0,1019.0,1020.0,1020.0,1020.0,1020.0,1022.0,1019.0,1020.0,1020.0,1020.0,1019.0,1020.0,1020.0,1021.0,1020.0,1022.0,1020.0,1020.0,1022.0,1022.0,1020.0,1020.0,1020.0,1020.0,1023.0,1020.0,1020.0,1021.0,1019.0,1020.0,1020.0,1020.0,1021.0,1019.0,1020.0,1020.0,1020.0,1020.0,1021.0,1022.0,1020.0,1020.0,1019.0,1020.0,1020.0,1020.0,1022.0,1019.0,1020.0,1020.0,1020.0,1020.0,1020.0,1022.0,1019.0,1020.0,1020.0,1020.0,1020.0,1021.0,1018.0,1020.0,1020.0,1020.0,1020.0,1022.0,1020.0,1020.0,1020.0,1020.0,1020.0,1022.0,1020.0,1020.0,1020.0,1020.0,1020.0,1022.0,1019.0,1020.0,1020.0,1020.0,1020.0,1022.0,1020.0,1020.0,1020.0,1020.0,1020.0,1022.0,1019.0,1020.0,1020.0,1021.0,1020.0,1023.0,1021.0,1020.0,1020.0,1020.0,1020.0,1023.0,1022.0,1020.0,1020.0,1021.0,1021.0,1024.0,1024.0,1020.0,1020.0,1021.0,1021.0,1024.0,1024.0,1020.0,1020.0,1021.0,1021.0,1024.0,1024.0,1020.0,1020.0,1022.0,1021.0,1025.0,1064.0,1020.0,1020.0,1021.0,1021.0,1024.0,2351,2193,1898,	00:06:03.317,-0.00634765625,0.0576171875,1.01708984375,-0.244140625,-0.244140625,0.1220703125,3.2574462890625,0.362548828125,33.321533203125,757.0,-267.0,-4265.0,0.9576416015625,0.02630615234375,0.01116943359375,0.2864990234375,3.2568628079788686,0.3631235346696308,34.97825288220498,0.9534110828131628,0.02615196045383465,0.011561311354392721,0.3003160305631719,1,	00:06:03.318,0.0751953125,0.03515625,1.017578125,-0.3662109375,0.6103515625,0.3662109375,1.9720458984375,-4.24072265625,138.8232421875,365.0,607.0,-1919.0,0.35076904296875,0.040679931640625,0.003082275390625,0.935577392578125,1.972441788265174,-4.240302042764167,140.15681451265536,0.3398515399799358,0.04063690093211398,0.003567266009991902,0.9395939802218369,1
1782115872.463037,0.249,1019.0,1019.0,1019.0,1019.0,1019.0,1019.0,1020.0,1021.0,1020.0,1019.0,1020.0,1019.0,1020.0,1021.0,1020.0,1020.0,1019.0,1019.0,1019.0,1020.0,1021.0,1019.0,1020.0,1020.0,1020.0,1020.0,1019.0,1020.0,1021.0,1020.0,1020.0,1019.0,1019.0,1020.0,1020.0,1019.0,1020.0,1021.0,1019.0,1020.0,1020.0,1020.0,1019.0,1020.0,1020.0,1020.0,1021.0,1019.0,1019.0,1019.0,1019.0,1019.0,1020.0,1020.0,1020.0,1020.0,1021.0,1019.0,1020.0,1019.0,1020.0,1019.0,1020.0,1020.0,1020.0,1020.0,1021.0,1019.0,1020.0,1020.0,1020.0,1020.0,1020.0,1020.0,1020.0,1020.0,1021.0,1019.0,1020.0,1019.0,1020.0,1019.0,1020.0,1020.0,1020.0,1020.0,1022.0,1019.0,1020.0,1019.0,1020.0,1019.0,1019.0,1020.0,1020.0,1020.0,1022.0,1019.0,1020.0,1020.0,1020.0,1019.0,1020.0,1019.0,1020.0,1020.0,1021.0,1020.0,1020.0,1020.0,1020.0,1019.0,1020.0,1020.0,1020.0,1021.0,1022.0,1020.0,1020.0,1021.0,1022.0,1020.0,1020.0,1020.0,1021.0,1022.0,1020.0,1020.0,1020.0,1020.0,1020.0,1020.0,1020.0,1021.0,1020.0,1020.0,1019.0,1020.0,1020.0,1021.0,1022.0,1021.0,1020.0,1020.0,1020.0,1020.0,1020.0,1022.0,1020.0,1019.0,1020.0,1020.0,1020.0,1020.0,1021.0,1020.0,1020.0,1019.0,1019.0,1020.0,1021.0,1019.0,1019.0,1020.0,1020.0,1020.0,1022.0,1020.0,1020.0,1020.0,1020.0,1020.0,1022.0,1020.0,1019.0,1019.0,1020.0,1020.0,1021.0,1020.0,1020.0,1020.0,1020.0,1021.0,1022.0,1021.0,1020.0,1020.0,1020.0,1020.0,1021.0,1020.0,1020.0,1020.0,1020.0,1021.0,1022.0,1022.0,1020.0,1020.0,1020.0,1021.0,1023.0,1023.0,1020.0,1019.0,1021.0,1022.0,1023.0,1025.0,1019.0,1020.0,1021.0,1021.0,1024.0,1025.0,1020.0,1020.0,1020.0,1021.0,1023.0,1024.0,1021.0,1020.0,1022.0,1022.0,1024.0,1065.0,1020.0,1020.0,1021.0,1022.0,1024.0,2350,2193,1897,	00:06:03.327,-0.00634765625,0.0576171875,1.01708984375,-0.18310546875,-0.06103515625,0.18310546875,3.1695556640625,0.32958984375,33.321533203125,769.0,-272.0,-4275.0,0.957672119140625,0.02569580078125,0.010650634765625,0.286529541015625,3.170634659921169,0.3269840679036626,34.979538660722255,0.9534254051453571,0.025529170864640828,0.011034938620906258,0.300343950143845,1,	00:06:03.328,0.07470703125,0.03515625,1.0185546875,-0.244140625,1.15966796875,0.3662109375,1.9775390625,-4.1363525390625,138.8232421875,362.0,609.0,-1922.0,0.35076904296875,0.03985595703125,0.003448486328125,0.93560791015625,1.978042070555671,-4.137765161524042,140.1602731001225,0.3398468465265614,0.03981301349974439,0.003919558520036323,0.9396295450458276,1
1782115872.473601,0.259,1019.0,1019.0,1019.0,1019.0,1019.0,1019.0,1019.0,1021.0,1020.0,1019.0,1019.0,1020.0,1020.0,1021.0,1020.0,1020.0,1019.0,1019.0,1020.0,1020.0,1021.0,1020.0,1020.0,1020.0,1019.0,1020.0,1019.0,1020.0,1021.0,1019.0,1020.0,1019.0,1019.0,1019.0,1020.0,1020.0,1020.0,1021.0,1020.0,1019.0,1020.0,1020.0,1020.0,1020.0,1019.0,1020.0,1021.0,1020.0,1020.0,1019.0,1020.0,1019.0,1019.0,1019.0,1020.0,1020.0,1021.0,1019.0,1019.0,1019.0,1020.0,1019.0,1020.0,1020.0,1020.0,1020.0,1021.0,1020.0,1020.0,1020.0,1020.0,1020.0,1020.0,1019.0,1020.0,1020.0,1021.0,1020.0,1020.0,1020.0,1021.0,1019.0,1020.0,1020.0,1020.0,1020.0,1021.0,1020.0,1019.0,1020.0,1020.0,1020.0,1020.0,1020.0,1020.0,1020.0,1021.0,1020.0,1020.0,1020.0,1020.0,1019.0,1019.0,1020.0,1020.0,1021.0,1021.0,1020.0,1020.0,1020.0,1020.0,1019.0,1020.0,1020.0,1019.0,1020.0,1022.0,1021.0,1020.0,1021.0,1022.0,1020.0,1020.0,1020.0,1020.0,1022.0,1020.0,1020.0,1020.0,1019.0,1019.0,1020.0,1020.0,1021.0,1020.0,1020.0,1020.0,1020.0,1020.0,1020.0,1022.0,1021.0,1020.0,1020.0,1020.0,1020.0,1020.0,1022.0,1020.0,1020.0,1020.0,1019.0,1020.0,1020.0,1022.0,1020.0,1020.0,1019.0,1020.0,1020.0,1021.0,1019.0,1019.0,1020.0,1020.0,1020.0,1021.0,1020.0,1020.0,1020.0,1020.0,1020.0,1022.0,1021.0,1020.0,1019.0,1020.0,1020.0,1022.0,1020.0,1020.0,1020.0,1020.0,1020.0,1022.0,1021.0,1020.0,1020.0,1020.0,1020.0,1022.0,1020.0,1020.0,1019.0,1020.0,1020.0,1022.0,1022.0,1020.0,1020.0,1021.0,1021.0,1023.0,1022.0,1020.0,1020.0,1021.0,1021.0,1024.0,1025.0,1020.0,1020.0,1021.0,1021.0,1024.0,1024.0,1020.0,1019.0,1021.0,1021.0,1024.0,1023.0,1020.0,1020.0,1022.0,1022.0,1025.0,1065.0,1020.0,1020.0,1021.0,1021.0,1024.0,2349,2194,1898,	00:06:03.337,-0.00537109375,0.05712890625,1.01708984375,-0.18310546875,0.1220703125,0.18310546875,3.2464599609375,0.28564453125,33.3270263671875,765.0,-268.0,-4276.0,0.9576416015625,0.026458740234375,0.010498046875,0.28656005859375,3.2486204849886215,0.2831875950621544,34.98186003229374,0.9533994400302619,0.026292647254683197,0.010875497979254918,0.30036632300247523,1,	00:06:03.338,0.07421875,0.03515625,1.01904296875,-0.06103515625,1.77001953125,0.30517578125,1.9720458984375,-4.2132568359375,138.8287353515625,365.0,610.0,-1915.0,0.3507080078125,0.040435791015625,0.003173828125,0.93560791015625,1.969396099442714,-4.211303944663587,140.16450959046244,0.33979678722618123,0.040389962650772014,0.0036313093523913185,0.9396241843951345,1
1782115872.483774,0.269,1019.0,1019.0,1019.0,1019.0,1019.0,1020.0,1020.0,1021.0,1019.0,1019.0,1020.0,1020.0,1020.0,1021.0,1020.0,1020.0,1020.0,1019.0,1019.0,1020.0,1021.0,1019.0,1020.0,1020.0,1019.0,1020.0,1020.0,1020.0,1021.0,1019.0,1019.0,1020.0,1020.0,1020.0,1020.0,1020.0,1020.0,1021.0,1019.0,1020.0,1020.0,1020.0,1019.0,1020.0,1019.0,1020.0,1021.0,1019.0,1020.0,1019.0,1020.0,1019.0,1020.0,1019.0,1020.0,1020.0,1021.0,1018.0,1019.0,1020.0,1020.0,1019.0,1020.0,1020.0,1019.0,1020.0,1022.0,1019.0,1020.0,1020.0,1021.0,1020.0,1020.0,1020.0,1020.0,1020.0,1021.0,1019.0,1020.0,1020.0,1020.0,1019.0,1020.0,1019.0,1020.0,1020.0,1021.0,1019.0,1020.0,1020.0,1020.0,1019.0,1019.0,1020.0,1020.0,1020.0,1022.0,1019.0,1020.0,1019.0,1020.0,1019.0,1020.0,1019.0,1020.0,1020.0,1022.0,1018.0,1020.0,1019.0,1020.0,1020.0,1021.0,1019.0,1020.0,1020.0,1023.0,1021.0,1021.0,1021.0,1022.0,1020.0,1020.0,1020.0,1021.0,1023.0,1020.0,1020.0,1020.0,1019.0,1019.0,1020.0,1020.0,1022.0,1020.0,1020.0,1020.0,1020.0,1020.0,1020.0,1023.0,1020.0,1020.0,1020.0,1020.0,1020.0,1020.0,1022.0,1020.0,1020.0,1020.0,1020.0,1020.0,1020.0,1022.0,1019.0,1020.0,1020.0,1020.0,1020.0,1021.0,1019.0,1020.0,1019.0,1020.0,1020.0,1022.0,1020.0,1020.0,1020.0,1020.0,1020.0,1022.0,1020.0,1020.0,1020.0,1020.0,1020.0,1021.0,1019.0,1020.0,1020.0,1020.0,1020.0,1023.0,1020.0,1019.0,1019.0,1020.0,1021.0,1022.0,1019.0,1020.0,1019.0,1020.0,1021.0,1024.0,1021.0,1020.0,1019.0,1020.0,1021.0,1024.0,1022.0,1020.0,1019.0,1020.0,1021.0,1025.0,1023.0,1019.0,1019.0,1020.0,1021.0,1024.0,1023.0,1019.0,1020.0,1021.0,1020.0,1025.0,1022.0,1020.0,1019.0,1021.0,1021.0,1026.0,1062.0,1020.0,1019.0,1021.0,1021.0,1026.0,2348,2194,1898,	00:06:03.347,-0.005859375,0.0576171875,1.01708984375,-0.3662109375,0.244140625,0.1220703125,3.22998046875,0.3790283203125,33.3270263671875,758.0,-265.0,-4268.0,0.9576416015625,0.026092529296875,0.01123046875,0.28656005859375,3.232556497155729,0.3763853753055011,34.98314275023647,0.9534044175234525,0.0259144578457029,0.011609050060715383,0.3003559346475734,1,	00:06:03.348,0.0732421875,0.03564453125,1.0205078125,0.0,2.3193359375,0.30517578125,1.9940185546875,-4.097900390625,138.834228515625,363.0,608.0,-1920.0,0.3507080078125,0.03961181640625,0.003692626953125,0.935638427734375,1.994240865450734,-4.100220199813488,140.16654594660295,0.33979914608088135,0.03955310281904209,0.004166283716564347,0.9396567109642133,1
1782115872.493419,0.279,1019.0,1019.0,1019.0,1019.0,1019.0,1020.0,1020.0,1021.0,1020.0,1019.0,1020.0,1019.0,1020.0,1022.0,1019.0,1020.0,1019.0,1019.0,1020.0,1020.0,1021.0,1019.0,1020.0,1020.0,1019.0,1019.0,1020.0,1020.0,1021.0,1019.0,1020.0,1020.0,1020.0,1020.0,1020.0,1020.0,1020.0,1021.0,1019.0,1020.0,1019.0,1020.0,1019.0,1019.0,1020.0,1020.0,1020.0,1019.0,1020.0,1020.0,1020.0,1019.0,1019.0,1020.0,1020.0,1019.0,1021.0,1018.0,1020.0,1019.0,1020.0,1018.0,1019.0,1019.0,1020.0,1020.0,1021.0,1019.0,1020.0,1020.0,1020.0,1020.0,1019.0,1020.0,1020.0,1020.0,1022.0,1019.0,1020.0,1019.0,1021.0,1020.0,1019.0,1020.0,1020.0,1020.0,1021.0,1019.0,1019.0,1020.0,1020.0,1019.0,1019.0,1020.0,1020.0,1020.0,1021.0,1019.0,1020.0,1020.0,1020.0,1019.0,1020.0,1019.0,1020.0,1020.0,1021.0,1019.0,1020.0,1020.0,1021.0,1020.0,1020.0,1020.0,1020.0,1020.0,1022.0,1020.0,1020.0,1021.0,1022.0,1019.0,1020.0,1020.0,1021.0,1022.0,1020.0,1020.0,1020.0,1020.0,1020.0,1019.0,1020.0,1021.0,1020.0,1020.0,1020.0,1020.0,1020.0,1021.0,1022.0,1020.0,1020.0,1020.0,1019.0,1020.0,1020.0,1022.0,1020.0,1020.0,1020.0,1020.0,1019.0,1020.0,1021.0,1019.0,1020.0,1020.0,1020.0,1020.0,1021.0,1020.0,1020.0,1020.0,1020.0,1020.0,1022.0,1020.0,1020.0,1019.0,1020.0,1020.0,1022.0,1020.0,1020.0,1019.0,1020.0,1020.0,1021.0,1019.0,1020.0,1020.0,1020.0,1021.0,1022.0,1021.0,1019.0,1019.0,1020.0,1020.0,1021.0,1019.0,1020.0,1020.0,1020.0,1021.0,1023.0,1020.0,1020.0,1020.0,1020.0,1021.0,1022.0,1021.0,1020.0,1020.0,1020.0,1021.0,1023.0,1024.0,1020.0,1019.0,1021.0,1021.0,1024.0,1024.0,1020.0,1020.0,1020.0,1021.0,1023.0,1023.0,1020.0,1019.0,1021.0,1022.0,1024.0,1063.0,1020.0,1020.0,1021.0,1021.0,1024.0,2347,2194,1898,	00:06:03.357,-0.005859375,0.05712890625,1.01806640625,-0.42724609375,0.30517578125,0.18310546875,3.1915283203125,0.296630859375,33.3270263671875,769.0,-271.0,-4277.0,0.9576416015625,0.02593994140625,0.010467529296875,0.286590576171875,3.1913579737738904,0.29546629867339713,34.98492950016964,0.9534050524671657,0.02578373141022634,0.01082824678489715,0.3003943311652395,1,	00:06:03.359,0.07373046875,0.03515625,1.0185546875,0.1220703125,2.74658203125,0.244140625,1.95556640625,-4.1583251953125,138.8397216796875,366.0,611.0,-1920.0,0.350677490234375,0.039947509765625,0.00323486328125,0.935638427734375,1.9567139335951753,-4.155966211097735,140.1727215422785,0.3397476684930554,0.03989853644180538,0.003694841410896813,0.9396626930395199,1
1782115872.503819,0.289,1019.0,1019.0,1019.0,1020.0,1019.0,1019.0,1020.0,1021.0,1020.0,1019.0,1020.0,1019.0,1020.0,1021.0,1020.0,1020.0,1019.0,1019.0,1019.0,1020.0,1021.0,1019.0,1020.0,1019.0,1019.0,1020.0,1019.0,1020.0,1021.0,1019.0,1020.0,1019.0,1020.0,1019.0,1019.0,1020.0,1020.0,1022.0,1019.0,1020.0,1019.0,1021.0,1020.0,1020.0,1020.0,1020.0,1021.0,1018.0,1020.0,1020.0,1020.0,1019.0,1020.0,1019.0,1020.0,1021.0,1021.0,1019.0,1020.0,1020.0,1020.0,1019.0,1019.0,1020.0,1020.0,1020.0,1021.0,1019.0,1020.0,1020.0,1020.0,1020.0,1020.0,1020.0,1020.0,1020.0,1022.0,1019.0,1020.0,1019.0,1021.0,1020.0,1019.0,1019.0,1020.0,1020.0,1021.0,1019.0,1020.0,1019.0,1020.0,1019.0,1020.0,1019.0,1020.0,1020.0,1021.0,1019.0,1019.0,1019.0,1020.0,1019.0,1019.0,1020.0,1020.0,1020.0,1022.0,1019.0,1019.0,1019.0,1021.0,1020.0,1020.0,1019.0,1019.0,1020.0,1023.0,1020.0,1021.0,1021.0,1022.0,1020.0,1020.0,1020.0,1021.0,1023.0,1021.0,1020.0,1020.0,1020.0,1020.0,1020.0,1020.0,1022.0,1020.0,1020.0,1020.0,1020.0,1020.0,1020.0,1023.0,1021.0,1020.0,1020.0,1020.0,1019.0,1020.0,1022.0,1020.0,1020.0,1020.0,1020.0,1019.0,1020.0,1022.0,1020.0,1020.0,1019.0,1020.0,1020.0,1021.0,1018.0,1020.0,1019.0,1020.0,1020.0,1022.0,1020.0,1021.0,1020.0,1019.0,1020.0,1022.0,1020.0,1020.0,1020.0,1020.0,1020.0,1022.0,1019.0,1020.0,1020.0,1020.0,1020.0,1023.0,1020.0,1020.0,1020.0,1020.0,1020.0,1022.0,1019.0,1020.0,1020.0,1020.0,1020.0,1022.0,1020.0,1020.0,1020.0,1020.0,1021.0,1023.0,1021.0,1020.0,1019.0,1020.0,1021.0,1024.0,1023.0,1020.0,1019.0,1020.0,1021.0,1024.0,1023.0,1019.0,1020.0,1020.0,1021.0,1024.0,1022.0,1020.0,1020.0,1021.0,1021.0,1026.0,1062.0,1020.0,1020.0,1020.0,1021.0,1025.0,2346,2194,1898,	00:06:03.368,-0.00634765625,0.0576171875,1.017578125,-0.54931640625,0.42724609375,0.18310546875,3.240966796875,0.37353515625,33.33251953125,756.0,-265.0,-4268.0,0.9576416015625,0.02618408203125,0.01123046875,0.286590576171875,3.243299503908049,0.3709980614573175,34.98732589198102,0.9533907650487834,0.026017545544906408,0.011593338430407892,0.3003909634918336,1,	00:06:03.369,0.07470703125,0.03515625,1.01904296875,0.30517578125,3.35693359375,0.18310546875,2.0050048828125,-4.2022705078125,138.8397216796875,365.0,611.0,-1921.0,0.35064697265625,0.04046630859375,0.00347900390625,0.935638427734375,2.0039921353707117,-4.202386856616607,140.1724654391559,0.3397215920859147,0.0404191901931312,0.003944329647894283,0.9396488552636946,1
1782115872.515038,0.301,1019.0,1019.0,1019.0,1020.0,1020.0,1019.0,1019.0,1020.0,1020.0,1019.0,1020.0,1020.0,1020.0,1021.0,1020.0,1020.0,1020.0,1019.0,1020.0,1020.0,1021.0,1019.0,1020.0,1020.0,1020.0,1019.0,1020.0,1020.0,1021.0,1019.0,1019.0,1019.0,1020.0,1020.0,1020.0,1020.0,1019.0,1021.0,1019.0,1020.0,1020.0,1020.0,1020.0,1019.0,1020.0,1020.0,1021.0,1019.0,1020.0,1019.0,1019.0,1019.0,1020.0,1019.0,1020.0,1020.0,1021.0,1019.0,1020.0,1019.0,1020.0,1019.0,1019.0,1020.0,1020.0,1020.0,1022.0,1019.0,1020.0,1020.0,1020.0,1020.0,1020.0,1019.0,1020.0,1020.0,1021.0,1019.0,1020.0,1020.0,1020.0,1019.0,1020.0,1020.0,1020.0,1020.0,1021.0,1019.0,1020.0,1020.0,1020.0,1019.0,1019.0,1020.0,1020.0,1020.0,1022.0,1019.0,1020.0,1020.0,1020.0,1019.0,1020.0,1019.0,1020.0,1020.0,1021.0,1019.0,1020.0,1020.0,1021.0,1019.0,1020.0,1020.0,1020.0,1020.0,1023.0,1020.0,1020.0,1021.0,1022.0,1019.0,1019.0,1020.0,1021.0,1022.0,1020.0,1020.0,1020.0,1020.0,1019.0,1020.0,1020.0,1022.0,1020.0,1019.0,1020.0,1020.0,1020.0,1021.0,1022.0,1020.0,1020.0,1019.0,1019.0,1020.0,1020.0,1022.0,1020.0,1019.0,1020.0,1019.0,1020.0,1020.0,1022.0,1019.0,1020.0,1019.0,1020.0,1020.0,1022.0,1019.0,1020.0,1019.0,1020.0,1020.0,1022.0,1020.0,1020.0,1019.0,1020.0,1020.0,1021.0,1020.0,1019.0,1019.0,1020.0,1020.0,1021.0,1019.0,1020.0,1020.0,1020.0,1021.0,1022.0,1020.0,1020.0,1020.0,1019.0,1020.0,1021.0,1019.0,1020.0,1020.0,1020.0,1021.0,1022.0,1020.0,1020.0,1020.0,1020.0,1021.0,1022.0,1021.0,1019.0,1019.0,1021.0,1021.0,1022.0,1022.0,1020.0,1019.0,1021.0,1021.0,1023.0,1022.0,1019.0,1019.0,1020.0,1021.0,1023.0,1022.0,1020.0,1020.0,1021.0,1022.0,1025.0,1060.0,1020.0,1020.0,1020.0,1022.0,1023.0,2345,2194,1899,	00:06:03.378,-0.0048828125,0.0576171875,1.01806640625,-0.6103515625,0.6103515625,0.18310546875,3.2354736328125,0.28564453125,33.33251953125,769.0,-273.0,-4279.0,0.957611083984375,0.02630615234375,0.010467529296875,0.28662109375,3.2333075502601396,0.28540119334644276,34.989481582246505,0.953383083419753,0.026158716901074578,0.010855515964943094,0.3004306501545216,1,	00:06:03.379,0.072265625,0.03515625,1.021484375,0.48828125,4.33349609375,0.18310546875,1.988525390625,-4.0704345703125,138.8397216796875,367.0,610.0,-1917.0,0.35064697265625,0.039337158203125,0.003753662109375,0.9356689453125,1.9900458509392234,-4.069643851298778,140.17716567733885,0.33972110213101997,0.03928965561586308,0.0042265057412529386,0.9396957126526071,1
1782115872.525215,0.311,1019.0,1019.0,1019.0,1019.0,1019.0,1019.0,1020.0,1021.0,1020.0,1020.0,1019.0,1020.0,1019.0,1020.0,1019.0,1020.0,1020.0,1019.0,1020.0,1020.0,1021.0,1019.0,1020.0,1020.0,1020.0,1019.0,1019.0,1020.0,1021.0,1020.0,1019.0,1019.0,1020.0,1019.0,1019.0,1019.0,1020.0,1021.0,1020.0,1020.0,1019.0,1020.0,1019.0,1020.0,1019.0,1020.0,1021.0,1019.0,1020.0,1020.0,1020.0,1019.0,1020.0,1020.0,1020.0,1020.0,1021.0,1020.0,1020.0,1019.0,1020.0,1019.0,1019.0,1020.0,1020.0,1020.0,1021.0,1019.0,1020.0,1020.0,1021.0,1020.0,1020.0,1020.0,1019.0,1020.0,1021.0,1019.0,1020.0,1019.0,1021.0,1019.0,1019.0,1019.0,1020.0,1020.0,1021.0,1019.0,1020.0,1020.0,1020.0,1019.0,1019.0,1020.0,1020.0,1020.0,1021.0,1019.0,1019.0,1020.0,1020.0,1019.0,1020.0,1020.0,1019.0,1020.0,1022.0,1020.0,1020.0,1020.0,1021.0,1019.0,1020.0,1019.0,1020.0,1021.0,1023.0,1021.0,1020.0,1021.0,1022.0,1020.0,1019.0,1020.0,1020.0,1022.0,1021.0,1020.0,1021.0,1020.0,1020.0,1020.0,1020.0,1021.0,1020.0,1020.0,1020.0,1019.0,1020.0,1020.0,1022.0,1020.0,1020.0,1020.0,1020.0,1019.0,1020.0,1022.0,1020.0,1020.0,1020.0,1020.0,1020.0,1020.0,1021.0,1019.0,1020.0,1020.0,1019.0,1020.0,1021.0,1019.0,1020.0,1020.0,1020.0,1020.0,1022.0,1020.0,1020.0,1019.0,1020.0,1020.0,1022.0,1020.0,1019.0,1020.0,1020.0,1020.0,1021.0,1019.0,1020.0,1019.0,1020.0,1021.0,1022.0,1020.0,1019.0,1019.0,1020.0,1020.0,1021.0,1019.0,1020.0,1020.0,1020.0,1020.0,1022.0,1020.0,1020.0,1020.0,1020.0,1020.0,1022.0,1020.0,1021.0,1020.0,1020.0,1021.0,1023.0,1022.0,1020.0,1019.0,1021.0,1021.0,1023.0,1022.0,1020.0,1020.0,1020.0,1020.0,1023.0,1022.0,1020.0,1020.0,1021.0,1022.0,1024.0,1059.0,1020.0,1020.0,1020.0,1021.0,1024.0,2344,2194,1898,	00:06:03.388,-0.005859375,0.05810546875,1.01806640625,-0.67138671875,0.79345703125,0.244140625,3.2794189453125,0.3680419921875,33.3380126953125,758.0,-263.0,-4266.0,0.957611083984375,0.026519775390625,0.011260986328125,0.28662109375,3.2820016748623746,0.36614427924534887,34.992676809392606,0.9533676609281857,0.0263517291950041,0.011655642102690746,0.30043274700326383,1,	00:06:03.390,0.0732421875,0.03515625,1.02294921875,0.54931640625,5.2490234375,0.18310546875,1.93359375,-4.0869140625,138.8507080078125,368.0,610.0,-1922.0,0.3505859375,0.039276123046875,0.003265380859375,0.935699462890625,1.9327198662933514,-4.084351452465701,140.18527464528,0.33967062877424814,0.03923999346552821,0.0037154368607842897,0.93971819307166,1
1782115872.535122,0.321,1018.0,1019.0,1019.0,1020.0,1019.0,1019.0,1020.0,1021.0,1020.0,1020.0,1019.0,1019.0,1020.0,1021.0,1019.0,1020.0,1020.0,1019.0,1019.0,1020.0,1021.0,1019.0,1020.0,1020.0,1020.0,1019.0,1020.0,1020.0,1021.0,1019.0,1020.0,1021.0,1020.0,1020.0,1019.0,1020.0,1020.0,1021.0,1019.0,1020.0,1021.0,1020.0,1019.0,1020.0,1020.0,1020.0,1021.0,1019.0,1020.0,1020.0,1020.0,1018.0,1020.0,1020.0,1019.0,1019.0,1021.0,1019.0,1020.0,1020.0,1020.0,1019.0,1020.0,1019.0,1020.0,1020.0,1021.0,1019.0,1020.0,1021.0,1021.0,1020.0,1019.0,1020.0,1020.0,1020.0,1021.0,1020.0,1020.0,1020.0,1020.0,1020.0,1020.0,1019.0,1019.0,1020.0,1021.0,1019.0,1020.0,1020.0,1020.0,1019.0,1020.0,1020.0,1020.0,1019.0,1021.0,1019.0,1020.0,1020.0,1020.0,1019.0,1019.0,1019.0,1020.0,1020.0,1021.0,1019.0,1020.0,1020.0,1021.0,1020.0,1020.0,1020.0,1020.0,1020.0,1022.0,1021.0,1021.0,1022.0,1022.0,1020.0,1020.0,1020.0,1020.0,1022.0,1021.0,1020.0,1021.0,1020.0,1020.0,1020.0,1020.0,1021.0,1019.0,1020.0,1019.0,1020.0,1020.0,1020.0,1022.0,1020.0,1021.0,1019.0,1020.0,1020.0,1020.0,1021.0,1019.0,1020.0,1020.0,1020.0,1020.0,1020.0,1021.0,1019.0,1020.0,1020.0,1020.0,1020.0,1021.0,1019.0,1020.0,1020.0,1020.0,1019.0,1021.0,1019.0,1020.0,1019.0,1020.0,1020.0,1022.0,1020.0,1019.0,1020.0,1020.0,1020.0,1022.0,1019.0,1019.0,1020.0,1020.0,1020.0,1022.0,1020.0,1020.0,1020.0,1020.0,1020.0,1021.0,1019.0,1020.0,1020.0,1020.0,1021.0,1022.0,1020.0,1020.0,1020.0,1020.0,1020.0,1022.0,1020.0,1020.0,1020.0,1020.0,1021.0,1022.0,1022.0,1020.0,1020.0,1021.0,1021.0,1023.0,1022.0,1020.0,1020.0,1020.0,1021.0,1022.0,1021.0,1021.0,1020.0,1022.0,1021.0,1024.0,1058.0,1020.0,1020.0,1021.0,1021.0,1023.0,2343,2194,1898,	00:06:03.399,-0.00634765625,0.0576171875,1.0185546875,-0.6103515625,0.91552734375,0.244140625,3.18603515625,0.3570556640625,33.3380126953125,764.0,-271.0,-4272.0,0.957611083984375,0.0257568359375,0.010955810546875,0.286651611328125,3.186478646988352,0.3556942339148952,34.99507571758125,0.9533825180675224,0.025584173868921766,0.011318795820768909,0.3004648218208629,1,	00:06:03.400,0.07275390625,0.03662109375,1.0224609375,0.6103515625,6.28662109375,0.18310546875,2.0269775390625,-4.010009765625,138.84521484375,369.0,614.0,-1916.0,0.3505859375,0.038970947265625,0.0042724609375,0.935699462890625,2.0294926575634458,-4.008629099782673,140.1828206280249,0.33967643298578304,0.03890624318091812,0.00473341239385871,0.9397253960188111,1
1782115872.545634,0.331,1019.0,1019.0,1019.0,1019.0,1019.0,1020.0,1020.0,1021.0,1020.0,1019.0,1020.0,1019.0,1020.0,1020.0,1020.0,1020.0,1019.0,1020.0,1020.0,1019.0,1020.0,1019.0,1020.0,1020.0,1020.0,1020.0,1019.0,1020.0,1021.0,1019.0,1020.0,1019.0,1019.0,1020.0,1020.0,1020.0,1020.0,1021.0,1019.0,1020.0,1020.0,1020.0,1019.0,1019.0,1019.0,1020.0,1021.0,1019.0,1019.0,1020.0,1020.0,1020.0,1019.0,1020.0,1020.0,1019.0,1021.0,1019.0,1020.0,1019.0,1020.0,1019.0,1020.0,1020.0,1020.0,1019.0,1022.0,1020.0,1020.0,1020.0,1020.0,1020.0,1019.0,1020.0,1019.0,1020.0,1021.0,1019.0,1020.0,1019.0,1020.0,1019.0,1020.0,1020.0,1020.0,1020.0,1021.0,1020.0,1020.0,1019.0,1021.0,1019.0,1020.0,1019.0,1019.0,1020.0,1021.0,1019.0,1020.0,1020.0,1021.0,1019.0,1020.0,1020.0,1020.0,1020.0,1021.0,1019.0,1020.0,1020.0,1021.0,1020.0,1019.0,1020.0,1021.0,1020.0,1022.0,1021.0,1020.0,1021.0,1022.0,1019.0,1020.0,1020.0,1020.0,1021.0,1021.0,1020.0,1020.0,1020.0,1019.0,1020.0,1020.0,1021.0,1020.0,1020.0,1020.0,1020.0,1020.0,1020.0,1021.0,1020.0,1020.0,1020.0,1020.0,1020.0,1020.0,1021.0,1020.0,1020.0,1020.0,1019.0,1019.0,1020.0,1021.0,1019.0,1020.0,1020.0,1020.0,1020.0,1021.0,1019.0,1020.0,1020.0,1020.0,1020.0,1021.0,1019.0,1020.0,1020.0,1020.0,1020.0,1021.0,1020.0,1020.0,1019.0,1020.0,1020.0,1021.0,1019.0,1020.0,1020.0,1020.0,1020.0,1022.0,1020.0,1020.0,1019.0,1020.0,1020.0,1022.0,1020.0,1020.0,1020.0,1020.0,1020.0,1021.0,1020.0,1020.0,1020.0,1020.0,1020.0,1021.0,1021.0,1020.0,1019.0,1019.0,1020.0,1022.0,1022.0,1020.0,1020.0,1020.0,1020.0,1022.0,1022.0,1020.0,1019.0,1020.0,1020.0,1021.0,1021.0,1021.0,1020.0,1021.0,1021.0,1024.0,1057.0,1020.0,1019.0,1020.0,1020.0,1022.0,2342,2194,1898,	00:06:03.409,-0.00634765625,0.056640625,1.017578125,-0.732421875,0.9765625,0.244140625,3.14208984375,0.450439453125,33.343505859375,761.0,-268.0,-4269.0,0.9576416015625,0.025115966796875,0.0115966796875,0.286651611328125,3.1394563166584555,0.44791696103068296,34.997771879049616,0.9533898049692566,0.024950717364437578,0.011963328135883812,0.30046999894098575,1,	00:06:03.410,0.072265625,0.03564453125,1.02099609375,0.67138671875,7.26318359375,0.1220703125,1.9775390625,-4.010009765625,138.856201171875,370.0,612.0,-1922.0,0.350555419921875,0.038787841796875,0.003875732421875,0.93572998046875,1.9786554686859346,-4.0077022745739335,140.19062615097653,0.33962987606703926,0.038747654365241496,0.004321909891483227,0.9397507582645355,1
1782115872.554843,0.341,1018.0,1019.0,1019.0,1019.0,1020.0,1020.0,1020.0,1020.0,1021.0,1019.0,1019.0,1019.0,1019.0,1019.0,1020.0,1020.0,1019.0,1020.0,1020.0,1019.0,1020.0,1020.0,1020.0,1020.0,1020.0,1019.0,1020.0,1020.0,1020.0,1020.0,1020.0,1019.0,1020.0,1020.0,1020.0,1020.0,1020.0,1020.0,1020.0,1020.0,1019.0,1020.0,1019.0,1019.0,1020.0,1020.0,1020.0,1020.0,1020.0,1019.0,1019.0,1019.0,1019.0,1020.0,1020.0,1019.0,1020.0,1019.0,1020.0,1019.0,1020.0,1019.0,1020.0,1020.0,1020.0,1020.0,1020.0,1020.0,1020.0,1020.0,1020.0,1020.0,1020.0,1020.0,1020.0,1020.0,1020.0,1020.0,1020.0,1020.0,1021.0,1019.0,1020.0,1020.0,1020.0,1020.0,1020.0,1020.0,1020.0,1020.0,1020.0,1019.0,1019.0,1019.0,1020.0,1020.0,1021.0,1020.0,1020.0,1019.0,1020.0,1019.0,1020.0,1020.0,1020.0,1020.0,1020.0,1020.0,1020.0,1020.0,1020.0,1019.0,1020.0,1020.0,1020.0,1020.0,1021.0,1021.0,1020.0,1021.0,1022.0,1020.0,1020.0,1020.0,1020.0,1021.0,1021.0,1020.0,1020.0,1019.0,1019.0,1019.0,1020.0,1021.0,1020.0,1020.0,1019.0,1019.0,1020.0,1020.0,1021.0,1021.0,1020.0,1019.0,1020.0,1020.0,1020.0,1020.0,1020.0,1020.0,1020.0,1020.0,1020.0,1020.0,1021.0,1020.0,1020.0,1020.0,1020.0,1019.0,1020.0,1020.0,1020.0,1019.0,1019.0,1020.0,1020.0,1020.0,1020.0,1019.0,1020.0,1019.0,1021.0,1021.0,1020.0,1019.0,1019.0,1020.0,1021.0,1020.0,1020.0,1019.0,1019.0,1019.0,1021.0,1020.0,1020.0,1020.0,1020.0,1020.0,1020.0,1020.0,1020.0,1020.0,1020.0,1020.0,1021.0,1021.0,1020.0,1019.0,1020.0,1020.0,1022.0,1020.0,1020.0,1020.0,1019.0,1021.0,1021.0,1022.0,1020.0,1020.0,1021.0,1020.0,1022.0,1021.0,1019.0,1019.0,1020.0,1020.0,1021.0,1021.0,1021.0,1020.0,1021.0,1020.0,1023.0,1056.0,1020.0,1020.0,1020.0,1020.0,1022.0,2342,2193,1898,	00:06:03.419,-0.00537109375,0.05615234375,1.01708984375,-0.79345703125,1.03759765625,0.3662109375,3.14208984375,0.3680419921875,33.3489990234375,768.0,-270.0,-4271.0,0.957611083984375,0.025360107421875,0.010955810546875,0.286712646484375,3.1443571633840253,0.3673021019349453,35.00209351256253,0.9533739859411269,0.025202582683826146,0.01130646509913615,0.3005246023269225,1,	00:06:03.420,0.0703125,0.03515625,1.01904296875,0.79345703125,8.1787109375,0.18310546875,1.9830322265625,-3.834228515625,138.8616943359375,374.0,614.0,-1918.0,0.350555419921875,0.037384033203125,0.004425048828125,0.935791015625,1.9822439568642614,-3.8346647779143033,140.1955780640657,0.3396301814022841,0.03733959971840447,0.004867516427793083,0.9398049805450841,1
1782115872.568085,0.354,1018.0,1019.0,1019.0,1019.0,1019.0,1020.0,1019.0,1020.0,1021.0,1020.0,1019.0,1020.0,1020.0,1020.0,1020.0,1020.0,1020.0,1020.0,1020.0,1019.0,1020.0,1020.0,1020.0,1019.0,1020.0,1020.0,1020.0,1020.0,1021.0,1020.0,1019.0,1019.0,1020.0,1019.0,1020.0,1020.0,1020.0,1020.0,1020.0,1019.0,1020.0,1020.0,1020.0,1020.0,1019.0,1020.0,1020.0,1020.0,1020.0,1020.0,1021.0,1019.0,1020.0,1020.0,1020.0,1020.0,1020.0,1020.0,1020.0,1019.0,1019.0,1019.0,1020.0,1020.0,1020.0,1020.0,1021.0,1020.0,1020.0,1020.0,1021.0,1020.0,1019.0,1019.0,1019.0,1020.0,1020.0,1020.0,1020.0,1020.0,1020.0,1019.0,1019.0,1020.0,1020.0,1020.0,1020.0,1020.0,1020.0,1020.0,1020.0,1019.0,1020.0,1020.0,1020.0,1020.0,1020.0,1020.0,1020.0,1020.0,1021.0,1019.0,1020.0,1020.0,1020.0,1020.0,1020.0,1020.0,1020.0,1019.0,1021.0,1019.0,1020.0,1020.0,1020.0,1020.0,1021.0,1022.0,1020.0,1021.0,1023.0,1019.0,1019.0,1020.0,1020.0,1021.0,1021.0,1020.0,1020.0,1020.0,1019.0,1019.0,1020.0,1021.0,1020.0,1020.0,1020.0,1019.0,1020.0,1020.0,1020.0,1021.0,1020.0,1020.0,1020.0,1019.0,1020.0,1020.0,1020.0,1020.0,1020.0,1020.0,1020.0,1020.0,1020.0,1019.0,1020.0,1020.0,1020.0,1020.0,1020.0,1020.0,1019.0,1019.0,1020.0,1020.0,1020.0,1020.0,1020.0,1020.0,1019.0,1020.0,1021.0,1020.0,1020.0,1019.0,1020.0,1020.0,1021.0,1019.0,1020.0,1020.0,1019.0,1020.0,1021.0,1020.0,1019.0,1020.0,1019.0,1020.0,1021.0,1019.0,1020.0,1020.0,1019.0,1020.0,1021.0,1020.0,1020.0,1020.0,1020.0,1019.0,1021.0,1020.0,1019.0,1020.0,1019.0,1021.0,1022.0,1022.0,1020.0,1020.0,1020.0,1020.0,1021.0,1022.0,1020.0,1020.0,1019.0,1020.0,1021.0,1021.0,1020.0,1020.0,1020.0,1021.0,1023.0,1056.0,1019.0,1021.0,1020.0,1020.0,1022.0,2341,2193,1898,	00:06:03.429,-0.005859375,0.0576171875,1.01806640625,-0.79345703125,1.15966796875,0.42724609375,3.218994140625,0.3460693359375,33.3544921875,761.0,-260.0,-4266.0,0.95758056640625,0.02606201171875,0.010955810546875,0.286773681640625,3.2214240223335544,0.344527711273344,35.00752494071539,0.9533414839594666,0.025902977577702175,0.011320340218242441,0.3005676306788776,1,	00:06:03.430,0.068359375,0.0361328125,1.01806640625,0.91552734375,8.72802734375,0.18310546875,2.0819091796875,-3.75732421875,138.8616943359375,375.0,614.0,-1921.0,0.350555419921875,0.03704833984375,0.0054931640625,0.935791015625,2.0825274873192363,-3.755408786887417,140.19439076393846,0.3396267179667178,0.03698714513226527,0.005925259340887952,0.9398140958933653,1
1782115872.576551,0.362,1019.0,1019.0,1019.0,1019.0,1019.0,1019.0,1020.0,1020.0,1021.0,1020.0,1019.0,1019.0,1020.0,1019.0,1021.0,1020.0,1020.0,1020.0,1020.0,1020.0,1020.0,1020.0,1019.0,1019.0,1020.0,1019.0,1019.0,1020.0,1019.0,1020.0,1020.0,1020.0,1019.0,1019.0,1019.0,1019.0,1020.0,1020.0,1020.0,1020.0,1020.0,1020.0,1020.0,1019.0,1020.0,1021.0,1020.0,1020.0,1019.0,1020.0,1020.0,1019.0,1019.0,1020.0,1020.0,1019.0,1020.0,1020.0,1020.0,1019.0,1020.0,1019.0,1020.0,1020.0,1020.0,1020.0,1021.0,1020.0,1020.0,1020.0,1020.0,1020.0,1020.0,1020.0,1020.0,1020.0,1021.0,1020.0,1020.0,1020.0,1020.0,1019.0,1020.0,1020.0,1019.0,1020.0,1021.0,1020.0,1020.0,1019.0,1020.0,1019.0,1019.0,1020.0,1020.0,1020.0,1021.0,1019.0,1019.0,1020.0,1021.0,1019.0,1020.0,1020.0,1020.0,1020.0,1020.0,1019.0,1020.0,1020.0,1020.0,1019.0,1019.0,1020.0,1020.0,1021.0,1021.0,1021.0,1020.0,1021.0,1022.0,1019.0,1020.0,1020.0,1021.0,1021.0,1021.0,1020.0,1021.0,1019.0,1020.0,1019.0,1021.0,1021.0,1020.0,1020.0,1020.0,1019.0,1020.0,1020.0,1021.0,1021.0,1020.0,1020.0,1020.0,1020.0,1020.0,1021.0,1020.0,1020.0,1020.0,1020.0,1020.0,1020.0,1021.0,1020.0,1020.0,1020.0,1020.0,1021.0,1020.0,1019.0,1020.0,1019.0,1020.0,1020.0,1021.0,1020.0,1020.0,1020.0,1020.0,1020.0,1021.0,1020.0,1019.0,1020.0,1020.0,1020.0,1021.0,1020.0,1020.0,1020.0,1020.0,1020.0,1020.0,1021.0,1020.0,1020.0,1020.0,1020.0,1021.0,1020.0,1020.0,1020.0,1020.0,1020.0,1021.0,1020.0,1019.0,1020.0,1020.0,1020.0,1021.0,1020.0,1019.0,1020.0,1020.0,1020.0,1022.0,1022.0,1019.0,1020.0,1020.0,1020.0,1021.0,1021.0,1020.0,1020.0,1019.0,1020.0,1022.0,1020.0,1020.0,1020.0,1021.0,1021.0,1023.0,1055.0,1020.0,1020.0,1020.0,1020.0,1022.0,2340,2192,1897,	00:06:03.440,-0.0068359375,0.056640625,1.01806640625,-0.8544921875,1.15966796875,0.48828125,3.153076171875,0.4229736328125,33.3599853515625,769.0,-270.0,-4273.0,0.95758056640625,0.0252685546875,0.01141357421875,0.28680419921875,3.1503312284599376,0.4227538363217508,35.01262712491389,0.9533474526344992,0.025105691993469258,0.011785757703003616,0.30059846090791376,1,	00:06:03.441,0.06640625,0.0361328125,1.017578125,0.91552734375,9.27734375,0.244140625,2.010498046875,-3.6199951171875,138.8726806640625,382.0,612.0,-1926.0,0.35052490234375,0.035736083984375,0.00531005859375,0.93585205078125,2.009020378703716,-3.6224136822809485,140.20551872057956,0.33959094068667806,0.03567839738649639,0.0057213085550234565,0.939878881341573,1
1782115872.585584,0.371,1018.0,1019.0,1019.0,1019.0,1020.0,1020.0,1020.0,1020.0,1021.0,1020.0,1020.0,1019.0,1020.0,1020.0,1021.0,1020.0,1019.0,1020.0,1019.0,1020.0,1020.0,1020.0,1019.0,1020.0,1019.0,1019.0,1020.0,1020.0,1020.0,1020.0,1020.0,1020.0,1020.0,1020.0,1019.0,1020.0,1020.0,1020.0,1020.0,1019.0,1019.0,1020.0,1019.0,1020.0,1020.0,1020.0,1020.0,1020.0,1020.0,1019.0,1020.0,1019.0,1019.0,1020.0,1020.0,1020.0,1020.0,1020.0,1020.0,1019.0,1020.0,1019.0,1019.0,1020.0,1020.0,1020.0,1021.0,1020.0,1020.0,1020.0,1020.0,1020.0,1020.0,1020.0,1020.0,1020.0,1020.0,1020.0,1020.0,1019.0,1020.0,1018.0,1019.0,1019.0,1020.0,1020.0,1020.0,1020.0,1019.0,1019.0,1020.0,1019.0,1019.0,1019.0,1019.0,1020.0,1021.0,1020.0,1020.0,1019.0,1020.0,1019.0,1019.0,1019.0,1020.0,1020.0,1022.0,1020.0,1020.0,1020.0,1021.0,1020.0,1020.0,1020.0,1020.0,1020.0,1022.0,1022.0,1021.0,1021.0,1022.0,1020.0,1020.0,1020.0,1021.0,1021.0,1022.0,1020.0,1020.0,1020.0,1019.0,1020.0,1020.0,1021.0,1020.0,1020.0,1020.0,1020.0,1020.0,1021.0,1021.0,1021.0,1020.0,1020.0,1020.0,1020.0,1020.0,1020.0,1021.0,1020.0,1020.0,1019.0,1020.0,1020.0,1021.0,1020.0,1020.0,1019.0,1019.0,1020.0,1021.0,1019.0,1020.0,1020.0,1020.0,1020.0,1021.0,1020.0,1020.0,1019.0,1020.0,1020.0,1021.0,1020.0,1019.0,1019.0,1020.0,1020.0,1021.0,1019.0,1020.0,1020.0,1020.0,1020.0,1022.0,1020.0,1020.0,1020.0,1020.0,1021.0,1021.0,1020.0,1019.0,1019.0,1019.0,1020.0,1021.0,1020.0,1020.0,1020.0,1019.0,1021.0,1021.0,1020.0,1020.0,1020.0,1020.0,1020.0,1022.0,1021.0,1019.0,1020.0,1020.0,1021.0,1021.0,1021.0,1020.0,1019.0,1020.0,1020.0,1021.0,1020.0,1021.0,1020.0,1020.0,1021.0,1023.0,1054.0,1020.0,1020.0,1020.0,1021.0,1022.0,2339,2192,1897,	00:06:03.450,-0.0068359375,0.05712890625,1.0185546875,-0.79345703125,1.15966796875,0.54931640625,3.218994140625,0.384521484375,33.365478515625,765.0,-260.0,-4272.0,0.957550048828125,0.02593994140625,0.011260986328125,0.286865234375,3.219305146070955,0.38422147260207495,35.019293187122365,0.9533129676968563,0.025779981520732523,0.011647643205811662,0.30065613345074693,1,	00:06:03.451,0.06494140625,0.0361328125,1.01904296875,0.8544921875,9.3994140625,0.30517578125,2.0819091796875,-3.592529296875,138.8726806640625,382.0,618.0,-1923.0,0.350494384765625,0.035736083984375,0.0059814453125,0.935882568359375,2.0818770138036577,-3.593332459059469,140.20780585986844,0.33955648021106655,0.035655747305853976,0.006406038419008595,0.9398877736743398,1
1782115872.596308,0.382,1018.0,1019.0,1019.0,1019.0,1019.0,1019.0,1020.0,1020.0,1021.0,1020.0,1019.0,1019.0,1020.0,1020.0,1021.0,1020.0,1019.0,1019.0,1019.0,1019.0,1020.0,1020.0,1020.0,1019.0,1020.0,1019.0,1020.0,1020.0,1020.0,1020.0,1020.0,1019.0,1020.0,1020.0,1020.0,1020.0,1020.0,1020.0,1020.0,1019.0,1019.0,1020.0,1020.0,1019.0,1020.0,1020.0,1020.0,1019.0,1020.0,1019.0,1020.0,1019.0,1020.0,1020.0,1019.0,1020.0,1020.0,1019.0,1020.0,1019.0,1020.0,1019.0,1019.0,1019.0,1019.0,1020.0,1021.0,1020.0,1020.0,1020.0,1021.0,1020.0,1020.0,1019.0,1019.0,1020.0,1021.0,1020.0,1020.0,1020.0,1020.0,1019.0,1020.0,1019.0,1019.0,1020.0,1021.0,1020.0,1020.0,1020.0,1020.0,1019.0,1019.0,1019.0,1020.0,1019.0,1020.0,1020.0,1019.0,1019.0,1020.0,1019.0,1020.0,1020.0,1020.0,1020.0,1021.0,1021.0,1020.0,1019.0,1021.0,1020.0,1021.0,1019.0,1020.0,1020.0,1021.0,1022.0,1020.0,1021.0,1022.0,1020.0,1020.0,1020.0,1021.0,1022.0,1021.0,1020.0,1020.0,1020.0,1020.0,1020.0,1020.0,1021.0,1020.0,1019.0,1020.0,1020.0,1020.0,1020.0,1021.0,1021.0,1020.0,1020.0,1020.0,1020.0,1020.0,1021.0,1020.0,1020.0,1020.0,1020.0,1020.0,1020.0,1020.0,1020.0,1019.0,1020.0,1020.0,1020.0,1020.0,1019.0,1020.0,1020.0,1020.0,1020.0,1021.0,1020.0,1020.0,1020.0,1020.0,1020.0,1021.0,1020.0,1019.0,1020.0,1020.0,1019.0,1021.0,1019.0,1020.0,1020.0,1020.0,1020.0,1021.0,1020.0,1020.0,1020.0,1020.0,1020.0,1021.0,1020.0,1020.0,1020.0,1020.0,1020.0,1020.0,1020.0,1020.0,1019.0,1020.0,1020.0,1021.0,1020.0,1020.0,1020.0,1021.0,1020.0,1021.0,1021.0,1020.0,1019.0,1021.0,1020.0,1021.0,1020.0,1019.0,1020.0,1020.0,1020.0,1021.0,1021.0,1021.0,1020.0,1022.0,1021.0,1022.0,1053.0,1020.0,1020.0,1021.0,1020.0,1022.0,2338,2191,1898,	00:06:03.460,-0.00634765625,0.056640625,1.017578125,-0.79345703125,1.220703125,0.54931640625,3.14208984375,0.340576171875,33.3709716796875,768.0,-266.0,-4269.0,0.957550048828125,0.025390625,0.01068115234375,0.28692626953125,3.1405899948064087,0.338050184163678,35.02502037130321,0.9533133114381009,0.02524578606520934,0.011058280729868352,0.3007226212777676,1,	00:06:03.461,0.06201171875,0.0380859375,1.02001953125,0.6103515625,9.521484375,0.30517578125,2.1258544921875,-3.416748046875,138.878173828125,386.0,613.0,-1923.0,0.3504638671875,0.034423828125,0.00689697265625,0.9359130859375,2.127474048785063,-3.41579806724962,140.21189723064046,0.3395518584035044,0.034335022468804745,0.00730898729431268,0.9399320296657225,1
1782115872.606643,0.392,1019.0,1020.0,1019.0,1019.0,1019.0,1019.0,1020.0,1020.0,1021.0,1019.0,1019.0,1020.0,1019.0,1020.0,1021.0,1019.0,1019.0,1019.0,1020.0,1019.0,1019.0,1020.0,1020.0,1020.0,1020.0,1019.0,1020.0,1019.0,1020.0,1020.0,1020.0,1019.0,1020.0,1020.0,1020.0,1020.0,1020.0,1020.0,1020.0,1019.0,1019.0,1020.0,1019.0,1019.0,1020.0,1020.0,1020.0,1020.0,1019.0,1019.0,1020.0,1019.0,1019.0,1019.0,1020.0,1019.0,1020.0,1020.0,1019.0,1019.0,1019.0,1019.0,1019.0,1019.0,1020.0,1020.0,1020.0,1020.0,1020.0,1021.0,1020.0,1020.0,1019.0,1020.0,1020.0,1020.0,1020.0,1020.0,1020.0,1020.0,1020.0,1020.0,1019.0,1020.0,1020.0,1020.0,1020.0,1020.0,1020.0,1019.0,1020.0,1020.0,1020.0,1019.0,1020.0,1020.0,1020.0,1019.0,1019.0,1019.0,1020.0,1019.0,1019.0,1020.0,1020.0,1020.0,1020.0,1021.0,1020.0,1020.0,1020.0,1019.0,1020.0,1020.0,1020.0,1020.0,1021.0,1022.0,1020.0,1021.0,1022.0,1020.0,1019.0,1020.0,1020.0,1021.0,1021.0,1020.0,1020.0,1020.0,1020.0,1020.0,1020.0,1020.0,1020.0,1020.0,1020.0,1019.0,1020.0,1020.0,1021.0,1020.0,1020.0,1020.0,1019.0,1020.0,1019.0,1020.0,1020.0,1019.0,1020.0,1019.0,1020.0,1020.0,1020.0,1020.0,1020.0,1019.0,1020.0,1019.0,1020.0,1020.0,1020.0,1020.0,1020.0,1020.0,1020.0,1020.0,1020.0,1020.0,1020.0,1020.0,1019.0,1020.0,1019.0,1019.0,1020.0,1020.0,1020.0,1020.0,1020.0,1020.0,1020.0,1019.0,1020.0,1020.0,1019.0,1020.0,1020.0,1020.0,1021.0,1019.0,1020.0,1020.0,1020.0,1019.0,1020.0,1020.0,1020.0,1019.0,1020.0,1020.0,1020.0,1020.0,1020.0,1020.0,1021.0,1020.0,1020.0,1021.0,1020.0,1020.0,1021.0,1020.0,1021.0,1020.0,1020.0,1019.0,1021.0,1020.0,1021.0,1020.0,1021.0,1020.0,1022.0,1020.0,1022.0,1053.0,1020.0,1020.0,1021.0,1020.0,1021.0,2337,2190,1897,	00:06:03.470,-0.0078125,0.056640625,1.017578125,-0.8544921875,1.40380859375,0.54931640625,3.1695556640625,0.4339599609375,33.37646484375,766.0,-262.0,-4270.0,0.957550048828125,0.025390625,0.011566162109375,0.286956787109375,3.169562654661239,0.4353873313359898,35.03152009510689,0.9532941769845716,0.025230557074654866,0.011945463096064955,0.300750622656764,1,	00:06:03.472,0.0595703125,0.0361328125,1.02001953125,0.244140625,9.46044921875,0.244140625,2.054443359375,-3.262939453125,138.88916015625,387.0,618.0,-1923.0,0.3504638671875,0.032989501953125,0.006805419921875,0.93597412109375,2.0568507251991335,-3.265677755170428,140.222099651795,0.33952435859723873,0.032894196845230775,0.007178798573558987,0.9399944928477407,1
1782115872.616887,0.403,1018.0,1019.0,1019.0,1019.0,1019.0,1020.0,1020.0,1020.0,1022.0,1019.0,1020.0,1021.0,1020.0,1020.0,1020.0,1020.0,1019.0,1020.0,1020.0,1019.0,1020.0,1020.0,1020.0,1019.0,1019.0,1019.0,1020.0,1020.0,1020.0,1020.0,1020.0,1019.0,1020.0,1019.0,1019.0,1020.0,1019.0,1020.0,1020.0,1020.0,1019.0,1019.0,1019.0,1020.0,1020.0,1019.0,1020.0,1020.0,1019.0,1019.0,1021.0,1019.0,1019.0,1020.0,1021.0,1020.0,1019.0,1020.0,1019.0,1019.0,1020.0,1019.0,1020.0,1020.0,1020.0,1019.0,1020.0,1020.0,1020.0,1020.0,1021.0,1020.0,1019.0,1019.0,1021.0,1020.0,1020.0,1020.0,1020.0,1019.0,1021.0,1019.0,1019.0,1019.0,1021.0,1020.0,1020.0,1020.0,1019.0,1019.0,1020.0,1019.0,1020.0,1019.0,1021.0,1019.0,1020.0,1020.0,1020.0,1019.0,1020.0,1019.0,1020.0,1020.0,1021.0,1020.0,1020.0,1021.0,1020.0,1020.0,1021.0,1020.0,1019.0,1020.0,1021.0,1020.0,1021.0,1021.0,1020.0,1021.0,1022.0,1020.0,1020.0,1021.0,1020.0,1021.0,1021.0,1019.0,1021.0,1020.0,1019.0,1021.0,1020.0,1020.0,1020.0,1019.0,1020.0,1020.0,1021.0,1020.0,1020.0,1020.0,1020.0,1020.0,1019.0,1021.0,1020.0,1020.0,1020.0,1020.0,1020.0,1020.0,1021.0,1019.0,1020.0,1020.0,1020.0,1020.0,1021.0,1019.0,1020.0,1019.0,1020.0,1020.0,1021.0,1019.0,1020.0,1020.0,1020.0,1020.0,1022.0,1019.0,1020.0,1020.0,1020.0,1020.0,1022.0,1020.0,1020.0,1019.0,1019.0,1020.0,1022.0,1020.0,1020.0,1020.0,1019.0,1019.0,1022.0,1019.0,1020.0,1019.0,1020.0,1019.0,1022.0,1020.0,1020.0,1019.0,1020.0,1019.0,1022.0,1019.0,1020.0,1020.0,1020.0,1019.0,1022.0,1020.0,1021.0,1021.0,1020.0,1020.0,1022.0,1020.0,1021.0,1021.0,1020.0,1020.0,1021.0,1019.0,1020.0,1020.0,1021.0,1020.0,1022.0,1019.0,1021.0,1052.0,1020.0,1020.0,1021.0,1020.0,1021.0,2336,2190,1898,	00:06:03.481,-0.0078125,0.0556640625,1.01708984375,-0.8544921875,1.52587890625,0.48828125,3.0706787109375,0.46142578125,33.3819580078125,770.0,-264.0,-4266.0,0.957550048828125,0.024505615234375,0.01153564453125,0.2869873046875,3.070060284347102,0.46032563302660306,35.036526370594686,0.9533035293104999,0.024336765087735593,0.011892827815745126,0.30079671460266016,1,	00:06:03.482,0.05810546875,0.037109375,1.0205078125,-0.1220703125,9.1552734375,0.1220703125,2.142333984375,-3.14208984375,138.88916015625,391.0,617.0,-1926.0,0.3504638671875,0.0322265625,0.00787353515625,0.936004638671875,2.141957981489775,-3.1437604326445743,140.22177077156013,0.3395313440278681,0.03214666164040068,0.008239104038186031,0.9400091359836109,1
1782115872.627268,0.413,1019.0,1019.0,1019.0,1019.0,1020.0,1019.0,1020.0,1019.0,1021.0,1019.0,1020.0,1020.0,1019.0,1020.0,1021.0,1019.0,1020.0,1019.0,1020.0,1020.0,1020.0,1020.0,1020.0,1019.0,1020.0,1020.0,1020.0,1020.0,1020.0,1021.0,1020.0,1020.0,1020.0,1019.0,1019.0,1020.0,1019.0,1020.0,1021.0,1020.0,1020.0,1021.0,1019.0,1020.0,1019.0,1020.0,1019.0,1020.0,1019.0,1020.0,1020.0,1019.0,1019.0,1020.0,1020.0,1020.0,1020.0,1019.0,1019.0,1019.0,1020.0,1019.0,1020.0,1020.0,1020.0,1019.0,1020.0,1021.0,1020.0,1021.0,1021.0,1020.0,1019.0,1019.0,1020.0,1019.0,1020.0,1021.0,1020.0,1020.0,1021.0,1020.0,1020.0,1020.0,1019.0,1020.0,1020.0,1020.0,1019.0,1020.0,1021.0,1019.0,1019.0,1019.0,1020.0,1020.0,1019.0,1020.0,1019.0,1019.0,1021.0,1019.0,1020.0,1020.0,1019.0,1020.0,1020.0,1020.0,1019.0,1020.0,1021.0,1019.0,1020.0,1020.0,1020.0,1020.0,1020.0,1022.0,1020.0,1021.0,1022.0,1020.0,1020.0,1020.0,1019.0,1021.0,1022.0,1020.0,1020.0,1020.0,1020.0,1019.0,1020.0,1021.0,1021.0,1019.0,1020.0,1020.0,1020.0,1019.0,1021.0,1020.0,1020.0,1020.0,1020.0,1020.0,1020.0,1020.0,1020.0,1020.0,1020.0,1019.0,1020.0,1020.0,1020.0,1020.0,1020.0,1020.0,1020.0,1020.0,1020.0,1019.0,1020.0,1020.0,1020.0,1020.0,1021.0,1020.0,1020.0,1019.0,1020.0,1020.0,1020.0,1020.0,1019.0,1019.0,1020.0,1020.0,1020.0,1020.0,1020.0,1020.0,1020.0,1020.0,1020.0,1020.0,1019.0,1020.0,1019.0,1019.0,1019.0,1020.0,1020.0,1019.0,1020.0,1020.0,1020.0,1020.0,1019.0,1020.0,1020.0,1020.0,1019.0,1020.0,1020.0,1019.0,1021.0,1020.0,1020.0,1021.0,1020.0,1020.0,1020.0,1020.0,1020.0,1022.0,1020.0,1020.0,1020.0,1020.0,1020.0,1021.0,1021.0,1020.0,1021.0,1020.0,1021.0,1052.0,1020.0,1019.0,1021.0,1020.0,1021.0,2335,2189,1898,	00:06:03.491,-0.00732421875,0.056640625,1.017578125,-0.9765625,1.52587890625,0.42724609375,3.14208984375,0.439453125,33.387451171875,768.0,-263.0,-4268.0,0.95751953125,0.025177001953125,0.011566162109375,0.28704833984375,3.144788065625351,0.43992475745145554,35.042275086066645,0.9532715610840093,0.025011419805006634,0.01192053315617755,0.30084158721338083,1,	00:06:03.492,0.056640625,0.03662109375,1.01953125,-0.48828125,8.30078125,0.06103515625,2.0489501953125,-3.0926513671875,138.8946533203125,393.0,619.0,-1926.0,0.350433349609375,0.03155517578125,0.007293701171875,0.93603515625,2.051694878648005,-3.095006573689045,140.2301216424936,0.33949915437156586,0.0314788502797989,0.007645815119249959,0.9400483751792862,1
1782115872.637834,0.423,1019.0,1019.0,1019.0,1019.0,1020.0,1019.0,1019.0,1019.0,1021.0,1020.0,1019.0,1020.0,1019.0,1019.0,1021.0,1019.0,1020.0,1019.0,1019.0,1019.0,1020.0,1020.0,1019.0,1020.0,1020.0,1019.0,1020.0,1020.0,1020.0,1020.0,1020.0,1020.0,1020.0,1020.0,1020.0,1020.0,1019.0,1019.0,1020.0,1019.0,1020.0,1020.0,1020.0,1020.0,1019.0,1019.0,1019.0,1020.0,1019.0,1020.0,1020.0,1019.0,1020.0,1019.0,1019.0,1020.0,1020.0,1020.0,1020.0,1020.0,1020.0,1019.0,1020.0,1019.0,1019.0,1020.0,1020.0,1021.0,1019.0,1021.0,1021.0,1020.0,1019.0,1019.0,1020.0,1020.0,1019.0,1021.0,1020.0,1020.0,1020.0,1019.0,1020.0,1020.0,1019.0,1019.0,1020.0,1020.0,1020.0,1020.0,1020.0,1019.0,1019.0,1019.0,1020.0,1019.0,1019.0,1020.0,1020.0,1020.0,1020.0,1020.0,1019.0,1019.0,1019.0,1020.0,1020.0,1020.0,1019.0,1019.0,1020.0,1019.0,1019.0,1019.0,1020.0,1019.0,1020.0,1022.0,1020.0,1021.0,1022.0,1020.0,1020.0,1020.0,1020.0,1020.0,1021.0,1020.0,1021.0,1019.0,1019.0,1020.0,1019.0,1020.0,1021.0,1020.0,1020.0,1019.0,1020.0,1020.0,1020.0,1021.0,1020.0,1019.0,1020.0,1020.0,1020.0,1020.0,1020.0,1019.0,1019.0,1019.0,1020.0,1020.0,1020.0,1020.0,1020.0,1020.0,1019.0,1020.0,1020.0,1019.0,1020.0,1019.0,1019.0,1020.0,1020.0,1020.0,1020.0,1019.0,1020.0,1020.0,1020.0,1021.0,1019.0,1020.0,1019.0,1020.0,1019.0,1020.0,1020.0,1019.0,1019.0,1020.0,1020.0,1020.0,1020.0,1020.0,1020.0,1019.0,1020.0,1020.0,1020.0,1020.0,1019.0,1019.0,1020.0,1020.0,1020.0,1019.0,1020.0,1019.0,1020.0,1020.0,1020.0,1019.0,1020.0,1020.0,1020.0,1020.0,1020.0,1020.0,1020.0,1020.0,1021.0,1021.0,1019.0,1019.0,1020.0,1020.0,1020.0,1020.0,1021.0,1020.0,1020.0,1020.0,1020.0,1051.0,1020.0,1020.0,1020.0,1020.0,1021.0,2335,2188,1898,	00:06:03.501,-0.0087890625,0.0556640625,1.01708984375,-0.91552734375,1.52587890625,0.42724609375,3.1146240234375,0.5438232421875,33.3929443359375,771.0,-258.0,-4267.0,0.95751953125,0.024688720703125,0.012359619140625,0.28704833984375,3.1156502253432112,0.5443861509774278,35.0471980799925,0.9532686943389597,0.024494038148567487,0.012714031931357467,0.30086075164520876,1,	00:06:03.502,0.05322265625,0.037109375,1.0205078125,-1.03759765625,7.50732421875,-0.06103515625,2.0654296875,-2.933349609375,138.8946533203125,397.0,614.0,-1927.0,0.3504638671875,0.0302734375,0.007904052734375,0.936065673828125,2.0656454828084048,-2.931674270399773,140.23090283332414,0.33952580786532005,0.03018067530840617,0.008245658407387819,0.9400762531564973,1
1782115872.648593,0.434,1019.0,1019.0,1019.0,1019.0,1019.0,1020.0,1019.0,1019.0,1021.0,1019.0,1019.0,1020.0,1020.0,1019.0,1021.0,1020.0,1019.0,1019.0,1019.0,1020.0,1019.0,1020.0,1019.0,1020.0,1020.0,1019.0,1020.0,1019.0,1020.0,1020.0,1020.0,1020.0,1020.0,1019.0,1019.0,1020.0,1019.0,1020.0,1020.0,1019.0,1020.0,1021.0,1020.0,1019.0,1020.0,1019.0,1019.0,1020.0,1020.0,1020.0,1020.0,1019.0,1019.0,1019.0,1019.0,1019.0,1020.0,1020.0,1020.0,1021.0,1020.0,1019.0,1020.0,1020.0,1020.0,1020.0,1020.0,1020.0,1019.0,1021.0,1021.0,1020.0,1020.0,1019.0,1019.0,1019.0,1020.0,1021.0,1020.0,1021.0,1020.0,1020.0,1019.0,1019.0,1020.0,1019.0,1020.0,1020.0,1019.0,1020.0,1020.0,1019.0,1020.0,1019.0,1020.0,1020.0,1020.0,1020.0,1019.0,1020.0,1020.0,1019.0,1020.0,1019.0,1020.0,1020.0,1019.0,1021.0,1020.0,1020.0,1020.0,1019.0,1020.0,1020.0,1020.0,1020.0,1020.0,1022.0,1020.0,1021.0,1022.0,1020.0,1019.0,1020.0,1019.0,1020.0,1022.0,1020.0,1021.0,1020.0,1019.0,1020.0,1020.0,1020.0,1020.0,1020.0,1020.0,1019.0,1020.0,1019.0,1020.0,1021.0,1019.0,1019.0,1019.0,1020.0,1019.0,1020.0,1021.0,1020.0,1020.0,1019.0,1019.0,1019.0,1020.0,1020.0,1020.0,1019.0,1020.0,1020.0,1020.0,1020.0,1020.0,1020.0,1019.0,1020.0,1020.0,1020.0,1020.0,1020.0,1019.0,1020.0,1020.0,1020.0,1020.0,1019.0,1019.0,1020.0,1019.0,1020.0,1020.0,1020.0,1020.0,1020.0,1020.0,1020.0,1020.0,1019.0,1019.0,1020.0,1019.0,1020.0,1020.0,1019.0,1020.0,1020.0,1021.0,1020.0,1019.0,1019.0,1020.0,1020.0,1020.0,1020.0,1020.0,1020.0,1020.0,1019.0,1020.0,1021.0,1019.0,1019.0,1020.0,1020.0,1020.0,1021.0,1020.0,1019.0,1020.0,1020.0,1020.0,1020.0,1020.0,1019.0,1021.0,1020.0,1021.0,1051.0,1020.0,1019.0,1020.0,1019.0,1020.0,2334,2188,1898,	00:06:03.512,-0.00830078125,0.05615234375,1.017578125,-0.9765625,1.40380859375,0.42724609375,3.1475830078125,0.4779052734375,33.3984375,770.0,-263.0,-4262.0,0.957489013671875,0.025115966796875,0.01190185546875,0.287109375,3.1501920499953355,0.47790727695147545,35.05262785231175,0.9532446755060136,0.024955483045685897,0.012252924370175257,0.30091805916190906,1,	00:06:03.513,0.0517578125,0.03662109375,1.02001953125,-1.77001953125,6.65283203125,-0.1220703125,2.021484375,-2.779541015625,138.900146484375,398.0,622.0,-1928.0,0.3504638671875,0.02886962890625,0.00799560546875,0.93609619140625,2.019223180831166,-2.7782207686800997,140.2334862841483,0.33955033881996904,0.028784430792208472,0.008321286517746197,0.9401105148555156,1
1782115872.657820,0.443,1019.0,1019.0,1019.0,1019.0,1019.0,1020.0,1019.0,1019.0,1022.0,1019.0,1019.0,1019.0,1020.0,1020.0,1021.0,1020.0,1020.0,1019.0,1020.0,1019.0,1019.0,1021.0,1019.0,1020.0,1020.0,1019.0,1019.0,1020.0,1020.0,1020.0,1020.0,1019.0,1020.0,1020.0,1019.0,1019.0,1020.0,1019.0,1020.0,1019.0,1020.0,1020.0,1019.0,1019.0,1020.0,1020.0,1020.0,1021.0,1020.0,1020.0,1020.0,1019.0,1019.0,1019.0,1020.0,1020.0,1020.0,1020.0,1020.0,1019.0,1020.0,1019.0,1019.0,1020.0,1020.0,1019.0,1020.0,1021.0,1020.0,1020.0,1020.0,1020.0,1020.0,1020.0,1019.0,1020.0,1019.0,1021.0,1020.0,1020.0,1020.0,1019.0,1020.0,1019.0,1019.0,1020.0,1020.0,1020.0,1019.0,1019.0,1020.0,1020.0,1019.0,1020.0,1020.0,1020.0,1020.0,1021.0,1019.0,1020.0,1020.0,1020.0,1020.0,1020.0,1020.0,1020.0,1020.0,1021.0,1020.0,1020.0,1020.0,1019.0,1020.0,1020.0,1020.0,1020.0,1021.0,1022.0,1020.0,1021.0,1022.0,1020.0,1020.0,1020.0,1020.0,1020.0,1022.0,1020.0,1021.0,1020.0,1020.0,1019.0,1020.0,1020.0,1021.0,1019.0,1020.0,1020.0,1020.0,1020.0,1020.0,1021.0,1020.0,1020.0,1019.0,1020.0,1020.0,1020.0,1021.0,1019.0,1020.0,1019.0,1020.0,1019.0,1019.0,1021.0,1021.0,1019.0,1020.0,1020.0,1020.0,1020.0,1020.0,1019.0,1020.0,1020.0,1020.0,1020.0,1019.0,1019.0,1020.0,1020.0,1020.0,1021.0,1020.0,1019.0,1019.0,1019.0,1020.0,1020.0,1020.0,1020.0,1020.0,1020.0,1020.0,1020.0,1020.0,1019.0,1019.0,1019.0,1019.0,1020.0,1020.0,1019.0,1020.0,1019.0,1020.0,1020.0,1020.0,1020.0,1020.0,1020.0,1020.0,1020.0,1021.0,1020.0,1020.0,1019.0,1020.0,1021.0,1020.0,1019.0,1020.0,1019.0,1020.0,1021.0,1020.0,1020.0,1020.0,1019.0,1019.0,1021.0,1021.0,1019.0,1021.0,1020.0,1019.0,1051.0,1020.0,1020.0,1020.0,1020.0,1020.0,2333,2187,1898,	00:06:03.522,-0.0078125,0.0556640625,1.017578125,-0.91552734375,1.3427734375,0.42724609375,3.09814453125,0.406494140625,33.4039306640625,774.0,-260.0,-4266.0,0.957489013671875,0.02490234375,0.011199951171875,0.28717041015625,3.1005232369948246,0.40891456625008993,35.0573236951352,0.9532403853543324,0.024723134523420662,0.011549613310740071,0.3009786384134811,1,	00:06:03.523,0.05078125,0.0361328125,1.017578125,-2.13623046875,5.37109375,-0.18310546875,2.0159912109375,-2.8125,138.900146484375,399.0,617.0,-1924.0,0.3504638671875,0.0291748046875,0.007843017578125,0.93609619140625,2.014725314811684,-2.8144528562634625,140.23273282840853,0.33954980033358606,0.02906831222004154,0.008176580026731394,0.9401032442541438,1
1782115872.670400,0.456,1019.0,1019.0,1020.0,1019.0,1020.0,1019.0,1019.0,1019.0,1021.0,1019.0,1020.0,1019.0,1020.0,1020.0,1021.0,1020.0,1020.0,1020.0,1020.0,1019.0,1020.0,1021.0,1019.0,1019.0,1020.0,1019.0,1020.0,1019.0,1020.0,1020.0,1019.0,1019.0,1020.0,1019.0,1019.0,1020.0,1020.0,1020.0,1021.0,1019.0,1020.0,1020.0,1020.0,1020.0,1020.0,1019.0,1019.0,1021.0,1020.0,1019.0,1020.0,1019.0,1020.0,1020.0,1020.0,1019.0,1020.0,1020.0,1019.0,1020.0,1021.0,1019.0,1019.0,1019.0,1020.0,1019.0,1020.0,1020.0,1020.0,1020.0,1021.0,1020.0,1020.0,1019.0,1020.0,1020.0,1019.0,1021.0,1019.0,1020.0,1021.0,1019.0,1020.0,1020.0,1020.0,1019.0,1019.0,1020.0,1020.0,1020.0,1020.0,1019.0,1020.0,1020.0,1020.0,1020.0,1019.0,1021.0,1020.0,1019.0,1020.0,1019.0,1019.0,1020.0,1020.0,1020.0,1020.0,1020.0,1019.0,1019.0,1020.0,1020.0,1019.0,1020.0,1020.0,1020.0,1020.0,1022.0,1020.0,1021.0,1022.0,1020.0,1020.0,1020.0,1020.0,1020.0,1022.0,1020.0,1020.0,1019.0,1020.0,1020.0,1020.0,1020.0,1021.0,1019.0,1020.0,1020.0,1020.0,1020.0,1020.0,1021.0,1019.0,1020.0,1020.0,1019.0,1020.0,1019.0,1021.0,1020.0,1019.0,1020.0,1020.0,1020.0,1020.0,1020.0,1019.0,1020.0,1020.0,1019.0,1020.0,1020.0,1020.0,1019.0,1020.0,1020.0,1019.0,1021.0,1020.0,1020.0,1019.0,1020.0,1020.0,1021.0,1019.0,1020.0,1020.0,1020.0,1019.0,1020.0,1019.0,1020.0,1020.0,1019.0,1020.0,1020.0,1019.0,1019.0,1020.0,1019.0,1019.0,1020.0,1020.0,1020.0,1020.0,1020.0,1020.0,1020.0,1019.0,1020.0,1020.0,1019.0,1020.0,1020.0,1020.0,1019.0,1020.0,1019.0,1020.0,1021.0,1020.0,1020.0,1020.0,1020.0,1020.0,1021.0,1020.0,1020.0,1020.0,1020.0,1019.0,1020.0,1021.0,1020.0,1021.0,1020.0,1020.0,1050.0,1020.0,1019.0,1020.0,1019.0,1019.0,2333,2186,1898,	00:06:03.532,-0.00927734375,0.05517578125,1.01708984375,-0.8544921875,1.15966796875,0.30517578125,3.09814453125,0.5108642578125,33.4039306640625,771.0,-259.0,-4265.0,0.957489013671875,0.02459716796875,0.012054443359375,0.28717041015625,3.095782151081218,0.5119200783112203,35.061020990390794,0.9532355670008558,0.024412572338050085,0.012394753095996523,0.30098563123857897,1,	00:06:03.533,0.0498046875,0.03515625,1.01708984375,-2.38037109375,4.45556640625,-0.30517578125,1.9061279296875,-2.7410888671875,138.900146484375,400.0,622.0,-1925.0,0.350494384765625,0.0281982421875,0.007171630859375,0.93609619140625,1.9048285691039404,-2.738565231372847,140.23540568202156,0.3395713977495519,0.02812008005358548,0.0075010352258358184,0.9401299172979958,1
1782115872.678529,0.464,1019.0,1019.0,1019.0,1019.0,1020.0,1020.0,1020.0,1020.0,1022.0,1019.0,1020.0,1019.0,1019.0,1019.0,1021.0,1020.0,1020.0,1020.0,1020.0,1020.0,1019.0,1021.0,1020.0,1020.0,1019.0,1020.0,1019.0,1020.0,1019.0,1021.0,1019.0,1019.0,1020.0,1020.0,1020.0,1020.0,1019.0,1020.0,1020.0,1020.0,1019.0,1020.0,1020.0,1020.0,1019.0,1020.0,1019.0,1020.0,1020.0,1019.0,1020.0,1019.0,1020.0,1020.0,1020.0,1020.0,1020.0,1020.0,1019.0,1019.0,1020.0,1019.0,1020.0,1020.0,1020.0,1020.0,1020.0,1021.0,1020.0,1020.0,1021.0,1020.0,1020.0,1020.0,1020.0,1020.0,1020.0,1021.0,1020.0,1020.0,1020.0,1019.0,1020.0,1020.0,1020.0,1020.0,1020.0,1020.0,1020.0,1020.0,1020.0,1019.0,1020.0,1020.0,1019.0,1020.0,1020.0,1020.0,1020.0,1019.0,1020.0,1020.0,1019.0,1020.0,1020.0,1020.0,1020.0,1020.0,1019.0,1020.0,1020.0,1020.0,1020.0,1020.0,1020.0,1020.0,1020.0,1022.0,1020.0,1021.0,1022.0,1020.0,1020.0,1020.0,1020.0,1020.0,1022.0,1020.0,1021.0,1020.0,1020.0,1019.0,1020.0,1020.0,1021.0,1020.0,1020.0,1020.0,1020.0,1019.0,1020.0,1020.0,1020.0,1019.0,1020.0,1020.0,1019.0,1019.0,1021.0,1020.0,1020.0,1020.0,1021.0,1020.0,1020.0,1020.0,1020.0,1020.0,1020.0,1020.0,1019.0,1020.0,1020.0,1019.0,1020.0,1020.0,1019.0,1020.0,1020.0,1020.0,1020.0,1019.0,1019.0,1020.0,1019.0,1019.0,1019.0,1019.0,1019.0,1020.0,1019.0,1020.0,1020.0,1020.0,1020.0,1021.0,1019.0,1019.0,1020.0,1020.0,1020.0,1020.0,1020.0,1020.0,1020.0,1020.0,1020.0,1020.0,1019.0,1019.0,1020.0,1020.0,1020.0,1020.0,1020.0,1020.0,1020.0,1019.0,1020.0,1021.0,1019.0,1019.0,1020.0,1020.0,1020.0,1020.0,1020.0,1019.0,1020.0,1020.0,1020.0,1020.0,1020.0,1020.0,1020.0,1019.0,1020.0,1050.0,1020.0,1020.0,1020.0,1020.0,1020.0,2332,2185,1898,	00:06:03.543,-0.00927734375,0.0556640625,1.01708984375,-0.67138671875,0.9765625,0.244140625,3.175048828125,0.5438232421875,33.409423828125,775.0,-263.0,-4271.0,0.95745849609375,0.025177001953125,0.01251220703125,0.287200927734375,3.177490220383535,0.5453177202237399,35.06479980446191,0.9532091446285994,0.02500404432239725,0.012887981004439298,0.30100004038133693,1,	00:06:03.544,0.04833984375,0.03564453125,1.021484375,-2.38037109375,4.08935546875,-0.1220703125,1.966552734375,-2.669677734375,138.8946533203125,402.0,619.0,-1925.0,0.35052490234375,0.02783203125,0.007904052734375,0.93609619140625,1.9681754245648848,-2.6689866232402197,140.23141925638424,0.3396031813624725,0.0277374103251528,0.008226419576166714,0.940123737227126,1
1782115872.689129,0.475,1019.0,1019.0,1019.0,1019.0,1020.0,1020.0,1019.0,1019.0,1021.0,1020.0,1019.0,1020.0,1020.0,1019.0,1021.0,1020.0,1020.0,1020.0,1020.0,1020.0,1019.0,1021.0,1020.0,1019.0,1019.0,1020.0,1020.0,1020.0,1020.0,1021.0,1020.0,1019.0,1020.0,1020.0,1019.0,1020.0,1019.0,1019.0,1020.0,1020.0,1019.0,1020.0,1020.0,1020.0,1020.0,1019.0,1020.0,1020.0,1020.0,1019.0,1020.0,1019.0,1020.0,1020.0,1020.0,1019.0,1019.0,1020.0,1020.0,1019.0,1020.0,1019.0,1020.0,1020.0,1019.0,1020.0,1020.0,1021.0,1019.0,1020.0,1020.0,1020.0,1020.0,1020.0,1020.0,1020.0,1019.0,1021.0,1019.0,1019.0,1021.0,1019.0,1019.0,1020.0,1020.0,1020.0,1020.0,1020.0,1019.0,1020.0,1020.0,1020.0,1020.0,1020.0,1019.0,1020.0,1020.0,1021.0,1020.0,1019.0,1020.0,1019.0,1020.0,1020.0,1020.0,1020.0,1020.0,1020.0,1019.0,1020.0,1021.0,1020.0,1020.0,1020.0,1020.0,1020.0,1020.0,1022.0,1020.0,1021.0,1022.0,1020.0,1020.0,1020.0,1020.0,1019.0,1021.0,1020.0,1020.0,1020.0,1020.0,1020.0,1020.0,1019.0,1021.0,1020.0,1020.0,1020.0,1020.0,1020.0,1020.0,1021.0,1020.0,1020.0,1020.0,1020.0,1020.0,1020.0,1020.0,1020.0,1020.0,1020.0,1020.0,1020.0,1019.0,1020.0,1020.0,1020.0,1020.0,1019.0,1019.0,1019.0,1020.0,1020.0,1020.0,1019.0,1020.0,1020.0,1019.0,1020.0,1019.0,1020.0,1019.0,1020.0,1020.0,1020.0,1020.0,1019.0,1020.0,1020.0,1020.0,1020.0,1020.0,1020.0,1020.0,1020.0,1020.0,1020.0,1019.0,1019.0,1019.0,1019.0,1020.0,1020.0,1019.0,1019.0,1019.0,1020.0,1020.0,1020.0,1019.0,1020.0,1020.0,1019.0,1020.0,1019.0,1020.0,1020.0,1020.0,1021.0,1019.0,1020.0,1020.0,1019.0,1019.0,1020.0,1019.0,1020.0,1019.0,1020.0,1020.0,1020.0,1021.0,1020.0,1020.0,1020.0,1020.0,1050.0,1020.0,1020.0,1020.0,1020.0,1020.0,2332,2184,1898,	00:06:03.553,-0.0087890625,0.0556640625,1.01806640625,-0.6103515625,0.79345703125,0.1220703125,3.109130859375,0.4888916015625,33.409423828125,772.0,-259.0,-4264.0,0.95745849609375,0.024749755859375,0.011871337890625,0.2872314453125,3.1089881797444154,0.48614602091990655,35.06589992054135,0.9532190270238149,0.02458965613604784,0.012216100829451383,0.3010308990974303,1,	00:06:03.554,0.048828125,0.03515625,1.01806640625,-2.3193359375,1.77001953125,-0.18310546875,1.95556640625,-2.7410888671875,138.8946533203125,401.0,623.0,-1926.0,0.35052490234375,0.02838134765625,0.007598876953125,0.93609619140625,1.9566199696935074,-2.7420541353349326,140.22966403506774,0.3396050223862844,0.028302563250858417,0.0079141606663655,0.9401089084485846,1
1782115872.698770,0.484,1019.0,1019.0,1019.0,1019.0,1020.0,1019.0,1019.0,1020.0,1021.0,1019.0,1019.0,1019.0,1020.0,1020.0,1021.0,1020.0,1020.0,1020.0,1020.0,1020.0,1019.0,1021.0,1020.0,1020.0,1019.0,1020.0,1020.0,1019.0,1020.0,1021.0,1019.0,1019.0,1020.0,1020.0,1020.0,1020.0,1020.0,1020.0,1021.0,1020.0,1020.0,1020.0,1020.0,1020.0,1020.0,1020.0,1020.0,1020.0,1020.0,1021.0,1020.0,1019.0,1019.0,1020.0,1019.0,1020.0,1020.0,1020.0,1020.0,1019.0,1020.0,1019.0,1020.0,1020.0,1020.0,1020.0,1020.0,1021.0,1020.0,1020.0,1021.0,1020.0,1020.0,1020.0,1019.0,1020.0,1019.0,1021.0,1020.0,1020.0,1020.0,1019.0,1020.0,1020.0,1020.0,1019.0,1020.0,1020.0,1020.0,1020.0,1020.0,1019.0,1020.0,1020.0,1020.0,1019.0,1019.0,1020.0,1019.0,1020.0,1020.0,1019.0,1020.0,1019.0,1020.0,1019.0,1020.0,1020.0,1020.0,1020.0,1020.0,1020.0,1020.0,1020.0,1020.0,1019.0,1020.0,1021.0,1020.0,1021.0,1022.0,1020.0,1020.0,1020.0,1020.0,1020.0,1021.0,1020.0,1020.0,1019.0,1020.0,1020.0,1020.0,1019.0,1020.0,1019.0,1020.0,1020.0,1020.0,1020.0,1020.0,1021.0,1020.0,1019.0,1020.0,1020.0,1019.0,1019.0,1020.0,1020.0,1020.0,1020.0,1020.0,1020.0,1020.0,1019.0,1020.0,1020.0,1020.0,1019.0,1020.0,1019.0,1020.0,1020.0,1020.0,1020.0,1019.0,1020.0,1020.0,1019.0,1020.0,1019.0,1019.0,1020.0,1020.0,1020.0,1020.0,1020.0,1020.0,1019.0,1020.0,1020.0,1020.0,1020.0,1020.0,1020.0,1019.0,1019.0,1020.0,1019.0,1020.0,1019.0,1019.0,1020.0,1020.0,1020.0,1020.0,1020.0,1020.0,1020.0,1020.0,1020.0,1020.0,1020.0,1020.0,1020.0,1020.0,1020.0,1020.0,1020.0,1020.0,1020.0,1020.0,1020.0,1020.0,1020.0,1020.0,1020.0,1020.0,1019.0,1019.0,1020.0,1020.0,1020.0,1021.0,1020.0,1020.0,1050.0,1020.0,1020.0,1021.0,1020.0,1020.0,2331,2183,1898,	00:06:03.563,-0.009765625,0.05517578125,1.017578125,-0.54931640625,0.48828125,0.0,3.09814453125,0.582275390625,33.409423828125,778.0,-260.0,-4273.0,0.95745849609375,0.0244140625,0.01263427734375,0.287200927734375,3.0958016490539557,0.582370333035639,35.066088382795044,0.9532244568181196,0.024226970095037808,0.01298187253299996,0.30101106263616256,1,	00:06:03.564,0.048828125,0.0341796875,1.017578125,-2.01416015625,0.42724609375,-0.1220703125,1.845703125,-2.74658203125,138.900146484375,404.0,620.0,-1926.0,0.35052490234375,0.028106689453125,0.00665283203125,0.93609619140625,1.845337723936395,-2.747771263514936,140.2329567804938,0.3396041717724673,0.028019442315084606,0.0069850220199803095,0.9401250591461056,1
1782115872.710447,0.496,1019.0,1019.0,1019.0,1019.0,1020.0,1020.0,1020.0,1020.0,1021.0,1020.0,1020.0,1020.0,1019.0,1020.0,1020.0,1020.0,1020.0,1020.0,1020.0,1020.0,1019.0,1021.0,1020.0,1020.0,1020.0,1019.0,1020.0,1019.0,1020.0,1021.0,1019.0,1019.0,1020.0,1020.0,1020.0,1019.0,1019.0,1019.0,1020.0,1020.0,1019.0,1020.0,1020.0,1020.0,1020.0,1020.0,1020.0,1020.0,1020.0,1020.0,1020.0,1020.0,1020.0,1019.0,1021.0,1019.0,1019.0,1021.0,1020.0,1020.0,1020.0,1019.0,1020.0,1020.0,1020.0,1020.0,1020.0,1020.0,1020.0,1020.0,1020.0,1020.0,1020.0,1019.0,1020.0,1020.0,1019.0,1020.0,1020.0,1020.0,1020.0,1020.0,1020.0,1020.0,1020.0,1019.0,1019.0,1020.0,1020.0,1020.0,1020.0,1019.0,1020.0,1019.0,1020.0,1020.0,1020.0,1020.0,1020.0,1020.0,1020.0,1019.0,1020.0,1019.0,1019.0,1020.0,1020.0,1020.0,1020.0,1021.0,1020.0,1020.0,1020.0,1020.0,1020.0,1019.0,1020.0,1021.0,1020.0,1022.0,1021.0,1021.0,1020.0,1020.0,1019.0,1020.0,1021.0,1020.0,1021.0,1020.0,1019.0,1020.0,1019.0,1020.0,1020.0,1019.0,1020.0,1020.0,1020.0,1020.0,1020.0,1021.0,1020.0,1020.0,1020.0,1019.0,1020.0,1020.0,1020.0,1020.0,1020.0,1020.0,1020.0,1020.0,1020.0,1020.0,1020.0,1020.0,1020.0,1020.0,1020.0,1020.0,1020.0,1019.0,1020.0,1020.0,1019.0,1020.0,1020.0,1020.0,1020.0,1020.0,1019.0,1020.0,1019.0,1020.0,1020.0,1020.0,1019.0,1019.0,1020.0,1020.0,1020.0,1020.0,1020.0,1021.0,1020.0,1020.0,1020.0,1020.0,1020.0,1020.0,1020.0,1020.0,1019.0,1020.0,1020.0,1020.0,1019.0,1020.0,1020.0,1020.0,1020.0,1019.0,1019.0,1020.0,1019.0,1020.0,1020.0,1020.0,1020.0,1020.0,1020.0,1020.0,1020.0,1020.0,1020.0,1020.0,1019.0,1019.0,1020.0,1020.0,1020.0,1020.0,1020.0,1020.0,1020.0,1050.0,1020.0,1021.0,1019.0,1019.0,1020.0,2331,2183,1898,	00:06:03.573,-0.0078125,0.05517578125,1.017578125,-0.48828125,0.30517578125,-0.06103515625,3.09814453125,0.494384765625,33.409423828125,773.0,-257.0,-4260.0,0.95745849609375,0.024627685546875,0.01190185546875,0.2872314453125,3.095958981598316,0.493918094615584,35.06569486193999,0.9532226309117163,0.0244608636064738,0.012246476139606067,0.301028745955487,1,	00:06:03.574,0.05078125,0.03369140625,1.01953125,-1.5869140625,-1.0986328125,-0.06103515625,1.86767578125,-2.8399658203125,138.8946533203125,402.0,625.0,-1925.0,0.35052490234375,0.0289306640625,0.006561279296875,0.93609619140625,1.8680305226382936,-2.8417748244372465,140.2301269284463,0.3396024580183772,0.02885785394414364,0.006891293802221205,0.9401010077876454,1
1782115872.719690,0.505,1019.0,1019.0,1020.0,1019.0,1019.0,1020.0,1020.0,1019.0,1022.0,1020.0,1020.0,1020.0,1019.0,1020.0,1021.0,1020.0,1020.0,1020.0,1020.0,1020.0,1019.0,1021.0,1020.0,1020.0,1020.0,1020.0,1020.0,1020.0,1019.0,1020.0,1019.0,1019.0,1020.0,1019.0,1020.0,1020.0,1020.0,1020.0,1021.0,1019.0,1020.0,1020.0,1020.0,1020.0,1020.0,1019.0,1020.0,1020.0,1019.0,1020.0,1020.0,1020.0,1019.0,1019.0,1020.0,1019.0,1019.0,1020.0,1020.0,1019.0,1020.0,1019.0,1020.0,1020.0,1019.0,1020.0,1020.0,1020.0,1020.0,1021.0,1020.0,1021.0,1020.0,1020.0,1020.0,1019.0,1020.0,1020.0,1019.0,1020.0,1020.0,1019.0,1020.0,1020.0,1019.0,1020.0,1019.0,1020.0,1020.0,1020.0,1020.0,1020.0,1020.0,1019.0,1019.0,1020.0,1020.0,1020.0,1019.0,1019.0,1020.0,1019.0,1020.0,1020.0,1019.0,1020.0,1019.0,1020.0,1020.0,1021.0,1021.0,1020.0,1020.0,1020.0,1020.0,1020.0,1020.0,1021.0,1020.0,1022.0,1022.0,1021.0,1020.0,1020.0,1020.0,1020.0,1022.0,1020.0,1021.0,1020.0,1020.0,1020.0,1019.0,1019.0,1020.0,1019.0,1020.0,1020.0,1020.0,1020.0,1020.0,1021.0,1020.0,1020.0,1020.0,1020.0,1020.0,1019.0,1021.0,1019.0,1019.0,1020.0,1020.0,1020.0,1019.0,1020.0,1020.0,1020.0,1019.0,1019.0,1019.0,1020.0,1020.0,1019.0,1020.0,1020.0,1020.0,1019.0,1020.0,1019.0,1020.0,1019.0,1020.0,1020.0,1019.0,1020.0,1020.0,1020.0,1020.0,1019.0,1020.0,1020.0,1020.0,1020.0,1020.0,1020.0,1020.0,1020.0,1020.0,1019.0,1019.0,1019.0,1020.0,1020.0,1020.0,1020.0,1020.0,1020.0,1020.0,1019.0,1020.0,1019.0,1019.0,1020.0,1020.0,1019.0,1020.0,1019.0,1020.0,1020.0,1020.0,1020.0,1020.0,1019.0,1020.0,1020.0,1020.0,1019.0,1020.0,1019.0,1020.0,1020.0,1020.0,1020.0,1020.0,1020.0,1020.0,1049.0,1020.0,1019.0,1019.0,1019.0,1020.0,2331,2182,1897,	00:06:03.584,-0.0087890625,0.0556640625,1.0185546875,-0.42724609375,0.244140625,-0.1220703125,3.1805419921875,0.494384765625,33.409423828125,780.0,-261.0,-4271.0,0.95745849609375,0.025360107421875,0.012115478515625,0.287200927734375,3.183213887539406,0.4956697297413359,35.06539821798835,0.9532045732663262,0.02518210834679901,0.012490192991811972,0.30101644141541173,1,	00:06:03.585,0.0498046875,0.03271484375,1.01953125,-1.5869140625,-1.46484375,-0.1220703125,1.8017578125,-2.779541015625,138.8946533203125,402.0,621.0,-1924.0,0.350555419921875,0.028228759765625,0.006195068359375,0.93609619140625,1.8024441765628032,-2.7795574425303684,140.23086065491657,0.3396254565158268,0.028153147105810496,0.0065382003469360095,0.940116589328514,1
