Unix_Time_s,IMU1_RefTime,ax_g,ay_g,az_g,gx_dps,gy_dps,gz_dps,mx_uT,my_uT,mz_uT,temp_C,qw,qx,qy,qz
1782117256.263959,1759621,-0.964355,0.028809,-0.272949,0.000000,0.548781,0.304878,-3.531250,40.206249,-1.850000,0.0,1.000000,0.000000,0.000000,0.000000
1782117256.273959,1759631,-0.964844,0.027832,-0.272949,0.121951,0.548781,0.487805,-3.543750,40.231251,-1.862500,0.0,1.000000,0.000000,0.000000,0.000000
1782117256.282959,1759640,-0.967773,0.025879,-0.271973,0.121951,0.487805,0.609756,-3.543750,40.231251,-1.862500,0.0,1.000000,0.000000,0.000000,0.000000
1782117256.292959,1759650,-0.968262,0.027344,-0.272461,0.060976,0.365854,0.609756,-3.612500,40.206249,-1.893750,0.0,1.000000,0.000000,0.000000,0.000000
1782117256.302959,1759660,-0.966797,0.026855,-0.270996,0.304878,0.304878,0.548781,-3.612500,40.206249,-1.893750,0.0,1.000000,0.000000,0.000000,0.000000
1782117256.312959,1759670,-0.968750,0.024414,-0.270996,0.548781,0.304878,0.609756,-3.506250,40.268749,-1.906250,0.0,1.000000,0.000000,0.000000,0.000000
1782117256.322959,1759680,-0.971680,0.023926,-0.271973,0.792683,0.365854,0.731707,-3.562500,40.137501,-1.918750,0.0,1.000000,0.000000,0.000000,0.000000
1782117256.332959,1759690,-0.970703,0.025879,-0.271484,0.731707,0.243902,0.731707,-3.562500,40.137501,-1.918750,0.0,1.000000,0.000000,0.000000,0.000000
1782117256.342959,1759700,-0.968262,0.023926,-0.270996,0.670732,0.121951,0.609756,-3.518750,40.281250,-1.906250,0.0,1.000000,0.000000,0.000000,0.000000
1782117256.352959,1759710,-0.967285,0.025391,-0.270996,0.487805,0.182927,0.426829,-3.518750,40.281250,-1.906250,0.0,1.000000,0.000000,0.000000,0.000000
1782117256.362959,1759720,-0.964355,0.027344,-0.272461,0.670732,0.243902,0.548781,-3.543750,40.237499,-1.868750,0.0,1.000000,0.000000,0.000000,0.000000
1782117256.372959,1759730,-0.964355,0.027832,-0.272949,0.975610,0.243902,0.670732,-3.543750,40.237499,-1.868750,0.0,1.000000,0.000000,0.000000,0.000000
1782117256.382959,1759740,-0.968262,0.027344,-0.271484,1.158537,0.182927,0.853659,-3.500000,40.268749,-1.925000,0.0,1.000000,0.000000,0.000000,0.000000
1782117256.392959,1759750,-0.968750,0.026855,-0.271484,1.097561,-0.121951,0.853659,-3.500000,40.268749,-1.925000,0.0,1.000000,0.000000,0.000000,0.000000
1782117256.403960,1759761,-0.966309,0.025879,-0.272461,0.975610,-0.365854,0.792683,-3.568750,40.200001,-1.950000,0.0,1.000000,0.000000,0.000000,0.000000
1782117256.412959,1759770,-0.964844,0.024902,-0.272949,0.975610,-0.365854,0.670732,-3.568750,40.200001,-1.950000,0.0,1.000000,0.000000,0.000000,0.000000
1782117256.423959,1759781,-0.964355,0.025391,-0.273926,0.792683,-0.243902,0.487805,-3.550000,40.243752,-1.893750,0.0,1.000000,0.000000,0.000000,0.000000
1782117256.432959,1759790,-0.963867,0.026855,-0.275391,0.609756,0.060976,0.426829,-3.550000,40.243752,-1.893750,0.0,1.000000,0.000000,0.000000,0.000000
1782117256.442959,1759800,-0.962891,0.028320,-0.278809,0.426829,0.304878,0.365854,-3.531250,40.218750,-1.862500,0.0,1.000000,0.000000,0.000000,0.000000
1782117256.453959,1759811,-0.960938,0.029785,-0.278320,0.304878,0.487805,0.426829,-3.531250,40.218750,-1.862500,0.0,1.000000,0.000000,0.000000,0.000000
1782117256.463959,1759821,-0.961426,0.029785,-0.278809,0.121951,0.548781,0.426829,-3.537500,40.275002,-1.887500,0.0,1.000000,0.000000,0.000000,0.000000
1782117256.472960,1759830,-0.962402,0.030762,-0.278320,-0.060976,0.548781,0.487805,-3.537500,40.275002,-1.887500,0.0,1.000000,0.000000,0.000000,0.000000
1782117256.483959,1759841,-0.964355,0.029785,-0.280762,-0.304878,0.548781,0.609756,-3.437500,40.331249,-1.906250,0.0,1.000000,0.000000,0.000000,0.000000
1782117256.492959,1759850,-0.965820,0.026855,-0.279785,-0.365854,0.426829,0.609756,-3.437500,40.331249,-1.906250,0.0,1.000000,0.000000,0.000000,0.000000
1782117256.502959,1759860,-0.965820,0.026855,-0.279785,-0.365854,0.426829,0.609756,-3.556250,40.200001,-1.918750,0.0,1.000000,0.000000,0.000000,0.000000
1782117256.512959,1759870,-0.965332,0.025391,-0.277344,-0.182927,0.365854,0.487805,-3.556250,40.200001,-1.918750,0.0,1.000000,0.000000,0.000000,0.000000
1782117256.522959,1759880,-0.965820,0.023926,-0.274902,0.182927,0.426829,0.426829,-3.562500,40.200001,-1.931250,0.0,1.000000,0.000000,0.000000,0.000000
1782117256.532959,1759890,-0.964355,0.023438,-0.273926,0.609756,0.426829,0.426829,-3.562500,40.200001,-1.931250,0.0,1.000000,0.000000,0.000000,0.000000
1782117256.542959,1759900,-0.964844,0.023438,-0.274414,0.731707,0.426829,0.487805,-3.550000,40.231251,-1.912500,0.0,1.000000,0.000000,0.000000,0.000000
1782117256.552959,1759910,-0.965332,0.025391,-0.275391,0.609756,0.365854,0.548781,-3.550000,40.231251,-1.912500,0.0,1.000000,0.000000,0.000000,0.000000
1782117256.562959,1759920,-0.964844,0.027344,-0.276367,0.365854,0.426829,0.548781,-3.600000,40.225002,-1.950000,0.0,1.000000,0.000000,0.000000,0.000000
1782117256.572959,1759930,-0.964355,0.027344,-0.276367,0.121951,0.365854,0.487805,-3.600000,40.225002,-1.950000,0.0,1.000000,0.000000,0.000000,0.000000
1782117256.583959,1759941,-0.968750,0.028809,-0.276855,-0.243902,0.365854,0.426829,-3.581250,40.237499,-1.931250,0.0,1.000000,0.000000,0.000000,0.000000
1782117256.593959,1759951,-0.968750,0.028809,-0.276855,-0.243902,0.365854,0.426829,-3.581250,40.237499,-1.931250,0.0,1.000000,0.000000,0.000000,0.000000
1782117256.603959,1759961,-0.966797,0.028809,-0.275391,-0.243902,0.243902,0.365854,-3.562500,40.287502,-1.950000,0.0,1.000000,0.000000,0.000000,0.000000
1782117256.612959,1759970,-0.964844,0.029785,-0.275391,-0.182927,0.182927,0.365854,-3.562500,40.287502,-1.950000,0.0,1.000000,0.000000,0.000000,0.000000
1782117256.623959,1759981,-0.963379,0.027344,-0.274414,-0.060976,0.365854,0.365854,-3.631250,40.212502,-2.000000,0.0,1.000000,0.000000,0.000000,0.000000
1782117256.632959,1759990,-0.964355,0.026855,-0.273926,0.000000,0.487805,0.487805,-3.325000,40.593750,-1.906250,0.0,1.000000,0.000000,0.000000,0.000000
1782117256.642959,1760000,-0.966309,0.024902,-0.275879,-0.182927,0.548781,0.487805,-3.325000,40.593750,-1.906250,0.0,1.000000,0.000000,0.000000,0.000000
1782117256.653960,1760011,-0.964844,0.024414,-0.276367,-0.121951,0.365854,0.426829,-3.625000,40.212502,-2.000000,0.0,1.000000,0.000000,0.000000,0.000000
1782117256.663960,1760021,-0.964355,0.022949,-0.276367,0.060976,0.426829,0.426829,-3.625000,40.212502,-2.000000,0.0,1.000000,0.000000,0.000000,0.000000
1782117256.672959,1760030,-0.965820,0.022949,-0.275879,0.365854,0.487805,0.487805,-3.531250,40.262501,-1.981250,0.0,1.000000,0.000000,0.000000,0.000000
1782117256.682959,1760040,-0.965820,0.023438,-0.277344,0.548781,0.365854,0.609756,-3.531250,40.262501,-1.981250,0.0,1.000000,0.000000,0.000000,0.000000
1782117256.693959,1760051,-0.967285,0.022461,-0.277832,0.670732,0.304878,0.670732,-3.600000,40.299999,-2.025000,0.0,1.000000,0.000000,0.000000,0.000000
1782117256.703959,1760061,-0.967773,0.022949,-0.280273,0.731707,0.304878,0.670732,-3.600000,40.299999,-2.025000,0.0,1.000000,0.000000,0.000000,0.000000
1782117256.713959,1760071,-0.970215,0.025391,-0.279785,0.731707,0.182927,0.670732,-3.462500,40.406250,-2.000000,0.0,1.000000,0.000000,0.000000,0.000000
1782117256.722960,1760080,-0.966797,0.025879,-0.274902,0.731707,0.000000,0.609756,-3.462500,40.406250,-2.000000,0.0,1.000000,0.000000,0.000000,0.000000
1782117256.732960,1760090,-0.962891,0.026367,-0.273438,0.792683,-0.121951,0.548781,-3.637500,40.262501,-1.993750,0.0,1.000000,0.000000,0.000000,0.000000
1782117256.742959,1760100,-0.960449,0.027832,-0.272949,0.914634,-0.060976,0.548781,-3.637500,40.262501,-1.993750,0.0,1.000000,0.000000,0.000000,0.000000
1782117256.752959,1760110,-0.958984,0.027344,-0.276855,0.914634,0.243902,0.609756,-3.600000,40.281250,-1.987500,0.0,1.000000,0.000000,0.000000,0.000000
1782117256.762959,1760120,-0.959961,0.026367,-0.278320,0.792683,0.548781,0.670732,-3.600000,40.281250,-1.987500,0.0,1.000000,0.000000,0.000000,0.000000
1782117256.772959,1760130,-0.964355,0.027832,-0.280273,0.670732,0.670732,0.670732,-3.631250,40.262501,-2.043750,0.0,1.000000,0.000000,0.000000,0.000000
1782117256.782959,1760140,-0.966309,0.027344,-0.281738,0.426829,0.731707,0.609756,-3.631250,40.262501,-2.043750,0.0,1.000000,0.000000,0.000000,0.000000
1782117256.792959,1760150,-0.967773,0.026367,-0.280273,0.243902,0.670732,0.487805,-3.612500,40.225002,-1.993750,0.0,1.000000,0.000000,0.000000,0.000000
1782117256.802959,1760160,-0.966309,0.026367,-0.276855,0.243902,0.365854,0.426829,-3.612500,40.225002,-1.993750,0.0,1.000000,0.000000,0.000000,0.000000
1782117256.813959,1760171,-0.962402,0.025391,-0.275391,0.426829,0.365854,0.426829,-3.631250,40.256252,-2.018750,0.0,1.000000,0.000000,0.000000,0.000000
1782117256.823959,1760181,-0.961914,0.026367,-0.276855,0.609756,0.365854,0.487805,-3.631250,40.256252,-2.018750,0.0,1.000000,0.000000,0.000000,0.000000
1782117256.833959,1760191,-0.963867,0.024902,-0.276855,0.548781,0.487805,0.548781,-3.587500,40.275002,-2.043750,0.0,1.000000,0.000000,0.000000,0.000000
1782117256.842959,1760200,-0.966309,0.023926,-0.278320,0.487805,0.609756,0.609756,-3.587500,40.275002,-2.043750,0.0,1.000000,0.000000,0.000000,0.000000
1782117256.853959,1760211,-0.967285,0.023926,-0.279785,0.304878,0.670732,0.548781,-3.718750,40.193752,-2.018750,0.0,1.000000,0.000000,0.000000,0.000000
1782117256.864959,1760222,-0.970703,0.026367,-0.278809,0.243902,0.609756,0.548781,-3.381250,40.462502,-1.993750,0.0,1.000000,0.000000,0.000000,0.000000
1782117256.872959,1760230,-0.968750,0.026855,-0.274902,0.426829,0.304878,0.426829,-3.381250,40.462502,-1.993750,0.0,1.000000,0.000000,0.000000,0.000000
1782117256.882959,1760240,-0.965332,0.026367,-0.273926,0.792683,0.060976,0.487805,-3.381250,40.462502,-1.993750,0.0,1.000000,0.000000,0.000000,0.000000
1782117256.892959,1760250,-0.963867,0.027344,-0.276367,0.975610,0.000000,0.548781,-3.706250,40.174999,-2.093750,0.0,1.000000,0.000000,0.000000,0.000000
1782117256.902959,1760260,-0.962402,0.027832,-0.277344,0.975610,0.121951,0.609756,-3.706250,40.174999,-2.093750,0.0,1.000000,0.000000,0.000000,0.000000
1782117256.912959,1760270,-0.962402,0.026367,-0.280273,0.670732,0.243902,0.548781,-3.675000,40.237499,-2.031250,0.0,1.000000,0.000000,0.000000,0.000000
1782117256.922959,1760280,-0.962891,0.024414,-0.281250,0.243902,0.304878,0.548781,-3.531250,40.424999,-2.012500,0.0,1.000000,0.000000,0.000000,0.000000
1782117256.932959,1760290,-0.965332,0.024414,-0.283203,-0.121951,0.304878,0.426829,-3.531250,40.424999,-2.012500,0.0,1.000000,0.000000,0.000000,0.000000
1782117256.943959,1760301,-0.968262,0.023926,-0.283691,-0.304878,0.365854,0.365854,-3.712500,40.168751,-2.100000,0.0,1.000000,0.000000,0.000000,0.000000
1782117256.952959,1760310,-0.964844,0.024902,-0.280273,-0.243902,0.060976,0.426829,-3.712500,40.168751,-2.100000,0.0,1.000000,0.000000,0.000000,0.000000
1782117256.962959,1760320,-0.961914,0.025391,-0.280273,0.000000,0.000000,0.365854,-3.681250,40.231251,-2.081250,0.0,1.000000,0.000000,0.000000,0.000000
1782117256.972960,1760330,-0.958984,0.025391,-0.278320,0.304878,0.121951,0.426829,-3.681250,40.231251,-2.081250,0.0,1.000000,0.000000,0.000000,0.000000
1782117256.982960,1760340,-0.958496,0.025391,-0.281738,0.304878,0.304878,0.487805,-3.675000,40.243752,-2.068750,0.0,1.000000,0.000000,0.000000,0.000000
1782117256.992959,1760350,-0.961426,0.024414,-0.283203,0.365854,0.487805,0.609756,-3.675000,40.243752,-2.068750,0.0,1.000000,0.000000,0.000000,0.000000
1782117257.002959,1760360,-0.964355,0.023926,-0.283691,0.304878,0.609756,0.609756,-3.625000,40.318752,-2.100000,0.0,1.000000,0.000000,0.000000,0.000000
1782117257.014959,1760372,-0.968262,0.022461,-0.285645,0.182927,0.487805,0.609756,-3.625000,40.318752,-2.100000,0.0,1.000000,0.000000,0.000000,0.000000
1782117257.024959,1760382,-0.968750,0.021484,-0.284668,0.060976,0.243902,0.487805,-3.643750,40.256252,-2.131250,0.0,1.000000,0.000000,0.000000,0.000000
1782117257.032959,1760390,-0.966797,0.023926,-0.282227,0.060976,0.182927,0.365854,-3.643750,40.256252,-2.131250,0.0,1.000000,0.000000,0.000000,0.000000
1782117257.042959,1760400,-0.964844,0.023926,-0.277344,0.487805,0.000000,0.426829,-3.687500,40.225002,-2.187500,0.0,1.000000,0.000000,0.000000,0.000000
1782117257.053959,1760411,-0.961426,0.024414,-0.275391,0.731707,0.060976,0.426829,-3.687500,40.225002,-2.187500,0.0,1.000000,0.000000,0.000000,0.000000
1782117257.063959,1760421,-0.961426,0.024902,-0.274902,0.853659,0.243902,0.487805,-3.750000,40.212502,-2.156250,0.0,1.000000,0.000000,0.000000,0.000000
1782117257.073959,1760431,-0.961914,0.025879,-0.277832,0.731707,0.304878,0.609756,-3.750000,40.212502,-2.156250,0.0,1.000000,0.000000,0.000000,0.000000
1782117257.082959,1760440,-0.964355,0.026855,-0.278320,0.670732,0.365854,0.731707,-3.700000,40.243752,-2.193750,0.0,1.000000,0.000000,0.000000,0.000000
1782117257.092959,1760450,-0.965820,0.025879,-0.279785,0.426829,0.243902,0.731707,-3.700000,40.243752,-2.193750,0.0,1.000000,0.000000,0.000000,0.000000
1782117257.104959,1760462,-0.966309,0.024414,-0.283203,0.182927,0.182927,0.670732,-3.718750,40.299999,-2.093750,0.0,1.000000,0.000000,0.000000,0.000000
1782117257.112959,1760470,-0.967285,0.023926,-0.283691,-0.121951,0.182927,0.548781,-3.718750,40.299999,-2.093750,0.0,1.000000,0.000000,0.000000,0.000000
1782117257.122959,1760480,-0.967285,0.024414,-0.282715,-0.182927,0.121951,0.426829,-3.712500,40.218750,-2.143750,0.0,1.000000,0.000000,0.000000,0.000000
1782117257.132959,1760490,-0.964844,0.025391,-0.280762,-0.060976,0.060976,0.304878,-3.712500,40.218750,-2.143750,0.0,1.000000,0.000000,0.000000,0.000000
1782117257.143960,1760501,-0.961426,0.024414,-0.278320,0.243902,0.060976,0.365854,-3.725000,40.225002,-2.168750,0.0,1.000000,0.000000,0.000000,0.000000
1782117257.152959,1760510,-0.963379,0.023438,-0.279297,0.487805,0.182927,0.609756,-3.725000,40.225002,-2.168750,0.0,1.000000,0.000000,0.000000,0.000000
1782117257.162959,1760520,-0.964844,0.022461,-0.279297,0.487805,0.060976,0.670732,-3.725000,40.225002,-2.218750,0.0,1.000000,0.000000,0.000000,0.000000
1782117257.172959,1760530,-0.964355,0.021973,-0.278809,0.548781,-0.060976,0.731707,-3.725000,40.225002,-2.218750,0.0,1.000000,0.000000,0.000000,0.000000
1782117257.184959,1760542,-0.963379,0.021973,-0.278809,0.731707,-0.121951,0.731707,-3.781250,40.162502,-2.156250,0.0,1.000000,0.000000,0.000000,0.000000
1782117257.192959,1760550,-0.963379,0.021484,-0.279785,1.097561,0.000000,0.792683,-3.781250,40.162502,-2.156250,0.0,1.000000,0.000000,0.000000,0.000000
1782117257.202959,1760560,-0.964355,0.022461,-0.282227,1.280488,-0.060976,0.853659,-3.725000,40.281250,-2.162500,0.0,1.000000,0.000000,0.000000,0.000000
1782117257.212959,1760570,-0.964355,0.023926,-0.283203,1.280488,-0.060976,0.792683,-3.756250,40.268749,-2.175000,0.0,1.000000,0.000000,0.000000,0.000000
1782117257.223959,1760581,-0.964355,0.026367,-0.284668,1.158537,0.121951,0.731707,-3.756250,40.268749,-2.175000,0.0,1.000000,0.000000,0.000000,0.000000
1782117257.232960,1760590,-0.964844,0.026367,-0.284180,0.853659,0.121951,0.731707,-3.712500,40.287502,-2.137500,0.0,1.000000,0.000000,0.000000,0.000000
1782117257.242959,1760600,-0.966797,0.025879,-0.281738,0.487805,0.182927,0.609756,-3.712500,40.287502,-2.137500,0.0,1.000000,0.000000,0.000000,0.000000
1782117257.252959,1760610,-0.965820,0.026855,-0.279297,0.487805,0.000000,0.548781,-3.781250,40.200001,-2.168750,0.0,1.000000,0.000000,0.000000,0.000000
1782117257.262959,1760620,-0.962891,0.026367,-0.276855,0.609756,-0.121951,0.548781,-3.781250,40.200001,-2.168750,0.0,1.000000,0.000000,0.000000,0.000000
1782117257.272959,1760630,-0.960938,0.023926,-0.274414,0.853659,0.060976,0.670732,-3.656250,40.331249,-2.143750,0.0,1.000000,0.000000,0.000000,0.000000
1782117257.282959,1760640,-0.963867,0.021484,-0.276855,0.853659,0.060976,0.731707,-3.656250,40.331249,-2.143750,0.0,1.000000,0.000000,0.000000,0.000000
1782117257.292959,1760650,-0.964355,0.022461,-0.278809,0.792683,0.060976,0.731707,-3.550000,40.424999,-2.137500,0.0,1.000000,0.000000,0.000000,0.000000
1782117257.302959,1760660,-0.963867,0.020996,-0.281250,0.792683,0.000000,0.731707,-3.550000,40.424999,-2.137500,0.0,1.000000,0.000000,0.000000,0.000000
1782117257.312959,1760670,-0.967285,0.020996,-0.282715,0.670732,0.121951,0.670732,-3.662500,40.293751,-2.162500,0.0,1.000000,0.000000,0.000000,0.000000
1782117257.322959,1760680,-0.967285,0.022461,-0.283203,0.548781,-0.121951,0.609756,-3.662500,40.293751,-2.162500,0.0,1.000000,0.000000,0.000000,0.000000
1782117257.332959,1760690,-0.964844,0.023438,-0.281250,0.487805,-0.304878,0.548781,-3.587500,40.424999,-2.137500,0.0,1.000000,0.000000,0.000000,0.000000
1782117257.343959,1760701,-0.962891,0.024902,-0.279297,0.670732,-0.243902,0.609756,-3.587500,40.424999,-2.137500,0.0,1.000000,0.000000,0.000000,0.000000
1782117257.352959,1760710,-0.962891,0.024902,-0.279297,0.670732,-0.243902,0.609756,-3.637500,40.412502,-2.106250,0.0,1.000000,0.000000,0.000000,0.000000
1782117257.362959,1760720,-0.962402,0.025391,-0.278809,0.670732,-0.243902,0.731707,-3.637500,40.412502,-2.106250,0.0,1.000000,0.000000,0.000000,0.000000
1782117257.372959,1760730,-0.962891,0.024902,-0.281250,0.548781,-0.121951,0.731707,-3.531250,40.462502,-2.106250,0.0,1.000000,0.000000,0.000000,0.000000
1782117257.385959,1760743,-0.962891,0.024902,-0.282227,0.426829,0.060976,0.731707,-3.531250,40.462502,-2.106250,0.0,1.000000,0.000000,0.000000,0.000000
1782117257.392959,1760750,-0.962891,0.024902,-0.282227,0.426829,0.060976,0.731707,-3.637500,40.299999,-2.106250,0.0,1.000000,0.000000,0.000000,0.000000
1782117257.402959,1760760,-0.964355,0.022949,-0.283691,0.487805,0.060976,0.731707,-3.637500,40.299999,-2.106250,0.0,1.000000,0.000000,0.000000,0.000000
1782117257.412959,1760770,-0.965332,0.022949,-0.284668,0.487805,0.060976,0.792683,-3.706250,40.250000,-2.125000,0.0,1.000000,0.000000,0.000000,0.000000
1782117257.426960,1760784,-0.964844,0.020508,-0.281738,0.609756,-0.182927,0.670732,-3.743750,40.181252,-2.162500,0.0,1.000000,0.000000,0.000000,0.000000
1782117257.432959,1760790,-0.964844,0.020508,-0.281738,0.609756,-0.182927,0.670732,-3.743750,40.181252,-2.162500,0.0,1.000000,0.000000,0.000000,0.000000
1782117257.442959,1760800,-0.964355,0.020020,-0.281738,0.731707,-0.243902,0.670732,-3.743750,40.181252,-2.162500,0.0,1.000000,0.000000,0.000000,0.000000
1782117257.452959,1760810,-0.963379,0.020996,-0.281738,0.731707,-0.182927,0.670732,-3.675000,40.268749,-2.100000,0.0,1.000000,0.000000,0.000000,0.000000
1782117257.466959,1760824,-0.963867,0.021484,-0.281738,0.792683,-0.243902,0.670732,-3.700000,40.293751,-2.175000,0.0,1.000000,0.000000,0.000000,0.000000
1782117257.472960,1760830,-0.961914,0.022949,-0.280273,0.853659,-0.243902,0.731707,-3.700000,40.293751,-2.175000,0.0,1.000000,0.000000,0.000000,0.000000
1782117257.482960,1760840,-0.962402,0.021973,-0.278809,1.036585,-0.182927,0.792683,-3.700000,40.293751,-2.175000,0.0,1.000000,0.000000,0.000000,0.000000
1782117257.492959,1760850,-0.962891,0.021484,-0.277832,1.097561,-0.121951,0.853659,-3.775000,40.193752,-2.181250,0.0,1.000000,0.000000,0.000000,0.000000
1782117257.505960,1760863,-0.963867,0.022461,-0.277832,1.158537,-0.243902,0.975610,-3.756250,40.231251,-2.256250,0.0,1.000000,0.000000,0.000000,0.000000
1782117257.512959,1760870,-0.963867,0.022461,-0.277832,1.158537,-0.243902,0.975610,-3.756250,40.231251,-2.256250,0.0,1.000000,0.000000,0.000000,0.000000
1782117257.523959,1760881,-0.966797,0.022461,-0.280273,0.975610,-0.182927,0.914634,-3.631250,40.375000,-2.106250,0.0,1.000000,0.000000,0.000000,0.000000
1782117257.533959,1760891,-0.967285,0.024902,-0.281738,0.731707,-0.243902,0.792683,-3.631250,40.375000,-2.106250,0.0,1.000000,0.000000,0.000000,0.000000
1782117257.544959,1760902,-0.966797,0.026855,-0.280762,0.487805,-0.304878,0.792683,-3.725000,40.237499,-2.231250,0.0,1.000000,0.000000,0.000000,0.000000
1782117257.553959,1760911,-0.964844,0.027832,-0.278809,0.426829,-0.426829,0.731707,-3.725000,40.237499,-2.231250,0.0,1.000000,0.000000,0.000000,0.000000
1782117257.562959,1760920,-0.963867,0.027832,-0.279785,0.304878,-0.304878,0.731707,-3.662500,40.262501,-2.200000,0.0,1.000000,0.000000,0.000000,0.000000
1782117257.572959,1760930,-0.964844,0.025391,-0.281250,0.365854,-0.365854,0.792683,-3.662500,40.262501,-2.200000,0.0,1.000000,0.000000,0.000000,0.000000
1782117257.585959,1760943,-0.963379,0.022461,-0.280762,0.243902,-0.365854,0.792683,-3.693750,40.212502,-2.137500,0.0,1.000000,0.000000,0.000000,0.000000
1782117257.593959,1760951,-0.965332,0.020508,-0.282227,0.121951,-0.304878,0.792683,-3.693750,40.212502,-2.137500,0.0,1.000000,0.000000,0.000000,0.000000
1782117257.603959,1760961,-0.965332,0.020508,-0.281738,0.304878,-0.426829,0.792683,-3.668750,40.306252,-2.112500,0.0,1.000000,0.000000,0.000000,0.000000
1782117257.613959,1760971,-0.963379,0.019531,-0.281250,0.548781,-0.548781,0.792683,-3.668750,40.306252,-2.112500,0.0,1.000000,0.000000,0.000000,0.000000
1782117257.624959,1760982,-0.961426,0.020020,-0.281738,0.609756,-0.548781,0.792683,-3.681250,40.325001,-2.118750,0.0,1.000000,0.000000,0.000000,0.000000
1782117257.633959,1760991,-0.960938,0.022461,-0.282227,0.548781,-0.426829,0.792683,-3.681250,40.325001,-2.118750,0.0,1.000000,0.000000,0.000000,0.000000
1782117257.642959,1761000,-0.961426,0.023926,-0.281738,0.609756,-0.304878,0.853659,-3.681250,40.293751,-2.162500,0.0,1.000000,0.000000,0.000000,0.000000
1782117257.652959,1761010,-0.961914,0.023926,-0.282227,0.487805,-0.182927,0.792683,-3.681250,40.293751,-2.162500,0.0,1.000000,0.000000,0.000000,0.000000
1782117257.663960,1761021,-0.965332,0.024414,-0.280762,0.243902,-0.060976,0.853659,-3.756250,40.206249,-2.100000,0.0,1.000000,0.000000,0.000000,0.000000
1782117257.672959,1761030,-0.967285,0.023926,-0.280273,0.243902,-0.365854,0.914634,-3.756250,40.206249,-2.100000,0.0,1.000000,0.000000,0.000000,0.000000
1782117257.682959,1761040,-0.965332,0.024414,-0.279297,0.243902,-0.548781,0.853659,-3.637500,40.331249,-2.162500,0.0,1.000000,0.000000,0.000000,0.000000
1782117257.692959,1761050,-0.964355,0.025391,-0.278809,0.304878,-0.548781,0.853659,-3.637500,40.331249,-2.162500,0.0,1.000000,0.000000,0.000000,0.000000
1782117257.704959,1761062,-0.962402,0.023926,-0.278320,0.548781,-0.548781,0.914634,-3.681250,40.337502,-2.075000,0.0,1.000000,0.000000,0.000000,0.000000
1782117257.712959,1761070,-0.963379,0.023926,-0.279297,0.609756,-0.487805,0.975610,-3.681250,40.337502,-2.075000,0.0,1.000000,0.000000,0.000000,0.000000
1782117257.722960,1761080,-0.966797,0.021973,-0.278320,0.670732,-0.487805,1.097561,-3.687500,40.275002,-2.106250,0.0,1.000000,0.000000,0.000000,0.000000
1782117257.732960,1761090,-0.965820,0.020996,-0.278809,0.670732,-0.609756,1.036585,-3.687500,40.275002,-2.106250,0.0,1.000000,0.000000,0.000000,0.000000
1782117257.744959,1761102,-0.966797,0.020020,-0.278320,0.548781,-0.609756,0.975610,-3.731250,40.174999,-2.093750,0.0,1.000000,0.000000,0.000000,0.000000
1782117257.752959,1761110,-0.967773,0.021484,-0.278320,0.365854,-0.609756,0.914634,-3.731250,40.174999,-2.093750,0.0,1.000000,0.000000,0.000000,0.000000
1782117257.762959,1761120,-0.965820,0.020996,-0.276367,0.304878,-0.792683,0.792683,-3.681250,40.293751,-2.131250,0.0,1.000000,0.000000,0.000000,0.000000
1782117257.772959,1761130,-0.961426,0.021973,-0.274902,0.487805,-0.731707,0.792683,-3.681250,40.293751,-2.131250,0.0,1.000000,0.000000,0.000000,0.000000
1782117257.784959,1761142,-0.961914,0.023438,-0.276855,0.670732,-0.548781,0.914634,-3.775000,40.150002,-2.125000,0.0,1.000000,0.000000,0.000000,0.000000
1782117257.792959,1761150,-0.964355,0.023926,-0.278809,0.792683,-0.487805,1.036585,-3.775000,40.150002,-2.125000,0.0,1.000000,0.000000,0.000000,0.000000
1782117257.802959,1761160,-0.963867,0.023438,-0.281250,0.670732,-0.426829,1.158537,-3.687500,40.168751,-2.068750,0.0,1.000000,0.000000,0.000000,0.000000
1782117257.812959,1761170,-0.964844,0.022461,-0.282715,0.426829,-0.365854,1.036585,-3.737500,40.162502,-2.106250,0.0,1.000000,0.000000,0.000000,0.000000
1782117257.824960,1761182,-0.967285,0.022949,-0.282227,0.243902,-0.365854,0.853659,-3.737500,40.162502,-2.106250,0.0,1.000000,0.000000,0.000000,0.000000
1782117257.833959,1761191,-0.966797,0.022461,-0.278320,0.243902,-0.487805,0.853659,-3.637500,40.299999,-2.137500,0.0,1.000000,0.000000,0.000000,0.000000
1782117257.842959,1761200,-0.964844,0.023926,-0.276855,0.487805,-0.609756,0.792683,-3.637500,40.299999,-2.137500,0.0,1.000000,0.000000,0.000000,0.000000
1782117257.852959,1761210,-0.963379,0.023926,-0.276367,0.731707,-0.609756,0.914634,-3.487500,40.412502,-2.075000,0.0,1.000000,0.000000,0.000000,0.000000
1782117257.862959,1761220,-0.963379,0.022949,-0.276855,0.853659,-0.731707,1.036585,-3.487500,40.412502,-2.075000,0.0,1.000000,0.000000,0.000000,0.000000
1782117257.872959,1761230,-0.963379,0.022949,-0.279297,0.853659,-0.670732,1.158537,-3.462500,40.481251,-2.031250,0.0,1.000000,0.000000,0.000000,0.000000
1782117257.882959,1761240,-0.963867,0.022461,-0.279785,0.792683,-0.487805,1.158537,-3.462500,40.481251,-2.031250,0.0,1.000000,0.000000,0.000000,0.000000
1782117257.892959,1761250,-0.964844,0.020508,-0.279785,0.548781,-0.365854,1.097561,-3.693750,40.212502,-2.043750,0.0,1.000000,0.000000,0.000000,0.000000
1782117257.902959,1761260,-0.968262,0.022461,-0.280273,0.487805,-0.426829,0.975610,-3.693750,40.212502,-2.043750,0.0,1.000000,0.000000,0.000000,0.000000
1782117257.912959,1761270,-0.966797,0.022461,-0.276855,0.548781,-0.548781,0.853659,-3.406250,40.493752,-1.937500,0.0,1.000000,0.000000,0.000000,0.000000
1782117257.922959,1761280,-0.964355,0.023926,-0.273926,0.853659,-0.609756,0.853659,-3.406250,40.493752,-1.937500,0.0,1.000000,0.000000,0.000000,0.000000
1782117257.932959,1761290,-0.962891,0.025879,-0.273926,1.036585,-0.548781,0.975610,-3.493750,40.381252,-2.018750,0.0,1.000000,0.000000,0.000000,0.000000
1782117257.942959,1761300,-0.963379,0.026367,-0.275879,0.914634,-0.548781,1.097561,-3.493750,40.381252,-2.018750,0.0,1.000000,0.000000,0.000000,0.000000
1782117257.953959,1761311,-0.963867,0.025879,-0.276855,0.670732,-0.548781,1.158537,-3.625000,40.306252,-2.068750,0.0,1.000000,0.000000,0.000000,0.000000
1782117257.962959,1761320,-0.966309,0.026855,-0.277344,0.426829,-0.548781,1.097561,-3.625000,40.306252,-2.068750,0.0,1.000000,0.000000,0.000000,0.000000
1782117257.972960,1761330,-0.967773,0.025391,-0.276367,0.182927,-0.487805,1.097561,-3.637500,40.193752,-2.050000,0.0,1.000000,0.000000,0.000000,0.000000
1782117257.982960,1761340,-0.968262,0.025391,-0.276855,0.121951,-0.548781,0.975610,-3.637500,40.193752,-2.050000,0.0,1.000000,0.000000,0.000000,0.000000
1782117257.993959,1761351,-0.966309,0.025391,-0.275879,0.243902,-0.670732,0.853659,-3.500000,40.337502,-2.012500,0.0,1.000000,0.000000,0.000000,0.000000
1782117258.003959,1761361,-0.964844,0.024414,-0.273926,0.548781,-0.670732,0.853659,-3.500000,40.337502,-2.012500,0.0,1.000000,0.000000,0.000000,0.000000
1782117258.012959,1761370,-0.963867,0.024414,-0.274414,0.853659,-0.670732,0.975610,-3.706250,40.156250,-2.037500,0.0,1.000000,0.000000,0.000000,0.000000
1782117258.023959,1761381,-0.964355,0.023926,-0.276367,0.914634,-0.609756,1.097561,-3.706250,40.156250,-2.037500,0.0,1.000000,0.000000,0.000000,0.000000
1782117258.032959,1761390,-0.963379,0.024902,-0.277344,0.731707,-0.548781,1.097561,-3.712500,40.181252,-2.050000,0.0,1.000000,0.000000,0.000000,0.000000
1782117258.043959,1761401,-0.963867,0.024414,-0.279785,0.487805,-0.487805,1.097561,-3.712500,40.181252,-2.050000,0.0,1.000000,0.000000,0.000000,0.000000
1782117258.052959,1761410,-0.964844,0.024902,-0.279785,0.182927,-0.365854,0.975610,-3.706250,40.181252,-2.018750,0.0,1.000000,0.000000,0.000000,0.000000
1782117258.064960,1761422,-0.966797,0.026367,-0.279297,0.060976,-0.365854,0.975610,-3.512500,40.387501,-1.962500,0.0,1.000000,0.000000,0.000000,0.000000
1782117258.072959,1761430,-0.966309,0.024902,-0.277344,0.304878,-0.365854,0.853659,-3.512500,40.387501,-1.962500,0.0,1.000000,0.000000,0.000000,0.000000
1782117258.082959,1761440,-0.966309,0.023438,-0.273926,0.731707,-0.426829,0.914634,-3.512500,40.387501,-1.962500,0.0,1.000000,0.000000,0.000000,0.000000
1782117258.092959,1761450,-0.966797,0.022949,-0.272461,1.036585,-0.548781,1.036585,-3.537500,40.331249,-1.987500,0.0,1.000000,0.000000,0.000000,0.000000
1782117258.102959,1761460,-0.965332,0.024414,-0.272461,1.158537,-0.670732,1.036585,-3.593750,40.299999,-2.025000,0.0,1.000000,0.000000,0.000000,0.000000
1782117258.112959,1761470,-0.964355,0.025391,-0.273926,1.158537,-0.670732,1.158537,-3.593750,40.299999,-2.025000,0.0,1.000000,0.000000,0.000000,0.000000
1782117258.122959,1761480,-0.965820,0.026367,-0.274414,0.914634,-0.670732,1.158537,-3.556250,40.287502,-2.025000,0.0,1.000000,0.000000,0.000000,0.000000
1782117258.132959,1761490,-0.964844,0.026367,-0.277344,0.731707,-0.609756,1.158537,-3.556250,40.287502,-2.025000,0.0,1.000000,0.000000,0.000000,0.000000
1782117258.143960,1761501,-0.964844,0.025391,-0.277832,0.609756,-0.548781,1.036585,-3.706250,40.106251,-2.056250,0.0,1.000000,0.000000,0.000000,0.000000
1782117258.153960,1761511,-0.966309,0.025391,-0.277832,0.609756,-0.365854,0.975610,-3.706250,40.106251,-2.056250,0.0,1.000000,0.000000,0.000000,0.000000
1782117258.162959,1761520,-0.967773,0.022461,-0.279297,0.609756,-0.243902,0.792683,-3.418750,40.443752,-1.925000,0.0,1.000000,0.000000,0.000000,0.000000
1782117258.173959,1761531,-0.964844,0.024414,-0.276367,0.670732,-0.243902,0.731707,-3.418750,40.443752,-1.925000,0.0,1.000000,0.000000,0.000000,0.000000
1782117258.182959,1761540,-0.961914,0.025879,-0.274414,1.036585,-0.243902,0.792683,-3.618750,40.181252,-1.987500,0.0,1.000000,0.000000,0.000000,0.000000
1782117258.193959,1761551,-0.965332,0.025391,-0.271973,1.280488,-0.182927,0.975610,-3.618750,40.181252,-1.987500,0.0,1.000000,0.000000,0.000000,0.000000
1782117258.202959,1761560,-0.965332,0.025391,-0.271973,1.280488,-0.182927,0.975610,-3.587500,40.275002,-1.981250,0.0,1.000000,0.000000,0.000000,0.000000
1782117258.212959,1761570,-0.964844,0.023926,-0.271484,1.280488,-0.365854,1.036585,-3.587500,40.275002,-1.981250,0.0,1.000000,0.000000,0.000000,0.000000
1782117258.222960,1761580,-0.965820,0.027832,-0.274414,1.219512,-0.365854,1.097561,-3.606250,40.256252,-1.975000,0.0,1.000000,0.000000,0.000000,0.000000
1782117258.233959,1761591,-0.965820,0.027832,-0.274414,1.219512,-0.365854,1.097561,-3.606250,40.256252,-1.975000,0.0,1.000000,0.000000,0.000000,0.000000
1782117258.242959,1761600,-0.965820,0.026855,-0.275879,1.219512,-0.365854,1.097561,-3.581250,40.225002,-1.950000,0.0,1.000000,0.000000,0.000000,0.000000
1782117258.253959,1761611,-0.964844,0.025879,-0.278320,1.280488,-0.304878,1.158537,-3.581250,40.225002,-1.950000,0.0,1.000000,0.000000,0.000000,0.000000
1782117258.262959,1761620,-0.967285,0.023926,-0.278809,1.280488,-0.243902,1.158537,-3.568750,40.262501,-1.981250,0.0,1.000000,0.000000,0.000000,0.000000
1782117258.272959,1761630,-0.967773,0.025391,-0.277832,1.036585,-0.182927,0.975610,-3.568750,40.262501,-1.981250,0.0,1.000000,0.000000,0.000000,0.000000
1782117258.282959,1761640,-0.964355,0.024414,-0.276855,1.158537,-0.243902,0.853659,-3.581250,40.275002,-1.993750,0.0,1.000000,0.000000,0.000000,0.000000
1782117258.292959,1761650,-0.964844,0.024414,-0.274414,1.219512,-0.121951,0.853659,-3.581250,40.275002,-1.993750,0.0,1.000000,0.000000,0.000000,0.000000
1782117258.302959,1761660,-0.966797,0.026855,-0.273438,1.341463,-0.365854,1.036585,-3.606250,40.212502,-1.950000,0.0,1.000000,0.000000,0.000000,0.000000
1782117258.312959,1761670,-0.964844,0.028320,-0.272461,1.280488,-0.609756,1.036585,-3.606250,40.212502,-1.950000,0.0,1.000000,0.000000,0.000000,0.000000
1782117258.322959,1761680,-0.963379,0.030762,-0.272949,1.158537,-0.548781,1.036585,-3.631250,40.250000,-1.900000,0.0,1.000000,0.000000,0.000000,0.000000
1782117258.332959,1761690,-0.963379,0.028809,-0.274902,0.975610,-0.487805,1.097561,-3.631250,40.250000,-1.900000,0.0,1.000000,0.000000,0.000000,0.000000
1782117258.342959,1761700,-0.962891,0.028320,-0.276367,0.914634,-0.365854,1.158537,-3.606250,40.187500,-1.968750,0.0,1.000000,0.000000,0.000000,0.000000
1782117258.352959,1761710,-0.964355,0.025879,-0.278320,0.792683,-0.182927,1.036585,-3.606250,40.187500,-1.968750,0.0,1.000000,0.000000,0.000000,0.000000
1782117258.362959,1761720,-0.966797,0.025879,-0.279297,0.609756,-0.182927,1.036585,-3.550000,40.275002,-1.900000,0.0,1.000000,0.000000,0.000000,0.000000
1782117258.372959,1761730,-0.968262,0.025391,-0.278320,0.487805,-0.243902,0.853659,-3.550000,40.275002,-1.900000,0.0,1.000000,0.000000,0.000000,0.000000
1782117258.382959,1761740,-0.964844,0.025879,-0.277344,0.426829,-0.304878,0.670732,-3.606250,40.168751,-1.943750,0.0,1.000000,0.000000,0.000000,0.000000
1782117258.392959,1761750,-0.965820,0.026855,-0.274414,0.670732,-0.243902,0.731707,-3.606250,40.262501,-1.931250,0.0,1.000000,0.000000,0.000000,0.000000
1782117258.402959,1761760,-0.964355,0.027344,-0.272461,0.853659,-0.304878,0.792683,-3.606250,40.262501,-1.931250,0.0,1.000000,0.000000,0.000000,0.000000
1782117258.413960,1761771,-0.964844,0.027344,-0.271973,0.975610,-0.365854,0.914634,-3.625000,40.156250,-1.912500,0.0,1.000000,0.000000,0.000000,0.000000
1782117258.422959,1761780,-0.965820,0.027344,-0.271484,0.914634,-0.426829,0.975610,-3.625000,40.156250,-1.912500,0.0,1.000000,0.000000,0.000000,0.000000
1782117258.434959,1761792,-0.966309,0.025879,-0.270508,0.853659,-0.487805,0.914634,-3.281250,40.506252,-1.856250,0.0,1.000000,0.000000,0.000000,0.000000
1782117258.443959,1761801,-0.966797,0.024902,-0.272461,0.670732,-0.365854,0.975610,-3.281250,40.506252,-1.856250,0.0,1.000000,0.000000,0.000000,0.000000
1782117258.452959,1761810,-0.966309,0.026855,-0.272461,0.609756,-0.365854,0.914634,-3.331250,40.431252,-1.887500,0.0,1.000000,0.000000,0.000000,0.000000
1782117258.462959,1761820,-0.966309,0.025879,-0.275879,0.609756,-0.304878,0.853659,-3.331250,40.431252,-1.887500,0.0,1.000000,0.000000,0.000000,0.000000
1782117258.473959,1761831,-0.964844,0.027344,-0.273926,0.670732,-0.243902,0.853659,-3.456250,40.350002,-1.931250,0.0,1.000000,0.000000,0.000000,0.000000
1782117258.482960,1761840,-0.963867,0.028320,-0.275391,0.548781,-0.243902,0.792683,-3.456250,40.350002,-1.931250,0.0,1.000000,0.000000,0.000000,0.000000
1782117258.492959,1761850,-0.965820,0.028809,-0.275879,0.304878,-0.121951,0.731707,-3.512500,40.231251,-1.912500,0.0,1.000000,0.000000,0.000000,0.000000
1782117258.502959,1761860,-0.967285,0.028320,-0.274414,0.121951,-0.243902,0.731707,-3.512500,40.231251,-1.912500,0.0,1.000000,0.000000,0.000000,0.000000
1782117258.513959,1761871,-0.964844,0.026855,-0.272949,0.243902,-0.304878,0.731707,-3.362500,40.462502,-1.837500,0.0,1.000000,0.000000,0.000000,0.000000
1782117258.522959,1761880,-0.965820,0.024902,-0.269531,0.426829,-0.243902,0.670732,-3.362500,40.462502,-1.837500,0.0,1.000000,0.000000,0.000000,0.000000
1782117258.532959,1761890,-0.965820,0.024414,-0.270020,0.731707,-0.243902,0.731707,-3.537500,40.275002,-1.887500,0.0,1.000000,0.000000,0.000000,0.000000
1782117258.542959,1761900,-0.966309,0.022461,-0.270996,0.853659,-0.243902,0.792683,-3.537500,40.275002,-1.887500,0.0,1.000000,0.000000,0.000000,0.000000
1782117258.553959,1761911,-0.967285,0.022949,-0.273438,0.853659,-0.243902,0.853659,-3.587500,40.187500,-1.950000,0.0,1.000000,0.000000,0.000000,0.000000
1782117258.562959,1761920,-0.967285,0.024414,-0.273926,0.792683,-0.304878,0.853659,-3.587500,40.187500,-1.950000,0.0,1.000000,0.000000,0.000000,0.000000
1782117258.573959,1761931,-0.966797,0.025879,-0.274414,0.853659,-0.243902,0.914634,-3.493750,40.318752,-1.906250,0.0,1.000000,0.000000,0.000000,0.000000
1782117258.583959,1761941,-0.965820,0.026367,-0.274414,0.914634,-0.304878,0.914634,-3.493750,40.318752,-1.906250,0.0,1.000000,0.000000,0.000000,0.000000
1782117258.594959,1761952,-0.966309,0.026367,-0.275391,0.853659,-0.365854,0.792683,-3.443750,40.293751,-1.875000,0.0,1.000000,0.000000,0.000000,0.000000
1782117258.602959,1761960,-0.966797,0.026367,-0.274414,0.792683,-0.304878,0.670732,-3.443750,40.293751,-1.875000,0.0,1.000000,0.000000,0.000000,0.000000
1782117258.612959,1761970,-0.967285,0.026367,-0.271973,0.609756,-0.243902,0.670732,-3.375000,40.443752,-1.875000,0.0,1.000000,0.000000,0.000000,0.000000
1782117258.622959,1761980,-0.964355,0.026367,-0.271484,0.609756,-0.304878,0.670732,-3.375000,40.443752,-1.875000,0.0,1.000000,0.000000,0.000000,0.000000
1782117258.634959,1761992,-0.962891,0.028320,-0.272461,0.670732,-0.243902,0.731707,-3.643750,40.137501,-1.875000,0.0,1.000000,0.000000,0.000000,0.000000
1782117258.642959,1762000,-0.963867,0.026855,-0.273926,0.609756,-0.060976,0.792683,-3.643750,40.137501,-1.875000,0.0,1.000000,0.000000,0.000000,0.000000
1782117258.653960,1762011,-0.964844,0.025879,-0.274902,0.548781,-0.060976,0.792683,-3.518750,40.256252,-1.881250,0.0,1.000000,0.000000,0.000000,0.000000
1782117258.662959,1762020,-0.964355,0.025391,-0.276367,0.365854,0.060976,0.731707,-3.518750,40.256252,-1.881250,0.0,1.000000,0.000000,0.000000,0.000000
1782117258.672959,1762030,-0.967285,0.024902,-0.278320,0.182927,0.182927,0.670732,-3.600000,40.168751,-1.925000,0.0,1.000000,0.000000,0.000000,0.000000
1782117258.682959,1762040,-0.968262,0.025391,-0.277344,-0.121951,0.182927,0.609756,-3.518750,40.212502,-1.868750,0.0,1.000000,0.000000,0.000000,0.000000
1782117258.692959,1762050,-0.964844,0.025391,-0.273926,0.000000,-0.060976,0.548781,-3.518750,40.212502,-1.868750,0.0,1.000000,0.000000,0.000000,0.000000
1782117258.702959,1762060,-0.964355,0.024902,-0.272949,0.365854,0.060976,0.609756,-3.656250,40.143749,-1.925000,0.0,1.000000,0.000000,0.000000,0.000000
1782117258.712959,1762070,-0.965820,0.024414,-0.271484,0.670732,0.000000,0.731707,-3.656250,40.143749,-1.925000,0.0,1.000000,0.000000,0.000000,0.000000
1782117258.722960,1762080,-0.965332,0.026367,-0.274414,0.731707,0.000000,0.731707,-3.350000,40.437500,-1.850000,0.0,1.000000,0.000000,0.000000,0.000000
1782117258.732960,1762090,-0.966797,0.025391,-0.273438,0.548781,0.000000,0.670732,-3.350000,40.437500,-1.850000,0.0,1.000000,0.000000,0.000000,0.000000
1782117258.742959,1762100,-0.967773,0.023926,-0.274414,0.487805,0.000000,0.731707,-3.587500,40.181252,-1.956250,0.0,1.000000,0.000000,0.000000,0.000000
1782117258.754959,1762112,-0.968262,0.025391,-0.273926,0.365854,0.000000,0.792683,-3.587500,40.181252,-1.956250,0.0,1.000000,0.000000,0.000000,0.000000
1782117258.763959,1762121,-0.968262,0.024902,-0.274414,0.365854,-0.121951,0.731707,-3.368750,40.406250,-1.862500,0.0,1.000000,0.000000,0.000000,0.000000
1782117258.773959,1762131,-0.966309,0.024902,-0.272949,0.304878,-0.182927,0.548781,-3.368750,40.406250,-1.862500,0.0,1.000000,0.000000,0.000000,0.000000
1782117258.782959,1762140,-0.963379,0.025391,-0.272461,0.243902,-0.121951,0.487805,-3.543750,40.237499,-1.900000,0.0,1.000000,0.000000,0.000000,0.000000
1782117258.794959,1762152,-0.962891,0.026367,-0.273438,0.426829,0.000000,0.548781,-3.543750,40.237499,-1.900000,0.0,1.000000,0.000000,0.000000,0.000000
1782117258.803959,1762161,-0.965332,0.024902,-0.273438,0.487805,0.060976,0.670732,-3.550000,40.268749,-1.943750,0.0,1.000000,0.000000,0.000000,0.000000
1782117258.812959,1762170,-0.964844,0.025391,-0.273438,0.487805,0.060976,0.731707,-3.550000,40.268749,-1.943750,0.0,1.000000,0.000000,0.000000,0.000000
1782117258.822959,1762180,-0.964844,0.023926,-0.273926,0.426829,0.060976,0.731707,-3.575000,40.187500,-1.950000,0.0,1.000000,0.000000,0.000000,0.000000
1782117258.835959,1762193,-0.965332,0.021973,-0.272949,0.304878,0.121951,0.670732,-3.575000,40.187500,-1.950000,0.0,1.000000,0.000000,0.000000,0.000000
1782117258.842959,1762200,-0.965820,0.021973,-0.273926,0.243902,0.182927,0.609756,-3.512500,40.337502,-1.931250,0.0,1.000000,0.000000,0.000000,0.000000
1782117258.852959,1762210,-0.966797,0.023926,-0.273926,0.304878,0.182927,0.609756,-3.512500,40.337502,-1.931250,0.0,1.000000,0.000000,0.000000,0.000000
1782117258.862959,1762220,-0.964355,0.025879,-0.273438,0.365854,0.121951,0.609756,-3.625000,40.231251,-2.006250,0.0,1.000000,0.000000,0.000000,0.000000
1782117258.875959,1762233,-0.963379,0.026367,-0.272461,0.609756,0.243902,0.609756,-3.625000,40.231251,-2.006250,0.0,1.000000,0.000000,0.000000,0.000000
1782117258.882959,1762240,-0.964355,0.028320,-0.273926,0.731707,0.365854,0.670732,-3.656250,40.200001,-1.937500,0.0,1.000000,0.000000,0.000000,0.000000
1782117258.892959,1762250,-0.965820,0.026855,-0.273926,0.853659,0.426829,0.731707,-3.656250,40.200001,-1.937500,0.0,1.000000,0.000000,0.000000,0.000000
1782117258.902959,1762260,-0.967773,0.026855,-0.273926,0.853659,0.426829,0.731707,-3.643750,40.156250,-1.925000,0.0,1.000000,0.000000,0.000000,0.000000
1782117258.916960,1762274,-0.969727,0.026367,-0.273438,0.853659,0.243902,0.731707,-3.643750,40.181252,-1.956250,0.0,1.000000,0.000000,0.000000,0.000000
1782117258.922959,1762280,-0.968750,0.025391,-0.271484,0.853659,0.121951,0.670732,-3.643750,40.181252,-1.956250,0.0,1.000000,0.000000,0.000000,0.000000
1782117258.932959,1762290,-0.968750,0.024414,-0.270508,0.792683,0.060976,0.609756,-3.643750,40.181252,-1.956250,0.0,1.000000,0.000000,0.000000,0.000000
1782117258.943959,1762301,-0.967285,0.025391,-0.270020,0.853659,-0.060976,0.548781,-3.606250,40.174999,-1.918750,0.0,1.000000,0.000000,0.000000,0.000000
1782117258.952959,1762310,-0.965820,0.025879,-0.271973,0.853659,0.000000,0.548781,-3.606250,40.174999,-1.918750,0.0,1.000000,0.000000,0.000000,0.000000
1782117258.963959,1762321,-0.964844,0.026367,-0.270996,0.731707,0.121951,0.548781,-3.675000,40.193752,-1.956250,0.0,1.000000,0.000000,0.000000,0.000000
1782117258.973959,1762331,-0.967773,0.025879,-0.271484,0.609756,0.121951,0.548781,-3.612500,40.212502,-1.937500,0.0,1.000000,0.000000,0.000000,0.000000
1782117258.983959,1762341,-0.966797,0.025879,-0.272461,0.487805,0.182927,0.548781,-3.612500,40.212502,-1.937500,0.0,1.000000,0.000000,0.000000,0.000000
1782117258.993959,1762351,-0.967285,0.025879,-0.274902,0.304878,0.121951,0.487805,-3.718750,40.131252,-2.006250,0.0,1.000000,0.000000,0.000000,0.000000
1782117259.002959,1762360,-0.966309,0.028320,-0.276855,0.365854,0.060976,0.548781,-3.718750,40.131252,-2.006250,0.0,1.000000,0.000000,0.000000,0.000000
1782117259.012959,1762370,-0.964844,0.028809,-0.277832,0.426829,0.000000,0.548781,-3.681250,40.162502,-1.981250,0.0,1.000000,0.000000,0.000000,0.000000
1782117259.023959,1762381,-0.963379,0.028809,-0.278320,0.487805,0.060976,0.548781,-3.681250,40.162502,-1.981250,0.0,1.000000,0.000000,0.000000,0.000000
1782117259.033959,1762391,-0.961426,0.028320,-0.280762,0.304878,0.121951,0.609756,-3.631250,40.181252,-1.975000,0.0,1.000000,0.000000,0.000000,0.000000
1782117259.043959,1762401,-0.961914,0.026367,-0.281250,0.365854,0.182927,0.609756,-3.631250,40.181252,-1.975000,0.0,1.000000,0.000000,0.000000,0.000000
1782117259.053959,1762411,-0.961914,0.026367,-0.281250,0.365854,0.182927,0.609756,-3.556250,40.243752,-1.862500,0.0,1.000000,0.000000,0.000000,0.000000
1782117259.062959,1762420,-0.964355,0.023438,-0.279297,0.304878,0.426829,0.670732,-3.556250,40.243752,-1.862500,0.0,1.000000,0.000000,0.000000,0.000000
1782117259.072959,1762430,-0.964355,0.023438,-0.279297,0.304878,0.426829,0.670732,-3.581250,40.231251,-1.975000,0.0,1.000000,0.000000,0.000000,0.000000
1782117259.082959,1762440,-0.965820,0.022949,-0.277344,0.548781,0.304878,0.731707,-3.581250,40.231251,-1.975000,0.0,1.000000,0.000000,0.000000,0.000000
1782117259.093959,1762451,-0.967285,0.021973,-0.277344,0.792683,0.121951,0.914634,-3.487500,40.331249,-2.018750,0.0,1.000000,0.000000,0.000000,0.000000
1782117259.102959,1762460,-0.966309,0.020508,-0.276367,1.036585,-0.060976,0.914634,-3.487500,40.331249,-2.018750,0.0,1.000000,0.000000,0.000000,0.000000
1782117259.112959,1762470,-0.963867,0.021484,-0.277832,1.158537,-0.121951,0.853659,-3.600000,40.174999,-1.981250,0.0,1.000000,0.000000,0.000000,0.000000
1782117259.122959,1762480,-0.963379,0.021484,-0.277832,1.219512,0.000000,0.731707,-3.600000,40.174999,-1.981250,0.0,1.000000,0.000000,0.000000,0.000000
1782117259.132959,1762490,-0.963867,0.020996,-0.279297,1.158537,0.060976,0.609756,-3.456250,40.350002,-1.931250,0.0,1.000000,0.000000,0.000000,0.000000
1782117259.142959,1762500,-0.962891,0.022461,-0.279785,1.158537,0.365854,0.548781,-3.456250,40.350002,-1.931250,0.0,1.000000,0.000000,0.000000,0.000000
1782117259.153960,1762511,-0.964844,0.022949,-0.279297,0.975610,0.548781,0.487805,-3.587500,40.200001,-1.993750,0.0,1.000000,0.000000,0.000000,0.000000
1782117259.163960,1762521,-0.967285,0.025879,-0.279297,1.036585,0.487805,0.548781,-3.587500,40.200001,-1.993750,0.0,1.000000,0.000000,0.000000,0.000000
1782117259.173959,1762531,-0.967285,0.027344,-0.276855,0.975610,0.182927,0.670732,-3.631250,40.200001,-1.968750,0.0,1.000000,0.000000,0.000000,0.000000
1782117259.182959,1762540,-0.965820,0.028809,-0.276367,0.731707,0.000000,0.670732,-3.631250,40.200001,-1.968750,0.0,1.000000,0.000000,0.000000,0.000000
1782117259.192959,1762550,-0.963379,0.029297,-0.276855,0.365854,0.000000,0.670732,-3.718750,40.174999,-2.043750,0.0,1.000000,0.000000,0.000000,0.000000
1782117259.203959,1762561,-0.961914,0.026855,-0.276855,0.121951,0.060976,0.731707,-3.718750,40.174999,-2.043750,0.0,1.000000,0.000000,0.000000,0.000000
1782117259.212959,1762570,-0.964844,0.024902,-0.278320,-0.060976,0.243902,0.670732,-3.593750,40.268749,-2.018750,0.0,1.000000,0.000000,0.000000,0.000000
1782117259.222960,1762580,-0.965820,0.021973,-0.278320,-0.060976,0.304878,0.609756,-3.593750,40.268749,-2.018750,0.0,1.000000,0.000000,0.000000,0.000000
1782117259.232960,1762590,-0.965332,0.021484,-0.277344,0.060976,0.182927,0.487805,-3.706250,40.150002,-2.043750,0.0,1.000000,0.000000,0.000000,0.000000
1782117259.242959,1762600,-0.963379,0.019043,-0.276855,0.121951,0.121951,0.426829,-3.706250,40.150002,-2.043750,0.0,1.000000,0.000000,0.000000,0.000000
1782117259.252959,1762610,-0.964355,0.020508,-0.277832,0.121951,0.182927,0.365854,-3.675000,40.200001,-2.012500,0.0,1.000000,0.000000,0.000000,0.000000
1782117259.263959,1762621,-0.963867,0.022949,-0.277832,0.060976,0.121951,0.365854,-3.675000,40.200001,-2.012500,0.0,1.000000,0.000000,0.000000,0.000000
1782117259.272959,1762630,-0.963867,0.023438,-0.279785,0.000000,0.121951,0.365854,-3.743750,40.125000,-2.000000,0.0,1.000000,0.000000,0.000000,0.000000
1782117259.282959,1762640,-0.963867,0.024414,-0.281250,-0.121951,0.121951,0.426829,-3.581250,40.318752,-2.037500,0.0,1.000000,0.000000,0.000000,0.000000
1782117259.292959,1762650,-0.965332,0.024902,-0.278809,-0.182927,0.060976,0.487805,-3.581250,40.318752,-2.037500,0.0,1.000000,0.000000,0.000000,0.000000
1782117259.302959,1762660,-0.964844,0.025391,-0.278809,-0.304878,0.000000,0.487805,-3.387500,40.475002,-1.943750,0.0,1.000000,0.000000,0.000000,0.000000
1782117259.312959,1762670,-0.963867,0.024414,-0.277344,-0.365854,0.000000,0.548781,-3.387500,40.475002,-1.943750,0.0,1.000000,0.000000,0.000000,0.000000
1782117259.322959,1762680,-0.962891,0.024414,-0.277344,-0.304878,0.000000,0.487805,-3.462500,40.356251,-1.987500,0.0,1.000000,0.000000,0.000000,0.000000
1782117259.332959,1762690,-0.962891,0.022461,-0.276367,-0.243902,0.121951,0.548781,-3.462500,40.356251,-1.987500,0.0,1.000000,0.000000,0.000000,0.000000
1782117259.342959,1762700,-0.962891,0.021973,-0.277344,-0.182927,0.243902,0.548781,-3.300000,40.581249,-1.981250,0.0,1.000000,0.000000,0.000000,0.000000
1782117259.352959,1762710,-0.965820,0.020020,-0.277344,-0.182927,0.426829,0.548781,-3.300000,40.581249,-1.981250,0.0,1.000000,0.000000,0.000000,0.000000
1782117259.362959,1762720,-0.967773,0.020996,-0.276367,-0.121951,0.365854,0.548781,-3.643750,40.200001,-2.012500,0.0,1.000000,0.000000,0.000000,0.000000
1782117259.372959,1762730,-0.968262,0.020020,-0.275391,-0.121951,0.243902,0.426829,-3.643750,40.200001,-2.012500,0.0,1.000000,0.000000,0.000000,0.000000
1782117259.382959,1762740,-0.966797,0.020508,-0.273926,0.000000,0.060976,0.426829,-3.643750,40.256252,-2.081250,0.0,1.000000,0.000000,0.000000,0.000000
1782117259.395959,1762753,-0.965820,0.021973,-0.272461,0.365854,-0.060976,0.487805,-3.643750,40.256252,-2.081250,0.0,1.000000,0.000000,0.000000,0.000000
1782117259.403960,1762761,-0.964844,0.023438,-0.272461,0.609756,0.060976,0.609756,-3.637500,40.243752,-2.050000,0.0,1.000000,0.000000,0.000000,0.000000
1782117259.412959,1762770,-0.965332,0.023926,-0.274414,0.731707,0.060976,0.792683,-3.637500,40.243752,-2.050000,0.0,1.000000,0.000000,0.000000,0.000000
1782117259.422959,1762780,-0.965820,0.023926,-0.275391,0.670732,0.182927,0.914634,-3.706250,40.231251,-2.112500,0.0,1.000000,0.000000,0.000000,0.000000
1782117259.432959,1762790,-0.966797,0.023926,-0.275879,0.426829,0.182927,0.792683,-3.706250,40.231251,-2.112500,0.0,1.000000,0.000000,0.000000,0.000000
1782117259.442959,1762800,-0.969727,0.023926,-0.276855,0.304878,0.182927,0.792683,-3.743750,40.156250,-2.100000,0.0,1.000000,0.000000,0.000000,0.000000
1782117259.453959,1762811,-0.968750,0.022949,-0.274902,0.365854,0.000000,0.792683,-3.743750,40.156250,-2.100000,0.0,1.000000,0.000000,0.000000,0.000000
1782117259.462959,1762820,-0.965332,0.022949,-0.276367,0.548781,-0.121951,0.731707,-3.712500,40.206249,-2.050000,0.0,1.000000,0.000000,0.000000,0.000000
1782117259.474959,1762832,-0.962891,0.022949,-0.275879,0.609756,-0.060976,0.548781,-3.712500,40.206249,-2.050000,0.0,1.000000,0.000000,0.000000,0.000000
1782117259.482960,1762840,-0.963379,0.021973,-0.275391,0.731707,0.121951,0.609756,-3.668750,40.206249,-2.037500,0.0,1.000000,0.000000,0.000000,0.000000
1782117259.492959,1762850,-0.965820,0.020020,-0.279297,0.914634,0.243902,0.670732,-3.668750,40.206249,-2.037500,0.0,1.000000,0.000000,0.000000,0.000000
1782117259.502959,1762860,-0.968262,0.020508,-0.281738,1.280488,0.000000,0.792683,-3.731250,40.106251,-2.087500,0.0,1.000000,0.000000,0.000000,0.000000
1782117259.512959,1762870,-0.966797,0.022461,-0.278809,1.402439,-0.365854,0.792683,-3.731250,40.106251,-2.087500,0.0,1.000000,0.000000,0.000000,0.000000
1782117259.522959,1762880,-0.964844,0.025391,-0.277344,1.280488,-0.487805,0.792683,-3.725000,40.187500,-2.093750,0.0,1.000000,0.000000,0.000000,0.000000
1782117259.533959,1762891,-0.964844,0.026855,-0.278320,1.097561,-0.548781,0.914634,-3.725000,40.187500,-2.093750,0.0,1.000000,0.000000,0.000000,0.000000
1782117259.542959,1762900,-0.963867,0.025391,-0.279297,1.036585,-0.487805,0.853659,-3.693750,40.187500,-2.062500,0.0,1.000000,0.000000,0.000000,0.000000
1782117259.552959,1762910,-0.964355,0.025391,-0.279297,0.975610,-0.304878,0.792683,-3.693750,40.187500,-2.062500,0.0,1.000000,0.000000,0.000000,0.000000
1782117259.563959,1762921,-0.962402,0.024414,-0.279785,0.731707,-0.121951,0.731707,-3.750000,40.137501,-2.093750,0.0,1.000000,0.000000,0.000000,0.000000
1782117259.572959,1762930,-0.961426,0.023438,-0.279785,0.670732,0.060976,0.670732,-3.750000,40.137501,-2.093750,0.0,1.000000,0.000000,0.000000,0.000000
1782117259.582959,1762940,-0.962402,0.023438,-0.280762,0.426829,0.243902,0.548781,-3.456250,40.431252,-2.062500,0.0,1.000000,0.000000,0.000000,0.000000
1782117259.593959,1762951,-0.963867,0.024414,-0.279785,0.060976,0.243902,0.426829,-3.612500,40.275002,-2.012500,0.0,1.000000,0.000000,0.000000,0.000000
1782117259.602959,1762960,-0.963379,0.022949,-0.279297,-0.121951,0.121951,0.426829,-3.612500,40.275002,-2.012500,0.0,1.000000,0.000000,0.000000,0.000000
1782117259.612959,1762970,-0.963867,0.020996,-0.279297,-0.060976,0.060976,0.487805,-3.637500,40.256252,-2.018750,0.0,1.000000,0.000000,0.000000,0.000000
1782117259.622959,1762980,-0.965820,0.020020,-0.280273,-0.060976,0.060976,0.670732,-3.637500,40.256252,-2.018750,0.0,1.000000,0.000000,0.000000,0.000000
1782117259.632959,1762990,-0.967285,0.017090,-0.279785,0.000000,-0.060976,0.731707,-3.681250,40.156250,-2.050000,0.0,1.000000,0.000000,0.000000,0.000000
1782117259.643960,1763001,-0.967285,0.015625,-0.280762,-0.060976,-0.121951,0.609756,-3.681250,40.156250,-2.050000,0.0,1.000000,0.000000,0.000000,0.000000
1782117259.652959,1763010,-0.967285,0.015137,-0.278809,0.182927,-0.182927,0.731707,-3.687500,40.181252,-2.018750,0.0,1.000000,0.000000,0.000000,0.000000
1782117259.662959,1763020,-0.967285,0.011230,-0.279297,0.731707,-0.426829,0.914634,-3.687500,40.181252,-2.018750,0.0,1.000000,0.000000,0.000000,0.000000
1782117259.672959,1763030,-0.964844,0.010742,-0.282227,1.219512,-0.487805,0.914634,-3.662500,40.243752,-2.068750,0.0,1.000000,0.000000,0.000000,0.000000
1782117259.682959,1763040,-0.962891,0.009766,-0.288086,1.646341,-0.426829,1.036585,-3.662500,40.243752,-2.068750,0.0,1.000000,0.000000,0.000000,0.000000
1782117259.692959,1763050,-0.963867,0.009766,-0.289551,2.073171,-0.426829,1.097561,-3.637500,40.200001,-2.075000,0.0,1.000000,0.000000,0.000000,0.000000
1782117259.703959,1763061,-0.964844,0.009766,-0.292969,2.378049,-0.426829,1.036585,-3.637500,40.200001,-2.075000,0.0,1.000000,0.000000,0.000000,0.000000
1782117259.713959,1763071,-0.967773,0.009766,-0.295410,2.560976,-0.365854,0.975610,-3.650000,40.193752,-2.018750,0.0,1.000000,0.000000,0.000000,0.000000
1782117259.724959,1763082,-0.970215,0.011719,-0.299805,2.560976,-0.548781,1.036585,-3.650000,40.193752,-2.018750,0.0,1.000000,0.000000,0.000000,0.000000
1782117259.733959,1763091,-0.968750,0.016113,-0.302246,2.682927,-0.975610,1.219512,-3.656250,40.174999,-2.000000,0.0,1.000000,0.000000,0.000000,0.000000
1782117259.742959,1763100,-0.961914,0.018066,-0.302246,2.926829,-1.280488,1.463415,-3.656250,40.174999,-2.000000,0.0,1.000000,0.000000,0.000000,0.000000
1782117259.753959,1763111,-0.958008,0.018066,-0.306152,2.682927,-1.341463,1.524390,-3.681250,40.162502,-2.000000,0.0,1.000000,0.000000,0.000000,0.000000
1782117259.763959,1763121,-0.958008,0.021973,-0.308105,2.439024,-1.280488,1.768293,-3.681250,40.162502,-2.000000,0.0,1.000000,0.000000,0.000000,0.000000
1782117259.772959,1763130,-0.958008,0.021484,-0.310059,2.256098,-1.402439,2.012195,-3.606250,40.250000,-1.962500,0.0,1.000000,0.000000,0.000000,0.000000
1782117259.783959,1763141,-0.958496,0.020508,-0.310547,1.707317,-1.707317,2.073171,-3.606250,40.250000,-1.962500,0.0,1.000000,0.000000,0.000000,0.000000
1782117259.792959,1763150,-0.959961,0.017090,-0.310547,1.280488,-2.134146,2.317073,-3.656250,40.174999,-1.968750,0.0,1.000000,0.000000,0.000000,0.000000
1782117259.803959,1763161,-0.961914,0.011230,-0.312500,1.158537,-2.682927,2.500000,-3.656250,40.174999,-1.968750,0.0,1.000000,0.000000,0.000000,0.000000
1782117259.813959,1763171,-0.956543,0.001465,-0.314941,1.341463,-3.353659,2.317073,-3.600000,40.237499,-1.887500,0.0,1.000000,0.000000,0.000000,0.000000
1782117259.823959,1763181,-0.950195,-0.003906,-0.314941,1.890244,-3.658537,2.073171,-3.600000,40.237499,-1.887500,0.0,1.000000,0.000000,0.000000,0.000000
1782117259.832959,1763190,-0.942871,-0.006836,-0.320312,2.560976,-3.597561,2.134146,-3.368750,40.400002,-1.787500,0.0,1.000000,0.000000,0.000000,0.000000
1782117259.842959,1763200,-0.942383,-0.007324,-0.325195,2.682927,-3.353659,2.195122,-3.368750,40.400002,-1.787500,0.0,1.000000,0.000000,0.000000,0.000000
1782117259.854959,1763212,-0.950195,-0.002441,-0.329102,2.682927,-3.231707,2.500000,-3.543750,40.125000,-1.806250,0.0,1.000000,0.000000,0.000000,0.000000
1782117259.862959,1763220,-0.955566,0.001953,-0.329590,2.439024,-3.719512,2.743902,-3.543750,40.125000,-1.806250,0.0,1.000000,0.000000,0.000000,0.000000
1782117259.873959,1763231,-0.953125,0.007324,-0.331055,2.134146,-4.512195,2.987805,-3.200000,40.487499,-1.706250,0.0,1.000000,0.000000,0.000000,0.000000
1782117259.882959,1763240,-0.948730,0.010742,-0.325684,1.768293,-5.182927,2.987805,-3.450000,40.137501,-1.712500,0.0,1.000000,0.000000,0.000000,0.000000
1782117259.892959,1763250,-0.943848,0.011230,-0.321289,0.975610,-5.487805,2.804878,-3.450000,40.137501,-1.712500,0.0,1.000000,0.000000,0.000000,0.000000
1782117259.902959,1763260,-0.943848,0.011230,-0.321289,0.975610,-5.487805,2.804878,-3.418750,40.125000,-1.681250,0.0,1.000000,0.000000,0.000000,0.000000
1782117259.913960,1763271,-0.944336,0.009277,-0.315918,0.487805,-5.853659,2.560976,-3.418750,40.125000,-1.681250,0.0,1.000000,0.000000,0.000000,0.000000
1782117259.923959,1763281,-0.955566,0.025391,-0.322266,1.524390,-7.560976,3.170732,-3.368750,40.100002,-1.587500,0.0,1.000000,0.000000,0.000000,0.000000
1782117259.932959,1763290,-0.955566,0.025391,-0.322266,1.524390,-7.560976,3.170732,-3.368750,40.100002,-1.587500,0.0,1.000000,0.000000,0.000000,0.000000
1782117259.942959,1763300,-0.929199,0.022461,-0.323242,0.365854,-8.841464,2.804878,-3.093750,40.362499,-1.425000,0.0,1.000000,0.000000,0.000000,0.000000
1782117259.952959,1763310,-0.922852,0.020996,-0.333496,-2.256098,-7.865854,2.743902,-3.093750,40.362499,-1.425000,0.0,1.000000,0.000000,0.000000,0.000000
1782117259.962959,1763320,-0.929688,0.019531,-0.342285,-5.182927,-6.951220,2.804878,-3.075000,40.293751,-1.418750,0.0,1.000000,0.000000,0.000000,0.000000
1782117259.972960,1763330,-0.928711,0.015137,-0.345703,-7.134147,-6.890244,2.682927,-3.075000,40.293751,-1.418750,0.0,1.000000,0.000000,0.000000,0.000000
1782117259.983959,1763341,-0.919922,0.006348,-0.342773,-7.439024,-6.646342,2.439024,-3.075000,40.331249,-1.325000,0.0,1.000000,0.000000,0.000000,0.000000
1782117259.992959,1763350,-0.920410,-0.003418,-0.333496,-6.951220,-6.890244,2.073171,-3.075000,40.331249,-1.325000,0.0,1.000000,0.000000,0.000000,0.000000
1782117260.004959,1763362,-0.951660,-0.007324,-0.321777,-4.573171,-7.682927,2.439024,-3.206250,40.174999,-1.462500,0.0,1.000000,0.000000,0.000000,0.000000
1782117260.012959,1763370,-0.951660,-0.007324,-0.321777,-4.573171,-7.682927,2.439024,-3.206250,40.174999,-1.462500,0.0,1.000000,0.000000,0.000000,0.000000
1782117260.022959,1763380,-0.969238,-0.008301,-0.312500,-2.926829,-9.939025,2.804878,-3.237500,40.093750,-1.343750,0.0,1.000000,0.000000,0.000000,0.000000
1782117260.032959,1763390,-0.978027,-0.006348,-0.305176,-2.134146,-12.195122,2.621951,-3.237500,40.093750,-1.343750,0.0,1.000000,0.000000,0.000000,0.000000
1782117260.046959,1763404,-0.979980,0.006836,-0.292969,-2.804878,-14.695123,0.914634,-3.268750,39.981251,-1.362500,0.0,1.000000,0.000000,0.000000,0.000000
1782117260.052959,1763410,-0.979980,0.006836,-0.292969,-2.804878,-14.695123,0.914634,-3.268750,39.981251,-1.362500,0.0,1.000000,0.000000,0.000000,0.000000
1782117260.062959,1763420,-0.979492,0.002930,-0.289551,-2.134146,-14.817074,0.000000,-3.300000,39.987499,-1.200000,0.0,1.000000,0.000000,0.000000,0.000000
1782117260.073959,1763431,-0.995605,0.003418,-0.286133,-0.182927,-12.743903,-0.243902,-3.300000,39.987499,-1.200000,0.0,1.000000,0.000000,0.000000,0.000000
1782117260.085959,1763443,-1.034668,0.010254,-0.272461,0.243902,-14.085366,-0.609756,-3.231250,40.012501,-1.181250,0.0,1.000000,0.000000,0.000000,0.000000
1782117260.092959,1763450,-1.048340,0.010742,-0.260742,2.012195,-17.012196,-0.365854,-3.231250,40.012501,-1.181250,0.0,1.000000,0.000000,0.000000,0.000000
1782117260.102959,1763460,-1.050781,0.004883,-0.245605,4.817073,-21.097561,-0.426829,-3.225000,40.049999,-1.006250,0.0,1.000000,0.000000,0.000000,0.000000
1782117260.113959,1763471,-1.038086,0.012207,-0.243164,7.804878,-25.121952,-0.487805,-3.225000,40.049999,-1.006250,0.0,1.000000,0.000000,0.000000,0.000000
1782117260.124959,1763482,-1.013184,0.029785,-0.233398,10.304878,-27.621952,-0.243902,-3.531250,39.712502,-0.856250,0.0,1.000000,0.000000,0.000000,0.000000
1782117260.132959,1763490,-0.995117,0.043457,-0.219727,13.353659,-28.109756,0.365854,-3.531250,39.712502,-0.856250,0.0,1.000000,0.000000,0.000000,0.000000
1782117260.142959,1763500,-0.985352,0.058105,-0.200684,17.439024,-26.890245,1.646341,-3.337500,39.862499,-0.575000,0.0,1.000000,0.000000,0.000000,0.000000
1782117260.153960,1763511,-0.988281,0.064453,-0.173340,21.219513,-25.670732,3.231707,-3.337500,39.862499,-0.575000,0.0,1.000000,0.000000,0.000000,0.000000
1782117260.164959,1763522,-0.997070,0.062012,-0.151367,23.414635,-24.939026,4.695122,-3.568750,39.593750,-0.337500,0.0,1.000000,0.000000,0.000000,0.000000
1782117260.173959,1763531,-1.001465,0.061523,-0.138184,23.841463,-24.939026,5.609756,-3.081250,40.118752,0.050000,0.0,1.000000,0.000000,0.000000,0.000000
1782117260.182959,1763540,-1.000977,0.054199,-0.138672,22.378050,-24.390244,5.121951,-3.081250,40.118752,0.050000,0.0,1.000000,0.000000,0.000000,0.000000
1782117260.192959,1763550,-0.990723,0.039062,-0.138672,20.000000,-23.231709,4.085366,-3.500000,39.518749,0.181250,0.0,1.000000,0.000000,0.000000,0.000000
1782117260.205959,1763563,-0.978027,0.023438,-0.144043,17.073172,-20.853659,2.378049,-3.500000,39.518749,0.181250,0.0,1.000000,0.000000,0.000000,0.000000
1782117260.213959,1763571,-0.967773,0.003418,-0.154785,14.817074,-17.560976,0.609756,-3.387500,39.674999,0.437500,0.0,1.000000,0.000000,0.000000,0.000000
1782117260.222960,1763580,-0.968750,-0.003418,-0.169434,14.451220,-14.024390,-0.792683,-3.387500,39.674999,0.437500,0.0,1.000000,0.000000,0.000000,0.000000
1782117260.234959,1763592,-0.962402,0.003418,-0.176270,14.573171,-11.463415,-1.402439,-3.318750,39.662502,0.581250,0.0,1.000000,0.000000,0.000000,0.000000
1782117260.243959,1763601,-0.961426,0.018555,-0.182129,14.207317,-8.414635,-1.158537,-3.318750,39.662502,0.581250,0.0,1.000000,0.000000,0.000000,0.000000
1782117260.253959,1763611,-0.963867,0.035156,-0.179688,13.963415,-6.158537,0.121951,-3.137500,39.787502,0.706250,0.0,1.000000,0.000000,0.000000,0.000000
1782117260.263959,1763621,-0.955078,0.051758,-0.170898,14.207317,-5.060976,0.792683,-3.137500,39.787502,0.706250,0.0,1.000000,0.000000,0.000000,0.000000
1782117260.272959,1763630,-0.939941,0.068359,-0.167480,14.756098,-3.658537,1.219512,-3.112500,39.674999,0.756250,0.0,1.000000,0.000000,0.000000,0.000000
1782117260.284959,1763642,-0.938477,0.087402,-0.163574,14.878049,-1.097561,2.134146,-3.112500,39.674999,0.756250,0.0,1.000000,0.000000,0.000000,0.000000
1782117260.292959,1763650,-0.944336,0.101562,-0.151367,13.902439,0.609756,3.475610,-3.062500,39.625000,0.756250,0.0,1.000000,0.000000,0.000000,0.000000
1782117260.302959,1763660,-0.954102,0.104980,-0.132812,12.560976,1.280488,4.207317,-3.062500,39.625000,0.756250,0.0,1.000000,0.000000,0.000000,0.000000
1782117260.312959,1763670,-0.955078,0.095703,-0.112305,11.585366,1.646341,3.658537,-2.750000,39.875000,0.775000,0.0,1.000000,0.000000,0.000000,0.000000
1782117260.325959,1763683,-0.969727,0.083496,-0.096191,10.853659,3.353659,2.560976,-2.750000,39.875000,0.775000,0.0,1.000000,0.000000,0.000000,0.000000
1782117260.333959,1763691,-0.995605,0.074219,-0.087891,10.060976,5.060976,1.768293,-2.731250,39.850002,0.700000,0.0,1.000000,0.000000,0.000000,0.000000
1782117260.342959,1763700,-1.021973,0.065918,-0.077148,9.451220,5.731708,1.463415,-2.731250,39.850002,0.700000,0.0,1.000000,0.000000,0.000000,0.000000
1782117260.353959,1763711,-1.037598,0.059570,-0.060059,9.451220,4.756098,0.670732,-3.037500,39.549999,0.550000,0.0,1.000000,0.000000,0.000000,0.000000
1782117260.365959,1763723,-1.027344,0.060547,-0.041016,10.243902,2.926829,-0.670732,-3.037500,39.549999,0.550000,0.0,1.000000,0.000000,0.000000,0.000000
1782117260.372959,1763730,-1.018555,0.075684,-0.021973,9.573171,2.926829,-1.341463,-2.962500,39.606251,0.575000,0.0,1.000000,0.000000,0.000000,0.000000
1782117260.382959,1763740,-1.025879,0.091309,-0.015625,6.768293,3.536585,-0.853659,-2.962500,39.606251,0.575000,0.0,1.000000,0.000000,0.000000,0.000000
1782117260.392959,1763750,-1.040039,0.101562,-0.012695,3.658537,3.353659,0.304878,-2.950000,39.600002,0.506250,0.0,1.000000,0.000000,0.000000,0.000000
1782117260.402959,1763760,-1.043457,0.103027,-0.011230,1.280488,1.646341,1.158537,-2.950000,39.600002,0.506250,0.0,1.000000,0.000000,0.000000,0.000000
1782117260.413960,1763771,-1.026367,0.099609,-0.014160,-0.487805,-0.365854,0.853659,-2.787500,39.831249,0.562500,0.0,1.000000,0.000000,0.000000,0.000000
1782117260.422959,1763780,-1.004883,0.100098,-0.025391,-3.292683,-0.853659,-0.365854,-2.787500,39.831249,0.562500,0.0,1.000000,0.000000,0.000000,0.000000
1782117260.433959,1763791,-1.007812,0.106934,-0.052734,-7.256098,0.182927,-0.670732,-2.987500,39.662502,0.568750,0.0,1.000000,0.000000,0.000000,0.000000
1782117260.442959,1763800,-1.029785,0.111328,-0.082031,-10.853659,0.731707,0.609756,-2.987500,39.662502,0.568750,0.0,1.000000,0.000000,0.000000,0.000000
1782117260.452959,1763810,-1.047363,0.104492,-0.096191,-12.378049,-0.365854,2.012195,-3.006250,39.687500,0.518750,0.0,1.000000,0.000000,0.000000,0.000000
1782117260.463959,1763821,-1.038574,0.093262,-0.090820,-12.073171,-2.439024,2.073171,-2.850000,39.831249,0.562500,0.0,1.000000,0.000000,0.000000,0.000000
1782117260.473959,1763831,-1.007324,0.083984,-0.083984,-12.256098,-3.231707,0.792683,-2.850000,39.831249,0.562500,0.0,1.000000,0.000000,0.000000,0.000000
1782117260.487959,1763845,-0.973145,0.073730,-0.089355,-14.146341,-2.073171,-0.975610,-2.987500,39.674999,0.568750,0.0,1.000000,0.000000,0.000000,0.000000
1782117260.493959,1763851,-0.955078,0.066406,-0.107910,-16.890244,0.304878,-1.829268,-2.987500,39.674999,0.568750,0.0,1.000000,0.000000,0.000000,0.000000
1782117260.502959,1763860,-0.955566,0.059082,-0.131836,-18.841463,2.804878,-1.341463,-2.975000,39.674999,0.537500,0.0,1.000000,0.000000,0.000000,0.000000
1782117260.513959,1763871,-0.968262,0.053711,-0.136230,-18.902439,4.146341,-0.426829,-2.975000,39.674999,0.537500,0.0,1.000000,0.000000,0.000000,0.000000
1782117260.523959,1763881,-0.967773,0.041992,-0.130371,-17.926830,4.817073,-0.121951,-3.187500,39.424999,0.468750,0.0,1.000000,0.000000,0.000000,0.000000
1782117260.532959,1763890,-0.963867,0.031738,-0.121094,-17.134148,6.036585,-0.853659,-3.187500,39.424999,0.468750,0.0,1.000000,0.000000,0.000000,0.000000
1782117260.544959,1763902,-0.970703,0.021484,-0.125977,-16.829269,8.048780,-1.585366,-3.081250,39.531250,0.325000,0.0,1.000000,0.000000,0.000000,0.000000
1782117260.552959,1763910,-0.993164,0.013184,-0.145020,-15.853659,9.268292,-0.975610,-3.081250,39.531250,0.325000,0.0,1.000000,0.000000,0.000000,0.000000
1782117260.562959,1763920,-1.016602,0.007324,-0.156738,-13.414635,8.902439,0.731707,-3.256250,39.406250,0.306250,0.0,1.000000,0.000000,0.000000,0.000000
1782117260.572959,1763930,-1.034668,0.004883,-0.154785,-10.243902,7.134147,2.378049,-3.256250,39.406250,0.306250,0.0,1.000000,0.000000,0.000000,0.000000
1782117260.582959,1763940,-1.037598,0.007324,-0.147461,-7.256098,4.817073,3.048780,-3.212500,39.493752,0.231250,0.0,1.000000,0.000000,0.000000,0.000000
1782117260.593959,1763951,-1.027832,0.013184,-0.145020,-5.182927,3.353659,2.987805,-3.212500,39.493752,0.231250,0.0,1.000000,0.000000,0.000000,0.000000
1782117260.602959,1763960,-1.016602,0.021973,-0.148438,-4.634146,2.865854,2.743902,-3.206250,39.537502,0.268750,0.0,1.000000,0.000000,0.000000,0.000000
1782117260.612959,1763970,-1.008301,0.031250,-0.158203,-5.060976,2.256098,2.865854,-3.206250,39.537502,0.268750,0.0,1.000000,0.000000,0.000000,0.000000
1782117260.622959,1763980,-1.001465,0.041992,-0.162598,-5.365854,1.341463,3.231707,-3.125000,39.687500,0.362500,0.0,1.000000,0.000000,0.000000,0.000000
1782117260.632959,1763990,-0.998535,0.050293,-0.159668,-5.487805,0.548781,3.109756,-3.125000,39.687500,0.362500,0.0,1.000000,0.000000,0.000000,0.000000
1782117260.642959,1764000,-0.993164,0.055176,-0.153320,-5.060976,-0.121951,2.743902,-3.012500,39.825001,0.400000,0.0,1.000000,0.000000,0.000000,0.000000
1782117260.652959,1764010,-0.991699,0.055664,-0.150391,-5.609756,-0.548781,1.951220,-3.012500,39.825001,0.400000,0.0,1.000000,0.000000,0.000000,0.000000
1782117260.662959,1764020,-0.987793,0.055176,-0.156250,-7.073171,-0.243902,1.707317,-3.187500,39.562500,0.487500,0.0,1.000000,0.000000,0.000000,0.000000
1782117260.672959,1764030,-0.988770,0.052246,-0.166504,-8.353659,0.121951,1.707317,-3.187500,39.562500,0.487500,0.0,1.000000,0.000000,0.000000,0.000000
1782117260.682959,1764040,-0.992676,0.048828,-0.169434,-8.902439,0.304878,1.585366,-3.200000,39.437500,0.531250,0.0,1.000000,0.000000,0.000000,0.000000
1782117260.692959,1764050,-0.992676,0.050293,-0.176270,-9.207317,0.243902,1.341463,-3.200000,39.437500,0.531250,0.0,1.000000,0.000000,0.000000,0.000000
1782117260.703959,1764061,-0.994141,0.049805,-0.181152,-10.060976,0.731707,1.402439,-2.956250,39.650002,0.587500,0.0,1.000000,0.000000,0.000000,0.000000
1782117260.713959,1764071,-1.000488,0.047363,-0.184570,-10.853659,0.121951,1.158537,-2.956250,39.650002,0.587500,0.0,1.000000,0.000000,0.000000,0.000000
1782117260.722960,1764080,-0.997070,0.038086,-0.185547,-10.975610,-0.975610,1.097561,-3.256250,39.206249,0.537500,0.0,1.000000,0.000000,0.000000,0.000000
1782117260.732960,1764090,-0.996094,0.023926,-0.179688,-9.939025,-0.609756,0.975610,-3.256250,39.206249,0.537500,0.0,1.000000,0.000000,0.000000,0.000000
1782117260.742959,1764100,-0.996094,0.023926,-0.179688,-9.939025,-0.609756,0.975610,-3.218750,39.237499,0.612500,0.0,1.000000,0.000000,0.000000,0.000000
1782117260.752959,1764110,-0.990234,0.008789,-0.174805,-9.024390,-0.487805,0.548781,-3.218750,39.237499,0.612500,0.0,1.000000,0.000000,0.000000,0.000000
1782117260.762959,1764120,-0.983398,0.000977,-0.180176,-8.414635,0.182927,0.121951,-3.306250,39.125000,0.625000,0.0,1.000000,0.000000,0.000000,0.000000
1782117260.772959,1764130,-0.977051,0.000977,-0.187988,-8.597561,0.731707,-0.060976,-3.137500,39.356251,0.743750,0.0,1.000000,0.000000,0.000000,0.000000
1782117260.782959,1764140,-0.979004,0.008301,-0.198730,-8.292683,1.463415,0.121951,-3.137500,39.356251,0.743750,0.0,1.000000,0.000000,0.000000,0.000000
1782117260.792959,1764150,-0.981934,0.018555,-0.205566,-6.585366,1.829268,0.609756,-3.243750,39.275002,0.862500,0.0,1.000000,0.000000,0.000000,0.000000
1782117260.803959,1764161,-0.988770,0.029297,-0.204590,-4.329268,1.707317,1.341463,-3.243750,39.275002,0.862500,0.0,1.000000,0.000000,0.000000,0.000000
1782117260.812959,1764170,-0.992676,0.037598,-0.201660,-2.317073,0.914634,1.768293,-3.200000,39.387501,0.875000,0.0,1.000000,0.000000,0.000000,0.000000
1782117260.822959,1764180,-1.004883,0.042480,-0.194336,-2.560976,-2.012195,0.609756,-3.200000,39.387501,0.875000,0.0,1.000000,0.000000,0.000000,0.000000
1782117260.832959,1764190,-0.983887,0.047852,-0.201660,-4.085366,-4.329268,0.243902,-3.318750,39.337502,1.031250,0.0,1.000000,0.000000,0.000000,0.000000
1782117260.842959,1764200,-0.962402,0.043945,-0.216309,-4.085366,-1.951220,0.243902,-3.318750,39.337502,1.031250,0.0,1.000000,0.000000,0.000000,0.000000
1782117260.852959,1764210,-0.954590,0.037598,-0.218750,-4.085366,0.304878,-0.487805,-3.393750,39.318752,1.056250,0.0,1.000000,0.000000,0.000000,0.000000
1782117260.862959,1764220,-0.956543,0.034668,-0.218262,-5.487805,1.219512,-1.524390,-3.393750,39.318752,1.056250,0.0,1.000000,0.000000,0.000000,0.000000
1782117260.872959,1764230,-0.956055,0.035645,-0.221680,-7.195122,2.804878,-2.195122,-3.431250,39.299999,0.968750,0.0,1.000000,0.000000,0.000000,0.000000
1782117260.882959,1764240,-0.991211,0.036133,-0.215820,-9.146341,1.707317,-2.987805,-3.431250,39.299999,0.968750,0.0,1.000000,0.000000,0.000000,0.000000
1782117260.892959,1764250,-0.952637,0.034668,-0.228516,-9.756098,-0.121951,-2.682927,-3.550000,39.250000,0.962500,0.0,1.000000,0.000000,0.000000,0.000000
1782117260.902959,1764260,-0.932129,0.035645,-0.239746,-8.780488,2.134146,-1.768293,-3.550000,39.250000,0.962500,0.0,1.000000,0.000000,0.000000,0.000000
1782117260.912959,1764270,-0.937012,0.033203,-0.244629,-7.439024,5.975610,-0.914634,-3.618750,39.181252,0.968750,0.0,1.000000,0.000000,0.000000,0.000000
1782117260.922959,1764280,-0.954590,0.026855,-0.239258,-6.951220,7.134147,-1.036585,-3.618750,39.181252,0.968750,0.0,1.000000,0.000000,0.000000,0.000000
1782117260.932959,1764290,-0.971680,0.021484,-0.237793,-6.463415,7.926829,-1.280488,-3.706250,39.168751,0.831250,0.0,1.000000,0.000000,0.000000,0.000000
1782117260.942959,1764300,-0.983398,0.021484,-0.239746,-5.792683,8.109756,-1.646341,-3.706250,39.168751,0.831250,0.0,1.000000,0.000000,0.000000,0.000000
1782117260.952959,1764310,-0.981445,0.024414,-0.240723,-5.243903,7.560976,-1.646341,-3.725000,39.268749,0.862500,0.0,1.000000,0.000000,0.000000,0.000000
1782117260.962959,1764320,-0.979004,0.026367,-0.238281,-4.878049,8.231708,-1.402439,-3.725000,39.268749,0.862500,0.0,1.000000,0.000000,0.000000,0.000000
1782117260.972960,1764330,-0.984375,0.030273,-0.233398,-5.731708,8.231708,-1.219512,-3.875000,39.237499,0.681250,0.0,1.000000,0.000000,0.000000,0.000000
1782117260.982960,1764340,-0.986328,0.030273,-0.227051,-7.743903,7.378049,-1.585366,-3.875000,39.237499,0.681250,0.0,1.000000,0.000000,0.000000,0.000000
1782117260.992959,1764350,-0.973145,0.034668,-0.221680,-9.573171,5.426829,-2.560976,-3.987500,39.200001,0.587500,0.0,1.000000,0.000000,0.000000,0.000000
1782117261.003959,1764361,-0.938965,0.036621,-0.227051,-9.146341,7.073171,-1.951220,-3.987500,39.200001,0.587500,0.0,1.000000,0.000000,0.000000,0.000000
1782117261.012959,1764370,-0.941895,0.028320,-0.229492,-7.621952,11.280488,-1.219512,-4.012500,39.225002,0.493750,0.0,1.000000,0.000000,0.000000,0.000000
1782117261.022959,1764380,-0.971680,0.016113,-0.229492,-6.890244,12.317074,-0.792683,-4.012500,39.225002,0.493750,0.0,1.000000,0.000000,0.000000,0.000000
1782117261.032959,1764390,-0.986816,0.004883,-0.240234,-6.158537,11.341464,-0.548781,-4.043750,39.368752,0.250000,0.0,1.000000,0.000000,0.000000,0.000000
1782117261.042959,1764400,-0.998535,0.008789,-0.250488,-5.000000,9.207317,-0.487805,-4.043750,39.368752,0.250000,0.0,1.000000,0.000000,0.000000,0.000000
1782117261.053959,1764411,-0.998535,0.019043,-0.257812,-4.817073,6.158537,-0.975610,-4.131250,39.406250,0.125000,0.0,1.000000,0.000000,0.000000,0.000000
1782117261.062959,1764420,-0.974121,0.035645,-0.254395,-5.000000,4.207317,-1.829268,-4.131250,39.406250,0.125000,0.0,1.000000,0.000000,0.000000,0.000000
1782117261.072959,1764430,-0.961914,0.045410,-0.246094,-4.756098,4.634146,-2.195122,-4.218750,39.412502,0.037500,0.0,1.000000,0.000000,0.000000,0.000000
1782117261.082959,1764440,-0.957520,0.033691,-0.244141,-5.121951,6.646342,-2.073171,-4.350000,39.343750,-0.081250,0.0,1.000000,0.000000,0.000000,0.000000
1782117261.092959,1764450,-0.964844,0.019043,-0.256348,-6.280488,9.207317,-1.707317,-4.350000,39.343750,-0.081250,0.0,1.000000,0.000000,0.000000,0.000000
1782117261.102959,1764460,-0.969238,0.002441,-0.276855,-6.585366,10.304878,-1.463415,-4.206250,39.543751,-0.156250,0.0,1.000000,0.000000,0.000000,0.000000
1782117261.113959,1764471,-0.963379,-0.009277,-0.295410,-6.280488,11.280488,-1.463415,-4.206250,39.543751,-0.156250,0.0,1.000000,0.000000,0.000000,0.000000
1782117261.122959,1764480,-0.954590,-0.003418,-0.304688,-6.158537,12.012196,-1.829268,-4.418750,39.462502,-0.368750,0.0,1.000000,0.000000,0.000000,0.000000
1782117261.133959,1764491,-0.951660,0.017090,-0.311523,-6.646342,12.865854,-2.317073,-4.418750,39.462502,-0.368750,0.0,1.000000,0.000000,0.000000,0.000000
1782117261.143960,1764501,-0.944824,0.038574,-0.312012,-6.768293,13.597561,-2.317073,-4.387500,39.500000,-0.606250,0.0,1.000000,0.000000,0.000000,0.000000
1782117261.153960,1764511,-0.940918,0.048828,-0.314453,-6.158537,14.878049,-1.829268,-4.387500,39.500000,-0.606250,0.0,1.000000,0.000000,0.000000,0.000000
1782117261.163960,1764521,-0.953125,0.044922,-0.312988,-5.121951,15.792684,-1.036585,-4.456250,39.575001,-0.775000,0.0,1.000000,0.000000,0.000000,0.000000
1782117261.173959,1764531,-0.959473,0.029785,-0.306641,-3.902439,15.548780,-0.548781,-4.456250,39.575001,-0.775000,0.0,1.000000,0.000000,0.000000,0.000000
1782117261.182959,1764540,-0.963379,0.010254,-0.293945,-3.292683,15.060976,-0.792683,-4.443750,39.631252,-1.050000,0.0,1.000000,0.000000,0.000000,0.000000
1782117261.192959,1764550,-0.965820,-0.009277,-0.281738,-2.560976,14.268293,-1.219512,-4.443750,39.631252,-1.050000,0.0,1.000000,0.000000,0.000000,0.000000
1782117261.202959,1764560,-0.968750,-0.016602,-0.274902,-1.280488,13.536586,-1.524390,-4.581250,39.674999,-1.212500,0.0,1.000000,0.000000,0.000000,0.000000
1782117261.212959,1764570,-0.972168,-0.013672,-0.273926,-0.060976,12.682927,-1.829268,-4.581250,39.674999,-1.212500,0.0,1.000000,0.000000,0.000000,0.000000
1782117261.222960,1764580,-0.969727,-0.000488,-0.275391,0.792683,11.951220,-2.195122,-4.625000,39.618752,-1.443750,0.0,1.000000,0.000000,0.000000,0.000000
1782117261.232960,1764590,-0.961914,0.010254,-0.277832,0.975610,11.402439,-2.500000,-4.625000,39.618752,-1.443750,0.0,1.000000,0.000000,0.000000,0.000000
1782117261.242959,1764600,-0.959961,0.021973,-0.277832,0.975610,10.975610,-2.682927,-4.681250,39.662502,-1.575000,0.0,1.000000,0.000000,0.000000,0.000000
1782117261.252959,1764610,-0.962891,0.032227,-0.278320,0.670732,10.426829,-2.439024,-4.681250,39.662502,-1.575000,0.0,1.000000,0.000000,0.000000,0.000000
1782117261.262959,1764620,-0.967285,0.036133,-0.277832,0.670732,8.963415,-1.890244,-4.675000,39.700001,-1.750000,0.0,1.000000,0.000000,0.000000,0.000000
1782117261.272959,1764630,-0.968262,0.031250,-0.279785,0.975610,7.743903,-1.524390,-4.675000,39.700001,-1.750000,0.0,1.000000,0.000000,0.000000,0.000000
1782117261.282959,1764640,-0.974609,0.026855,-0.284668,1.890244,7.012195,-0.975610,-4.850000,39.581249,-1.818750,0.0,1.000000,0.000000,0.000000,0.000000
1782117261.293959,1764651,-0.973145,0.022949,-0.285156,3.292683,6.646342,-0.487805,-4.850000,39.581249,-1.818750,0.0,1.000000,0.000000,0.000000,0.000000
1782117261.302959,1764660,-0.972168,0.016602,-0.281250,4.146341,6.158537,-0.548781,-4.712500,39.718750,-1.893750,0.0,1.000000,0.000000,0.000000,0.000000
1782117261.312959,1764670,-0.962891,0.007324,-0.284668,5.365854,6.951220,-0.548781,-4.712500,39.718750,-1.893750,0.0,1.000000,0.000000,0.000000,0.000000
1782117261.322959,1764680,-0.963379,0.000977,-0.286133,6.585366,7.439024,-0.609756,-4.825000,39.631252,-2.025000,0.0,1.000000,0.000000,0.000000,0.000000
1782117261.332959,1764690,-0.963867,-0.003418,-0.287109,8.170732,7.743903,-0.487805,-4.825000,39.631252,-2.025000,0.0,1.000000,0.000000,0.000000,0.000000
1782117261.342959,1764700,-0.961914,-0.007324,-0.285156,9.939025,7.987805,-0.304878,-4.737500,39.812500,-2.075000,0.0,1.000000,0.000000,0.000000,0.000000
1782117261.352959,1764710,-0.964844,-0.008301,-0.278320,11.829268,7.743903,-0.121951,-4.737500,39.812500,-2.075000,0.0,1.000000,0.000000,0.000000,0.000000
1782117261.362959,1764720,-0.969238,-0.003906,-0.272461,13.292684,7.195122,0.182927,-4.675000,39.887501,-2.106250,0.0,1.000000,0.000000,0.000000,0.000000
1782117261.373959,1764731,-0.971680,0.009766,-0.267090,13.719513,6.585366,0.487805,-4.787500,39.750000,-2.168750,0.0,1.000000,0.000000,0.000000,0.000000
1782117261.382959,1764740,-0.968750,0.022461,-0.266602,13.292684,6.097561,0.670732,-4.787500,39.750000,-2.168750,0.0,1.000000,0.000000,0.000000,0.000000
1782117261.392959,1764750,-0.964844,0.032715,-0.267090,12.500000,5.914634,0.792683,-4.737500,39.725002,-2.168750,0.0,1.000000,0.000000,0.000000,0.000000
1782117261.402959,1764760,-0.967285,0.039551,-0.273438,11.402439,5.914634,0.975610,-4.737500,39.725002,-2.168750,0.0,1.000000,0.000000,0.000000,0.000000
1782117261.413960,1764771,-0.968262,0.041504,-0.280762,10.243902,6.036585,1.097561,-4.731250,39.787502,-2.187500,0.0,1.000000,0.000000,0.000000,0.000000
1782117261.422959,1764780,-0.968262,0.041504,-0.286621,8.841464,6.097561,0.853659,-4.731250,39.787502,-2.187500,0.0,1.000000,0.000000,0.000000,0.000000
1782117261.433959,1764791,-0.965332,0.041992,-0.282715,7.256098,5.914634,0.304878,-4.450000,40.062500,-2.212500,0.0,1.000000,0.000000,0.000000,0.000000
1782117261.442959,1764800,-0.962891,0.037598,-0.274414,5.914634,5.792683,-0.365854,-4.450000,40.062500,-2.212500,0.0,1.000000,0.000000,0.000000,0.000000
1782117261.455959,1764813,-0.959961,0.033203,-0.273926,5.060976,6.280488,-0.548781,-4.712500,39.843750,-2.268750,0.0,1.000000,0.000000,0.000000,0.000000
1782117261.462959,1764820,-0.961426,0.027344,-0.275391,4.268293,6.646342,-0.609756,-4.712500,39.843750,-2.268750,0.0,1.000000,0.000000,0.000000,0.000000
1782117261.473959,1764831,-0.964355,0.022949,-0.282227,3.536585,6.951220,-0.243902,-4.606250,39.993752,-2.362500,0.0,1.000000,0.000000,0.000000,0.000000
1782117261.483959,1764841,-0.971680,0.017090,-0.288574,3.048780,6.707317,0.304878,-4.606250,39.993752,-2.362500,0.0,1.000000,0.000000,0.000000,0.000000
1782117261.493959,1764851,-0.971191,0.009766,-0.294922,2.804878,6.036585,0.548781,-4.706250,39.881252,-2.518750,0.0,1.000000,0.000000,0.000000,0.000000
1782117261.503959,1764861,-0.971191,0.005371,-0.294922,2.987805,5.243903,0.548781,-4.706250,39.881252,-2.518750,0.0,1.000000,0.000000,0.000000,0.000000
1782117261.512959,1764870,-0.966797,0.003418,-0.290527,3.292683,4.451220,0.365854,-4.681250,39.906250,-2.550000,0.0,1.000000,0.000000,0.000000,0.000000
1782117261.523959,1764881,-0.955566,0.006836,-0.288574,3.597561,3.902439,-0.121951,-4.681250,39.906250,-2.550000,0.0,1.000000,0.000000,0.000000,0.000000
1782117261.535959,1764893,-0.950684,0.011719,-0.291992,3.719512,4.512195,-0.182927,-4.437500,40.131252,-2.500000,0.0,1.000000,0.000000,0.000000,0.000000
1782117261.543959,1764901,-0.952637,0.014648,-0.297852,3.475610,5.304878,-0.121951,-4.437500,40.131252,-2.500000,0.0,1.000000,0.000000,0.000000,0.000000
1782117261.552959,1764910,-0.953613,0.020996,-0.305664,2.317073,5.853659,-0.121951,-4.643750,39.956249,-2.631250,0.0,1.000000,0.000000,0.000000,0.000000
1782117261.562959,1764920,-0.956055,0.024902,-0.308105,1.219512,6.097561,-0.060976,-4.643750,39.956249,-2.631250,0.0,1.000000,0.000000,0.000000,0.000000
1782117261.573959,1764931,-0.958008,0.027344,-0.308594,0.243902,5.975610,-0.182927,-4.768750,39.912502,-2.762500,0.0,1.000000,0.000000,0.000000,0.000000
1782117261.583959,1764941,-0.958008,0.027344,-0.308594,0.243902,5.975610,-0.182927,-4.768750,39.912502,-2.762500,0.0,1.000000,0.000000,0.000000,0.000000
1782117261.592959,1764950,-0.959473,0.028809,-0.310059,-0.121951,5.609756,-0.182927,-4.718750,40.000000,-2.856250,0.0,1.000000,0.000000,0.000000,0.000000
1782117261.602959,1764960,-0.961914,0.023438,-0.308105,0.060976,5.182927,-0.060976,-4.718750,40.000000,-2.856250,0.0,1.000000,0.000000,0.000000,0.000000
1782117261.614959,1764972,-0.961914,0.018555,-0.304688,0.548781,4.634146,0.000000,-4.800000,39.900002,-2.918750,0.0,1.000000,0.000000,0.000000,0.000000
1782117261.622959,1764980,-0.961914,0.018555,-0.304688,0.548781,4.634146,0.000000,-4.800000,39.900002,-2.918750,0.0,1.000000,0.000000,0.000000,0.000000
1782117261.632959,1764990,-0.956543,0.017578,-0.302734,0.548781,4.695122,0.000000,-4.750000,39.993752,-3.006250,0.0,1.000000,0.000000,0.000000,0.000000
1782117261.642959,1765000,-0.950684,0.015137,-0.305176,-0.121951,5.243903,0.000000,-4.750000,39.993752,-3.006250,0.0,1.000000,0.000000,0.000000,0.000000
1782117261.656959,1765014,-0.950195,0.017578,-0.310547,-2.195122,6.097561,-0.487805,-4.825000,39.943752,-3.100000,0.0,1.000000,0.000000,0.000000,0.000000
1782117261.662959,1765020,-0.950195,0.017578,-0.310547,-2.195122,6.097561,-0.487805,-4.818750,39.962502,-3.187500,0.0,1.000000,0.000000,0.000000,0.000000
1782117261.672959,1765030,-0.954102,0.016113,-0.312012,-2.987805,6.280488,-0.487805,-4.818750,39.962502,-3.187500,0.0,1.000000,0.000000,0.000000,0.000000
1782117261.682959,1765040,-0.962402,0.015137,-0.309570,-3.780488,5.975610,-0.487805,-4.800000,40.012501,-3.293750,0.0,1.000000,0.000000,0.000000,0.000000
1782117261.693959,1765051,-0.958496,0.018555,-0.313965,-4.451220,5.426829,-0.487805,-4.800000,40.012501,-3.293750,0.0,1.000000,0.000000,0.000000,0.000000
1782117261.702959,1765060,-0.959473,0.030762,-0.315918,-5.243903,5.487805,-0.365854,-4.800000,40.143749,-3.425000,0.0,1.000000,0.000000,0.000000,0.000000
1782117261.712959,1765070,-0.965820,0.040527,-0.305664,-6.280488,5.000000,-0.121951,-4.800000,40.143749,-3.425000,0.0,1.000000,0.000000,0.000000,0.000000
1782117261.722960,1765080,-0.963379,0.034668,-0.304199,-7.804878,4.146341,-0.365854,-4.956250,39.968750,-3.537500,0.0,1.000000,0.000000,0.000000,0.000000
1782117261.734959,1765092,-0.958984,0.028320,-0.308105,-9.268292,3.780488,-1.097561,-4.956250,39.968750,-3.537500,0.0,1.000000,0.000000,0.000000,0.000000
1782117261.742959,1765100,-0.957520,0.022461,-0.309570,-9.756098,3.658537,-1.524390,-4.950000,40.018749,-3.587500,0.0,1.000000,0.000000,0.000000,0.000000
1782117261.752959,1765110,-0.956055,0.016113,-0.309570,-10.182927,3.902439,-1.890244,-4.950000,40.018749,-3.587500,0.0,1.000000,0.000000,0.000000,0.000000
1782117261.762959,1765120,-0.962402,0.015137,-0.308594,-10.365854,3.963415,-1.829268,-4.943750,40.006252,-3.775000,0.0,1.000000,0.000000,0.000000,0.000000
1782117261.773959,1765131,-0.965820,0.016602,-0.306152,-10.609756,3.414634,-1.524390,-4.943750,40.006252,-3.775000,0.0,1.000000,0.000000,0.000000,0.000000
1782117261.782959,1765140,-0.970703,0.015625,-0.302734,-11.341464,2.743902,-1.402439,-4.968750,40.068752,-3.850000,0.0,1.000000,0.000000,0.000000,0.000000
1782117261.792959,1765150,-0.973633,0.019043,-0.301270,-12.621951,1.951220,-1.646341,-4.968750,40.068752,-3.850000,0.0,1.000000,0.000000,0.000000,0.000000
1782117261.802959,1765160,-0.967773,0.020020,-0.296875,-13.658537,1.280488,-2.134146,-4.993750,40.174999,-3.918750,0.0,1.000000,0.000000,0.000000,0.000000
1782117261.814960,1765172,-0.965332,0.007812,-0.290527,-14.634147,1.402439,-2.743902,-4.993750,40.174999,-3.918750,0.0,1.000000,0.000000,0.000000,0.000000
1782117261.822959,1765180,-0.970215,-0.008301,-0.287598,-14.817074,1.463415,-3.353659,-5.075000,40.168751,-4.068750,0.0,1.000000,0.000000,0.000000,0.000000
1782117261.832959,1765190,-0.982422,-0.015625,-0.288086,-13.353659,1.219512,-3.597561,-5.075000,40.168751,-4.068750,0.0,1.000000,0.000000,0.000000,0.000000
1782117261.842959,1765200,-0.988770,-0.012207,-0.291504,-11.036586,0.121951,-3.536585,-5.306250,40.000000,-4.187500,0.0,1.000000,0.000000,0.000000,0.000000
1782117261.854959,1765212,-0.978027,-0.005859,-0.287598,-9.390244,-1.829268,-3.536585,-5.306250,40.000000,-4.187500,0.0,1.000000,0.000000,0.000000,0.000000
1782117261.862959,1765220,-0.970215,0.000977,-0.290527,-8.475610,-2.865854,-3.292683,-5.331250,39.993752,-4.181250,0.0,1.000000,0.000000,0.000000,0.000000
1782117261.872959,1765230,-0.968262,0.016113,-0.298340,-7.500000,-3.353659,-2.500000,-5.331250,39.993752,-4.181250,0.0,1.000000,0.000000,0.000000,0.000000
1782117261.882959,1765240,-0.968750,0.018555,-0.305664,-5.731708,-3.780488,-1.341463,-5.475000,39.831249,-4.200000,0.0,1.000000,0.000000,0.000000,0.000000
1782117261.894959,1765252,-0.968750,0.011230,-0.317383,-4.085366,-4.329268,-0.792683,-5.462500,39.900002,-4.206250,0.0,1.000000,0.000000,0.000000,0.000000
1782117261.903960,1765261,-0.972656,0.003906,-0.328125,-2.134146,-5.060976,-1.097561,-5.462500,39.900002,-4.206250,0.0,1.000000,0.000000,0.000000,0.000000
1782117261.913960,1765271,-0.966309,0.000000,-0.329590,-0.731707,-5.670732,-1.341463,-5.462500,39.900002,-4.206250,0.0,1.000000,0.000000,0.000000,0.000000
1782117261.922959,1765280,-0.948730,0.000000,-0.331543,-1.585366,-5.000000,-1.707317,-5.581250,39.762501,-4.162500,0.0,1.000000,0.000000,0.000000,0.000000
1782117261.935959,1765293,-0.938965,0.000488,-0.326172,-3.414634,-3.414634,-2.256098,-5.575000,39.843750,-4.137500,0.0,1.000000,0.000000,0.000000,0.000000
1782117261.942959,1765300,-0.921387,0.003418,-0.325195,-5.731708,-1.402439,-2.804878,-5.575000,39.843750,-4.137500,0.0,1.000000,0.000000,0.000000,0.000000
1782117261.953959,1765311,-0.916504,0.012207,-0.323730,-7.682927,1.463415,-2.621951,-5.687500,39.706249,-4.156250,0.0,1.000000,0.000000,0.000000,0.000000
1782117261.963959,1765321,-0.923340,0.019531,-0.320312,-8.109756,3.841464,-1.463415,-5.687500,39.706249,-4.156250,0.0,1.000000,0.000000,0.000000,0.000000
1782117261.976959,1765334,-0.926270,0.016602,-0.317871,-8.902439,5.304878,-0.426829,-5.756250,39.737499,-4.325000,0.0,1.000000,0.000000,0.000000,0.000000
1782117261.983959,1765341,-0.929199,0.009277,-0.319824,-10.121951,6.341464,0.000000,-5.756250,39.737499,-4.325000,0.0,1.000000,0.000000,0.000000,0.000000
1782117261.993959,1765351,-0.929199,0.000000,-0.326660,-10.304878,6.768293,0.121951,-5.631250,39.850002,-4.400000,0.0,1.000000,0.000000,0.000000,0.000000
1782117262.003959,1765361,-0.924805,-0.004883,-0.346191,-9.268292,7.317073,0.243902,-5.631250,39.850002,-4.400000,0.0,1.000000,0.000000,0.000000,0.000000
1782117262.015960,1765373,-0.919922,0.011230,-0.367188,-7.865854,8.780488,1.097561,-5.700000,39.850002,-4.600000,0.0,1.000000,0.000000,0.000000,0.000000
1782117262.022959,1765380,-0.925293,0.035156,-0.365723,-5.060976,9.390244,2.987805,-5.700000,39.850002,-4.600000,0.0,1.000000,0.000000,0.000000,0.000000
1782117262.032959,1765390,-0.941895,0.048340,-0.343750,-0.975610,8.231708,4.695122,-5.625000,39.862499,-4.725000,0.0,1.000000,0.000000,0.000000,0.000000
1782117262.042959,1765400,-0.960449,0.049805,-0.307129,3.170732,6.097561,5.365854,-5.625000,39.862499,-4.725000,0.0,1.000000,0.000000,0.000000,0.000000
1782117262.052959,1765410,-0.973633,0.020508,-0.272949,7.256098,3.902439,4.878049,-5.543750,40.000000,-4.768750,0.0,1.000000,0.000000,0.000000,0.000000
1782117262.062959,1765420,-0.984863,-0.028320,-0.262207,9.695122,2.500000,3.353659,-5.543750,40.000000,-4.768750,0.0,1.000000,0.000000,0.000000,0.000000
1782117262.072959,1765430,-0.988770,-0.060059,-0.260742,11.280488,0.853659,1.219512,-5.512500,39.993752,-4.781250,0.0,1.000000,0.000000,0.000000,0.000000
1782117262.082959,1765440,-0.992188,-0.065430,-0.262207,12.804878,-0.853659,-0.426829,-5.512500,39.993752,-4.781250,0.0,1.000000,0.000000,0.000000,0.000000
1782117262.094959,1765452,-0.990723,-0.053711,-0.269531,13.719513,-2.073171,-1.219512,-5.537500,40.006252,-4.700000,0.0,1.000000,0.000000,0.000000,0.000000
1782117262.102959,1765460,-0.983398,-0.016602,-0.275391,12.926829,-2.804878,-1.097561,-5.537500,40.006252,-4.700000,0.0,1.000000,0.000000,0.000000,0.000000
1782117262.112959,1765470,-0.973633,0.020996,-0.282227,11.463415,-3.597561,-0.121951,-5.531250,39.975002,-4.612500,0.0,1.000000,0.000000,0.000000,0.000000
1782117262.122959,1765480,-0.969727,0.052246,-0.296387,9.329268,-4.085366,1.158537,-5.531250,39.975002,-4.612500,0.0,1.000000,0.000000,0.000000,0.000000
1782117262.134959,1765492,-0.961914,0.068359,-0.317383,7.682927,-4.695122,2.560976,-5.500000,39.900002,-4.443750,0.0,1.000000,0.000000,0.000000,0.000000
1782117262.142959,1765500,-0.949707,0.066406,-0.340332,6.524390,-4.634146,3.719512,-5.500000,39.900002,-4.443750,0.0,1.000000,0.000000,0.000000,0.000000
1782117262.152959,1765510,-0.943848,0.055176,-0.358398,5.975610,-3.719512,4.268293,-5.237500,40.162502,-4.331250,0.0,1.000000,0.000000,0.000000,0.000000
1782117262.162959,1765520,-0.944336,0.035156,-0.370117,6.036585,-3.170732,4.207317,-5.237500,40.162502,-4.331250,0.0,1.000000,0.000000,0.000000,0.000000
1782117262.174959,1765532,-0.937988,0.013672,-0.372070,6.768293,-2.865854,3.902439,-5.500000,39.831249,-4.418750,0.0,1.000000,0.000000,0.000000,0.000000
1782117262.182959,1765540,-0.936035,-0.000488,-0.368164,8.231708,-2.378049,3.658537,-5.500000,39.831249,-4.418750,0.0,1.000000,0.000000,0.000000,0.000000
1782117262.192959,1765550,-0.937500,-0.011230,-0.366211,9.268292,-2.378049,3.597561,-5.331250,39.987499,-4.206250,0.0,1.000000,0.000000,0.000000,0.000000
1782117262.202959,1765560,-0.931641,-0.015625,-0.364258,10.060976,-2.256098,3.231707,-5.331250,39.987499,-4.206250,0.0,1.000000,0.000000,0.000000,0.000000
1782117262.214959,1765572,-0.930664,-0.016602,-0.354980,11.036586,-1.707317,3.170732,-5.450000,39.850002,-4.225000,0.0,1.000000,0.000000,0.000000,0.000000
1782117262.222960,1765580,-0.932617,-0.012207,-0.344238,11.890244,-1.585366,3.048780,-5.450000,39.850002,-4.225000,0.0,1.000000,0.000000,0.000000,0.000000
1782117262.232960,1765590,-0.932129,-0.003906,-0.335938,12.500000,-1.829268,2.926829,-5.087500,40.162502,-4.012500,0.0,1.000000,0.000000,0.000000,0.000000
1782117262.242959,1765600,-0.927734,0.008301,-0.330566,12.865854,-2.134146,2.743902,-5.087500,40.162502,-4.012500,0.0,1.000000,0.000000,0.000000,0.000000
1782117262.252959,1765610,-0.922852,0.019531,-0.332520,12.439025,-1.890244,2.560976,-5.143750,39.924999,-3.968750,0.0,1.000000,0.000000,0.000000,0.000000
1782117262.263959,1765621,-0.917480,0.035645,-0.338379,10.853659,-1.280488,2.560976,-5.018750,40.125000,-3.875000,0.0,1.000000,0.000000,0.000000,0.000000
1782117262.272959,1765630,-0.914062,0.053223,-0.347656,8.902439,-0.182927,2.804878,-5.018750,40.125000,-3.875000,0.0,1.000000,0.000000,0.000000,0.000000
1782117262.282959,1765640,-0.921875,0.075195,-0.355469,6.890244,0.426829,3.536585,-5.062500,40.037502,-3.825000,0.0,1.000000,0.000000,0.000000,0.000000
1782117262.292959,1765650,-0.927734,0.094727,-0.353516,4.695122,0.060976,4.146341,-5.062500,40.037502,-3.825000,0.0,1.000000,0.000000,0.000000,0.000000
1782117262.302959,1765660,-0.937012,0.104004,-0.344238,2.682927,-0.731707,4.451220,-4.787500,40.281250,-3.831250,0.0,1.000000,0.000000,0.000000,0.000000
1782117262.312959,1765670,-0.946777,0.101562,-0.330566,0.914634,-1.585366,4.390244,-4.787500,40.281250,-3.831250,0.0,1.000000,0.000000,0.000000,0.000000
1782117262.322959,1765680,-0.956055,0.087891,-0.322266,-0.792683,-1.951220,3.963415,-4.931250,40.068752,-3.862500,0.0,1.000000,0.000000,0.000000,0.000000
1782117262.335959,1765693,-0.962891,0.066895,-0.321289,-2.743902,-2.012195,3.536585,-4.931250,40.068752,-3.862500,0.0,1.000000,0.000000,0.000000,0.000000
1782117262.343959,1765701,-0.968262,0.039062,-0.321289,-5.121951,-1.951220,2.926829,-4.893750,40.106251,-3.818750,0.0,1.000000,0.000000,0.000000,0.000000
1782117262.352959,1765710,-0.965332,0.009766,-0.316895,-7.195122,-1.829268,2.012195,-4.893750,40.106251,-3.818750,0.0,1.000000,0.000000,0.000000,0.000000
1782117262.362959,1765720,-0.953613,-0.021484,-0.312500,-7.804878,-1.646341,0.792683,-4.887500,40.168751,-3.850000,0.0,1.000000,0.000000,0.000000,0.000000
1782117262.373959,1765731,-0.947266,-0.046387,-0.322266,-7.073171,-0.426829,-0.121951,-4.887500,40.168751,-3.850000,0.0,1.000000,0.000000,0.000000,0.000000
1782117262.382959,1765740,-0.950684,-0.046387,-0.338867,-4.207317,0.975610,0.365854,-4.850000,40.162502,-3.868750,0.0,1.000000,0.000000,0.000000,0.000000
1782117262.393960,1765751,-0.964355,-0.020996,-0.329590,0.000000,0.487805,2.134146,-4.850000,40.162502,-3.868750,0.0,1.000000,0.000000,0.000000,0.000000
1782117262.403960,1765761,-0.973633,-0.002930,-0.312988,2.378049,-1.524390,3.414634,-4.818750,40.137501,-3.856250,0.0,1.000000,0.000000,0.000000,0.000000
1782117262.415959,1765773,-0.969238,0.021484,-0.307617,3.292683,-4.146341,3.780488,-4.818750,40.137501,-3.856250,0.0,1.000000,0.000000,0.000000,0.000000
1782117262.422959,1765780,-0.964355,0.045410,-0.304688,4.756098,-5.975610,4.024390,-4.806250,40.125000,-3.762500,0.0,1.000000,0.000000,0.000000,0.000000
1782117262.432959,1765790,-0.969727,0.061035,-0.290039,6.646342,-6.829268,4.390244,-4.806250,40.125000,-3.762500,0.0,1.000000,0.000000,0.000000,0.000000
1782117262.442959,1765800,-0.969727,0.061035,-0.290039,6.646342,-6.829268,4.390244,-4.781250,40.106251,-3.756250,0.0,1.000000,0.000000,0.000000,0.000000
1782117262.452959,1765810,-0.978516,0.052734,-0.270996,7.682927,-7.926829,4.390244,-4.781250,40.106251,-3.756250,0.0,1.000000,0.000000,0.000000,0.000000
1782117262.462959,1765820,-0.987305,0.033691,-0.267090,7.500000,-9.024390,3.658537,-4.718750,40.087502,-3.587500,0.0,1.000000,0.000000,0.000000,0.000000
1782117262.473959,1765831,-0.983887,-0.008301,-0.270020,7.439024,-9.390244,1.646341,-4.718750,40.087502,-3.587500,0.0,1.000000,0.000000,0.000000,0.000000
1782117262.482960,1765840,-0.983887,-0.008301,-0.270020,7.439024,-9.390244,1.646341,-4.731250,40.056252,-3.475000,0.0,1.000000,0.000000,0.000000,0.000000
1782117262.493959,1765851,-0.981445,-0.011230,-0.270020,7.317073,-9.268292,0.975610,-4.731250,40.056252,-3.475000,0.0,1.000000,0.000000,0.000000,0.000000
1782117262.502959,1765860,-0.975098,-0.003906,-0.270508,7.195122,-9.207317,0.853659,-4.718750,40.006252,-3.268750,0.0,1.000000,0.000000,0.000000,0.000000
1782117262.512959,1765870,-0.967773,0.011230,-0.276367,7.134147,-8.597561,1.219512,-4.718750,40.006252,-3.268750,0.0,1.000000,0.000000,0.000000,0.000000
1782117262.522959,1765880,-0.961914,0.028809,-0.281738,7.073171,-8.109756,1.890244,-4.625000,40.031250,-3.093750,0.0,1.000000,0.000000,0.000000,0.000000
1782117262.532959,1765890,-0.958008,0.041016,-0.282227,6.219512,-7.500000,2.378049,-4.625000,40.031250,-3.093750,0.0,1.000000,0.000000,0.000000,0.000000
1782117262.542959,1765900,-0.955566,0.047363,-0.282227,5.121951,-6.829268,2.500000,-4.612500,39.900002,-2.900000,0.0,1.000000,0.000000,0.000000,0.000000
1782117262.552959,1765910,-0.952148,0.046875,-0.279785,4.268293,-6.280488,2.560976,-4.462500,40.068752,-2.812500,0.0,1.000000,0.000000,0.000000,0.000000
1782117262.562959,1765920,-0.953613,0.039062,-0.281250,3.902439,-5.853659,2.560976,-4.462500,40.068752,-2.812500,0.0,1.000000,0.000000,0.000000,0.000000
1782117262.572959,1765930,-0.953125,0.027832,-0.286133,3.536585,-5.487805,2.317073,-4.575000,39.962502,-2.668750,0.0,1.000000,0.000000,0.000000,0.000000
1782117262.582959,1765940,-0.954590,0.018555,-0.291504,3.353659,-4.756098,2.256098,-4.575000,39.962502,-2.668750,0.0,1.000000,0.000000,0.000000,0.000000
1782117262.592959,1765950,-0.959961,0.015137,-0.294434,3.170732,-4.207317,2.256098,-4.450000,40.000000,-2.631250,0.0,1.000000,0.000000,0.000000,0.000000
1782117262.602959,1765960,-0.957031,0.012695,-0.293457,2.621951,-3.963415,2.073171,-4.450000,40.000000,-2.631250,0.0,1.000000,0.000000,0.000000,0.000000
1782117262.612959,1765970,-0.952637,0.009277,-0.292969,2.073171,-3.292683,1.829268,-4.487500,39.943752,-2.643750,0.0,1.000000,0.000000,0.000000,0.000000
1782117262.623959,1765981,-0.947754,0.005859,-0.293457,1.890244,-2.073171,1.829268,-4.487500,39.943752,-2.643750,0.0,1.000000,0.000000,0.000000,0.000000
1782117262.632959,1765990,-0.946289,0.000977,-0.294434,2.073171,-0.914634,1.951220,-4.337500,40.043751,-2.543750,0.0,1.000000,0.000000,0.000000,0.000000
1782117262.642959,1766000,-0.952148,0.001465,-0.296387,2.256098,-0.121951,2.073171,-4.337500,40.043751,-2.543750,0.0,1.000000,0.000000,0.000000,0.000000
1782117262.652959,1766010,-0.959473,0.000977,-0.300293,2.682927,0.060976,2.378049,-4.406250,39.968750,-2.562500,0.0,1.000000,0.000000,0.000000,0.000000
1782117262.662959,1766020,-0.964355,0.003906,-0.301270,3.658537,-0.182927,2.743902,-4.406250,39.968750,-2.562500,0.0,1.000000,0.000000,0.000000,0.000000
1782117262.673959,1766031,-0.968750,0.006836,-0.296875,4.878049,-0.731707,2.743902,-4.293750,40.043751,-2.562500,0.0,1.000000,0.000000,0.000000,0.000000
1782117262.682959,1766040,-0.968262,0.008789,-0.290039,6.341464,-1.219512,2.560976,-4.293750,40.043751,-2.562500,0.0,1.000000,0.000000,0.000000,0.000000
1782117262.692959,1766050,-0.970703,0.012207,-0.278809,8.048780,-1.768293,2.500000,-4.206250,40.049999,-2.412500,0.0,1.000000,0.000000,0.000000,0.000000
1782117262.703959,1766061,-0.970215,0.015625,-0.268555,9.329268,-2.195122,2.560976,-4.206250,40.049999,-2.412500,0.0,1.000000,0.000000,0.000000,0.000000
1782117262.713959,1766071,-0.970215,0.023926,-0.260254,9.817074,-2.378049,2.682927,-4.212500,39.975002,-2.456250,0.0,1.000000,0.000000,0.000000,0.000000
1782117262.722960,1766080,-0.968262,0.032227,-0.256348,9.207317,-2.195122,2.865854,-4.212500,39.975002,-2.456250,0.0,1.000000,0.000000,0.000000,0.000000
1782117262.732960,1766090,-0.968262,0.039062,-0.254883,8.048780,-1.829268,2.987805,-4.250000,39.950001,-2.400000,0.0,1.000000,0.000000,0.000000,0.000000
1782117262.742959,1766100,-0.967773,0.038574,-0.258301,6.585366,-1.646341,2.987805,-4.250000,39.950001,-2.400000,0.0,1.000000,0.000000,0.000000,0.000000
1782117262.752959,1766110,-0.965820,0.034668,-0.264160,5.121951,-1.219512,2.682927,-3.956250,40.143749,-2.337500,0.0,1.000000,0.000000,0.000000,0.000000
1782117262.762959,1766120,-0.969727,0.031250,-0.269531,3.841464,-0.975610,2.195122,-3.956250,40.143749,-2.337500,0.0,1.000000,0.000000,0.000000,0.000000
1782117262.773959,1766131,-0.973145,0.025391,-0.267578,3.170732,-0.975610,1.524390,-4.162500,39.943752,-2.325000,0.0,1.000000,0.000000,0.000000,0.000000
1782117262.782959,1766140,-0.971191,0.022461,-0.262695,2.804878,-1.036585,1.036585,-4.162500,39.943752,-2.325000,0.0,1.000000,0.000000,0.000000,0.000000
1782117262.792959,1766150,-0.968750,0.020020,-0.255371,2.439024,-1.219512,0.914634,-3.881250,40.256252,-2.212500,0.0,1.000000,0.000000,0.000000,0.000000
1782117262.802959,1766160,-0.964844,0.017578,-0.252441,1.829268,-1.280488,1.219512,-3.881250,40.256252,-2.212500,0.0,1.000000,0.000000,0.000000,0.000000
1782117262.812959,1766170,-0.962891,0.018555,-0.251465,0.914634,-1.219512,1.646341,-4.106250,39.875000,-2.237500,0.0,1.000000,0.000000,0.000000,0.000000
1782117262.822959,1766180,-0.963867,0.013672,-0.252930,-0.365854,-0.670732,1.951220,-4.106250,39.875000,-2.237500,0.0,1.000000,0.000000,0.000000,0.000000
1782117262.832959,1766190,-0.965332,0.010742,-0.257812,-1.036585,-0.121951,2.256098,-4.043750,40.006252,-2.275000,0.0,1.000000,0.000000,0.000000,0.000000
1782117262.842959,1766200,-0.968262,0.000977,-0.263184,-0.914634,0.304878,2.378049,-4.100000,39.987499,-2.175000,0.0,1.000000,0.000000,0.000000,0.000000
1782117262.852959,1766210,-0.974121,-0.006348,-0.267090,-0.243902,0.365854,2.073171,-4.100000,39.987499,-2.175000,0.0,1.000000,0.000000,0.000000,0.000000
1782117262.863959,1766221,-0.973633,-0.009766,-0.267090,1.097561,0.121951,1.890244,-3.968750,40.062500,-2.237500,0.0,1.000000,0.000000,0.000000,0.000000
1782117262.873959,1766231,-0.969727,-0.009277,-0.267578,3.170732,-0.487805,1.829268,-3.968750,40.062500,-2.237500,0.0,1.000000,0.000000,0.000000,0.000000
1782117262.883959,1766241,-0.972168,-0.002441,-0.267090,5.182927,-0.731707,2.073171,-3.981250,39.993752,-2.262500,0.0,1.000000,0.000000,0.000000,0.000000
1782117262.892959,1766250,-0.973145,0.006836,-0.263672,6.829268,-1.341463,2.743902,-3.981250,39.993752,-2.262500,0.0,1.000000,0.000000,0.000000,0.000000
1782117262.903960,1766261,-0.969238,0.008789,-0.260742,8.109756,-1.707317,3.414634,-3.931250,40.068752,-2.181250,0.0,1.000000,0.000000,0.000000,0.000000
1782117262.913960,1766271,-0.970703,0.018066,-0.257812,8.780488,-1.463415,3.902439,-3.931250,40.068752,-2.181250,0.0,1.000000,0.000000,0.000000,0.000000
1782117262.923959,1766281,-0.977539,0.028320,-0.254395,8.780488,-1.341463,4.268293,-3.850000,40.068752,-2.131250,0.0,1.000000,0.000000,0.000000,0.000000
1782117262.933959,1766291,-0.978027,0.035156,-0.256348,8.353659,-1.829268,4.451220,-3.850000,40.068752,-2.131250,0.0,1.000000,0.000000,0.000000,0.000000
1782117262.944959,1766302,-0.973145,0.044434,-0.254883,7.500000,-2.073171,4.268293,-3.718750,40.106251,-2.068750,0.0,1.000000,0.000000,0.000000,0.000000
1782117262.952959,1766310,-0.964355,0.049805,-0.252441,5.975610,-2.012195,3.902439,-3.718750,40.106251,-2.068750,0.0,1.000000,0.000000,0.000000,0.000000
1782117262.962959,1766320,-0.962891,0.044922,-0.256348,4.756098,-1.524390,3.719512,-3.706250,40.131252,-1.962500,0.0,1.000000,0.000000,0.000000,0.000000
1782117262.972960,1766330,-0.969727,0.041504,-0.262695,4.146341,-1.280488,3.536585,-3.706250,40.131252,-1.962500,0.0,1.000000,0.000000,0.000000,0.000000
1782117262.983959,1766341,-0.970703,0.035156,-0.265137,3.841464,-1.524390,3.231707,-3.650000,40.174999,-2.012500,0.0,1.000000,0.000000,0.000000,0.000000
1782117262.992959,1766350,-0.972168,0.030273,-0.262695,3.536585,-1.829268,2.682927,-3.650000,40.174999,-2.012500,0.0,1.000000,0.000000,0.000000,0.000000
1782117263.002959,1766360,-0.975586,0.031250,-0.261230,2.560976,-2.317073,2.134146,-3.550000,40.174999,-1.931250,0.0,1.000000,0.000000,0.000000,0.000000
1782117263.012959,1766370,-0.970215,0.035156,-0.258789,1.219512,-2.682927,1.829268,-3.550000,40.174999,-1.931250,0.0,1.000000,0.000000,0.000000,0.000000
1782117263.024959,1766382,-0.964844,0.036621,-0.259766,0.426829,-2.743902,1.890244,-3.618750,40.131252,-1.925000,0.0,1.000000,0.000000,0.000000,0.000000
1782117263.032959,1766390,-0.965820,0.039062,-0.265625,0.243902,-2.378049,2.134146,-3.618750,40.131252,-1.925000,0.0,1.000000,0.000000,0.000000,0.000000
1782117263.042959,1766400,-0.971191,0.039551,-0.273438,0.121951,-2.195122,2.621951,-3.575000,40.131252,-1.862500,0.0,1.000000,0.000000,0.000000,0.000000
1782117263.052959,1766410,-0.969727,0.039551,-0.273438,0.304878,-2.865854,2.865854,-3.575000,40.131252,-1.862500,0.0,1.000000,0.000000,0.000000,0.000000
1782117263.063959,1766421,-0.964844,0.038086,-0.272461,0.243902,-3.231707,2.682927,-3.612500,40.068752,-1.862500,0.0,1.000000,0.000000,0.000000,0.000000
1782117263.072959,1766430,-0.962891,0.037598,-0.271973,0.426829,-3.048780,2.560976,-3.612500,40.068752,-1.862500,0.0,1.000000,0.000000,0.000000,0.000000
1782117263.083959,1766441,-0.966797,0.037109,-0.270508,1.097561,-3.048780,2.682927,-3.543750,40.137501,-1.762500,0.0,1.000000,0.000000,0.000000,0.000000
1782117263.092959,1766450,-0.964844,0.037109,-0.264648,1.707317,-3.109756,2.560976,-3.543750,40.137501,-1.762500,0.0,1.000000,0.000000,0.000000,0.000000
1782117263.103959,1766461,-0.961426,0.032715,-0.258789,1.402439,-2.621951,2.134146,-3.581250,40.100002,-1.781250,0.0,1.000000,0.000000,0.000000,0.000000
1782117263.112959,1766470,-0.962891,0.029785,-0.256836,0.853659,-1.829268,1.829268,-3.581250,40.100002,-1.781250,0.0,1.000000,0.000000,0.000000,0.000000
1782117263.123959,1766481,-0.963867,0.022461,-0.259277,0.304878,-1.097561,1.707317,-3.387500,40.299999,-1.693750,0.0,1.000000,0.000000,0.000000,0.000000
1782117263.133959,1766491,-0.967773,0.018066,-0.265137,-0.121951,-0.487805,1.646341,-3.587500,40.018749,-1.693750,0.0,1.000000,0.000000,0.000000,0.000000
1782117263.143960,1766501,-0.969238,0.019043,-0.268555,-0.304878,-0.304878,1.402439,-3.587500,40.018749,-1.693750,0.0,1.000000,0.000000,0.000000,0.000000
1782117263.152959,1766510,-0.966797,0.024414,-0.269043,-0.365854,-0.548781,1.158537,-3.550000,40.231251,-1.662500,0.0,1.000000,0.000000,0.000000,0.000000
1782117263.162959,1766520,-0.962402,0.032715,-0.267090,-0.548781,-0.670732,0.731707,-3.550000,40.231251,-1.662500,0.0,1.000000,0.000000,0.000000,0.000000
1782117263.172959,1766530,-0.955566,0.035645,-0.265625,-1.158537,-0.304878,0.365854,-3.331250,40.325001,-1.650000,0.0,1.000000,0.000000,0.000000,0.000000
1782117263.182959,1766540,-0.953125,0.033203,-0.270020,-1.524390,0.487805,0.304878,-3.331250,40.325001,-1.650000,0.0,1.000000,0.000000,0.000000,0.000000
1782117263.192959,1766550,-0.957520,0.025391,-0.272461,-1.402439,1.158537,0.487805,-3.593750,40.087502,-1.793750,0.0,1.000000,0.000000,0.000000,0.000000
1782117263.202959,1766560,-0.958496,0.014648,-0.271973,-1.036585,1.524390,0.365854,-3.593750,40.087502,-1.793750,0.0,1.000000,0.000000,0.000000,0.000000
1782117263.212959,1766570,-0.963867,0.007812,-0.273438,-0.182927,2.012195,0.182927,-3.518750,40.131252,-1.737500,0.0,1.000000,0.000000,0.000000,0.000000
1782117263.223959,1766581,-0.967773,0.002930,-0.276855,1.097561,2.378049,0.121951,-3.518750,40.131252,-1.737500,0.0,1.000000,0.000000,0.000000,0.000000
1782117263.232960,1766590,-0.964844,0.001953,-0.282715,2.134146,2.987805,-0.182927,-3.562500,40.156250,-1.768750,0.0,1.000000,0.000000,0.000000,0.000000
1782117263.242959,1766600,-0.955078,0.004883,-0.292969,2.926829,3.597561,-0.853659,-3.562500,40.156250,-1.768750,0.0,1.000000,0.000000,0.000000,0.000000
1782117263.252959,1766610,-0.948242,0.013184,-0.305664,3.292683,4.756098,-1.158537,-3.318750,40.475002,-1.775000,0.0,1.000000,0.000000,0.000000,0.000000
1782117263.264959,1766622,-0.947754,0.020508,-0.321777,3.231707,5.975610,-0.975610,-3.318750,40.475002,-1.775000,0.0,1.000000,0.000000,0.000000,0.000000
1782117263.273959,1766631,-0.942871,0.025391,-0.329590,3.658537,6.829268,-0.975610,-3.606250,40.156250,-1.818750,0.0,1.000000,0.000000,0.000000,0.000000
1782117263.282959,1766640,-0.948242,0.030273,-0.321777,4.329268,7.439024,-0.975610,-3.606250,40.156250,-1.818750,0.0,1.000000,0.000000,0.000000,0.000000
1782117263.292959,1766650,-0.948242,0.030273,-0.321777,4.329268,7.439024,-0.975610,-3.631250,40.131252,-1.956250,0.0,1.000000,0.000000,0.000000,0.000000
1782117263.304959,1766662,-0.959961,0.024902,-0.291504,4.390244,6.829268,-1.097561,-3.631250,40.131252,-1.956250,0.0,1.000000,0.000000,0.000000,0.000000
1782117263.314960,1766672,-0.959961,0.024902,-0.291504,4.390244,6.829268,-1.097561,-3.587500,40.212502,-1.962500,0.0,1.000000,0.000000,0.000000,0.000000
1782117263.322959,1766680,-0.961426,0.023926,-0.284180,4.390244,6.158537,-1.280488,-3.587500,40.212502,-1.962500,0.0,1.000000,0.000000,0.000000,0.000000
1782117263.332959,1766690,-0.962891,0.025391,-0.277832,4.695122,5.792683,-1.158537,-3.662500,40.206249,-2.018750,0.0,1.000000,0.000000,0.000000,0.000000
1782117263.344959,1766702,-0.968750,0.043945,-0.281250,5.000000,4.329268,-0.426829,-3.662500,40.206249,-2.018750,0.0,1.000000,0.000000,0.000000,0.000000
1782117263.352959,1766710,-0.968750,0.043945,-0.281250,5.000000,4.329268,-0.426829,-3.525000,40.343750,-2.125000,0.0,1.000000,0.000000,0.000000,0.000000
1782117263.362959,1766720,-0.966797,0.059082,-0.283691,4.817073,3.841464,0.000000,-3.525000,40.343750,-2.125000,0.0,1.000000,0.000000,0.000000,0.000000
1782117263.372959,1766730,-0.962402,0.066895,-0.285645,3.963415,3.536585,0.365854,-3.668750,40.231251,-2.131250,0.0,1.000000,0.000000,0.000000,0.000000
1782117263.384959,1766742,-0.957031,0.053223,-0.294922,1.158537,3.231707,0.304878,-3.668750,40.231251,-2.131250,0.0,1.000000,0.000000,0.000000,0.000000
1782117263.394959,1766752,-0.957031,0.053223,-0.294922,1.158537,3.231707,0.304878,-3.712500,40.181252,-2.206250,0.0,1.000000,0.000000,0.000000,0.000000
1782117263.402959,1766760,-0.959473,0.041016,-0.305664,-0.121951,3.658537,0.060976,-3.712500,40.181252,-2.206250,0.0,1.000000,0.000000,0.000000,0.000000
1782117263.412959,1766770,-0.963867,0.031738,-0.310059,-0.487805,3.780488,0.060976,-3.306250,40.631252,-2.125000,0.0,1.000000,0.000000,0.000000,0.000000
1782117263.426960,1766784,-0.965820,0.012695,-0.303711,-0.304878,2.804878,-0.304878,-3.743750,40.181252,-2.318750,0.0,1.000000,0.000000,0.000000,0.000000
1782117263.432959,1766790,-0.965820,0.012695,-0.303711,-0.304878,2.804878,-0.304878,-3.743750,40.181252,-2.318750,0.0,1.000000,0.000000,0.000000,0.000000
1782117263.442959,1766800,-0.962891,0.007324,-0.299316,-0.182927,2.256098,-0.548781,-3.725000,40.231251,-2.350000,0.0,1.000000,0.000000,0.000000,0.000000
1782117263.452959,1766810,-0.956543,0.006348,-0.295898,-0.243902,1.768293,-0.548781,-3.725000,40.231251,-2.350000,0.0,1.000000,0.000000,0.000000,0.000000
1782117263.462959,1766820,-0.954590,0.011230,-0.293945,-0.426829,1.585366,-0.304878,-3.781250,40.143749,-2.306250,0.0,1.000000,0.000000,0.000000,0.000000
1782117263.472960,1766830,-0.959473,0.018066,-0.292480,-0.548781,1.341463,0.000000,-3.781250,40.143749,-2.306250,0.0,1.000000,0.000000,0.000000,0.000000
1782117263.483959,1766841,-0.959961,0.021973,-0.292969,-0.548781,1.097561,0.426829,-3.287500,40.662502,-2.268750,0.0,1.000000,0.000000,0.000000,0.000000
1782117263.492959,1766850,-0.961426,0.020996,-0.293945,-0.243902,0.731707,0.609756,-3.287500,40.662502,-2.268750,0.0,1.000000,0.000000,0.000000,0.000000
1782117263.505960,1766863,-0.957031,0.018555,-0.291504,1.768293,0.121951,0.548781,-3.731250,40.256252,-2.362500,0.0,1.000000,0.000000,0.000000,0.000000
1782117263.512959,1766870,-0.957031,0.018555,-0.291504,1.768293,0.121951,0.548781,-3.731250,40.256252,-2.362500,0.0,1.000000,0.000000,0.000000,0.000000
1782117263.523959,1766881,-0.958496,0.017090,-0.291016,2.621951,0.304878,0.487805,-3.718750,40.275002,-2.387500,0.0,1.000000,0.000000,0.000000,0.000000
1782117263.532959,1766890,-0.961914,0.012695,-0.291016,3.292683,0.548781,0.670732,-3.718750,40.275002,-2.387500,0.0,1.000000,0.000000,0.000000,0.000000
1782117263.545959,1766903,-0.963867,0.012695,-0.289551,3.902439,0.365854,0.609756,-3.750000,40.268749,-2.393750,0.0,1.000000,0.000000,0.000000,0.000000
1782117263.552959,1766910,-0.964355,0.010742,-0.289551,4.390244,0.000000,0.487805,-3.750000,40.268749,-2.393750,0.0,1.000000,0.000000,0.000000,0.000000
1782117263.563959,1766921,-0.966309,0.010254,-0.291504,5.243903,-0.060976,0.609756,-3.700000,40.293751,-2.318750,0.0,1.000000,0.000000,0.000000,0.000000
1782117263.573959,1766931,-0.967773,0.009277,-0.290527,6.585366,-0.365854,0.975610,-3.700000,40.293751,-2.318750,0.0,1.000000,0.000000,0.000000,0.000000
1782117263.584960,1766942,-0.964355,0.006348,-0.287109,8.170732,-0.792683,1.097561,-3.631250,40.331249,-2.256250,0.0,1.000000,0.000000,0.000000,0.000000
1782117263.592959,1766950,-0.963867,0.001953,-0.285156,9.512196,-0.914634,1.280488,-3.631250,40.331249,-2.256250,0.0,1.000000,0.000000,0.000000,0.000000
1782117263.602959,1766960,-0.964355,0.004883,-0.283203,10.548780,-0.792683,1.646341,-3.712500,40.237499,-2.200000,0.0,1.000000,0.000000,0.000000,0.000000
1782117263.612959,1766970,-0.968262,0.006348,-0.279297,11.585366,-0.731707,2.012195,-3.712500,40.237499,-2.200000,0.0,1.000000,0.000000,0.000000,0.000000
1782117263.623959,1766981,-0.968750,0.008789,-0.277832,12.317074,-0.853659,2.073171,-3.687500,40.162502,-2.168750,0.0,1.000000,0.000000,0.000000,0.000000
1782117263.633959,1766991,-0.966797,0.014648,-0.278809,12.621951,-0.792683,2.073171,-3.687500,40.162502,-2.168750,0.0,1.000000,0.000000,0.000000,0.000000
1782117263.642959,1767000,-0.967285,0.021484,-0.281738,12.500000,-0.853659,1.951220,-3.556250,40.312500,-2.043750,0.0,1.000000,0.000000,0.000000,0.000000
1782117263.652959,1767010,-0.966309,0.028320,-0.284180,12.012196,-0.731707,1.768293,-3.556250,40.312500,-2.043750,0.0,1.000000,0.000000,0.000000,0.000000
1782117263.664959,1767022,-0.965820,0.033691,-0.284180,11.097561,-0.609756,1.463415,-3.643750,40.162502,-2.031250,0.0,1.000000,0.000000,0.000000,0.000000
1782117263.672959,1767030,-0.965332,0.039062,-0.283691,9.512196,-0.487805,1.219512,-3.643750,40.162502,-2.031250,0.0,1.000000,0.000000,0.000000,0.000000
1782117263.682959,1767040,-0.961914,0.042969,-0.284180,7.926829,-0.548781,0.975610,-3.506250,40.250000,-1.950000,0.0,1.000000,0.000000,0.000000,0.000000
1782117263.692959,1767050,-0.958496,0.044922,-0.284180,6.402439,-0.548781,0.670732,-3.506250,40.250000,-1.950000,0.0,1.000000,0.000000,0.000000,0.000000
1782117263.704959,1767062,-0.958008,0.041504,-0.286621,4.878049,-0.487805,0.365854,-3.568750,40.162502,-1.931250,0.0,1.000000,0.000000,0.000000,0.000000
1782117263.712959,1767070,-0.958984,0.036133,-0.289062,3.414634,-0.365854,0.060976,-3.568750,40.162502,-1.931250,0.0,1.000000,0.000000,0.000000,0.000000
1782117263.722960,1767080,-0.957520,0.033691,-0.292480,2.256098,-0.365854,-0.121951,-3.468750,40.268749,-1.925000,0.0,1.000000,0.000000,0.000000,0.000000
1782117263.733959,1767091,-0.961914,0.028320,-0.297363,1.646341,-0.365854,0.060976,-3.468750,40.268749,-1.925000,0.0,1.000000,0.000000,0.000000,0.000000
1782117263.745960,1767103,-0.965332,0.023926,-0.296387,1.341463,-0.731707,0.182927,-3.581250,40.174999,-1.887500,0.0,1.000000,0.000000,0.000000,0.000000
1782117263.752959,1767110,-0.963379,0.018066,-0.296387,1.280488,-1.036585,0.304878,-3.568750,40.206249,-1.912500,0.0,1.000000,0.000000,0.000000,0.000000
1782117263.764959,1767122,-0.960449,0.010742,-0.297852,1.707317,-1.097561,0.365854,-3.568750,40.206249,-1.912500,0.0,1.000000,0.000000,0.000000,0.000000
1782117263.774959,1767132,-0.960938,0.003418,-0.300293,2.560976,-0.670732,0.426829,-3.543750,40.156250,-1.881250,0.0,1.000000,0.000000,0.000000,0.000000
1782117263.786959,1767144,-0.965332,-0.002930,-0.299316,3.780488,-0.365854,0.487805,-3.543750,40.156250,-1.881250,0.0,1.000000,0.000000,0.000000,0.000000
1782117263.792959,1767150,-0.963867,-0.004883,-0.296387,5.304878,-0.304878,0.487805,-3.487500,40.225002,-1.825000,0.0,1.000000,0.000000,0.000000,0.000000
1782117263.802959,1767160,-0.960938,-0.005859,-0.297363,6.768293,-0.365854,0.426829,-3.487500,40.225002,-1.825000,0.0,1.000000,0.000000,0.000000,0.000000
1782117263.812959,1767170,-0.956543,-0.005371,-0.303223,7.560976,-0.487805,0.182927,-3.512500,40.193752,-1.818750,0.0,1.000000,0.000000,0.000000,0.000000
1782117263.825959,1767183,-0.955078,0.000488,-0.310059,7.682927,-0.487805,0.121951,-3.512500,40.193752,-1.818750,0.0,1.000000,0.000000,0.000000,0.000000
1782117263.832959,1767190,-0.950684,0.007812,-0.313477,7.804878,-0.670732,0.182927,-3.475000,40.250000,-1.712500,0.0,1.000000,0.000000,0.000000,0.000000
1782117263.843959,1767201,-0.949219,0.013184,-0.311035,8.048780,-0.609756,0.426829,-3.475000,40.250000,-1.712500,0.0,1.000000,0.000000,0.000000,0.000000
1782117263.853959,1767211,-0.954102,0.017578,-0.309570,8.170732,-0.548781,0.792683,-3.481250,40.143749,-1.737500,0.0,1.000000,0.000000,0.000000,0.000000
1782117263.865959,1767223,-0.954590,0.021484,-0.303223,7.926829,-0.792683,1.219512,-3.481250,40.143749,-1.737500,0.0,1.000000,0.000000,0.000000,0.000000
1782117263.872959,1767230,-0.954102,0.017578,-0.302246,7.134147,-0.853659,1.402439,-3.250000,40.437500,-1.631250,0.0,1.000000,0.000000,0.000000,0.000000
1782117263.883959,1767241,-0.953125,0.009766,-0.306152,6.341464,-0.487805,1.341463,-3.250000,40.437500,-1.631250,0.0,1.000000,0.000000,0.000000,0.000000
1782117263.892959,1767250,-0.951172,0.000977,-0.314941,5.914634,0.121951,1.097561,-3.431250,40.200001,-1.668750,0.0,1.000000,0.000000,0.000000,0.000000
1782117263.903960,1767261,-0.951172,-0.002930,-0.317871,6.158537,0.609756,0.731707,-3.431250,40.200001,-1.668750,0.0,1.000000,0.000000,0.000000,0.000000
1782117263.912959,1767270,-0.952637,-0.009277,-0.315430,7.012195,0.731707,0.487805,-3.481250,40.174999,-1.587500,0.0,1.000000,0.000000,0.000000,0.000000
1782117263.922959,1767280,-0.953613,-0.012695,-0.309082,8.048780,0.487805,0.121951,-3.481250,40.174999,-1.587500,0.0,1.000000,0.000000,0.000000,0.000000
1782117263.932959,1767290,-0.952148,-0.009766,-0.301758,8.780488,0.243902,-0.121951,-3.468750,40.143749,-1.631250,0.0,1.000000,0.000000,0.000000,0.000000
1782117263.942959,1767300,-0.952637,0.000000,-0.298828,8.963415,0.365854,0.060976,-3.468750,40.143749,-1.631250,0.0,1.000000,0.000000,0.000000,0.000000
1782117263.952959,1767310,-0.955566,0.006348,-0.296875,8.536586,0.609756,0.731707,-3.475000,40.143749,-1.631250,0.0,1.000000,0.000000,0.000000,0.000000
1782117263.962959,1767320,-0.956543,0.011230,-0.296875,7.743903,0.792683,1.280488,-3.475000,40.143749,-1.631250,0.0,1.000000,0.000000,0.000000,0.000000
1782117263.972960,1767330,-0.956055,0.009277,-0.297852,7.073171,0.853659,1.646341,-3.418750,40.162502,-1.543750,0.0,1.000000,0.000000,0.000000,0.000000
1782117263.982960,1767340,-0.955078,0.003418,-0.296875,7.012195,0.975610,1.707317,-3.418750,40.162502,-1.543750,0.0,1.000000,0.000000,0.000000,0.000000
1782117263.992959,1767350,-0.960449,-0.003418,-0.296387,7.317073,0.914634,1.341463,-3.306250,40.287502,-1.600000,0.0,1.000000,0.000000,0.000000,0.000000
1782117264.002959,1767360,-0.966797,-0.003906,-0.293457,7.804878,0.609756,0.853659,-3.306250,40.287502,-1.600000,0.0,1.000000,0.000000,0.000000,0.000000
1782117264.012959,1767370,-0.961426,-0.002930,-0.288086,7.987805,-0.121951,0.304878,-3.393750,40.093750,-1.581250,0.0,1.000000,0.000000,0.000000,0.000000
1782117264.022959,1767380,-0.952148,0.000977,-0.281250,7.926829,-0.304878,-0.060976,-3.393750,40.093750,-1.581250,0.0,1.000000,0.000000,0.000000,0.000000
1782117264.032959,1767390,-0.953613,0.007324,-0.280762,7.682927,0.182927,0.060976,-3.381250,40.181252,-1.581250,0.0,1.000000,0.000000,0.000000,0.000000
1782117264.042959,1767400,-0.961426,0.008789,-0.286133,7.439024,0.853659,0.731707,-3.406250,40.156250,-1.581250,0.0,1.000000,0.000000,0.000000,0.000000
1782117264.052959,1767410,-0.958984,0.007812,-0.291016,7.073171,1.097561,1.158537,-3.406250,40.156250,-1.581250,0.0,1.000000,0.000000,0.000000,0.000000
1782117264.065959,1767423,-0.957520,0.006836,-0.292480,6.951220,1.219512,1.341463,-3.325000,40.137501,-1.587500,0.0,1.000000,0.000000,0.000000,0.000000
1782117264.072959,1767430,-0.959961,0.000977,-0.291016,7.317073,1.402439,1.585366,-3.325000,40.137501,-1.587500,0.0,1.000000,0.000000,0.000000,0.000000
1782117264.083959,1767441,-0.965332,-0.004395,-0.293945,7.621952,1.463415,1.280488,-3.268750,40.243752,-1.625000,0.0,1.000000,0.000000,0.000000,0.000000
