Unix_Time_s,IMU1_RefTime,ax_g,ay_g,az_g,gx_dps,gy_dps,gz_dps,mx_uT,my_uT,mz_uT,temp_C,qw,qx,qy,qz
1782117256.263959,1755680,0.910156,-0.018555,-0.408203,0.060976,-0.975610,-0.487805,16.543751,-37.037502,2.518750,0.0,1.000000,0.000000,0.000000,0.000000
1782117256.273959,1755690,0.912598,-0.018066,-0.409668,-0.121951,-1.097561,-0.426829,16.543751,-37.037502,2.518750,0.0,1.000000,0.000000,0.000000,0.000000
1782117256.283959,1755700,0.912109,-0.018555,-0.409668,-0.304878,-1.036585,-0.487805,16.643751,-36.799999,2.275000,0.0,1.000000,0.000000,0.000000,0.000000
1782117256.292959,1755709,0.911621,-0.019531,-0.408203,-0.304878,-1.036585,-0.548781,16.643751,-36.799999,2.275000,0.0,1.000000,0.000000,0.000000,0.000000
1782117256.302959,1755719,0.912109,-0.020020,-0.409668,-0.304878,-0.975610,-0.548781,16.531250,-36.993752,2.418750,0.0,1.000000,0.000000,0.000000,0.000000
1782117256.312959,1755729,0.913574,-0.020020,-0.409180,-0.304878,-0.914634,-0.548781,16.531250,-36.993752,2.418750,0.0,1.000000,0.000000,0.000000,0.000000
1782117256.323959,1755740,0.912598,-0.020508,-0.408691,-0.365854,-0.914634,-0.487805,16.737501,-36.643749,2.225000,0.0,1.000000,0.000000,0.000000,0.000000
1782117256.332959,1755749,0.913574,-0.020020,-0.409668,-0.365854,-0.975610,-0.365854,16.737501,-36.643749,2.225000,0.0,1.000000,0.000000,0.000000,0.000000
1782117256.342959,1755759,0.916016,-0.020508,-0.409668,-0.365854,-1.097561,-0.365854,16.550001,-36.962502,2.368750,0.0,1.000000,0.000000,0.000000,0.000000
1782117256.352959,1755769,0.914062,-0.020508,-0.407227,-0.243902,-0.914634,-0.243902,16.550001,-36.962502,2.368750,0.0,1.000000,0.000000,0.000000,0.000000
1782117256.362959,1755779,0.913574,-0.020508,-0.407715,-0.182927,-0.975610,-0.243902,16.550001,-37.006252,2.362500,0.0,1.000000,0.000000,0.000000,0.000000
1782117256.372959,1755789,0.913086,-0.019531,-0.407715,-0.060976,-0.914634,-0.243902,16.550001,-37.006252,2.362500,0.0,1.000000,0.000000,0.000000,0.000000
1782117256.382959,1755799,0.913086,-0.020508,-0.408691,-0.182927,-0.853659,-0.182927,16.606251,-36.987499,2.368750,0.0,1.000000,0.000000,0.000000,0.000000
1782117256.392959,1755809,0.913086,-0.020020,-0.408203,-0.243902,-0.792683,-0.182927,16.606251,-36.987499,2.368750,0.0,1.000000,0.000000,0.000000,0.000000
1782117256.402959,1755819,0.912109,-0.020508,-0.408203,-0.365854,-0.670732,-0.304878,16.612501,-36.912502,2.306250,0.0,1.000000,0.000000,0.000000,0.000000
1782117256.412959,1755829,0.910645,-0.019531,-0.408691,-0.365854,-0.670732,-0.304878,16.612501,-36.912502,2.306250,0.0,1.000000,0.000000,0.000000,0.000000
1782117256.422959,1755839,0.909668,-0.019043,-0.409668,-0.487805,-0.731707,-0.365854,16.575001,-37.000000,2.412500,0.0,1.000000,0.000000,0.000000,0.000000
1782117256.432959,1755849,0.910645,-0.017090,-0.412109,-0.609756,-0.853659,-0.304878,16.575001,-37.000000,2.412500,0.0,1.000000,0.000000,0.000000,0.000000
1782117256.443959,1755860,0.910156,-0.016602,-0.412598,-0.731707,-0.975610,-0.243902,16.550001,-37.031250,2.387500,0.0,1.000000,0.000000,0.000000,0.000000
1782117256.452959,1755869,0.910156,-0.017578,-0.412598,-0.670732,-1.036585,-0.243902,16.550001,-37.031250,2.387500,0.0,1.000000,0.000000,0.000000,0.000000
1782117256.462959,1755879,0.911133,-0.019043,-0.411133,-0.670732,-1.097561,-0.182927,16.587500,-37.000000,2.350000,0.0,1.000000,0.000000,0.000000,0.000000
1782117256.473959,1755890,0.912109,-0.020996,-0.411621,-0.792683,-1.036585,-0.243902,16.587500,-37.000000,2.350000,0.0,1.000000,0.000000,0.000000,0.000000
1782117256.483959,1755900,0.911133,-0.023438,-0.411133,-0.731707,-0.853659,-0.243902,16.556250,-37.012501,2.306250,0.0,1.000000,0.000000,0.000000,0.000000
1782117256.492959,1755909,0.909180,-0.024414,-0.411133,-0.609756,-0.853659,-0.304878,16.556250,-37.012501,2.306250,0.0,1.000000,0.000000,0.000000,0.000000
1782117256.502959,1755919,0.910645,-0.022949,-0.411133,-0.365854,-0.914634,-0.365854,16.562500,-36.975002,2.243750,0.0,1.000000,0.000000,0.000000,0.000000
1782117256.512959,1755929,0.912598,-0.024414,-0.410156,-0.121951,-0.853659,-0.487805,16.562500,-36.975002,2.243750,0.0,1.000000,0.000000,0.000000,0.000000
1782117256.522959,1755939,0.914551,-0.023438,-0.412109,0.182927,-0.731707,-0.548781,16.587500,-36.993752,2.287500,0.0,1.000000,0.000000,0.000000,0.000000
1782117256.532959,1755949,0.911621,-0.023438,-0.411621,0.426829,-0.609756,-0.548781,16.587500,-36.993752,2.287500,0.0,1.000000,0.000000,0.000000,0.000000
1782117256.542959,1755959,0.910645,-0.022461,-0.412598,0.548781,-0.670732,-0.609756,16.562500,-37.043751,2.287500,0.0,1.000000,0.000000,0.000000,0.000000
1782117256.552959,1755969,0.910645,-0.021484,-0.413086,0.426829,-0.792683,-0.548781,16.562500,-37.043751,2.287500,0.0,1.000000,0.000000,0.000000,0.000000
1782117256.562959,1755979,0.910645,-0.020996,-0.411133,0.304878,-0.792683,-0.487805,16.593750,-37.000000,2.293750,0.0,1.000000,0.000000,0.000000,0.000000
1782117256.572959,1755989,0.911621,-0.021484,-0.408203,0.243902,-0.853659,-0.487805,16.593750,-37.000000,2.293750,0.0,1.000000,0.000000,0.000000,0.000000
1782117256.582959,1755999,0.911621,-0.020996,-0.410645,0.121951,-0.670732,-0.426829,16.693750,-36.831249,2.181250,0.0,1.000000,0.000000,0.000000,0.000000
1782117256.592959,1756009,0.909668,-0.019043,-0.411621,-0.060976,-0.731707,-0.365854,16.693750,-36.831249,2.181250,0.0,1.000000,0.000000,0.000000,0.000000
1782117256.603959,1756020,0.910156,-0.016113,-0.411621,-0.060976,-0.914634,-0.426829,16.593750,-37.025002,2.293750,0.0,1.000000,0.000000,0.000000,0.000000
1782117256.612959,1756029,0.911133,-0.018555,-0.411621,-0.121951,-0.914634,-0.426829,16.593750,-37.025002,2.293750,0.0,1.000000,0.000000,0.000000,0.000000
1782117256.622959,1756039,0.910645,-0.019043,-0.411621,-0.243902,-0.914634,-0.365854,16.625000,-36.943752,2.287500,0.0,1.000000,0.000000,0.000000,0.000000
1782117256.632959,1756049,0.912109,-0.020508,-0.412109,-0.365854,-0.853659,-0.304878,16.625000,-36.943752,2.287500,0.0,1.000000,0.000000,0.000000,0.000000
1782117256.642959,1756059,0.912109,-0.020020,-0.412109,-0.426829,-0.670732,-0.365854,16.600000,-37.006252,2.287500,0.0,1.000000,0.000000,0.000000,0.000000
1782117256.652959,1756069,0.909180,-0.019043,-0.412598,-0.426829,-0.548781,-0.365854,16.600000,-37.006252,2.287500,0.0,1.000000,0.000000,0.000000,0.000000
1782117256.662959,1756079,0.906738,-0.019043,-0.414551,-0.365854,-0.731707,-0.426829,16.612501,-36.981251,2.287500,0.0,1.000000,0.000000,0.000000,0.000000
1782117256.672959,1756089,0.908203,-0.019043,-0.416016,-0.304878,-0.914634,-0.426829,16.612501,-36.981251,2.287500,0.0,1.000000,0.000000,0.000000,0.000000
1782117256.684959,1756101,0.909180,-0.019043,-0.417480,-0.121951,-0.914634,-0.426829,16.531250,-36.937500,2.218750,0.0,1.000000,0.000000,0.000000,0.000000
1782117256.693959,1756110,0.909668,-0.019531,-0.416504,-0.182927,-0.914634,-0.426829,16.531250,-36.937500,2.218750,0.0,1.000000,0.000000,0.000000,0.000000
1782117256.702959,1756119,0.910645,-0.019531,-0.414551,-0.304878,-1.036585,-0.365854,16.568750,-36.931252,2.206250,0.0,1.000000,0.000000,0.000000,0.000000
1782117256.713959,1756130,0.909180,-0.020020,-0.413574,-0.548781,-0.853659,-0.182927,16.568750,-36.931252,2.206250,0.0,1.000000,0.000000,0.000000,0.000000
1782117256.723959,1756140,0.908691,-0.020996,-0.415039,-0.609756,-0.975610,-0.304878,16.581251,-37.043751,2.193750,0.0,1.000000,0.000000,0.000000,0.000000
1782117256.732960,1756149,0.910645,-0.021484,-0.413086,-0.365854,-0.914634,-0.304878,16.581251,-37.043751,2.193750,0.0,1.000000,0.000000,0.000000,0.000000
1782117256.742959,1756159,0.912598,-0.022949,-0.412109,-0.182927,-0.914634,-0.243902,16.618750,-37.018749,2.225000,0.0,1.000000,0.000000,0.000000,0.000000
1782117256.752959,1756169,0.913574,-0.021484,-0.408691,-0.243902,-0.792683,-0.304878,16.618750,-37.018749,2.225000,0.0,1.000000,0.000000,0.000000,0.000000
1782117256.763959,1756180,0.912598,-0.019531,-0.410645,-0.304878,-0.487805,-0.365854,16.593750,-37.000000,2.187500,0.0,1.000000,0.000000,0.000000,0.000000
1782117256.772959,1756189,0.911133,-0.016602,-0.412109,-0.426829,-0.548781,-0.304878,16.593750,-37.000000,2.187500,0.0,1.000000,0.000000,0.000000,0.000000
1782117256.782959,1756199,0.909180,-0.016113,-0.413086,-0.548781,-0.609756,-0.365854,16.681250,-36.837502,2.143750,0.0,1.000000,0.000000,0.000000,0.000000
1782117256.792959,1756209,0.909668,-0.018066,-0.414062,-0.487805,-0.670732,-0.365854,16.681250,-36.837502,2.143750,0.0,1.000000,0.000000,0.000000,0.000000
1782117256.803959,1756220,0.910156,-0.021973,-0.414062,-0.304878,-0.792683,-0.365854,16.612501,-36.981251,2.212500,0.0,1.000000,0.000000,0.000000,0.000000
1782117256.814960,1756231,0.909668,-0.021484,-0.414551,-0.182927,-0.914634,-0.365854,16.612501,-36.981251,2.212500,0.0,1.000000,0.000000,0.000000,0.000000
1782117256.823959,1756240,0.908691,-0.022949,-0.414551,-0.121951,-0.914634,-0.426829,16.693750,-36.912502,2.156250,0.0,1.000000,0.000000,0.000000,0.000000
1782117256.833959,1756250,0.910156,-0.023926,-0.412598,-0.121951,-0.914634,-0.487805,16.693750,-36.912502,2.156250,0.0,1.000000,0.000000,0.000000,0.000000
1782117256.843959,1756260,0.911133,-0.024902,-0.412109,-0.243902,-0.914634,-0.487805,16.650000,-36.975002,2.175000,0.0,1.000000,0.000000,0.000000,0.000000
1782117256.852959,1756269,0.913086,-0.024414,-0.411621,-0.182927,-0.853659,-0.609756,16.650000,-36.975002,2.175000,0.0,1.000000,0.000000,0.000000,0.000000
1782117256.862959,1756279,0.913574,-0.023438,-0.413086,0.182927,-0.853659,-0.609756,16.668751,-36.906250,2.062500,0.0,1.000000,0.000000,0.000000,0.000000
1782117256.872959,1756289,0.913574,-0.023438,-0.413086,0.365854,-0.670732,-0.609756,16.668751,-36.906250,2.062500,0.0,1.000000,0.000000,0.000000,0.000000
1782117256.884959,1756301,0.912598,-0.020996,-0.414062,0.365854,-0.609756,-0.609756,16.662500,-36.962502,2.156250,0.0,1.000000,0.000000,0.000000,0.000000
1782117256.892959,1756309,0.912109,-0.018066,-0.414062,0.365854,-0.670732,-0.487805,16.662500,-36.962502,2.156250,0.0,1.000000,0.000000,0.000000,0.000000
1782117256.902959,1756319,0.910156,-0.018555,-0.412598,0.304878,-0.609756,-0.426829,16.643751,-36.962502,2.143750,0.0,1.000000,0.000000,0.000000,0.000000
1782117256.912959,1756329,0.907715,-0.017090,-0.413574,0.060976,-0.487805,-0.365854,16.643751,-36.962502,2.143750,0.0,1.000000,0.000000,0.000000,0.000000
1782117256.923959,1756340,0.907715,-0.017578,-0.415039,-0.182927,-0.548781,-0.365854,16.606251,-37.037502,2.175000,0.0,1.000000,0.000000,0.000000,0.000000
1782117256.932959,1756349,0.907715,-0.018066,-0.416016,-0.365854,-0.548781,-0.426829,16.606251,-37.037502,2.175000,0.0,1.000000,0.000000,0.000000,0.000000
1782117256.942959,1756359,0.906250,-0.019043,-0.416016,-0.487805,-0.731707,-0.365854,16.587500,-36.993752,2.150000,0.0,1.000000,0.000000,0.000000,0.000000
1782117256.952959,1756369,0.907227,-0.021484,-0.415039,-0.487805,-0.731707,-0.426829,16.587500,-36.993752,2.150000,0.0,1.000000,0.000000,0.000000,0.000000
1782117256.964959,1756381,0.910156,-0.023438,-0.416992,-0.365854,-0.731707,-0.426829,16.618750,-37.062500,2.093750,0.0,1.000000,0.000000,0.000000,0.000000
1782117256.972960,1756389,0.910156,-0.020508,-0.416016,-0.182927,-0.609756,-0.426829,16.618750,-37.062500,2.093750,0.0,1.000000,0.000000,0.000000,0.000000
1782117256.982960,1756399,0.908691,-0.020996,-0.416016,-0.121951,-0.548781,-0.426829,16.650000,-36.950001,2.081250,0.0,1.000000,0.000000,0.000000,0.000000
1782117256.992959,1756409,0.905762,-0.019531,-0.417480,0.060976,-0.487805,-0.609756,16.650000,-36.950001,2.081250,0.0,1.000000,0.000000,0.000000,0.000000
1782117257.003959,1756420,0.904785,-0.018555,-0.418457,0.060976,-0.609756,-0.548781,16.706251,-36.924999,2.081250,0.0,1.000000,0.000000,0.000000,0.000000
1782117257.013959,1756430,0.906738,-0.018066,-0.418945,0.000000,-0.731707,-0.548781,16.706251,-36.924999,2.081250,0.0,1.000000,0.000000,0.000000,0.000000
1782117257.022959,1756439,0.908691,-0.019531,-0.419434,0.121951,-0.792683,-0.609756,16.643751,-36.968750,2.087500,0.0,1.000000,0.000000,0.000000,0.000000
1782117257.032959,1756449,0.910645,-0.021484,-0.418457,0.121951,-0.914634,-0.548781,16.643751,-36.968750,2.087500,0.0,1.000000,0.000000,0.000000,0.000000
1782117257.043959,1756460,0.911133,-0.020996,-0.418457,0.182927,-0.792683,-0.548781,16.681250,-36.981251,2.137500,0.0,1.000000,0.000000,0.000000,0.000000
1782117257.052959,1756469,0.911621,-0.020020,-0.416016,0.243902,-0.670732,-0.487805,16.681250,-36.981251,2.137500,0.0,1.000000,0.000000,0.000000,0.000000
1782117257.062959,1756479,0.911621,-0.020508,-0.413574,0.243902,-0.487805,-0.548781,16.812500,-36.693752,1.893750,0.0,1.000000,0.000000,0.000000,0.000000
1782117257.072959,1756489,0.910156,-0.019531,-0.413086,0.182927,-0.304878,-0.548781,16.812500,-36.693752,1.893750,0.0,1.000000,0.000000,0.000000,0.000000
1782117257.084960,1756501,0.909180,-0.017578,-0.411621,-0.060976,-0.182927,-0.609756,16.643751,-37.006252,2.137500,0.0,1.000000,0.000000,0.000000,0.000000
1782117257.092959,1756509,0.909180,-0.017578,-0.411621,-0.060976,-0.182927,-0.609756,16.643751,-37.006252,2.137500,0.0,1.000000,0.000000,0.000000,0.000000
1782117257.102959,1756519,0.908691,-0.017090,-0.415527,-0.182927,-0.182927,-0.609756,16.693750,-36.975002,2.100000,0.0,1.000000,0.000000,0.000000,0.000000
1782117257.112959,1756529,0.908691,-0.015625,-0.416504,-0.304878,-0.304878,-0.487805,16.693750,-36.975002,2.100000,0.0,1.000000,0.000000,0.000000,0.000000
1782117257.126959,1756543,0.906738,-0.016602,-0.419434,-0.426829,-0.670732,-0.304878,16.643751,-37.006252,2.087500,0.0,1.000000,0.000000,0.000000,0.000000
1782117257.132959,1756549,0.906738,-0.016602,-0.419434,-0.426829,-0.670732,-0.304878,16.643751,-37.006252,2.087500,0.0,1.000000,0.000000,0.000000,0.000000
1782117257.142959,1756559,0.909180,-0.019043,-0.419922,-0.487805,-0.609756,-0.304878,16.700001,-36.962502,2.006250,0.0,1.000000,0.000000,0.000000,0.000000
1782117257.152959,1756569,0.908203,-0.020508,-0.418457,-0.487805,-0.548781,-0.243902,16.700001,-36.962502,2.006250,0.0,1.000000,0.000000,0.000000,0.000000
1782117257.165959,1756582,0.910156,-0.022949,-0.414062,-0.487805,-0.426829,-0.365854,16.643751,-37.049999,2.187500,0.0,1.000000,0.000000,0.000000,0.000000
1782117257.172959,1756589,0.910156,-0.022949,-0.414062,-0.487805,-0.426829,-0.365854,16.643751,-37.049999,2.187500,0.0,1.000000,0.000000,0.000000,0.000000
1782117257.182959,1756599,0.910156,-0.021973,-0.414551,-0.426829,-0.243902,-0.426829,16.650000,-36.968750,2.043750,0.0,1.000000,0.000000,0.000000,0.000000
1782117257.192959,1756609,0.908203,-0.020996,-0.415039,-0.426829,-0.182927,-0.487805,16.650000,-36.968750,2.043750,0.0,1.000000,0.000000,0.000000,0.000000
1782117257.207959,1756624,0.908203,-0.020020,-0.416504,-0.304878,-0.304878,-0.487805,16.687500,-37.043751,2.150000,0.0,1.000000,0.000000,0.000000,0.000000
1782117257.212959,1756629,0.908203,-0.019531,-0.417969,-0.182927,-0.304878,-0.548781,16.687500,-37.043751,2.150000,0.0,1.000000,0.000000,0.000000,0.000000
1782117257.223959,1756640,0.908203,-0.016602,-0.419434,-0.060976,-0.304878,-0.487805,16.712500,-36.968750,2.031250,0.0,1.000000,0.000000,0.000000,0.000000
1782117257.232960,1756649,0.908203,-0.016113,-0.419922,-0.243902,-0.487805,-0.426829,16.712500,-36.968750,2.031250,0.0,1.000000,0.000000,0.000000,0.000000
1782117257.245960,1756662,0.912109,-0.019043,-0.415527,-0.365854,-0.548781,-0.304878,16.643751,-37.006252,2.118750,0.0,1.000000,0.000000,0.000000,0.000000
1782117257.252959,1756669,0.912109,-0.019043,-0.415527,-0.365854,-0.548781,-0.304878,16.643751,-37.006252,2.118750,0.0,1.000000,0.000000,0.000000,0.000000
1782117257.263959,1756680,0.910645,-0.020996,-0.414551,-0.487805,-0.304878,-0.243902,16.718750,-36.931252,2.075000,0.0,1.000000,0.000000,0.000000,0.000000
1782117257.272959,1756689,0.910645,-0.019043,-0.414551,-0.548781,-0.304878,-0.243902,16.718750,-36.931252,2.075000,0.0,1.000000,0.000000,0.000000,0.000000
1782117257.284959,1756701,0.910645,-0.018555,-0.413574,-0.548781,-0.243902,-0.365854,16.656250,-36.987499,2.100000,0.0,1.000000,0.000000,0.000000,0.000000
1782117257.292959,1756709,0.909668,-0.020020,-0.412598,-0.548781,-0.243902,-0.365854,16.656250,-36.987499,2.100000,0.0,1.000000,0.000000,0.000000,0.000000
1782117257.302959,1756719,0.911621,-0.020508,-0.416016,-0.426829,-0.121951,-0.426829,16.637501,-36.981251,2.087500,0.0,1.000000,0.000000,0.000000,0.000000
1782117257.312959,1756729,0.910645,-0.017578,-0.416992,-0.365854,-0.060976,-0.426829,16.637501,-36.981251,2.087500,0.0,1.000000,0.000000,0.000000,0.000000
1782117257.324960,1756741,0.908691,-0.018066,-0.416992,-0.304878,-0.121951,-0.426829,16.656250,-37.006252,2.062500,0.0,1.000000,0.000000,0.000000,0.000000
1782117257.332959,1756749,0.907227,-0.018555,-0.416992,-0.304878,-0.060976,-0.365854,16.656250,-37.006252,2.062500,0.0,1.000000,0.000000,0.000000,0.000000
1782117257.342959,1756759,0.906250,-0.019531,-0.416992,-0.243902,-0.182927,-0.365854,16.656250,-37.018749,2.075000,0.0,1.000000,0.000000,0.000000,0.000000
1782117257.352959,1756769,0.907227,-0.019043,-0.416504,-0.121951,-0.243902,-0.304878,16.656250,-37.018749,2.075000,0.0,1.000000,0.000000,0.000000,0.000000
1782117257.362959,1756779,0.908203,-0.019043,-0.415527,-0.304878,-0.243902,-0.304878,16.612501,-37.106251,2.150000,0.0,1.000000,0.000000,0.000000,0.000000
1782117257.372959,1756789,0.908691,-0.019043,-0.415527,-0.426829,-0.304878,-0.304878,16.612501,-37.106251,2.150000,0.0,1.000000,0.000000,0.000000,0.000000
1782117257.383959,1756800,0.910156,-0.018555,-0.416504,-0.609756,-0.304878,-0.304878,16.643751,-37.000000,2.081250,0.0,1.000000,0.000000,0.000000,0.000000
1782117257.392959,1756809,0.910645,-0.017578,-0.417480,-0.609756,-0.182927,-0.304878,16.643751,-37.000000,2.081250,0.0,1.000000,0.000000,0.000000,0.000000
1782117257.405959,1756822,0.909180,-0.018066,-0.418457,-0.548781,-0.060976,-0.426829,16.631250,-37.043751,2.118750,0.0,1.000000,0.000000,0.000000,0.000000
1782117257.412959,1756829,0.909668,-0.018066,-0.418457,-0.426829,0.000000,-0.426829,16.631250,-37.043751,2.118750,0.0,1.000000,0.000000,0.000000,0.000000
1782117257.422959,1756839,0.907227,-0.018555,-0.418945,-0.243902,-0.060976,-0.487805,16.737501,-36.862499,2.025000,0.0,1.000000,0.000000,0.000000,0.000000
1782117257.432959,1756849,0.905762,-0.018555,-0.418945,-0.243902,-0.182927,-0.365854,16.737501,-36.862499,2.025000,0.0,1.000000,0.000000,0.000000,0.000000
1782117257.442959,1756859,0.905273,-0.017090,-0.419922,-0.365854,-0.365854,-0.304878,16.693750,-36.950001,2.050000,0.0,1.000000,0.000000,0.000000,0.000000
1782117257.452959,1756869,0.907715,-0.018066,-0.417480,-0.304878,-0.365854,-0.304878,16.693750,-36.950001,2.050000,0.0,1.000000,0.000000,0.000000,0.000000
1782117257.463959,1756880,0.909180,-0.017578,-0.415039,-0.304878,-0.243902,-0.304878,16.693750,-36.943752,2.075000,0.0,1.000000,0.000000,0.000000,0.000000
1782117257.472960,1756889,0.910645,-0.019043,-0.414551,-0.304878,-0.121951,-0.365854,16.693750,-36.943752,2.075000,0.0,1.000000,0.000000,0.000000,0.000000
1782117257.484959,1756901,0.911133,-0.019531,-0.414551,-0.182927,-0.060976,-0.426829,16.650000,-36.950001,2.081250,0.0,1.000000,0.000000,0.000000,0.000000
1782117257.492959,1756909,0.911133,-0.020996,-0.414062,-0.060976,0.000000,-0.426829,16.650000,-36.950001,2.081250,0.0,1.000000,0.000000,0.000000,0.000000
1782117257.502959,1756919,0.910645,-0.020996,-0.414062,0.000000,0.121951,-0.487805,16.681250,-36.924999,2.068750,0.0,1.000000,0.000000,0.000000,0.000000
1782117257.512959,1756929,0.909180,-0.019531,-0.414551,0.000000,0.121951,-0.426829,16.681250,-36.924999,2.068750,0.0,1.000000,0.000000,0.000000,0.000000
1782117257.524959,1756941,0.910156,-0.018555,-0.416016,-0.182927,0.000000,-0.426829,16.625000,-37.006252,2.150000,0.0,1.000000,0.000000,0.000000,0.000000
1782117257.532959,1756949,0.909180,-0.016602,-0.416504,-0.304878,-0.060976,-0.304878,16.625000,-37.006252,2.150000,0.0,1.000000,0.000000,0.000000,0.000000
1782117257.542959,1756959,0.909668,-0.014160,-0.415527,-0.487805,-0.121951,-0.243902,16.718750,-36.968750,2.087500,0.0,1.000000,0.000000,0.000000,0.000000
1782117257.553959,1756970,0.909668,-0.015137,-0.416504,-0.609756,-0.121951,-0.182927,16.662500,-36.993752,2.087500,0.0,1.000000,0.000000,0.000000,0.000000
1782117257.562959,1756979,0.909668,-0.013672,-0.416992,-0.731707,-0.060976,-0.121951,16.662500,-36.993752,2.087500,0.0,1.000000,0.000000,0.000000,0.000000
1782117257.572959,1756989,0.909668,-0.016602,-0.415039,-0.792683,0.000000,-0.182927,16.662500,-36.993752,2.087500,0.0,1.000000,0.000000,0.000000,0.000000
1782117257.582959,1756999,0.909668,-0.018066,-0.416016,-0.792683,0.000000,-0.243902,16.675001,-36.906250,2.062500,0.0,1.000000,0.000000,0.000000,0.000000
1782117257.592959,1757009,0.909668,-0.020508,-0.416992,-0.670732,0.060976,-0.243902,16.675001,-36.906250,2.062500,0.0,1.000000,0.000000,0.000000,0.000000
1782117257.606959,1757023,0.909180,-0.021484,-0.415527,-0.548781,0.243902,-0.304878,16.662500,-36.987499,2.100000,0.0,1.000000,0.000000,0.000000,0.000000
1782117257.613959,1757030,0.909668,-0.021484,-0.416992,-0.304878,0.243902,-0.304878,16.618750,-36.937500,2.156250,0.0,1.000000,0.000000,0.000000,0.000000
1782117257.622959,1757039,0.909180,-0.021484,-0.417969,-0.182927,0.304878,-0.304878,16.618750,-36.937500,2.156250,0.0,1.000000,0.000000,0.000000,0.000000
1782117257.633959,1757050,0.907227,-0.019531,-0.417969,0.000000,0.243902,-0.304878,16.637501,-37.012501,2.112500,0.0,1.000000,0.000000,0.000000,0.000000
1782117257.645959,1757062,0.906738,-0.018066,-0.417480,0.121951,0.121951,-0.304878,16.637501,-37.012501,2.112500,0.0,1.000000,0.000000,0.000000,0.000000
1782117257.653960,1757070,0.907227,-0.016602,-0.416992,-0.060976,0.060976,-0.243902,16.668751,-37.000000,2.125000,0.0,1.000000,0.000000,0.000000,0.000000
1782117257.662959,1757079,0.909180,-0.015137,-0.416016,-0.182927,0.000000,-0.243902,16.668751,-37.000000,2.125000,0.0,1.000000,0.000000,0.000000,0.000000
1782117257.672959,1757089,0.910645,-0.014648,-0.413574,-0.426829,0.060976,-0.304878,16.693750,-36.875000,2.037500,0.0,1.000000,0.000000,0.000000,0.000000
1782117257.682959,1757099,0.909668,-0.017090,-0.415527,-0.487805,0.121951,-0.365854,16.693750,-36.875000,2.037500,0.0,1.000000,0.000000,0.000000,0.000000
1782117257.693959,1757110,0.908691,-0.016602,-0.415039,-0.304878,0.121951,-0.304878,16.643751,-36.918751,2.062500,0.0,1.000000,0.000000,0.000000,0.000000
1782117257.702959,1757119,0.910645,-0.017578,-0.414551,-0.121951,0.121951,-0.426829,16.643751,-36.918751,2.062500,0.0,1.000000,0.000000,0.000000,0.000000
1782117257.712959,1757129,0.909668,-0.019531,-0.415039,-0.121951,0.121951,-0.426829,16.637501,-37.062500,2.200000,0.0,1.000000,0.000000,0.000000,0.000000
1782117257.723959,1757140,0.910645,-0.020020,-0.414062,-0.060976,0.060976,-0.365854,16.637501,-37.062500,2.200000,0.0,1.000000,0.000000,0.000000,0.000000
1782117257.733959,1757150,0.911621,-0.019531,-0.413086,-0.121951,0.121951,-0.365854,16.675001,-36.962502,2.175000,0.0,1.000000,0.000000,0.000000,0.000000
1782117257.742959,1757159,0.911133,-0.020996,-0.413086,-0.182927,0.182927,-0.304878,16.675001,-36.962502,2.175000,0.0,1.000000,0.000000,0.000000,0.000000
1782117257.752959,1757169,0.910645,-0.019043,-0.414062,-0.182927,0.243902,-0.304878,16.681250,-36.931252,2.150000,0.0,1.000000,0.000000,0.000000,0.000000
1782117257.762959,1757179,0.910645,-0.017578,-0.415039,-0.243902,0.243902,-0.243902,16.681250,-36.931252,2.150000,0.0,1.000000,0.000000,0.000000,0.000000
1782117257.773959,1757190,0.911133,-0.017578,-0.415527,-0.182927,0.243902,-0.243902,16.668751,-36.900002,2.156250,0.0,1.000000,0.000000,0.000000,0.000000
1782117257.782959,1757199,0.909668,-0.017578,-0.414551,-0.121951,0.304878,-0.182927,16.668751,-36.900002,2.156250,0.0,1.000000,0.000000,0.000000,0.000000
1782117257.792959,1757209,0.909180,-0.016113,-0.414551,-0.182927,0.243902,-0.182927,16.668751,-36.881252,2.106250,0.0,1.000000,0.000000,0.000000,0.000000
1782117257.802959,1757219,0.910156,-0.016113,-0.413574,-0.304878,0.304878,-0.243902,16.668751,-36.881252,2.106250,0.0,1.000000,0.000000,0.000000,0.000000
1782117257.813959,1757230,0.909180,-0.016602,-0.414551,-0.365854,0.365854,-0.243902,16.675001,-36.893749,2.225000,0.0,1.000000,0.000000,0.000000,0.000000
1782117257.823959,1757240,0.908203,-0.016113,-0.416504,-0.426829,0.304878,-0.182927,16.675001,-36.893749,2.225000,0.0,1.000000,0.000000,0.000000,0.000000
1782117257.833959,1757250,0.908691,-0.017578,-0.415039,-0.426829,0.243902,-0.182927,16.625000,-36.987499,2.187500,0.0,1.000000,0.000000,0.000000,0.000000
1782117257.843959,1757260,0.908691,-0.017090,-0.416016,-0.304878,0.121951,-0.121951,16.625000,-36.987499,2.187500,0.0,1.000000,0.000000,0.000000,0.000000
1782117257.852959,1757269,0.910645,-0.019043,-0.414551,-0.243902,0.182927,-0.121951,16.887501,-36.537502,1.981250,0.0,1.000000,0.000000,0.000000,0.000000
1782117257.862959,1757279,0.910645,-0.019531,-0.413574,-0.243902,0.182927,-0.182927,16.887501,-36.537502,1.981250,0.0,1.000000,0.000000,0.000000,0.000000
1782117257.872959,1757289,0.910645,-0.019043,-0.414062,-0.304878,0.365854,-0.182927,16.637501,-36.981251,2.300000,0.0,1.000000,0.000000,0.000000,0.000000
1782117257.882959,1757299,0.910156,-0.018555,-0.412109,-0.304878,0.304878,-0.182927,16.637501,-36.981251,2.300000,0.0,1.000000,0.000000,0.000000,0.000000
1782117257.892959,1757309,0.910156,-0.016602,-0.411621,-0.365854,0.304878,-0.182927,16.675001,-36.893749,2.150000,0.0,1.000000,0.000000,0.000000,0.000000
1782117257.902959,1757319,0.910156,-0.018066,-0.413574,-0.304878,0.243902,-0.182927,16.675001,-36.893749,2.150000,0.0,1.000000,0.000000,0.000000,0.000000
1782117257.912959,1757329,0.911133,-0.020020,-0.414062,-0.182927,0.182927,-0.243902,16.600000,-36.950001,2.200000,0.0,1.000000,0.000000,0.000000,0.000000
1782117257.922959,1757339,0.911621,-0.020996,-0.412598,0.000000,0.243902,-0.182927,16.600000,-36.950001,2.200000,0.0,1.000000,0.000000,0.000000,0.000000
1782117257.932959,1757349,0.912109,-0.020996,-0.414062,0.121951,0.182927,-0.121951,16.737501,-36.787502,2.125000,0.0,1.000000,0.000000,0.000000,0.000000
1782117257.942959,1757359,0.911133,-0.020020,-0.412109,0.060976,0.243902,-0.060976,16.737501,-36.787502,2.125000,0.0,1.000000,0.000000,0.000000,0.000000
1782117257.952959,1757369,0.910645,-0.019043,-0.409180,-0.121951,0.243902,-0.060976,16.737501,-36.775002,2.125000,0.0,1.000000,0.000000,0.000000,0.000000
1782117257.962959,1757379,0.910645,-0.017090,-0.410156,-0.243902,0.304878,-0.121951,16.737501,-36.775002,2.125000,0.0,1.000000,0.000000,0.000000,0.000000
1782117257.972960,1757389,0.910645,-0.017090,-0.409668,-0.426829,0.304878,-0.121951,16.681250,-36.887501,2.187500,0.0,1.000000,0.000000,0.000000,0.000000
1782117257.982960,1757399,0.912598,-0.017578,-0.410645,-0.426829,0.243902,-0.243902,16.681250,-36.887501,2.187500,0.0,1.000000,0.000000,0.000000,0.000000
1782117257.992959,1757409,0.911133,-0.018555,-0.411621,-0.426829,0.243902,-0.243902,16.668751,-36.887501,2.175000,0.0,1.000000,0.000000,0.000000,0.000000
1782117258.002959,1757419,0.911621,-0.018555,-0.412598,-0.365854,0.182927,-0.243902,16.668751,-36.887501,2.175000,0.0,1.000000,0.000000,0.000000,0.000000
1782117258.012959,1757429,0.912598,-0.019531,-0.413574,-0.304878,0.182927,-0.243902,16.662500,-36.868752,2.212500,0.0,1.000000,0.000000,0.000000,0.000000
1782117258.023959,1757440,0.909668,-0.019531,-0.412598,-0.304878,0.304878,-0.121951,16.662500,-36.868752,2.212500,0.0,1.000000,0.000000,0.000000,0.000000
1782117258.032959,1757449,0.910156,-0.019043,-0.410645,-0.365854,0.304878,-0.121951,16.618750,-36.937500,2.306250,0.0,1.000000,0.000000,0.000000,0.000000
1782117258.043959,1757460,0.909668,-0.019531,-0.410645,-0.426829,0.243902,-0.182927,16.618750,-36.937500,2.306250,0.0,1.000000,0.000000,0.000000,0.000000
1782117258.052959,1757469,0.908691,-0.020508,-0.411621,-0.426829,0.243902,-0.060976,16.612501,-36.881252,2.225000,0.0,1.000000,0.000000,0.000000,0.000000
1782117258.063959,1757480,0.910156,-0.021484,-0.411133,-0.365854,0.121951,-0.060976,16.612501,-36.881252,2.225000,0.0,1.000000,0.000000,0.000000,0.000000
1782117258.072959,1757489,0.911621,-0.020996,-0.412109,-0.426829,0.121951,-0.060976,16.593750,-36.956249,2.331250,0.0,1.000000,0.000000,0.000000,0.000000
1782117258.082959,1757499,0.911133,-0.020508,-0.413086,-0.365854,0.121951,-0.121951,16.593750,-36.956249,2.331250,0.0,1.000000,0.000000,0.000000,0.000000
1782117258.092959,1757509,0.911621,-0.019531,-0.413574,-0.182927,0.121951,-0.121951,16.656250,-36.881252,2.300000,0.0,1.000000,0.000000,0.000000,0.000000
1782117258.102959,1757519,0.913086,-0.019531,-0.412109,0.000000,0.182927,-0.121951,16.656250,-36.881252,2.300000,0.0,1.000000,0.000000,0.000000,0.000000
1782117258.112959,1757529,0.912598,-0.017578,-0.409180,-0.060976,0.304878,-0.182927,16.612501,-36.900002,2.306250,0.0,1.000000,0.000000,0.000000,0.000000
1782117258.122959,1757539,0.912109,-0.017578,-0.408203,-0.182927,0.304878,-0.182927,16.612501,-36.900002,2.306250,0.0,1.000000,0.000000,0.000000,0.000000
1782117258.132959,1757549,0.911133,-0.015625,-0.408203,-0.365854,0.365854,-0.182927,16.668751,-36.850002,2.262500,0.0,1.000000,0.000000,0.000000,0.000000
1782117258.144959,1757561,0.911133,-0.016113,-0.411133,-0.548781,0.304878,-0.243902,16.668751,-36.850002,2.262500,0.0,1.000000,0.000000,0.000000,0.000000
1782117258.152959,1757569,0.909668,-0.017578,-0.412598,-0.670732,0.182927,-0.182927,16.568750,-37.000000,2.337500,0.0,1.000000,0.000000,0.000000,0.000000
1782117258.163960,1757580,0.909180,-0.018555,-0.413574,-0.670732,0.060976,-0.060976,16.568750,-37.000000,2.337500,0.0,1.000000,0.000000,0.000000,0.000000
1782117258.174959,1757591,0.911133,-0.020996,-0.412109,-0.609756,-0.182927,-0.060976,16.662500,-36.931252,2.343750,0.0,1.000000,0.000000,0.000000,0.000000
1782117258.182959,1757599,0.911133,-0.020996,-0.412109,-0.609756,-0.182927,-0.060976,16.662500,-36.931252,2.343750,0.0,1.000000,0.000000,0.000000,0.000000
1782117258.193959,1757610,0.912598,-0.021484,-0.407227,-0.609756,0.121951,-0.121951,16.662500,-36.937500,2.306250,0.0,1.000000,0.000000,0.000000,0.000000
1782117258.202959,1757619,0.912598,-0.021484,-0.407227,-0.609756,0.121951,-0.121951,16.662500,-36.937500,2.306250,0.0,1.000000,0.000000,0.000000,0.000000
1782117258.213959,1757630,0.911133,-0.020020,-0.407715,-0.731707,0.060976,-0.121951,16.606251,-36.962502,2.325000,0.0,1.000000,0.000000,0.000000,0.000000
1782117258.223959,1757640,0.910645,-0.016113,-0.411621,-1.097561,-0.243902,-0.121951,16.606251,-36.962502,2.325000,0.0,1.000000,0.000000,0.000000,0.000000
1782117258.232960,1757649,0.913574,-0.016113,-0.411133,-0.914634,-0.243902,-0.304878,16.568750,-36.968750,2.362500,0.0,1.000000,0.000000,0.000000,0.000000
1782117258.243959,1757660,0.915527,-0.020508,-0.409180,-0.853659,0.060976,-0.182927,16.568750,-36.968750,2.362500,0.0,1.000000,0.000000,0.000000,0.000000
1782117258.253959,1757670,0.914551,-0.020996,-0.411133,-0.975610,0.182927,-0.060976,16.643751,-36.825001,2.293750,0.0,1.000000,0.000000,0.000000,0.000000
1782117258.262959,1757679,0.913086,-0.022949,-0.411133,-0.853659,0.182927,0.060976,16.643751,-36.825001,2.293750,0.0,1.000000,0.000000,0.000000,0.000000
1782117258.272959,1757689,0.911621,-0.022949,-0.410645,-0.731707,0.121951,0.121951,16.537500,-36.950001,2.425000,0.0,1.000000,0.000000,0.000000,0.000000
1782117258.282959,1757699,0.911621,-0.023438,-0.408203,-0.670732,0.121951,0.121951,16.537500,-36.950001,2.425000,0.0,1.000000,0.000000,0.000000,0.000000
1782117258.292959,1757709,0.911621,-0.023438,-0.408691,-0.609756,0.121951,0.000000,16.575001,-36.931252,2.343750,0.0,1.000000,0.000000,0.000000,0.000000
1782117258.302959,1757719,0.913086,-0.022461,-0.407227,-0.670732,0.121951,-0.060976,16.575001,-36.931252,2.343750,0.0,1.000000,0.000000,0.000000,0.000000
1782117258.312959,1757729,0.912598,-0.020020,-0.408691,-0.731707,0.243902,-0.060976,16.568750,-36.918751,2.406250,0.0,1.000000,0.000000,0.000000,0.000000
1782117258.322959,1757739,0.911621,-0.018066,-0.408691,-0.731707,0.243902,-0.121951,16.568750,-36.918751,2.406250,0.0,1.000000,0.000000,0.000000,0.000000
1782117258.332959,1757749,0.911621,-0.019043,-0.408691,-0.792683,0.243902,-0.121951,16.593750,-36.906250,2.375000,0.0,1.000000,0.000000,0.000000,0.000000
1782117258.343959,1757760,0.910645,-0.018066,-0.409668,-0.731707,0.304878,-0.243902,16.593750,-36.906250,2.375000,0.0,1.000000,0.000000,0.000000,0.000000
1782117258.352959,1757769,0.909668,-0.018555,-0.410645,-0.731707,0.243902,-0.243902,16.562500,-36.987499,2.400000,0.0,1.000000,0.000000,0.000000,0.000000
1782117258.362959,1757779,0.909668,-0.020996,-0.411621,-0.609756,0.060976,-0.243902,16.562500,-36.987499,2.400000,0.0,1.000000,0.000000,0.000000,0.000000
1782117258.372959,1757789,0.911621,-0.021484,-0.411133,-0.487805,-0.121951,-0.121951,16.543751,-36.950001,2.443750,0.0,1.000000,0.000000,0.000000,0.000000
1782117258.382959,1757799,0.911621,-0.021973,-0.409668,-0.365854,-0.243902,-0.182927,16.543751,-36.950001,2.443750,0.0,1.000000,0.000000,0.000000,0.000000
1782117258.392959,1757809,0.914551,-0.023926,-0.407715,-0.304878,-0.182927,-0.121951,16.568750,-36.993752,2.437500,0.0,1.000000,0.000000,0.000000,0.000000
1782117258.403960,1757820,0.916016,-0.022461,-0.407715,-0.182927,0.000000,-0.243902,16.568750,-36.993752,2.437500,0.0,1.000000,0.000000,0.000000,0.000000
1782117258.413960,1757830,0.914062,-0.022461,-0.405762,-0.182927,0.243902,-0.365854,16.550001,-36.981251,2.437500,0.0,1.000000,0.000000,0.000000,0.000000
1782117258.422959,1757839,0.914062,-0.020020,-0.405762,-0.243902,0.304878,-0.365854,16.550001,-36.981251,2.437500,0.0,1.000000,0.000000,0.000000,0.000000
1782117258.433959,1757850,0.912109,-0.019531,-0.406250,-0.182927,0.304878,-0.426829,16.525000,-36.968750,2.406250,0.0,1.000000,0.000000,0.000000,0.000000
1782117258.443959,1757860,0.911133,-0.017090,-0.407227,-0.243902,0.243902,-0.426829,16.525000,-36.968750,2.406250,0.0,1.000000,0.000000,0.000000,0.000000
1782117258.452959,1757869,0.911133,-0.018066,-0.408203,-0.243902,0.121951,-0.426829,16.550001,-37.006252,2.481250,0.0,1.000000,0.000000,0.000000,0.000000
1782117258.462959,1757879,0.913086,-0.017090,-0.408203,-0.304878,0.000000,-0.365854,16.550001,-37.006252,2.481250,0.0,1.000000,0.000000,0.000000,0.000000
1782117258.472960,1757889,0.912598,-0.017578,-0.408691,-0.365854,0.000000,-0.304878,16.593750,-36.906250,2.462500,0.0,1.000000,0.000000,0.000000,0.000000
1782117258.483959,1757900,0.914062,-0.017090,-0.407715,-0.365854,0.000000,-0.304878,16.593750,-36.906250,2.462500,0.0,1.000000,0.000000,0.000000,0.000000
1782117258.492959,1757909,0.912598,-0.018555,-0.408203,-0.426829,0.000000,-0.243902,16.643751,-36.775002,2.306250,0.0,1.000000,0.000000,0.000000,0.000000
1782117258.502959,1757919,0.912109,-0.019531,-0.408203,-0.548781,-0.060976,-0.243902,16.643751,-36.775002,2.306250,0.0,1.000000,0.000000,0.000000,0.000000
1782117258.512959,1757929,0.911621,-0.020508,-0.406250,-0.609756,-0.121951,-0.304878,16.525000,-37.018749,2.481250,0.0,1.000000,0.000000,0.000000,0.000000
1782117258.522959,1757939,0.912598,-0.020020,-0.406738,-0.609756,-0.121951,-0.304878,16.525000,-37.018749,2.481250,0.0,1.000000,0.000000,0.000000,0.000000
1782117258.532959,1757949,0.913086,-0.019531,-0.407715,-0.609756,-0.121951,-0.365854,16.562500,-36.993752,2.462500,0.0,1.000000,0.000000,0.000000,0.000000
1782117258.542959,1757959,0.913086,-0.018555,-0.408691,-0.609756,-0.060976,-0.365854,16.562500,-36.993752,2.462500,0.0,1.000000,0.000000,0.000000,0.000000
1782117258.552959,1757969,0.912598,-0.019531,-0.407715,-0.426829,-0.060976,-0.365854,16.562500,-36.987499,2.475000,0.0,1.000000,0.000000,0.000000,0.000000
1782117258.562959,1757979,0.912598,-0.018555,-0.406250,-0.304878,0.000000,-0.365854,16.562500,-36.987499,2.475000,0.0,1.000000,0.000000,0.000000,0.000000
1782117258.573959,1757990,0.912598,-0.019531,-0.406738,-0.243902,-0.121951,-0.426829,16.612501,-36.943752,2.406250,0.0,1.000000,0.000000,0.000000,0.000000
1782117258.583959,1758000,0.914551,-0.021973,-0.406738,-0.304878,-0.060976,-0.426829,16.612501,-36.943752,2.406250,0.0,1.000000,0.000000,0.000000,0.000000
1782117258.592959,1758009,0.911621,-0.020996,-0.406250,-0.304878,-0.060976,-0.365854,16.581251,-36.950001,2.487500,0.0,1.000000,0.000000,0.000000,0.000000
1782117258.602959,1758019,0.911621,-0.020020,-0.407227,-0.426829,-0.121951,-0.304878,16.581251,-36.950001,2.487500,0.0,1.000000,0.000000,0.000000,0.000000
1782117258.612959,1758029,0.912598,-0.019531,-0.407715,-0.365854,-0.243902,-0.243902,16.531250,-37.031250,2.512500,0.0,1.000000,0.000000,0.000000,0.000000
1782117258.622959,1758039,0.911133,-0.018066,-0.407715,-0.365854,-0.182927,-0.304878,16.531250,-37.031250,2.512500,0.0,1.000000,0.000000,0.000000,0.000000
1782117258.633959,1758050,0.912109,-0.018555,-0.408691,-0.487805,-0.304878,-0.243902,16.537500,-36.968750,2.462500,0.0,1.000000,0.000000,0.000000,0.000000
1782117258.643960,1758060,0.913574,-0.017578,-0.405762,-0.487805,-0.304878,-0.243902,16.537500,-36.968750,2.462500,0.0,1.000000,0.000000,0.000000,0.000000
1782117258.653960,1758070,0.912598,-0.019043,-0.406738,-0.548781,-0.304878,-0.243902,16.525000,-37.006252,2.537500,0.0,1.000000,0.000000,0.000000,0.000000
1782117258.663960,1758080,0.913086,-0.018555,-0.406738,-0.548781,-0.304878,-0.304878,16.525000,-37.006252,2.537500,0.0,1.000000,0.000000,0.000000,0.000000
1782117258.672959,1758089,0.913086,-0.018066,-0.407227,-0.426829,-0.243902,-0.426829,16.587500,-36.950001,2.487500,0.0,1.000000,0.000000,0.000000,0.000000
1782117258.683959,1758100,0.912598,-0.019043,-0.408203,-0.365854,-0.243902,-0.487805,16.587500,-36.950001,2.487500,0.0,1.000000,0.000000,0.000000,0.000000
1782117258.692959,1758109,0.911621,-0.020020,-0.408203,-0.121951,-0.304878,-0.426829,16.543751,-37.006252,2.512500,0.0,1.000000,0.000000,0.000000,0.000000
1782117258.702959,1758119,0.911621,-0.020996,-0.407715,0.000000,-0.365854,-0.487805,16.543751,-37.006252,2.512500,0.0,1.000000,0.000000,0.000000,0.000000
1782117258.712959,1758129,0.912109,-0.020508,-0.409668,0.060976,-0.548781,-0.426829,16.531250,-36.950001,2.518750,0.0,1.000000,0.000000,0.000000,0.000000
1782117258.722960,1758139,0.912598,-0.021484,-0.408691,0.121951,-0.548781,-0.487805,16.531250,-36.950001,2.518750,0.0,1.000000,0.000000,0.000000,0.000000
1782117258.732960,1758149,0.913574,-0.019531,-0.409668,0.000000,-0.487805,-0.487805,16.625000,-36.912502,2.400000,0.0,1.000000,0.000000,0.000000,0.000000
1782117258.742959,1758159,0.913574,-0.017578,-0.407715,-0.121951,-0.487805,-0.487805,16.625000,-36.912502,2.400000,0.0,1.000000,0.000000,0.000000,0.000000
1782117258.752959,1758169,0.914062,-0.018066,-0.406738,-0.121951,-0.365854,-0.487805,16.506250,-37.037502,2.487500,0.0,1.000000,0.000000,0.000000,0.000000
1782117258.762959,1758179,0.912598,-0.017578,-0.407227,-0.121951,-0.365854,-0.548781,16.506250,-37.037502,2.487500,0.0,1.000000,0.000000,0.000000,0.000000
1782117258.772959,1758189,0.914551,-0.018066,-0.407227,0.000000,-0.304878,-0.487805,16.562500,-36.943752,2.481250,0.0,1.000000,0.000000,0.000000,0.000000
1782117258.782959,1758199,0.912109,-0.018066,-0.407227,0.060976,-0.304878,-0.426829,16.562500,-36.943752,2.481250,0.0,1.000000,0.000000,0.000000,0.000000
1782117258.793959,1758210,0.912109,-0.018066,-0.407715,0.000000,-0.304878,-0.365854,16.575001,-36.924999,2.456250,0.0,1.000000,0.000000,0.000000,0.000000
1782117258.803959,1758220,0.911621,-0.016113,-0.408691,-0.121951,-0.426829,-0.365854,16.575001,-36.924999,2.456250,0.0,1.000000,0.000000,0.000000,0.000000
1782117258.812959,1758229,0.912109,-0.016113,-0.408691,-0.182927,-0.426829,-0.365854,16.550001,-37.031250,2.481250,0.0,1.000000,0.000000,0.000000,0.000000
1782117258.822959,1758239,0.912109,-0.015137,-0.409180,-0.243902,-0.426829,-0.365854,16.550001,-37.031250,2.481250,0.0,1.000000,0.000000,0.000000,0.000000
1782117258.832959,1758249,0.910645,-0.015625,-0.407715,-0.182927,-0.487805,-0.426829,16.562500,-36.968750,2.525000,0.0,1.000000,0.000000,0.000000,0.000000
1782117258.842959,1758259,0.910645,-0.018066,-0.410156,-0.182927,-0.487805,-0.426829,16.562500,-36.968750,2.525000,0.0,1.000000,0.000000,0.000000,0.000000
1782117258.853959,1758270,0.908691,-0.018555,-0.408691,-0.121951,-0.609756,-0.487805,16.593750,-37.018749,2.493750,0.0,1.000000,0.000000,0.000000,0.000000
1782117258.862959,1758279,0.910645,-0.019043,-0.410156,-0.182927,-0.731707,-0.487805,16.593750,-37.018749,2.493750,0.0,1.000000,0.000000,0.000000,0.000000
1782117258.872959,1758289,0.911621,-0.020020,-0.409180,-0.304878,-0.731707,-0.426829,16.568750,-36.931252,2.462500,0.0,1.000000,0.000000,0.000000,0.000000
1782117258.882959,1758299,0.912109,-0.020508,-0.409668,-0.365854,-0.792683,-0.365854,16.568750,-36.931252,2.462500,0.0,1.000000,0.000000,0.000000,0.000000
1782117258.893960,1758310,0.912109,-0.019043,-0.407715,-0.243902,-0.914634,-0.365854,16.550001,-37.062500,2.443750,0.0,1.000000,0.000000,0.000000,0.000000
1782117258.902959,1758319,0.913574,-0.020020,-0.407227,-0.182927,-0.975610,-0.365854,16.550001,-37.062500,2.443750,0.0,1.000000,0.000000,0.000000,0.000000
1782117258.912959,1758329,0.915039,-0.019531,-0.407715,-0.182927,-0.853659,-0.426829,16.562500,-36.962502,2.381250,0.0,1.000000,0.000000,0.000000,0.000000
1782117258.922959,1758339,0.915527,-0.020020,-0.406250,-0.182927,-0.792683,-0.365854,16.562500,-36.962502,2.381250,0.0,1.000000,0.000000,0.000000,0.000000
1782117258.932959,1758349,0.916992,-0.020020,-0.406250,-0.243902,-0.731707,-0.426829,16.643751,-36.868752,2.312500,0.0,1.000000,0.000000,0.000000,0.000000
1782117258.943959,1758360,0.916016,-0.019531,-0.405273,-0.182927,-0.609756,-0.304878,16.643751,-36.868752,2.312500,0.0,1.000000,0.000000,0.000000,0.000000
1782117258.952959,1758369,0.915527,-0.019531,-0.405762,-0.304878,-0.487805,-0.304878,16.587500,-36.968750,2.462500,0.0,1.000000,0.000000,0.000000,0.000000
1782117258.963959,1758380,0.913086,-0.018066,-0.407227,-0.243902,-0.487805,-0.304878,16.587500,-36.968750,2.462500,0.0,1.000000,0.000000,0.000000,0.000000
1782117258.973959,1758390,0.911133,-0.017090,-0.407715,-0.243902,-0.548781,-0.304878,16.562500,-37.000000,2.425000,0.0,1.000000,0.000000,0.000000,0.000000
1782117258.982960,1758399,0.911621,-0.017578,-0.407715,-0.365854,-0.670732,-0.243902,16.562500,-37.000000,2.425000,0.0,1.000000,0.000000,0.000000,0.000000
1782117258.993959,1758410,0.912598,-0.018555,-0.408691,-0.548781,-0.670732,-0.304878,16.575001,-36.906250,2.418750,0.0,1.000000,0.000000,0.000000,0.000000
1782117259.002959,1758419,0.912598,-0.017578,-0.409668,-0.792683,-0.731707,-0.243902,16.575001,-36.906250,2.418750,0.0,1.000000,0.000000,0.000000,0.000000
1782117259.013959,1758430,0.911621,-0.018066,-0.411621,-0.914634,-0.670732,-0.243902,16.556250,-37.025002,2.456250,0.0,1.000000,0.000000,0.000000,0.000000
1782117259.022959,1758439,0.911133,-0.018066,-0.412598,-0.975610,-0.731707,-0.243902,16.556250,-37.025002,2.456250,0.0,1.000000,0.000000,0.000000,0.000000
1782117259.033959,1758450,0.912109,-0.019043,-0.412598,-0.975610,-0.670732,-0.182927,16.600000,-36.937500,2.350000,0.0,1.000000,0.000000,0.000000,0.000000
1782117259.043959,1758460,0.912598,-0.018555,-0.411133,-0.792683,-0.548781,-0.182927,16.600000,-36.937500,2.350000,0.0,1.000000,0.000000,0.000000,0.000000
1782117259.053959,1758470,0.912109,-0.019531,-0.411133,-0.609756,-0.426829,-0.243902,16.556250,-36.937500,2.368750,0.0,1.000000,0.000000,0.000000,0.000000
1782117259.062959,1758479,0.908691,-0.019043,-0.411621,-0.487805,-0.365854,-0.243902,16.556250,-36.937500,2.368750,0.0,1.000000,0.000000,0.000000,0.000000
1782117259.072959,1758489,0.907715,-0.017578,-0.413574,-0.426829,-0.487805,-0.243902,16.562500,-36.975002,2.350000,0.0,1.000000,0.000000,0.000000,0.000000
1782117259.082959,1758499,0.909180,-0.019043,-0.414062,-0.304878,-0.609756,-0.365854,16.562500,-36.975002,2.350000,0.0,1.000000,0.000000,0.000000,0.000000
1782117259.095959,1758512,0.909180,-0.017578,-0.415039,-0.182927,-0.792683,-0.487805,16.568750,-36.987499,2.381250,0.0,1.000000,0.000000,0.000000,0.000000
1782117259.102959,1758519,0.909180,-0.017578,-0.415039,-0.182927,-0.792683,-0.487805,16.568750,-36.987499,2.381250,0.0,1.000000,0.000000,0.000000,0.000000
1782117259.112959,1758529,0.911133,-0.017578,-0.414062,-0.182927,-0.670732,-0.487805,16.600000,-36.906250,2.362500,0.0,1.000000,0.000000,0.000000,0.000000
1782117259.122959,1758539,0.909668,-0.017090,-0.412598,-0.243902,-0.670732,-0.487805,16.600000,-36.906250,2.362500,0.0,1.000000,0.000000,0.000000,0.000000
1782117259.134959,1758551,0.909180,-0.016602,-0.411133,-0.304878,-0.609756,-0.426829,16.531250,-37.037502,2.425000,0.0,1.000000,0.000000,0.000000,0.000000
1782117259.142959,1758559,0.911133,-0.015625,-0.409180,-0.365854,-0.670732,-0.487805,16.531250,-37.037502,2.425000,0.0,1.000000,0.000000,0.000000,0.000000
1782117259.153960,1758570,0.912109,-0.016602,-0.409668,-0.304878,-0.670732,-0.487805,16.593750,-36.931252,2.343750,0.0,1.000000,0.000000,0.000000,0.000000
1782117259.163960,1758580,0.912109,-0.017090,-0.409668,-0.304878,-0.609756,-0.487805,16.543751,-37.012501,2.425000,0.0,1.000000,0.000000,0.000000,0.000000
1782117259.175959,1758592,0.913574,-0.018066,-0.409180,-0.304878,-0.670732,-0.548781,16.543751,-37.012501,2.425000,0.0,1.000000,0.000000,0.000000,0.000000
1782117259.182959,1758599,0.912598,-0.020508,-0.411621,-0.304878,-0.670732,-0.487805,16.543751,-37.012501,2.425000,0.0,1.000000,0.000000,0.000000,0.000000
1782117259.192959,1758609,0.912598,-0.020996,-0.412109,-0.243902,-0.548781,-0.548781,16.612501,-36.918751,2.387500,0.0,1.000000,0.000000,0.000000,0.000000
1782117259.202959,1758619,0.911621,-0.021973,-0.411133,-0.060976,-0.548781,-0.487805,16.612501,-36.918751,2.387500,0.0,1.000000,0.000000,0.000000,0.000000
1782117259.215959,1758632,0.912598,-0.020020,-0.411133,-0.060976,-0.487805,-0.548781,16.593750,-36.968750,2.387500,0.0,1.000000,0.000000,0.000000,0.000000
1782117259.222960,1758639,0.911621,-0.019531,-0.410156,0.060976,-0.487805,-0.609756,16.593750,-36.968750,2.387500,0.0,1.000000,0.000000,0.000000,0.000000
1782117259.232960,1758649,0.911133,-0.020020,-0.412109,0.121951,-0.487805,-0.609756,16.650000,-36.868752,2.268750,0.0,1.000000,0.000000,0.000000,0.000000
1782117259.242959,1758659,0.910156,-0.019531,-0.413574,0.182927,-0.548781,-0.670732,16.600000,-37.012501,2.350000,0.0,1.000000,0.000000,0.000000,0.000000
1782117259.255960,1758672,0.910156,-0.018066,-0.414062,0.304878,-0.548781,-0.670732,16.600000,-37.012501,2.350000,0.0,1.000000,0.000000,0.000000,0.000000
1782117259.263959,1758680,0.909668,-0.017090,-0.414062,0.426829,-0.670732,-0.731707,16.600000,-36.924999,2.381250,0.0,1.000000,0.000000,0.000000,0.000000
1782117259.272959,1758689,0.909668,-0.016602,-0.414551,0.365854,-0.670732,-0.792683,16.600000,-36.924999,2.381250,0.0,1.000000,0.000000,0.000000,0.000000
1782117259.282959,1758699,0.910645,-0.016113,-0.412598,0.426829,-0.670732,-0.792683,16.656250,-36.868752,2.287500,0.0,1.000000,0.000000,0.000000,0.000000
1782117259.294959,1758711,0.912109,-0.017578,-0.412109,0.487805,-0.548781,-0.731707,16.656250,-36.868752,2.287500,0.0,1.000000,0.000000,0.000000,0.000000
1782117259.302959,1758719,0.911621,-0.016602,-0.412109,0.487805,-0.548781,-0.670732,16.662500,-36.856251,2.287500,0.0,1.000000,0.000000,0.000000,0.000000
1782117259.312959,1758729,0.911133,-0.016113,-0.411621,0.487805,-0.548781,-0.670732,16.662500,-36.856251,2.287500,0.0,1.000000,0.000000,0.000000,0.000000
1782117259.322959,1758739,0.909668,-0.016602,-0.413086,0.426829,-0.548781,-0.670732,16.618750,-36.950001,2.306250,0.0,1.000000,0.000000,0.000000,0.000000
1782117259.334960,1758751,0.910645,-0.015625,-0.414062,0.426829,-0.487805,-0.731707,16.618750,-36.950001,2.306250,0.0,1.000000,0.000000,0.000000,0.000000
1782117259.342959,1758759,0.910156,-0.015137,-0.413574,0.365854,-0.487805,-0.731707,16.587500,-36.968750,2.268750,0.0,1.000000,0.000000,0.000000,0.000000
1782117259.352959,1758769,0.911133,-0.015625,-0.413574,0.304878,-0.426829,-0.731707,16.587500,-36.968750,2.268750,0.0,1.000000,0.000000,0.000000,0.000000
1782117259.362959,1758779,0.909668,-0.016602,-0.413574,0.304878,-0.426829,-0.609756,16.637501,-36.943752,2.287500,0.0,1.000000,0.000000,0.000000,0.000000
1782117259.375959,1758792,0.909668,-0.016113,-0.413574,0.243902,-0.548781,-0.609756,16.637501,-36.943752,2.287500,0.0,1.000000,0.000000,0.000000,0.000000
1782117259.382959,1758799,0.910156,-0.015625,-0.412598,0.243902,-0.548781,-0.548781,16.687500,-36.818752,2.162500,0.0,1.000000,0.000000,0.000000,0.000000
1782117259.392959,1758809,0.911621,-0.016602,-0.412109,0.304878,-0.548781,-0.487805,16.687500,-36.818752,2.162500,0.0,1.000000,0.000000,0.000000,0.000000
1782117259.403960,1758820,0.911133,-0.015625,-0.412109,0.182927,-0.609756,-0.426829,16.643751,-36.975002,2.293750,0.0,1.000000,0.000000,0.000000,0.000000
1782117259.415959,1758832,0.912109,-0.015137,-0.412109,0.000000,-0.548781,-0.426829,16.643751,-36.975002,2.293750,0.0,1.000000,0.000000,0.000000,0.000000
1782117259.422959,1758839,0.910156,-0.014648,-0.411621,-0.243902,-0.548781,-0.365854,16.625000,-37.000000,2.262500,0.0,1.000000,0.000000,0.000000,0.000000
1782117259.432959,1758849,0.909668,-0.014648,-0.412109,-0.426829,-0.487805,-0.304878,16.625000,-37.000000,2.262500,0.0,1.000000,0.000000,0.000000,0.000000
1782117259.442959,1758859,0.910645,-0.014648,-0.411133,-0.487805,-0.609756,-0.304878,16.650000,-36.918751,2.212500,0.0,1.000000,0.000000,0.000000,0.000000
1782117259.456959,1758873,0.911133,-0.015625,-0.411133,-0.548781,-0.609756,-0.365854,16.650000,-36.918751,2.212500,0.0,1.000000,0.000000,0.000000,0.000000
1782117259.462959,1758879,0.911133,-0.017090,-0.410645,-0.548781,-0.670732,-0.304878,16.675001,-36.856251,2.225000,0.0,1.000000,0.000000,0.000000,0.000000
1782117259.473959,1758890,0.908203,-0.016602,-0.413574,-0.609756,-0.914634,-0.182927,16.675001,-36.856251,2.225000,0.0,1.000000,0.000000,0.000000,0.000000
1782117259.482960,1758899,0.905273,-0.012207,-0.416992,-0.792683,-1.158537,-0.304878,16.737501,-36.825001,2.175000,0.0,1.000000,0.000000,0.000000,0.000000
1782117259.495960,1758912,0.906738,-0.012695,-0.416992,-0.792683,-1.280488,-0.487805,16.737501,-36.825001,2.175000,0.0,1.000000,0.000000,0.000000,0.000000
1782117259.502959,1758919,0.912109,-0.017578,-0.411621,-0.487805,-1.158537,-0.670732,16.831251,-36.662502,2.025000,0.0,1.000000,0.000000,0.000000,0.000000
1782117259.512959,1758929,0.913086,-0.025391,-0.409180,-0.060976,-0.914634,-0.731707,16.831251,-36.662502,2.025000,0.0,1.000000,0.000000,0.000000,0.000000
1782117259.522959,1758939,0.912109,-0.027344,-0.411621,0.121951,-0.853659,-0.548781,16.668751,-36.887501,2.156250,0.0,1.000000,0.000000,0.000000,0.000000
1782117259.535959,1758952,0.912598,-0.023438,-0.414062,0.487805,-0.914634,-0.792683,16.668751,-36.887501,2.156250,0.0,1.000000,0.000000,0.000000,0.000000
1782117259.542959,1758959,0.910156,-0.022461,-0.416016,0.548781,-0.914634,-0.853659,16.818750,-36.668751,2.106250,0.0,1.000000,0.000000,0.000000,0.000000
1782117259.552959,1758969,0.911133,-0.018555,-0.413086,0.487805,-1.036585,-0.853659,16.818750,-36.668751,2.106250,0.0,1.000000,0.000000,0.000000,0.000000
1782117259.563959,1758980,0.912109,-0.017578,-0.411133,0.487805,-0.975610,-0.731707,16.668751,-36.893749,2.162500,0.0,1.000000,0.000000,0.000000,0.000000
1782117259.573959,1758990,0.910645,-0.019043,-0.412109,0.487805,-0.853659,-0.609756,16.668751,-36.893749,2.162500,0.0,1.000000,0.000000,0.000000,0.000000
1782117259.582959,1758999,0.908691,-0.016113,-0.413086,0.487805,-0.792683,-0.609756,16.843750,-36.600002,1.981250,0.0,1.000000,0.000000,0.000000,0.000000
1782117259.593959,1759010,0.907715,-0.010254,-0.416504,0.365854,-0.914634,-0.609756,16.843750,-36.600002,1.981250,0.0,1.000000,0.000000,0.000000,0.000000
1782117259.602959,1759019,0.908203,-0.007812,-0.417969,0.060976,-1.036585,-0.670732,16.681250,-36.924999,2.187500,0.0,1.000000,0.000000,0.000000,0.000000
1782117259.615959,1759032,0.909668,-0.009766,-0.417480,-0.121951,-0.975610,-0.670732,16.681250,-36.924999,2.187500,0.0,1.000000,0.000000,0.000000,0.000000
1782117259.622959,1759039,0.911133,-0.013184,-0.416016,-0.121951,-0.792683,-0.548781,16.818750,-36.581249,1.956250,0.0,1.000000,0.000000,0.000000,0.000000
1782117259.632959,1759049,0.909180,-0.017578,-0.415527,-0.121951,-0.609756,-0.426829,16.818750,-36.581249,1.956250,0.0,1.000000,0.000000,0.000000,0.000000
1782117259.642959,1759059,0.907227,-0.019043,-0.420410,-0.121951,-0.731707,-0.426829,16.650000,-36.943752,2.150000,0.0,1.000000,0.000000,0.000000,0.000000
1782117259.654959,1759071,0.908203,-0.015137,-0.425781,-0.182927,-0.853659,-0.548781,16.650000,-36.943752,2.150000,0.0,1.000000,0.000000,0.000000,0.000000
1782117259.662959,1759079,0.909668,-0.015625,-0.424316,0.060976,-0.731707,-0.792683,16.700001,-36.812500,2.187500,0.0,1.000000,0.000000,0.000000,0.000000
1782117259.673959,1759090,0.908691,-0.019043,-0.423828,0.304878,-0.548781,-0.670732,16.700001,-36.812500,2.187500,0.0,1.000000,0.000000,0.000000,0.000000
1782117259.682959,1759099,0.906738,-0.019043,-0.423340,0.487805,-0.426829,-0.487805,16.750000,-36.781250,2.075000,0.0,1.000000,0.000000,0.000000,0.000000
1782117259.692959,1759109,0.906250,-0.014648,-0.430664,0.548781,-0.548781,-0.548781,16.750000,-36.781250,2.075000,0.0,1.000000,0.000000,0.000000,0.000000
1782117259.703959,1759120,0.904785,-0.010254,-0.435059,0.548781,-0.548781,-0.609756,16.650000,-36.850002,2.143750,0.0,1.000000,0.000000,0.000000,0.000000
1782117259.712959,1759129,0.899414,-0.007324,-0.437988,0.304878,-0.609756,-0.609756,16.650000,-36.850002,2.143750,0.0,1.000000,0.000000,0.000000,0.000000
1782117259.722960,1759139,0.899902,-0.003418,-0.440430,0.121951,-0.853659,-0.670732,16.656250,-36.893749,2.150000,0.0,1.000000,0.000000,0.000000,0.000000
1782117259.732960,1759149,0.902344,-0.008301,-0.439453,0.304878,-0.792683,-0.731707,16.656250,-36.893749,2.150000,0.0,1.000000,0.000000,0.000000,0.000000
1782117259.742959,1759159,0.901367,-0.014160,-0.439453,0.243902,-0.670732,-0.426829,16.712500,-36.843750,2.106250,0.0,1.000000,0.000000,0.000000,0.000000
1782117259.752959,1759169,0.900391,-0.011230,-0.442383,0.182927,-0.365854,-0.182927,16.712500,-36.843750,2.106250,0.0,1.000000,0.000000,0.000000,0.000000
1782117259.762959,1759179,0.902832,-0.006348,-0.439453,0.121951,0.000000,-0.304878,16.775000,-36.674999,1.962500,0.0,1.000000,0.000000,0.000000,0.000000
1782117259.772959,1759189,0.901367,-0.008301,-0.436035,0.000000,0.487805,-0.121951,16.775000,-36.674999,1.962500,0.0,1.000000,0.000000,0.000000,0.000000
1782117259.783959,1759200,0.897461,-0.007324,-0.443359,-0.792683,0.731707,0.060976,16.725000,-36.862499,2.050000,0.0,1.000000,0.000000,0.000000,0.000000
1782117259.793959,1759210,0.895996,-0.001953,-0.447754,-1.036585,0.731707,-0.304878,16.725000,-36.862499,2.050000,0.0,1.000000,0.000000,0.000000,0.000000
1782117259.803959,1759220,0.896973,-0.007324,-0.448730,-0.670732,0.914634,-0.670732,16.731251,-36.731251,2.043750,0.0,1.000000,0.000000,0.000000,0.000000
1782117259.813959,1759230,0.897949,-0.017578,-0.447754,-0.304878,1.219512,-0.609756,16.731251,-36.731251,2.043750,0.0,1.000000,0.000000,0.000000,0.000000
1782117259.824960,1759241,0.895020,-0.012695,-0.449219,-0.243902,1.829268,-0.731707,16.643751,-36.912502,2.187500,0.0,1.000000,0.000000,0.000000,0.000000
1782117259.832959,1759249,0.895020,-0.004883,-0.450684,0.000000,2.195122,-1.097561,16.643751,-36.912502,2.187500,0.0,1.000000,0.000000,0.000000,0.000000
1782117259.842959,1759259,0.892578,-0.009277,-0.449707,0.487805,2.560976,-1.402439,16.693750,-36.831249,2.162500,0.0,1.000000,0.000000,0.000000,0.000000
1782117259.852959,1759269,0.887207,-0.015137,-0.451660,0.853659,3.048780,-1.524390,16.693750,-36.831249,2.162500,0.0,1.000000,0.000000,0.000000,0.000000
1782117259.862959,1759279,0.885254,-0.014160,-0.456543,1.280488,3.048780,-1.524390,16.687500,-36.775002,2.187500,0.0,1.000000,0.000000,0.000000,0.000000
1782117259.873959,1759290,0.891113,-0.010254,-0.459473,1.585366,2.682927,-1.829268,16.687500,-36.775002,2.187500,0.0,1.000000,0.000000,0.000000,0.000000
1782117259.882959,1759299,0.894531,-0.012207,-0.459961,2.012195,3.353659,-1.829268,16.725000,-36.843750,2.331250,0.0,1.000000,0.000000,0.000000,0.000000
1782117259.892959,1759309,0.887207,-0.014160,-0.457031,2.439024,4.146341,-1.524390,16.725000,-36.843750,2.331250,0.0,1.000000,0.000000,0.000000,0.000000
1782117259.902959,1759319,0.877930,-0.012207,-0.458008,2.743902,4.573171,-1.463415,16.681250,-36.737499,2.368750,0.0,1.000000,0.000000,0.000000,0.000000
1782117259.913960,1759330,0.875000,-0.008301,-0.458496,3.109756,4.573171,-1.707317,16.681250,-36.737499,2.368750,0.0,1.000000,0.000000,0.000000,0.000000
1782117259.922959,1759339,0.887207,0.000000,-0.466797,3.292683,4.390244,-2.256098,16.656250,-36.793751,2.462500,0.0,1.000000,0.000000,0.000000,0.000000
1782117259.932959,1759349,0.902344,0.004395,-0.472656,3.414634,5.304878,-2.804878,16.656250,-36.793751,2.462500,0.0,1.000000,0.000000,0.000000,0.000000
1782117259.942959,1759359,0.899902,0.010742,-0.472168,3.353659,7.012195,-2.621951,16.762501,-36.543751,2.393750,0.0,1.000000,0.000000,0.000000,0.000000
1782117259.952959,1759369,0.886230,0.016113,-0.464844,2.743902,8.353659,-2.317073,16.762501,-36.543751,2.393750,0.0,1.000000,0.000000,0.000000,0.000000
1782117259.963959,1759380,0.879395,0.021484,-0.461914,1.890244,8.902439,-2.317073,16.618750,-36.750000,2.700000,0.0,1.000000,0.000000,0.000000,0.000000
1782117259.972960,1759389,0.874023,0.025391,-0.459473,0.975610,9.573171,-2.439024,16.618750,-36.750000,2.700000,0.0,1.000000,0.000000,0.000000,0.000000
1782117259.982960,1759399,0.863770,0.025391,-0.455078,0.121951,10.060976,-2.439024,16.712500,-36.606251,2.768750,0.0,1.000000,0.000000,0.000000,0.000000
1782117259.992959,1759409,0.856445,0.021484,-0.451660,-0.487805,9.756098,-2.500000,16.712500,-36.606251,2.768750,0.0,1.000000,0.000000,0.000000,0.000000
1782117260.002959,1759419,0.857910,0.017578,-0.451172,-0.487805,9.146341,-2.926829,16.731251,-36.600002,2.912500,0.0,1.000000,0.000000,0.000000,0.000000
1782117260.012959,1759429,0.872559,0.011719,-0.450195,0.000000,8.414635,-3.780488,16.731251,-36.600002,2.912500,0.0,1.000000,0.000000,0.000000,0.000000
1782117260.022959,1759439,0.885254,0.012207,-0.449707,0.487805,8.719512,-4.573171,16.656250,-36.631252,3.143750,0.0,1.000000,0.000000,0.000000,0.000000
1782117260.032959,1759449,0.897949,0.007324,-0.448242,0.304878,9.756098,-4.573171,16.656250,-36.631252,3.143750,0.0,1.000000,0.000000,0.000000,0.000000
1782117260.042959,1759459,0.891602,-0.004883,-0.445312,-0.426829,12.378049,-3.719512,16.737501,-36.656250,3.325000,0.0,1.000000,0.000000,0.000000,0.000000
1782117260.052959,1759469,0.893066,-0.008789,-0.441406,-0.609756,12.865854,-3.292683,16.737501,-36.656250,3.325000,0.0,1.000000,0.000000,0.000000,0.000000
1782117260.062959,1759479,0.898926,-0.016113,-0.441895,-0.609756,12.621951,-3.292683,16.768751,-36.568752,3.487500,0.0,1.000000,0.000000,0.000000,0.000000
1782117260.074960,1759491,0.914062,-0.020508,-0.438477,-0.243902,12.073171,-3.475610,16.768751,-36.568752,3.487500,0.0,1.000000,0.000000,0.000000,0.000000
1782117260.082959,1759499,0.934570,-0.022461,-0.437500,-0.365854,12.500000,-3.292683,16.775000,-36.525002,3.725000,0.0,1.000000,0.000000,0.000000,0.000000
1782117260.092959,1759509,0.947266,-0.023926,-0.434082,-0.060976,14.024390,-3.109756,16.775000,-36.525002,3.725000,0.0,1.000000,0.000000,0.000000,0.000000
1782117260.103959,1759520,0.937500,-0.027832,-0.424805,0.365854,16.341463,-2.073171,16.756250,-36.506252,3.925000,0.0,1.000000,0.000000,0.000000,0.000000
1782117260.113959,1759530,0.911133,-0.035156,-0.416016,1.097561,16.829269,-1.829268,16.756250,-36.506252,3.925000,0.0,1.000000,0.000000,0.000000,0.000000
1782117260.122959,1759539,0.909668,-0.048340,-0.408203,2.804878,15.426829,-1.036585,16.737501,-36.525002,4.068750,0.0,1.000000,0.000000,0.000000,0.000000
1782117260.134959,1759551,0.911133,-0.060547,-0.409180,4.512195,13.719513,-1.097561,16.737501,-36.525002,4.068750,0.0,1.000000,0.000000,0.000000,0.000000
1782117260.144959,1759561,0.948242,-0.063965,-0.423828,6.463415,8.963415,-3.170732,16.981251,-36.075001,3.950000,0.0,1.000000,0.000000,0.000000,0.000000
1782117260.153960,1759570,0.969727,-0.053711,-0.415039,8.963415,9.390244,-2.804878,16.981251,-36.075001,3.950000,0.0,1.000000,0.000000,0.000000,0.000000
1782117260.163960,1759580,0.947754,-0.012207,-0.393066,9.268292,13.902439,0.121951,16.812500,-36.331249,4.268750,0.0,1.000000,0.000000,0.000000,0.000000
1782117260.172959,1759589,0.938477,0.031250,-0.388184,6.646342,12.804878,1.097561,16.812500,-36.331249,4.268750,0.0,1.000000,0.000000,0.000000,0.000000
1782117260.182959,1759599,0.948242,0.028809,-0.369629,4.512195,8.902439,-0.365854,16.612501,-36.506252,4.450000,0.0,1.000000,0.000000,0.000000,0.000000
1782117260.192959,1759609,0.960938,-0.010742,-0.337891,5.182927,9.634147,-0.304878,16.612501,-36.506252,4.450000,0.0,1.000000,0.000000,0.000000,0.000000
1782117260.202959,1759619,0.946289,-0.026367,-0.301758,7.926829,14.512196,0.182927,16.500000,-36.487499,4.562500,0.0,1.000000,0.000000,0.000000,0.000000
1782117260.212959,1759629,0.919922,-0.032715,-0.262207,8.414635,16.768293,0.304878,16.500000,-36.487499,4.562500,0.0,1.000000,0.000000,0.000000,0.000000
1782117260.222960,1759639,0.919922,-0.052246,-0.240234,9.390244,14.390244,-0.731707,16.343750,-36.562500,4.681250,0.0,1.000000,0.000000,0.000000,0.000000
1782117260.234959,1759651,0.936523,-0.076660,-0.236816,10.609756,10.304878,-1.829268,16.343750,-36.562500,4.681250,0.0,1.000000,0.000000,0.000000,0.000000
1782117260.242959,1759659,0.968262,-0.074707,-0.234863,14.512196,7.743903,-3.353659,16.350000,-36.362499,4.668750,0.0,1.000000,0.000000,0.000000,0.000000
1782117260.253959,1759670,0.993164,-0.072754,-0.246094,17.560976,7.500000,-5.365854,16.350000,-36.362499,4.668750,0.0,1.000000,0.000000,0.000000,0.000000
1782117260.263959,1759680,0.994141,-0.042969,-0.251953,19.634148,9.878049,-4.878049,16.275000,-36.424999,4.756250,0.0,1.000000,0.000000,0.000000,0.000000
1782117260.272959,1759689,0.966797,-0.045410,-0.264160,20.365854,10.426829,-4.207317,16.275000,-36.424999,4.756250,0.0,1.000000,0.000000,0.000000,0.000000
1782117260.282959,1759699,0.923828,-0.033691,-0.257324,19.878050,10.426829,-1.768293,16.268751,-36.412502,4.712500,0.0,1.000000,0.000000,0.000000,0.000000
1782117260.292959,1759709,0.889160,-0.045410,-0.259277,17.317074,6.402439,-0.975610,16.268751,-36.412502,4.712500,0.0,1.000000,0.000000,0.000000,0.000000
1782117260.302959,1759719,0.879883,-0.033203,-0.251465,14.878049,1.707317,-0.731707,16.193750,-36.443752,4.687500,0.0,1.000000,0.000000,0.000000,0.000000
1782117260.312959,1759729,0.902832,-0.026855,-0.258301,12.439025,-4.268293,-2.987805,16.193750,-36.443752,4.687500,0.0,1.000000,0.000000,0.000000,0.000000
1782117260.323959,1759740,0.951172,-0.027344,-0.246094,12.500000,-6.097561,-5.609756,16.287500,-36.387501,4.543750,0.0,1.000000,0.000000,0.000000,0.000000
1782117260.332959,1759749,0.981934,-0.028320,-0.233887,12.987805,-5.426829,-6.890244,16.287500,-36.387501,4.543750,0.0,1.000000,0.000000,0.000000,0.000000
1782117260.342959,1759759,1.005859,-0.032227,-0.215332,13.963415,-4.939024,-7.134147,16.331251,-36.306252,4.300000,0.0,1.000000,0.000000,0.000000,0.000000
1782117260.354959,1759771,1.035645,-0.028320,-0.200195,15.243903,-4.329268,-7.378049,16.331251,-36.306252,4.300000,0.0,1.000000,0.000000,0.000000,0.000000
1782117260.362959,1759779,1.057617,-0.024902,-0.188965,15.304878,-3.963415,-7.500000,16.568750,-36.068752,4.000000,0.0,1.000000,0.000000,0.000000,0.000000
1782117260.372959,1759789,1.077148,-0.030273,-0.177246,15.182927,-3.780488,-6.890244,16.568750,-36.068752,4.000000,0.0,1.000000,0.000000,0.000000,0.000000
1782117260.382959,1759799,1.088867,-0.039551,-0.164062,15.304878,-1.463415,-5.975610,16.612501,-36.087502,3.900000,0.0,1.000000,0.000000,0.000000,0.000000
1782117260.392959,1759809,1.083008,-0.033691,-0.156250,15.304878,2.500000,-4.695122,16.612501,-36.087502,3.900000,0.0,1.000000,0.000000,0.000000,0.000000
1782117260.402959,1759819,1.059082,-0.025879,-0.155762,14.756098,5.792683,-3.536585,16.606251,-36.156250,3.806250,0.0,1.000000,0.000000,0.000000,0.000000
1782117260.412959,1759829,1.034668,-0.020508,-0.168945,13.414635,7.439024,-3.292683,16.606251,-36.156250,3.806250,0.0,1.000000,0.000000,0.000000,0.000000
1782117260.422959,1759839,1.013672,-0.010742,-0.189941,12.012196,8.292683,-3.414634,16.587500,-36.218750,3.893750,0.0,1.000000,0.000000,0.000000,0.000000
1782117260.433959,1759850,0.987305,0.005859,-0.215332,10.182927,8.780488,-3.109756,16.587500,-36.218750,3.893750,0.0,1.000000,0.000000,0.000000,0.000000
1782117260.442959,1759859,0.953613,0.019531,-0.237305,7.256098,7.317073,-2.012195,16.681250,-36.162502,3.825000,0.0,1.000000,0.000000,0.000000,0.000000
1782117260.452959,1759869,0.925293,0.027832,-0.257324,3.841464,3.841464,-0.792683,16.681250,-36.162502,3.825000,0.0,1.000000,0.000000,0.000000,0.000000
1782117260.463959,1759880,0.910645,0.028809,-0.271484,0.182927,0.060976,0.487805,16.712500,-36.187500,3.856250,0.0,1.000000,0.000000,0.000000,0.000000
1782117260.472960,1759889,0.911133,0.032715,-0.281738,-3.841464,-4.085366,1.280488,16.712500,-36.187500,3.856250,0.0,1.000000,0.000000,0.000000,0.000000
1782117260.482960,1759899,0.928223,0.030273,-0.287109,-7.195122,-7.195122,0.975610,16.768751,-35.975002,3.768750,0.0,1.000000,0.000000,0.000000,0.000000
1782117260.493959,1759910,0.950684,0.018555,-0.287109,-9.146341,-8.231708,0.670732,16.768751,-35.975002,3.768750,0.0,1.000000,0.000000,0.000000,0.000000
1782117260.504959,1759921,0.972656,0.003418,-0.283203,-9.573171,-7.926829,0.182927,16.675001,-36.200001,3.900000,0.0,1.000000,0.000000,0.000000,0.000000
1782117260.513959,1759930,0.998535,-0.023438,-0.277832,-8.719512,-6.402439,-0.060976,16.675001,-36.200001,3.900000,0.0,1.000000,0.000000,0.000000,0.000000
1782117260.523959,1759940,1.014648,-0.036133,-0.277832,-7.256098,-3.902439,0.304878,16.937500,-35.837502,3.706250,0.0,1.000000,0.000000,0.000000,0.000000
1782117260.534959,1759951,1.015137,-0.039062,-0.276367,-5.548780,-1.402439,0.487805,16.937500,-35.837502,3.706250,0.0,1.000000,0.000000,0.000000,0.000000
1782117260.545959,1759962,1.005859,-0.049316,-0.280762,-3.170732,0.670732,0.487805,16.893751,-35.918751,3.881250,0.0,1.000000,0.000000,0.000000,0.000000
1782117260.552959,1759969,0.988281,-0.060059,-0.282715,-1.341463,1.707317,1.463415,16.893751,-35.918751,3.881250,0.0,1.000000,0.000000,0.000000,0.000000
1782117260.562959,1759979,0.976562,-0.064941,-0.290527,0.365854,1.158537,2.073171,16.906250,-35.812500,3.856250,0.0,1.000000,0.000000,0.000000,0.000000
1782117260.572959,1759989,0.968262,-0.068359,-0.297363,1.280488,0.548781,2.682927,16.906250,-35.812500,3.856250,0.0,1.000000,0.000000,0.000000,0.000000
1782117260.582959,1759999,0.965332,-0.064453,-0.299316,2.378049,0.000000,2.926829,16.718750,-36.193752,4.075000,0.0,1.000000,0.000000,0.000000,0.000000
1782117260.593959,1760010,0.969727,-0.061035,-0.299805,3.597561,-0.609756,2.560976,16.718750,-36.193752,4.075000,0.0,1.000000,0.000000,0.000000,0.000000
1782117260.602959,1760019,0.971680,-0.053711,-0.302734,4.695122,-0.365854,2.317073,16.743750,-36.162502,4.006250,0.0,1.000000,0.000000,0.000000,0.000000
1782117260.612959,1760029,0.970215,-0.048828,-0.298340,4.634146,-0.182927,2.500000,16.743750,-36.162502,4.006250,0.0,1.000000,0.000000,0.000000,0.000000
1782117260.625959,1760042,0.971191,-0.042969,-0.302734,4.634146,0.670732,2.865854,16.718750,-36.250000,3.975000,0.0,1.000000,0.000000,0.000000,0.000000
1782117260.634959,1760051,0.962402,-0.035156,-0.305664,3.902439,0.792683,3.414634,16.737501,-36.150002,3.918750,0.0,1.000000,0.000000,0.000000,0.000000
1782117260.642959,1760059,0.958008,-0.029297,-0.309570,2.682927,0.000000,4.146341,16.737501,-36.150002,3.918750,0.0,1.000000,0.000000,0.000000,0.000000
1782117260.652959,1760069,0.961914,-0.018066,-0.321777,1.463415,-0.731707,5.121951,16.737501,-36.150002,3.918750,0.0,1.000000,0.000000,0.000000,0.000000
1782117260.663960,1760080,0.964844,-0.010742,-0.325684,0.487805,-0.914634,5.853659,16.743750,-36.275002,3.900000,0.0,1.000000,0.000000,0.000000,0.000000
1782117260.673959,1760090,0.962891,-0.009766,-0.320801,0.548781,-0.304878,7.134147,16.743750,-36.275002,3.900000,0.0,1.000000,0.000000,0.000000,0.000000
1782117260.682959,1760099,0.955078,-0.007324,-0.316406,1.524390,-0.426829,8.048780,16.700001,-36.174999,3.768750,0.0,1.000000,0.000000,0.000000,0.000000
1782117260.692959,1760109,0.952148,-0.001953,-0.307129,2.134146,-0.670732,8.780488,16.700001,-36.174999,3.768750,0.0,1.000000,0.000000,0.000000,0.000000
1782117260.704959,1760121,0.923340,-0.008789,-0.294434,1.829268,-1.280488,9.451220,16.600000,-36.293751,3.850000,0.0,1.000000,0.000000,0.000000,0.000000
1782117260.713959,1760130,0.910645,-0.017578,-0.303223,0.731707,-5.304878,8.719512,16.600000,-36.293751,3.850000,0.0,1.000000,0.000000,0.000000,0.000000
1782117260.722960,1760139,0.911621,-0.029785,-0.333008,-1.036585,-8.963415,7.682927,16.643751,-36.168751,3.712500,0.0,1.000000,0.000000,0.000000,0.000000
1782117260.732960,1760149,0.933105,-0.043457,-0.349609,-2.804878,-11.280488,8.475610,16.643751,-36.168751,3.712500,0.0,1.000000,0.000000,0.000000,0.000000
1782117260.742959,1760159,0.942871,-0.051270,-0.358887,-3.353659,-12.317074,9.695122,16.575001,-36.174999,3.643750,0.0,1.000000,0.000000,0.000000,0.000000
1782117260.752959,1760169,0.958008,-0.054199,-0.351074,-3.170732,-11.341464,11.951220,16.575001,-36.174999,3.643750,0.0,1.000000,0.000000,0.000000,0.000000
1782117260.762959,1760179,0.956543,-0.044922,-0.339355,-1.524390,-7.317073,11.036586,16.556250,-36.075001,3.343750,0.0,1.000000,0.000000,0.000000,0.000000
1782117260.773959,1760190,0.953125,-0.033691,-0.324707,0.792683,-2.560976,7.987805,16.556250,-36.075001,3.343750,0.0,1.000000,0.000000,0.000000,0.000000
1782117260.784959,1760201,0.889648,-0.015137,-0.321777,1.829268,6.890244,4.756098,16.400000,-36.293751,3.381250,0.0,1.000000,0.000000,0.000000,0.000000
1782117260.792959,1760209,0.889648,-0.015137,-0.321777,1.829268,6.890244,4.756098,16.400000,-36.293751,3.381250,0.0,1.000000,0.000000,0.000000,0.000000
1782117260.803959,1760220,0.842285,0.009277,-0.346680,-1.585366,5.792683,5.548780,16.318750,-36.337502,3.462500,0.0,1.000000,0.000000,0.000000,0.000000
1782117260.812959,1760229,0.854980,0.037598,-0.374023,-5.000000,0.609756,5.304878,16.237501,-36.443752,3.562500,0.0,1.000000,0.000000,0.000000,0.000000
1782117260.823959,1760240,0.912109,0.047363,-0.386230,-8.353659,-3.536585,4.878049,16.237501,-36.443752,3.562500,0.0,1.000000,0.000000,0.000000,0.000000
1782117260.832959,1760249,0.936523,0.028809,-0.392090,-11.280488,-2.865854,4.695122,16.237501,-36.443752,3.562500,0.0,1.000000,0.000000,0.000000,0.000000
1782117260.842959,1760259,0.906250,-0.000977,-0.392090,-13.414635,-1.524390,5.182927,16.268751,-36.443752,3.512500,0.0,1.000000,0.000000,0.000000,0.000000
1782117260.852959,1760269,0.884277,-0.020020,-0.394531,-15.121951,-3.536585,6.341464,16.237501,-36.537502,3.600000,0.0,1.000000,0.000000,0.000000,0.000000
1782117260.864959,1760281,0.874023,-0.000977,-0.403809,-20.243902,-7.195122,7.073171,16.237501,-36.537502,3.600000,0.0,1.000000,0.000000,0.000000,0.000000
1782117260.872959,1760289,0.874023,-0.000977,-0.403809,-20.243902,-7.195122,7.073171,16.250000,-36.575001,3.550000,0.0,1.000000,0.000000,0.000000,0.000000
1782117260.882959,1760299,0.868164,0.008789,-0.410645,-21.829269,-9.390244,5.304878,16.250000,-36.575001,3.550000,0.0,1.000000,0.000000,0.000000,0.000000
1782117260.892959,1760309,0.888184,0.001465,-0.403809,-22.865854,-12.378049,4.878049,16.225000,-36.650002,3.656250,0.0,1.000000,0.000000,0.000000,0.000000
1782117260.903960,1760320,0.883301,-0.012695,-0.395996,-24.207317,-11.707317,5.182927,16.225000,-36.650002,3.656250,0.0,1.000000,0.000000,0.000000,0.000000
1782117260.912959,1760329,0.883301,-0.012695,-0.395996,-24.207317,-11.707317,5.182927,16.256250,-36.612499,3.625000,0.0,1.000000,0.000000,0.000000,0.000000
1782117260.922959,1760339,0.889648,-0.006836,-0.409180,-24.329269,-13.475610,4.695122,16.256250,-36.612499,3.625000,0.0,1.000000,0.000000,0.000000,0.000000
1782117260.932959,1760349,0.939941,0.000977,-0.417480,-24.024391,-15.853659,4.329268,16.362501,-36.587502,3.462500,0.0,1.000000,0.000000,0.000000,0.000000
1782117260.944959,1760361,0.918945,-0.020996,-0.390625,-23.841463,-7.500000,4.573171,16.362501,-36.587502,3.462500,0.0,1.000000,0.000000,0.000000,0.000000
1782117260.953959,1760370,0.908203,-0.046387,-0.379395,-22.256098,-12.500000,2.439024,16.237501,-36.875000,3.643750,0.0,1.000000,0.000000,0.000000,0.000000
1782117260.962959,1760379,0.908691,-0.084961,-0.370117,-20.975611,-12.682927,2.865854,16.237501,-36.875000,3.643750,0.0,1.000000,0.000000,0.000000,0.000000
1782117260.972960,1760389,0.883301,-0.102539,-0.385254,-19.634148,-12.926829,2.378049,16.275000,-36.937500,3.643750,0.0,1.000000,0.000000,0.000000,0.000000
1782117260.984959,1760401,0.890625,-0.103516,-0.406250,-19.390244,-15.243903,3.597561,16.275000,-36.937500,3.643750,0.0,1.000000,0.000000,0.000000,0.000000
1782117260.992959,1760409,0.917480,-0.075195,-0.416504,-18.902439,-15.000000,4.695122,16.343750,-36.881252,3.468750,0.0,1.000000,0.000000,0.000000,0.000000
1782117261.003959,1760420,0.924805,-0.054199,-0.420410,-18.231709,-11.402439,6.158537,16.343750,-36.881252,3.468750,0.0,1.000000,0.000000,0.000000,0.000000
1782117261.012959,1760429,0.887695,-0.041016,-0.410645,-15.731708,-9.634147,3.536585,16.218750,-37.018749,3.487500,0.0,1.000000,0.000000,0.000000,0.000000
1782117261.025959,1760442,0.912598,-0.043945,-0.396973,-13.841464,-13.170732,2.926829,16.218750,-37.018749,3.487500,0.0,1.000000,0.000000,0.000000,0.000000
1782117261.032959,1760449,0.942383,-0.042969,-0.394531,-13.170732,-12.439025,3.597561,16.243750,-37.112499,3.356250,0.0,1.000000,0.000000,0.000000,0.000000
1782117261.042959,1760459,0.927734,-0.036621,-0.399414,-13.048780,-9.878049,3.536585,16.243750,-37.112499,3.356250,0.0,1.000000,0.000000,0.000000,0.000000
1782117261.052959,1760469,0.906738,-0.023926,-0.412109,-13.231708,-9.695122,2.987805,16.281250,-37.087502,3.312500,0.0,1.000000,0.000000,0.000000,0.000000
1782117261.062959,1760479,0.903809,-0.007812,-0.415527,-13.536586,-10.609756,3.170732,16.281250,-37.087502,3.312500,0.0,1.000000,0.000000,0.000000,0.000000
1782117261.073959,1760490,0.893066,-0.011719,-0.415527,-15.000000,-10.060976,3.048780,16.306250,-36.993752,3.125000,0.0,1.000000,0.000000,0.000000,0.000000
1782117261.082959,1760499,0.886230,-0.019043,-0.423340,-15.670732,-9.573171,2.439024,16.306250,-36.993752,3.125000,0.0,1.000000,0.000000,0.000000,0.000000
1782117261.092959,1760509,0.893066,-0.036133,-0.431641,-14.939025,-10.243902,1.890244,16.268751,-37.206249,3.187500,0.0,1.000000,0.000000,0.000000,0.000000
1782117261.105959,1760522,0.906738,-0.051758,-0.434082,-13.597561,-10.609756,1.890244,16.268751,-37.206249,3.187500,0.0,1.000000,0.000000,0.000000,0.000000
1782117261.112959,1760529,0.915527,-0.065430,-0.432129,-11.524390,-9.878049,1.463415,16.225000,-37.256252,3.106250,0.0,1.000000,0.000000,0.000000,0.000000
1782117261.122959,1760539,0.917969,-0.078125,-0.433594,-8.414635,-9.268292,0.853659,16.225000,-37.256252,3.106250,0.0,1.000000,0.000000,0.000000,0.000000
1782117261.133959,1760550,0.908691,-0.081543,-0.434570,-4.939024,-8.536586,0.365854,16.281250,-37.231251,3.006250,0.0,1.000000,0.000000,0.000000,0.000000
1782117261.145959,1760562,0.906738,-0.075684,-0.433105,-1.768293,-8.231708,-0.060976,16.281250,-37.231251,3.006250,0.0,1.000000,0.000000,0.000000,0.000000
1782117261.153960,1760570,0.902832,-0.069336,-0.434082,1.219512,-7.926829,-0.548781,16.306250,-37.262501,2.893750,0.0,1.000000,0.000000,0.000000,0.000000
1782117261.163960,1760580,0.901855,-0.064941,-0.435547,3.902439,-7.439024,-0.975610,16.306250,-37.262501,2.893750,0.0,1.000000,0.000000,0.000000,0.000000
1782117261.172959,1760589,0.938477,-0.069824,-0.434082,5.487805,-6.707317,1.280488,16.343750,-37.299999,2.693750,0.0,1.000000,0.000000,0.000000,0.000000
1782117261.185959,1760602,0.887207,-0.053711,-0.442383,6.890244,-3.292683,-0.731707,16.343750,-37.299999,2.693750,0.0,1.000000,0.000000,0.000000,0.000000
1782117261.192959,1760609,0.862305,-0.048340,-0.448730,8.170732,-5.548780,-2.195122,16.481251,-36.968750,2.343750,0.0,1.000000,0.000000,0.000000,0.000000
1782117261.202959,1760619,0.894043,-0.041016,-0.457031,9.024390,-8.231708,-2.987805,16.481251,-36.968750,2.343750,0.0,1.000000,0.000000,0.000000,0.000000
1782117261.212959,1760629,0.908203,-0.037109,-0.452148,8.719512,-6.646342,-2.317073,16.412500,-37.225002,2.368750,0.0,1.000000,0.000000,0.000000,0.000000
1782117261.227959,1760644,0.884766,-0.028320,-0.450195,9.512196,-4.817073,-3.536585,16.412500,-37.225002,2.368750,0.0,1.000000,0.000000,0.000000,0.000000
1782117261.232960,1760649,0.878418,-0.020508,-0.449219,9.756098,-5.060976,-4.512195,16.581251,-36.875000,2.006250,0.0,1.000000,0.000000,0.000000,0.000000
1782117261.242959,1760659,0.892578,-0.013184,-0.449219,9.390244,-4.695122,-4.329268,16.581251,-36.875000,2.006250,0.0,1.000000,0.000000,0.000000,0.000000
1782117261.252959,1760669,0.891602,-0.008301,-0.451172,8.963415,-3.719512,-4.390244,16.462500,-37.150002,2.050000,0.0,1.000000,0.000000,0.000000,0.000000
1782117261.264959,1760681,0.882812,-0.007812,-0.449707,8.902439,-3.780488,-4.817073,16.462500,-37.150002,2.050000,0.0,1.000000,0.000000,0.000000,0.000000
1782117261.272959,1760689,0.882812,-0.008789,-0.457031,8.902439,-4.756098,-5.365854,16.568750,-37.137501,1.856250,0.0,1.000000,0.000000,0.000000,0.000000
1782117261.282959,1760699,0.890625,-0.012207,-0.467285,8.231708,-5.548780,-5.365854,16.568750,-37.137501,1.856250,0.0,1.000000,0.000000,0.000000,0.000000
1782117261.292959,1760709,0.899414,-0.016113,-0.473633,7.439024,-6.280488,-5.365854,16.768751,-36.862499,1.556250,0.0,1.000000,0.000000,0.000000,0.000000
1782117261.302959,1760719,0.899902,-0.017578,-0.470215,7.012195,-6.280488,-4.939024,16.768751,-36.862499,1.556250,0.0,1.000000,0.000000,0.000000,0.000000
1782117261.312959,1760729,0.895020,-0.019043,-0.468750,6.707317,-6.646342,-4.573171,16.662500,-37.125000,1.600000,0.0,1.000000,0.000000,0.000000,0.000000
1782117261.322959,1760739,0.886230,-0.021973,-0.462891,6.646342,-7.134147,-4.207317,16.662500,-37.125000,1.600000,0.0,1.000000,0.000000,0.000000,0.000000
1782117261.332959,1760749,0.882812,-0.015137,-0.455078,6.341464,-7.743903,-4.085366,16.943750,-36.693752,1.206250,0.0,1.000000,0.000000,0.000000,0.000000
1782117261.342959,1760759,0.888184,-0.012695,-0.455078,5.975610,-8.414635,-4.146341,16.943750,-36.693752,1.206250,0.0,1.000000,0.000000,0.000000,0.000000
1782117261.352959,1760769,0.890625,-0.013672,-0.451172,5.670732,-8.719512,-3.902439,16.893751,-36.799999,1.137500,0.0,1.000000,0.000000,0.000000,0.000000
1782117261.362959,1760779,0.893555,-0.016113,-0.439453,5.304878,-9.024390,-3.353659,16.893751,-36.799999,1.137500,0.0,1.000000,0.000000,0.000000,0.000000
1782117261.372959,1760789,0.896973,-0.018555,-0.428223,4.817073,-8.902439,-2.926829,16.787500,-37.018749,1.050000,0.0,1.000000,0.000000,0.000000,0.000000
1782117261.382959,1760799,0.897949,-0.021484,-0.428223,3.902439,-8.597561,-2.560976,16.787500,-37.018749,1.050000,0.0,1.000000,0.000000,0.000000,0.000000
1782117261.392959,1760809,0.898926,-0.020996,-0.433594,3.048780,-8.475610,-2.439024,16.850000,-36.968750,0.875000,0.0,1.000000,0.000000,0.000000,0.000000
1782117261.402959,1760819,0.908203,-0.015625,-0.437012,2.317073,-8.658537,-2.500000,16.850000,-36.968750,0.875000,0.0,1.000000,0.000000,0.000000,0.000000
1782117261.413960,1760830,0.915039,-0.015137,-0.436523,1.219512,-8.475610,-2.378049,16.831251,-36.968750,0.750000,0.0,1.000000,0.000000,0.000000,0.000000
1782117261.422959,1760839,0.911133,-0.016602,-0.434570,0.121951,-8.109756,-1.951220,16.831251,-36.968750,0.750000,0.0,1.000000,0.000000,0.000000,0.000000
1782117261.433959,1760850,0.903809,-0.017090,-0.433594,-0.731707,-7.987805,-1.524390,16.875000,-36.962502,0.668750,0.0,1.000000,0.000000,0.000000,0.000000
1782117261.442959,1760859,0.900879,-0.019043,-0.429688,-1.158537,-8.231708,-1.402439,16.875000,-36.962502,0.668750,0.0,1.000000,0.000000,0.000000,0.000000
1782117261.452959,1760869,0.902344,-0.025879,-0.428223,-1.585366,-8.292683,-1.219512,16.887501,-36.993752,0.587500,0.0,1.000000,0.000000,0.000000,0.000000
1782117261.462959,1760879,0.907227,-0.030762,-0.427734,-1.768293,-8.170732,-1.097561,16.887501,-36.993752,0.587500,0.0,1.000000,0.000000,0.000000,0.000000
1782117261.472960,1760889,0.910645,-0.033203,-0.428223,-1.768293,-7.682927,-1.097561,16.906250,-36.993752,0.437500,0.0,1.000000,0.000000,0.000000,0.000000
1782117261.483959,1760900,0.915527,-0.037109,-0.427246,-1.402439,-7.134147,-0.975610,16.906250,-36.993752,0.437500,0.0,1.000000,0.000000,0.000000,0.000000
1782117261.493959,1760910,0.917480,-0.038574,-0.428711,-1.219512,-6.402439,-0.792683,16.918751,-37.000000,0.281250,0.0,1.000000,0.000000,0.000000,0.000000
1782117261.502959,1760919,0.913086,-0.038086,-0.429199,-0.975610,-5.609756,-0.609756,16.918751,-37.000000,0.281250,0.0,1.000000,0.000000,0.000000,0.000000
1782117261.512959,1760929,0.905273,-0.042480,-0.428223,-0.609756,-5.000000,-0.365854,16.918751,-36.962502,0.293750,0.0,1.000000,0.000000,0.000000,0.000000
1782117261.523959,1760940,0.900391,-0.044922,-0.430664,-0.182927,-4.939024,-0.426829,16.918751,-36.962502,0.293750,0.0,1.000000,0.000000,0.000000,0.000000
1782117261.532959,1760949,0.899414,-0.045898,-0.435547,0.426829,-4.817073,-0.609756,16.975000,-36.943752,0.181250,0.0,1.000000,0.000000,0.000000,0.000000
1782117261.543959,1760960,0.899414,-0.045898,-0.440918,1.036585,-4.512195,-0.792683,16.975000,-36.943752,0.181250,0.0,1.000000,0.000000,0.000000,0.000000
1782117261.552959,1760969,0.902344,-0.041992,-0.445801,1.646341,-4.146341,-0.853659,16.962500,-36.968750,0.150000,0.0,1.000000,0.000000,0.000000,0.000000
1782117261.562959,1760979,0.895996,-0.035645,-0.447266,1.890244,-3.719512,-0.853659,16.962500,-36.968750,0.150000,0.0,1.000000,0.000000,0.000000,0.000000
1782117261.573959,1760990,0.893066,-0.031738,-0.447754,1.951220,-3.719512,-0.853659,16.993750,-36.962502,0.068750,0.0,1.000000,0.000000,0.000000,0.000000
1782117261.582959,1760999,0.892578,-0.031250,-0.449219,2.134146,-3.780488,-0.914634,16.993750,-36.962502,0.068750,0.0,1.000000,0.000000,0.000000,0.000000
1782117261.593959,1761010,0.887695,-0.031738,-0.449707,2.378049,-3.780488,-0.914634,16.962500,-36.962502,-0.050000,0.0,1.000000,0.000000,0.000000,0.000000
1782117261.602959,1761019,0.883301,-0.031250,-0.451660,2.621951,-4.024390,-0.914634,16.962500,-36.962502,-0.050000,0.0,1.000000,0.000000,0.000000,0.000000
1782117261.613959,1761030,0.882324,-0.027832,-0.456543,2.621951,-4.451220,-1.097561,16.968750,-36.950001,-0.112500,0.0,1.000000,0.000000,0.000000,0.000000
1782117261.622959,1761039,0.887207,-0.021484,-0.459473,2.439024,-4.756098,-1.402439,16.968750,-36.950001,-0.112500,0.0,1.000000,0.000000,0.000000,0.000000
1782117261.632959,1761049,0.891113,-0.015625,-0.458496,2.195122,-4.878049,-1.402439,16.993750,-36.962502,-0.243750,0.0,1.000000,0.000000,0.000000,0.000000
1782117261.642959,1761059,0.891113,-0.015137,-0.455078,1.768293,-4.573171,-1.219512,16.993750,-36.962502,-0.243750,0.0,1.000000,0.000000,0.000000,0.000000
1782117261.652959,1761069,0.890625,-0.015625,-0.447754,1.097561,-4.451220,-0.914634,16.956251,-36.987499,-0.243750,0.0,1.000000,0.000000,0.000000,0.000000
1782117261.662959,1761079,0.889160,-0.024414,-0.441895,0.365854,-4.329268,-0.609756,16.956251,-36.987499,-0.243750,0.0,1.000000,0.000000,0.000000,0.000000
1782117261.673959,1761090,0.888672,-0.032227,-0.443359,-0.121951,-4.390244,-0.548781,16.968750,-36.968750,-0.331250,0.0,1.000000,0.000000,0.000000,0.000000
1782117261.682959,1761099,0.890137,-0.037109,-0.447754,-0.548781,-4.390244,-0.243902,16.968750,-36.968750,-0.331250,0.0,1.000000,0.000000,0.000000,0.000000
1782117261.692959,1761109,0.893555,-0.040527,-0.452148,-0.731707,-4.085366,-0.182927,17.000000,-37.049999,-0.425000,0.0,1.000000,0.000000,0.000000,0.000000
1782117261.702959,1761119,0.893066,-0.041992,-0.455566,-0.426829,-3.719512,-0.121951,17.000000,-37.049999,-0.425000,0.0,1.000000,0.000000,0.000000,0.000000
1782117261.712959,1761129,0.895508,-0.041504,-0.452637,0.304878,-3.719512,-0.121951,17.006250,-36.968750,-0.406250,0.0,1.000000,0.000000,0.000000,0.000000
1782117261.723959,1761140,0.900391,-0.036621,-0.455078,0.548781,-3.475610,-0.121951,17.006250,-36.968750,-0.406250,0.0,1.000000,0.000000,0.000000,0.000000
1782117261.732960,1761149,0.897461,-0.030273,-0.457520,0.000000,-3.048780,0.060976,17.012501,-36.937500,-0.593750,0.0,1.000000,0.000000,0.000000,0.000000
1782117261.742959,1761159,0.892578,-0.026367,-0.458496,-0.609756,-2.804878,0.182927,17.012501,-36.937500,-0.593750,0.0,1.000000,0.000000,0.000000,0.000000
1782117261.752959,1761169,0.893066,-0.027832,-0.457520,-1.036585,-2.926829,0.121951,17.081251,-36.912502,-0.618750,0.0,1.000000,0.000000,0.000000,0.000000
1782117261.762959,1761179,0.894531,-0.024414,-0.457520,-1.097561,-2.560976,0.000000,17.081251,-36.912502,-0.618750,0.0,1.000000,0.000000,0.000000,0.000000
1782117261.772959,1761189,0.894531,-0.019531,-0.458496,-0.792683,-2.073171,-0.121951,16.987501,-37.031250,-0.631250,0.0,1.000000,0.000000,0.000000,0.000000
1782117261.782959,1761199,0.897461,-0.005859,-0.461426,-0.853659,-1.585366,-0.121951,16.987501,-37.031250,-0.631250,0.0,1.000000,0.000000,0.000000,0.000000
1782117261.792959,1761209,0.895996,0.006348,-0.458984,-1.951220,-1.158537,0.121951,16.962500,-37.087502,-0.562500,0.0,1.000000,0.000000,0.000000,0.000000
1782117261.802959,1761219,0.889160,0.007812,-0.454590,-4.085366,-0.914634,0.792683,16.962500,-37.087502,-0.562500,0.0,1.000000,0.000000,0.000000,0.000000
1782117261.812959,1761229,0.879883,0.000488,-0.449707,-6.280488,-1.158537,1.707317,17.075001,-36.850002,-0.712500,0.0,1.000000,0.000000,0.000000,0.000000
1782117261.823959,1761240,0.870605,-0.014648,-0.448242,-8.170732,-2.012195,2.378049,17.075001,-36.850002,-0.712500,0.0,1.000000,0.000000,0.000000,0.000000
1782117261.833959,1761250,0.892578,-0.042969,-0.466797,-9.268292,-3.597561,2.621951,17.006250,-37.043751,-0.587500,0.0,1.000000,0.000000,0.000000,0.000000
1782117261.842959,1761259,0.892578,-0.042969,-0.466797,-9.268292,-3.597561,2.621951,17.006250,-37.043751,-0.587500,0.0,1.000000,0.000000,0.000000,0.000000
1782117261.854959,1761271,0.902344,-0.041016,-0.471680,-8.841464,-3.048780,2.560976,16.975000,-37.100002,-0.500000,0.0,1.000000,0.000000,0.000000,0.000000
1782117261.862959,1761279,0.900879,-0.034668,-0.470215,-8.353659,-2.012195,2.500000,16.975000,-37.100002,-0.500000,0.0,1.000000,0.000000,0.000000,0.000000
1782117261.873959,1761290,0.894043,-0.022949,-0.466309,-6.646342,-0.365854,1.951220,17.006250,-37.075001,-0.518750,0.0,1.000000,0.000000,0.000000,0.000000
1782117261.882959,1761299,0.890625,-0.021973,-0.463379,-5.487805,-0.243902,1.768293,17.006250,-37.075001,-0.518750,0.0,1.000000,0.000000,0.000000,0.000000
1782117261.892959,1761309,0.891113,-0.022461,-0.462402,-4.695122,0.000000,1.829268,17.056250,-37.049999,-0.443750,0.0,1.000000,0.000000,0.000000,0.000000
1782117261.903960,1761320,0.890625,-0.022461,-0.464355,-3.963415,-0.121951,1.951220,17.056250,-37.049999,-0.443750,0.0,1.000000,0.000000,0.000000,0.000000
1782117261.914959,1761331,0.890625,-0.017578,-0.468750,-3.780488,-0.548781,2.134146,17.018751,-37.156250,-0.418750,0.0,1.000000,0.000000,0.000000,0.000000
1782117261.922959,1761339,0.893066,-0.005859,-0.465332,-3.780488,-0.975610,2.256098,17.018751,-37.156250,-0.418750,0.0,1.000000,0.000000,0.000000,0.000000
1782117261.933959,1761350,0.905273,0.000977,-0.463379,-4.329268,-1.280488,2.256098,16.968750,-37.118752,-0.437500,0.0,1.000000,0.000000,0.000000,0.000000
1782117261.942959,1761359,0.912598,-0.000977,-0.460449,-5.304878,-0.853659,2.439024,16.968750,-37.118752,-0.437500,0.0,1.000000,0.000000,0.000000,0.000000
1782117261.955959,1761372,0.911621,-0.011719,-0.457031,-5.670732,-0.182927,2.621951,16.987501,-37.156250,-0.375000,0.0,1.000000,0.000000,0.000000,0.000000
1782117261.963959,1761380,0.906738,-0.026855,-0.456055,-5.365854,0.487805,2.560976,16.987501,-37.156250,-0.375000,0.0,1.000000,0.000000,0.000000,0.000000
1782117261.972960,1761389,0.896973,-0.039062,-0.454590,-3.963415,1.158537,2.073171,17.006250,-37.156250,-0.387500,0.0,1.000000,0.000000,0.000000,0.000000
1782117261.983959,1761400,0.882324,-0.051270,-0.454102,-1.768293,1.768293,1.219512,17.006250,-37.156250,-0.387500,0.0,1.000000,0.000000,0.000000,0.000000
1782117261.996959,1761413,0.874512,-0.062988,-0.464355,0.670732,1.585366,0.243902,16.962500,-37.225002,-0.293750,0.0,1.000000,0.000000,0.000000,0.000000
1782117262.003959,1761420,0.873047,-0.072266,-0.476562,3.231707,1.097561,-0.670732,16.962500,-37.225002,-0.293750,0.0,1.000000,0.000000,0.000000,0.000000
1782117262.012959,1761429,0.869629,-0.077148,-0.490723,6.158537,0.609756,-1.402439,17.006250,-37.118752,-0.312500,0.0,1.000000,0.000000,0.000000,0.000000
1782117262.022959,1761439,0.867676,-0.077148,-0.497559,9.207317,0.060976,-2.195122,17.006250,-37.118752,-0.312500,0.0,1.000000,0.000000,0.000000,0.000000
1782117262.032959,1761449,0.870605,-0.065430,-0.506836,11.158537,0.000000,-2.804878,16.975000,-37.281250,-0.300000,0.0,1.000000,0.000000,0.000000,0.000000
1782117262.042959,1761459,0.869141,-0.041504,-0.519043,12.134147,0.731707,-3.719512,16.975000,-37.281250,-0.300000,0.0,1.000000,0.000000,0.000000,0.000000
1782117262.052959,1761469,0.863770,-0.012207,-0.513672,11.463415,0.914634,-3.841464,17.100000,-37.106251,-0.431250,0.0,1.000000,0.000000,0.000000,0.000000
1782117262.062959,1761479,0.864746,0.010742,-0.496094,8.841464,0.731707,-3.353659,17.100000,-37.106251,-0.431250,0.0,1.000000,0.000000,0.000000,0.000000
1782117262.072959,1761489,0.863281,0.026367,-0.475586,4.939024,0.914634,-2.500000,17.000000,-37.218750,-0.450000,0.0,1.000000,0.000000,0.000000,0.000000
1782117262.082959,1761499,0.863770,0.031250,-0.458496,0.548781,0.487805,-1.524390,17.000000,-37.218750,-0.450000,0.0,1.000000,0.000000,0.000000,0.000000
1782117262.092959,1761509,0.869629,0.019531,-0.447754,-3.292683,-0.609756,-0.182927,17.106251,-37.156250,-0.481250,0.0,1.000000,0.000000,0.000000,0.000000
1782117262.102959,1761519,0.876465,0.000488,-0.444336,-6.768293,-1.463415,1.646341,17.106251,-37.156250,-0.481250,0.0,1.000000,0.000000,0.000000,0.000000
1782117262.114959,1761531,0.880371,-0.010742,-0.453125,-9.573171,-2.073171,3.231707,17.050001,-37.225002,-0.350000,0.0,1.000000,0.000000,0.000000,0.000000
1782117262.122959,1761539,0.889160,-0.018066,-0.463379,-11.951220,-2.439024,4.512195,17.050001,-37.225002,-0.350000,0.0,1.000000,0.000000,0.000000,0.000000
1782117262.132959,1761549,0.902832,-0.018555,-0.474121,-13.963415,-1.951220,5.487805,17.012501,-37.168751,-0.343750,0.0,1.000000,0.000000,0.000000,0.000000
1782117262.142959,1761559,0.911621,-0.013184,-0.475586,-15.060976,-0.243902,5.914634,17.012501,-37.168751,-0.343750,0.0,1.000000,0.000000,0.000000,0.000000
1782117262.152959,1761569,0.903809,-0.013184,-0.473633,-15.243903,1.890244,5.853659,17.068750,-37.112499,-0.381250,0.0,1.000000,0.000000,0.000000,0.000000
1782117262.162959,1761579,0.896484,-0.020020,-0.474121,-14.512196,3.109756,5.243903,17.068750,-37.112499,-0.381250,0.0,1.000000,0.000000,0.000000,0.000000
1782117262.172959,1761589,0.892090,-0.030762,-0.478516,-12.682927,3.963415,4.451220,16.881250,-37.375000,-0.156250,0.0,1.000000,0.000000,0.000000,0.000000
1782117262.182959,1761599,0.883301,-0.045410,-0.483398,-10.182927,4.390244,3.780488,16.881250,-37.375000,-0.156250,0.0,1.000000,0.000000,0.000000,0.000000
1782117262.194959,1761611,0.880371,-0.056641,-0.492188,-7.621952,4.268293,3.231707,16.818750,-37.481251,0.093750,0.0,1.000000,0.000000,0.000000,0.000000
1782117262.202959,1761619,0.872559,-0.062012,-0.498535,-5.670732,4.329268,2.987805,16.818750,-37.481251,0.093750,0.0,1.000000,0.000000,0.000000,0.000000
1782117262.212959,1761629,0.863770,-0.061035,-0.501465,-3.963415,4.146341,2.743902,16.887501,-37.387501,0.143750,0.0,1.000000,0.000000,0.000000,0.000000
1782117262.222960,1761639,0.861328,-0.059082,-0.496582,-2.500000,3.780488,2.439024,16.887501,-37.387501,0.143750,0.0,1.000000,0.000000,0.000000,0.000000
1782117262.232960,1761649,0.863770,-0.056152,-0.488281,-1.463415,3.658537,2.073171,16.862501,-37.400002,0.231250,0.0,1.000000,0.000000,0.000000,0.000000
1782117262.242959,1761659,0.861816,-0.054688,-0.476562,-0.792683,3.841464,1.524390,16.862501,-37.400002,0.231250,0.0,1.000000,0.000000,0.000000,0.000000
1782117262.252959,1761669,0.865723,-0.053223,-0.466309,-0.426829,3.536585,0.914634,16.993750,-37.087502,0.131250,0.0,1.000000,0.000000,0.000000,0.000000
1782117262.262959,1761679,0.872559,-0.052246,-0.458984,-0.121951,3.353659,0.121951,16.993750,-37.087502,0.131250,0.0,1.000000,0.000000,0.000000,0.000000
1782117262.274959,1761691,0.875977,-0.050781,-0.455566,0.000000,3.536585,-0.670732,16.675001,-37.512501,0.412500,0.0,1.000000,0.000000,0.000000,0.000000
1782117262.282959,1761699,0.875488,-0.048340,-0.453613,0.304878,3.475610,-1.097561,16.675001,-37.512501,0.412500,0.0,1.000000,0.000000,0.000000,0.000000
1782117262.292959,1761709,0.878906,-0.041504,-0.455078,0.487805,3.475610,-1.524390,16.806250,-37.412502,0.475000,0.0,1.000000,0.000000,0.000000,0.000000
1782117262.302959,1761719,0.879395,-0.033691,-0.453613,0.548781,3.597561,-1.890244,16.806250,-37.412502,0.475000,0.0,1.000000,0.000000,0.000000,0.000000
1782117262.313959,1761730,0.878418,-0.027344,-0.452637,0.365854,3.170732,-2.134146,16.737501,-37.450001,0.593750,0.0,1.000000,0.000000,0.000000,0.000000
1782117262.322959,1761739,0.885742,-0.023438,-0.454102,-0.365854,2.500000,-2.439024,16.737501,-37.450001,0.593750,0.0,1.000000,0.000000,0.000000,0.000000
1782117262.332959,1761749,0.892090,-0.027832,-0.453613,-1.158537,2.134146,-2.378049,16.750000,-37.412502,0.518750,0.0,1.000000,0.000000,0.000000,0.000000
1782117262.343959,1761760,0.889648,-0.040527,-0.450684,-1.829268,1.768293,-2.012195,16.825001,-37.331249,0.650000,0.0,1.000000,0.000000,0.000000,0.000000
1782117262.352959,1761769,0.889648,-0.050293,-0.451660,-2.073171,1.158537,-1.829268,16.825001,-37.331249,0.650000,0.0,1.000000,0.000000,0.000000,0.000000
1782117262.362959,1761779,0.895508,-0.057129,-0.450684,-1.524390,0.914634,-1.951220,16.725000,-37.400002,0.700000,0.0,1.000000,0.000000,0.000000,0.000000
1782117262.373959,1761790,0.903809,-0.059082,-0.447266,-0.426829,1.036585,-2.378049,16.725000,-37.400002,0.700000,0.0,1.000000,0.000000,0.000000,0.000000
1782117262.382959,1761799,0.910645,-0.061035,-0.441406,0.670732,1.524390,-2.804878,16.756250,-37.462502,0.743750,0.0,1.000000,0.000000,0.000000,0.000000
1782117262.395959,1761812,0.908203,-0.071777,-0.439941,2.439024,2.621951,-3.170732,16.756250,-37.462502,0.743750,0.0,1.000000,0.000000,0.000000,0.000000
1782117262.403960,1761820,0.904297,-0.077637,-0.441895,5.304878,3.170732,-3.536585,16.731251,-37.412502,0.787500,0.0,1.000000,0.000000,0.000000,0.000000
1782117262.413960,1761830,0.909668,-0.078125,-0.442383,7.926829,3.597561,-3.963415,16.731251,-37.412502,0.787500,0.0,1.000000,0.000000,0.000000,0.000000
1782117262.422959,1761839,0.910645,-0.074707,-0.443848,10.304878,4.817073,-4.451220,16.743750,-37.325001,0.787500,0.0,1.000000,0.000000,0.000000,0.000000
1782117262.432959,1761849,0.909180,-0.064453,-0.442871,12.012196,5.731708,-4.756098,16.743750,-37.325001,0.787500,0.0,1.000000,0.000000,0.000000,0.000000
1782117262.442959,1761859,0.903809,-0.051270,-0.442871,12.865854,6.158537,-5.060976,16.750000,-37.306252,0.843750,0.0,1.000000,0.000000,0.000000,0.000000
1782117262.452959,1761869,0.896973,-0.033203,-0.443848,12.926829,6.036585,-5.426829,16.750000,-37.306252,0.843750,0.0,1.000000,0.000000,0.000000,0.000000
1782117262.462959,1761879,0.895508,-0.020508,-0.449219,12.134147,5.609756,-5.792683,16.781250,-37.262501,0.818750,0.0,1.000000,0.000000,0.000000,0.000000
1782117262.473959,1761890,0.894531,-0.010742,-0.448242,11.158537,5.365854,-5.975610,16.781250,-37.262501,0.818750,0.0,1.000000,0.000000,0.000000,0.000000
1782117262.482960,1761899,0.896973,-0.002441,-0.443848,10.243902,4.695122,-5.914634,16.837500,-37.150002,0.712500,0.0,1.000000,0.000000,0.000000,0.000000
1782117262.492959,1761909,0.902344,0.006348,-0.434570,8.780488,4.207317,-5.548780,16.837500,-37.150002,0.712500,0.0,1.000000,0.000000,0.000000,0.000000
1782117262.502959,1761919,0.899902,0.012695,-0.436523,6.585366,4.268293,-5.000000,16.912500,-36.924999,0.712500,0.0,1.000000,0.000000,0.000000,0.000000
1782117262.512959,1761929,0.892578,0.018555,-0.441406,4.024390,3.902439,-4.085366,16.912500,-36.924999,0.712500,0.0,1.000000,0.000000,0.000000,0.000000
1782117262.523959,1761940,0.889648,0.012207,-0.439453,1.768293,3.170732,-3.109756,16.856251,-37.093750,0.781250,0.0,1.000000,0.000000,0.000000,0.000000
1782117262.532959,1761949,0.896973,0.002930,-0.434570,-0.426829,2.500000,-2.073171,16.856251,-37.093750,0.781250,0.0,1.000000,0.000000,0.000000,0.000000
1782117262.543959,1761960,0.907715,-0.009277,-0.426758,-2.317073,2.743902,-1.219512,16.818750,-37.112499,0.937500,0.0,1.000000,0.000000,0.000000,0.000000
1782117262.552959,1761969,0.914062,-0.016602,-0.419922,-3.231707,3.597561,-0.792683,16.818750,-37.112499,0.937500,0.0,1.000000,0.000000,0.000000,0.000000
1782117262.562959,1761979,0.916504,-0.018555,-0.417969,-3.536585,4.451220,-0.609756,16.881250,-37.049999,1.018750,0.0,1.000000,0.000000,0.000000,0.000000
1782117262.572959,1761989,0.914551,-0.019531,-0.418945,-3.597561,4.939024,-0.731707,16.881250,-37.049999,1.018750,0.0,1.000000,0.000000,0.000000,0.000000
1782117262.582959,1761999,0.911621,-0.018066,-0.419922,-3.475610,5.243903,-0.792683,16.825001,-37.081249,1.131250,0.0,1.000000,0.000000,0.000000,0.000000
1782117262.592959,1762009,0.905762,-0.019531,-0.419434,-3.109756,5.121951,-0.853659,16.825001,-37.081249,1.131250,0.0,1.000000,0.000000,0.000000,0.000000
1782117262.602959,1762019,0.903320,-0.024414,-0.420898,-2.682927,4.817073,-1.036585,16.831251,-37.012501,1.193750,0.0,1.000000,0.000000,0.000000,0.000000
1782117262.612959,1762029,0.900391,-0.024902,-0.422852,-2.378049,4.634146,-1.158537,16.831251,-37.012501,1.193750,0.0,1.000000,0.000000,0.000000,0.000000
1782117262.622959,1762039,0.895020,-0.023926,-0.423340,-1.890244,4.390244,-1.097561,16.750000,-37.131252,1.356250,0.0,1.000000,0.000000,0.000000,0.000000
1782117262.632959,1762049,0.892578,-0.019531,-0.423828,-1.402439,3.841464,-1.097561,16.750000,-37.131252,1.356250,0.0,1.000000,0.000000,0.000000,0.000000
1782117262.642959,1762059,0.893555,-0.013184,-0.427246,-1.158537,3.170732,-1.341463,16.800001,-37.031250,1.356250,0.0,1.000000,0.000000,0.000000,0.000000
1782117262.652959,1762069,0.895508,-0.010742,-0.430664,-0.975610,2.865854,-1.524390,16.800001,-37.031250,1.356250,0.0,1.000000,0.000000,0.000000,0.000000
1782117262.662959,1762079,0.891602,-0.012695,-0.429199,-0.731707,2.621951,-1.585366,16.756250,-37.000000,1.468750,0.0,1.000000,0.000000,0.000000,0.000000
1782117262.672959,1762089,0.891113,-0.018066,-0.425781,-0.426829,2.012195,-1.768293,16.756250,-37.000000,1.468750,0.0,1.000000,0.000000,0.000000,0.000000
1782117262.682959,1762099,0.895508,-0.023926,-0.421387,-0.243902,1.463415,-2.012195,16.800001,-36.987499,1.481250,0.0,1.000000,0.000000,0.000000,0.000000
1782117262.693959,1762110,0.903320,-0.026855,-0.418945,0.000000,1.158537,-2.195122,16.800001,-36.987499,1.481250,0.0,1.000000,0.000000,0.000000,0.000000
1782117262.703959,1762120,0.907227,-0.030762,-0.416504,0.426829,1.341463,-2.317073,16.843750,-36.799999,1.450000,0.0,1.000000,0.000000,0.000000,0.000000
1782117262.713959,1762130,0.915527,-0.029297,-0.415527,1.280488,1.280488,-2.439024,16.843750,-36.799999,1.450000,0.0,1.000000,0.000000,0.000000,0.000000
1782117262.722960,1762139,0.915527,-0.029297,-0.415527,1.280488,1.280488,-2.439024,16.956251,-36.668751,1.387500,0.0,1.000000,0.000000,0.000000,0.000000
1782117262.732960,1762149,0.923828,-0.026367,-0.408691,1.829268,1.768293,-2.317073,16.956251,-36.668751,1.387500,0.0,1.000000,0.000000,0.000000,0.000000
1782117262.742959,1762159,0.919922,-0.021973,-0.402832,1.768293,2.378049,-2.073171,16.887501,-36.787502,1.500000,0.0,1.000000,0.000000,0.000000,0.000000
1782117262.752959,1762169,0.917969,-0.019043,-0.397949,1.524390,2.500000,-1.707317,16.887501,-36.787502,1.500000,0.0,1.000000,0.000000,0.000000,0.000000
1782117262.762959,1762179,0.917969,-0.010742,-0.396973,0.853659,2.560976,-1.341463,16.825001,-36.887501,1.618750,0.0,1.000000,0.000000,0.000000,0.000000
1782117262.772959,1762189,0.914551,-0.004883,-0.397949,0.060976,2.682927,-0.914634,16.825001,-36.887501,1.618750,0.0,1.000000,0.000000,0.000000,0.000000
1782117262.782959,1762199,0.915039,0.002441,-0.403320,-1.585366,2.012195,-0.487805,16.868750,-36.762501,1.575000,0.0,1.000000,0.000000,0.000000,0.000000
1782117262.792959,1762209,0.921387,0.006348,-0.406250,-2.439024,2.012195,-0.304878,16.868750,-36.762501,1.575000,0.0,1.000000,0.000000,0.000000,0.000000
1782117262.802959,1762219,0.923340,0.012695,-0.411133,-3.292683,2.317073,-0.182927,16.818750,-36.875000,1.693750,0.0,1.000000,0.000000,0.000000,0.000000
1782117262.812959,1762229,0.924805,0.019531,-0.411133,-4.268293,2.804878,0.000000,16.818750,-36.875000,1.693750,0.0,1.000000,0.000000,0.000000,0.000000
1782117262.822959,1762239,0.921387,0.029297,-0.408691,-5.731708,3.048780,0.365854,16.756250,-36.875000,1.768750,0.0,1.000000,0.000000,0.000000,0.000000
1782117262.832959,1762249,0.915527,0.033203,-0.405762,-7.439024,3.536585,0.731707,16.756250,-36.875000,1.768750,0.0,1.000000,0.000000,0.000000,0.000000
1782117262.842959,1762259,0.905762,0.033691,-0.408203,-9.207317,3.475610,1.097561,16.818750,-36.875000,1.931250,0.0,1.000000,0.000000,0.000000,0.000000
1782117262.852959,1762269,0.901367,0.029297,-0.411621,-10.548780,3.109756,1.341463,16.818750,-36.875000,1.931250,0.0,1.000000,0.000000,0.000000,0.000000
1782117262.862959,1762279,0.901367,0.020508,-0.416992,-11.646341,2.621951,1.646341,16.756250,-36.956249,2.075000,0.0,1.000000,0.000000,0.000000,0.000000
1782117262.873959,1762290,0.910645,0.014648,-0.418457,-12.134147,2.195122,2.073171,16.756250,-36.956249,2.075000,0.0,1.000000,0.000000,0.000000,0.000000
1782117262.883959,1762300,0.917480,0.015137,-0.416504,-12.865854,2.256098,2.439024,16.818750,-36.950001,2.218750,0.0,1.000000,0.000000,0.000000,0.000000
1782117262.892959,1762309,0.916992,0.013672,-0.417480,-14.024390,2.682927,2.987805,16.818750,-36.950001,2.218750,0.0,1.000000,0.000000,0.000000,0.000000
1782117262.902959,1762319,0.906738,0.014160,-0.417480,-15.487805,2.926829,3.353659,16.812500,-36.993752,2.343750,0.0,1.000000,0.000000,0.000000,0.000000
1782117262.912959,1762329,0.894531,0.004883,-0.418457,-16.585365,2.804878,3.414634,16.812500,-36.993752,2.343750,0.0,1.000000,0.000000,0.000000,0.000000
1782117262.923959,1762340,0.892090,-0.011230,-0.422852,-16.646341,1.951220,3.292683,16.756250,-37.018749,2.493750,0.0,1.000000,0.000000,0.000000,0.000000
1782117262.933959,1762350,0.901367,-0.029297,-0.423340,-15.914635,1.341463,3.170732,16.756250,-37.018749,2.493750,0.0,1.000000,0.000000,0.000000,0.000000
1782117262.943959,1762360,0.906250,-0.048828,-0.421875,-14.573171,1.463415,3.170732,16.781250,-37.025002,2.712500,0.0,1.000000,0.000000,0.000000,0.000000
1782117262.952959,1762369,0.910156,-0.058594,-0.420410,-12.804878,1.463415,3.170732,16.781250,-37.025002,2.712500,0.0,1.000000,0.000000,0.000000,0.000000
1782117262.962959,1762379,0.914062,-0.054199,-0.418457,-11.158537,1.524390,3.170732,16.718750,-37.125000,2.850000,0.0,1.000000,0.000000,0.000000,0.000000
1782117262.972960,1762389,0.911133,-0.040039,-0.414551,-9.939025,1.646341,3.048780,16.718750,-37.125000,2.850000,0.0,1.000000,0.000000,0.000000,0.000000
1782117262.982960,1762399,0.907715,-0.026367,-0.409180,-9.390244,1.219512,2.743902,16.675001,-37.150002,3.000000,0.0,1.000000,0.000000,0.000000,0.000000
1782117262.992959,1762409,0.906250,-0.017090,-0.404297,-9.268292,0.609756,2.439024,16.675001,-37.150002,3.000000,0.0,1.000000,0.000000,0.000000,0.000000
1782117263.002959,1762419,0.906250,-0.014160,-0.399902,-9.451220,-0.060976,2.256098,16.700001,-37.143749,3.050000,0.0,1.000000,0.000000,0.000000,0.000000
1782117263.012959,1762429,0.905762,-0.015625,-0.401855,-9.817074,-0.548781,2.256098,16.700001,-37.143749,3.050000,0.0,1.000000,0.000000,0.000000,0.000000
1782117263.022959,1762439,0.912598,-0.014648,-0.401855,-9.573171,-0.853659,1.951220,16.675001,-37.181252,3.112500,0.0,1.000000,0.000000,0.000000,0.000000
1782117263.032959,1762449,0.914551,-0.016602,-0.401367,-9.024390,-0.670732,1.829268,16.675001,-37.181252,3.112500,0.0,1.000000,0.000000,0.000000,0.000000
1782117263.042959,1762459,0.913086,-0.022949,-0.398438,-8.597561,-0.731707,1.951220,16.712500,-37.049999,3.137500,0.0,1.000000,0.000000,0.000000,0.000000
1782117263.052959,1762469,0.915039,-0.024902,-0.398438,-7.987805,-1.036585,1.829268,16.712500,-37.049999,3.137500,0.0,1.000000,0.000000,0.000000,0.000000
1782117263.063959,1762480,0.918457,-0.026367,-0.397461,-7.073171,-1.036585,1.646341,16.581251,-37.299999,3.300000,0.0,1.000000,0.000000,0.000000,0.000000
1782117263.072959,1762489,0.914551,-0.030762,-0.396484,-6.219512,-1.219512,1.463415,16.581251,-37.299999,3.300000,0.0,1.000000,0.000000,0.000000,0.000000
1782117263.083959,1762500,0.914551,-0.034668,-0.396973,-5.426829,-1.463415,1.219512,16.562500,-37.293751,3.306250,0.0,1.000000,0.000000,0.000000,0.000000
1782117263.092959,1762509,0.916992,-0.037109,-0.396484,-4.695122,-1.463415,0.853659,16.562500,-37.293751,3.306250,0.0,1.000000,0.000000,0.000000,0.000000
1782117263.103959,1762520,0.916016,-0.039551,-0.395996,-3.963415,-1.219512,0.731707,16.562500,-37.325001,3.343750,0.0,1.000000,0.000000,0.000000,0.000000
1782117263.112959,1762529,0.911621,-0.041504,-0.397949,-3.170732,-1.097561,0.548781,16.562500,-37.325001,3.343750,0.0,1.000000,0.000000,0.000000,0.000000
1782117263.123959,1762540,0.908691,-0.038086,-0.400879,-2.317073,-1.280488,0.365854,16.568750,-37.299999,3.343750,0.0,1.000000,0.000000,0.000000,0.000000
1782117263.133959,1762550,0.908691,-0.039062,-0.401367,-1.219512,-1.585366,0.182927,16.568750,-37.299999,3.343750,0.0,1.000000,0.000000,0.000000,0.000000
1782117263.142959,1762559,0.912109,-0.036133,-0.402832,-0.243902,-2.012195,0.121951,16.593750,-37.306252,3.325000,0.0,1.000000,0.000000,0.000000,0.000000
1782117263.152959,1762569,0.913574,-0.029297,-0.407227,0.426829,-2.378049,0.121951,16.593750,-37.306252,3.325000,0.0,1.000000,0.000000,0.000000,0.000000
1782117263.162959,1762579,0.913574,-0.020508,-0.410645,0.731707,-2.560976,0.060976,16.587500,-37.362499,3.300000,0.0,1.000000,0.000000,0.000000,0.000000
1782117263.172959,1762589,0.906738,-0.016602,-0.412598,0.731707,-2.682927,0.060976,16.587500,-37.362499,3.300000,0.0,1.000000,0.000000,0.000000,0.000000
1782117263.182959,1762599,0.895996,-0.017578,-0.412109,0.914634,-2.987805,0.000000,16.550001,-37.318752,3.325000,0.0,1.000000,0.000000,0.000000,0.000000
1782117263.192959,1762609,0.890625,-0.027344,-0.414551,1.646341,-3.719512,-0.243902,16.550001,-37.318752,3.325000,0.0,1.000000,0.000000,0.000000,0.000000
1782117263.202959,1762619,0.892090,-0.039062,-0.416016,2.865854,-4.146341,-0.487805,16.525000,-37.412502,3.206250,0.0,1.000000,0.000000,0.000000,0.000000
1782117263.212959,1762629,0.898438,-0.050781,-0.423340,4.756098,-4.695122,-0.853659,16.525000,-37.412502,3.206250,0.0,1.000000,0.000000,0.000000,0.000000
1782117263.222960,1762639,0.913574,-0.056641,-0.431641,6.768293,-4.634146,-1.341463,16.543751,-37.412502,3.075000,0.0,1.000000,0.000000,0.000000,0.000000
1782117263.232960,1762649,0.913086,-0.057129,-0.434570,8.841464,-4.268293,-1.646341,16.543751,-37.412502,3.075000,0.0,1.000000,0.000000,0.000000,0.000000
1782117263.243959,1762660,0.908691,-0.047852,-0.435547,10.792684,-3.963415,-1.768293,16.587500,-37.337502,2.893750,0.0,1.000000,0.000000,0.000000,0.000000
1782117263.252959,1762669,0.901367,-0.036133,-0.431152,12.439025,-3.719512,-1.829268,16.587500,-37.337502,2.893750,0.0,1.000000,0.000000,0.000000,0.000000
1782117263.262959,1762679,0.897949,-0.020020,-0.419922,13.475610,-4.024390,-1.829268,16.543751,-37.400002,2.800000,0.0,1.000000,0.000000,0.000000,0.000000
1782117263.273959,1762690,0.906738,-0.000977,-0.409668,13.109756,-4.451220,-1.707317,16.543751,-37.400002,2.800000,0.0,1.000000,0.000000,0.000000,0.000000
1782117263.282959,1762699,0.918457,0.015625,-0.410156,11.341464,-4.085366,-1.585366,16.581251,-37.375000,2.606250,0.0,1.000000,0.000000,0.000000,0.000000
1782117263.292959,1762709,0.910156,0.020508,-0.416016,8.963415,-3.475610,-1.036585,16.581251,-37.375000,2.606250,0.0,1.000000,0.000000,0.000000,0.000000
1782117263.302959,1762719,0.892578,0.024902,-0.419922,6.890244,-3.780488,-0.426829,16.593750,-37.318752,2.462500,0.0,1.000000,0.000000,0.000000,0.000000
1782117263.313959,1762730,0.884277,0.020996,-0.425293,5.182927,-4.695122,-0.243902,16.593750,-37.318752,2.462500,0.0,1.000000,0.000000,0.000000,0.000000
1782117263.322959,1762739,0.891113,0.006836,-0.431152,3.902439,-5.182927,-0.487805,16.531250,-37.293751,2.406250,0.0,1.000000,0.000000,0.000000,0.000000
1782117263.332959,1762749,0.903809,-0.011230,-0.431152,3.475610,-4.695122,-0.853659,16.531250,-37.293751,2.406250,0.0,1.000000,0.000000,0.000000,0.000000
1782117263.343959,1762760,0.908691,-0.031250,-0.427734,3.902439,-3.841464,-1.036585,16.675001,-37.200001,2.218750,0.0,1.000000,0.000000,0.000000,0.000000
1782117263.352959,1762769,0.913086,-0.045898,-0.427246,4.756098,-3.231707,-1.280488,16.675001,-37.200001,2.218750,0.0,1.000000,0.000000,0.000000,0.000000
1782117263.362959,1762779,0.917480,-0.049805,-0.432129,5.975610,-2.682927,-1.646341,16.593750,-37.343750,2.225000,0.0,1.000000,0.000000,0.000000,0.000000
1782117263.372959,1762789,0.920410,-0.043457,-0.435547,6.890244,-2.073171,-1.951220,16.593750,-37.343750,2.225000,0.0,1.000000,0.000000,0.000000,0.000000
1782117263.382959,1762799,0.913086,-0.036621,-0.435547,7.621952,-1.402439,-1.951220,16.681250,-37.187500,2.025000,0.0,1.000000,0.000000,0.000000,0.000000
1782117263.394959,1762811,0.908691,-0.028809,-0.435059,7.987805,-1.341463,-2.073171,16.681250,-37.187500,2.025000,0.0,1.000000,0.000000,0.000000,0.000000
1782117263.404959,1762821,0.908691,-0.019043,-0.433105,7.743903,-1.341463,-2.195122,16.587500,-37.299999,2.018750,0.0,1.000000,0.000000,0.000000,0.000000
1782117263.412959,1762829,0.905762,-0.009277,-0.430664,7.317073,-1.158537,-2.317073,16.587500,-37.299999,2.018750,0.0,1.000000,0.000000,0.000000,0.000000
1782117263.423959,1762840,0.902832,-0.002441,-0.428711,7.012195,-1.097561,-2.378049,16.743750,-37.049999,1.781250,0.0,1.000000,0.000000,0.000000,0.000000
1782117263.432959,1762849,0.901367,0.002441,-0.427734,6.707317,-1.219512,-2.378049,16.743750,-37.049999,1.781250,0.0,1.000000,0.000000,0.000000,0.000000
1782117263.443959,1762860,0.901855,0.006348,-0.428711,6.219512,-1.402439,-2.317073,16.618750,-37.293751,1.862500,0.0,1.000000,0.000000,0.000000,0.000000
1782117263.452959,1762869,0.902832,0.006348,-0.430664,5.243903,-1.463415,-2.256098,16.618750,-37.293751,1.862500,0.0,1.000000,0.000000,0.000000,0.000000
1782117263.463959,1762880,0.899414,0.000977,-0.431641,4.146341,-1.402439,-2.195122,16.793751,-36.993752,1.700000,0.0,1.000000,0.000000,0.000000,0.000000
1782117263.472960,1762889,0.896484,-0.008301,-0.435059,3.109756,-1.219512,-2.195122,16.793751,-36.993752,1.700000,0.0,1.000000,0.000000,0.000000,0.000000
1782117263.483959,1762900,0.892578,-0.019043,-0.436035,2.743902,-1.158537,-2.195122,16.693750,-37.250000,1.793750,0.0,1.000000,0.000000,0.000000,0.000000
1782117263.492959,1762909,0.894531,-0.029297,-0.438965,2.987805,-1.158537,-2.317073,16.693750,-37.250000,1.793750,0.0,1.000000,0.000000,0.000000,0.000000
1782117263.502959,1762919,0.899414,-0.033691,-0.440430,3.536585,-0.914634,-2.500000,16.762501,-37.212502,1.737500,0.0,1.000000,0.000000,0.000000,0.000000
1782117263.513959,1762930,0.900879,-0.036133,-0.445312,3.902439,-0.609756,-2.560976,16.762501,-37.212502,1.737500,0.0,1.000000,0.000000,0.000000,0.000000
1782117263.523959,1762940,0.898926,-0.030762,-0.448730,4.085366,-0.365854,-2.500000,16.737501,-37.200001,1.718750,0.0,1.000000,0.000000,0.000000,0.000000
1782117263.532959,1762949,0.895508,-0.020996,-0.450195,4.146341,-0.426829,-2.439024,16.737501,-37.200001,1.718750,0.0,1.000000,0.000000,0.000000,0.000000
1782117263.542959,1762959,0.896484,-0.014648,-0.449219,4.207317,-0.853659,-2.439024,16.800001,-37.056252,1.593750,0.0,1.000000,0.000000,0.000000,0.000000
1782117263.552959,1762969,0.902344,-0.003418,-0.443359,4.024390,-1.036585,-2.317073,16.800001,-37.056252,1.593750,0.0,1.000000,0.000000,0.000000,0.000000
1782117263.563959,1762980,0.900391,0.006836,-0.435547,3.109756,-1.036585,-2.073171,16.831251,-37.187500,1.600000,0.0,1.000000,0.000000,0.000000,0.000000
1782117263.572959,1762989,0.895508,0.010742,-0.429688,1.768293,-1.097561,-1.829268,16.831251,-37.187500,1.600000,0.0,1.000000,0.000000,0.000000,0.000000
1782117263.582959,1762999,0.894531,0.012695,-0.430176,0.243902,-1.341463,-1.707317,16.843750,-37.131252,1.612500,0.0,1.000000,0.000000,0.000000,0.000000
1782117263.592959,1763009,0.894531,0.011719,-0.435059,-1.158537,-1.829268,-1.707317,16.843750,-37.131252,1.612500,0.0,1.000000,0.000000,0.000000,0.000000
1782117263.602959,1763019,0.894531,0.002930,-0.434082,-2.073171,-2.195122,-1.524390,16.943750,-36.881252,1.431250,0.0,1.000000,0.000000,0.000000,0.000000
1782117263.612959,1763029,0.896484,-0.012207,-0.432617,-2.195122,-2.317073,-1.463415,16.943750,-36.881252,1.431250,0.0,1.000000,0.000000,0.000000,0.000000
1782117263.622959,1763039,0.901367,-0.026367,-0.430176,-2.195122,-2.317073,-0.914634,16.900000,-37.131252,1.612500,0.0,1.000000,0.000000,0.000000,0.000000
1782117263.632959,1763049,0.902832,-0.036133,-0.430664,-2.073171,-2.317073,-0.792683,16.900000,-37.131252,1.612500,0.0,1.000000,0.000000,0.000000,0.000000
1782117263.644959,1763061,0.908203,-0.044434,-0.435547,-1.402439,-2.073171,-0.914634,16.893751,-37.112499,1.481250,0.0,1.000000,0.000000,0.000000,0.000000
1782117263.652959,1763069,0.908203,-0.044434,-0.435547,-1.402439,-2.073171,-0.914634,16.893751,-37.112499,1.481250,0.0,1.000000,0.000000,0.000000,0.000000
1782117263.662959,1763079,0.905762,-0.043457,-0.435059,-0.792683,-1.829268,-0.853659,16.937500,-37.000000,1.468750,0.0,1.000000,0.000000,0.000000,0.000000
1782117263.672959,1763089,0.904297,-0.041504,-0.433105,-0.304878,-1.707317,-0.914634,16.937500,-37.000000,1.468750,0.0,1.000000,0.000000,0.000000,0.000000
1782117263.683959,1763100,0.902832,-0.027832,-0.434082,0.426829,-1.707317,-1.036585,16.931250,-37.131252,1.506250,0.0,1.000000,0.000000,0.000000,0.000000
1782117263.692959,1763109,0.902832,-0.027832,-0.434082,0.426829,-1.707317,-1.036585,16.931250,-37.131252,1.506250,0.0,1.000000,0.000000,0.000000,0.000000
1782117263.702959,1763119,0.900391,-0.010254,-0.433105,0.304878,-1.646341,-1.097561,16.925001,-37.068752,1.431250,0.0,1.000000,0.000000,0.000000,0.000000
1782117263.712959,1763129,0.900879,-0.003906,-0.431641,0.060976,-1.646341,-1.036585,16.925001,-37.068752,1.431250,0.0,1.000000,0.000000,0.000000,0.000000
1782117263.722960,1763139,0.897949,-0.006348,-0.431152,-0.304878,-1.585366,-0.914634,16.918751,-37.131252,1.475000,0.0,1.000000,0.000000,0.000000,0.000000
1782117263.733959,1763150,0.898438,-0.008789,-0.429199,-0.731707,-1.768293,-0.792683,16.918751,-37.131252,1.475000,0.0,1.000000,0.000000,0.000000,0.000000
1782117263.742959,1763159,0.901855,-0.012695,-0.432129,-1.219512,-2.012195,-0.792683,16.937500,-37.018749,1.400000,0.0,1.000000,0.000000,0.000000,0.000000
1782117263.753959,1763170,0.902344,-0.017578,-0.437988,-1.402439,-1.890244,-0.914634,16.937500,-37.018749,1.400000,0.0,1.000000,0.000000,0.000000,0.000000
1782117263.763959,1763180,0.900391,-0.024902,-0.441406,-1.036585,-1.829268,-1.097561,16.887501,-37.112499,1.425000,0.0,1.000000,0.000000,0.000000,0.000000
1782117263.772959,1763189,0.901367,-0.032715,-0.443848,-0.182927,-1.707317,-1.402439,16.887501,-37.112499,1.425000,0.0,1.000000,0.000000,0.000000,0.000000
1782117263.782959,1763199,0.903809,-0.037598,-0.444824,1.097561,-1.402439,-1.646341,16.975000,-37.043751,1.431250,0.0,1.000000,0.000000,0.000000,0.000000
1782117263.792959,1763209,0.899414,-0.041016,-0.447266,1.890244,-0.975610,-1.646341,16.975000,-37.043751,1.431250,0.0,1.000000,0.000000,0.000000,0.000000
1782117263.803959,1763220,0.892578,-0.037109,-0.449219,2.621951,-0.853659,-1.646341,16.906250,-37.100002,1.393750,0.0,1.000000,0.000000,0.000000,0.000000
1782117263.812959,1763229,0.891113,-0.031738,-0.450195,3.536585,-0.975610,-1.707317,16.906250,-37.100002,1.393750,0.0,1.000000,0.000000,0.000000,0.000000
1782117263.822959,1763239,0.891113,-0.025391,-0.450195,4.390244,-1.158537,-1.829268,17.006250,-37.049999,1.275000,0.0,1.000000,0.000000,0.000000,0.000000
1782117263.832959,1763249,0.891113,-0.016602,-0.447754,5.000000,-1.280488,-2.012195,17.006250,-37.049999,1.275000,0.0,1.000000,0.000000,0.000000,0.000000
1782117263.844959,1763261,0.886230,-0.008301,-0.447754,5.182927,-1.158537,-2.134146,16.943750,-37.112499,1.287500,0.0,1.000000,0.000000,0.000000,0.000000
1782117263.853959,1763270,0.882812,-0.002930,-0.451660,5.060976,-1.280488,-2.256098,16.968750,-36.993752,1.250000,0.0,1.000000,0.000000,0.000000,0.000000
1782117263.862959,1763279,0.884277,-0.001465,-0.454590,4.817073,-1.768293,-2.439024,16.968750,-36.993752,1.250000,0.0,1.000000,0.000000,0.000000,0.000000
1782117263.872959,1763289,0.888184,-0.004395,-0.457031,4.573171,-1.707317,-2.500000,16.968750,-36.993752,1.250000,0.0,1.000000,0.000000,0.000000,0.000000
1782117263.884959,1763301,0.889648,-0.012207,-0.458496,5.060976,-1.646341,-2.743902,17.031250,-36.825001,1.000000,0.0,1.000000,0.000000,0.000000,0.000000
1782117263.892959,1763309,0.893555,-0.020020,-0.459473,6.585366,-1.707317,-3.048780,17.031250,-36.825001,1.000000,0.0,1.000000,0.000000,0.000000,0.000000
1782117263.902959,1763319,0.894043,-0.022949,-0.458496,8.170732,-1.585366,-3.170732,17.025000,-36.931252,1.037500,0.0,1.000000,0.000000,0.000000,0.000000
1782117263.912959,1763329,0.895020,-0.020996,-0.456055,9.512196,-1.585366,-3.597561,17.025000,-36.931252,1.037500,0.0,1.000000,0.000000,0.000000,0.000000
1782117263.923959,1763340,0.895020,-0.020508,-0.453125,10.365854,-1.341463,-3.902439,16.968750,-36.975002,1.031250,0.0,1.000000,0.000000,0.000000,0.000000
1782117263.932959,1763349,0.887207,-0.020508,-0.450195,11.097561,-1.280488,-4.268293,16.968750,-36.975002,1.031250,0.0,1.000000,0.000000,0.000000,0.000000
1782117263.942959,1763359,0.886719,-0.021973,-0.445801,11.890244,-1.768293,-4.634146,17.131250,-36.781250,0.787500,0.0,1.000000,0.000000,0.000000,0.000000
1782117263.952959,1763369,0.894531,-0.022461,-0.444824,12.500000,-2.012195,-4.939024,17.131250,-36.781250,0.787500,0.0,1.000000,0.000000,0.000000,0.000000
1782117263.966959,1763383,0.898926,-0.019531,-0.444336,12.804878,-1.768293,-5.060976,17.043751,-36.950001,0.793750,0.0,1.000000,0.000000,0.000000,0.000000
1782117263.972960,1763389,0.901367,-0.018066,-0.448730,12.987805,-1.707317,-5.304878,17.068750,-36.837502,0.612500,0.0,1.000000,0.000000,0.000000,0.000000
1782117263.982960,1763399,0.901367,-0.015137,-0.457031,13.109756,-1.951220,-5.182927,17.068750,-36.837502,0.612500,0.0,1.000000,0.000000,0.000000,0.000000
1782117263.992959,1763409,0.894531,-0.006836,-0.456543,12.743903,-1.951220,-4.695122,17.268751,-36.549999,0.387500,0.0,1.000000,0.000000,0.000000,0.000000
1782117264.004959,1763421,0.884766,-0.003906,-0.450684,12.195122,-1.951220,-4.512195,17.268751,-36.549999,0.387500,0.0,1.000000,0.000000,0.000000,0.000000
1782117264.012959,1763429,0.878906,-0.012207,-0.443359,12.134147,-2.134146,-4.878049,17.218750,-36.575001,0.312500,0.0,1.000000,0.000000,0.000000,0.000000
1782117264.022959,1763439,0.885742,-0.021484,-0.440430,12.743903,-2.743902,-5.243903,17.218750,-36.575001,0.312500,0.0,1.000000,0.000000,0.000000,0.000000
