Unix_Time_s,RelativeTime_s,P_1,P_2,P_3,P_4,P_5,P_6,P_7,P_8,P_9,P_10,P_11,P_12,P_13,P_14,P_15,P_16,P_17,P_18,P_19,P_20,P_21,P_22,P_23,P_24,P_25,P_26,P_27,P_28,P_29,P_30,P_31,P_32,P_33,P_34,P_35,P_36,P_37,P_38,P_39,P_40,P_41,P_42,P_43,P_44,P_45,P_46,P_47,P_48,P_49,P_50,P_51,P_52,P_53,P_54,P_55,P_56,P_57,P_58,P_59,P_60,P_61,P_62,P_63,P_64,P_65,P_66,P_67,P_68,P_69,P_70,P_71,P_72,P_73,P_74,P_75,P_76,P_77,P_78,P_79,P_80,P_81,P_82,P_83,P_84,P_85,P_86,P_87,P_88,P_89,P_90,P_91,P_92,P_93,P_94,P_95,P_96,P_97,P_98,P_99,P_100,P_101,P_102,P_103,P_104,P_105,P_106,P_107,P_108,P_109,P_110,P_111,P_112,P_113,P_114,P_115,P_116,P_117,P_118,P_119,P_120,P_121,P_122,P_123,P_124,P_125,P_126,P_127,P_128,P_129,P_130,P_131,P_132,P_133,P_134,P_135,P_136,P_137,P_138,P_139,P_140,P_141,P_142,P_143,P_144,P_145,P_146,P_147,P_148,P_149,P_150,P_151,P_152,P_153,P_154,P_155,P_156,P_157,P_158,P_159,P_160,P_161,P_162,P_163,P_164,P_165,P_166,P_167,P_168,P_169,P_170,P_171,P_172,P_173,P_174,P_175,P_176,P_177,P_178,P_179,P_180,P_181,P_182,P_183,P_184,P_185,P_186,P_187,P_188,P_189,P_190,P_191,P_192,P_193,P_194,P_195,P_196,P_197,P_198,P_199,P_200,P_201,P_202,P_203,P_204,P_205,P_206,P_207,P_208,P_209,P_210,P_211,P_212,P_213,P_214,P_215,P_216,P_217,P_218,P_219,P_220,P_221,P_222,P_223,P_224,P_225,P_226,P_227,P_228,P_229,P_230,P_231,P_232,P_233,Flex1,Flex2,Bat,IMU1_RefTime,IMU1_Ax,IMU1_Ay,IMU1_Az,IMU1_Wx,IMU1_Wy,IMU1_Wz,IMU1_Roll,IMU1_Pitch,IMU1_Yaw,IMU1_Hx,IMU1_Hy,IMU1_Hz,IMU1_Q0,IMU1_Q1,IMU1_Q2,IMU1_Q3,IMU2_RefTime,IMU2_Ax,IMU2_Ay,IMU2_Az,IMU2_Wx,IMU2_Wy,IMU2_Wz,IMU2_Roll,IMU2_Pitch,IMU2_Yaw,IMU2_Hx,IMU2_Hy,IMU2_Hz,IMU2_Q0,IMU2_Q1,IMU2_Q2,IMU2_Q3,IMU1_FusedRoll,IMU1_FusedPitch,IMU1_FusedYaw,IMU1_FusedQ0,IMU1_FusedQ1,IMU1_FusedQ2,IMU1_FusedQ3,IMU1_MagValid,IMU2_FusedRoll,IMU2_FusedPitch,IMU2_FusedYaw,IMU2_FusedQ0,IMU2_FusedQ1,IMU2_FusedQ2,IMU2_FusedQ3,IMU2_MagValid
1782117256.271163,0.007,1021.0,1023.0,1020.0,1022.0,1022.0,1024.0,1021.0,1021.0,1009.0,1023.0,1023.0,1024.0,1021.0,1021.0,1009.0,1020.0,1023.0,1022.0,1024.0,1021.0,1021.0,1010.0,1020.0,1020.0,1023.0,1022.0,1024.0,1021.0,1021.0,1009.0,1020.0,1019.0,1020.0,1023.0,1022.0,1024.0,1021.0,1022.0,1010.0,1019.0,1019.0,1021.0,1023.0,1023.0,1025.0,1021.0,1021.0,1009.0,1020.0,1020.0,1021.0,1019.0,1023.0,1022.0,1024.0,1021.0,1021.0,1009.0,1020.0,1020.0,1020.0,1019.0,1024.0,1022.0,1025.0,1021.0,1022.0,1010.0,1020.0,1021.0,1022.0,1021.0,1023.0,1023.0,1024.0,1021.0,1022.0,1010.0,1020.0,1020.0,1021.0,1020.0,1023.0,1022.0,1024.0,1021.0,1022.0,1009.0,1020.0,1020.0,1021.0,1019.0,1024.0,1022.0,1024.0,1021.0,1022.0,1010.0,1019.0,1019.0,1020.0,1019.0,1023.0,1023.0,1024.0,1021.0,1022.0,1009.0,1020.0,1020.0,1021.0,1019.0,1024.0,1023.0,1025.0,1022.0,1024.0,1011.0,1020.0,1021.0,1024.0,1024.0,1024.0,1026.0,1022.0,1024.0,1011.0,1020.0,1021.0,1024.0,1023.0,1026.0,1022.0,1023.0,1011.0,1019.0,1024.0,1024.0,1026.0,1023.0,1024.0,1011.0,1020.0,1024.0,1023.0,1026.0,1022.0,1023.0,1011.0,1020.0,1024.0,1024.0,1026.0,1022.0,1024.0,1011.0,1024.0,1024.0,1025.0,1021.0,1022.0,1010.0,1025.0,1025.0,1027.0,1023.0,1025.0,1013.0,1027.0,1026.0,1029.0,1025.0,1027.0,1015.0,1026.0,1025.0,1027.0,1024.0,1023.0,1012.0,1028.0,1028.0,1029.0,1027.0,1026.0,1014.0,1032.0,1033.0,1032.0,1030.0,1029.0,1018.0,1032.0,1033.0,1034.0,1027.0,1028.0,1018.0,1036.0,1035.0,1036.0,1026.0,1027.0,1020.0,1044.0,1038.0,1041.0,1028.0,1028.0,1024.0,1050.0,1041.0,1048.0,1029.0,1026.0,1030.0,1044.0,1035.0,1044.0,1028.0,1023.0,1029.0,1048.0,1040.0,1059.0,1030.0,1025.0,1087.0,1045.0,1039.0,1057.0,1030.0,1025.0,2303,2210,1902,	00:29:07.144,-0.01171875,0.07275390625,1.01953125,0.1220703125,0.42724609375,0.18310546875,4.075927734375,0.6097412109375,-78.50830078125,94.0,-675.0,-4006.0,-0.77374267578125,-0.0308837890625,0.018402099609375,0.63250732421875,4.074770588913,0.6075502272981103,-82.7150545643879,-0.7499915001415085,-0.030185699076763706,0.01951352261838247,0.6604701323464661,1,	00:29:07.145,0.0185546875,0.0244140625,1.02197265625,-0.30517578125,0.1220703125,0.54931640625,1.373291015625,-1.0601806640625,34.090576171875,4.0,620.0,-1853.0,0.9559326171875,0.01416015625,-0.005340576171875,0.293212890625,1.37245387763447,-1.0608325323930914,27.58814350762879,0.9710212540595453,0.013837822019189573,-0.006134238837939991,0.2385133328773725,1
1782117256.282133,0.018,1021.0,1024.0,1020.0,1022.0,1023.0,1024.0,1021.0,1021.0,1010.0,1022.0,1022.0,1024.0,1021.0,1021.0,1009.0,1020.0,1023.0,1023.0,1024.0,1021.0,1021.0,1009.0,1020.0,1020.0,1023.0,1023.0,1024.0,1021.0,1021.0,1009.0,1020.0,1019.0,1020.0,1023.0,1022.0,1024.0,1021.0,1021.0,1009.0,1020.0,1020.0,1020.0,1023.0,1023.0,1024.0,1021.0,1021.0,1009.0,1019.0,1020.0,1021.0,1019.0,1023.0,1023.0,1024.0,1021.0,1021.0,1010.0,1019.0,1019.0,1020.0,1018.0,1023.0,1023.0,1024.0,1022.0,1022.0,1010.0,1020.0,1021.0,1022.0,1021.0,1023.0,1023.0,1024.0,1021.0,1021.0,1010.0,1020.0,1020.0,1021.0,1020.0,1023.0,1022.0,1024.0,1021.0,1022.0,1010.0,1020.0,1020.0,1020.0,1019.0,1023.0,1022.0,1025.0,1021.0,1021.0,1010.0,1020.0,1020.0,1021.0,1019.0,1024.0,1022.0,1024.0,1021.0,1021.0,1010.0,1020.0,1020.0,1021.0,1020.0,1024.0,1023.0,1025.0,1022.0,1024.0,1011.0,1020.0,1021.0,1023.0,1024.0,1023.0,1026.0,1022.0,1024.0,1011.0,1020.0,1021.0,1024.0,1023.0,1026.0,1022.0,1022.0,1010.0,1020.0,1024.0,1024.0,1026.0,1022.0,1024.0,1011.0,1021.0,1024.0,1023.0,1025.0,1022.0,1023.0,1011.0,1021.0,1024.0,1024.0,1025.0,1022.0,1024.0,1012.0,1023.0,1024.0,1026.0,1022.0,1022.0,1010.0,1025.0,1025.0,1026.0,1023.0,1025.0,1013.0,1027.0,1027.0,1028.0,1025.0,1027.0,1014.0,1025.0,1025.0,1027.0,1024.0,1024.0,1013.0,1028.0,1028.0,1029.0,1026.0,1026.0,1016.0,1031.0,1033.0,1032.0,1029.0,1030.0,1018.0,1032.0,1032.0,1033.0,1027.0,1027.0,1018.0,1036.0,1035.0,1036.0,1026.0,1027.0,1019.0,1045.0,1038.0,1041.0,1028.0,1027.0,1024.0,1048.0,1040.0,1047.0,1029.0,1027.0,1029.0,1044.0,1036.0,1044.0,1027.0,1024.0,1029.0,1048.0,1041.0,1059.0,1030.0,1026.0,1086.0,1045.0,1039.0,1056.0,1030.0,1025.0,2303,2210,1901,	00:29:07.154,-0.01171875,0.072265625,1.02001953125,0.1220703125,0.42724609375,0.1220703125,4.0374755859375,0.6976318359375,-78.50830078125,95.0,-675.0,-4004.0,-0.773712158203125,-0.0311279296875,0.017608642578125,0.63250732421875,4.038075237788641,0.6951655387017274,-82.71396351530872,-0.7499863576286505,-0.030450477032928414,0.018728095040003733,0.6604865557114313,1,	00:29:07.155,0.01806640625,0.0244140625,1.02294921875,-0.3662109375,0.06103515625,0.54931640625,1.3568115234375,-0.966796875,34.0960693359375,3.0,621.0,-1853.0,0.9559326171875,0.013824462890625,-0.004608154296875,0.293243408203125,1.3589516702942328,-0.9692177150295285,27.593820248208775,0.9710201987159526,0.013533151911431349,-0.005385305247007945,0.238553193171608,1
1782117256.292944,0.029,1021.0,1024.0,1020.0,1022.0,1022.0,1024.0,1021.0,1021.0,1010.0,1023.0,1023.0,1024.0,1021.0,1021.0,1010.0,1020.0,1023.0,1022.0,1024.0,1020.0,1021.0,1009.0,1020.0,1020.0,1023.0,1023.0,1024.0,1021.0,1021.0,1010.0,1019.0,1020.0,1020.0,1023.0,1023.0,1024.0,1021.0,1021.0,1010.0,1020.0,1020.0,1020.0,1023.0,1023.0,1024.0,1021.0,1021.0,1010.0,1019.0,1020.0,1021.0,1019.0,1023.0,1022.0,1025.0,1022.0,1021.0,1010.0,1019.0,1020.0,1020.0,1019.0,1024.0,1022.0,1024.0,1021.0,1022.0,1010.0,1020.0,1020.0,1022.0,1021.0,1023.0,1023.0,1025.0,1021.0,1022.0,1010.0,1019.0,1020.0,1021.0,1020.0,1023.0,1023.0,1024.0,1021.0,1022.0,1010.0,1020.0,1019.0,1021.0,1019.0,1024.0,1023.0,1025.0,1022.0,1022.0,1010.0,1020.0,1020.0,1021.0,1019.0,1023.0,1023.0,1025.0,1021.0,1022.0,1010.0,1020.0,1020.0,1021.0,1019.0,1024.0,1023.0,1025.0,1023.0,1024.0,1011.0,1021.0,1021.0,1024.0,1024.0,1023.0,1025.0,1022.0,1024.0,1011.0,1020.0,1020.0,1024.0,1024.0,1025.0,1022.0,1023.0,1011.0,1020.0,1024.0,1024.0,1026.0,1023.0,1024.0,1011.0,1020.0,1024.0,1024.0,1026.0,1022.0,1024.0,1011.0,1020.0,1024.0,1024.0,1026.0,1023.0,1024.0,1011.0,1024.0,1023.0,1025.0,1021.0,1021.0,1011.0,1025.0,1025.0,1026.0,1023.0,1024.0,1013.0,1026.0,1026.0,1028.0,1025.0,1028.0,1015.0,1026.0,1025.0,1027.0,1024.0,1024.0,1013.0,1028.0,1029.0,1030.0,1027.0,1026.0,1015.0,1031.0,1033.0,1033.0,1029.0,1029.0,1018.0,1032.0,1033.0,1033.0,1027.0,1027.0,1018.0,1035.0,1035.0,1037.0,1026.0,1026.0,1020.0,1044.0,1038.0,1041.0,1028.0,1027.0,1023.0,1048.0,1041.0,1048.0,1030.0,1026.0,1029.0,1044.0,1036.0,1045.0,1027.0,1024.0,1029.0,1049.0,1040.0,1059.0,1031.0,1025.0,1086.0,1045.0,1039.0,1057.0,1031.0,1025.0,2303,2210,1902,	00:29:07.164,-0.01318359375,0.0732421875,1.0185546875,0.1220703125,0.3662109375,0.1220703125,4.119873046875,0.7470703125,-78.5028076171875,94.0,-676.0,-4009.0,-0.773712158203125,-0.03192138671875,0.0177001953125,0.632476806640625,4.1179497425619855,0.7454573507819362,-82.71149881526046,-0.7499666682815262,-0.0312633643127836,0.018858529291954203,0.6604672243128327,1,	00:29:07.165,0.0185546875,0.02392578125,1.021484375,-0.42724609375,0.1220703125,0.48828125,1.3348388671875,-1.0546875,34.1015625,4.0,623.0,-1853.0,0.955902099609375,0.013824462890625,-0.005401611328125,0.293304443359375,1.333066439793501,-1.0572165986899427,27.599115353281725,0.9710034824917162,0.01349713412236933,-0.006184285723354724,0.23860389554559683,1
1782117256.303780,0.040,1021.0,1024.0,1020.0,1022.0,1023.0,1024.0,1021.0,1021.0,1010.0,1022.0,1022.0,1024.0,1020.0,1021.0,1010.0,1019.0,1023.0,1022.0,1024.0,1021.0,1021.0,1010.0,1021.0,1020.0,1022.0,1022.0,1024.0,1021.0,1021.0,1010.0,1020.0,1019.0,1020.0,1023.0,1022.0,1024.0,1021.0,1021.0,1010.0,1020.0,1019.0,1021.0,1023.0,1022.0,1024.0,1021.0,1021.0,1010.0,1020.0,1020.0,1021.0,1019.0,1023.0,1022.0,1024.0,1021.0,1021.0,1009.0,1020.0,1020.0,1020.0,1019.0,1023.0,1023.0,1024.0,1022.0,1022.0,1010.0,1020.0,1021.0,1022.0,1021.0,1023.0,1022.0,1025.0,1021.0,1023.0,1010.0,1020.0,1020.0,1021.0,1019.0,1023.0,1022.0,1024.0,1021.0,1021.0,1010.0,1020.0,1020.0,1020.0,1019.0,1023.0,1023.0,1024.0,1021.0,1022.0,1010.0,1020.0,1020.0,1020.0,1019.0,1023.0,1023.0,1025.0,1022.0,1022.0,1010.0,1020.0,1020.0,1021.0,1019.0,1023.0,1023.0,1026.0,1022.0,1024.0,1012.0,1020.0,1021.0,1024.0,1024.0,1023.0,1025.0,1022.0,1023.0,1012.0,1020.0,1020.0,1024.0,1023.0,1025.0,1022.0,1022.0,1011.0,1019.0,1024.0,1024.0,1026.0,1022.0,1024.0,1011.0,1020.0,1024.0,1023.0,1026.0,1022.0,1024.0,1011.0,1020.0,1024.0,1024.0,1026.0,1023.0,1024.0,1012.0,1024.0,1023.0,1025.0,1021.0,1021.0,1011.0,1025.0,1024.0,1027.0,1023.0,1025.0,1013.0,1027.0,1026.0,1028.0,1025.0,1027.0,1015.0,1025.0,1025.0,1027.0,1024.0,1024.0,1014.0,1027.0,1029.0,1029.0,1027.0,1026.0,1016.0,1031.0,1033.0,1033.0,1029.0,1029.0,1018.0,1032.0,1032.0,1033.0,1026.0,1027.0,1017.0,1035.0,1034.0,1037.0,1026.0,1026.0,1020.0,1044.0,1038.0,1041.0,1027.0,1027.0,1024.0,1049.0,1040.0,1048.0,1029.0,1026.0,1030.0,1043.0,1036.0,1045.0,1027.0,1024.0,1029.0,1048.0,1040.0,1058.0,1031.0,1026.0,1086.0,1045.0,1039.0,1056.0,1030.0,1025.0,2304,2210,1901,	00:29:07.174,-0.01171875,0.0732421875,1.01953125,0.30517578125,0.42724609375,0.18310546875,4.1143798828125,0.6591796875,-78.5028076171875,94.0,-677.0,-4006.0,-0.77374267578125,-0.031402587890625,0.01824951171875,0.6324462890625,4.111834227335023,0.6583934755062972,-82.70948045263547,-0.7500014686564737,-0.03072213122791426,0.019392776868157057,0.6604376335970635,1,	00:29:07.175,0.01806640625,0.02392578125,1.02294921875,-0.54931640625,0.06103515625,0.54931640625,1.34033203125,-0.966796875,34.1070556640625,3.0,622.0,-1851.0,0.955902099609375,0.013671875,-0.004638671875,0.2933349609375,1.3409330935508845,-0.9660632246581233,27.604380113242264,0.9710006300108555,0.01337440242697082,-0.005394851521056403,0.23864156690591198,1
1782117256.314195,0.050,1022.0,1024.0,1020.0,1022.0,1023.0,1024.0,1021.0,1021.0,1010.0,1022.0,1022.0,1024.0,1021.0,1021.0,1009.0,1019.0,1023.0,1022.0,1024.0,1021.0,1021.0,1010.0,1019.0,1020.0,1023.0,1022.0,1024.0,1021.0,1021.0,1010.0,1020.0,1019.0,1020.0,1023.0,1023.0,1024.0,1021.0,1021.0,1010.0,1020.0,1020.0,1021.0,1023.0,1022.0,1024.0,1021.0,1022.0,1010.0,1020.0,1020.0,1020.0,1019.0,1023.0,1022.0,1024.0,1021.0,1022.0,1009.0,1020.0,1019.0,1020.0,1019.0,1024.0,1023.0,1025.0,1022.0,1023.0,1010.0,1020.0,1021.0,1022.0,1021.0,1023.0,1023.0,1024.0,1021.0,1021.0,1010.0,1020.0,1020.0,1021.0,1019.0,1024.0,1022.0,1024.0,1021.0,1022.0,1010.0,1020.0,1020.0,1021.0,1019.0,1023.0,1023.0,1024.0,1022.0,1022.0,1010.0,1020.0,1019.0,1021.0,1019.0,1023.0,1022.0,1024.0,1021.0,1022.0,1010.0,1020.0,1020.0,1021.0,1020.0,1024.0,1023.0,1025.0,1022.0,1024.0,1011.0,1020.0,1021.0,1023.0,1024.0,1024.0,1026.0,1021.0,1024.0,1012.0,1020.0,1020.0,1024.0,1023.0,1026.0,1021.0,1022.0,1010.0,1020.0,1024.0,1024.0,1026.0,1022.0,1024.0,1012.0,1020.0,1023.0,1023.0,1026.0,1022.0,1023.0,1011.0,1020.0,1024.0,1024.0,1026.0,1022.0,1024.0,1012.0,1024.0,1024.0,1025.0,1022.0,1022.0,1011.0,1025.0,1025.0,1027.0,1023.0,1024.0,1013.0,1026.0,1027.0,1028.0,1025.0,1027.0,1015.0,1025.0,1026.0,1027.0,1024.0,1024.0,1013.0,1028.0,1029.0,1029.0,1027.0,1026.0,1015.0,1031.0,1032.0,1033.0,1029.0,1030.0,1018.0,1032.0,1032.0,1034.0,1026.0,1027.0,1018.0,1035.0,1035.0,1036.0,1027.0,1026.0,1020.0,1045.0,1038.0,1042.0,1028.0,1026.0,1024.0,1048.0,1041.0,1048.0,1030.0,1027.0,1029.0,1043.0,1035.0,1044.0,1027.0,1024.0,1028.0,1047.0,1040.0,1058.0,1030.0,1025.0,1085.0,1045.0,1039.0,1056.0,1030.0,1025.0,2304,2210,1901,	00:29:07.185,-0.01171875,0.0732421875,1.0205078125,0.30517578125,0.42724609375,0.1220703125,4.0264892578125,0.63720703125,-78.5028076171875,94.0,-677.0,-4005.0,-0.773773193359375,-0.03070068359375,0.0179443359375,0.632476806640625,4.027853802564344,0.6345469388439511,-82.70893915815537,-0.7500326147838936,-0.03003518365592225,0.019064751856402606,0.6604434114591836,1,	00:29:07.186,0.01708984375,0.0244140625,1.02294921875,-0.6103515625,0.0,0.54931640625,1.4227294921875,-0.933837890625,34.112548828125,5.0,621.0,-1853.0,0.95587158203125,0.014251708984375,-0.004180908203125,0.293365478515625,1.4212326270960867,-0.9358262012641125,27.608435335110222,0.970985480762255,0.013992081738601007,-0.004970901407054709,0.23867699498844563,1
1782117256.321910,0.058,1021.0,1024.0,1020.0,1022.0,1022.0,1024.0,1020.0,1021.0,1010.0,1023.0,1022.0,1024.0,1021.0,1021.0,1009.0,1020.0,1023.0,1022.0,1024.0,1021.0,1021.0,1010.0,1020.0,1020.0,1022.0,1023.0,1024.0,1021.0,1021.0,1010.0,1020.0,1020.0,1020.0,1022.0,1023.0,1024.0,1021.0,1022.0,1009.0,1019.0,1019.0,1020.0,1023.0,1022.0,1024.0,1021.0,1021.0,1010.0,1020.0,1020.0,1020.0,1019.0,1023.0,1022.0,1024.0,1021.0,1021.0,1009.0,1020.0,1019.0,1020.0,1019.0,1023.0,1022.0,1025.0,1021.0,1023.0,1010.0,1020.0,1021.0,1022.0,1021.0,1023.0,1022.0,1025.0,1021.0,1022.0,1011.0,1020.0,1020.0,1021.0,1020.0,1023.0,1022.0,1024.0,1021.0,1022.0,1010.0,1020.0,1019.0,1021.0,1019.0,1024.0,1022.0,1024.0,1021.0,1021.0,1011.0,1020.0,1019.0,1021.0,1020.0,1023.0,1022.0,1024.0,1021.0,1021.0,1011.0,1020.0,1019.0,1021.0,1019.0,1025.0,1023.0,1025.0,1022.0,1024.0,1012.0,1020.0,1021.0,1024.0,1024.0,1023.0,1025.0,1022.0,1024.0,1011.0,1021.0,1021.0,1024.0,1023.0,1026.0,1022.0,1023.0,1011.0,1020.0,1024.0,1024.0,1026.0,1022.0,1025.0,1012.0,1021.0,1024.0,1024.0,1026.0,1022.0,1024.0,1012.0,1020.0,1024.0,1023.0,1026.0,1022.0,1024.0,1012.0,1024.0,1023.0,1025.0,1021.0,1022.0,1011.0,1025.0,1024.0,1027.0,1023.0,1024.0,1013.0,1026.0,1027.0,1029.0,1024.0,1027.0,1014.0,1025.0,1025.0,1027.0,1023.0,1024.0,1013.0,1028.0,1029.0,1030.0,1026.0,1026.0,1016.0,1031.0,1032.0,1033.0,1028.0,1029.0,1018.0,1032.0,1032.0,1033.0,1026.0,1027.0,1018.0,1036.0,1035.0,1037.0,1026.0,1027.0,1020.0,1045.0,1038.0,1042.0,1027.0,1027.0,1024.0,1048.0,1040.0,1048.0,1028.0,1027.0,1030.0,1043.0,1035.0,1045.0,1026.0,1025.0,1029.0,1048.0,1039.0,1059.0,1030.0,1025.0,1086.0,1044.0,1038.0,1057.0,1030.0,1025.0,2304,2211,1901,	00:29:07.195,-0.01220703125,0.07275390625,1.01904296875,0.3662109375,0.42724609375,0.18310546875,4.097900390625,0.6976318359375,-78.497314453125,93.0,-675.0,-4010.0,-0.77374267578125,-0.03155517578125,0.017913818359375,0.6324462890625,4.099687354452534,0.6997524074446895,-82.70601690078392,-0.7500145487482017,-0.03088146132270989,0.01905104146496364,0.6604252946637535,1,	00:29:07.196,0.01806640625,0.0244140625,1.02197265625,-0.6103515625,-0.06103515625,0.54931640625,1.3623046875,-1.0107421875,34.1180419921875,3.0,621.0,-1851.0,0.95587158203125,0.013946533203125,-0.00494384765625,0.293426513671875,1.3630669599165315,-1.0120945592123887,27.614799957432343,0.9709718176898511,0.013658260222384797,-0.005737582704240383,0.23873470909039665,1
1782117256.333342,0.069,1021.0,1024.0,1020.0,1022.0,1023.0,1024.0,1020.0,1021.0,1009.0,1023.0,1023.0,1024.0,1021.0,1021.0,1009.0,1020.0,1022.0,1022.0,1024.0,1020.0,1022.0,1010.0,1020.0,1020.0,1023.0,1022.0,1024.0,1021.0,1021.0,1010.0,1020.0,1020.0,1020.0,1023.0,1022.0,1024.0,1020.0,1021.0,1009.0,1020.0,1020.0,1020.0,1024.0,1022.0,1024.0,1021.0,1022.0,1010.0,1020.0,1019.0,1020.0,1019.0,1022.0,1023.0,1025.0,1021.0,1021.0,1009.0,1020.0,1019.0,1021.0,1019.0,1024.0,1023.0,1025.0,1021.0,1022.0,1010.0,1020.0,1021.0,1022.0,1021.0,1023.0,1022.0,1024.0,1021.0,1021.0,1010.0,1020.0,1020.0,1021.0,1019.0,1024.0,1022.0,1025.0,1021.0,1022.0,1010.0,1020.0,1020.0,1020.0,1019.0,1023.0,1022.0,1025.0,1022.0,1022.0,1010.0,1020.0,1019.0,1020.0,1019.0,1024.0,1022.0,1025.0,1022.0,1022.0,1010.0,1020.0,1019.0,1020.0,1019.0,1024.0,1023.0,1025.0,1021.0,1024.0,1011.0,1021.0,1022.0,1023.0,1024.0,1023.0,1026.0,1022.0,1024.0,1011.0,1020.0,1021.0,1024.0,1023.0,1026.0,1022.0,1023.0,1011.0,1020.0,1024.0,1023.0,1026.0,1022.0,1025.0,1012.0,1020.0,1024.0,1023.0,1025.0,1022.0,1024.0,1011.0,1020.0,1024.0,1024.0,1026.0,1023.0,1025.0,1011.0,1023.0,1024.0,1025.0,1021.0,1022.0,1011.0,1025.0,1024.0,1026.0,1023.0,1025.0,1013.0,1027.0,1026.0,1028.0,1025.0,1027.0,1015.0,1025.0,1025.0,1027.0,1024.0,1024.0,1013.0,1027.0,1028.0,1029.0,1026.0,1026.0,1016.0,1031.0,1032.0,1033.0,1029.0,1029.0,1018.0,1032.0,1031.0,1033.0,1027.0,1027.0,1018.0,1035.0,1034.0,1036.0,1026.0,1027.0,1020.0,1044.0,1037.0,1042.0,1028.0,1026.0,1024.0,1047.0,1040.0,1048.0,1029.0,1027.0,1030.0,1042.0,1036.0,1044.0,1027.0,1024.0,1029.0,1047.0,1040.0,1057.0,1031.0,1026.0,1085.0,1044.0,1038.0,1055.0,1031.0,1025.0,2304,2211,1901,	00:29:07.205,-0.01220703125,0.0732421875,1.01953125,0.3662109375,0.42724609375,0.1220703125,4.15283203125,0.626220703125,-78.497314453125,95.0,-677.0,-4008.0,-0.773773193359375,-0.031494140625,0.0186767578125,0.632415771484375,4.1505466771305235,0.6253627499297725,-82.70395062869588,-0.7500310238496662,-0.030786180539459692,0.019830667132430823,0.6603880821092216,1,	00:29:07.206,0.0185546875,0.02392578125,1.0224609375,-0.6103515625,-0.1220703125,0.54931640625,1.29638671875,-1.0821533203125,34.12353515625,2.0,623.0,-1856.0,0.955841064453125,0.01361083984375,-0.005706787109375,0.293487548828125,1.2983789825396743,-1.0840448261370748,27.62133709871019,0.9709584782024286,0.013260276559194794,-0.006481284963476593,0.23879236088623063,1
1782117256.343771,0.080,1021.0,1024.0,1019.0,1022.0,1023.0,1024.0,1020.0,1021.0,1009.0,1023.0,1022.0,1024.0,1020.0,1021.0,1010.0,1020.0,1022.0,1022.0,1023.0,1021.0,1022.0,1010.0,1020.0,1020.0,1022.0,1022.0,1024.0,1020.0,1022.0,1010.0,1020.0,1019.0,1021.0,1023.0,1022.0,1024.0,1021.0,1022.0,1010.0,1019.0,1020.0,1020.0,1023.0,1022.0,1024.0,1021.0,1022.0,1010.0,1020.0,1019.0,1020.0,1019.0,1023.0,1022.0,1024.0,1021.0,1022.0,1010.0,1020.0,1019.0,1020.0,1019.0,1023.0,1022.0,1024.0,1022.0,1023.0,1010.0,1021.0,1021.0,1022.0,1021.0,1023.0,1023.0,1024.0,1021.0,1022.0,1010.0,1020.0,1020.0,1021.0,1020.0,1023.0,1022.0,1024.0,1021.0,1022.0,1010.0,1020.0,1020.0,1020.0,1019.0,1023.0,1022.0,1024.0,1021.0,1022.0,1011.0,1020.0,1020.0,1021.0,1019.0,1023.0,1023.0,1024.0,1022.0,1022.0,1010.0,1020.0,1020.0,1021.0,1019.0,1024.0,1023.0,1025.0,1022.0,1024.0,1012.0,1020.0,1022.0,1023.0,1024.0,1024.0,1025.0,1023.0,1024.0,1011.0,1020.0,1020.0,1024.0,1023.0,1024.0,1022.0,1024.0,1011.0,1020.0,1024.0,1023.0,1025.0,1022.0,1025.0,1012.0,1020.0,1024.0,1023.0,1025.0,1022.0,1024.0,1011.0,1020.0,1024.0,1023.0,1026.0,1022.0,1025.0,1012.0,1024.0,1023.0,1024.0,1021.0,1023.0,1012.0,1025.0,1024.0,1026.0,1022.0,1025.0,1013.0,1026.0,1026.0,1028.0,1025.0,1028.0,1016.0,1024.0,1025.0,1027.0,1023.0,1024.0,1014.0,1028.0,1028.0,1029.0,1026.0,1027.0,1016.0,1031.0,1032.0,1032.0,1029.0,1030.0,1018.0,1032.0,1032.0,1032.0,1026.0,1027.0,1018.0,1036.0,1035.0,1035.0,1027.0,1028.0,1020.0,1044.0,1038.0,1040.0,1028.0,1027.0,1024.0,1048.0,1041.0,1046.0,1029.0,1027.0,1030.0,1042.0,1036.0,1042.0,1027.0,1024.0,1029.0,1047.0,1040.0,1055.0,1030.0,1025.0,1085.0,1044.0,1039.0,1054.0,1030.0,1025.0,2304,2211,1901,	00:29:07.215,-0.01171875,0.0732421875,1.01904296875,0.3662109375,0.3662109375,0.1220703125,4.0814208984375,0.6866455078125,-78.497314453125,95.0,-676.0,-4008.0,-0.773773193359375,-0.0313720703125,0.017913818359375,0.632415771484375,4.082852553475598,0.6862911617624062,-82.70328290742617,-0.7500381317370682,-0.030694186301434976,0.01904142449398398,0.6604075196580524,1,	00:29:07.216,0.0185546875,0.0234375,1.0224609375,-0.6103515625,-0.1220703125,0.54931640625,1.318359375,-0.999755859375,34.1290283203125,4.0,621.0,-1854.0,0.955841064453125,0.013580322265625,-0.00494384765625,0.29351806640625,1.320932731833345,-0.998347868572776,27.62627495718054,0.9709542148958176,0.013273198466323256,-0.005707546994765239,0.23882872248919862,1
1782117256.354107,0.090,1021.0,1023.0,1019.0,1022.0,1022.0,1024.0,1020.0,1021.0,1011.0,1022.0,1023.0,1024.0,1021.0,1021.0,1010.0,1020.0,1022.0,1022.0,1024.0,1021.0,1021.0,1010.0,1020.0,1020.0,1022.0,1022.0,1024.0,1021.0,1021.0,1010.0,1020.0,1019.0,1020.0,1023.0,1023.0,1024.0,1021.0,1022.0,1010.0,1020.0,1020.0,1021.0,1023.0,1023.0,1024.0,1020.0,1022.0,1010.0,1019.0,1019.0,1020.0,1019.0,1023.0,1022.0,1024.0,1021.0,1022.0,1010.0,1020.0,1019.0,1021.0,1019.0,1023.0,1023.0,1024.0,1021.0,1022.0,1011.0,1020.0,1020.0,1022.0,1020.0,1023.0,1023.0,1024.0,1021.0,1023.0,1010.0,1020.0,1020.0,1021.0,1020.0,1023.0,1023.0,1024.0,1021.0,1022.0,1010.0,1020.0,1019.0,1021.0,1020.0,1023.0,1023.0,1023.0,1021.0,1022.0,1011.0,1020.0,1019.0,1020.0,1019.0,1023.0,1023.0,1024.0,1021.0,1022.0,1010.0,1020.0,1020.0,1021.0,1020.0,1024.0,1023.0,1024.0,1022.0,1024.0,1011.0,1020.0,1021.0,1023.0,1024.0,1023.0,1024.0,1022.0,1024.0,1011.0,1020.0,1020.0,1024.0,1024.0,1025.0,1022.0,1023.0,1011.0,1020.0,1024.0,1024.0,1025.0,1022.0,1025.0,1012.0,1020.0,1024.0,1023.0,1025.0,1022.0,1024.0,1011.0,1020.0,1024.0,1024.0,1025.0,1022.0,1024.0,1012.0,1024.0,1024.0,1024.0,1021.0,1022.0,1011.0,1025.0,1026.0,1026.0,1023.0,1026.0,1013.0,1026.0,1027.0,1028.0,1025.0,1027.0,1015.0,1025.0,1025.0,1026.0,1024.0,1024.0,1014.0,1027.0,1030.0,1028.0,1026.0,1026.0,1015.0,1030.0,1033.0,1032.0,1029.0,1029.0,1018.0,1031.0,1033.0,1032.0,1027.0,1027.0,1018.0,1034.0,1035.0,1035.0,1026.0,1027.0,1020.0,1043.0,1038.0,1040.0,1028.0,1027.0,1024.0,1047.0,1040.0,1046.0,1029.0,1027.0,1030.0,1041.0,1036.0,1043.0,1026.0,1024.0,1029.0,1047.0,1040.0,1055.0,1030.0,1025.0,1084.0,1044.0,1038.0,1052.0,1029.0,1025.0,2305,2211,1902,	00:29:07.226,-0.01220703125,0.07275390625,1.01953125,0.42724609375,0.42724609375,0.1220703125,4.04296875,0.6097412109375,-78.497314453125,94.0,-674.0,-4004.0,-0.7738037109375,-0.030670166015625,0.0181884765625,0.632415771484375,4.042769720904306,0.6103481290704973,-82.70226587868576,-0.7500729401895606,-0.029994529529121298,0.01930741320116169,0.6603924109112659,1,	00:29:07.227,0.0185546875,0.02294921875,1.02197265625,-0.67138671875,-0.1220703125,0.54931640625,1.2579345703125,-1.0711669921875,34.134521484375,3.0,620.0,-1854.0,0.955841064453125,0.013214111328125,-0.005706787109375,0.2935791015625,1.255505473032518,-1.070185842669776,27.632801705231426,0.9709408965220696,0.012868789315351879,-0.006451902571198573,0.2388860453766366,1
1782117256.365097,0.101,1020.0,1023.0,1019.0,1022.0,1022.0,1023.0,1020.0,1021.0,1010.0,1022.0,1023.0,1024.0,1020.0,1021.0,1010.0,1020.0,1023.0,1023.0,1024.0,1020.0,1021.0,1010.0,1020.0,1020.0,1022.0,1023.0,1024.0,1020.0,1022.0,1010.0,1020.0,1019.0,1021.0,1022.0,1023.0,1024.0,1020.0,1022.0,1010.0,1020.0,1020.0,1020.0,1022.0,1023.0,1024.0,1020.0,1021.0,1010.0,1020.0,1020.0,1020.0,1019.0,1023.0,1022.0,1024.0,1021.0,1021.0,1010.0,1019.0,1019.0,1021.0,1019.0,1023.0,1023.0,1024.0,1021.0,1023.0,1011.0,1020.0,1021.0,1022.0,1020.0,1023.0,1023.0,1025.0,1021.0,1022.0,1010.0,1020.0,1019.0,1021.0,1020.0,1023.0,1023.0,1024.0,1021.0,1022.0,1010.0,1020.0,1019.0,1021.0,1019.0,1022.0,1023.0,1024.0,1021.0,1022.0,1010.0,1020.0,1020.0,1021.0,1019.0,1023.0,1023.0,1024.0,1021.0,1022.0,1011.0,1020.0,1019.0,1020.0,1020.0,1023.0,1024.0,1024.0,1022.0,1025.0,1012.0,1020.0,1022.0,1024.0,1024.0,1024.0,1025.0,1021.0,1024.0,1011.0,1020.0,1020.0,1023.0,1023.0,1026.0,1021.0,1023.0,1011.0,1020.0,1024.0,1024.0,1025.0,1022.0,1025.0,1012.0,1020.0,1023.0,1024.0,1026.0,1022.0,1024.0,1012.0,1020.0,1024.0,1024.0,1026.0,1022.0,1025.0,1012.0,1023.0,1024.0,1025.0,1021.0,1022.0,1011.0,1025.0,1025.0,1026.0,1023.0,1025.0,1013.0,1026.0,1027.0,1027.0,1024.0,1027.0,1015.0,1025.0,1026.0,1026.0,1023.0,1024.0,1013.0,1027.0,1029.0,1028.0,1025.0,1026.0,1015.0,1030.0,1033.0,1032.0,1028.0,1030.0,1018.0,1031.0,1033.0,1032.0,1027.0,1027.0,1018.0,1034.0,1036.0,1036.0,1026.0,1027.0,1020.0,1043.0,1038.0,1040.0,1027.0,1028.0,1024.0,1045.0,1041.0,1046.0,1028.0,1028.0,1029.0,1040.0,1035.0,1042.0,1026.0,1024.0,1029.0,1045.0,1039.0,1055.0,1030.0,1025.0,1084.0,1043.0,1038.0,1054.0,1029.0,1025.0,2305,2211,1901,	00:29:07.236,-0.01220703125,0.0732421875,1.01904296875,0.48828125,0.3662109375,0.18310546875,4.10888671875,0.68115234375,-78.4918212890625,95.0,-675.0,-4008.0,-0.7738037109375,-0.031524658203125,0.018096923828125,0.63238525390625,4.109622909856817,0.6812535040331968,-82.6994799094624,-0.7500540954425444,-0.03084102567548959,0.019227667044876728,0.6603771512288727,1,	00:29:07.237,0.0185546875,0.02392578125,1.0205078125,-0.732421875,-0.06103515625,0.54931640625,1.3348388671875,-1.043701171875,34.1400146484375,4.0,622.0,-1853.0,0.955810546875,0.0137939453125,-0.005279541015625,0.293609619140625,1.3351518195077894,-1.0422316434445156,27.63667421844679,0.9709265060366714,0.013485613334296136,-0.006048540459583331,0.23892106074335082,1
1782117256.373926,0.110,1021.0,1023.0,1020.0,1022.0,1023.0,1023.0,1021.0,1021.0,1011.0,1022.0,1023.0,1024.0,1020.0,1021.0,1010.0,1020.0,1023.0,1022.0,1024.0,1021.0,1022.0,1010.0,1020.0,1020.0,1022.0,1023.0,1024.0,1021.0,1021.0,1010.0,1019.0,1019.0,1021.0,1022.0,1022.0,1024.0,1020.0,1021.0,1010.0,1020.0,1020.0,1021.0,1023.0,1022.0,1024.0,1021.0,1021.0,1010.0,1020.0,1020.0,1020.0,1019.0,1022.0,1022.0,1024.0,1020.0,1022.0,1010.0,1020.0,1019.0,1020.0,1019.0,1023.0,1022.0,1024.0,1021.0,1022.0,1011.0,1021.0,1020.0,1022.0,1021.0,1023.0,1023.0,1024.0,1020.0,1022.0,1010.0,1020.0,1020.0,1021.0,1019.0,1023.0,1023.0,1024.0,1021.0,1022.0,1010.0,1020.0,1020.0,1021.0,1019.0,1023.0,1022.0,1024.0,1021.0,1022.0,1011.0,1020.0,1020.0,1020.0,1019.0,1023.0,1023.0,1024.0,1020.0,1022.0,1011.0,1020.0,1020.0,1021.0,1020.0,1023.0,1024.0,1025.0,1022.0,1024.0,1011.0,1020.0,1021.0,1024.0,1024.0,1023.0,1025.0,1021.0,1024.0,1012.0,1021.0,1021.0,1023.0,1024.0,1025.0,1021.0,1023.0,1011.0,1020.0,1024.0,1024.0,1025.0,1022.0,1025.0,1012.0,1020.0,1024.0,1024.0,1025.0,1022.0,1024.0,1012.0,1020.0,1024.0,1024.0,1025.0,1022.0,1024.0,1012.0,1023.0,1024.0,1025.0,1021.0,1022.0,1011.0,1024.0,1025.0,1027.0,1022.0,1025.0,1013.0,1025.0,1027.0,1028.0,1024.0,1027.0,1015.0,1024.0,1025.0,1027.0,1023.0,1023.0,1013.0,1026.0,1029.0,1028.0,1025.0,1026.0,1016.0,1030.0,1033.0,1032.0,1027.0,1029.0,1018.0,1031.0,1032.0,1032.0,1025.0,1027.0,1019.0,1034.0,1034.0,1035.0,1025.0,1027.0,1021.0,1042.0,1038.0,1040.0,1027.0,1028.0,1024.0,1045.0,1040.0,1047.0,1028.0,1027.0,1029.0,1040.0,1035.0,1043.0,1026.0,1024.0,1029.0,1044.0,1038.0,1056.0,1030.0,1025.0,1083.0,1042.0,1037.0,1054.0,1029.0,1025.0,2305,2212,1901,	00:29:07.246,-0.01318359375,0.07275390625,1.01953125,0.42724609375,0.42724609375,0.1220703125,4.075927734375,0.76904296875,-78.4918212890625,94.0,-676.0,-4004.0,-0.773773193359375,-0.031768798828125,0.017303466796875,0.632415771484375,4.074018681801921,0.7679464202195284,-82.69845730422874,-0.7500481807463962,-0.031107499289636565,0.018454537122542948,0.6603934282732977,1,	00:29:07.247,0.01904296875,0.02294921875,1.021484375,-0.67138671875,0.06103515625,0.54931640625,1.2469482421875,-1.0821533203125,34.1455078125,4.0,620.0,-1853.0,0.955810546875,0.01318359375,-0.005859375,0.293670654296875,1.247329392196376,-1.0846772517906567,27.643687092522423,0.9709176320570172,0.012830323725214953,-0.0065905210077266485,0.23897886849415703,1
1782117256.384306,0.120,1019.0,1024.0,1019.0,1021.0,1022.0,1024.0,1021.0,1021.0,1010.0,1022.0,1023.0,1024.0,1021.0,1021.0,1010.0,1020.0,1022.0,1022.0,1025.0,1020.0,1022.0,1010.0,1020.0,1020.0,1022.0,1022.0,1024.0,1021.0,1022.0,1010.0,1020.0,1020.0,1021.0,1022.0,1022.0,1025.0,1021.0,1021.0,1010.0,1019.0,1019.0,1020.0,1022.0,1023.0,1024.0,1021.0,1021.0,1010.0,1020.0,1020.0,1020.0,1019.0,1022.0,1022.0,1024.0,1021.0,1021.0,1010.0,1019.0,1019.0,1020.0,1019.0,1022.0,1023.0,1025.0,1021.0,1022.0,1011.0,1020.0,1021.0,1022.0,1021.0,1023.0,1022.0,1025.0,1021.0,1022.0,1010.0,1019.0,1020.0,1020.0,1019.0,1023.0,1023.0,1024.0,1021.0,1022.0,1011.0,1020.0,1019.0,1020.0,1019.0,1023.0,1022.0,1025.0,1021.0,1022.0,1011.0,1020.0,1020.0,1021.0,1019.0,1022.0,1023.0,1025.0,1021.0,1022.0,1011.0,1020.0,1020.0,1020.0,1019.0,1023.0,1023.0,1025.0,1022.0,1024.0,1012.0,1020.0,1022.0,1023.0,1023.0,1023.0,1025.0,1022.0,1024.0,1012.0,1020.0,1021.0,1023.0,1023.0,1025.0,1022.0,1023.0,1012.0,1020.0,1023.0,1023.0,1026.0,1022.0,1024.0,1013.0,1020.0,1024.0,1023.0,1026.0,1022.0,1023.0,1012.0,1020.0,1024.0,1024.0,1025.0,1022.0,1024.0,1013.0,1023.0,1024.0,1025.0,1021.0,1022.0,1011.0,1025.0,1025.0,1026.0,1023.0,1024.0,1015.0,1026.0,1027.0,1028.0,1024.0,1027.0,1016.0,1024.0,1025.0,1027.0,1023.0,1023.0,1015.0,1027.0,1029.0,1029.0,1025.0,1026.0,1017.0,1030.0,1032.0,1032.0,1028.0,1028.0,1019.0,1031.0,1033.0,1032.0,1026.0,1026.0,1019.0,1034.0,1035.0,1036.0,1026.0,1026.0,1021.0,1042.0,1037.0,1041.0,1027.0,1027.0,1024.0,1045.0,1040.0,1047.0,1028.0,1027.0,1031.0,1039.0,1034.0,1043.0,1026.0,1024.0,1029.0,1044.0,1038.0,1056.0,1029.0,1025.0,1084.0,1042.0,1037.0,1055.0,1029.0,1025.0,2306,2212,1901,	00:29:07.256,-0.0126953125,0.0732421875,1.01953125,0.42724609375,0.3662109375,0.18310546875,4.1253662109375,0.692138671875,-78.486328125,95.0,-675.0,-4007.0,-0.7738037109375,-0.031707763671875,0.018096923828125,0.63238525390625,4.12666015864167,0.6936138821844511,-82.69575679533203,-0.7500679061247739,-0.031024363361946444,0.019243907990201568,0.6603524037094495,1,	00:29:07.257,0.01708984375,0.0224609375,1.02099609375,-0.67138671875,0.06103515625,0.54931640625,1.25244140625,-0.9942626953125,34.1510009765625,4.0,624.0,-1857.0,0.955810546875,0.012969970703125,-0.00506591796875,0.293701171875,1.24986855801027,-0.9930031969656995,27.649018196734065,0.9709153553539441,0.01266107932849577,-0.005807854387221947,0.23901744420769536,1
1782117256.395111,0.131,1020.0,1023.0,1020.0,1022.0,1022.0,1024.0,1021.0,1021.0,1011.0,1022.0,1022.0,1024.0,1020.0,1021.0,1011.0,1020.0,1022.0,1022.0,1024.0,1021.0,1021.0,1011.0,1020.0,1020.0,1022.0,1022.0,1025.0,1021.0,1021.0,1010.0,1020.0,1019.0,1021.0,1023.0,1022.0,1024.0,1021.0,1021.0,1011.0,1020.0,1019.0,1020.0,1022.0,1022.0,1024.0,1021.0,1021.0,1010.0,1020.0,1020.0,1021.0,1019.0,1022.0,1022.0,1024.0,1020.0,1021.0,1010.0,1020.0,1019.0,1020.0,1019.0,1023.0,1023.0,1024.0,1021.0,1022.0,1011.0,1020.0,1021.0,1022.0,1021.0,1023.0,1023.0,1024.0,1020.0,1022.0,1011.0,1020.0,1020.0,1021.0,1020.0,1023.0,1022.0,1024.0,1021.0,1022.0,1011.0,1020.0,1020.0,1020.0,1020.0,1022.0,1022.0,1025.0,1021.0,1021.0,1011.0,1020.0,1019.0,1021.0,1019.0,1023.0,1022.0,1025.0,1021.0,1021.0,1011.0,1019.0,1020.0,1021.0,1020.0,1023.0,1023.0,1026.0,1021.0,1024.0,1012.0,1021.0,1022.0,1023.0,1024.0,1024.0,1026.0,1021.0,1023.0,1012.0,1020.0,1021.0,1023.0,1023.0,1025.0,1021.0,1023.0,1012.0,1020.0,1024.0,1023.0,1026.0,1022.0,1024.0,1012.0,1020.0,1023.0,1024.0,1026.0,1021.0,1023.0,1012.0,1020.0,1023.0,1024.0,1026.0,1022.0,1024.0,1013.0,1023.0,1024.0,1025.0,1021.0,1021.0,1012.0,1025.0,1024.0,1027.0,1022.0,1025.0,1014.0,1026.0,1027.0,1029.0,1024.0,1026.0,1017.0,1024.0,1025.0,1027.0,1023.0,1023.0,1014.0,1027.0,1028.0,1029.0,1025.0,1025.0,1016.0,1030.0,1032.0,1032.0,1028.0,1028.0,1019.0,1030.0,1032.0,1033.0,1026.0,1026.0,1019.0,1033.0,1034.0,1036.0,1025.0,1026.0,1020.0,1042.0,1037.0,1041.0,1027.0,1026.0,1024.0,1044.0,1039.0,1047.0,1028.0,1026.0,1030.0,1039.0,1034.0,1043.0,1026.0,1023.0,1029.0,1045.0,1038.0,1057.0,1030.0,1024.0,1083.0,1042.0,1037.0,1054.0,1029.0,1024.0,2306,2213,1902,	00:29:07.266,-0.01220703125,0.07421875,1.01953125,0.3662109375,0.3662109375,0.18310546875,4.21875,0.6756591796875,-78.486328125,95.0,-677.0,-4006.0,-0.7738037109375,-0.0322265625,0.01873779296875,0.63232421875,4.218969333186803,0.6744823567609509,-82.69260950733626,-0.7500656144837561,-0.03151892616628017,0.019900254114365804,0.6603121316079341,1,	00:29:07.267,0.0185546875,0.02294921875,1.0205078125,-0.6103515625,0.06103515625,0.54931640625,1.3018798828125,-1.065673828125,34.156494140625,2.0,619.0,-1856.0,0.955780029296875,0.013580322265625,-0.00555419921875,0.29376220703125,1.3006399113987595,-1.0642961242338962,27.653505181689752,0.9708931804364069,0.013240086745591184,-0.006305513202969572,0.23906353295367974,1
1782117256.408236,0.144,1020.0,1024.0,1019.0,1021.0,1022.0,1024.0,1020.0,1021.0,1011.0,1022.0,1022.0,1024.0,1020.0,1020.0,1010.0,1020.0,1022.0,1022.0,1024.0,1021.0,1021.0,1011.0,1020.0,1020.0,1022.0,1022.0,1025.0,1021.0,1021.0,1010.0,1019.0,1020.0,1020.0,1022.0,1022.0,1024.0,1020.0,1021.0,1011.0,1020.0,1020.0,1020.0,1022.0,1022.0,1024.0,1020.0,1021.0,1010.0,1020.0,1020.0,1021.0,1020.0,1023.0,1023.0,1024.0,1021.0,1021.0,1011.0,1020.0,1019.0,1020.0,1019.0,1023.0,1023.0,1025.0,1021.0,1022.0,1011.0,1020.0,1021.0,1022.0,1020.0,1022.0,1023.0,1024.0,1021.0,1022.0,1011.0,1020.0,1020.0,1021.0,1019.0,1022.0,1023.0,1024.0,1021.0,1021.0,1010.0,1020.0,1020.0,1021.0,1019.0,1023.0,1022.0,1024.0,1021.0,1022.0,1011.0,1020.0,1019.0,1020.0,1019.0,1023.0,1022.0,1024.0,1021.0,1022.0,1011.0,1019.0,1020.0,1021.0,1019.0,1023.0,1023.0,1025.0,1021.0,1024.0,1012.0,1020.0,1022.0,1024.0,1024.0,1023.0,1025.0,1022.0,1024.0,1012.0,1021.0,1020.0,1023.0,1023.0,1025.0,1021.0,1022.0,1012.0,1020.0,1024.0,1024.0,1025.0,1022.0,1024.0,1013.0,1021.0,1023.0,1024.0,1025.0,1022.0,1023.0,1012.0,1020.0,1024.0,1024.0,1025.0,1022.0,1024.0,1013.0,1023.0,1023.0,1025.0,1021.0,1021.0,1012.0,1024.0,1025.0,1026.0,1022.0,1025.0,1014.0,1025.0,1026.0,1028.0,1025.0,1026.0,1016.0,1024.0,1025.0,1027.0,1023.0,1023.0,1014.0,1027.0,1028.0,1028.0,1026.0,1025.0,1016.0,1029.0,1032.0,1032.0,1028.0,1028.0,1019.0,1031.0,1033.0,1032.0,1027.0,1027.0,1020.0,1033.0,1035.0,1035.0,1026.0,1026.0,1021.0,1041.0,1038.0,1039.0,1027.0,1027.0,1024.0,1044.0,1039.0,1045.0,1028.0,1026.0,1029.0,1038.0,1034.0,1041.0,1026.0,1024.0,1028.0,1044.0,1038.0,1054.0,1030.0,1025.0,1082.0,1042.0,1037.0,1052.0,1029.0,1025.0,2306,2213,1902,	00:29:07.276,-0.01220703125,0.07421875,1.01904296875,0.3662109375,0.42724609375,0.1220703125,4.130859375,0.6976318359375,-78.486328125,94.0,-676.0,-4003.0,-0.773834228515625,-0.031768798828125,0.018096923828125,0.632354736328125,4.132758442781055,0.6955204305429169,-82.69215159851943,-0.7500865571908926,-0.03107586756367303,0.019265588402671004,0.6603281640822068,1,	00:29:07.278,0.0185546875,0.0234375,1.02001953125,-0.6103515625,0.18310546875,0.54931640625,1.3458251953125,-0.98876953125,34.1619873046875,3.0,622.0,-1854.0,0.95574951171875,0.013763427734375,-0.004791259765625,0.293792724609375,1.3468534104488872,-0.9873767671214394,27.658096805848412,0.9708859019736311,0.013471525354096157,-0.005556818380543709,0.23909873509278187,1
1782117256.415948,0.152,1020.0,1023.0,1020.0,1021.0,1023.0,1023.0,1021.0,1021.0,1011.0,1022.0,1022.0,1023.0,1020.0,1021.0,1011.0,1020.0,1022.0,1022.0,1024.0,1020.0,1022.0,1011.0,1020.0,1020.0,1022.0,1022.0,1023.0,1020.0,1021.0,1011.0,1020.0,1019.0,1020.0,1022.0,1023.0,1024.0,1021.0,1021.0,1011.0,1020.0,1020.0,1021.0,1022.0,1022.0,1023.0,1021.0,1021.0,1011.0,1020.0,1019.0,1020.0,1019.0,1022.0,1022.0,1024.0,1021.0,1021.0,1011.0,1019.0,1019.0,1020.0,1019.0,1022.0,1022.0,1023.0,1021.0,1022.0,1011.0,1020.0,1021.0,1022.0,1020.0,1022.0,1023.0,1024.0,1022.0,1021.0,1011.0,1020.0,1020.0,1021.0,1019.0,1022.0,1023.0,1023.0,1021.0,1021.0,1011.0,1020.0,1020.0,1021.0,1020.0,1023.0,1022.0,1024.0,1021.0,1022.0,1011.0,1019.0,1020.0,1020.0,1019.0,1022.0,1022.0,1024.0,1021.0,1022.0,1011.0,1019.0,1020.0,1020.0,1020.0,1023.0,1023.0,1024.0,1021.0,1023.0,1013.0,1021.0,1021.0,1024.0,1024.0,1024.0,1024.0,1021.0,1023.0,1012.0,1020.0,1021.0,1023.0,1023.0,1025.0,1021.0,1023.0,1012.0,1020.0,1023.0,1024.0,1025.0,1022.0,1024.0,1013.0,1021.0,1023.0,1023.0,1025.0,1022.0,1023.0,1012.0,1020.0,1024.0,1024.0,1025.0,1022.0,1024.0,1013.0,1022.0,1023.0,1024.0,1022.0,1021.0,1012.0,1024.0,1025.0,1026.0,1023.0,1024.0,1015.0,1026.0,1026.0,1028.0,1024.0,1026.0,1016.0,1024.0,1025.0,1026.0,1023.0,1023.0,1014.0,1027.0,1028.0,1028.0,1026.0,1024.0,1016.0,1029.0,1032.0,1031.0,1029.0,1028.0,1019.0,1030.0,1031.0,1032.0,1026.0,1026.0,1019.0,1033.0,1034.0,1035.0,1027.0,1026.0,1021.0,1040.0,1037.0,1041.0,1027.0,1026.0,1024.0,1043.0,1039.0,1046.0,1029.0,1026.0,1030.0,1039.0,1034.0,1042.0,1026.0,1023.0,1029.0,1044.0,1037.0,1055.0,1029.0,1024.0,1082.0,1042.0,1037.0,1053.0,1030.0,1024.0,2307,2214,1901,	00:29:07.287,-0.01171875,0.07373046875,1.02001953125,0.30517578125,0.42724609375,0.18310546875,4.141845703125,0.6097412109375,-78.4808349609375,96.0,-678.0,-4006.0,-0.77386474609375,-0.03131103515625,0.01873779296875,0.63232421875,4.139554558083573,0.6080551831207316,-82.68997727526872,-0.7501187095359227,-0.030616959212232397,0.019876908455287893,0.6602949582747232,1,	00:29:07.288,0.0185546875,0.0234375,1.02001953125,-0.54931640625,0.18310546875,0.54931640625,1.29638671875,-1.065673828125,34.16748046875,2.0,623.0,-1853.0,0.95574951171875,0.0135498046875,-0.00555419921875,0.2938232421875,1.2963938091193732,-1.0656191396964836,27.6644399694166,0.9708707181648265,0.013207472332804346,-0.006324321253584687,0.2391560458056072,1
1782117256.425181,0.161,1020.0,1024.0,1020.0,1021.0,1022.0,1024.0,1021.0,1021.0,1011.0,1022.0,1022.0,1024.0,1021.0,1021.0,1010.0,1019.0,1022.0,1022.0,1024.0,1020.0,1021.0,1011.0,1020.0,1020.0,1023.0,1022.0,1024.0,1020.0,1021.0,1011.0,1020.0,1019.0,1021.0,1022.0,1022.0,1024.0,1021.0,1022.0,1011.0,1020.0,1019.0,1021.0,1022.0,1022.0,1024.0,1021.0,1021.0,1011.0,1020.0,1020.0,1020.0,1019.0,1023.0,1022.0,1024.0,1021.0,1021.0,1011.0,1020.0,1020.0,1020.0,1018.0,1023.0,1022.0,1024.0,1021.0,1022.0,1011.0,1021.0,1021.0,1022.0,1021.0,1022.0,1022.0,1024.0,1021.0,1022.0,1012.0,1020.0,1020.0,1021.0,1019.0,1023.0,1022.0,1025.0,1021.0,1022.0,1011.0,1020.0,1020.0,1021.0,1019.0,1022.0,1022.0,1024.0,1021.0,1022.0,1012.0,1020.0,1019.0,1021.0,1019.0,1023.0,1023.0,1024.0,1021.0,1021.0,1011.0,1020.0,1020.0,1021.0,1019.0,1023.0,1023.0,1024.0,1021.0,1023.0,1012.0,1020.0,1021.0,1024.0,1024.0,1023.0,1025.0,1021.0,1024.0,1013.0,1020.0,1020.0,1023.0,1023.0,1025.0,1022.0,1022.0,1012.0,1020.0,1023.0,1024.0,1026.0,1022.0,1024.0,1013.0,1020.0,1024.0,1024.0,1025.0,1022.0,1023.0,1013.0,1020.0,1023.0,1024.0,1025.0,1022.0,1024.0,1013.0,1023.0,1023.0,1025.0,1022.0,1021.0,1012.0,1024.0,1025.0,1027.0,1023.0,1024.0,1014.0,1025.0,1026.0,1028.0,1024.0,1026.0,1016.0,1024.0,1024.0,1027.0,1023.0,1023.0,1014.0,1027.0,1028.0,1029.0,1025.0,1024.0,1016.0,1030.0,1032.0,1032.0,1028.0,1028.0,1018.0,1030.0,1032.0,1032.0,1026.0,1026.0,1019.0,1032.0,1035.0,1036.0,1026.0,1026.0,1021.0,1040.0,1038.0,1040.0,1027.0,1026.0,1024.0,1043.0,1040.0,1046.0,1029.0,1025.0,1029.0,1038.0,1034.0,1042.0,1026.0,1023.0,1029.0,1045.0,1038.0,1055.0,1029.0,1024.0,1082.0,1042.0,1038.0,1053.0,1029.0,1024.0,2307,2214,1902,	00:29:07.297,-0.0126953125,0.0732421875,1.02001953125,0.30517578125,0.48828125,0.244140625,4.1143798828125,0.6976318359375,-78.4808349609375,95.0,-674.0,-4004.0,-0.77386474609375,-0.03167724609375,0.017974853515625,0.63232421875,4.115101993707598,0.7001845851147832,-82.6875014430536,-0.7501169810101639,-0.03098793281449484,0.0191320440088516,0.6603016187411062,1,	00:29:07.298,0.0185546875,0.0224609375,1.021484375,-0.48828125,0.244140625,0.54931640625,1.2139892578125,-1.0107421875,34.1729736328125,3.0,621.0,-1854.0,0.95574951171875,0.012725830078125,-0.00531005859375,0.29388427734375,1.2158671165100883,-1.011411134185917,27.671354830404383,0.9708706894125632,0.01241253279222454,-0.006032330646404729,0.2392062801354274,1
1782117256.436003,0.172,1020.0,1023.0,1020.0,1021.0,1022.0,1024.0,1020.0,1021.0,1011.0,1022.0,1022.0,1024.0,1021.0,1021.0,1011.0,1019.0,1022.0,1021.0,1024.0,1021.0,1021.0,1011.0,1020.0,1020.0,1023.0,1022.0,1024.0,1021.0,1021.0,1010.0,1020.0,1019.0,1020.0,1022.0,1022.0,1024.0,1021.0,1021.0,1010.0,1021.0,1020.0,1021.0,1022.0,1022.0,1024.0,1020.0,1021.0,1011.0,1020.0,1019.0,1021.0,1019.0,1022.0,1022.0,1024.0,1020.0,1021.0,1011.0,1020.0,1019.0,1020.0,1019.0,1023.0,1023.0,1025.0,1021.0,1023.0,1012.0,1020.0,1021.0,1021.0,1021.0,1023.0,1022.0,1025.0,1021.0,1021.0,1011.0,1020.0,1020.0,1021.0,1019.0,1022.0,1022.0,1024.0,1021.0,1021.0,1011.0,1020.0,1019.0,1021.0,1020.0,1023.0,1022.0,1024.0,1021.0,1021.0,1012.0,1020.0,1020.0,1021.0,1019.0,1022.0,1022.0,1025.0,1020.0,1021.0,1012.0,1020.0,1019.0,1021.0,1020.0,1023.0,1023.0,1026.0,1021.0,1023.0,1013.0,1020.0,1022.0,1024.0,1023.0,1023.0,1026.0,1021.0,1024.0,1013.0,1020.0,1021.0,1023.0,1023.0,1025.0,1021.0,1022.0,1012.0,1020.0,1024.0,1023.0,1026.0,1022.0,1024.0,1013.0,1020.0,1024.0,1023.0,1025.0,1021.0,1023.0,1012.0,1020.0,1024.0,1023.0,1026.0,1021.0,1024.0,1013.0,1023.0,1023.0,1025.0,1021.0,1022.0,1012.0,1025.0,1025.0,1026.0,1022.0,1025.0,1014.0,1026.0,1026.0,1028.0,1024.0,1026.0,1016.0,1024.0,1024.0,1027.0,1023.0,1023.0,1014.0,1027.0,1028.0,1028.0,1025.0,1025.0,1016.0,1029.0,1032.0,1032.0,1028.0,1028.0,1019.0,1030.0,1032.0,1032.0,1025.0,1027.0,1019.0,1033.0,1034.0,1035.0,1025.0,1026.0,1020.0,1041.0,1037.0,1040.0,1026.0,1027.0,1024.0,1044.0,1040.0,1047.0,1028.0,1026.0,1029.0,1039.0,1034.0,1042.0,1025.0,1023.0,1028.0,1045.0,1037.0,1055.0,1029.0,1025.0,1083.0,1042.0,1036.0,1053.0,1029.0,1025.0,2308,2215,1902,	00:29:07.307,-0.0126953125,0.0732421875,1.0205078125,0.244140625,0.42724609375,0.18310546875,4.053955078125,0.76904296875,-78.4808349609375,95.0,-677.0,-4003.0,-0.77386474609375,-0.031646728515625,0.017181396484375,0.63232421875,4.055074056094436,0.771292447673598,-82.68616924355818,-0.7501232960939312,-0.031004736228456464,0.018320123563534775,0.6603166816469178,1,	00:29:07.308,0.01904296875,0.02294921875,1.021484375,-0.42724609375,0.244140625,0.54931640625,1.285400390625,-1.065673828125,34.178466796875,1.0,622.0,-1856.0,0.955718994140625,0.013427734375,-0.005615234375,0.2939453125,1.2833490672394303,-1.065974207931363,27.675598875671962,0.970848885583885,0.013098310537638472,-0.006353278956983624,0.23924989335020144,1
1782117256.446446,0.182,1020.0,1023.0,1019.0,1022.0,1022.0,1024.0,1020.0,1021.0,1011.0,1022.0,1022.0,1024.0,1020.0,1021.0,1010.0,1020.0,1022.0,1022.0,1024.0,1021.0,1021.0,1010.0,1020.0,1020.0,1022.0,1022.0,1024.0,1020.0,1021.0,1010.0,1020.0,1019.0,1020.0,1022.0,1023.0,1024.0,1021.0,1021.0,1011.0,1019.0,1019.0,1021.0,1022.0,1022.0,1024.0,1021.0,1021.0,1011.0,1020.0,1020.0,1021.0,1019.0,1022.0,1022.0,1024.0,1021.0,1021.0,1011.0,1020.0,1019.0,1020.0,1019.0,1023.0,1023.0,1024.0,1021.0,1023.0,1011.0,1021.0,1020.0,1022.0,1021.0,1022.0,1022.0,1024.0,1021.0,1021.0,1011.0,1020.0,1019.0,1021.0,1020.0,1023.0,1022.0,1024.0,1021.0,1021.0,1011.0,1020.0,1020.0,1020.0,1019.0,1023.0,1022.0,1024.0,1021.0,1022.0,1011.0,1020.0,1019.0,1021.0,1019.0,1022.0,1022.0,1024.0,1021.0,1021.0,1011.0,1019.0,1019.0,1021.0,1020.0,1024.0,1023.0,1024.0,1021.0,1024.0,1012.0,1020.0,1021.0,1023.0,1024.0,1023.0,1025.0,1021.0,1024.0,1012.0,1020.0,1020.0,1024.0,1023.0,1024.0,1021.0,1023.0,1012.0,1020.0,1024.0,1024.0,1025.0,1021.0,1024.0,1013.0,1020.0,1024.0,1023.0,1025.0,1021.0,1023.0,1013.0,1020.0,1024.0,1023.0,1025.0,1022.0,1024.0,1013.0,1023.0,1024.0,1025.0,1021.0,1022.0,1013.0,1025.0,1025.0,1026.0,1023.0,1024.0,1014.0,1026.0,1027.0,1027.0,1024.0,1026.0,1016.0,1024.0,1025.0,1026.0,1024.0,1023.0,1014.0,1026.0,1028.0,1028.0,1025.0,1025.0,1016.0,1030.0,1032.0,1031.0,1028.0,1028.0,1019.0,1030.0,1032.0,1032.0,1026.0,1026.0,1018.0,1033.0,1034.0,1035.0,1026.0,1026.0,1021.0,1040.0,1038.0,1039.0,1027.0,1027.0,1024.0,1044.0,1040.0,1045.0,1029.0,1026.0,1030.0,1038.0,1034.0,1041.0,1026.0,1024.0,1028.0,1045.0,1039.0,1054.0,1030.0,1024.0,1083.0,1042.0,1037.0,1052.0,1029.0,1024.0,2308,2216,1901,	00:29:07.317,-0.01220703125,0.07373046875,1.01904296875,0.18310546875,0.42724609375,0.18310546875,4.119873046875,0.7086181640625,-78.475341796875,96.0,-675.0,-4006.0,-0.77386474609375,-0.031768798828125,0.0179443359375,0.632293701171875,4.1203372960086755,0.7093095354885582,-82.68322232859985,-0.7501379628244058,-0.031075469936026816,0.019101295496406753,0.6602745583530116,1,	00:29:07.319,0.0185546875,0.02294921875,1.02099609375,-0.42724609375,0.18310546875,0.54931640625,1.29638671875,-0.9722900390625,34.1839599609375,4.0,620.0,-1851.0,0.955718994140625,0.0133056640625,-0.004791259765625,0.293975830078125,1.2944074670161394,-0.9739100719529095,27.680854449959007,0.9708457567143773,0.013000197769015074,-0.005549562288542837,0.23928793092435738,1
1782117256.455883,0.192,1020.0,1023.0,1020.0,1022.0,1022.0,1023.0,1020.0,1021.0,1011.0,1022.0,1023.0,1023.0,1020.0,1021.0,1010.0,1020.0,1022.0,1022.0,1024.0,1021.0,1021.0,1010.0,1021.0,1020.0,1022.0,1022.0,1023.0,1021.0,1021.0,1011.0,1020.0,1020.0,1020.0,1023.0,1022.0,1024.0,1020.0,1021.0,1011.0,1020.0,1020.0,1020.0,1022.0,1023.0,1023.0,1021.0,1021.0,1011.0,1020.0,1020.0,1021.0,1019.0,1022.0,1023.0,1024.0,1021.0,1021.0,1010.0,1020.0,1019.0,1021.0,1018.0,1023.0,1023.0,1024.0,1021.0,1022.0,1011.0,1021.0,1021.0,1021.0,1021.0,1023.0,1022.0,1024.0,1021.0,1022.0,1011.0,1020.0,1020.0,1021.0,1020.0,1022.0,1022.0,1023.0,1021.0,1022.0,1011.0,1020.0,1019.0,1020.0,1019.0,1022.0,1022.0,1024.0,1021.0,1022.0,1011.0,1020.0,1019.0,1021.0,1020.0,1023.0,1022.0,1024.0,1021.0,1022.0,1011.0,1020.0,1019.0,1021.0,1020.0,1023.0,1023.0,1024.0,1021.0,1024.0,1012.0,1021.0,1021.0,1024.0,1023.0,1024.0,1024.0,1021.0,1024.0,1012.0,1020.0,1021.0,1022.0,1024.0,1025.0,1022.0,1022.0,1012.0,1020.0,1023.0,1024.0,1025.0,1022.0,1025.0,1013.0,1020.0,1023.0,1024.0,1025.0,1022.0,1024.0,1012.0,1020.0,1023.0,1024.0,1025.0,1023.0,1024.0,1013.0,1023.0,1024.0,1024.0,1021.0,1022.0,1013.0,1024.0,1025.0,1026.0,1023.0,1025.0,1015.0,1025.0,1027.0,1027.0,1024.0,1027.0,1016.0,1024.0,1025.0,1026.0,1023.0,1023.0,1014.0,1027.0,1029.0,1028.0,1026.0,1026.0,1016.0,1029.0,1032.0,1031.0,1028.0,1028.0,1018.0,1030.0,1033.0,1032.0,1026.0,1027.0,1019.0,1032.0,1034.0,1035.0,1027.0,1026.0,1020.0,1040.0,1037.0,1039.0,1028.0,1027.0,1024.0,1043.0,1040.0,1045.0,1029.0,1027.0,1029.0,1038.0,1035.0,1041.0,1026.0,1024.0,1028.0,1044.0,1039.0,1055.0,1030.0,1024.0,1082.0,1041.0,1037.0,1052.0,1030.0,1025.0,2309,2216,1901,	00:29:07.328,-0.01220703125,0.07373046875,1.01904296875,0.18310546875,0.42724609375,0.1220703125,4.1748046875,0.63720703125,-78.475341796875,96.0,-676.0,-4004.0,-0.773895263671875,-0.03173828125,0.01873779296875,0.63226318359375,4.17592931855372,0.6392734931496116,-82.68106639508024,-0.7501526275525143,-0.03103641653432666,0.019879667891677975,0.6602367567996221,1,	00:29:07.329,0.01708984375,0.02294921875,1.02099609375,-0.3662109375,0.244140625,0.48828125,1.25244140625,-0.889892578125,34.189453125,3.0,622.0,-1853.0,0.955718994140625,0.012725830078125,-0.004180908203125,0.29400634765625,1.2533773782843685,-0.887856948421447,27.686394891079317,0.9708466667244667,0.012473256895862761,-0.004905537112125389,0.2393263530788942,1
1782117256.466942,0.203,1020.0,1023.0,1020.0,1021.0,1022.0,1023.0,1021.0,1021.0,1011.0,1021.0,1023.0,1023.0,1021.0,1021.0,1011.0,1020.0,1022.0,1022.0,1024.0,1020.0,1022.0,1011.0,1020.0,1020.0,1022.0,1022.0,1023.0,1021.0,1021.0,1011.0,1020.0,1020.0,1020.0,1022.0,1023.0,1024.0,1021.0,1022.0,1011.0,1020.0,1019.0,1021.0,1022.0,1023.0,1024.0,1021.0,1022.0,1011.0,1020.0,1019.0,1020.0,1018.0,1022.0,1022.0,1024.0,1021.0,1021.0,1011.0,1020.0,1019.0,1019.0,1019.0,1022.0,1023.0,1024.0,1021.0,1022.0,1011.0,1020.0,1020.0,1022.0,1021.0,1022.0,1022.0,1024.0,1021.0,1022.0,1011.0,1020.0,1020.0,1021.0,1020.0,1022.0,1022.0,1024.0,1021.0,1022.0,1011.0,1020.0,1019.0,1020.0,1020.0,1023.0,1023.0,1024.0,1021.0,1021.0,1012.0,1020.0,1019.0,1020.0,1019.0,1022.0,1022.0,1024.0,1021.0,1023.0,1012.0,1020.0,1020.0,1020.0,1019.0,1023.0,1023.0,1024.0,1021.0,1024.0,1012.0,1021.0,1021.0,1024.0,1024.0,1023.0,1025.0,1022.0,1024.0,1013.0,1021.0,1020.0,1023.0,1023.0,1024.0,1021.0,1023.0,1012.0,1020.0,1023.0,1024.0,1025.0,1022.0,1024.0,1013.0,1021.0,1024.0,1023.0,1025.0,1021.0,1023.0,1012.0,1020.0,1024.0,1024.0,1025.0,1022.0,1024.0,1013.0,1024.0,1023.0,1024.0,1021.0,1021.0,1012.0,1024.0,1025.0,1026.0,1023.0,1024.0,1014.0,1026.0,1027.0,1027.0,1024.0,1026.0,1016.0,1024.0,1025.0,1026.0,1023.0,1023.0,1014.0,1026.0,1029.0,1029.0,1026.0,1025.0,1016.0,1029.0,1033.0,1031.0,1028.0,1027.0,1018.0,1030.0,1033.0,1033.0,1027.0,1026.0,1019.0,1033.0,1034.0,1035.0,1026.0,1026.0,1020.0,1040.0,1038.0,1040.0,1027.0,1026.0,1023.0,1043.0,1041.0,1046.0,1029.0,1026.0,1029.0,1038.0,1035.0,1042.0,1026.0,1023.0,1028.0,1044.0,1038.0,1054.0,1030.0,1024.0,1083.0,1042.0,1036.0,1052.0,1029.0,1024.0,2309,2217,1902,	00:29:07.338,-0.01171875,0.07373046875,1.01953125,0.1220703125,0.42724609375,0.1220703125,4.0924072265625,0.68115234375,-78.475341796875,96.0,-676.0,-4005.0,-0.773895263671875,-0.031402587890625,0.01800537109375,0.63226318359375,4.093507206996174,0.6805201754045714,-82.6805007206037,-0.7501679697868326,-0.030734486241065857,0.019134505695764106,0.6602554650687703,1,	00:29:07.339,0.01708984375,0.0224609375,1.02099609375,-0.3662109375,0.18310546875,0.48828125,1.2579345703125,-0.977783203125,34.1949462890625,3.0,623.0,-1858.0,0.9556884765625,0.01300048828125,-0.004913330078125,0.2940673828125,1.258482114205616,-0.977363400085209,27.691176095735802,0.9708278991183297,0.01270354423603378,-0.005652695276546941,0.2393738859889355,1
1782117256.476788,0.213,1019.0,1023.0,1020.0,1021.0,1023.0,1024.0,1021.0,1021.0,1011.0,1022.0,1022.0,1024.0,1021.0,1021.0,1010.0,1020.0,1022.0,1022.0,1024.0,1021.0,1021.0,1010.0,1020.0,1020.0,1022.0,1022.0,1024.0,1022.0,1021.0,1010.0,1020.0,1020.0,1020.0,1022.0,1023.0,1024.0,1021.0,1021.0,1011.0,1020.0,1020.0,1021.0,1022.0,1022.0,1023.0,1021.0,1021.0,1011.0,1020.0,1020.0,1020.0,1019.0,1022.0,1022.0,1024.0,1021.0,1021.0,1011.0,1020.0,1019.0,1021.0,1019.0,1022.0,1023.0,1024.0,1021.0,1023.0,1011.0,1020.0,1021.0,1022.0,1021.0,1023.0,1022.0,1024.0,1021.0,1022.0,1011.0,1020.0,1020.0,1021.0,1019.0,1023.0,1022.0,1024.0,1021.0,1022.0,1011.0,1020.0,1020.0,1021.0,1019.0,1023.0,1022.0,1024.0,1022.0,1022.0,1011.0,1020.0,1019.0,1021.0,1019.0,1023.0,1022.0,1024.0,1021.0,1021.0,1011.0,1020.0,1020.0,1020.0,1019.0,1024.0,1023.0,1024.0,1022.0,1024.0,1012.0,1020.0,1022.0,1023.0,1023.0,1023.0,1025.0,1022.0,1024.0,1012.0,1021.0,1020.0,1023.0,1023.0,1024.0,1022.0,1022.0,1012.0,1019.0,1024.0,1024.0,1025.0,1022.0,1024.0,1012.0,1021.0,1024.0,1023.0,1025.0,1022.0,1023.0,1012.0,1020.0,1023.0,1024.0,1025.0,1023.0,1024.0,1013.0,1023.0,1024.0,1025.0,1021.0,1021.0,1012.0,1025.0,1024.0,1026.0,1023.0,1024.0,1014.0,1025.0,1027.0,1027.0,1025.0,1026.0,1016.0,1024.0,1025.0,1026.0,1023.0,1023.0,1014.0,1026.0,1028.0,1028.0,1026.0,1025.0,1017.0,1030.0,1033.0,1031.0,1028.0,1028.0,1019.0,1030.0,1032.0,1032.0,1026.0,1026.0,1019.0,1032.0,1034.0,1034.0,1027.0,1025.0,1020.0,1041.0,1037.0,1039.0,1028.0,1026.0,1024.0,1044.0,1040.0,1046.0,1030.0,1026.0,1029.0,1039.0,1034.0,1042.0,1027.0,1024.0,1029.0,1045.0,1038.0,1053.0,1030.0,1024.0,1083.0,1042.0,1037.0,1052.0,1030.0,1024.0,2310,2217,1902,	00:29:07.348,-0.0126953125,0.07421875,1.02001953125,0.18310546875,0.3662109375,0.18310546875,4.1802978515625,0.7196044921875,-78.4698486328125,97.0,-678.0,-4002.0,-0.773895263671875,-0.0322265625,0.0181884765625,0.632232666015625,4.178749729766189,0.7215896783689564,-82.6773919521263,-0.750152535263331,-0.03152954997287936,0.019355841749943863,0.6602290607862211,1,	00:29:07.349,0.017578125,0.0234375,1.021484375,-0.30517578125,0.18310546875,0.54931640625,1.3458251953125,-0.98876953125,34.200439453125,3.0,622.0,-1854.0,0.955657958984375,0.013763427734375,-0.004791259765625,0.294097900390625,1.3460117161940182,-0.9890355332077918,27.695153243561364,0.9708084688888324,0.013469653615746724,-0.005568273822612496,0.2394127805523951,1
1782117256.487208,0.223,1020.0,1023.0,1020.0,1021.0,1022.0,1024.0,1021.0,1020.0,1011.0,1022.0,1022.0,1024.0,1021.0,1020.0,1011.0,1020.0,1022.0,1022.0,1024.0,1021.0,1021.0,1011.0,1020.0,1020.0,1022.0,1023.0,1024.0,1021.0,1021.0,1011.0,1020.0,1020.0,1020.0,1022.0,1023.0,1024.0,1021.0,1021.0,1011.0,1020.0,1020.0,1020.0,1023.0,1023.0,1024.0,1021.0,1021.0,1011.0,1020.0,1020.0,1020.0,1019.0,1022.0,1022.0,1024.0,1021.0,1021.0,1011.0,1020.0,1019.0,1020.0,1018.0,1023.0,1022.0,1024.0,1021.0,1022.0,1010.0,1021.0,1021.0,1021.0,1021.0,1023.0,1023.0,1024.0,1021.0,1022.0,1011.0,1019.0,1020.0,1021.0,1020.0,1022.0,1022.0,1024.0,1021.0,1021.0,1011.0,1020.0,1020.0,1021.0,1019.0,1022.0,1023.0,1024.0,1022.0,1021.0,1011.0,1020.0,1020.0,1021.0,1019.0,1023.0,1022.0,1024.0,1021.0,1022.0,1011.0,1020.0,1020.0,1021.0,1019.0,1023.0,1023.0,1024.0,1022.0,1023.0,1012.0,1021.0,1022.0,1023.0,1024.0,1023.0,1024.0,1021.0,1023.0,1013.0,1021.0,1021.0,1023.0,1023.0,1025.0,1021.0,1022.0,1012.0,1020.0,1024.0,1024.0,1025.0,1022.0,1024.0,1013.0,1020.0,1024.0,1024.0,1025.0,1022.0,1023.0,1013.0,1021.0,1024.0,1024.0,1025.0,1022.0,1024.0,1013.0,1024.0,1024.0,1024.0,1021.0,1022.0,1012.0,1024.0,1024.0,1026.0,1023.0,1024.0,1014.0,1026.0,1026.0,1028.0,1025.0,1026.0,1016.0,1025.0,1025.0,1026.0,1023.0,1023.0,1014.0,1027.0,1028.0,1028.0,1026.0,1024.0,1016.0,1030.0,1033.0,1031.0,1028.0,1028.0,1018.0,1031.0,1033.0,1032.0,1027.0,1027.0,1019.0,1033.0,1034.0,1035.0,1027.0,1026.0,1020.0,1041.0,1037.0,1040.0,1028.0,1026.0,1024.0,1044.0,1040.0,1046.0,1029.0,1026.0,1030.0,1040.0,1034.0,1042.0,1027.0,1023.0,1028.0,1045.0,1038.0,1055.0,1030.0,1024.0,1083.0,1042.0,1037.0,1052.0,1030.0,1024.0,2310,2218,1902,	00:29:07.359,-0.0126953125,0.07421875,1.02001953125,0.1220703125,0.42724609375,0.1220703125,4.1033935546875,0.6756591796875,-78.4698486328125,96.0,-677.0,-4003.0,-0.77392578125,-0.031463623046875,0.01806640625,0.632232666015625,4.101801756008956,0.6782978905373952,-82.67681857676251,-0.7501875032267687,-0.03077660466094328,0.01919586185824321,0.6602295278881808,1,	00:29:07.360,0.01806640625,0.0224609375,1.021484375,-0.30517578125,0.18310546875,0.48828125,1.25244140625,-1.0107421875,34.2059326171875,5.0,624.0,-1856.0,0.955657958984375,0.0130615234375,-0.005218505859375,0.29412841796875,1.2545407463465907,-1.0118334785545988,27.70162146294905,0.9708031887111717,0.01274264570422857,-0.005951813302075901,0.23946475667015152,1
1782117256.497626,0.234,1020.0,1024.0,1020.0,1022.0,1022.0,1024.0,1020.0,1021.0,1011.0,1022.0,1022.0,1024.0,1020.0,1021.0,1010.0,1020.0,1022.0,1022.0,1024.0,1021.0,1021.0,1010.0,1020.0,1020.0,1022.0,1022.0,1024.0,1020.0,1021.0,1010.0,1020.0,1019.0,1021.0,1022.0,1022.0,1024.0,1021.0,1021.0,1010.0,1020.0,1020.0,1020.0,1022.0,1022.0,1024.0,1021.0,1021.0,1010.0,1020.0,1019.0,1020.0,1019.0,1022.0,1022.0,1024.0,1021.0,1021.0,1010.0,1020.0,1020.0,1020.0,1019.0,1023.0,1023.0,1024.0,1021.0,1022.0,1011.0,1020.0,1021.0,1021.0,1021.0,1023.0,1022.0,1024.0,1021.0,1021.0,1011.0,1020.0,1020.0,1021.0,1019.0,1022.0,1023.0,1024.0,1021.0,1021.0,1011.0,1020.0,1019.0,1021.0,1020.0,1023.0,1022.0,1024.0,1021.0,1022.0,1011.0,1020.0,1020.0,1020.0,1019.0,1023.0,1023.0,1024.0,1021.0,1021.0,1011.0,1021.0,1020.0,1021.0,1019.0,1023.0,1023.0,1025.0,1021.0,1024.0,1012.0,1021.0,1022.0,1023.0,1023.0,1023.0,1024.0,1022.0,1023.0,1012.0,1021.0,1020.0,1023.0,1023.0,1025.0,1022.0,1022.0,1012.0,1020.0,1024.0,1024.0,1025.0,1021.0,1024.0,1012.0,1020.0,1023.0,1024.0,1025.0,1022.0,1023.0,1012.0,1021.0,1024.0,1024.0,1026.0,1022.0,1024.0,1013.0,1022.0,1023.0,1024.0,1021.0,1021.0,1012.0,1025.0,1025.0,1026.0,1023.0,1024.0,1014.0,1025.0,1027.0,1027.0,1025.0,1026.0,1016.0,1024.0,1025.0,1026.0,1023.0,1023.0,1014.0,1027.0,1029.0,1029.0,1026.0,1025.0,1016.0,1030.0,1032.0,1032.0,1028.0,1028.0,1019.0,1030.0,1033.0,1032.0,1027.0,1025.0,1018.0,1032.0,1035.0,1035.0,1026.0,1025.0,1020.0,1040.0,1038.0,1039.0,1028.0,1026.0,1023.0,1044.0,1040.0,1047.0,1029.0,1026.0,1030.0,1039.0,1035.0,1042.0,1027.0,1023.0,1028.0,1044.0,1039.0,1056.0,1030.0,1023.0,1083.0,1042.0,1037.0,1053.0,1030.0,1024.0,2311,2218,1901,	00:29:07.369,-0.01171875,0.07275390625,1.01953125,0.06103515625,0.3662109375,0.1220703125,4.0374755859375,0.615234375,-78.4698486328125,96.0,-678.0,-4006.0,-0.773956298828125,-0.03070068359375,0.01812744140625,0.632232666015625,4.039830077220119,0.6150891115986841,-82.67604577099777,-0.7502236674805094,-0.03000700442707979,0.01925256350206085,0.6602222104988642,1,	00:29:07.370,0.01904296875,0.02197265625,1.021484375,-0.244140625,0.1220703125,0.48828125,1.219482421875,-1.0931396484375,34.21142578125,4.0,623.0,-1854.0,0.95562744140625,0.012969970703125,-0.006011962890625,0.294189453125,1.218097746955886,-1.0958870797171403,27.707156191563612,0.970787209050062,0.012609741151741287,-0.006739484000774571,0.2395156957868949,1
1782117256.507343,0.243,1020.0,1023.0,1020.0,1022.0,1023.0,1024.0,1021.0,1020.0,1010.0,1022.0,1022.0,1023.0,1021.0,1020.0,1010.0,1020.0,1022.0,1022.0,1024.0,1021.0,1021.0,1010.0,1020.0,1020.0,1022.0,1022.0,1024.0,1021.0,1021.0,1011.0,1020.0,1020.0,1021.0,1022.0,1023.0,1024.0,1021.0,1021.0,1010.0,1020.0,1020.0,1021.0,1022.0,1022.0,1024.0,1021.0,1021.0,1010.0,1020.0,1020.0,1020.0,1019.0,1023.0,1022.0,1024.0,1021.0,1021.0,1010.0,1020.0,1019.0,1020.0,1019.0,1023.0,1023.0,1024.0,1021.0,1022.0,1011.0,1020.0,1021.0,1022.0,1021.0,1023.0,1022.0,1024.0,1021.0,1022.0,1011.0,1020.0,1020.0,1021.0,1020.0,1023.0,1023.0,1024.0,1021.0,1021.0,1010.0,1020.0,1019.0,1020.0,1019.0,1023.0,1023.0,1024.0,1021.0,1022.0,1010.0,1020.0,1020.0,1021.0,1020.0,1023.0,1023.0,1025.0,1021.0,1022.0,1010.0,1020.0,1020.0,1021.0,1019.0,1024.0,1023.0,1025.0,1022.0,1023.0,1012.0,1021.0,1021.0,1023.0,1024.0,1023.0,1025.0,1022.0,1023.0,1012.0,1021.0,1020.0,1023.0,1023.0,1025.0,1021.0,1022.0,1011.0,1021.0,1024.0,1024.0,1025.0,1022.0,1023.0,1012.0,1021.0,1024.0,1024.0,1025.0,1022.0,1022.0,1012.0,1020.0,1023.0,1024.0,1025.0,1022.0,1024.0,1012.0,1024.0,1023.0,1025.0,1021.0,1021.0,1011.0,1025.0,1025.0,1026.0,1023.0,1024.0,1014.0,1026.0,1027.0,1027.0,1024.0,1026.0,1015.0,1024.0,1025.0,1026.0,1024.0,1023.0,1014.0,1027.0,1028.0,1028.0,1026.0,1025.0,1016.0,1030.0,1033.0,1032.0,1028.0,1028.0,1018.0,1031.0,1033.0,1032.0,1026.0,1025.0,1018.0,1032.0,1034.0,1035.0,1026.0,1026.0,1020.0,1040.0,1037.0,1039.0,1027.0,1026.0,1024.0,1043.0,1040.0,1046.0,1029.0,1026.0,1030.0,1039.0,1034.0,1042.0,1026.0,1023.0,1029.0,1045.0,1039.0,1054.0,1030.0,1025.0,1084.0,1042.0,1038.0,1052.0,1029.0,1024.0,2311,2219,1902,	00:29:07.379,-0.01123046875,0.0732421875,1.02001953125,0.0,0.3662109375,0.1220703125,4.130859375,0.63720703125,-78.46435546875,96.0,-675.0,-4008.0,-0.77392578125,-0.03143310546875,0.01849365234375,0.6322021484375,4.129342452288388,0.6374188375800327,-82.67359190604368,-0.7502087004370975,-0.030722040384569133,0.019621390704911996,0.6601954733636813,1,	00:29:07.380,0.01904296875,0.02294921875,1.02099609375,-0.244140625,0.1220703125,0.48828125,1.3018798828125,-1.0601806640625,34.21142578125,2.0,624.0,-1855.0,0.95562744140625,0.013580322265625,-0.005523681640625,0.294219970703125,1.3007611470417182,-1.0609144540727526,27.710460440484333,0.9707745710235853,0.013237183067196017,-0.0062700286294826045,0.23954581185945398,1
1782117256.518768,0.255,1019.0,1023.0,1019.0,1021.0,1022.0,1023.0,1020.0,1021.0,1011.0,1021.0,1023.0,1024.0,1021.0,1021.0,1011.0,1020.0,1022.0,1022.0,1024.0,1020.0,1021.0,1011.0,1020.0,1020.0,1022.0,1023.0,1024.0,1021.0,1021.0,1010.0,1020.0,1020.0,1021.0,1022.0,1023.0,1024.0,1021.0,1021.0,1010.0,1020.0,1020.0,1020.0,1022.0,1022.0,1024.0,1020.0,1021.0,1011.0,1020.0,1019.0,1020.0,1019.0,1022.0,1023.0,1024.0,1021.0,1020.0,1010.0,1020.0,1019.0,1020.0,1019.0,1023.0,1023.0,1024.0,1021.0,1022.0,1011.0,1020.0,1020.0,1022.0,1021.0,1022.0,1023.0,1024.0,1021.0,1021.0,1011.0,1020.0,1020.0,1021.0,1020.0,1022.0,1023.0,1024.0,1021.0,1021.0,1011.0,1020.0,1020.0,1021.0,1020.0,1023.0,1023.0,1024.0,1021.0,1022.0,1011.0,1020.0,1020.0,1021.0,1020.0,1023.0,1023.0,1024.0,1021.0,1021.0,1011.0,1020.0,1020.0,1020.0,1019.0,1023.0,1023.0,1025.0,1021.0,1023.0,1012.0,1020.0,1021.0,1023.0,1024.0,1023.0,1025.0,1022.0,1023.0,1012.0,1020.0,1020.0,1023.0,1023.0,1024.0,1021.0,1022.0,1012.0,1019.0,1024.0,1023.0,1025.0,1022.0,1024.0,1012.0,1021.0,1024.0,1024.0,1025.0,1022.0,1023.0,1012.0,1020.0,1024.0,1024.0,1025.0,1022.0,1024.0,1013.0,1023.0,1023.0,1025.0,1021.0,1021.0,1012.0,1024.0,1025.0,1026.0,1023.0,1025.0,1014.0,1026.0,1026.0,1028.0,1025.0,1025.0,1016.0,1025.0,1025.0,1026.0,1023.0,1023.0,1014.0,1027.0,1028.0,1028.0,1026.0,1024.0,1016.0,1031.0,1033.0,1032.0,1029.0,1027.0,1018.0,1031.0,1032.0,1032.0,1026.0,1025.0,1019.0,1033.0,1034.0,1035.0,1027.0,1025.0,1020.0,1041.0,1037.0,1039.0,1028.0,1026.0,1024.0,1045.0,1040.0,1046.0,1029.0,1026.0,1030.0,1039.0,1035.0,1041.0,1026.0,1024.0,1029.0,1045.0,1038.0,1055.0,1029.0,1025.0,1084.0,1043.0,1037.0,1052.0,1029.0,1025.0,2311,2219,1902,	00:29:07.390,-0.01171875,0.0732421875,1.02001953125,0.0,0.3662109375,0.18310546875,4.0594482421875,0.703125,-78.46435546875,97.0,-677.0,-4008.0,-0.773956298828125,-0.03131103515625,0.017669677734375,0.632232666015625,4.059861919177746,0.7005688520626832,-82.67231319934855,-0.750219250687959,-0.030631033580360848,0.018807160241667845,0.6602114103850678,1,	00:29:07.391,0.0185546875,0.0234375,1.02001953125,-0.18310546875,0.18310546875,0.48828125,1.3568115234375,-0.98876953125,34.2169189453125,3.0,622.0,-1853.0,0.95562744140625,0.01385498046875,-0.0047607421875,0.29425048828125,1.3567239859697162,-0.9881004761496972,27.71434819416909,0.9707671797979411,0.013559382346384182,-0.005535699645506868,0.23957583727699017,1
1782117256.528195,0.264,1020.0,1023.0,1021.0,1021.0,1023.0,1024.0,1020.0,1021.0,1011.0,1022.0,1022.0,1024.0,1021.0,1021.0,1011.0,1020.0,1022.0,1023.0,1024.0,1021.0,1021.0,1011.0,1020.0,1020.0,1022.0,1022.0,1024.0,1021.0,1021.0,1011.0,1020.0,1019.0,1021.0,1022.0,1022.0,1024.0,1021.0,1021.0,1011.0,1020.0,1019.0,1020.0,1022.0,1022.0,1024.0,1021.0,1020.0,1010.0,1020.0,1020.0,1020.0,1019.0,1023.0,1022.0,1024.0,1021.0,1021.0,1010.0,1020.0,1019.0,1020.0,1019.0,1022.0,1023.0,1024.0,1021.0,1022.0,1011.0,1021.0,1021.0,1021.0,1021.0,1023.0,1023.0,1024.0,1021.0,1021.0,1011.0,1020.0,1019.0,1021.0,1020.0,1023.0,1022.0,1024.0,1020.0,1021.0,1011.0,1020.0,1020.0,1021.0,1020.0,1022.0,1022.0,1024.0,1021.0,1022.0,1011.0,1020.0,1020.0,1021.0,1019.0,1023.0,1023.0,1024.0,1021.0,1022.0,1011.0,1020.0,1019.0,1021.0,1020.0,1023.0,1023.0,1025.0,1021.0,1024.0,1012.0,1021.0,1021.0,1023.0,1024.0,1023.0,1025.0,1022.0,1024.0,1012.0,1020.0,1021.0,1024.0,1023.0,1025.0,1021.0,1023.0,1011.0,1020.0,1024.0,1023.0,1026.0,1022.0,1024.0,1012.0,1021.0,1024.0,1024.0,1025.0,1021.0,1023.0,1012.0,1021.0,1024.0,1024.0,1026.0,1022.0,1024.0,1012.0,1024.0,1023.0,1025.0,1022.0,1021.0,1011.0,1024.0,1025.0,1026.0,1023.0,1025.0,1014.0,1026.0,1026.0,1028.0,1025.0,1026.0,1015.0,1025.0,1025.0,1027.0,1023.0,1023.0,1014.0,1027.0,1029.0,1029.0,1026.0,1024.0,1016.0,1030.0,1033.0,1032.0,1028.0,1027.0,1018.0,1030.0,1032.0,1032.0,1027.0,1026.0,1018.0,1033.0,1034.0,1035.0,1027.0,1026.0,1020.0,1041.0,1037.0,1040.0,1027.0,1026.0,1024.0,1044.0,1040.0,1047.0,1029.0,1025.0,1030.0,1039.0,1034.0,1043.0,1026.0,1023.0,1029.0,1045.0,1038.0,1055.0,1029.0,1024.0,1083.0,1043.0,1037.0,1053.0,1029.0,1024.0,2312,2219,1902,	00:29:07.400,-0.01220703125,0.07421875,1.01904296875,0.06103515625,0.42724609375,0.1220703125,4.15283203125,0.692138671875,-78.46435546875,96.0,-678.0,-4003.0,-0.77392578125,-0.0318603515625,0.01824951171875,0.6322021484375,4.1509146757612525,0.690997697888061,-82.66969504223366,-0.7502121369984209,-0.031172465448979444,0.019393719926619174,0.6601771811608628,1,	00:29:07.401,0.0185546875,0.0234375,1.021484375,-0.244140625,0.244140625,0.48828125,1.29638671875,-1.0546875,34.222412109375,2.0,623.0,-1855.0,0.955596923828125,0.013519287109375,-0.0054931640625,0.2943115234375,1.2964888468637077,-1.0570125550565705,27.72031957160173,0.9707548482197385,0.013193377416871568,-0.006244767397992771,0.23962880112864898,1
1782117256.538556,0.275,1020.0,1024.0,1020.0,1021.0,1022.0,1024.0,1020.0,1020.0,1011.0,1022.0,1022.0,1024.0,1020.0,1020.0,1011.0,1020.0,1023.0,1022.0,1024.0,1021.0,1021.0,1010.0,1020.0,1020.0,1022.0,1022.0,1024.0,1021.0,1021.0,1010.0,1020.0,1020.0,1021.0,1023.0,1022.0,1024.0,1021.0,1021.0,1010.0,1019.0,1020.0,1020.0,1022.0,1023.0,1024.0,1021.0,1021.0,1010.0,1020.0,1020.0,1020.0,1019.0,1022.0,1022.0,1024.0,1020.0,1021.0,1011.0,1020.0,1019.0,1020.0,1018.0,1023.0,1023.0,1024.0,1021.0,1022.0,1010.0,1020.0,1021.0,1021.0,1021.0,1022.0,1023.0,1025.0,1021.0,1021.0,1011.0,1020.0,1020.0,1021.0,1020.0,1023.0,1023.0,1024.0,1021.0,1022.0,1010.0,1020.0,1020.0,1020.0,1019.0,1023.0,1022.0,1024.0,1021.0,1021.0,1011.0,1019.0,1019.0,1021.0,1019.0,1023.0,1023.0,1024.0,1021.0,1022.0,1011.0,1020.0,1020.0,1021.0,1020.0,1023.0,1023.0,1025.0,1022.0,1024.0,1012.0,1020.0,1022.0,1023.0,1024.0,1023.0,1025.0,1022.0,1023.0,1011.0,1020.0,1021.0,1024.0,1024.0,1025.0,1021.0,1022.0,1011.0,1020.0,1024.0,1024.0,1025.0,1022.0,1024.0,1012.0,1021.0,1024.0,1024.0,1025.0,1022.0,1023.0,1012.0,1021.0,1025.0,1024.0,1026.0,1022.0,1024.0,1012.0,1024.0,1024.0,1025.0,1021.0,1020.0,1011.0,1025.0,1025.0,1027.0,1023.0,1024.0,1014.0,1026.0,1026.0,1028.0,1025.0,1025.0,1016.0,1025.0,1025.0,1026.0,1024.0,1022.0,1014.0,1028.0,1028.0,1028.0,1026.0,1024.0,1015.0,1031.0,1033.0,1032.0,1029.0,1027.0,1018.0,1031.0,1033.0,1033.0,1027.0,1025.0,1019.0,1033.0,1035.0,1035.0,1026.0,1026.0,1020.0,1042.0,1038.0,1039.0,1028.0,1025.0,1024.0,1044.0,1040.0,1047.0,1030.0,1025.0,1029.0,1039.0,1035.0,1042.0,1027.0,1023.0,1028.0,1045.0,1039.0,1055.0,1030.0,1024.0,1082.0,1043.0,1037.0,1053.0,1030.0,1024.0,2312,2220,1902,	00:29:07.410,-0.0126953125,0.072265625,1.02099609375,0.0,0.42724609375,0.1220703125,4.0594482421875,0.714111328125,-78.46435546875,96.0,-681.0,-4001.0,-0.773956298828125,-0.0313720703125,0.017608642578125,0.6322021484375,4.061101722020382,0.7123990396225429,-82.6692682187491,-0.7502335689253826,-0.03070777336144143,0.018736006666758197,0.6601935979444582,1,	00:29:07.411,0.01953125,0.02294921875,1.02099609375,-0.18310546875,0.244140625,0.48828125,1.2744140625,-1.142578125,34.2279052734375,4.0,622.0,-1852.0,0.95556640625,0.0135498046875,-0.006256103515625,0.294342041015625,1.2740841845412605,-1.1440299406794894,27.72565202087398,0.9707371545140833,0.013185715603597293,-0.007028204760698051,0.23967919827920742,1
1782117256.548403,0.284,1020.0,1024.0,1020.0,1022.0,1022.0,1024.0,1021.0,1020.0,1010.0,1022.0,1022.0,1024.0,1020.0,1021.0,1010.0,1020.0,1023.0,1022.0,1023.0,1021.0,1021.0,1010.0,1020.0,1019.0,1022.0,1022.0,1024.0,1021.0,1021.0,1010.0,1020.0,1020.0,1021.0,1022.0,1022.0,1024.0,1021.0,1021.0,1011.0,1020.0,1020.0,1021.0,1023.0,1023.0,1024.0,1021.0,1021.0,1010.0,1019.0,1019.0,1020.0,1019.0,1022.0,1022.0,1024.0,1021.0,1021.0,1010.0,1020.0,1019.0,1020.0,1019.0,1023.0,1022.0,1025.0,1021.0,1022.0,1011.0,1020.0,1020.0,1022.0,1021.0,1023.0,1022.0,1024.0,1021.0,1021.0,1011.0,1020.0,1020.0,1021.0,1020.0,1023.0,1022.0,1024.0,1021.0,1021.0,1010.0,1020.0,1020.0,1021.0,1020.0,1023.0,1022.0,1024.0,1021.0,1021.0,1010.0,1020.0,1019.0,1020.0,1019.0,1023.0,1023.0,1025.0,1021.0,1021.0,1011.0,1020.0,1019.0,1021.0,1020.0,1024.0,1023.0,1025.0,1022.0,1023.0,1012.0,1021.0,1022.0,1024.0,1024.0,1024.0,1025.0,1021.0,1023.0,1012.0,1021.0,1021.0,1024.0,1023.0,1025.0,1021.0,1022.0,1011.0,1020.0,1024.0,1024.0,1026.0,1022.0,1024.0,1012.0,1021.0,1024.0,1024.0,1025.0,1022.0,1023.0,1012.0,1020.0,1024.0,1024.0,1025.0,1022.0,1024.0,1012.0,1023.0,1023.0,1025.0,1022.0,1021.0,1012.0,1025.0,1025.0,1026.0,1023.0,1024.0,1014.0,1026.0,1027.0,1028.0,1025.0,1026.0,1015.0,1025.0,1025.0,1027.0,1023.0,1023.0,1014.0,1028.0,1029.0,1029.0,1026.0,1025.0,1017.0,1030.0,1033.0,1032.0,1029.0,1027.0,1018.0,1031.0,1032.0,1033.0,1027.0,1025.0,1018.0,1034.0,1035.0,1035.0,1027.0,1025.0,1020.0,1042.0,1037.0,1040.0,1028.0,1025.0,1024.0,1044.0,1040.0,1047.0,1030.0,1025.0,1029.0,1039.0,1034.0,1043.0,1027.0,1023.0,1028.0,1045.0,1038.0,1056.0,1031.0,1024.0,1083.0,1043.0,1037.0,1054.0,1030.0,1023.0,2312,2220,1902,	00:29:07.420,-0.01123046875,0.07373046875,1.01953125,0.0,0.42724609375,0.1220703125,4.1253662109375,0.648193359375,-78.4588623046875,95.0,-681.0,-4003.0,-0.77398681640625,-0.03143310546875,0.01837158203125,0.632171630859375,4.122658797648308,0.6487162529611925,-82.66701701185232,-0.7502456126207904,-0.030744461104375016,0.0195071318826659,0.6601558684586306,1,	00:29:07.421,0.01806640625,0.0224609375,1.02197265625,-0.18310546875,0.244140625,0.48828125,1.263427734375,-1.0491943359375,34.2333984375,3.0,623.0,-1857.0,0.95556640625,0.013214111328125,-0.005523681640625,0.294403076171875,1.2617450620908213,-1.0506384679220397,27.730786762144415,0.9707375547501393,0.0128863010449571,-0.006262244126989899,0.23971509619044207,1
1782117256.558753,0.295,1021.0,1024.0,1020.0,1022.0,1022.0,1024.0,1021.0,1021.0,1010.0,1022.0,1022.0,1024.0,1021.0,1021.0,1010.0,1020.0,1022.0,1022.0,1024.0,1021.0,1021.0,1010.0,1020.0,1019.0,1023.0,1023.0,1024.0,1021.0,1021.0,1010.0,1020.0,1020.0,1020.0,1022.0,1023.0,1024.0,1021.0,1021.0,1010.0,1020.0,1019.0,1021.0,1023.0,1022.0,1024.0,1021.0,1021.0,1010.0,1020.0,1019.0,1020.0,1019.0,1023.0,1023.0,1024.0,1021.0,1020.0,1010.0,1020.0,1020.0,1020.0,1019.0,1023.0,1023.0,1024.0,1021.0,1022.0,1011.0,1021.0,1021.0,1022.0,1021.0,1023.0,1023.0,1024.0,1021.0,1022.0,1010.0,1020.0,1020.0,1021.0,1020.0,1023.0,1022.0,1024.0,1022.0,1021.0,1010.0,1020.0,1020.0,1020.0,1020.0,1023.0,1022.0,1024.0,1021.0,1021.0,1011.0,1020.0,1020.0,1021.0,1018.0,1023.0,1023.0,1024.0,1021.0,1021.0,1011.0,1020.0,1020.0,1021.0,1019.0,1024.0,1023.0,1025.0,1022.0,1023.0,1011.0,1020.0,1021.0,1023.0,1024.0,1024.0,1025.0,1022.0,1023.0,1012.0,1021.0,1020.0,1024.0,1023.0,1025.0,1022.0,1022.0,1011.0,1020.0,1024.0,1024.0,1025.0,1022.0,1023.0,1012.0,1020.0,1024.0,1024.0,1025.0,1022.0,1023.0,1011.0,1020.0,1024.0,1024.0,1025.0,1023.0,1024.0,1012.0,1023.0,1024.0,1025.0,1022.0,1021.0,1011.0,1024.0,1024.0,1027.0,1023.0,1024.0,1014.0,1026.0,1027.0,1028.0,1025.0,1026.0,1016.0,1024.0,1025.0,1027.0,1024.0,1023.0,1013.0,1027.0,1029.0,1029.0,1026.0,1025.0,1016.0,1030.0,1033.0,1032.0,1029.0,1027.0,1018.0,1031.0,1033.0,1033.0,1027.0,1026.0,1018.0,1033.0,1035.0,1036.0,1027.0,1025.0,1020.0,1041.0,1038.0,1040.0,1029.0,1026.0,1024.0,1044.0,1040.0,1047.0,1031.0,1025.0,1029.0,1040.0,1034.0,1043.0,1027.0,1024.0,1028.0,1046.0,1038.0,1056.0,1031.0,1023.0,1083.0,1043.0,1038.0,1054.0,1029.0,1023.0,2313,2220,1902,	00:29:07.431,-0.01220703125,0.0732421875,1.0205078125,0.0,0.3662109375,0.18310546875,4.0814208984375,0.736083984375,-78.4588623046875,96.0,-679.0,-4006.0,-0.77398681640625,-0.031646728515625,0.017547607421875,0.632171630859375,4.08144017682637,0.7340873783426747,-82.66542489888299,-0.7502449013504924,-0.030966445147296913,0.01871009453974375,0.6601693719302975,1,	00:29:07.432,0.01708984375,0.02197265625,1.0205078125,-0.18310546875,0.30517578125,0.48828125,1.23046875,-0.9613037109375,34.2388916015625,3.0,624.0,-1854.0,0.95556640625,0.01275634765625,-0.004852294921875,0.29443359375,1.2327382990494138,-0.9601386612611217,27.736210243569698,0.9707382020377261,0.012451670320937013,-0.005555642840422344,0.239752859927491,1
1782117256.569805,0.306,1020.0,1024.0,1020.0,1021.0,1023.0,1023.0,1020.0,1020.0,1010.0,1022.0,1023.0,1024.0,1021.0,1021.0,1010.0,1020.0,1022.0,1022.0,1024.0,1021.0,1021.0,1010.0,1020.0,1020.0,1023.0,1022.0,1024.0,1021.0,1021.0,1010.0,1020.0,1020.0,1020.0,1022.0,1023.0,1024.0,1020.0,1021.0,1010.0,1020.0,1020.0,1020.0,1022.0,1022.0,1024.0,1021.0,1021.0,1010.0,1020.0,1019.0,1020.0,1019.0,1023.0,1023.0,1024.0,1021.0,1021.0,1010.0,1020.0,1019.0,1020.0,1019.0,1023.0,1023.0,1024.0,1021.0,1022.0,1010.0,1021.0,1020.0,1022.0,1021.0,1023.0,1023.0,1024.0,1021.0,1021.0,1011.0,1020.0,1020.0,1021.0,1020.0,1022.0,1023.0,1024.0,1021.0,1021.0,1010.0,1020.0,1019.0,1020.0,1019.0,1022.0,1023.0,1024.0,1021.0,1022.0,1011.0,1020.0,1020.0,1021.0,1020.0,1023.0,1023.0,1024.0,1021.0,1021.0,1010.0,1020.0,1020.0,1021.0,1019.0,1024.0,1024.0,1024.0,1022.0,1023.0,1012.0,1021.0,1021.0,1024.0,1024.0,1023.0,1025.0,1022.0,1024.0,1012.0,1020.0,1020.0,1024.0,1024.0,1025.0,1021.0,1022.0,1012.0,1020.0,1024.0,1024.0,1025.0,1022.0,1024.0,1012.0,1020.0,1024.0,1024.0,1025.0,1022.0,1023.0,1012.0,1020.0,1024.0,1024.0,1026.0,1022.0,1023.0,1012.0,1023.0,1024.0,1025.0,1021.0,1021.0,1011.0,1025.0,1025.0,1027.0,1023.0,1024.0,1014.0,1026.0,1027.0,1028.0,1025.0,1026.0,1016.0,1025.0,1025.0,1026.0,1024.0,1023.0,1014.0,1027.0,1029.0,1028.0,1026.0,1025.0,1016.0,1030.0,1034.0,1032.0,1029.0,1028.0,1018.0,1031.0,1034.0,1033.0,1027.0,1026.0,1018.0,1033.0,1035.0,1036.0,1027.0,1025.0,1021.0,1041.0,1038.0,1040.0,1028.0,1025.0,1024.0,1044.0,1040.0,1047.0,1030.0,1026.0,1030.0,1039.0,1035.0,1043.0,1027.0,1024.0,1029.0,1045.0,1039.0,1056.0,1030.0,1023.0,1083.0,1042.0,1038.0,1054.0,1029.0,1023.0,2313,2220,1902,	00:29:07.441,-0.0107421875,0.07373046875,1.021484375,0.0,0.42724609375,0.1220703125,4.1143798828125,0.6536865234375,-78.453369140625,97.0,-679.0,-4004.0,-0.77398681640625,-0.0313720703125,0.018280029296875,0.63214111328125,4.11197036166833,0.6518217813576289,-82.66353410755839,-0.7502677840580659,-0.030692955364637124,0.019424283765326997,0.6601355102520904,1,	00:29:07.442,0.017578125,0.0224609375,1.02099609375,-0.18310546875,0.30517578125,0.42724609375,1.29638671875,-1.021728515625,34.244384765625,2.0,621.0,-1854.0,0.95556640625,0.013427734375,-0.00518798828125,0.294464111328125,1.2974791736119162,-1.0200863331436971,27.73939727146358,0.9707185359595326,0.013125600116595805,-0.00592767688166061,0.23978762522896643,1
1782117256.579507,0.316,1020.0,1023.0,1020.0,1022.0,1023.0,1024.0,1021.0,1020.0,1010.0,1022.0,1023.0,1024.0,1021.0,1021.0,1010.0,1020.0,1022.0,1023.0,1024.0,1021.0,1021.0,1010.0,1020.0,1019.0,1022.0,1022.0,1024.0,1021.0,1021.0,1010.0,1020.0,1020.0,1020.0,1023.0,1023.0,1024.0,1021.0,1021.0,1010.0,1020.0,1019.0,1020.0,1022.0,1023.0,1024.0,1021.0,1021.0,1010.0,1020.0,1019.0,1021.0,1019.0,1022.0,1023.0,1024.0,1021.0,1021.0,1010.0,1020.0,1020.0,1020.0,1019.0,1023.0,1023.0,1024.0,1021.0,1022.0,1010.0,1020.0,1021.0,1021.0,1021.0,1023.0,1023.0,1024.0,1021.0,1021.0,1011.0,1020.0,1020.0,1021.0,1020.0,1023.0,1022.0,1025.0,1021.0,1021.0,1010.0,1020.0,1020.0,1020.0,1019.0,1023.0,1023.0,1024.0,1021.0,1021.0,1010.0,1020.0,1020.0,1021.0,1020.0,1023.0,1023.0,1024.0,1021.0,1022.0,1011.0,1020.0,1020.0,1021.0,1019.0,1024.0,1023.0,1025.0,1022.0,1024.0,1011.0,1020.0,1022.0,1024.0,1023.0,1023.0,1025.0,1022.0,1023.0,1012.0,1020.0,1020.0,1023.0,1023.0,1025.0,1022.0,1023.0,1011.0,1020.0,1024.0,1024.0,1025.0,1022.0,1024.0,1012.0,1021.0,1024.0,1024.0,1025.0,1022.0,1023.0,1012.0,1021.0,1024.0,1024.0,1026.0,1022.0,1024.0,1012.0,1023.0,1024.0,1025.0,1022.0,1022.0,1011.0,1025.0,1025.0,1026.0,1023.0,1024.0,1013.0,1026.0,1027.0,1028.0,1025.0,1026.0,1015.0,1025.0,1026.0,1027.0,1024.0,1022.0,1014.0,1027.0,1029.0,1029.0,1026.0,1025.0,1016.0,1030.0,1033.0,1032.0,1029.0,1027.0,1018.0,1031.0,1033.0,1032.0,1027.0,1026.0,1018.0,1033.0,1035.0,1035.0,1027.0,1026.0,1020.0,1041.0,1038.0,1040.0,1028.0,1026.0,1024.0,1044.0,1040.0,1046.0,1030.0,1025.0,1029.0,1039.0,1035.0,1042.0,1027.0,1023.0,1029.0,1045.0,1039.0,1056.0,1030.0,1024.0,1083.0,1042.0,1037.0,1054.0,1030.0,1024.0,2313,2220,1901,	00:29:07.451,-0.01220703125,0.0732421875,1.0205078125,0.0,0.42724609375,0.1220703125,4.0924072265625,0.7470703125,-78.453369140625,96.0,-678.0,-4003.0,-0.77398681640625,-0.031768798828125,0.017547607421875,0.632171630859375,4.092592646178359,0.7455936121557556,-82.66224658063571,-0.7502573399357877,-0.03110623352386945,0.018698118945813646,0.6601490032230016,1,	00:29:07.452,0.01904296875,0.0224609375,1.0224609375,-0.1220703125,0.244140625,0.42724609375,1.2359619140625,-1.087646484375,34.2498779296875,3.0,625.0,-1854.0,0.955535888671875,0.01312255859375,-0.005889892578125,0.29449462890625,1.237341730385107,-1.088048964214787,27.744807787303717,0.9707071365924247,0.012758579853410015,-0.006628663431726394,0.23983522349681813,1
1782117256.589930,0.326,1020.0,1024.0,1020.0,1021.0,1023.0,1024.0,1021.0,1021.0,1010.0,1022.0,1022.0,1024.0,1021.0,1021.0,1010.0,1019.0,1022.0,1022.0,1024.0,1022.0,1021.0,1010.0,1020.0,1020.0,1022.0,1023.0,1024.0,1021.0,1021.0,1010.0,1020.0,1020.0,1021.0,1023.0,1023.0,1024.0,1021.0,1021.0,1010.0,1020.0,1020.0,1021.0,1023.0,1023.0,1024.0,1021.0,1021.0,1010.0,1020.0,1020.0,1020.0,1019.0,1023.0,1022.0,1024.0,1021.0,1021.0,1010.0,1020.0,1019.0,1020.0,1019.0,1023.0,1022.0,1024.0,1021.0,1022.0,1010.0,1020.0,1021.0,1021.0,1021.0,1023.0,1022.0,1024.0,1021.0,1021.0,1010.0,1020.0,1019.0,1021.0,1020.0,1022.0,1022.0,1025.0,1022.0,1021.0,1010.0,1020.0,1019.0,1020.0,1019.0,1023.0,1023.0,1024.0,1021.0,1021.0,1010.0,1020.0,1020.0,1021.0,1019.0,1023.0,1023.0,1025.0,1021.0,1021.0,1010.0,1020.0,1020.0,1020.0,1020.0,1024.0,1024.0,1025.0,1022.0,1024.0,1012.0,1021.0,1021.0,1024.0,1023.0,1024.0,1025.0,1022.0,1023.0,1012.0,1020.0,1021.0,1024.0,1024.0,1025.0,1022.0,1022.0,1012.0,1020.0,1024.0,1024.0,1025.0,1022.0,1024.0,1012.0,1020.0,1024.0,1024.0,1025.0,1022.0,1023.0,1012.0,1020.0,1024.0,1024.0,1026.0,1022.0,1024.0,1013.0,1023.0,1023.0,1025.0,1021.0,1021.0,1012.0,1025.0,1025.0,1026.0,1023.0,1024.0,1014.0,1026.0,1027.0,1028.0,1025.0,1026.0,1016.0,1025.0,1025.0,1027.0,1024.0,1023.0,1013.0,1027.0,1029.0,1029.0,1026.0,1025.0,1016.0,1030.0,1033.0,1032.0,1029.0,1027.0,1018.0,1031.0,1033.0,1033.0,1027.0,1026.0,1018.0,1033.0,1035.0,1036.0,1027.0,1026.0,1020.0,1041.0,1038.0,1040.0,1028.0,1025.0,1023.0,1044.0,1041.0,1047.0,1030.0,1025.0,1030.0,1039.0,1035.0,1043.0,1026.0,1023.0,1028.0,1046.0,1038.0,1056.0,1031.0,1024.0,1084.0,1043.0,1037.0,1054.0,1030.0,1024.0,2313,2221,1901,	00:29:07.461,-0.01220703125,0.07470703125,1.0205078125,0.0,0.42724609375,0.18310546875,4.1693115234375,0.6976318359375,-78.453369140625,97.0,-680.0,-4006.0,-0.77398681640625,-0.03204345703125,0.018280029296875,0.632110595703125,4.169083367581423,0.699379852006352,-82.65915104055209,-0.7502658369798949,-0.03134146773710678,0.01944061069240363,0.6601067708460868,1,	00:29:07.462,0.01953125,0.02294921875,1.02294921875,-0.18310546875,0.244140625,0.48828125,1.3238525390625,-1.0986328125,34.2498779296875,4.0,625.0,-1854.0,0.955535888671875,0.013885498046875,-0.0057373046875,0.294525146484375,1.3264800516728168,-1.0961788063177236,27.748007467541886,0.97068936768266,0.013530850618547377,-0.0065105919803437615,0.23986804652025212,1
1782117256.600340,0.336,1020.0,1023.0,1020.0,1021.0,1023.0,1024.0,1020.0,1021.0,1010.0,1022.0,1022.0,1024.0,1021.0,1021.0,1010.0,1020.0,1022.0,1022.0,1024.0,1021.0,1022.0,1010.0,1020.0,1020.0,1023.0,1022.0,1024.0,1021.0,1021.0,1010.0,1020.0,1020.0,1020.0,1022.0,1023.0,1024.0,1020.0,1021.0,1010.0,1020.0,1019.0,1020.0,1023.0,1022.0,1024.0,1021.0,1021.0,1010.0,1020.0,1019.0,1020.0,1019.0,1022.0,1022.0,1023.0,1021.0,1021.0,1010.0,1020.0,1020.0,1020.0,1019.0,1023.0,1023.0,1024.0,1021.0,1022.0,1011.0,1021.0,1020.0,1021.0,1021.0,1023.0,1023.0,1024.0,1021.0,1021.0,1011.0,1020.0,1020.0,1021.0,1020.0,1023.0,1023.0,1024.0,1021.0,1021.0,1010.0,1020.0,1020.0,1021.0,1020.0,1023.0,1023.0,1024.0,1021.0,1021.0,1011.0,1020.0,1020.0,1021.0,1020.0,1023.0,1023.0,1024.0,1021.0,1022.0,1011.0,1020.0,1019.0,1020.0,1020.0,1023.0,1023.0,1025.0,1022.0,1024.0,1011.0,1021.0,1021.0,1024.0,1024.0,1024.0,1025.0,1022.0,1024.0,1011.0,1020.0,1020.0,1023.0,1023.0,1025.0,1022.0,1022.0,1011.0,1020.0,1024.0,1024.0,1026.0,1022.0,1024.0,1012.0,1020.0,1024.0,1024.0,1025.0,1022.0,1023.0,1012.0,1021.0,1024.0,1024.0,1026.0,1022.0,1024.0,1012.0,1024.0,1024.0,1025.0,1021.0,1021.0,1011.0,1025.0,1025.0,1026.0,1024.0,1024.0,1014.0,1026.0,1027.0,1028.0,1025.0,1026.0,1016.0,1024.0,1025.0,1027.0,1024.0,1023.0,1014.0,1027.0,1029.0,1029.0,1026.0,1025.0,1016.0,1030.0,1033.0,1033.0,1029.0,1027.0,1018.0,1031.0,1033.0,1033.0,1027.0,1026.0,1019.0,1034.0,1035.0,1035.0,1027.0,1026.0,1020.0,1042.0,1038.0,1040.0,1029.0,1025.0,1024.0,1044.0,1040.0,1047.0,1030.0,1025.0,1030.0,1040.0,1035.0,1043.0,1027.0,1024.0,1029.0,1046.0,1039.0,1056.0,1030.0,1024.0,1084.0,1043.0,1038.0,1055.0,1030.0,1024.0,2314,2221,1902,	00:29:07.472,-0.01123046875,0.07421875,1.01953125,0.0,0.3662109375,0.1220703125,4.163818359375,0.6097412109375,-78.4478759765625,98.0,-677.0,-4002.0,-0.774017333984375,-0.031494140625,0.018829345703125,0.632080078125,4.161952417468904,0.6115627616860246,-82.65774899875625,-0.750297528378354,-0.030789396614198494,0.019974341269884063,0.660080796309286,1,	00:29:07.473,0.0185546875,0.02197265625,1.021484375,-0.244140625,0.18310546875,0.48828125,1.2469482421875,-1.0491943359375,34.25537109375,4.0,622.0,-1852.0,0.95550537109375,0.0130615234375,-0.005523681640625,0.294586181640625,1.245089006761166,-1.0477601333881177,27.754406556799474,0.9706902753553565,0.012740479079607077,-0.006270076620433668,0.23991405890972325,1
1782117256.610394,0.346,1020.0,1023.0,1020.0,1022.0,1022.0,1024.0,1020.0,1021.0,1010.0,1022.0,1023.0,1024.0,1021.0,1021.0,1010.0,1020.0,1022.0,1023.0,1024.0,1021.0,1021.0,1010.0,1019.0,1020.0,1022.0,1023.0,1024.0,1021.0,1021.0,1010.0,1020.0,1019.0,1020.0,1023.0,1022.0,1024.0,1021.0,1021.0,1010.0,1020.0,1020.0,1020.0,1023.0,1022.0,1024.0,1021.0,1021.0,1010.0,1020.0,1020.0,1020.0,1019.0,1022.0,1022.0,1024.0,1021.0,1021.0,1010.0,1020.0,1020.0,1020.0,1019.0,1023.0,1023.0,1024.0,1021.0,1022.0,1010.0,1021.0,1021.0,1022.0,1021.0,1023.0,1023.0,1024.0,1021.0,1021.0,1010.0,1020.0,1020.0,1021.0,1019.0,1023.0,1023.0,1024.0,1021.0,1021.0,1010.0,1020.0,1020.0,1021.0,1019.0,1023.0,1023.0,1024.0,1021.0,1022.0,1010.0,1020.0,1020.0,1021.0,1020.0,1023.0,1023.0,1024.0,1021.0,1021.0,1010.0,1019.0,1020.0,1021.0,1020.0,1024.0,1024.0,1025.0,1022.0,1024.0,1011.0,1021.0,1021.0,1023.0,1024.0,1024.0,1025.0,1022.0,1023.0,1012.0,1021.0,1020.0,1023.0,1023.0,1025.0,1022.0,1022.0,1012.0,1020.0,1024.0,1024.0,1026.0,1022.0,1024.0,1012.0,1020.0,1024.0,1024.0,1026.0,1022.0,1023.0,1012.0,1020.0,1024.0,1024.0,1026.0,1022.0,1023.0,1012.0,1023.0,1024.0,1025.0,1022.0,1021.0,1011.0,1025.0,1025.0,1026.0,1023.0,1024.0,1014.0,1026.0,1027.0,1028.0,1025.0,1026.0,1015.0,1025.0,1025.0,1027.0,1024.0,1023.0,1013.0,1027.0,1029.0,1029.0,1026.0,1025.0,1016.0,1030.0,1034.0,1032.0,1028.0,1028.0,1018.0,1031.0,1033.0,1033.0,1027.0,1026.0,1018.0,1033.0,1036.0,1035.0,1027.0,1026.0,1020.0,1041.0,1039.0,1040.0,1028.0,1025.0,1024.0,1044.0,1040.0,1047.0,1030.0,1025.0,1030.0,1040.0,1035.0,1043.0,1027.0,1023.0,1029.0,1046.0,1038.0,1056.0,1032.0,1024.0,1083.0,1044.0,1038.0,1053.0,1031.0,1024.0,2314,2221,1902,	00:29:07.482,-0.01220703125,0.07421875,1.02001953125,0.0,0.42724609375,0.1220703125,4.163818359375,0.7086181640625,-78.4478759765625,95.0,-679.0,-4004.0,-0.774017333984375,-0.032012939453125,0.0181884765625,0.632110595703125,4.161556686046014,0.707401991654264,-82.65622609146936,-0.7502827419751865,-0.03133887035275038,0.019343909073090765,0.6600905206719616,1,	00:29:07.483,0.0185546875,0.02294921875,1.02099609375,-0.18310546875,0.244140625,0.42724609375,1.3348388671875,-1.03271484375,34.2608642578125,3.0,623.0,-1854.0,0.95550537109375,0.013763427734375,-0.005157470703125,0.29461669921875,1.3336699491851531,-1.0307519180208982,27.757090157461473,0.9706762388927893,0.013455392663215932,-0.0059402220689154525,0.23994021217586547,1
1782117256.621506,0.358,1021.0,1024.0,1019.0,1022.0,1022.0,1023.0,1021.0,1021.0,1010.0,1022.0,1022.0,1024.0,1021.0,1020.0,1010.0,1019.0,1022.0,1022.0,1024.0,1021.0,1021.0,1010.0,1020.0,1020.0,1022.0,1023.0,1024.0,1021.0,1021.0,1010.0,1020.0,1020.0,1021.0,1023.0,1022.0,1024.0,1021.0,1021.0,1010.0,1020.0,1020.0,1020.0,1023.0,1023.0,1024.0,1021.0,1021.0,1010.0,1020.0,1020.0,1021.0,1019.0,1023.0,1022.0,1024.0,1021.0,1021.0,1010.0,1020.0,1019.0,1020.0,1018.0,1023.0,1023.0,1024.0,1022.0,1022.0,1010.0,1020.0,1020.0,1022.0,1020.0,1023.0,1022.0,1024.0,1021.0,1021.0,1011.0,1020.0,1020.0,1021.0,1020.0,1023.0,1023.0,1024.0,1021.0,1021.0,1011.0,1020.0,1020.0,1021.0,1019.0,1023.0,1022.0,1024.0,1021.0,1022.0,1011.0,1020.0,1020.0,1021.0,1019.0,1023.0,1023.0,1024.0,1022.0,1022.0,1010.0,1019.0,1020.0,1020.0,1020.0,1024.0,1024.0,1025.0,1021.0,1023.0,1011.0,1020.0,1022.0,1024.0,1024.0,1024.0,1025.0,1022.0,1023.0,1011.0,1020.0,1020.0,1024.0,1023.0,1025.0,1022.0,1022.0,1011.0,1020.0,1024.0,1024.0,1026.0,1022.0,1023.0,1012.0,1020.0,1024.0,1024.0,1026.0,1022.0,1023.0,1012.0,1020.0,1024.0,1024.0,1026.0,1023.0,1024.0,1012.0,1024.0,1024.0,1025.0,1021.0,1021.0,1012.0,1025.0,1025.0,1026.0,1023.0,1024.0,1013.0,1026.0,1028.0,1028.0,1025.0,1026.0,1015.0,1025.0,1026.0,1027.0,1024.0,1023.0,1013.0,1027.0,1029.0,1029.0,1026.0,1024.0,1016.0,1030.0,1034.0,1032.0,1029.0,1027.0,1018.0,1032.0,1034.0,1033.0,1027.0,1026.0,1018.0,1034.0,1035.0,1036.0,1028.0,1025.0,1020.0,1042.0,1038.0,1040.0,1028.0,1026.0,1024.0,1044.0,1041.0,1047.0,1030.0,1025.0,1030.0,1040.0,1035.0,1043.0,1027.0,1023.0,1029.0,1046.0,1039.0,1056.0,1031.0,1024.0,1084.0,1043.0,1038.0,1054.0,1031.0,1024.0,2314,2221,1902,	00:29:07.492,-0.01171875,0.07373046875,1.02001953125,-0.06103515625,0.3662109375,0.244140625,4.119873046875,0.6317138671875,-78.4478759765625,96.0,-675.0,-4003.0,-0.7740478515625,-0.03131103515625,0.018463134765625,0.632080078125,4.117787314714209,0.6301172099940525,-82.65402880645591,-0.7503262688362233,-0.030607689228929785,0.01959741232988901,0.6600678761190769,1,	00:29:07.493,0.01806640625,0.0234375,1.021484375,-0.18310546875,0.18310546875,0.48828125,1.263427734375,-0.966796875,34.266357421875,3.0,622.0,-1854.0,0.95550537109375,0.013031005859375,-0.00482177734375,0.294647216796875,1.2643695389194467,-0.9669190970055416,27.76318869458073,0.9706776157635739,0.012735108511500743,-0.005543905881300509,0.23998343354140717,1
1782117256.630964,0.367,1020.0,1023.0,1020.0,1021.0,1023.0,1023.0,1021.0,1020.0,1010.0,1022.0,1022.0,1024.0,1021.0,1021.0,1010.0,1020.0,1023.0,1022.0,1024.0,1021.0,1021.0,1010.0,1019.0,1020.0,1022.0,1023.0,1024.0,1021.0,1021.0,1010.0,1020.0,1019.0,1021.0,1022.0,1023.0,1024.0,1021.0,1021.0,1010.0,1020.0,1019.0,1020.0,1023.0,1023.0,1024.0,1021.0,1021.0,1010.0,1020.0,1019.0,1021.0,1019.0,1022.0,1023.0,1024.0,1021.0,1021.0,1010.0,1020.0,1019.0,1020.0,1018.0,1023.0,1023.0,1024.0,1021.0,1022.0,1010.0,1020.0,1021.0,1022.0,1020.0,1023.0,1023.0,1024.0,1021.0,1022.0,1011.0,1020.0,1020.0,1021.0,1020.0,1023.0,1023.0,1024.0,1021.0,1021.0,1010.0,1020.0,1020.0,1021.0,1019.0,1023.0,1023.0,1024.0,1021.0,1022.0,1010.0,1020.0,1020.0,1021.0,1020.0,1023.0,1023.0,1025.0,1021.0,1022.0,1010.0,1020.0,1020.0,1021.0,1020.0,1024.0,1024.0,1025.0,1022.0,1023.0,1012.0,1020.0,1022.0,1024.0,1024.0,1024.0,1026.0,1022.0,1023.0,1012.0,1020.0,1021.0,1024.0,1024.0,1025.0,1022.0,1022.0,1012.0,1020.0,1024.0,1024.0,1026.0,1023.0,1024.0,1012.0,1021.0,1024.0,1024.0,1025.0,1023.0,1023.0,1011.0,1020.0,1024.0,1024.0,1026.0,1022.0,1024.0,1012.0,1024.0,1024.0,1025.0,1022.0,1021.0,1011.0,1025.0,1025.0,1026.0,1024.0,1024.0,1013.0,1026.0,1027.0,1028.0,1025.0,1026.0,1016.0,1024.0,1026.0,1026.0,1024.0,1023.0,1014.0,1027.0,1029.0,1029.0,1026.0,1024.0,1016.0,1030.0,1033.0,1032.0,1029.0,1028.0,1018.0,1031.0,1034.0,1033.0,1028.0,1026.0,1018.0,1033.0,1035.0,1036.0,1027.0,1026.0,1020.0,1042.0,1039.0,1040.0,1028.0,1026.0,1024.0,1044.0,1041.0,1047.0,1030.0,1026.0,1029.0,1040.0,1035.0,1043.0,1028.0,1024.0,1029.0,1046.0,1039.0,1056.0,1032.0,1024.0,1085.0,1043.0,1037.0,1055.0,1030.0,1023.0,2314,2221,1901,	00:29:07.502,-0.01171875,0.0732421875,1.0185546875,0.0,0.3662109375,0.1220703125,4.1033935546875,0.72509765625,-78.4478759765625,96.0,-679.0,-4005.0,-0.7740478515625,-0.031707763671875,0.017730712890625,0.632080078125,4.101822315690216,0.7239518757907425,-82.65273702239239,-0.7503149847529912,-0.031043620136836425,0.01889046453886668,0.6600809553785234,1,	00:29:07.503,0.01806640625,0.0244140625,1.02197265625,-0.18310546875,0.244140625,0.48828125,1.3458251953125,-0.999755859375,34.2718505859375,3.0,623.0,-1854.0,0.955474853515625,0.0137939453125,-0.0048828125,0.294677734375,1.3464162381633016,-1.0013303386628793,27.766683298631943,0.9706575795818739,0.013502284336933018,-0.005663166967460571,0.24001974930792963,1
1782117256.641360,0.377,1021.0,1024.0,1020.0,1021.0,1023.0,1024.0,1021.0,1021.0,1010.0,1022.0,1022.0,1024.0,1021.0,1021.0,1010.0,1020.0,1022.0,1023.0,1024.0,1021.0,1021.0,1010.0,1020.0,1019.0,1023.0,1023.0,1024.0,1020.0,1021.0,1010.0,1020.0,1020.0,1020.0,1022.0,1023.0,1024.0,1020.0,1021.0,1010.0,1020.0,1019.0,1020.0,1023.0,1023.0,1024.0,1021.0,1021.0,1010.0,1020.0,1020.0,1020.0,1019.0,1023.0,1023.0,1024.0,1021.0,1021.0,1010.0,1020.0,1019.0,1019.0,1019.0,1023.0,1022.0,1024.0,1021.0,1022.0,1010.0,1020.0,1021.0,1021.0,1021.0,1023.0,1023.0,1024.0,1021.0,1021.0,1010.0,1020.0,1020.0,1021.0,1019.0,1023.0,1022.0,1024.0,1021.0,1022.0,1010.0,1020.0,1020.0,1021.0,1019.0,1023.0,1023.0,1024.0,1021.0,1021.0,1010.0,1020.0,1020.0,1020.0,1020.0,1024.0,1022.0,1024.0,1021.0,1022.0,1011.0,1020.0,1019.0,1021.0,1020.0,1024.0,1024.0,1025.0,1021.0,1024.0,1012.0,1021.0,1022.0,1024.0,1024.0,1024.0,1025.0,1022.0,1023.0,1012.0,1020.0,1021.0,1024.0,1024.0,1025.0,1022.0,1022.0,1012.0,1020.0,1024.0,1024.0,1025.0,1022.0,1024.0,1012.0,1020.0,1024.0,1024.0,1026.0,1022.0,1023.0,1012.0,1020.0,1024.0,1024.0,1026.0,1022.0,1024.0,1012.0,1024.0,1024.0,1025.0,1021.0,1022.0,1012.0,1025.0,1025.0,1027.0,1023.0,1024.0,1013.0,1026.0,1027.0,1029.0,1025.0,1026.0,1016.0,1025.0,1025.0,1027.0,1023.0,1023.0,1014.0,1027.0,1029.0,1029.0,1027.0,1025.0,1016.0,1030.0,1034.0,1033.0,1029.0,1028.0,1018.0,1031.0,1034.0,1033.0,1027.0,1026.0,1018.0,1034.0,1036.0,1036.0,1026.0,1026.0,1020.0,1041.0,1038.0,1040.0,1028.0,1026.0,1024.0,1045.0,1041.0,1047.0,1030.0,1026.0,1030.0,1039.0,1035.0,1042.0,1027.0,1023.0,1029.0,1046.0,1040.0,1056.0,1031.0,1024.0,1084.0,1043.0,1038.0,1055.0,1030.0,1024.0,2314,2221,1901,	00:29:07.513,-0.01123046875,0.07373046875,1.01904296875,0.0,0.42724609375,0.18310546875,4.1363525390625,0.6427001953125,-78.4423828125,96.0,-679.0,-4004.0,-0.774078369140625,-0.031494140625,0.018463134765625,0.632049560546875,4.134944395035484,0.6426013671341385,-82.65021026085756,-0.7503406233956537,-0.0307925621773533,0.01961344154608965,0.660042483411101,1,	00:29:07.514,0.01806640625,0.0224609375,1.0205078125,-0.244140625,0.244140625,0.48828125,1.25244140625,-1.0107421875,34.27734375,4.0,624.0,-1855.0,0.955474853515625,0.0130615234375,-0.005218505859375,0.29473876953125,1.2532040096320127,-1.0124021987306815,27.77321673781059,0.9706534779065751,0.012736229483374337,-0.005951468794455459,0.24007122756716484,1
1782117256.651797,0.388,1020.0,1024.0,1020.0,1022.0,1022.0,1024.0,1020.0,1021.0,1010.0,1022.0,1023.0,1024.0,1021.0,1020.0,1010.0,1020.0,1022.0,1022.0,1024.0,1021.0,1021.0,1011.0,1020.0,1020.0,1022.0,1023.0,1024.0,1021.0,1021.0,1010.0,1020.0,1020.0,1021.0,1023.0,1023.0,1024.0,1021.0,1021.0,1010.0,1020.0,1020.0,1020.0,1022.0,1022.0,1024.0,1021.0,1021.0,1010.0,1020.0,1020.0,1020.0,1020.0,1022.0,1023.0,1024.0,1021.0,1021.0,1009.0,1020.0,1019.0,1019.0,1019.0,1023.0,1023.0,1024.0,1021.0,1022.0,1010.0,1020.0,1021.0,1021.0,1021.0,1023.0,1023.0,1024.0,1021.0,1021.0,1010.0,1020.0,1020.0,1021.0,1020.0,1023.0,1023.0,1025.0,1021.0,1021.0,1011.0,1020.0,1019.0,1020.0,1019.0,1024.0,1022.0,1024.0,1021.0,1021.0,1010.0,1020.0,1020.0,1021.0,1020.0,1024.0,1023.0,1024.0,1021.0,1021.0,1010.0,1020.0,1020.0,1021.0,1020.0,1024.0,1024.0,1025.0,1022.0,1023.0,1011.0,1021.0,1021.0,1023.0,1024.0,1024.0,1025.0,1021.0,1023.0,1011.0,1020.0,1021.0,1024.0,1023.0,1025.0,1022.0,1023.0,1011.0,1020.0,1024.0,1024.0,1026.0,1022.0,1024.0,1012.0,1021.0,1024.0,1024.0,1025.0,1022.0,1023.0,1011.0,1020.0,1024.0,1024.0,1025.0,1022.0,1023.0,1012.0,1024.0,1024.0,1025.0,1021.0,1021.0,1011.0,1025.0,1025.0,1026.0,1022.0,1024.0,1013.0,1026.0,1028.0,1029.0,1025.0,1025.0,1015.0,1025.0,1026.0,1027.0,1024.0,1023.0,1014.0,1027.0,1029.0,1029.0,1026.0,1025.0,1016.0,1030.0,1034.0,1033.0,1029.0,1027.0,1018.0,1031.0,1034.0,1033.0,1027.0,1025.0,1018.0,1033.0,1036.0,1036.0,1026.0,1026.0,1020.0,1041.0,1039.0,1041.0,1028.0,1026.0,1024.0,1045.0,1041.0,1047.0,1030.0,1026.0,1029.0,1039.0,1036.0,1043.0,1027.0,1023.0,1029.0,1046.0,1039.0,1057.0,1031.0,1024.0,1084.0,1044.0,1038.0,1055.0,1030.0,1024.0,2314,2221,1901,	00:29:07.523,-0.0126953125,0.07373046875,1.0205078125,0.06103515625,0.42724609375,0.1220703125,4.130859375,0.736083984375,-78.4423828125,97.0,-677.0,-4004.0,-0.7740478515625,-0.032012939453125,0.017791748046875,0.632049560546875,4.132121089601068,0.7383790080955844,-82.6487256414247,-0.7503262565015946,-0.03132573196661634,0.01896939511558487,0.6600525504609521,1,	00:29:07.524,0.0185546875,0.0234375,1.02197265625,-0.244140625,0.244140625,0.48828125,1.3348388671875,-1.0491943359375,34.27734375,4.0,623.0,-1856.0,0.9554443359375,0.013824462890625,-0.00531005859375,0.294769287109375,1.3341452815292387,-1.0479157961853485,27.77665254526067,0.9706334705113163,0.01349636600247043,-0.006082321191455289,0.24010730808704892,1
1782117256.661541,0.398,1021.0,1023.0,1020.0,1022.0,1023.0,1024.0,1021.0,1021.0,1010.0,1021.0,1023.0,1023.0,1021.0,1021.0,1010.0,1020.0,1022.0,1023.0,1024.0,1021.0,1021.0,1010.0,1020.0,1020.0,1022.0,1023.0,1024.0,1021.0,1021.0,1009.0,1020.0,1020.0,1021.0,1022.0,1023.0,1024.0,1021.0,1021.0,1010.0,1019.0,1020.0,1021.0,1023.0,1023.0,1024.0,1021.0,1021.0,1010.0,1020.0,1020.0,1020.0,1019.0,1023.0,1022.0,1024.0,1021.0,1021.0,1009.0,1020.0,1019.0,1020.0,1019.0,1023.0,1023.0,1024.0,1022.0,1022.0,1010.0,1020.0,1020.0,1021.0,1021.0,1023.0,1023.0,1024.0,1021.0,1022.0,1011.0,1020.0,1020.0,1022.0,1020.0,1023.0,1023.0,1024.0,1021.0,1022.0,1010.0,1020.0,1020.0,1021.0,1019.0,1023.0,1023.0,1024.0,1021.0,1022.0,1010.0,1020.0,1019.0,1021.0,1020.0,1023.0,1023.0,1024.0,1022.0,1022.0,1010.0,1020.0,1019.0,1021.0,1019.0,1023.0,1024.0,1025.0,1022.0,1023.0,1011.0,1020.0,1022.0,1024.0,1024.0,1024.0,1025.0,1022.0,1023.0,1012.0,1020.0,1020.0,1024.0,1023.0,1025.0,1023.0,1022.0,1011.0,1020.0,1024.0,1024.0,1025.0,1022.0,1024.0,1012.0,1020.0,1024.0,1024.0,1025.0,1022.0,1023.0,1012.0,1020.0,1024.0,1024.0,1026.0,1022.0,1024.0,1012.0,1023.0,1024.0,1024.0,1022.0,1021.0,1011.0,1025.0,1025.0,1026.0,1023.0,1024.0,1013.0,1026.0,1027.0,1028.0,1025.0,1025.0,1015.0,1025.0,1026.0,1027.0,1024.0,1023.0,1013.0,1027.0,1030.0,1029.0,1027.0,1025.0,1015.0,1030.0,1034.0,1032.0,1029.0,1028.0,1018.0,1032.0,1034.0,1033.0,1027.0,1026.0,1018.0,1034.0,1036.0,1036.0,1027.0,1026.0,1020.0,1041.0,1039.0,1040.0,1028.0,1026.0,1024.0,1044.0,1041.0,1048.0,1030.0,1026.0,1029.0,1040.0,1035.0,1043.0,1027.0,1023.0,1030.0,1046.0,1039.0,1056.0,1031.0,1024.0,1084.0,1044.0,1038.0,1054.0,1030.0,1024.0,2314,2221,1901,	00:29:07.533,-0.01220703125,0.0732421875,1.01953125,0.06103515625,0.42724609375,0.18310546875,4.097900390625,0.6591796875,-78.4368896484375,95.0,-679.0,-4003.0,-0.774078369140625,-0.03131103515625,0.018157958984375,0.632049560546875,4.096815779908223,0.6582511668407468,-82.64702974890731,-0.7503653420643299,-0.03063353302386181,0.01929045909305061,0.6600313009783221,1,	00:29:07.534,0.0185546875,0.02197265625,1.02294921875,-0.244140625,0.1220703125,0.48828125,1.241455078125,-1.0382080078125,34.288330078125,2.0,623.0,-1853.0,0.9554443359375,0.01300048828125,-0.005462646484375,0.294830322265625,1.2402971747625477,-1.0388626628013125,27.783226015425967,0.9706313268778883,0.01268283490760782,-0.006201546440532664,0.24015726889628428,1
1782117256.671681,0.408,1020.0,1023.0,1020.0,1022.0,1023.0,1024.0,1021.0,1020.0,1010.0,1022.0,1023.0,1024.0,1021.0,1021.0,1011.0,1020.0,1022.0,1023.0,1023.0,1021.0,1021.0,1010.0,1020.0,1020.0,1022.0,1023.0,1024.0,1021.0,1021.0,1010.0,1020.0,1020.0,1020.0,1023.0,1023.0,1024.0,1020.0,1021.0,1010.0,1020.0,1020.0,1021.0,1022.0,1023.0,1024.0,1021.0,1020.0,1010.0,1020.0,1020.0,1021.0,1019.0,1022.0,1022.0,1024.0,1021.0,1020.0,1010.0,1020.0,1019.0,1020.0,1019.0,1023.0,1023.0,1024.0,1022.0,1022.0,1011.0,1020.0,1021.0,1022.0,1021.0,1023.0,1023.0,1024.0,1021.0,1021.0,1011.0,1020.0,1020.0,1021.0,1020.0,1023.0,1022.0,1024.0,1021.0,1021.0,1010.0,1020.0,1019.0,1020.0,1019.0,1023.0,1023.0,1024.0,1021.0,1022.0,1010.0,1020.0,1020.0,1021.0,1019.0,1023.0,1023.0,1024.0,1021.0,1021.0,1011.0,1020.0,1020.0,1021.0,1019.0,1023.0,1024.0,1024.0,1022.0,1024.0,1012.0,1021.0,1022.0,1024.0,1023.0,1024.0,1025.0,1021.0,1023.0,1012.0,1021.0,1021.0,1024.0,1024.0,1025.0,1021.0,1022.0,1011.0,1020.0,1024.0,1025.0,1025.0,1022.0,1024.0,1011.0,1021.0,1024.0,1024.0,1025.0,1022.0,1023.0,1012.0,1020.0,1023.0,1024.0,1025.0,1022.0,1024.0,1012.0,1024.0,1024.0,1025.0,1022.0,1021.0,1011.0,1025.0,1025.0,1026.0,1023.0,1024.0,1014.0,1026.0,1027.0,1028.0,1025.0,1026.0,1016.0,1025.0,1026.0,1026.0,1024.0,1023.0,1014.0,1027.0,1029.0,1029.0,1027.0,1024.0,1016.0,1030.0,1033.0,1032.0,1029.0,1027.0,1019.0,1031.0,1034.0,1032.0,1027.0,1026.0,1018.0,1033.0,1036.0,1035.0,1027.0,1026.0,1020.0,1042.0,1038.0,1040.0,1028.0,1026.0,1024.0,1045.0,1041.0,1046.0,1030.0,1026.0,1030.0,1040.0,1035.0,1043.0,1027.0,1023.0,1029.0,1046.0,1039.0,1056.0,1031.0,1024.0,1085.0,1044.0,1038.0,1054.0,1031.0,1024.0,2314,2221,1902,	00:29:07.543,-0.01220703125,0.07373046875,1.02099609375,0.1220703125,0.42724609375,0.18310546875,4.1693115234375,0.7196044921875,-78.4368896484375,97.0,-678.0,-4004.0,-0.774078369140625,-0.032135009765625,0.018157958984375,0.63201904296875,4.171484353103524,0.7169568305653592,-82.64401634005328,-0.750347959783196,-0.03146094258708635,0.019335159607741917,0.6600108332017516,1,	00:29:07.545,0.0185546875,0.0234375,1.02294921875,-0.3662109375,0.18310546875,0.48828125,1.329345703125,-1.0382080078125,34.288330078125,4.0,621.0,-1855.0,0.955413818359375,0.01373291015625,-0.005218505859375,0.29486083984375,1.3282111532781218,-1.0371489194522756,27.78648741179901,0.9706146484907858,0.01342407603016089,-0.006002398688701163,0.24018944507997572,1
1782117256.682103,0.418,1019.0,1023.0,1020.0,1022.0,1022.0,1024.0,1021.0,1020.0,1010.0,1022.0,1022.0,1024.0,1021.0,1021.0,1010.0,1020.0,1022.0,1023.0,1024.0,1021.0,1021.0,1010.0,1020.0,1020.0,1022.0,1023.0,1024.0,1021.0,1021.0,1010.0,1020.0,1020.0,1020.0,1022.0,1022.0,1024.0,1021.0,1021.0,1010.0,1020.0,1019.0,1021.0,1023.0,1022.0,1024.0,1021.0,1021.0,1010.0,1020.0,1020.0,1020.0,1019.0,1022.0,1022.0,1024.0,1021.0,1021.0,1009.0,1020.0,1019.0,1020.0,1019.0,1023.0,1023.0,1024.0,1021.0,1022.0,1011.0,1021.0,1021.0,1022.0,1021.0,1023.0,1022.0,1024.0,1021.0,1022.0,1010.0,1020.0,1020.0,1021.0,1020.0,1023.0,1023.0,1024.0,1021.0,1021.0,1010.0,1019.0,1020.0,1021.0,1019.0,1023.0,1023.0,1024.0,1022.0,1021.0,1011.0,1020.0,1019.0,1021.0,1019.0,1023.0,1023.0,1024.0,1021.0,1021.0,1011.0,1020.0,1019.0,1021.0,1020.0,1024.0,1023.0,1025.0,1022.0,1024.0,1012.0,1021.0,1021.0,1024.0,1024.0,1024.0,1025.0,1022.0,1023.0,1012.0,1021.0,1020.0,1024.0,1024.0,1025.0,1022.0,1022.0,1011.0,1020.0,1024.0,1024.0,1025.0,1022.0,1024.0,1012.0,1021.0,1024.0,1024.0,1025.0,1022.0,1023.0,1012.0,1021.0,1024.0,1024.0,1025.0,1023.0,1024.0,1013.0,1024.0,1024.0,1024.0,1022.0,1021.0,1012.0,1025.0,1025.0,1026.0,1024.0,1025.0,1014.0,1026.0,1027.0,1028.0,1025.0,1026.0,1015.0,1025.0,1026.0,1026.0,1024.0,1023.0,1014.0,1027.0,1030.0,1028.0,1026.0,1025.0,1016.0,1030.0,1033.0,1032.0,1029.0,1028.0,1018.0,1031.0,1033.0,1032.0,1028.0,1026.0,1018.0,1033.0,1036.0,1036.0,1027.0,1026.0,1020.0,1041.0,1038.0,1039.0,1028.0,1026.0,1023.0,1045.0,1041.0,1047.0,1030.0,1026.0,1030.0,1039.0,1035.0,1042.0,1027.0,1024.0,1029.0,1046.0,1039.0,1056.0,1030.0,1024.0,1084.0,1044.0,1038.0,1054.0,1030.0,1024.0,2314,2221,1901,	00:29:07.554,-0.01220703125,0.07470703125,1.01953125,0.18310546875,0.42724609375,0.18310546875,4.21875,0.6427001953125,-78.431396484375,96.0,-679.0,-4008.0,-0.774078369140625,-0.032073974609375,0.018951416015625,0.631988525390625,4.220023021324094,0.6422238844225807,-82.64132676506163,-0.7503688137190382,-0.03134903021049689,0.02010352769560253,0.659969491625891,1,	00:29:07.555,0.01904296875,0.0224609375,1.021484375,-0.3662109375,0.1220703125,0.48828125,1.241455078125,-1.0711669921875,34.2938232421875,3.0,622.0,-1853.0,0.955413818359375,0.013092041015625,-0.005767822265625,0.294921875,1.2407405442621584,-1.0734042084308466,27.792941117560115,0.9706074332731572,0.012759473890686171,-0.006492128615590729,0.24024208325554663,1
1782117256.692421,0.428,1019.0,1022.0,1020.0,1022.0,1023.0,1024.0,1021.0,1021.0,1010.0,1022.0,1022.0,1024.0,1021.0,1021.0,1010.0,1020.0,1023.0,1023.0,1024.0,1021.0,1021.0,1010.0,1020.0,1020.0,1022.0,1023.0,1024.0,1021.0,1021.0,1010.0,1020.0,1020.0,1021.0,1023.0,1023.0,1024.0,1021.0,1021.0,1010.0,1020.0,1020.0,1020.0,1023.0,1022.0,1024.0,1021.0,1021.0,1010.0,1019.0,1020.0,1021.0,1019.0,1023.0,1023.0,1024.0,1021.0,1021.0,1010.0,1019.0,1020.0,1020.0,1019.0,1023.0,1023.0,1024.0,1021.0,1022.0,1010.0,1020.0,1021.0,1022.0,1021.0,1023.0,1023.0,1024.0,1021.0,1022.0,1011.0,1020.0,1020.0,1021.0,1020.0,1023.0,1023.0,1024.0,1022.0,1022.0,1011.0,1020.0,1020.0,1020.0,1019.0,1023.0,1023.0,1024.0,1021.0,1022.0,1011.0,1020.0,1020.0,1021.0,1019.0,1022.0,1023.0,1024.0,1021.0,1021.0,1011.0,1020.0,1020.0,1021.0,1019.0,1023.0,1024.0,1025.0,1022.0,1024.0,1011.0,1021.0,1021.0,1024.0,1024.0,1023.0,1024.0,1023.0,1024.0,1012.0,1021.0,1020.0,1024.0,1024.0,1025.0,1021.0,1022.0,1012.0,1020.0,1023.0,1024.0,1025.0,1022.0,1024.0,1012.0,1020.0,1023.0,1024.0,1025.0,1022.0,1023.0,1012.0,1020.0,1024.0,1024.0,1026.0,1023.0,1024.0,1012.0,1023.0,1024.0,1025.0,1021.0,1021.0,1011.0,1024.0,1025.0,1026.0,1023.0,1024.0,1014.0,1025.0,1027.0,1028.0,1025.0,1026.0,1016.0,1024.0,1025.0,1026.0,1024.0,1023.0,1015.0,1027.0,1030.0,1028.0,1026.0,1024.0,1015.0,1030.0,1034.0,1032.0,1030.0,1027.0,1019.0,1031.0,1034.0,1032.0,1028.0,1026.0,1018.0,1033.0,1035.0,1035.0,1026.0,1026.0,1020.0,1041.0,1038.0,1040.0,1028.0,1026.0,1024.0,1044.0,1041.0,1047.0,1030.0,1026.0,1030.0,1039.0,1035.0,1043.0,1027.0,1023.0,1029.0,1046.0,1040.0,1056.0,1030.0,1024.0,1083.0,1042.0,1038.0,1054.0,1030.0,1024.0,2314,2221,1901,	00:29:07.564,-0.01220703125,0.07373046875,1.01953125,0.18310546875,0.3662109375,0.18310546875,4.141845703125,0.6866455078125,-78.431396484375,96.0,-678.0,-4002.0,-0.77410888671875,-0.031768798828125,0.0181884765625,0.631988525390625,4.140071366158736,0.6867596885320306,-82.64017897104347,-0.7503861538357511,-0.031082057604704418,0.01935100102260759,0.659984897240891,1,	00:29:07.565,0.01953125,0.02197265625,1.02294921875,-0.30517578125,0.1220703125,0.48828125,1.197509765625,-1.153564453125,34.29931640625,2.0,622.0,-1854.0,0.955413818359375,0.012939453125,-0.00653076171875,0.294952392578125,1.1961054593502871,-1.1540365530732892,27.798658726108254,0.9705919392568183,0.012550677721193585,-0.007268082380113742,0.24029345167304003,1
1782117256.702233,0.438,1020.0,1024.0,1020.0,1020.0,1023.0,1024.0,1021.0,1021.0,1010.0,1021.0,1022.0,1024.0,1021.0,1021.0,1010.0,1020.0,1022.0,1022.0,1024.0,1020.0,1021.0,1010.0,1020.0,1020.0,1022.0,1022.0,1024.0,1021.0,1021.0,1010.0,1020.0,1020.0,1021.0,1023.0,1023.0,1024.0,1021.0,1021.0,1010.0,1020.0,1019.0,1021.0,1022.0,1023.0,1024.0,1021.0,1020.0,1009.0,1020.0,1019.0,1021.0,1019.0,1023.0,1023.0,1024.0,1021.0,1021.0,1010.0,1020.0,1019.0,1020.0,1018.0,1023.0,1023.0,1024.0,1021.0,1022.0,1011.0,1020.0,1021.0,1022.0,1021.0,1022.0,1023.0,1024.0,1021.0,1021.0,1010.0,1020.0,1020.0,1021.0,1020.0,1023.0,1023.0,1024.0,1021.0,1021.0,1010.0,1020.0,1019.0,1021.0,1019.0,1023.0,1023.0,1024.0,1022.0,1022.0,1010.0,1020.0,1019.0,1021.0,1020.0,1023.0,1023.0,1024.0,1022.0,1021.0,1010.0,1020.0,1020.0,1021.0,1019.0,1024.0,1024.0,1024.0,1022.0,1024.0,1011.0,1020.0,1022.0,1024.0,1024.0,1024.0,1025.0,1022.0,1023.0,1011.0,1020.0,1021.0,1024.0,1023.0,1025.0,1022.0,1022.0,1011.0,1020.0,1024.0,1024.0,1025.0,1022.0,1024.0,1012.0,1020.0,1024.0,1024.0,1026.0,1022.0,1023.0,1012.0,1021.0,1024.0,1024.0,1025.0,1022.0,1024.0,1012.0,1024.0,1024.0,1025.0,1022.0,1021.0,1011.0,1025.0,1025.0,1027.0,1024.0,1024.0,1014.0,1026.0,1027.0,1028.0,1025.0,1026.0,1016.0,1025.0,1026.0,1027.0,1024.0,1023.0,1013.0,1027.0,1029.0,1028.0,1027.0,1025.0,1015.0,1030.0,1033.0,1032.0,1029.0,1027.0,1018.0,1031.0,1034.0,1033.0,1027.0,1026.0,1018.0,1033.0,1035.0,1035.0,1027.0,1026.0,1020.0,1041.0,1038.0,1040.0,1028.0,1026.0,1023.0,1044.0,1041.0,1047.0,1030.0,1026.0,1030.0,1039.0,1035.0,1043.0,1026.0,1024.0,1028.0,1046.0,1039.0,1056.0,1030.0,1024.0,1083.0,1043.0,1038.0,1053.0,1030.0,1024.0,2314,2221,1902,	00:29:07.574,-0.01220703125,0.07373046875,1.01953125,0.1220703125,0.42724609375,0.1220703125,4.06494140625,0.63720703125,-78.431396484375,95.0,-677.0,-4006.0,-0.774139404296875,-0.031005859375,0.018096923828125,0.631988525390625,4.0657804399077255,0.6393189917890241,-82.63952735567217,-0.7504213942112337,-0.030322569061019183,0.01923373070431533,0.6599835880677654,1,	00:29:07.575,0.017578125,0.02197265625,1.02099609375,-0.30517578125,0.1220703125,0.48828125,1.2139892578125,-1.065673828125,34.3048095703125,3.0,624.0,-1850.0,0.95538330078125,0.012847900390625,-0.0057373046875,0.29498291015625,1.2125591750960611,-1.0633742935245116,27.803185187354213,0.9705900759439848,0.012500340298601613,-0.0064651340910819935,0.24032654454440386,1
1782117256.712638,0.449,1021.0,1024.0,1020.0,1022.0,1022.0,1024.0,1021.0,1021.0,1010.0,1022.0,1023.0,1023.0,1020.0,1021.0,1010.0,1020.0,1022.0,1023.0,1024.0,1021.0,1021.0,1010.0,1020.0,1020.0,1022.0,1022.0,1024.0,1021.0,1021.0,1010.0,1020.0,1020.0,1020.0,1022.0,1023.0,1024.0,1021.0,1021.0,1010.0,1020.0,1020.0,1020.0,1023.0,1022.0,1024.0,1021.0,1022.0,1010.0,1020.0,1019.0,1020.0,1019.0,1022.0,1022.0,1024.0,1021.0,1021.0,1010.0,1020.0,1019.0,1020.0,1019.0,1023.0,1023.0,1024.0,1021.0,1023.0,1011.0,1021.0,1020.0,1022.0,1021.0,1023.0,1023.0,1024.0,1021.0,1022.0,1011.0,1020.0,1020.0,1021.0,1020.0,1022.0,1022.0,1024.0,1021.0,1022.0,1011.0,1020.0,1019.0,1020.0,1019.0,1023.0,1023.0,1024.0,1021.0,1021.0,1010.0,1020.0,1019.0,1021.0,1020.0,1023.0,1023.0,1024.0,1021.0,1021.0,1010.0,1020.0,1020.0,1021.0,1020.0,1024.0,1024.0,1024.0,1022.0,1024.0,1012.0,1021.0,1021.0,1024.0,1023.0,1024.0,1025.0,1022.0,1023.0,1012.0,1021.0,1020.0,1023.0,1024.0,1024.0,1022.0,1022.0,1012.0,1020.0,1024.0,1024.0,1025.0,1022.0,1024.0,1013.0,1021.0,1024.0,1024.0,1025.0,1022.0,1023.0,1012.0,1020.0,1024.0,1024.0,1025.0,1022.0,1024.0,1013.0,1023.0,1024.0,1024.0,1021.0,1021.0,1011.0,1025.0,1025.0,1026.0,1023.0,1024.0,1014.0,1026.0,1027.0,1028.0,1025.0,1026.0,1016.0,1024.0,1026.0,1026.0,1024.0,1023.0,1014.0,1027.0,1029.0,1028.0,1026.0,1025.0,1016.0,1030.0,1033.0,1031.0,1029.0,1028.0,1018.0,1031.0,1033.0,1032.0,1026.0,1026.0,1018.0,1033.0,1035.0,1035.0,1027.0,1026.0,1020.0,1041.0,1038.0,1039.0,1028.0,1027.0,1024.0,1044.0,1040.0,1046.0,1030.0,1026.0,1030.0,1039.0,1035.0,1042.0,1026.0,1023.0,1029.0,1046.0,1039.0,1055.0,1030.0,1024.0,1084.0,1042.0,1038.0,1054.0,1029.0,1024.0,2314,2221,1901,	00:29:07.585,-0.01220703125,0.07421875,1.02001953125,0.18310546875,0.42724609375,0.1220703125,4.15283203125,0.68115234375,-78.431396484375,96.0,-678.0,-4007.0,-0.77410888671875,-0.031829833984375,0.018280029296875,0.6319580078125,4.150571921468337,0.6820237137542546,-82.63704970814585,-0.7504024984061202,-0.031124086643827095,0.019441653037769253,0.6599616683896113,1,	00:29:07.586,0.01806640625,0.02294921875,1.021484375,-0.30517578125,0.1220703125,0.48828125,1.285400390625,-1.0107421875,34.310302734375,3.0,622.0,-1855.0,0.95538330078125,0.0133056640625,-0.005126953125,0.295013427734375,1.2853530767582297,-1.0108862008510617,27.806717634759448,0.9705797886281965,0.013007091639719536,-0.0058674714334230075,0.24035653153700456,1
1782117256.723712,0.460,1020.0,1023.0,1020.0,1021.0,1022.0,1023.0,1020.0,1021.0,1010.0,1022.0,1023.0,1024.0,1021.0,1021.0,1011.0,1019.0,1022.0,1023.0,1024.0,1021.0,1021.0,1010.0,1020.0,1020.0,1023.0,1023.0,1024.0,1021.0,1021.0,1010.0,1020.0,1020.0,1021.0,1023.0,1023.0,1024.0,1021.0,1021.0,1010.0,1020.0,1019.0,1020.0,1022.0,1023.0,1024.0,1021.0,1021.0,1011.0,1020.0,1019.0,1020.0,1019.0,1022.0,1022.0,1024.0,1021.0,1021.0,1010.0,1020.0,1020.0,1020.0,1019.0,1023.0,1023.0,1024.0,1021.0,1022.0,1011.0,1021.0,1021.0,1022.0,1020.0,1023.0,1023.0,1024.0,1021.0,1021.0,1011.0,1020.0,1020.0,1021.0,1020.0,1023.0,1023.0,1024.0,1021.0,1022.0,1011.0,1021.0,1020.0,1020.0,1019.0,1023.0,1023.0,1024.0,1021.0,1021.0,1011.0,1020.0,1020.0,1020.0,1020.0,1023.0,1024.0,1024.0,1021.0,1022.0,1011.0,1020.0,1021.0,1020.0,1020.0,1024.0,1024.0,1024.0,1022.0,1024.0,1012.0,1021.0,1021.0,1024.0,1024.0,1024.0,1025.0,1022.0,1024.0,1012.0,1021.0,1021.0,1024.0,1023.0,1024.0,1021.0,1022.0,1011.0,1020.0,1024.0,1024.0,1026.0,1022.0,1024.0,1012.0,1021.0,1024.0,1024.0,1025.0,1022.0,1024.0,1012.0,1020.0,1024.0,1024.0,1026.0,1022.0,1024.0,1013.0,1024.0,1024.0,1025.0,1021.0,1021.0,1011.0,1025.0,1025.0,1026.0,1022.0,1024.0,1014.0,1026.0,1028.0,1028.0,1024.0,1026.0,1016.0,1025.0,1026.0,1026.0,1023.0,1023.0,1013.0,1027.0,1030.0,1029.0,1026.0,1025.0,1016.0,1031.0,1034.0,1031.0,1028.0,1028.0,1018.0,1031.0,1034.0,1032.0,1026.0,1026.0,1018.0,1033.0,1036.0,1035.0,1026.0,1026.0,1020.0,1040.0,1038.0,1040.0,1027.0,1026.0,1024.0,1043.0,1042.0,1047.0,1029.0,1026.0,1030.0,1038.0,1036.0,1042.0,1026.0,1024.0,1029.0,1045.0,1040.0,1055.0,1029.0,1024.0,1084.0,1042.0,1038.0,1053.0,1029.0,1024.0,2314,2222,1901,	00:29:07.595,-0.01220703125,0.07421875,1.02001953125,0.18310546875,0.42724609375,0.1220703125,4.24072265625,0.703125,-78.4259033203125,98.0,-678.0,-4003.0,-0.77410888671875,-0.03253173828125,0.0186767578125,0.631927490234375,4.242635548720473,0.7010483181021719,-82.63443382438155,-0.7503875066766477,-0.03183691748242384,0.019846510625273397,0.6599326605986571,1,	00:29:07.596,0.0185546875,0.0224609375,1.02099609375,-0.30517578125,0.1220703125,0.48828125,1.2249755859375,-1.0821533203125,34.3157958984375,3.0,622.0,-1853.0,0.95538330078125,0.012969970703125,-0.005859375,0.295074462890625,1.2233647838860102,-1.0800732798199477,27.81270304212158,0.9705672314688368,0.012627404307628041,-0.006582870306852234,0.2404089509105103,1
1782117256.732822,0.469,1020.0,1023.0,1020.0,1022.0,1023.0,1023.0,1020.0,1021.0,1010.0,1022.0,1023.0,1024.0,1021.0,1021.0,1010.0,1020.0,1022.0,1023.0,1024.0,1020.0,1022.0,1010.0,1020.0,1020.0,1022.0,1023.0,1024.0,1020.0,1022.0,1010.0,1020.0,1020.0,1020.0,1023.0,1023.0,1023.0,1020.0,1022.0,1011.0,1020.0,1020.0,1020.0,1022.0,1023.0,1023.0,1021.0,1021.0,1010.0,1020.0,1020.0,1020.0,1019.0,1022.0,1023.0,1024.0,1021.0,1021.0,1010.0,1020.0,1020.0,1020.0,1019.0,1023.0,1023.0,1024.0,1021.0,1022.0,1011.0,1021.0,1020.0,1022.0,1021.0,1023.0,1023.0,1024.0,1021.0,1022.0,1011.0,1021.0,1020.0,1021.0,1020.0,1023.0,1023.0,1024.0,1021.0,1021.0,1011.0,1020.0,1019.0,1020.0,1019.0,1023.0,1023.0,1024.0,1021.0,1022.0,1011.0,1020.0,1020.0,1021.0,1019.0,1023.0,1023.0,1024.0,1021.0,1022.0,1011.0,1020.0,1020.0,1021.0,1019.0,1023.0,1024.0,1025.0,1022.0,1024.0,1012.0,1021.0,1022.0,1024.0,1023.0,1024.0,1025.0,1022.0,1024.0,1012.0,1021.0,1020.0,1024.0,1024.0,1024.0,1022.0,1023.0,1012.0,1020.0,1024.0,1024.0,1025.0,1022.0,1024.0,1012.0,1020.0,1024.0,1024.0,1025.0,1021.0,1023.0,1012.0,1020.0,1024.0,1024.0,1025.0,1022.0,1024.0,1013.0,1024.0,1024.0,1024.0,1021.0,1021.0,1011.0,1025.0,1025.0,1026.0,1023.0,1024.0,1014.0,1026.0,1026.0,1028.0,1024.0,1026.0,1016.0,1025.0,1026.0,1026.0,1023.0,1023.0,1014.0,1027.0,1029.0,1029.0,1026.0,1026.0,1016.0,1030.0,1033.0,1032.0,1028.0,1028.0,1019.0,1032.0,1032.0,1032.0,1027.0,1027.0,1018.0,1033.0,1035.0,1035.0,1026.0,1027.0,1020.0,1041.0,1038.0,1040.0,1027.0,1026.0,1024.0,1045.0,1041.0,1047.0,1028.0,1026.0,1030.0,1040.0,1035.0,1042.0,1027.0,1024.0,1028.0,1046.0,1040.0,1055.0,1029.0,1024.0,1084.0,1043.0,1038.0,1052.0,1029.0,1024.0,2314,2222,1901,	00:29:07.605,-0.01220703125,0.0732421875,1.02001953125,0.18310546875,0.42724609375,0.18310546875,4.15283203125,0.692138671875,-78.4259033203125,96.0,-679.0,-4003.0,-0.774139404296875,-0.031890869140625,0.018218994140625,0.6319580078125,4.153787031107608,0.6936972482707602,-82.63339553539625,-0.7504197733805763,-0.031212956476618092,0.019382701192287972,0.6599395623554659,1,	00:29:07.606,0.017578125,0.0234375,1.02099609375,-0.30517578125,0.18310546875,0.48828125,1.285400390625,-1.0107421875,34.3212890625,3.0,622.0,-1856.0,0.955352783203125,0.0133056640625,-0.005126953125,0.29510498046875,1.2842325999978514,-1.0127133871188652,27.81645386234513,0.9705593108640349,0.013001930772922127,-0.005884193813206128,0.24043907784400295,1
1782117256.744238,0.480,1020.0,1024.0,1019.0,1022.0,1022.0,1024.0,1020.0,1021.0,1010.0,1022.0,1022.0,1024.0,1021.0,1022.0,1011.0,1020.0,1022.0,1022.0,1024.0,1020.0,1021.0,1010.0,1020.0,1020.0,1022.0,1022.0,1024.0,1021.0,1021.0,1010.0,1020.0,1020.0,1020.0,1023.0,1022.0,1024.0,1021.0,1021.0,1010.0,1020.0,1020.0,1020.0,1023.0,1022.0,1024.0,1020.0,1021.0,1010.0,1020.0,1020.0,1020.0,1019.0,1023.0,1022.0,1025.0,1021.0,1021.0,1010.0,1020.0,1019.0,1021.0,1019.0,1023.0,1022.0,1024.0,1021.0,1023.0,1011.0,1021.0,1020.0,1021.0,1021.0,1023.0,1022.0,1025.0,1020.0,1022.0,1011.0,1020.0,1020.0,1021.0,1020.0,1023.0,1022.0,1025.0,1020.0,1022.0,1010.0,1020.0,1019.0,1021.0,1020.0,1023.0,1022.0,1025.0,1021.0,1022.0,1011.0,1021.0,1019.0,1021.0,1019.0,1023.0,1022.0,1024.0,1020.0,1022.0,1011.0,1020.0,1019.0,1021.0,1020.0,1024.0,1023.0,1025.0,1021.0,1024.0,1012.0,1021.0,1022.0,1023.0,1024.0,1023.0,1025.0,1022.0,1023.0,1012.0,1021.0,1020.0,1023.0,1022.0,1025.0,1021.0,1022.0,1012.0,1020.0,1024.0,1023.0,1026.0,1022.0,1024.0,1012.0,1021.0,1024.0,1023.0,1026.0,1021.0,1023.0,1012.0,1021.0,1024.0,1023.0,1025.0,1022.0,1024.0,1013.0,1024.0,1023.0,1025.0,1021.0,1022.0,1012.0,1025.0,1025.0,1027.0,1022.0,1025.0,1014.0,1027.0,1026.0,1028.0,1024.0,1026.0,1016.0,1025.0,1025.0,1027.0,1023.0,1024.0,1014.0,1027.0,1028.0,1029.0,1025.0,1025.0,1016.0,1030.0,1032.0,1033.0,1028.0,1028.0,1018.0,1032.0,1032.0,1033.0,1025.0,1026.0,1018.0,1033.0,1034.0,1036.0,1026.0,1027.0,1020.0,1041.0,1036.0,1040.0,1026.0,1027.0,1024.0,1045.0,1040.0,1047.0,1028.0,1026.0,1030.0,1039.0,1034.0,1042.0,1026.0,1023.0,1028.0,1046.0,1039.0,1056.0,1029.0,1024.0,1084.0,1043.0,1038.0,1053.0,1028.0,1024.0,2314,2222,1901,	00:29:07.616,-0.01220703125,0.07421875,1.01904296875,0.1220703125,0.42724609375,0.18310546875,4.229736328125,0.6427001953125,-78.42041015625,99.0,-681.0,-4004.0,-0.774139404296875,-0.0321044921875,0.01898193359375,0.63189697265625,4.2272663508046,0.6415608081081542,-82.63041865414131,-0.750429815653569,-0.031394561797353414,0.020146599440450944,0.6598966493313091,1,	00:29:07.617,0.01904296875,0.0224609375,1.021484375,-0.30517578125,0.18310546875,0.48828125,1.241455078125,-1.0931396484375,34.3267822265625,4.0,623.0,-1854.0,0.955352783203125,0.01318359375,-0.00592041015625,0.295166015625,1.2437003314475124,-1.0946919683516014,27.822067122781647,0.9705438186555514,0.012830830777497984,-0.006662981738423559,0.24049047907435578,1
1782117256.754698,0.491,1021.0,1023.0,1020.0,1022.0,1022.0,1024.0,1021.0,1021.0,1010.0,1022.0,1022.0,1024.0,1021.0,1020.0,1010.0,1020.0,1022.0,1022.0,1024.0,1020.0,1021.0,1010.0,1020.0,1020.0,1023.0,1022.0,1024.0,1020.0,1021.0,1010.0,1021.0,1020.0,1020.0,1023.0,1021.0,1024.0,1021.0,1022.0,1010.0,1020.0,1019.0,1021.0,1023.0,1022.0,1024.0,1021.0,1021.0,1010.0,1020.0,1019.0,1020.0,1019.0,1023.0,1022.0,1024.0,1021.0,1021.0,1010.0,1020.0,1020.0,1020.0,1019.0,1023.0,1022.0,1024.0,1021.0,1022.0,1010.0,1020.0,1021.0,1021.0,1021.0,1024.0,1022.0,1024.0,1021.0,1022.0,1011.0,1020.0,1020.0,1022.0,1020.0,1024.0,1022.0,1025.0,1020.0,1021.0,1010.0,1020.0,1020.0,1021.0,1019.0,1023.0,1022.0,1025.0,1021.0,1022.0,1011.0,1020.0,1020.0,1021.0,1019.0,1023.0,1022.0,1025.0,1021.0,1021.0,1010.0,1020.0,1019.0,1021.0,1020.0,1024.0,1022.0,1025.0,1022.0,1024.0,1012.0,1021.0,1022.0,1023.0,1024.0,1023.0,1025.0,1021.0,1024.0,1012.0,1021.0,1021.0,1024.0,1023.0,1025.0,1021.0,1022.0,1011.0,1020.0,1024.0,1023.0,1026.0,1021.0,1024.0,1012.0,1021.0,1024.0,1023.0,1026.0,1022.0,1023.0,1012.0,1020.0,1024.0,1023.0,1026.0,1022.0,1024.0,1013.0,1024.0,1023.0,1026.0,1021.0,1021.0,1012.0,1025.0,1024.0,1027.0,1023.0,1025.0,1014.0,1026.0,1026.0,1029.0,1024.0,1026.0,1016.0,1025.0,1024.0,1028.0,1023.0,1023.0,1014.0,1027.0,1028.0,1030.0,1026.0,1025.0,1016.0,1031.0,1032.0,1034.0,1028.0,1028.0,1018.0,1031.0,1031.0,1033.0,1026.0,1027.0,1019.0,1033.0,1033.0,1036.0,1026.0,1026.0,1020.0,1042.0,1036.0,1041.0,1027.0,1026.0,1024.0,1045.0,1040.0,1047.0,1029.0,1027.0,1030.0,1039.0,1034.0,1042.0,1026.0,1024.0,1028.0,1046.0,1039.0,1055.0,1030.0,1024.0,1083.0,1043.0,1038.0,1053.0,1029.0,1024.0,2315,2222,1902,	00:29:07.626,-0.01171875,0.07421875,1.02001953125,0.1220703125,0.42724609375,0.1220703125,4.141845703125,0.6646728515625,-78.42041015625,96.0,-681.0,-4007.0,-0.774169921875,-0.031646728515625,0.018341064453125,0.631927490234375,4.139318989502027,0.6660207894383645,-82.62990354554685,-0.7504506525783763,-0.03095949120405453,0.01947974879301499,0.659913530196219,1,	00:29:07.627,0.01904296875,0.0224609375,1.021484375,-0.3662109375,0.1220703125,0.42724609375,1.285400390625,-1.0162353515625,34.3267822265625,3.0,625.0,-1857.0,0.955322265625,0.013336181640625,-0.005157470703125,0.295166015625,1.2866561833916317,-1.0146740125661204,27.825503668749306,0.9705398509842518,0.013027033973028918,-0.00589468657414164,0.24051600093865833,1
1782117256.764398,0.500,1021.0,1024.0,1019.0,1023.0,1021.0,1025.0,1020.0,1021.0,1010.0,1023.0,1022.0,1024.0,1020.0,1021.0,1010.0,1020.0,1023.0,1021.0,1025.0,1020.0,1021.0,1010.0,1020.0,1019.0,1023.0,1021.0,1025.0,1021.0,1021.0,1009.0,1020.0,1020.0,1020.0,1023.0,1021.0,1025.0,1021.0,1022.0,1009.0,1020.0,1020.0,1021.0,1024.0,1022.0,1024.0,1020.0,1021.0,1009.0,1020.0,1019.0,1020.0,1019.0,1024.0,1021.0,1025.0,1020.0,1021.0,1010.0,1020.0,1020.0,1020.0,1019.0,1024.0,1022.0,1025.0,1021.0,1022.0,1011.0,1020.0,1021.0,1021.0,1021.0,1024.0,1022.0,1025.0,1021.0,1022.0,1010.0,1020.0,1020.0,1021.0,1020.0,1023.0,1022.0,1025.0,1021.0,1022.0,1010.0,1020.0,1019.0,1020.0,1019.0,1023.0,1022.0,1025.0,1021.0,1021.0,1010.0,1020.0,1020.0,1020.0,1019.0,1023.0,1021.0,1025.0,1021.0,1022.0,1010.0,1020.0,1019.0,1020.0,1020.0,1024.0,1022.0,1025.0,1022.0,1024.0,1011.0,1021.0,1022.0,1024.0,1024.0,1022.0,1026.0,1021.0,1024.0,1011.0,1020.0,1021.0,1024.0,1022.0,1026.0,1021.0,1022.0,1011.0,1020.0,1024.0,1023.0,1026.0,1022.0,1024.0,1012.0,1021.0,1024.0,1023.0,1026.0,1022.0,1023.0,1012.0,1020.0,1024.0,1023.0,1026.0,1021.0,1024.0,1012.0,1024.0,1022.0,1026.0,1020.0,1021.0,1011.0,1026.0,1024.0,1027.0,1022.0,1024.0,1014.0,1027.0,1026.0,1029.0,1025.0,1027.0,1016.0,1025.0,1024.0,1027.0,1023.0,1024.0,1014.0,1028.0,1027.0,1030.0,1026.0,1026.0,1016.0,1031.0,1031.0,1033.0,1028.0,1027.0,1018.0,1031.0,1031.0,1034.0,1026.0,1026.0,1018.0,1034.0,1033.0,1037.0,1026.0,1026.0,1020.0,1042.0,1036.0,1041.0,1027.0,1026.0,1024.0,1045.0,1039.0,1047.0,1028.0,1026.0,1029.0,1040.0,1034.0,1043.0,1025.0,1024.0,1029.0,1046.0,1039.0,1055.0,1028.0,1024.0,1083.0,1043.0,1037.0,1053.0,1028.0,1024.0,2315,2222,1902,	00:29:07.636,-0.01220703125,0.0732421875,1.0205078125,0.18310546875,0.42724609375,0.1220703125,4.0594482421875,0.714111328125,-78.42041015625,97.0,-677.0,-4004.0,-0.774169921875,-0.0313720703125,0.017578125,0.631927490234375,4.0597244275942845,0.7119505420186841,-82.629356055874,-0.750463947286042,-0.03070269569147955,0.018720316563404095,0.6599323889982178,1,	00:29:07.637,0.0185546875,0.0224609375,1.02197265625,-0.30517578125,0.1220703125,0.48828125,1.2139892578125,-1.07666015625,34.332275390625,4.0,623.0,-1855.0,0.955322265625,0.012908935546875,-0.005828857421875,0.29522705078125,1.215807916044652,-1.075375702082991,27.831650005756316,0.9705287776463117,0.012554636067061184,-0.006556859051648184,0.2405686606209472,1
