Unix_Time_s,EMG_t_s,sample_idx,fs,gain,flags,emg_valid,ch1_raw_uV,ch1_filt_uV,ch1_env_uV,ch2_raw_uV,ch2_filt_uV,ch2_env_uV
1782117408.590824,0.000000,1854200,1000,12,0,1,793.259,-53.939,16.461,476.066,30.275,25.020
1782117408.591824,0.001000,1854201,1000,12,0,1,807.215,-32.331,16.917,467.947,18.790,25.158
1782117408.592824,0.002000,1854202,1000,12,0,1,864.288,21.987,17.134,438.329,-8.133,25.181
1782117408.593824,0.003000,1854203,1000,12,0,1,915.260,71.854,19.914,410.946,-33.496,25.616
1782117408.594824,0.004000,1854204,1000,12,0,1,907.381,59.395,21.563,408.039,-31.356,25.994
1782117408.595824,0.005000,1854205,1000,12,0,1,883.384,24.044,21.714,418.176,-14.820,26.064
1782117408.596824,0.006000,1854206,1000,12,0,1,880.502,14.139,21.746,422.836,-4.712,26.069
1782117408.597824,0.007000,1854207,1000,12,0,1,881.415,11.900,21.744,427.208,1.320,26.069
1782117408.598824,0.008000,1854208,1000,12,0,1,868.203,-1.667,21.712,439.963,13.091,26.133
1782117408.599824,0.009000,1854209,1000,12,0,1,843.462,-24.548,21.945,458.290,28.077,26.433
1782117408.600824,0.010000,1854210,1000,12,0,1,823.044,-40.649,22.613,467.707,33.100,26.840
1782117408.601824,0.011000,1854211,1000,12,0,1,836.736,-25.992,22.848,477.171,33.317,27.242
1782117408.602824,0.012000,1854212,1000,12,0,1,871.614,11.563,22.838,473.303,24.912,27.454
1782117408.603824,0.013000,1854213,1000,12,0,1,897.484,35.973,23.337,464.248,7.799,27.468
1782117408.604824,0.014000,1854214,1000,12,0,1,907.429,41.202,24.014,456.465,-3.307,27.472
1782117408.605824,0.015000,1854215,1000,12,0,1,912.545,38.856,24.634,445.535,-15.689,27.554
1782117408.606824,0.016000,1854216,1000,12,0,1,906.372,28.502,24.951,437.801,-23.747,27.716
1782117408.607824,0.017000,1854217,1000,12,0,1,886.747,5.983,24.879,438.017,-22.072,27.794
1782117408.608824,0.018000,1854218,1000,12,0,1,859.820,-19.801,24.857,441.932,-16.234,27.652
1782117408.609824,0.019000,1854219,1000,12,0,1,843.894,-33.802,25.290,438.858,-15.113,27.470
1782117408.610824,0.020000,1854220,1000,12,0,1,854.319,-21.847,25.433,407.246,-37.095,27.749
1782117408.611824,0.021000,1854221,1000,12,0,1,868.179,-3.792,25.347,380.319,-57.787,28.638
1782117408.612824,0.022000,1854222,1000,12,0,1,866.137,-3.988,25.336,391.129,-39.556,28.813
1782117408.613824,0.023000,1854223,1000,12,0,1,863.519,-7.449,25.357,408.063,-11.879,28.582
1782117408.614824,0.024000,1854224,1000,12,0,1,872.191,-0.415,25.353,416.542,1.135,28.537
1782117408.615824,0.025000,1854225,1000,12,0,1,883.432,9.287,25.313,417.960,6.847,28.542
1782117408.616824,0.026000,1854226,1000,12,0,1,888.477,11.592,25.291,424.782,12.683,28.500
1782117408.617824,0.027000,1854227,1000,12,0,1,882.375,3.823,25.293,428.457,18.078,28.511
1782117408.618824,0.028000,1854228,1000,12,0,1,868.275,-10.975,25.277,427.784,15.192,28.511
1782117408.619824,0.029000,1854229,1000,12,0,1,861.886,-17.944,25.402,428.505,14.085,28.113
1782117408.620824,0.030000,1854230,1000,12,0,1,863.039,-14.655,25.391,424.830,9.378,26.598
1782117408.621824,0.031000,1854231,1000,12,0,1,873.968,-4.181,25.313,420.434,2.792,24.313
1782117408.622824,0.032000,1854232,1000,12,0,1,884.898,7.848,25.327,416.735,-1.130,22.738
1782117408.623824,0.033000,1854233,1000,12,0,1,882.495,6.109,25.243,422.692,1.773,22.154
1782117408.624824,0.034000,1854234,1000,12,0,1,864.720,-9.152,25.170,433.189,11.309,21.835
1782117408.625824,0.035000,1854235,1000,12,0,1,849.659,-22.104,25.352,439.362,14.709,21.634
1782117408.626824,0.036000,1854236,1000,12,0,1,858.259,-12.333,25.399,435.231,9.639,21.435
1782117408.627824,0.037000,1854237,1000,12,0,1,875.289,7.763,25.422,428.841,1.241,21.390
1782117408.628824,0.038000,1854238,1000,12,0,1,870.101,6.310,25.382,434.846,5.031,21.375
1782117408.629824,0.039000,1854239,1000,12,0,1,856.313,-7.290,25.306,440.107,11.195,21.401
1782117408.630824,0.040000,1854240,1000,12,0,1,853.142,-9.263,25.339,438.161,8.494,21.427
1782117408.631824,0.041000,1854241,1000,12,0,1,855.376,-4.826,25.341,440.419,9.335,21.439
1782117408.632824,0.042000,1854242,1000,12,0,1,864.144,3.229,25.320,441.212,10.579,21.412
1782117408.633824,0.043000,1854243,1000,12,0,1,863.231,4.732,25.266,448.250,14.428,21.349
1782117408.634824,0.044000,1854244,1000,12,0,1,863.135,1.406,25.238,449.283,16.177,21.117
1782117408.635824,0.045000,1854245,1000,12,0,1,866.474,4.732,25.192,444.382,8.628,20.702
1782117408.636824,0.046000,1854246,1000,12,0,1,863.567,1.209,25.163,436.456,0.837,20.381
1782117408.637824,0.047000,1854247,1000,12,0,1,867.723,2.267,25.124,422.740,-11.727,20.196
1782117408.638824,0.048000,1854248,1000,12,0,1,876.658,10.072,24.508,406.766,-25.020,20.070
1782117408.639824,0.049000,1854249,1000,12,0,1,881.487,12.384,23.185,408.928,-22.595,19.747
1782117408.640824,0.050000,1854250,1000,12,0,1,866.570,-0.400,21.894,420.434,-8.457,19.314
1782117408.641824,0.051000,1854251,1000,12,0,1,852.830,-15.829,21.528,424.950,-2.992,19.135
1782117408.642824,0.052000,1854252,1000,12,0,1,853.911,-12.347,21.374,424.998,-3.834,19.109
1782117408.643824,0.053000,1854253,1000,12,0,1,851.989,-9.828,18.855,427.880,-2.341,18.515
1782117408.644824,0.054000,1854254,1000,12,0,1,852.758,-7.625,16.915,430.330,-0.825,17.977
1782117408.645824,0.055000,1854255,1000,12,0,1,864.240,5.059,16.585,430.066,-1.848,17.856
1782117408.646824,0.056000,1854256,1000,12,0,1,875.938,16.994,16.639,425.959,-5.858,17.863
1782117408.647824,0.057000,1854257,1000,12,0,1,869.164,12.248,16.644,429.970,-3.425,17.868
1782117408.648824,0.058000,1854258,1000,12,0,1,856.049,-1.889,16.644,434.990,2.822,17.777
1782117408.649824,0.059000,1854259,1000,12,0,1,853.214,-4.300,16.290,436.023,3.692,17.335
1782117408.650824,0.060000,1854260,1000,12,0,1,855.833,-0.548,15.242,430.883,0.235,16.691
1782117408.651824,0.061000,1854261,1000,12,0,1,850.692,-3.263,14.799,433.285,1.544,16.014
1782117408.652824,0.062000,1854262,1000,12,0,1,855.808,-0.794,14.709,435.062,5.986,15.645
1782117408.653824,0.063000,1854263,1000,12,0,1,862.678,7.318,13.840,441.212,10.287,15.673
1782117408.654824,0.064000,1854264,1000,12,0,1,864.000,6.551,12.588,449.427,18.324,15.879
1782117408.655824,0.065000,1854265,1000,12,0,1,858.763,1.088,11.326,462.038,26.458,16.162
1782117408.656824,0.066000,1854266,1000,12,0,1,854.007,-5.127,10.609,473.399,33.689,16.512
1782117408.657824,0.067000,1854267,1000,12,0,1,860.637,-0.569,10.576,472.535,28.343,16.702
1782117408.658824,0.068000,1854268,1000,12,0,1,862.438,2.760,10.206,467.226,16.791,16.713
1782117408.659824,0.069000,1854269,1000,12,0,1,855.833,-4.491,9.039,462.734,8.374,16.618
1782117408.660824,0.070000,1854270,1000,12,0,1,842.861,-14.370,8.735,465.473,5.377,15.787
1782117408.661824,0.071000,1854271,1000,12,0,1,840.027,-16.986,9.043,476.954,11.875,13.611
1782117408.662824,0.072000,1854272,1000,12,0,1,840.892,-10.952,9.157,488.917,17.693,12.658
1782117408.663824,0.073000,1854273,1000,12,0,1,840.027,-9.169,9.188,499.630,20.914,12.890
1782117408.664824,0.074000,1854274,1000,12,0,1,840.796,-5.185,9.217,503.786,18.308,13.147
1782117408.665824,0.075000,1854275,1000,12,0,1,845.143,1.022,9.125,489.733,0.725,13.111
1782117408.666824,0.076000,1854276,1000,12,0,1,846.152,4.571,8.999,472.751,-20.074,13.295
1782117408.667824,0.077000,1854277,1000,12,0,1,854.487,11.279,9.124,445.824,-41.583,14.311
1782117408.668824,0.078000,1854278,1000,12,0,1,859.604,17.420,9.322,407.174,-71.755,17.411
1782117408.669824,0.079000,1854279,1000,12,0,1,849.011,7.394,9.031,379.959,-87.299,21.251
1782117408.670824,0.080000,1854280,1000,12,0,1,843.558,-0.416,8.790,376.836,-76.817,23.830
1782117408.671824,0.081000,1854281,1000,12,0,1,846.104,2.869,8.779,394.035,-47.658,24.762
1782117408.672824,0.082000,1854282,1000,12,0,1,844.279,1.409,8.711,413.132,-18.104,24.893
1782117408.673824,0.083000,1854283,1000,12,0,1,837.144,-4.769,8.694,419.185,-5.043,24.902
1782117408.674824,0.084000,1854284,1000,12,0,1,831.812,-9.714,8.707,423.653,1.827,24.852
1782117408.675824,0.085000,1854285,1000,12,0,1,839.955,-2.594,8.134,425.022,6.397,24.781
1782117408.676824,0.086000,1854286,1000,12,0,1,846.272,5.277,7.980,422.548,4.919,24.754
1782117408.677824,0.087000,1854287,1000,12,0,1,852.157,8.296,7.991,414.645,-0.465,24.753
1782117408.678824,0.088000,1854288,1000,12,0,1,863.039,16.523,8.278,411.762,-3.252,24.747
1782117408.679824,0.089000,1854289,1000,12,0,1,883.793,30.609,9.284,414.525,1.173,24.697
1782117408.680824,0.090000,1854290,1000,12,0,1,891.239,35.166,10.450,414.453,2.558,24.670
1782117408.681824,0.091000,1854291,1000,12,0,1,881.415,19.876,10.800,415.101,3.119,24.639
1782117408.682824,0.092000,1854292,1000,12,0,1,875.073,8.630,10.859,413.996,3.561,24.599
1782117408.683824,0.093000,1854293,1000,12,0,1,868.636,1.762,10.842,420.338,7.910,24.539
1782117408.684824,0.094000,1854294,1000,12,0,1,862.174,-5.752,10.870,423.917,13.253,24.504
1782117408.685824,0.095000,1854295,1000,12,0,1,860.156,-6.782,10.892,426.295,13.356,24.547
1782117408.686824,0.096000,1854296,1000,12,0,1,855.400,-9.300,10.970,427.520,14.880,24.636
1782117408.687824,0.097000,1854297,1000,12,0,1,846.681,-15.124,11.172,431.675,16.655,24.693
1782117408.688824,0.098000,1854298,1000,12,0,1,849.347,-12.075,11.211,433.237,18.262,24.574
1782117408.689824,0.099000,1854299,1000,12,0,1,858.403,-0.870,11.074,430.210,14.180,24.448
1782117408.690824,0.100000,1854300,1000,12,0,1,859.844,1.573,11.077,428.481,11.452,24.473
1782117408.691824,0.101000,1854301,1000,12,0,1,854.704,-3.418,10.859,425.598,9.130,24.503
1782117408.692824,0.102000,1854302,1000,12,0,1,845.864,-11.165,10.833,424.037,6.717,24.515
1782117408.693824,0.103000,1854303,1000,12,0,1,841.036,-15.619,10.968,429.994,11.477,24.567
1782117408.694824,0.104000,1854304,1000,12,0,1,845.936,-10.332,11.013,432.973,14.011,24.646
1782117408.695824,0.105000,1854305,1000,12,0,1,850.428,-4.656,11.009,430.282,9.657,24.683
1782117408.696824,0.106000,1854306,1000,12,0,1,842.477,-10.466,10.845,428.024,5.354,24.680
1782117408.697824,0.107000,1854307,1000,12,0,1,841.949,-12.669,10.855,428.697,4.151,24.683
1782117408.698824,0.108000,1854308,1000,12,0,1,842.021,-9.115,10.928,429.850,3.531,24.684
1782117408.699824,0.109000,1854309,1000,12,0,1,841.492,-9.476,10.993,430.042,1.918,24.680
1782117408.700824,0.110000,1854310,1000,12,0,1,840.555,-7.645,11.045,431.844,1.290,24.681
1782117408.701824,0.111000,1854311,1000,12,0,1,845.263,-2.922,11.044,436.408,3.458,24.685
1782117408.702824,0.112000,1854312,1000,12,0,1,849.683,3.699,11.055,440.875,5.466,24.683
1782117408.703824,0.113000,1854313,1000,12,0,1,846.705,2.370,11.012,441.932,4.440,24.648
1782117408.704824,0.114000,1854314,1000,12,0,1,841.564,-1.471,10.975,440.611,1.114,24.512
1782117408.705824,0.115000,1854315,1000,12,0,1,831.956,-6.990,11.018,441.500,0.169,24.224
1782117408.706824,0.116000,1854316,1000,12,0,1,825.470,-11.189,11.108,447.529,4.246,23.759
1782117408.707824,0.117000,1854317,1000,12,0,1,840.387,3.856,11.121,454.976,9.969,23.461
1782117408.708824,0.118000,1854318,1000,12,0,1,848.530,15.988,11.342,461.869,14.119,23.425
1782117408.709824,0.119000,1854319,1000,12,0,1,842.285,9.343,11.401,467.130,16.453,23.511
1782117408.710824,0.120000,1854320,1000,12,0,1,841.973,7.321,11.266,466.217,13.283,23.573
1782117408.711824,0.121000,1854321,1000,12,0,1,841.036,7.279,11.055,464.031,8.014,23.541
1782117408.712824,0.122000,1854322,1000,12,0,1,844.014,7.377,10.995,450.364,-4.016,23.414
1782117408.713824,0.123000,1854323,1000,12,0,1,856.001,16.656,11.170,427.232,-25.182,23.498
1782117408.714824,0.124000,1854324,1000,12,0,1,852.566,13.203,11.301,417.912,-32.355,23.799
1782117408.715824,0.125000,1854325,1000,12,0,1,837.697,-3.856,11.313,419.113,-25.897,24.079
1782117408.716824,0.126000,1854326,1000,12,0,1,820.930,-18.899,11.606,426.823,-15.923,24.017
1782117408.717824,0.127000,1854327,1000,12,0,1,814.781,-24.146,11.993,433.789,-6.204,23.302
1782117408.718824,0.128000,1854328,1000,12,0,1,810.986,-22.413,12.157,439.843,-0.953,20.977
1782117408.719824,0.129000,1854329,1000,12,0,1,811.875,-19.071,12.409,444.286,2.847,16.964
1782117408.720824,0.130000,1854330,1000,12,0,1,819.561,-8.093,12.462,446.016,2.609,13.035
1782117408.721824,0.131000,1854331,1000,12,0,1,825.687,0.596,12.455,451.661,4.877,11.178
1782117408.722824,0.132000,1854332,1000,12,0,1,825.158,2.078,12.457,457.546,8.400,10.946
1782117408.723824,0.133000,1854333,1000,12,0,1,829.866,6.233,12.470,464.488,10.882,11.030
1782117408.724824,0.134000,1854334,1000,12,0,1,835.511,12.782,12.525,468.523,12.188,11.161
1782117408.725824,0.135000,1854335,1000,12,0,1,840.675,16.551,12.737,460.404,2.708,11.131
1782117408.726824,0.136000,1854336,1000,12,0,1,841.084,16.628,12.931,454.447,-5.708,11.139
1782117408.727824,0.137000,1854337,1000,12,0,1,830.851,6.993,12.915,450.988,-7.628,11.191
1782117408.728824,0.138000,1854338,1000,12,0,1,823.909,-1.022,12.703,445.511,-11.320,11.295
1782117408.729824,0.139000,1854339,1000,12,0,1,827.704,3.093,11.951,432.132,-19.449,11.624
1782117408.730824,0.140000,1854340,1000,12,0,1,832.677,8.285,10.930,419.617,-27.520,12.253
1782117408.731824,0.141000,1854341,1000,12,0,1,831.788,7.534,10.616,414.261,-26.402,12.802
1782117408.732824,0.142000,1854342,1000,12,0,1,829.722,4.179,10.562,406.574,-25.892,13.306
1782117408.733824,0.143000,1854343,1000,12,0,1,831.379,4.646,10.579,401.602,-24.951,13.720
1782117408.734824,0.144000,1854344,1000,12,0,1,827.945,1.667,10.550,410.609,-11.735,13.692
1782117408.735824,0.145000,1854345,1000,12,0,1,817.520,-8.212,10.571,421.587,3.119,13.568
1782117408.736824,0.146000,1854346,1000,12,0,1,810.650,-14.421,10.685,428.985,10.784,13.491
1782117408.737824,0.147000,1854347,1000,12,0,1,818.360,-7.108,10.517,432.588,13.546,13.421
1782117408.738824,0.148000,1854348,1000,12,0,1,828.473,4.205,10.394,437.873,15.383,13.349
1782117408.739824,0.149000,1854349,1000,12,0,1,825.975,2.575,10.400,442.413,16.991,13.414
1782117408.740824,0.150000,1854350,1000,12,0,1,827.896,1.731,10.401,445.199,15.557,13.496
1782117408.741824,0.151000,1854351,1000,12,0,1,836.232,9.450,10.475,444.454,11.628,13.535
1782117408.742824,0.152000,1854352,1000,12,0,1,839.306,11.405,10.480,443.854,7.399,13.542
1782117408.743824,0.153000,1854353,1000,12,0,1,850.308,17.526,10.540,438.906,1.655,13.446
1782117408.744824,0.154000,1854354,1000,12,0,1,864.240,28.297,11.179,426.607,-9.840,13.372
1782117408.745824,0.155000,1854355,1000,12,0,1,864.864,25.482,11.727,425.814,-11.444,13.400
1782117408.746824,0.156000,1854356,1000,12,0,1,848.987,7.915,11.687,437.128,1.462,13.381
1782117408.747824,0.157000,1854357,1000,12,0,1,833.349,-9.362,11.625,454.615,17.413,13.593
1782117408.748824,0.158000,1854358,1000,12,0,1,823.477,-16.996,11.800,467.202,28.891,14.185
1782117408.749824,0.159000,1854359,1000,12,0,1,814.565,-22.081,12.133,472.535,30.209,14.812
1782117408.750824,0.160000,1854360,1000,12,0,1,815.286,-19.078,12.382,466.505,22.377,15.145
1782117408.751824,0.161000,1854361,1000,12,0,1,826.551,-5.551,12.400,456.225,9.300,15.194
1782117408.752824,0.162000,1854362,1000,12,0,1,831.091,1.448,12.391,446.184,-0.717,15.174
1782117408.753824,0.163000,1854363,1000,12,0,1,839.306,6.778,12.423,437.753,-8.438,15.208
1782117408.754824,0.164000,1854364,1000,12,0,1,857.034,20.992,12.771,424.469,-18.026,15.420
1782117408.755824,0.165000,1854365,1000,12,0,1,857.178,20.062,13.045,425.478,-17.551,15.618
1782117408.756824,0.166000,1854366,1000,12,0,1,847.185,5.049,12.969,432.612,-7.203,15.640
1782117408.757824,0.167000,1854367,1000,12,0,1,830.323,-10.978,13.050,437.849,-2.572,15.580
1782117408.758824,0.168000,1854368,1000,12,0,1,814.637,-26.532,13.389,439.170,-1.431,15.453
1782117408.759824,0.169000,1854369,1000,12,0,1,811.010,-27.470,13.878,435.279,-6.019,15.301
1782117408.760824,0.170000,1854370,1000,12,0,1,811.250,-22.791,14.210,418.632,-20.259,15.453
1782117408.761824,0.171000,1854371,1000,12,0,1,816.343,-15.445,14.340,410.729,-28.525,15.931
1782117408.762824,0.172000,1854372,1000,12,0,1,824.341,-4.665,14.317,415.341,-20.897,16.192
1782117408.763824,0.173000,1854373,1000,12,0,1,825.062,-1.529,14.124,417.575,-15.117,15.940
1782117408.764824,0.174000,1854374,1000,12,0,1,820.762,-4.104,14.012,416.735,-13.654,15.391
1782117408.765824,0.175000,1854375,1000,12,0,1,822.083,-2.187,14.005,411.906,-14.176,15.082
1782117408.766824,0.176000,1854376,1000,12,0,1,827.056,4.309,13.761,415.654,-9.522,14.974
1782117408.767824,0.177000,1854377,1000,12,0,1,826.575,5.349,13.352,424.109,2.661,14.953
1782117408.768824,0.178000,1854378,1000,12,0,1,823.501,2.782,12.976,428.000,8.121,14.997
1782117408.769824,0.179000,1854379,1000,12,0,1,823.453,3.133,12.700,429.273,10.693,15.067
1782117408.770824,0.180000,1854380,1000,12,0,1,816.246,-1.189,12.650,427.592,10.294,15.133
1782117408.771824,0.181000,1854381,1000,12,0,1,812.811,-4.978,12.669,426.559,9.724,15.180
1782117408.772824,0.182000,1854382,1000,12,0,1,815.790,-0.215,12.666,423.100,8.162,15.177
1782117408.773824,0.183000,1854383,1000,12,0,1,819.273,3.596,12.645,425.814,9.651,15.160
1782117408.774824,0.184000,1854384,1000,12,0,1,819.657,4.437,12.531,429.466,14.233,15.196
1782117408.775824,0.185000,1854385,1000,12,0,1,818.168,2.547,12.316,430.474,13.562,15.312
1782117408.776824,0.186000,1854386,1000,12,0,1,815.766,0.106,12.089,435.591,15.853,15.454
1782117408.777824,0.187000,1854387,1000,12,0,1,821.099,3.499,12.059,439.002,16.951,15.601
1782117408.778824,0.188000,1854388,1000,12,0,1,824.846,7.503,12.105,437.128,11.804,15.609
1782117408.779824,0.189000,1854389,1000,12,0,1,833.830,12.324,12.222,447.865,15.757,15.525
1782117408.780824,0.190000,1854390,1000,12,0,1,840.916,17.993,12.429,452.117,18.184,15.248
1782117408.781824,0.191000,1854391,1000,12,0,1,835.895,10.992,12.480,454.976,13.517,14.907
1782117408.782824,0.192000,1854392,1000,12,0,1,831.932,3.887,12.478,456.465,11.796,14.546
1782117408.783824,0.193000,1854393,1000,12,0,1,829.410,1.451,12.463,453.823,4.774,14.128
1782117408.784824,0.194000,1854394,1000,12,0,1,830.947,1.220,12.462,448.130,-2.811,14.035
1782117408.785824,0.195000,1854395,1000,12,0,1,834.911,5.401,12.431,434.990,-14.849,14.185
1782117408.786824,0.196000,1854396,1000,12,0,1,842.981,10.907,12.359,425.382,-23.734,14.496
1782117408.787824,0.197000,1854397,1000,12,0,1,845.432,13.335,12.462,421.058,-23.442,14.747
1782117408.788824,0.198000,1854398,1000,12,0,1,840.099,6.302,12.479,420.626,-20.364,14.867
1782117408.789824,0.199000,1854399,1000,12,0,1,830.827,-2.747,12.480,425.118,-11.838,14.767
1782117408.790824,0.200000,1854400,1000,12,0,1,829.098,-5.649,12.503,429.442,-4.361,14.615
1782117408.791824,0.201000,1854401,1000,12,0,1,833.541,-0.732,12.432,427.112,-3.225,14.529
1782117408.792824,0.202000,1854402,1000,12,0,1,835.919,1.646,12.329,426.823,-2.760,14.497
1782117408.793824,0.203000,1854403,1000,12,0,1,836.232,0.954,12.078,430.306,2.207,14.498
1782117408.794824,0.204000,1854404,1000,12,0,1,837.192,0.796,11.396,432.877,5.066,14.449
1782117408.795824,0.205000,1854405,1000,12,0,1,831.019,-4.837,10.833,438.786,9.143,14.416
1782117408.796824,0.206000,1854406,1000,12,0,1,823.765,-12.537,10.920,443.350,12.380,14.521
1782117408.797824,0.207000,1854407,1000,12,0,1,819.561,-15.466,11.058,445.271,11.032,14.395
1782117408.798824,0.208000,1854408,1000,12,0,1,825.807,-9.868,10.884,442.437,6.309,13.832
1782117408.799824,0.209000,1854409,1000,12,0,1,825.206,-7.067,10.474,442.845,2.729,13.161
1782117408.800824,0.210000,1854410,1000,12,0,1,819.465,-12.650,10.277,443.253,1.933,12.778
1782117408.801824,0.211000,1854411,1000,12,0,1,815.045,-14.628,10.454,440.107,-2.923,12.717
1782117408.802824,0.212000,1854412,1000,12,0,1,808.992,-17.370,10.737,441.092,-3.813,12.728
1782117408.803824,0.213000,1854413,1000,12,0,1,802.963,-19.764,11.053,442.677,-2.237,12.676
1782117408.804824,0.214000,1854414,1000,12,0,1,811.851,-9.680,10.735,439.242,-5.335,12.440
1782117408.805824,0.215000,1854415,1000,12,0,1,826.191,7.036,10.401,433.765,-9.658,12.266
1782117408.806824,0.216000,1854416,1000,12,0,1,829.242,11.535,10.503,433.477,-9.070,12.291
1782117408.807824,0.217000,1854417,1000,12,0,1,823.092,5.498,10.417,439.843,-1.470,12.287
1782117408.808824,0.218000,1854418,1000,12,0,1,820.858,2.858,9.726,449.499,8.275,12.341
1782117408.809824,0.219000,1854419,1000,12,0,1,814.973,-0.483,8.917,466.914,22.479,12.716
1782117408.810824,0.220000,1854420,1000,12,0,1,812.211,-3.195,8.326,485.578,37.033,13.450
1782117408.811824,0.221000,1854421,1000,12,0,1,817.135,2.655,8.044,497.420,42.286,14.156
1782117408.812824,0.222000,1854422,1000,12,0,1,822.420,8.369,8.103,507.172,43.027,15.122
1782117408.813824,0.223000,1854423,1000,12,0,1,817.736,4.878,8.130,516.036,42.568,16.136
1782117408.814824,0.224000,1854424,1000,12,0,1,810.914,-2.329,8.116,510.391,30.149,16.577
1782117408.815824,0.225000,1854425,1000,12,0,1,825.711,8.417,8.197,478.107,-4.406,16.468
1782117408.816824,0.226000,1854426,1000,12,0,1,846.825,27.931,9.079,439.434,-43.221,17.514
1782117408.817824,0.227000,1854427,1000,12,0,1,846.585,25.162,9.722,420.914,-58.118,19.343
1782117408.818824,0.228000,1854428,1000,12,0,1,845.912,17.323,10.018,407.367,-61.191,21.159
1782117408.819824,0.229000,1854429,1000,12,0,1,837.096,8.223,10.075,403.523,-58.177,22.652
1782117408.820824,0.230000,1854430,1000,12,0,1,813.916,-15.050,10.296,418.440,-36.633,23.191
1782117408.821824,0.231000,1854431,1000,12,0,1,799.240,-28.623,11.041,440.635,-10.509,23.198
1782117408.822824,0.232000,1854432,1000,12,0,1,798.880,-25.175,11.601,455.144,5.642,23.183
1782117408.823824,0.233000,1854433,1000,12,0,1,803.011,-16.869,11.833,466.337,14.004,23.227
1782117408.824824,0.234000,1854434,1000,12,0,1,813.724,-4.545,11.833,468.427,14.736,23.234
1782117408.825824,0.235000,1854435,1000,12,0,1,816.535,1.863,11.831,473.039,13.859,23.237
1782117408.826824,0.236000,1854436,1000,12,0,1,822.420,5.628,11.858,472.607,12.522,23.196
1782117408.827824,0.237000,1854437,1000,12,0,1,834.406,16.811,12.083,451.973,-6.830,23.092
1782117408.828824,0.238000,1854438,1000,12,0,1,847.185,25.804,12.578,419.521,-35.048,23.559
1782117408.829824,0.239000,1854439,1000,12,0,1,852.758,27.936,13.068,404.772,-45.017,24.302
1782117408.830824,0.240000,1854440,1000,12,0,1,840.147,13.664,12.963,410.850,-31.285,24.568
1782117408.831824,0.241000,1854441,1000,12,0,1,825.350,-4.332,12.884,428.361,-8.395,24.522
1782117408.832824,0.242000,1854442,1000,12,0,1,818.480,-10.644,12.960,433.645,3.367,24.470
1782117408.833824,0.243000,1854443,1000,12,0,1,817.423,-11.132,13.053,432.925,3.805,24.466
1782117408.834824,0.244000,1854444,1000,12,0,1,821.819,-5.911,13.079,432.540,5.724,24.477
1782117408.835824,0.245000,1854445,1000,12,0,1,820.258,-5.290,13.078,430.114,4.840,24.396
1782117408.836824,0.246000,1854446,1000,12,0,1,817.928,-7.748,13.033,427.880,3.446,24.169
1782117408.837824,0.247000,1854447,1000,12,0,1,811.634,-11.025,12.990,427.856,4.216,23.948
1782117408.838824,0.248000,1854448,1000,12,0,1,816.607,-7.805,13.006,428.072,4.643,23.783
1782117408.839824,0.249000,1854449,1000,12,0,1,830.827,6.972,13.038,425.358,2.733,23.727
1782117408.840824,0.250000,1854450,1000,12,0,1,833.133,9.588,13.083,420.434,-1.966,23.721
1782117408.841824,0.251000,1854451,1000,12,0,1,829.818,4.003,13.095,419.641,-2.673,23.719
1782117408.842824,0.252000,1854452,1000,12,0,1,825.687,-0.143,13.093,423.989,1.526,23.717
1782117408.843824,0.253000,1854453,1000,12,0,1,821.363,-4.834,13.110,432.444,8.871,23.748
1782117408.844824,0.254000,1854454,1000,12,0,1,816.583,-8.017,13.159,439.290,14.382,23.824
1782117408.845824,0.255000,1854455,1000,12,0,1,808.127,-13.920,13.288,437.921,11.985,23.850
1782117408.846824,0.256000,1854456,1000,12,0,1,802.915,-16.756,13.380,428.865,2.552,23.788
1782117408.847824,0.257000,1854457,1000,12,0,1,803.467,-13.048,13.329,414.957,-9.465,23.775
1782117408.848824,0.258000,1854458,1000,12,0,1,798.087,-13.388,13.390,409.576,-13.543,23.835
1782117408.849824,0.259000,1854459,1000,12,0,1,799.840,-10.712,13.438,410.802,-8.237,23.860
1782117408.850824,0.260000,1854460,1000,12,0,1,818.432,8.006,13.367,405.373,-8.699,23.890
1782117408.851824,0.261000,1854461,1000,12,0,1,815.718,10.199,13.284,408.087,-4.847,23.897
1782117408.852824,0.262000,1854462,1000,12,0,1,795.132,-10.056,13.132,418.344,8.142,23.918
1782117408.853824,0.263000,1854463,1000,12,0,1,776.300,-24.562,13.293,426.343,16.330,24.027
1782117408.854824,0.264000,1854464,1000,12,0,1,778.678,-20.718,13.543,420.554,12.353,24.079
1782117408.855824,0.265000,1854465,1000,12,0,1,803.347,5.433,13.529,419.305,7.881,24.066
1782117408.856824,0.266000,1854466,1000,12,0,1,841.708,39.374,14.538,428.673,15.909,24.137
1782117408.857824,0.267000,1854467,1000,12,0,1,862.150,55.933,16.533,427.904,14.976,24.229
1782117408.858824,0.268000,1854468,1000,12,0,1,845.912,34.902,17.249,428.120,10.599,24.247
1782117408.859824,0.269000,1854469,1000,12,0,1,824.293,6.427,17.273,428.409,10.029,24.079
1782117408.860824,0.270000,1854470,1000,12,0,1,816.607,-3.290,17.273,432.588,9.489,23.541
1782117408.861824,0.271000,1854471,1000,12,0,1,824.245,1.644,17.271,432.804,9.033,22.805
1782117408.862824,0.272000,1854472,1000,12,0,1,826.623,5.766,17.249,434.894,6.430,21.997
1782117408.863824,0.273000,1854473,1000,12,0,1,821.123,-0.963,17.236,437.440,7.562,21.184
1782117408.864824,0.274000,1854474,1000,12,0,1,821.891,-1.076,17.234,434.222,2.587,20.754
1782117408.865824,0.275000,1854475,1000,12,0,1,815.117,-4.855,17.206,440.443,4.682,20.755
1782117408.866824,0.276000,1854476,1000,12,0,1,806.158,-13.323,16.852,446.616,10.580,19.891
1782117408.867824,0.277000,1854477,1000,12,0,1,788.671,-24.058,16.820,454.879,13.886,18.219
1782117408.868824,0.278000,1854478,1000,12,0,1,771.496,-36.823,17.437,463.983,20.435,16.291
1782117408.869824,0.279000,1854479,1000,12,0,1,769.670,-32.526,17.996,467.034,19.368,14.326
1782117408.870824,0.280000,1854480,1000,12,0,1,793.427,-7.320,17.899,462.374,12.165,13.466
1782117408.871824,0.281000,1854481,1000,12,0,1,825.254,25.147,17.794,451.517,-0.217,13.384
1782117408.872824,0.282000,1854482,1000,12,0,1,841.708,38.547,18.267,441.476,-10.586,13.444
1782117408.873824,0.283000,1854483,1000,12,0,1,830.106,24.335,18.435,433.933,-16.252,13.494
1782117408.874824,0.284000,1854484,1000,12,0,1,824.149,10.491,18.483,423.941,-22.689,13.713
1782117408.875824,0.285000,1854485,1000,12,0,1,827.608,11.556,18.553,418.776,-25.080,14.028
1782117408.876824,0.286000,1854486,1000,12,0,1,825.615,7.245,18.565,416.542,-22.855,14.286
1782117408.877824,0.287000,1854487,1000,12,0,1,837.337,12.301,18.494,408.952,-25.424,14.700
1782117408.878824,0.288000,1854488,1000,12,0,1,849.059,22.303,18.402,403.259,-27.628,14.380
1782117408.879824,0.289000,1854489,1000,12,0,1,841.108,11.569,18.048,407.583,-20.282,13.210
1782117408.880824,0.290000,1854490,1000,12,0,1,832.629,-0.438,17.944,414.333,-10.615,12.537
1782117408.881824,0.291000,1854491,1000,12,0,1,829.482,-4.105,17.943,416.398,-6.687,12.516
1782117408.882824,0.292000,1854492,1000,12,0,1,825.975,-6.916,17.906,417.191,-5.468,12.531
1782117408.883824,0.293000,1854493,1000,12,0,1,821.771,-9.716,17.890,420.386,-2.158,12.523
1782117408.884824,0.294000,1854494,1000,12,0,1,816.150,-12.754,17.961,419.617,-1.713,12.499
1782117408.885824,0.295000,1854495,1000,12,0,1,807.551,-17.722,18.120,419.953,-1.852,12.483
1782117408.886824,0.296000,1854496,1000,12,0,1,797.294,-23.407,18.387,424.830,3.246,12.482
1782117408.887824,0.297000,1854497,1000,12,0,1,796.790,-20.951,18.559,426.679,5.987,12.497
1782117408.888824,0.298000,1854498,1000,12,0,1,814.517,-2.361,18.529,424.734,4.481,12.496
1782117408.889824,0.299000,1854499,1000,12,0,1,830.106,14.590,18.617,422.163,2.971,12.497
1782117408.890824,0.300000,1854500,1000,12,0,1,828.737,12.348,18.650,420.962,2.924,12.500
1782117408.891824,0.301000,1854501,1000,12,0,1,816.030,-1.289,18.642,424.253,6.901,12.533
1782117408.892824,0.302000,1854502,1000,12,0,1,811.250,-8.336,18.679,427.280,11.079,12.628
1782117408.893824,0.303000,1854503,1000,12,0,1,809.593,-8.497,18.706,428.457,12.169,12.683
1782117408.894824,0.304000,1854504,1000,12,0,1,802.963,-13.748,18.772,430.955,13.766,12.670
1782117408.895824,0.305000,1854505,1000,12,0,1,797.558,-17.605,18.834,439.722,19.675,12.860
1782117408.896824,0.306000,1854506,1000,12,0,1,808.800,-7.264,18.712,449.595,26.391,13.386
1782117408.897824,0.307000,1854507,1000,12,0,1,823.212,8.340,18.659,463.767,33.480,14.135
1782117408.898824,0.308000,1854508,1000,12,0,1,826.816,11.301,18.631,484.041,44.842,15.374
1782117408.899824,0.309000,1854509,1000,12,0,1,818.889,3.468,18.576,509.046,57.279,17.338
1782117408.900824,0.310000,1854510,1000,12,0,1,805.485,-8.669,18.582,533.739,67.150,19.730
1782117408.901824,0.311000,1854511,1000,12,0,1,801.954,-11.492,18.597,551.082,68.100,21.945
1782117408.902824,0.312000,1854512,1000,12,0,1,804.116,-5.561,18.559,553.292,54.896,23.249
1782117408.903824,0.313000,1854513,1000,12,0,1,809.617,1.057,18.232,531.674,22.627,23.354
1782117408.904824,0.314000,1854514,1000,12,0,1,822.083,13.518,18.096,499.822,-16.792,23.410
1782117408.905824,0.315000,1854515,1000,12,0,1,835.775,25.463,18.435,470.757,-46.030,24.272
1782117408.906824,0.316000,1854516,1000,12,0,1,848.074,33.454,18.199,438.569,-70.974,26.169
1782117408.907824,0.317000,1854517,1000,12,0,1,848.122,30.372,16.944,410.369,-88.663,28.941
1782117408.908824,0.318000,1854518,1000,12,0,1,829.098,9.361,16.263,400.737,-85.806,31.346
1782117408.909824,0.319000,1854519,1000,12,0,1,814.421,-8.446,16.282,399.368,-71.823,32.920
1782117408.910824,0.320000,1854520,1000,12,0,1,830.130,2.700,16.279,378.806,-73.778,34.508
1782117408.911824,0.321000,1854521,1000,12,0,1,838.970,13.493,16.389,362.904,-76.939,36.160
1782117408.912824,0.322000,1854522,1000,12,0,1,820.666,-5.230,16.386,373.618,-53.521,36.933
1782117408.913824,0.323000,1854523,1000,12,0,1,791.001,-32.368,17.012,397.926,-19.669,37.022
1782117408.914824,0.324000,1854524,1000,12,0,1,780.840,-41.115,17.978,412.939,2.164,37.021
1782117408.915824,0.325000,1854525,1000,12,0,1,795.541,-22.945,18.256,415.870,7.312,37.030
1782117408.916824,0.326000,1854526,1000,12,0,1,807.575,-6.377,18.180,411.450,4.259,37.004
1782117408.917824,0.327000,1854527,1000,12,0,1,812.667,-1.114,17.860,406.358,-0.277,36.952
1782117408.918824,0.328000,1854528,1000,12,0,1,816.294,2.890,17.089,398.743,-5.513,36.847
1782117408.919824,0.329000,1854529,1000,12,0,1,818.024,3.977,16.468,399.055,-4.960,36.752
1782117408.920824,0.330000,1854530,1000,12,0,1,813.844,0.819,16.435,405.061,3.144,36.715
1782117408.921824,0.331000,1854531,1000,12,0,1,815.214,0.508,16.046,410.898,9.701,36.740
1782117408.922824,0.332000,1854532,1000,12,0,1,818.697,5.217,15.110,412.051,12.126,36.750
1782117408.923824,0.333000,1854533,1000,12,0,1,820.690,6.539,14.742,410.297,11.133,36.712
1782117408.924824,0.334000,1854534,1000,12,0,1,815.742,3.205,14.674,408.736,10.812,36.603
1782117408.925824,0.335000,1854535,1000,12,0,1,814.853,1.040,14.583,406.262,10.639,36.462
1782117408.926824,0.336000,1854536,1000,12,0,1,815.406,3.272,14.555,406.694,12.292,36.360
1782117408.927824,0.337000,1854537,1000,12,0,1,816.294,3.813,14.460,412.315,19.148,36.283
1782117408.928824,0.338000,1854538,1000,12,0,1,815.117,3.546,14.121,417.455,24.828,36.242
1782117408.929824,0.339000,1854539,1000,12,0,1,817.880,4.929,14.043,420.794,27.336,36.335
1782117408.930824,0.340000,1854540,1000,12,0,1,821.123,7.955,14.088,422.836,27.637,36.514
1782117408.931824,0.341000,1854541,1000,12,0,1,819.850,5.901,14.101,428.913,29.832,36.744
1782117408.932824,0.342000,1854542,1000,12,0,1,811.923,-1.974,14.070,436.864,33.526,37.041
1782117408.933824,0.343000,1854543,1000,12,0,1,802.242,-11.069,14.090,443.013,33.764,37.346
1782117408.934824,0.344000,1854544,1000,12,0,1,797.678,-14.761,14.129,444.046,28.852,37.568
1782117408.935824,0.345000,1854545,1000,12,0,1,797.462,-12.818,14.022,448.202,24.764,37.730
1782117408.936824,0.346000,1854546,1000,12,0,1,794.219,-13.336,13.756,457.666,26.403,37.911
1782117408.937824,0.347000,1854547,1000,12,0,1,799.144,-8.505,13.487,455.288,18.775,37.995
1782117408.938824,0.348000,1854548,1000,12,0,1,814.757,6.665,13.516,438.714,-2.457,37.991
1782117408.939824,0.349000,1854549,1000,12,0,1,819.417,12.330,13.471,428.000,-17.021,38.065
1782117408.940824,0.350000,1854550,1000,12,0,1,811.394,3.247,13.365,431.363,-15.413,38.125
1782117408.941824,0.351000,1854551,1000,12,0,1,798.904,-8.013,13.412,435.495,-10.637,38.142
1782117408.942824,0.352000,1854552,1000,12,0,1,798.904,-8.790,13.417,438.185,-8.723,38.130
1782117408.943824,0.353000,1854553,1000,12,0,1,808.344,2.422,13.368,431.291,-12.823,38.134
1782117408.944824,0.354000,1854554,1000,12,0,1,810.265,6.022,13.253,423.436,-19.806,38.187
1782117408.945824,0.355000,1854555,1000,12,0,1,815.190,8.905,13.078,418.176,-20.726,38.198
1782117408.946824,0.356000,1854556,1000,12,0,1,819.417,13.627,13.179,414.429,-20.431,38.125
1782117408.947824,0.357000,1854557,1000,12,0,1,824.029,15.217,13.301,419.473,-12.509,37.871
1782117408.948824,0.358000,1854558,1000,12,0,1,820.786,12.454,13.322,423.364,-4.123,37.341
1782117408.949824,0.359000,1854559,1000,12,0,1,815.646,4.722,13.330,425.742,-0.705,36.452
1782117408.950824,0.360000,1854560,1000,12,0,1,815.478,3.826,13.284,426.223,1.860,35.194
1782117408.951824,0.361000,1854561,1000,12,0,1,818.769,5.708,13.209,422.740,-0.880,33.851
1782117408.952824,0.362000,1854562,1000,12,0,1,827.176,11.334,13.283,420.314,-2.930,32.952
1782117408.953824,0.363000,1854563,1000,12,0,1,831.548,14.108,13.431,420.338,-2.696,32.798
1782117408.954824,0.364000,1854564,1000,12,0,1,827.104,7.062,13.332,423.797,-0.094,32.712
1782117408.955824,0.365000,1854565,1000,12,0,1,809.184,-9.652,12.909,428.433,3.470,32.062
1782117408.956824,0.366000,1854566,1000,12,0,1,787.133,-30.153,12.745,434.750,6.952,30.466
1782117408.957824,0.367000,1854567,1000,12,0,1,773.898,-38.817,13.195,441.596,10.772,27.808
1782117408.958824,0.368000,1854568,1000,12,0,1,779.903,-29.568,13.779,438.834,6.325,25.036
1782117408.959824,0.369000,1854569,1000,12,0,1,798.591,-7.536,13.768,434.726,-1.084,22.884
1782117408.960824,0.370000,1854570,1000,12,0,1,798.928,-1.903,13.765,432.444,-3.921,20.374
1782117408.961824,0.371000,1854571,1000,12,0,1,796.309,-5.846,13.658,431.724,-5.305,17.242
1782117408.962824,0.372000,1854572,1000,12,0,1,795.228,-3.779,13.648,429.225,-6.382,15.518
1782117408.963824,0.373000,1854573,1000,12,0,1,796.718,-2.449,12.862,428.385,-6.604,15.295
1782117408.964824,0.374000,1854574,1000,12,0,1,802.843,4.574,11.491,425.046,-6.853,15.322
1782117408.965824,0.375000,1854575,1000,12,0,1,804.981,7.495,11.074,426.823,-4.451,15.300
1782117408.966824,0.376000,1854576,1000,12,0,1,800.945,3.867,11.051,428.337,0.329,15.289
1782117408.967824,0.377000,1854577,1000,12,0,1,800.873,3.209,11.059,427.208,0.583,15.289
1782117408.968824,0.378000,1854578,1000,12,0,1,795.421,0.329,11.052,429.826,3.827,15.279
1782117408.969824,0.379000,1854579,1000,12,0,1,790.280,-4.523,11.056,434.870,9.272,15.319
1782117408.970824,0.380000,1854580,1000,12,0,1,782.714,-8.253,11.117,434.678,9.212,15.368
1782117408.971824,0.381000,1854581,1000,12,0,1,769.887,-17.094,11.376,434.966,7.724,15.345
1782117408.972824,0.382000,1854582,1000,12,0,1,756.507,-25.060,11.893,441.476,11.508,15.336
1782117408.973824,0.383000,1854583,1000,12,0,1,752.375,-24.229,12.342,445.079,13.294,15.370
1782117408.974824,0.384000,1854584,1000,12,0,1,752.856,-17.523,12.580,444.839,9.303,15.350
1782117408.975824,0.385000,1854585,1000,12,0,1,771.040,0.835,12.580,442.437,4.354,15.289
1782117408.976824,0.386000,1854586,1000,12,0,1,792.922,24.119,13.026,439.578,-1.309,15.191
1782117408.977824,0.387000,1854587,1000,12,0,1,795.901,26.287,13.535,442.965,-0.967,14.948
1782117408.978824,0.388000,1854588,1000,12,0,1,799.480,23.700,13.935,443.085,-1.359,14.531
1782117408.979824,0.389000,1854589,1000,12,0,1,807.383,28.060,14.472,444.863,-2.625,14.012
1782117408.980824,0.390000,1854590,1000,12,0,1,806.902,23.613,14.810,443.998,-3.033,13.463
1782117408.981824,0.391000,1854591,1000,12,0,1,800.729,14.029,14.919,448.826,-1.279,12.786
1782117408.982824,0.392000,1854592,1000,12,0,1,799.648,9.147,14.972,456.945,6.473,11.910
1782117408.983824,0.393000,1854593,1000,12,0,1,796.501,5.821,14.913,461.413,9.171,10.988
1782117408.984824,0.394000,1854594,1000,12,0,1,795.372,2.495,14.770,462.110,8.435,10.271
1782117408.985824,0.395000,1854595,1000,12,0,1,801.161,7.215,14.694,466.265,9.914,9.757
1782117408.986824,0.396000,1854596,1000,12,0,1,808.151,12.817,14.685,490.094,26.886,9.783
1782117408.987824,0.397000,1854597,1000,12,0,1,808.800,12.470,14.741,507.221,41.236,11.076
1782117408.988824,0.398000,1854598,1000,12,0,1,801.786,4.852,14.727,522.305,44.580,12.740
1782117408.989824,0.399000,1854599,1000,12,0,1,802.338,2.682,14.628,538.111,51.209,14.455
1782117408.990824,0.400000,1854600,1000,12,0,1,805.485,6.212,14.648,557.472,55.751,16.321
1782117408.991824,0.401000,1854601,1000,12,0,1,796.622,-1.714,14.606,569.338,55.731,18.062
1782117408.992824,0.402000,1854602,1000,12,0,1,804.212,1.020,14.553,536.670,18.099,18.200
1782117408.993824,0.403000,1854603,1000,12,0,1,842.909,32.948,15.277,463.095,-54.961,19.707
1782117408.994824,0.404000,1854604,1000,12,0,1,871.326,55.673,17.166,395.813,-114.260,25.331
1782117408.995824,0.405000,1854605,1000,12,0,1,866.618,42.353,18.137,359.662,-134.126,31.509
1782117408.996824,0.406000,1854606,1000,12,0,1,857.178,21.630,18.292,343.544,-127.861,36.214
1782117408.997824,0.407000,1854607,1000,12,0,1,845.528,5.164,18.180,332.758,-115.741,39.702
1782117408.998824,0.408000,1854608,1000,12,0,1,811.298,-27.706,18.513,346.426,-85.865,41.514
1782117408.999824,0.409000,1854609,1000,12,0,1,774.426,-61.660,20.453,375.491,-41.706,41.930
1782117409.000824,0.410000,1854610,1000,12,0,1,769.814,-61.915,22.242,391.657,-14.756,41.981
1782117409.001824,0.411000,1854611,1000,12,0,1,787.950,-36.565,22.821,392.690,-7.549,41.995
1782117409.002824,0.412000,1854612,1000,12,0,1,801.306,-17.142,22.893,387.069,-8.060,42.008
1782117409.003824,0.413000,1854613,1000,12,0,1,799.840,-14.148,22.894,385.099,-6.633,42.017
1782117409.004824,0.414000,1854614,1000,12,0,1,795.348,-16.330,22.988,390.912,2.534,42.018
1782117409.005824,0.415000,1854615,1000,12,0,1,793.667,-14.750,23.043,402.755,15.816,42.075
1782117409.006824,0.416000,1854616,1000,12,0,1,793.667,-11.814,22.706,402.755,19.621,42.155
1782117409.007824,0.417000,1854617,1000,12,0,1,798.615,-5.315,22.045,400.617,16.812,42.195
1782117409.008824,0.418000,1854618,1000,12,0,1,802.026,0.409,21.645,399.176,18.111,42.263
1782117409.009824,0.419000,1854619,1000,12,0,1,800.032,-0.478,21.619,402.490,21.313,42.370
1782117409.010824,0.420000,1854620,1000,12,0,1,802.411,1.407,21.618,408.207,28.405,42.556
1782117409.011824,0.421000,1854621,1000,12,0,1,806.806,6.188,21.620,411.210,31.405,42.781
1782117409.012824,0.422000,1854622,1000,12,0,1,809.064,7.719,21.641,410.417,30.337,42.986
1782117409.013824,0.423000,1854623,1000,12,0,1,809.064,7.018,21.661,410.417,29.069,43.172
1782117409.014824,0.424000,1854624,1000,12,0,1,780.528,-14.991,21.755,422.524,36.742,43.473
1782117409.015824,0.425000,1854625,1000,12,0,1,788.839,-14.892,21.831,421.587,36.458,43.773
1782117409.016824,0.426000,1854626,1000,12,0,1,791.433,-0.334,21.824,424.950,31.295,43.996
1782117409.017824,0.427000,1854627,1000,12,0,1,787.494,-8.245,21.851,427.304,31.981,44.228
1782117409.018824,0.428000,1854628,1000,12,0,1,782.089,-7.265,21.875,431.243,27.643,44.397
1782117409.019824,0.429000,1854629,1000,12,0,1,778.366,-10.642,21.917,430.186,23.337,44.500
1782117409.020824,0.430000,1854630,1000,12,0,1,774.979,-9.573,21.928,427.304,13.688,44.523
1782117409.021824,0.431000,1854631,1000,12,0,1,768.998,-11.653,21.856,431.147,11.887,44.541
1782117409.022824,0.432000,1854632,1000,12,0,1,771.328,-8.149,21.598,431.075,8.544,44.528
1782117409.023824,0.433000,1854633,1000,12,0,1,782.305,5.511,21.339,430.282,2.281,44.490
1782117409.024824,0.434000,1854634,1000,12,0,1,781.897,7.207,21.219,431.724,1.049,44.470
1782117409.025824,0.435000,1854635,1000,12,0,1,784.587,8.427,21.252,430.787,-2.640,44.468
1782117409.026824,0.436000,1854636,1000,12,0,1,789.896,13.551,21.064,433.525,-2.386,44.468
1782117409.027824,0.437000,1854637,1000,12,0,1,785.668,10.039,20.781,436.792,-0.351,44.468
1782117409.028824,0.438000,1854638,1000,12,0,1,782.666,4.878,20.521,438.401,0.085,44.468
1782117409.029824,0.439000,1854639,1000,12,0,1,784.251,6.813,20.157,439.386,0.235,44.466
1782117409.030824,0.440000,1854640,1000,12,0,1,791.145,11.337,19.943,438.714,-0.443,44.464
1782117409.031824,0.441000,1854641,1000,12,0,1,801.810,20.071,20.046,438.762,-0.770,44.464
1782117409.032824,0.442000,1854642,1000,12,0,1,808.968,23.933,20.288,440.131,0.805,44.455
1782117409.033824,0.443000,1854643,1000,12,0,1,808.920,20.786,20.484,435.327,-2.494,44.437
1782117409.034824,0.444000,1854644,1000,12,0,1,791.049,3.317,20.486,429.442,-8.005,44.436
1782117409.035824,0.445000,1854645,1000,12,0,1,763.809,-22.476,20.706,428.241,-8.204,44.429
1782117409.036824,0.446000,1854646,1000,12,0,1,755.666,-29.036,21.031,429.586,-6.020,44.274
1782117409.037824,0.447000,1854647,1000,12,0,1,774.210,-8.695,20.993,426.775,-7.412,43.901
1782117409.038824,0.448000,1854648,1000,12,0,1,774.523,-0.901,20.982,430.402,-5.677,43.453
1782117409.039824,0.449000,1854649,1000,12,0,1,752.664,-19.672,21.163,442.461,4.602,42.850
1782117409.040824,0.450000,1854650,1000,12,0,1,748.100,-22.815,21.389,444.262,5.634,42.126
1782117409.041824,0.451000,1854651,1000,12,0,1,774.835,3.786,21.395,436.215,-4.892,41.388
1782117409.042824,0.452000,1854652,1000,12,0,1,792.178,23.942,21.660,428.481,-13.678,41.354
1782117409.043824,0.453000,1854653,1000,12,0,1,787.590,17.287,21.294,432.276,-12.087,40.653
1782117409.044824,0.454000,1854654,1000,12,0,1,785.380,11.037,19.846,438.834,-4.980,37.310
1782117409.045824,0.455000,1854655,1000,12,0,1,792.394,15.038,19.040,440.515,-4.008,32.134
1782117409.046824,0.456000,1854656,1000,12,0,1,790.352,12.227,18.872,441.548,-3.675,26.569
1782117409.047824,0.457000,1854657,1000,12,0,1,787.974,6.179,18.878,449.090,2.099,20.930
1782117409.048824,0.458000,1854658,1000,12,0,1,790.256,6.828,18.492,456.273,8.832,17.093
1782117409.049824,0.459000,1854659,1000,12,0,1,792.442,7.330,16.340,457.474,9.018,16.093
1782117409.050824,0.460000,1854660,1000,12,0,1,790.496,4.508,13.811,459.732,9.181,16.010
1782117409.051824,0.461000,1854661,1000,12,0,1,773.370,-9.719,12.880,469.412,16.162,16.137
1782117409.052824,0.462000,1854662,1000,12,0,1,762.344,-21.063,12.996,482.479,25.723,16.503
1782117409.053824,0.463000,1854663,1000,12,0,1,767.845,-12.645,12.965,495.354,33.288,17.136
1782117409.054824,0.464000,1854664,1000,12,0,1,778.942,0.026,12.757,505.731,36.956,17.911
1782117409.055824,0.465000,1854665,1000,12,0,1,784.395,7.008,12.625,519.807,41.361,18.709
1782117409.056824,0.466000,1854666,1000,12,0,1,782.906,5.446,12.537,535.253,46.697,19.645
1782117409.057824,0.467000,1854667,1000,12,0,1,784.035,5.142,12.536,536.093,38.744,20.256
1782117409.058824,0.468000,1854668,1000,12,0,1,813.844,27.145,13.110,497.132,-2.031,20.096
1782117409.059824,0.469000,1854669,1000,12,0,1,842.453,51.845,15.021,445.968,-54.459,21.309
1782117409.060824,0.470000,1854670,1000,12,0,1,853.887,52.622,16.762,401.145,-89.520,24.458
1782117409.061824,0.471000,1854671,1000,12,0,1,861.357,48.323,18.081,359.229,-115.443,29.069
1782117409.062824,0.472000,1854672,1000,12,0,1,853.767,33.056,18.643,339.196,-118.817,33.301
1782117409.063824,0.473000,1854673,1000,12,0,1,810.530,-11.207,18.684,349.333,-91.329,35.481
1782117409.064824,0.474000,1854674,1000,12,0,1,769.622,-53.183,20.029,375.707,-51.254,35.839
1782117409.065824,0.475000,1854675,1000,12,0,1,746.971,-67.584,22.093,398.191,-18.463,35.562
1782117409.066824,0.476000,1854676,1000,12,0,1,745.337,-61.494,23.743,407.246,-3.779,35.290
1782117409.067824,0.477000,1854677,1000,12,0,1,752.880,-43.662,24.505,407.391,-0.292,34.999
1782117409.068824,0.478000,1854678,1000,12,0,1,770.295,-21.644,24.674,407.174,1.270,34.780
1782117409.069824,0.479000,1854679,1000,12,0,1,791.145,2.489,24.630,403.667,1.159,34.623
1782117409.070824,0.480000,1854680,1000,12,0,1,803.035,14.870,24.683,403.787,2.456,34.571
1782117409.071824,0.481000,1854681,1000,12,0,1,800.825,11.869,24.685,409.216,10.128,34.560
1782117409.072824,0.482000,1854682,1000,12,0,1,789.992,0.573,24.658,413.492,16.060,34.613
1782117409.073824,0.483000,1854683,1000,12,0,1,773.754,-14.133,24.727,427.640,27.856,34.835
1782117409.074824,0.484000,1854684,1000,12,0,1,770.295,-17.339,24.827,444.599,43.415,35.372
1782117409.075824,0.485000,1854685,1000,12,0,1,778.510,-6.918,24.818,448.778,44.776,35.932
1782117409.076824,0.486000,1854686,1000,12,0,1,781.777,-1.103,24.744,449.787,40.488,36.384
1782117409.077824,0.487000,1854687,1000,12,0,1,790.520,5.426,24.715,443.374,32.191,36.668
1782117409.078824,0.488000,1854688,1000,12,0,1,802.867,17.137,24.824,426.055,13.713,36.719
1782117409.079824,0.489000,1854689,1000,12,0,1,806.062,18.345,24.941,411.378,-1.117,36.719
1782117409.080824,0.490000,1854690,1000,12,0,1,798.639,9.712,24.927,404.700,-5.962,36.729
1782117409.081824,0.491000,1854691,1000,12,0,1,785.356,-3.696,24.771,398.575,-8.725,36.749
1782117409.082824,0.492000,1854692,1000,12,0,1,788.767,-2.842,24.542,395.981,-9.435,36.774
1782117409.083824,0.493000,1854693,1000,12,0,1,799.432,9.074,24.399,397.518,-5.811,36.781
1782117409.084824,0.494000,1854694,1000,12,0,1,800.849,10.150,24.436,407.343,2.977,36.766
1782117409.085824,0.495000,1854695,1000,12,0,1,785.668,-2.764,24.232,419.833,14.072,36.802
1782117409.086824,0.496000,1854696,1000,12,0,1,778.966,-11.156,23.934,421.779,14.099,36.846
1782117409.087824,0.497000,1854697,1000,12,0,1,780.528,-6.414,23.919,420.866,8.709,36.851
1782117409.088824,0.498000,1854698,1000,12,0,1,787.181,-0.034,23.919,422.668,7.377,36.857
1782117409.089824,0.499000,1854699,1000,12,0,1,798.543,10.754,23.805,421.539,3.970,36.856
1782117409.090824,0.500000,1854700,1000,12,0,1,801.065,13.111,23.658,419.545,-0.110,36.847
1782117409.091824,0.501000,1854701,1000,12,0,1,794.099,4.455,23.660,413.588,-5.580,36.849
1782117409.092824,0.502000,1854702,1000,12,0,1,791.889,0.243,23.417,412.243,-7.698,36.815
1782117409.093824,0.503000,1854703,1000,12,0,1,786.749,-3.887,23.295,411.306,-5.875,36.784
1782117409.094824,0.504000,1854704,1000,12,0,1,782.545,-8.689,23.276,417.143,-0.547,36.778
1782117409.095824,0.505000,1854705,1000,12,0,1,785.284,-5.838,23.193,425.238,9.311,36.797
1782117409.096824,0.506000,1854706,1000,12,0,1,781.609,-6.906,23.149,429.105,13.030,36.839
1782117409.097824,0.507000,1854707,1000,12,0,1,773.658,-13.876,23.216,433.885,16.359,36.911
1782117409.098824,0.508000,1854708,1000,12,0,1,768.085,-16.545,23.313,435.639,17.594,36.973
1782117409.099824,0.509000,1854709,1000,12,0,1,773.994,-10.074,23.334,433.189,13.373,37.000
1782117409.100824,0.510000,1854710,1000,12,0,1,788.863,5.750,23.339,431.675,10.255,37.005
1782117409.101824,0.511000,1854711,1000,12,0,1,794.171,12.081,23.361,435.807,11.419,36.970
1782117409.102824,0.512000,1854712,1000,12,0,1,786.821,4.695,23.180,438.521,12.457,36.833
1782117409.103824,0.513000,1854713,1000,12,0,1,779.663,-2.703,23.114,437.609,8.221,36.549
1782117409.104824,0.514000,1854714,1000,12,0,1,771.856,-8.005,23.142,440.731,7.171,36.188
1782117409.105824,0.515000,1854715,1000,12,0,1,776.853,-3.918,23.127,440.851,4.856,35.718
1782117409.106824,0.516000,1854716,1000,12,0,1,787.662,8.587,23.146,437.248,-2.173,35.104
1782117409.107824,0.517000,1854717,1000,12,0,1,788.719,10.063,23.179,442.725,-1.251,34.674
1782117409.108824,0.518000,1854718,1000,12,0,1,777.117,-0.297,22.859,451.685,4.734,34.679
1782117409.109824,0.519000,1854719,1000,12,0,1,763.665,-12.506,21.723,464.536,11.562,33.853
1782117409.110824,0.520000,1854720,1000,12,0,1,763.665,-11.800,20.476,464.536,9.816,31.427
1782117409.111824,0.521000,1854721,1000,12,0,1,762.128,-8.475,19.340,502.873,31.038,27.210
1782117409.112824,0.522000,1854722,1000,12,0,1,786.389,9.583,18.815,520.840,49.949,22.538
1782117409.113824,0.523000,1854723,1000,12,0,1,789.175,19.483,18.949,538.567,46.887,19.624
1782117409.114824,0.524000,1854724,1000,12,0,1,773.370,-1.126,17.394,548.608,51.332,19.628
1782117409.115824,0.525000,1854725,1000,12,0,1,763.569,-9.208,14.590,538.664,29.491,19.896
1782117409.116824,0.526000,1854726,1000,12,0,1,760.206,-11.763,11.833,517.165,3.134,19.893
1782117409.117824,0.527000,1854727,1000,12,0,1,775.531,1.644,10.097,494.754,-21.293,20.120
1782117409.118824,0.528000,1854728,1000,12,0,1,816.487,36.890,10.945,448.442,-58.289,21.742
1782117409.119824,0.529000,1854729,1000,12,0,1,856.673,68.540,14.616,381.953,-109.375,26.683
1782117409.120824,0.530000,1854730,1000,12,0,1,864.768,67.940,17.364,330.140,-141.985,33.392
1782117409.121824,0.531000,1854731,1000,12,0,1,833.253,28.923,17.760,324.015,-126.557,37.859
1782117409.122824,0.532000,1854732,1000,12,0,1,781.729,-23.868,18.078,352.840,-78.770,39.399
1782117409.123824,0.533000,1854733,1000,12,0,1,752.303,-53.041,19.470,383.106,-32.595,39.471
1782117409.124824,0.534000,1854734,1000,12,0,1,762.921,-38.043,20.050,396.461,-11.232,39.023
1782117409.125824,0.535000,1854735,1000,12,0,1,774.931,-17.836,20.185,405.061,0.037,38.506
1782117409.126824,0.536000,1854736,1000,12,0,1,780.648,-9.671,20.231,409.456,5.490,38.086
1782117409.127824,0.537000,1854737,1000,12,0,1,785.068,-2.678,20.220,411.402,6.396,37.824
1782117409.128824,0.538000,1854738,1000,12,0,1,787.590,0.494,20.074,414.092,7.364,37.788
1782117409.129824,0.539000,1854739,1000,12,0,1,791.505,3.895,19.913,415.654,7.742,37.804
1782117409.130824,0.540000,1854740,1000,12,0,1,790.688,3.516,19.872,417.023,7.513,37.809
1782117409.131824,0.541000,1854741,1000,12,0,1,787.710,-0.842,19.865,422.740,11.715,37.825
1782117409.132824,0.542000,1854742,1000,12,0,1,787.229,-1.912,19.863,424.613,14.122,37.855
1782117409.133824,0.543000,1854743,1000,12,0,1,795.829,3.681,19.829,417.383,8.468,37.865
1782117409.134824,0.544000,1854744,1000,12,0,1,799.768,7.546,19.805,415.534,7.170,37.876
1782117409.135824,0.545000,1854745,1000,12,0,1,802.603,6.173,19.821,410.585,7.727,37.839
1782117409.136824,0.546000,1854746,1000,12,0,1,800.633,3.677,19.765,403.475,4.119,37.791
1782117409.137824,0.547000,1854747,1000,12,0,1,791.986,-6.151,19.763,398.767,5.015,37.778
1782117409.138824,0.548000,1854748,1000,12,0,1,786.004,-12.216,19.838,407.919,15.744,37.829
1782117409.139824,0.549000,1854749,1000,12,0,1,781.416,-14.488,19.886,415.990,27.925,38.030
1782117409.140824,0.550000,1854750,1000,12,0,1,776.829,-16.603,19.938,419.377,30.230,38.270
1782117409.141824,0.551000,1854751,1000,12,0,1,774.859,-15.204,20.044,420.626,30.187,38.499
1782117409.142824,0.552000,1854752,1000,12,0,1,768.926,-16.250,20.175,420.386,26.727,38.669
1782117409.143824,0.553000,1854753,1000,12,0,1,763.305,-17.833,20.324,429.514,29.139,38.879
1782117409.144824,0.554000,1854754,1000,12,0,1,768.854,-9.578,20.332,440.755,34.537,39.185
1782117409.145824,0.555000,1854755,1000,12,0,1,767.460,-4.787,20.327,449.331,33.539,39.449
1782117409.146824,0.556000,1854756,1000,12,0,1,766.956,-4.663,20.314,452.213,28.055,39.605
1782117409.147824,0.557000,1854757,1000,12,0,1,776.540,6.287,20.239,448.298,15.292,39.596
1782117409.148824,0.558000,1854758,1000,12,0,1,775.291,7.833,20.133,447.769,6.374,39.528
1782117409.149824,0.559000,1854759,1000,12,0,1,781.465,9.898,20.132,443.422,-2.189,39.484
1782117409.150824,0.560000,1854760,1000,12,0,1,797.462,24.055,20.401,436.888,-12.764,39.499
1782117409.151824,0.561000,1854761,1000,12,0,1,793.739,19.696,20.519,437.056,-14.592,39.520
1782117409.152824,0.562000,1854762,1000,12,0,1,793.018,12.122,20.580,443.157,-9.251,39.502
1782117409.153824,0.563000,1854763,1000,12,0,1,795.637,13.375,20.663,449.547,-2.731,39.487
1782117409.154824,0.564000,1854764,1000,12,0,1,786.293,2.592,20.635,457.089,4.072,39.478
1782117409.155824,0.565000,1854765,1000,12,0,1,778.342,-7.161,20.653,465.593,11.836,39.508
1782117409.156824,0.566000,1854766,1000,12,0,1,773.754,-10.407,20.670,471.670,16.864,39.578
1782117409.157824,0.567000,1854767,1000,12,0,1,764.074,-17.088,20.762,474.120,17.777,39.658
1782117409.158824,0.568000,1854768,1000,12,0,1,755.642,-22.303,21.000,471.406,14.095,39.702
1782117409.159824,0.569000,1854769,1000,12,0,1,766.211,-11.016,20.983,468.523,9.269,39.690
1782117409.160824,0.570000,1854770,1000,12,0,1,794.868,17.132,21.057,446.929,-8.006,39.682
1782117409.161824,0.571000,1854771,1000,12,0,1,802.531,26.826,21.362,425.718,-29.250,39.655
1782117409.162824,0.572000,1854772,1000,12,0,1,787.830,10.092,21.367,424.373,-27.725,39.217
1782117409.163824,0.573000,1854773,1000,12,0,1,769.839,-7.318,21.213,434.462,-15.810,38.717
1782117409.164824,0.574000,1854774,1000,12,0,1,764.170,-12.646,21.288,442.653,-6.924,38.043
1782117409.165824,0.575000,1854775,1000,12,0,1,762.656,-10.106,21.296,443.157,-7.231,37.827
1782117409.166824,0.576000,1854776,1000,12,0,1,766.932,-5.096,21.243,440.923,-11.864,37.862
1782117409.167824,0.577000,1854777,1000,12,0,1,781.657,9.177,21.282,428.625,-22.723,37.879
1782117409.168824,0.578000,1854778,1000,12,0,1,792.418,19.392,20.814,413.564,-37.408,37.347
1782117409.169824,0.579000,1854779,1000,12,0,1,788.767,14.051,18.526,407.847,-40.070,34.463
1782117409.170824,0.580000,1854780,1000,12,0,1,781.248,4.022,15.850,404.268,-38.184,28.525
1782117409.171824,0.581000,1854781,1000,12,0,1,782.161,2.118,15.316,404.460,-33.271,22.704
1782117409.172824,0.582000,1854782,1000,12,0,1,777.717,-1.026,14.940,403.139,-27.322,20.157
1782117409.173824,0.583000,1854783,1000,12,0,1,773.249,-7.333,12.962,410.105,-16.824,19.766
1782117409.174824,0.584000,1854784,1000,12,0,1,772.841,-6.728,11.831,418.632,-1.923,19.704
1782117409.175824,0.585000,1854785,1000,12,0,1,772.721,-6.449,11.595,423.076,5.966,19.722
1782117409.176824,0.586000,1854786,1000,12,0,1,769.887,-7.600,11.564,420.074,7.879,19.738
1782117409.177824,0.587000,1854787,1000,12,0,1,766.235,-9.843,11.641,420.314,9.893,19.767
1782117409.178824,0.588000,1854788,1000,12,0,1,764.578,-9.610,11.720,428.241,19.793,19.937
1782117409.179824,0.589000,1854789,1000,12,0,1,772.601,-1.478,11.709,441.044,32.046,20.417
1782117409.180824,0.590000,1854790,1000,12,0,1,774.450,3.470,11.709,463.575,49.188,21.543
1782117409.181824,0.591000,1854791,1000,12,0,1,765.635,-3.910,11.721,492.208,69.422,23.616
1782117409.182824,0.592000,1854792,1000,12,0,1,771.616,0.129,11.718,520.864,84.159,26.371
1782117409.183824,0.593000,1854793,1000,12,0,1,792.274,19.761,12.036,545.101,91.480,29.349
1782117409.184824,0.594000,1854794,1000,12,0,1,801.426,27.679,12.611,566.023,91.356,32.050
1782117409.185824,0.595000,1854795,1000,12,0,1,793.859,17.576,12.824,577.385,82.536,34.092
1782117409.186824,0.596000,1854796,1000,12,0,1,785.380,5.830,12.840,561.051,50.201,34.819
1782117409.187824,0.597000,1854797,1000,12,0,1,797.751,12.700,12.936,498.381,-17.833,34.903
1782117409.188824,0.598000,1854798,1000,12,0,1,834.622,41.417,14.095,411.186,-101.574,37.677
1782117409.189824,0.599000,1854799,1000,12,0,1,857.202,57.780,16.163,350.774,-150.085,43.064
1782117409.190824,0.600000,1854800,1000,12,0,1,810.554,12.423,16.087,359.854,-127.907,46.513
1782117409.191824,0.601000,1854801,1000,12,0,1,754.297,-48.920,17.379,386.156,-79.502,47.661
1782117409.192824,0.602000,1854802,1000,12,0,1,747.019,-53.752,18.829,394.612,-56.977,48.190
1782117409.193824,0.603000,1854803,1000,12,0,1,755.186,-36.701,19.368,395.092,-44.733,48.428
1782117409.194824,0.604000,1854804,1000,12,0,1,762.728,-24.802,19.637,397.518,-33.196,48.409
1782117409.195824,0.605000,1854805,1000,12,0,1,770.679,-12.592,19.705,393.771,-26.700,48.324
1782117409.196824,0.606000,1854806,1000,12,0,1,779.711,-2.788,19.698,391.081,-22.421,48.265
1782117409.197824,0.607000,1854807,1000,12,0,1,773.346,-4.641,19.689,395.284,-11.792,48.246
1782117409.198824,0.608000,1854808,1000,12,0,1,760.278,-16.877,19.802,400.232,-1.116,48.238
1782117409.199824,0.609000,1854809,1000,12,0,1,757.444,-17.203,19.902,401.938,4.289,48.240
1782117409.200824,0.610000,1854810,1000,12,0,1,764.650,-7.969,19.642,403.043,8.069,48.220
1782117409.201824,0.611000,1854811,1000,12,0,1,771.256,0.841,19.443,406.526,12.428,48.208
1782117409.202824,0.612000,1854812,1000,12,0,1,773.177,3.578,19.374,408.976,16.102,48.244
1782117409.203824,0.613000,1854813,1000,12,0,1,774.523,4.561,19.293,411.810,17.899,48.309
1782117409.204824,0.614000,1854814,1000,12,0,1,772.721,3.685,19.296,414.501,20.081,48.389
1782117409.205824,0.615000,1854815,1000,12,0,1,775.652,4.825,19.282,417.191,20.789,48.449
1782117409.206824,0.616000,1854816,1000,12,0,1,781.416,10.627,19.284,419.857,21.706,48.488
1782117409.207824,0.617000,1854817,1000,12,0,1,784.107,11.944,19.206,422.139,21.613,48.519
1782117409.208824,0.618000,1854818,1000,12,0,1,783.050,10.020,18.999,422.836,20.293,48.563
1782117409.209824,0.619000,1854819,1000,12,0,1,780.840,6.572,18.957,422.139,17.556,48.608
1782117409.210824,0.620000,1854820,1000,12,0,1,777.741,3.301,18.808,423.172,16.324,48.650
1782117409.211824,0.621000,1854821,1000,12,0,1,774.066,-0.201,18.421,425.190,16.654,48.531
1782117409.212824,0.622000,1854822,1000,12,0,1,769.070,-4.027,18.375,426.055,15.691,48.423
1782117409.213824,0.623000,1854823,1000,12,0,1,761.984,-9.008,18.390,425.382,13.466,48.409
1782117409.214824,0.624000,1854824,1000,12,0,1,751.391,-16.079,18.443,426.751,12.554,48.432
1782117409.215824,0.625000,1854825,1000,12,0,1,744.256,-19.944,18.603,430.619,14.352,48.464
1782117409.216824,0.626000,1854826,1000,12,0,1,738.227,-20.568,18.815,436.768,17.308,48.496
1782117409.217824,0.627000,1854827,1000,12,0,1,731.910,-21.894,19.024,446.929,22.915,48.498
1782117409.218824,0.628000,1854828,1000,12,0,1,738.588,-12.972,18.914,449.619,22.465,48.313
1782117409.219824,0.629000,1854829,1000,12,0,1,754.561,5.200,18.824,451.180,17.705,48.045
1782117409.220824,0.630000,1854830,1000,12,0,1,771.760,20.821,19.044,454.735,16.723,47.799
1782117409.221824,0.631000,1854831,1000,12,0,1,793.475,37.019,19.749,454.087,11.771,47.596
1782117409.222824,0.632000,1854832,1000,12,0,1,806.758,44.865,20.742,456.297,8.514,47.454
1782117409.223824,0.633000,1854833,1000,12,0,1,797.462,30.630,21.164,454.952,4.829,47.400
1782117409.224824,0.634000,1854834,1000,12,0,1,787.013,13.149,21.225,441.812,-9.435,47.418
1782117409.225824,0.635000,1854835,1000,12,0,1,788.671,10.627,21.258,435.303,-18.105,47.479
1782117409.226824,0.636000,1854836,1000,12,0,1,790.809,10.605,21.284,440.467,-12.838,47.501
1782117409.227824,0.637000,1854837,1000,12,0,1,789.151,6.756,21.260,442.245,-9.605,47.500
1782117409.228824,0.638000,1854838,1000,12,0,1,785.620,2.113,21.219,434.726,-15.462,47.467
1782117409.229824,0.639000,1854839,1000,12,0,1,785.908,0.836,21.218,428.144,-20.744,47.342
1782117409.230824,0.640000,1854840,1000,12,0,1,787.782,2.646,21.215,423.941,-21.623,46.927
1782117409.231824,0.641000,1854841,1000,12,0,1,785.908,0.808,21.209,428.745,-15.648,45.942
1782117409.232824,0.642000,1854842,1000,12,0,1,782.593,-2.548,21.212,434.510,-6.777,44.384
1782117409.233824,0.643000,1854843,1000,12,0,1,782.906,-2.574,21.030,434.390,-5.486,42.464
1782117409.234824,0.644000,1854844,1000,12,0,1,782.185,-2.483,20.665,429.370,-8.630,40.469
1782117409.235824,0.645000,1854845,1000,12,0,1,778.414,-5.911,20.532,429.730,-8.136,38.767
1782117409.236824,0.646000,1854846,1000,12,0,1,777.837,-6.856,20.539,430.739,-4.971,38.117
1782117409.237824,0.647000,1854847,1000,12,0,1,782.930,-2.449,20.463,427.472,-6.804,38.046
1782117409.238824,0.648000,1854848,1000,12,0,1,784.779,-0.606,19.607,431.387,-3.639,35.234
1782117409.239824,0.649000,1854849,1000,12,0,1,787.229,-0.538,17.823,432.660,-0.040,28.123
1782117409.240824,0.650000,1854850,1000,12,0,1,789.271,0.429,17.737,431.411,-2.107,21.536
1782117409.241824,0.651000,1854851,1000,12,0,1,788.647,-1.905,16.334,425.166,-5.888,18.387
1782117409.242824,0.652000,1854852,1000,12,0,1,787.494,-4.349,14.470,427.832,-5.097,16.543
1782117409.243824,0.653000,1854853,1000,12,0,1,786.725,-5.856,13.533,423.797,-4.501,15.299
1782117409.244824,0.654000,1854854,1000,12,0,1,782.065,-9.694,13.142,427.256,-3.876,14.571
1782117409.245824,0.655000,1854855,1000,12,0,1,774.763,-15.545,13.205,432.660,4.335,14.087
1782117409.246824,0.656000,1854856,1000,12,0,1,767.340,-20.005,13.499,438.233,7.770,13.769
1782117409.247824,0.657000,1854857,1000,12,0,1,756.603,-25.422,13.954,440.347,10.161,13.743
1782117409.248824,0.658000,1854858,1000,12,0,1,754.513,-24.154,14.166,440.491,8.555,13.796
1782117409.249824,0.659000,1854859,1000,12,0,1,758.621,-14.299,14.102,441.764,8.385,13.833
1782117409.250824,0.660000,1854860,1000,12,0,1,764.001,-5.659,14.079,446.328,11.182,13.876
1782117409.251824,0.661000,1854861,1000,12,0,1,780.215,10.375,14.155,446.616,10.449,13.844
1782117409.252824,0.662000,1854862,1000,12,0,1,800.921,29.647,14.754,448.154,9.460,13.720
1782117409.253824,0.663000,1854863,1000,12,0,1,803.588,30.991,15.378,450.772,10.284,13.563
1782117409.254824,0.664000,1854864,1000,12,0,1,791.217,15.391,15.523,461.942,16.903,13.476
1782117409.255824,0.665000,1854865,1000,12,0,1,779.159,1.282,15.509,470.301,22.619,13.535
1782117409.256824,0.666000,1854866,1000,12,0,1,769.334,-7.995,15.477,470.925,18.711,13.445
1782117409.257824,0.667000,1854867,1000,12,0,1,778.342,-2.129,15.387,460.716,6.448,13.125
1782117409.258824,0.668000,1854868,1000,12,0,1,795.493,14.678,15.462,445.367,-10.183,12.888
1782117409.259824,0.669000,1854869,1000,12,0,1,801.426,18.059,15.644,434.150,-20.778,12.984
1782117409.260824,0.670000,1854870,1000,12,0,1,794.388,8.765,15.686,432.156,-21.024,13.118
1782117409.261824,0.671000,1854871,1000,12,0,1,782.954,-4.519,15.699,437.825,-13.798,13.052
1782117409.262824,0.672000,1854872,1000,12,0,1,783.074,-6.814,15.718,440.707,-8.313,12.915
1782117409.263824,0.673000,1854873,1000,12,0,1,794.484,3.466,15.674,440.203,-8.276,12.828
1782117409.264824,0.674000,1854874,1000,12,0,1,802.531,10.330,15.577,446.400,-2.756,12.710
1782117409.265824,0.675000,1854875,1000,12,0,1,807.287,12.024,15.414,449.139,1.026,12.548
1782117409.266824,0.676000,1854876,1000,12,0,1,805.845,9.062,15.191,452.141,1.886,12.310
1782117409.267824,0.677000,1854877,1000,12,0,1,804.164,4.471,14.885,451.541,1.794,11.878
1782117409.268824,0.678000,1854878,1000,12,0,1,804.524,3.642,14.781,442.917,-6.531,11.483
1782117409.269824,0.679000,1854879,1000,12,0,1,802.194,0.828,14.763,434.774,-13.838,11.376
1782117409.270824,0.680000,1854880,1000,12,0,1,791.986,-7.975,14.510,432.300,-14.410,11.312
1782117409.271824,0.681000,1854881,1000,12,0,1,787.061,-13.064,13.658,428.529,-14.627,11.379
1782117409.272824,0.682000,1854882,1000,12,0,1,791.673,-7.221,12.138,415.269,-22.422,11.751
1782117409.273824,0.683000,1854883,1000,12,0,1,790.304,-5.777,11.368,407.943,-26.536,12.317
1782117409.274824,0.684000,1854884,1000,12,0,1,781.008,-13.285,11.372,413.612,-16.256,12.458
1782117409.275824,0.685000,1854885,1000,12,0,1,787.229,-8.518,11.336,412.963,-10.776,12.287
1782117409.276824,0.686000,1854886,1000,12,0,1,791.049,-1.259,11.238,412.843,-8.867,12.217
1782117409.277824,0.687000,1854887,1000,12,0,1,787.758,-5.263,11.222,415.269,-2.820,12.147
1782117409.278824,0.688000,1854888,1000,12,0,1,784.419,-7.794,11.272,418.272,1.537,11.951
1782117409.279824,0.689000,1854889,1000,12,0,1,785.140,-7.407,11.320,417.671,3.204,11.594
1782117409.280824,0.690000,1854890,1000,12,0,1,788.695,-3.685,11.326,417.431,3.100,11.192
1782117409.281824,0.691000,1854891,1000,12,0,1,787.950,-3.551,11.336,417.575,4.341,10.988
1782117409.282824,0.692000,1854892,1000,12,0,1,787.686,-4.736,11.350,417.503,4.532,10.965
1782117409.283824,0.693000,1854893,1000,12,0,1,784.131,-6.279,11.379,421.058,7.428,10.988
1782117409.284824,0.694000,1854894,1000,12,0,1,780.528,-9.695,11.456,422.019,9.045,10.995
1782117409.285824,0.695000,1854895,1000,12,0,1,775.339,-11.526,11.541,422.692,8.232,10.996
1782117409.286824,0.696000,1854896,1000,12,0,1,767.893,-16.046,11.722,421.275,7.369,11.023
1782117409.287824,0.697000,1854897,1000,12,0,1,763.401,-16.666,11.952,423.148,7.366,11.030
1782117409.288824,0.698000,1854898,1000,12,0,1,765.611,-11.117,12.054,425.502,9.988,11.108
1782117409.289824,0.699000,1854899,1000,12,0,1,763.329,-8.018,12.107,428.024,10.821,11.213
1782117409.290824,0.700000,1854900,1000,12,0,1,760.759,-7.911,12.159,431.003,12.761,11.354
1782117409.291824,0.701000,1854901,1000,12,0,1,758.717,-5.716,12.183,434.678,14.375,11.504
1782117409.292824,0.702000,1854902,1000,12,0,1,762.392,-0.569,12.167,438.281,15.858,11.699
1782117409.293824,0.703000,1854903,1000,12,0,1,769.214,8.109,12.193,439.602,15.093,11.875
1782117409.294824,0.704000,1854904,1000,12,0,1,779.375,16.934,12.350,434.078,8.473,11.922
1782117409.295824,0.705000,1854905,1000,12,0,1,787.998,23.841,12.612,435.951,6.732,11.945
1782117409.296824,0.706000,1854906,1000,12,0,1,778.966,14.950,12.471,439.050,9.436,11.969
1782117409.297824,0.707000,1854907,1000,12,0,1,768.926,1.466,11.943,442.413,9.602,11.959
1782117409.298824,0.708000,1854908,1000,12,0,1,780.143,9.241,11.519,437.753,5.044,11.919
1782117409.299824,0.709000,1854909,1000,12,0,1,799.552,25.565,11.903,427.952,-6.038,11.891
1782117409.300824,0.710000,1854910,1000,12,0,1,805.245,28.131,12.524,428.217,-7.269,11.830
1782117409.301824,0.711000,1854911,1000,12,0,1,803.924,20.770,12.780,428.721,-5.044,11.759
1782117409.302824,0.712000,1854912,1000,12,0,1,802.459,15.190,12.262,423.220,-10.062,11.769
1782117409.303824,0.713000,1854913,1000,12,0,1,798.303,8.035,11.509,430.402,-4.858,11.699
1782117409.304824,0.714000,1854914,1000,12,0,1,790.256,-1.160,11.302,433.669,0.641,11.453
1782117409.305824,0.715000,1854915,1000,12,0,1,790.376,-3.286,11.310,434.438,-0.884,10.997
1782117409.306824,0.716000,1854916,1000,12,0,1,791.625,-0.849,11.254,434.798,-0.212,10.674
1782117409.307824,0.717000,1854917,1000,12,0,1,793.259,-0.222,11.250,434.942,-1.270,10.637
1782117409.308824,0.718000,1854918,1000,12,0,1,790.785,-1.234,11.058,436.792,-0.034,10.539
1782117409.309824,0.719000,1854919,1000,12,0,1,778.774,-11.082,10.873,438.161,0.998,10.122
1782117409.310824,0.720000,1854920,1000,12,0,1,771.184,-17.575,11.084,437.224,-0.331,9.676
1782117409.311824,0.721000,1854921,1000,12,0,1,777.861,-9.506,11.147,439.746,1.120,9.478
1782117409.312824,0.722000,1854922,1000,12,0,1,791.553,4.493,11.124,438.641,0.793,9.406
1782117409.313824,0.723000,1854923,1000,12,0,1,794.195,8.281,11.174,438.041,-0.840,9.333
1782117409.314824,0.724000,1854924,1000,12,0,1,790.256,2.158,11.083,435.807,-1.944,9.329
1782117409.315824,0.725000,1854925,1000,12,0,1,790.616,0.880,10.952,436.047,-2.375,9.334
1782117409.316824,0.726000,1854926,1000,12,0,1,784.395,-4.471,10.895,438.113,0.249,9.330
1782117409.317824,0.727000,1854927,1000,12,0,1,782.858,-8.366,10.941,439.362,1.339,9.329
1782117409.318824,0.728000,1854928,1000,12,0,1,791.193,-0.749,10.930,436.648,-0.905,9.284
1782117409.319824,0.729000,1854929,1000,12,0,1,794.940,2.708,10.936,435.567,-2.626,9.083
1782117409.320824,0.730000,1854930,1000,12,0,1,794.268,0.367,10.877,433.741,-3.582,8.866
1782117409.321824,0.731000,1854931,1000,12,0,1,798.183,2.088,10.723,434.918,-3.141,8.632
1782117409.322824,0.732000,1854932,1000,12,0,1,798.279,2.214,10.679,432.925,-3.688,8.046
1782117409.323824,0.733000,1854933,1000,12,0,1,799.024,0.827,10.649,432.180,-5.205,7.155
1782117409.324824,0.734000,1854934,1000,12,0,1,793.667,-2.725,10.489,434.990,-2.195,6.783
1782117409.325824,0.735000,1854935,1000,12,0,1,791.145,-6.443,10.459,434.558,-1.949,6.615
1782117409.326824,0.736000,1854936,1000,12,0,1,788.358,-6.276,10.495,433.045,-3.855,6.518
1782117409.327824,0.737000,1854937,1000,12,0,1,788.983,-5.535,10.498,434.102,-2.616,6.516
1782117409.328824,0.738000,1854938,1000,12,0,1,792.778,-0.022,10.440,433.573,-2.545,6.523
1782117409.329824,0.739000,1854939,1000,12,0,1,796.429,3.989,10.403,433.069,-2.851,6.519
1782117409.330824,0.740000,1854940,1000,12,0,1,795.613,3.879,10.404,432.877,-2.381,6.513
1782117409.331824,0.741000,1854941,1000,12,0,1,792.274,0.626,10.392,433.213,-1.551,6.488
1782117409.332824,0.742000,1854942,1000,12,0,1,790.064,-1.684,10.373,434.078,-0.166,6.456
1782117409.333824,0.743000,1854943,1000,12,0,1,789.872,-1.602,10.338,432.204,-0.837,6.371
1782117409.334824,0.744000,1854944,1000,12,0,1,791.481,-0.561,10.247,429.994,-2.547,6.252
1782117409.335824,0.745000,1854945,1000,12,0,1,799.024,5.139,10.142,434.390,1.585,6.147
1782117409.336824,0.746000,1854946,1000,12,0,1,795.324,2.590,9.892,433.093,2.455,6.068
1782117409.337824,0.747000,1854947,1000,12,0,1,788.647,-6.358,9.649,434.174,1.780,5.983
1782117409.338824,0.748000,1854948,1000,12,0,1,784.179,-9.874,9.622,435.567,4.354,5.846
1782117409.339824,0.749000,1854949,1000,12,0,1,788.455,-7.044,9.607,435.399,3.193,5.661
1782117409.340824,0.750000,1854950,1000,12,0,1,790.304,-3.179,9.552,435.110,2.778,5.380
1782117409.341824,0.751000,1854951,1000,12,0,1,784.395,-8.309,9.590,432.853,0.469,4.981
1782117409.342824,0.752000,1854952,1000,12,0,1,778.726,-12.712,9.757,433.309,-0.128,4.448
1782117409.343824,0.753000,1854953,1000,12,0,1,777.501,-11.796,9.832,435.447,2.006,3.912
1782117409.344824,0.754000,1854954,1000,12,0,1,776.444,-9.993,9.640,440.563,5.158,3.795
1782117409.345824,0.755000,1854955,1000,12,0,1,780.263,-4.709,9.055,440.755,5.611,3.759
1782117409.346824,0.756000,1854956,1000,12,0,1,791.025,6.492,8.853,433.477,-2.283,3.528
1782117409.347824,0.757000,1854957,1000,12,0,1,789.632,8.186,8.926,430.234,-6.177,3.372
1782117409.348824,0.758000,1854958,1000,12,0,1,785.140,2.311,8.836,432.828,-3.299,3.328
1782117409.349824,0.759000,1854959,1000,12,0,1,784.467,3.007,8.073,437.296,1.117,3.221
1782117409.350824,0.760000,1854960,1000,12,0,1,782.690,1.916,7.030,445.175,7.550,3.234
1782117409.351824,0.761000,1854961,1000,12,0,1,776.997,-1.932,6.393,454.928,15.126,3.811
1782117409.352824,0.762000,1854962,1000,12,0,1,779.999,-0.038,6.021,469.340,24.594,4.959
1782117409.353824,0.763000,1854963,1000,12,0,1,786.461,7.338,6.003,478.900,30.102,6.500
1782117409.354824,0.764000,1854964,1000,12,0,1,786.125,6.828,6.078,476.762,23.131,7.276
1782117409.355824,0.765000,1854965,1000,12,0,1,798.783,14.145,6.382,464.055,7.512,7.352
1782117409.356824,0.766000,1854966,1000,12,0,1,807.527,22.410,7.125,463.335,1.423,7.355
1782117409.357824,0.767000,1854967,1000,12,0,1,812.571,20.635,7.699,465.929,3.956,7.374
1782117409.358824,0.768000,1854968,1000,12,0,1,823.765,26.093,8.536,455.024,-6.493,7.431
1782117409.359824,0.769000,1854969,1000,12,0,1,820.738,19.989,8.854,445.656,-16.573,7.790
1782117409.360824,0.770000,1854970,1000,12,0,1,807.815,2.615,8.506,441.692,-18.066,8.198
1782117409.361824,0.771000,1854971,1000,12,0,1,803.323,-4.765,8.426,439.434,-18.371,8.599
1782117409.362824,0.772000,1854972,1000,12,0,1,799.864,-7.680,8.472,450.195,-8.073,8.674
1782117409.363824,0.773000,1854973,1000,12,0,1,793.235,-13.311,8.600,452.141,-2.570,8.680
1782117409.364824,0.774000,1854974,1000,12,0,1,794.003,-12.290,8.768,453.342,-4.102,8.695
1782117409.365824,0.775000,1854975,1000,12,0,1,799.936,-4.741,8.793,449.787,-5.250,8.721
1782117409.366824,0.776000,1854976,1000,12,0,1,797.919,-4.423,8.792,447.697,-9.171,8.816
1782117409.367824,0.777000,1854977,1000,12,0,1,794.316,-7.519,8.777,454.903,-2.474,8.821
1782117409.368824,0.778000,1854978,1000,12,0,1,795.445,-5.295,8.808,466.241,7.176,8.879
1782117409.369824,0.779000,1854979,1000,12,0,1,797.366,-2.259,8.806,475.225,13.460,9.073
1782117409.370824,0.780000,1854980,1000,12,0,1,794.604,-3.592,8.820,467.154,5.633,9.094
1782117409.371824,0.781000,1854981,1000,12,0,1,804.236,2.955,8.825,442.677,-18.098,9.436
1782117409.372824,0.782000,1854982,1000,12,0,1,823.092,19.665,9.248,412.795,-42.248,11.157
1782117409.373824,0.783000,1854983,1000,12,0,1,818.841,15.536,9.504,395.284,-53.362,13.449
1782117409.374824,0.784000,1854984,1000,12,0,1,808.176,-0.166,9.497,397.206,-42.695,14.739
1782117409.375824,0.785000,1854985,1000,12,0,1,805.509,-4.004,9.470,394.275,-33.948,15.499
1782117409.376824,0.786000,1854986,1000,12,0,1,804.452,-5.972,9.466,385.075,-34.450,16.237
1782117409.377824,0.787000,1854987,1000,12,0,1,817.568,3.100,9.444,375.851,-33.625,16.915
1782117409.378824,0.788000,1854988,1000,12,0,1,823.405,9.777,9.544,378.470,-24.437,17.261
1782117409.379824,0.789000,1854989,1000,12,0,1,813.244,-2.164,9.533,388.198,-7.408,17.288
1782117409.380824,0.790000,1854990,1000,12,0,1,797.919,-16.475,9.798,397.014,5.262,17.301
1782117409.381824,0.791000,1854991,1000,12,0,1,787.278,-25.233,10.427,403.115,13.420,17.403
1782117409.382824,0.792000,1854992,1000,12,0,1,787.109,-22.331,10.892,405.661,16.522,17.559
1782117409.383824,0.793000,1854993,1000,12,0,1,789.247,-15.640,11.112,406.045,16.287,17.709
1782117409.384824,0.794000,1854994,1000,12,0,1,795.348,-7.831,11.167,407.823,16.857,17.865
1782117409.385824,0.795000,1854995,1000,12,0,1,803.059,2.106,11.147,409.504,17.309,18.031
1782117409.386824,0.796000,1854996,1000,12,0,1,801.786,2.690,11.148,411.690,17.722,18.201
1782117409.387824,0.797000,1854997,1000,12,0,1,797.462,-1.240,11.113,414.813,18.878,18.394
1782117409.388824,0.798000,1854998,1000,12,0,1,799.480,0.717,11.025,416.134,18.694,18.573
1782117409.389824,0.799000,1854999,1000,12,0,1,805.413,6.600,11.020,414.981,15.958,18.704
1782117409.390824,0.800000,1855000,1000,12,0,1,805.485,7.004,11.055,415.197,14.597,18.814
1782117409.391824,0.801000,1855001,1000,12,0,1,802.290,2.733,10.999,407.319,8.194,18.849
1782117409.392824,0.802000,1855002,1000,12,0,1,808.368,6.171,10.886,409.841,7.614,18.880
1782117409.393824,0.803000,1855003,1000,12,0,1,813.508,10.809,10.866,412.003,12.456,18.960
1782117409.394824,0.804000,1855004,1000,12,0,1,817.327,11.056,10.886,410.249,9.415,18.992
1782117409.395824,0.805000,1855005,1000,12,0,1,823.717,14.212,11.050,411.258,10.270,19.031
1782117409.396824,0.806000,1855006,1000,12,0,1,821.699,10.471,11.111,413.732,11.918,19.103
1782117409.397824,0.807000,1855007,1000,12,0,1,815.934,1.744,11.053,418.776,14.805,19.198
1782117409.398824,0.808000,1855008,1000,12,0,1,812.307,-2.820,11.056,423.436,17.530,19.351
1782117409.399824,0.809000,1855009,1000,12,0,1,814.997,-1.852,11.051,423.220,14.509,19.459
1782117409.400824,0.810000,1855010,1000,12,0,1,813.580,-1.804,11.050,423.436,11.269,19.495
1782117409.401824,0.811000,1855011,1000,12,0,1,811.827,-4.603,11.066,427.256,11.221,19.442
1782117409.402824,0.812000,1855012,1000,12,0,1,802.627,-10.244,11.161,428.313,9.683,19.178
1782117409.403824,0.813000,1855013,1000,12,0,1,799.384,-13.914,11.285,423.677,2.318,18.702
1782117409.404824,0.814000,1855014,1000,12,0,1,805.437,-5.512,11.271,414.573,-7.693,18.446
1782117409.405824,0.815000,1855015,1000,12,0,1,810.578,0.858,11.092,414.140,-10.517,18.475
1782117409.406824,0.816000,1855016,1000,12,0,1,817.760,6.877,10.674,411.426,-10.741,18.536
1782117409.407824,0.817000,1855017,1000,12,0,1,823.164,11.808,10.403,416.711,-8.081,18.563
1782117409.408824,0.818000,1855018,1000,12,0,1,813.004,2.335,9.732,420.314,-1.893,18.542
1782117409.409824,0.819000,1855019,1000,12,0,1,801.282,-10.280,9.425,427.880,2.442,18.397
1782117409.410824,0.820000,1855020,1000,12,0,1,798.231,-12.408,9.580,428.577,5.074,18.233
1782117409.411824,0.821000,1855021,1000,12,0,1,803.588,-6.568,9.601,424.637,-0.623,18.047
1782117409.412824,0.822000,1855022,1000,12,0,1,810.433,0.736,9.540,423.701,-1.452,18.012
1782117409.413824,0.823000,1855023,1000,12,0,1,807.311,-1.072,9.354,424.709,-0.178,18.008
1782117409.414824,0.824000,1855024,1000,12,0,1,803.059,-6.419,9.235,428.505,2.825,18.003
1782117409.415824,0.825000,1855025,1000,12,0,1,802.435,-6.135,9.252,429.514,4.626,18.000
1782117409.416824,0.826000,1855026,1000,12,0,1,798.687,-8.363,9.306,431.531,4.461,17.964
1782117409.417824,0.827000,1855027,1000,12,0,1,799.864,-7.229,9.302,429.249,3.179,17.966
1782117409.418824,0.828000,1855028,1000,12,0,1,803.251,-2.201,9.277,430.066,1.031,17.938
1782117409.419824,0.829000,1855029,1000,12,0,1,800.153,-3.574,9.285,429.922,1.624,17.839
1782117409.420824,0.830000,1855030,1000,12,0,1,797.847,-5.323,9.301,429.321,-1.138,17.822
1782117409.421824,0.831000,1855031,1000,12,0,1,796.477,-4.484,9.314,426.679,-3.467,17.644
1782117409.422824,0.832000,1855032,1000,12,0,1,793.259,-5.677,8.925,426.031,-5.703,16.621
1782117409.423824,0.833000,1855033,1000,12,0,1,791.313,-5.625,8.687,428.625,-3.645,14.818
1782117409.424824,0.834000,1855034,1000,12,0,1,791.457,-3.406,8.700,427.520,-4.541,13.547
1782117409.425824,0.835000,1855035,1000,12,0,1,791.097,-1.630,8.685,426.391,-6.780,12.704
1782117409.426824,0.836000,1855036,1000,12,0,1,797.030,4.076,8.663,427.832,-5.246,11.756
1782117409.427824,0.837000,1855037,1000,12,0,1,800.225,8.897,8.743,429.201,-4.140,10.767
1782117409.428824,0.838000,1855038,1000,12,0,1,802.795,9.663,8.740,431.916,-1.751,10.201
1782117409.429824,0.839000,1855039,1000,12,0,1,809.449,14.567,8.974,430.474,-2.379,10.152
1782117409.430824,0.840000,1855040,1000,12,0,1,810.313,14.353,8.901,429.778,-3.565,10.137
1782117409.431824,0.841000,1855041,1000,12,0,1,802.194,5.033,8.186,430.883,-1.677,9.961
1782117409.432824,0.842000,1855042,1000,12,0,1,804.885,3.982,7.573,433.093,0.574,9.683
1782117409.433824,0.843000,1855043,1000,12,0,1,806.518,6.433,7.300,431.243,0.098,9.406
1782117409.434824,0.844000,1855044,1000,12,0,1,802.218,0.638,7.216,429.321,-1.846,9.102
1782117409.435824,0.845000,1855045,1000,12,0,1,799.984,-2.205,7.216,424.493,-4.475,8.790
1782117409.436824,0.846000,1855046,1000,12,0,1,797.438,-4.072,7.229,424.589,-4.635,8.450
1782117409.437824,0.847000,1855047,1000,12,0,1,795.204,-6.035,7.277,427.184,-0.371,8.017
1782117409.438824,0.848000,1855048,1000,12,0,1,789.872,-8.855,7.384,426.271,-0.537,7.569
1782117409.439824,0.849000,1855049,1000,12,0,1,792.874,-6.627,7.384,425.862,-1.117,7.227
1782117409.440824,0.850000,1855050,1000,12,0,1,796.549,-0.061,7.317,425.838,-0.679,6.926
1782117409.441824,0.851000,1855051,1000,12,0,1,799.600,2.215,7.314,425.935,-1.081,6.831
1782117409.442824,0.852000,1855052,1000,12,0,1,801.714,5.162,7.298,422.596,-3.457,6.763
1782117409.443824,0.853000,1855053,1000,12,0,1,797.943,1.877,7.141,417.143,-8.672,6.644
1782117409.444824,0.854000,1855054,1000,12,0,1,793.955,-2.116,6.974,411.498,-12.520,6.745
1782117409.445824,0.855000,1855055,1000,12,0,1,783.146,-9.422,6.810,413.083,-10.710,6.759
1782117409.446824,0.856000,1855056,1000,12,0,1,765.683,-23.288,7.418,420.194,-2.384,6.554
1782117409.447824,0.857000,1855057,1000,12,0,1,760.711,-25.157,8.224,424.253,2.301,6.219
1782117409.448824,0.858000,1855058,1000,12,0,1,769.214,-12.763,8.410,431.411,7.523,5.802
1782117409.449824,0.859000,1855059,1000,12,0,1,793.931,10.797,8.543,437.224,12.790,5.721
1782117409.450824,0.860000,1855060,1000,12,0,1,822.059,36.511,9.979,443.710,15.782,5.930
1782117409.451824,0.861000,1855061,1000,12,0,1,839.186,47.243,11.992,452.117,21.225,6.454
1782117409.452824,0.862000,1855062,1000,12,0,1,832.412,35.627,12.926,460.668,25.234,7.247
1782117409.453824,0.863000,1855063,1000,12,0,1,824.774,19.104,13.058,468.595,28.202,8.266
1782117409.454824,0.864000,1855064,1000,12,0,1,829.073,17.831,13.277,464.392,21.239,8.727
1782117409.455824,0.865000,1855065,1000,12,0,1,831.860,16.731,13.485,457.185,9.323,8.700
1782117409.456824,0.866000,1855066,1000,12,0,1,826.335,8.005,13.498,450.676,1.804,8.570
1782117409.457824,0.867000,1855067,1000,12,0,1,816.463,-3.443,13.403,442.653,-6.719,8.546
1782117409.458824,0.868000,1855068,1000,12,0,1,811.370,-9.844,13.471,426.559,-19.366,8.970
1782117409.459824,0.869000,1855069,1000,12,0,1,807.431,-11.782,13.495,419.329,-25.900,9.683
1782117409.460824,0.870000,1855070,1000,12,0,1,816.078,-5.266,13.402,408.087,-29.359,10.511
1782117409.461824,0.871000,1855071,1000,12,0,1,820.930,2.548,13.374,401.265,-33.438,11.526
1782117409.462824,0.872000,1855072,1000,12,0,1,815.574,-3.419,13.382,410.321,-20.518,11.884
1782117409.463824,0.873000,1855073,1000,12,0,1,811.875,-6.991,13.418,414.068,-11.589,11.996
1782117409.464824,0.874000,1855074,1000,12,0,1,814.877,-4.410,13.402,411.906,-12.376,12.116
1782117409.465824,0.875000,1855075,1000,12,0,1,817.472,-1.364,13.375,414.429,-8.446,12.158
1782117409.466824,0.876000,1855076,1000,12,0,1,816.703,-2.439,13.327,414.429,-6.603,12.177
1782117409.467824,0.877000,1855077,1000,12,0,1,811.875,-7.085,13.326,418.296,-3.282,12.178
1782117409.468824,0.878000,1855078,1000,12,0,1,810.842,-8.937,13.382,419.065,-0.722,12.177
1782117409.469824,0.879000,1855079,1000,12,0,1,812.571,-6.949,13.408,418.993,-1.394,12.177
1782117409.470824,0.880000,1855080,1000,12,0,1,813.076,-6.354,13.417,417.455,-1.404,12.177
1782117409.471824,0.881000,1855081,1000,12,0,1,807.671,-10.597,13.486,420.049,0.675,12.168
1782117409.472824,0.882000,1855082,1000,12,0,1,806.230,-12.463,13.577,420.746,3.422,12.151
1782117409.473824,0.883000,1855083,1000,12,0,1,809.833,-7.851,13.599,416.903,0.767,12.140
1782117409.474824,0.884000,1855084,1000,12,0,1,810.722,-5.663,13.614,415.438,0.361,12.123
1782117409.475824,0.885000,1855085,1000,12,0,1,815.718,-1.709,13.614,415.389,2.532,12.091
1782117409.476824,0.886000,1855086,1000,12,0,1,818.048,2.148,13.605,418.464,6.086,12.098
1782117409.477824,0.887000,1855087,1000,12,0,1,816.294,-0.080,13.547,421.515,10.600,12.177
1782117409.478824,0.888000,1855088,1000,12,0,1,817.712,1.246,13.479,420.074,9.571,12.249
1782117409.479824,0.889000,1855089,1000,12,0,1,817.375,1.870,13.323,419.017,8.243,12.300
1782117409.480824,0.890000,1855090,1000,12,0,1,814.085,-0.784,13.168,422.259,10.421,12.378
1782117409.481824,0.891000,1855091,1000,12,0,1,814.421,-0.281,13.149,421.202,9.629,12.450
1782117409.482824,0.892000,1855092,1000,12,0,1,815.382,1.791,13.139,423.268,8.653,12.510
1782117409.483824,0.893000,1855093,1000,12,0,1,815.141,1.886,13.111,425.550,10.091,12.591
1782117409.484824,0.894000,1855094,1000,12,0,1,817.231,3.579,13.120,428.000,9.221,12.656
1782117409.485824,0.895000,1855095,1000,12,0,1,817.544,4.225,13.130,424.469,4.949,12.659
1782117409.486824,0.896000,1855096,1000,12,0,1,817.544,3.077,13.125,423.989,0.807,12.643
1782117409.487824,0.897000,1855097,1000,12,0,1,821.723,5.710,13.122,422.932,-0.387,12.643
1782117409.488824,0.898000,1855098,1000,12,0,1,823.020,6.263,13.092,422.428,-2.876,12.649
1782117409.489824,0.899000,1855099,1000,12,0,1,821.363,2.754,13.064,421.899,-3.425,12.657
1782117409.490824,0.900000,1855100,1000,12,0,1,819.922,0.047,13.064,419.737,-5.498,12.681
1782117409.491824,0.901000,1855101,1000,12,0,1,820.090,-1.140,13.061,419.497,-5.749,12.706
1782117409.492824,0.902000,1855102,1000,12,0,1,820.138,-1.686,13.043,417.695,-5.609,12.721
1782117409.493824,0.903000,1855103,1000,12,0,1,818.192,-3.891,13.052,419.233,-4.200,12.676
1782117409.494824,0.904000,1855104,1000,12,0,1,815.045,-6.814,13.084,418.104,-2.320,12.556
1782117409.495824,0.905000,1855105,1000,12,0,1,813.604,-7.767,13.062,417.143,-3.047,12.472
1782117409.496824,0.906000,1855106,1000,12,0,1,813.796,-6.515,12.674,416.014,-1.615,12.469
1782117409.497824,0.907000,1855107,1000,12,0,1,806.374,-10.598,12.256,416.254,-0.792,12.466
1782117409.498824,0.908000,1855108,1000,12,0,1,804.140,-12.437,12.249,417.647,2.013,12.423
1782117409.499824,0.909000,1855109,1000,12,0,1,804.813,-7.904,12.205,418.584,3.382,12.300
1782117409.500824,0.910000,1855110,1000,12,0,1,817.808,3.357,11.069,413.828,0.091,12.096
1782117409.501824,0.911000,1855111,1000,12,0,1,827.176,15.046,9.079,413.348,-1.432,11.720
1782117409.502824,0.912000,1855112,1000,12,0,1,831.379,16.013,7.884,415.173,1.176,11.164
1782117409.503824,0.913000,1855113,1000,12,0,1,828.593,12.923,7.629,414.092,-0.002,10.428
1782117409.504824,0.914000,1855114,1000,12,0,1,828.185,8.870,7.309,417.912,1.877,9.989
1782117409.505824,0.915000,1855115,1000,12,0,1,828.593,8.401,7.016,419.977,4.059,9.918
1782117409.506824,0.916000,1855116,1000,12,0,1,829.770,7.109,6.997,418.344,0.693,9.916
1782117409.507824,0.917000,1855117,1000,12,0,1,827.320,3.871,7.002,419.281,0.325,9.870
1782117409.508824,0.918000,1855118,1000,12,0,1,823.020,-1.630,6.866,417.335,-1.600,9.485
1782117409.509824,0.919000,1855119,1000,12,0,1,823.405,-2.814,6.672,418.296,-2.180,8.755
1782117409.510824,0.920000,1855120,1000,12,0,1,826.575,0.016,6.631,416.951,-2.185,7.714
1782117409.511824,0.921000,1855121,1000,12,0,1,825.855,-1.229,6.623,416.422,-3.426,6.114
1782117409.512824,0.922000,1855122,1000,12,0,1,825.855,-2.270,6.613,416.422,-1.969,5.388
1782117409.513824,0.923000,1855123,1000,12,0,1,812.908,-11.960,6.754,418.248,-0.129,5.133
1782117409.514824,0.924000,1855124,1000,12,0,1,817.255,-11.570,6.921,421.082,3.527,4.851
1782117409.515824,0.925000,1855125,1000,12,0,1,822.035,-1.937,6.924,419.713,3.257,4.724
1782117409.516824,0.926000,1855126,1000,12,0,1,827.608,0.616,6.916,420.626,3.497,4.657
1782117409.517824,0.927000,1855127,1000,12,0,1,828.809,3.955,6.866,420.938,5.056,4.689
1782117409.518824,0.928000,1855128,1000,12,0,1,829.770,2.557,6.758,419.857,3.557,4.715
1782117409.519824,0.929000,1855129,1000,12,0,1,827.344,1.252,6.689,418.416,2.647,4.726
1782117409.520824,0.930000,1855130,1000,12,0,1,824.149,-2.469,6.637,416.615,0.735,4.723
1782117409.521824,0.931000,1855131,1000,12,0,1,824.534,-2.138,6.473,414.885,-0.743,4.723
1782117409.522824,0.932000,1855132,1000,12,0,1,824.534,-0.925,6.230,418.896,1.827,4.705
1782117409.523824,0.933000,1855133,1000,12,0,1,827.344,0.635,6.131,422.860,5.492,4.767
1782117409.524824,0.934000,1855134,1000,12,0,1,831.043,4.879,6.117,424.061,4.854,4.816
1782117409.525824,0.935000,1855135,1000,12,0,1,829.890,2.989,6.127,422.067,1.744,4.809
1782117409.526824,0.936000,1855136,1000,12,0,1,828.425,0.910,6.121,422.476,-0.098,4.732
1782117409.527824,0.937000,1855137,1000,12,0,1,824.726,-2.574,6.132,421.467,-1.363,4.492
1782117409.528824,0.938000,1855138,1000,12,0,1,821.915,-5.516,6.179,420.506,-3.604,4.314
1782117409.529824,0.939000,1855139,1000,12,0,1,819.826,-6.681,6.245,421.683,-2.862,4.173
1782117409.530824,0.940000,1855140,1000,12,0,1,819.874,-6.324,6.308,421.875,-2.508,3.920
1782117409.531824,0.941000,1855141,1000,12,0,1,827.344,0.256,6.308,420.266,-3.885,3.717
1782117409.532824,0.942000,1855142,1000,12,0,1,832.100,5.522,6.351,418.488,-4.812,3.575
1782117409.533824,0.943000,1855143,1000,12,0,1,829.386,2.058,6.352,418.993,-3.742,3.320
1782117409.534824,0.944000,1855144,1000,12,0,1,827.632,-0.783,6.333,421.058,-0.541,3.054
1782117409.535824,0.945000,1855145,1000,12,0,1,827.128,-1.261,6.307,420.914,0.446,2.974
1782117409.536824,0.946000,1855146,1000,12,0,1,824.005,-3.759,6.314,422.548,2.108,2.986
1782117409.537824,0.947000,1855147,1000,12,0,1,824.173,-3.889,6.286,424.709,4.818,3.063
1782117409.538824,0.948000,1855148,1000,12,0,1,826.335,-0.870,6.225,423.436,3.891,3.085
1782117409.539824,0.949000,1855149,1000,12,0,1,825.903,-0.639,6.213,418.176,-0.722,3.048
1782117409.540824,0.950000,1855150,1000,12,0,1,828.425,1.245,6.216,418.056,-1.633,2.956
1782117409.541824,0.951000,1855151,1000,12,0,1,827.464,1.703,6.219,416.615,-1.432,2.850
1782117409.542824,0.952000,1855152,1000,12,0,1,822.564,-3.000,6.228,417.023,-2.096,2.753
1782117409.543824,0.953000,1855153,1000,12,0,1,822.684,-2.841,6.217,416.038,-1.922,2.702
1782117409.544824,0.954000,1855154,1000,12,0,1,822.876,-1.227,6.144,415.389,-3.459,2.726
1782117409.545824,0.955000,1855155,1000,12,0,1,832.605,5.889,6.102,416.470,-2.364,2.713
1782117409.546824,0.956000,1855156,1000,12,0,1,844.014,16.739,6.480,418.392,-1.051,2.707
1782117409.547824,0.957000,1855157,1000,12,0,1,841.997,13.244,6.577,420.386,0.237,2.705
1782117409.548824,0.958000,1855158,1000,12,0,1,837.265,5.391,6.383,419.545,-0.635,2.691
1782117409.549824,0.959000,1855159,1000,12,0,1,836.352,2.867,6.298,422.091,0.120,2.649
1782117409.550824,0.960000,1855160,1000,12,0,1,834.190,-0.058,6.280,422.187,1.176,2.654
1782117409.551824,0.961000,1855161,1000,12,0,1,830.371,-4.199,5.938,422.139,-0.210,2.646
1782117409.552824,0.962000,1855162,1000,12,0,1,829.842,-5.329,5.541,422.259,0.706,2.643
1782117409.553824,0.963000,1855163,1000,12,0,1,829.746,-4.625,5.271,422.740,0.848,2.646
1782117409.554824,0.964000,1855164,1000,12,0,1,826.936,-6.690,5.207,420.746,0.176,2.632
1782117409.555824,0.965000,1855165,1000,12,0,1,820.858,-10.939,5.300,418.368,-1.740,2.581
1782117409.556824,0.966000,1855166,1000,12,0,1,815.694,-14.340,5.585,415.774,-2.693,2.607
1782117409.557824,0.967000,1855167,1000,12,0,1,817.087,-11.278,5.782,410.105,-6.048,2.743
1782117409.558824,0.968000,1855168,1000,12,0,1,818.144,-7.260,5.868,404.292,-9.730,3.061
1782117409.559824,0.969000,1855169,1000,12,0,1,819.970,-4.559,5.890,406.526,-6.174,3.168
1782117409.560824,0.970000,1855170,1000,12,0,1,815.334,-5.745,5.946,409.649,-0.727,3.154
1782117409.561824,0.971000,1855171,1000,12,0,1,805.029,-13.731,6.253,408.231,-0.882,3.120
1782117409.562824,0.972000,1855172,1000,12,0,1,810.121,-8.652,6.363,409.697,0.117,3.107
1782117409.563824,0.973000,1855173,1000,12,0,1,822.684,5.943,6.192,415.173,5.183,3.192
1782117409.564824,0.974000,1855174,1000,12,0,1,828.905,11.890,6.204,417.311,6.670,3.291
1782117409.565824,0.975000,1855175,1000,12,0,1,828.737,10.860,6.385,415.462,3.636,3.299
1782117409.566824,0.976000,1855176,1000,12,0,1,832.989,11.852,6.601,415.990,2.229,3.277
1782117409.567824,0.977000,1855177,1000,12,0,1,840.291,16.951,7.000,415.846,1.688,3.207
1782117409.568824,0.978000,1855178,1000,12,0,1,848.002,20.595,7.574,417.311,1.367,3.173
1782117409.569824,0.979000,1855179,1000,12,0,1,843.342,14.796,7.855,417.263,1.438,3.158
1782117409.570824,0.980000,1855180,1000,12,0,1,832.172,0.918,7.849,418.152,0.972,3.159
1782117409.571824,0.981000,1855181,1000,12,0,1,818.528,-11.389,8.006,422.884,4.882,3.232
1782117409.572824,0.982000,1855182,1000,12,0,1,827.728,-5.884,8.049,425.862,7.457,3.390
1782117409.573824,0.983000,1855183,1000,12,0,1,860.084,23.726,8.719,422.404,4.037,3.348
1782117409.574824,0.984000,1855184,1000,12,0,1,874.425,36.504,10.110,417.239,-1.074,3.281
1782117409.575824,0.985000,1855185,1000,12,0,1,862.246,19.782,10.481,420.458,1.300,3.277
1782117409.576824,0.986000,1855186,1000,12,0,1,852.350,4.722,10.501,419.401,2.769,3.300
1782117409.577824,0.987000,1855187,1000,12,0,1,849.923,0.332,10.495,419.593,1.540,3.302
1782117409.578824,0.988000,1855188,1000,12,0,1,847.930,-2.482,10.472,414.861,-0.306,3.262
1782117409.579824,0.989000,1855189,1000,12,0,1,845.023,-5.848,10.462,410.297,-5.424,3.327
1782117409.580824,0.990000,1855190,1000,12,0,1,846.561,-5.237,10.450,417.792,1.499,3.315
1782117409.581824,0.991000,1855191,1000,12,0,1,846.152,-4.898,10.473,419.881,5.286,3.353
1782117409.582824,0.992000,1855192,1000,12,0,1,845.504,-6.310,10.482,416.254,0.152,3.283
1782117409.583824,0.993000,1855193,1000,12,0,1,844.279,-6.985,10.524,416.374,-0.509,3.241
1782117409.584824,0.994000,1855194,1000,12,0,1,839.859,-10.644,10.631,417.335,-0.341,3.241
1782117409.585824,0.995000,1855195,1000,12,0,1,833.902,-15.346,10.849,419.257,0.330,3.240
1782117409.586824,0.996000,1855196,1000,12,0,1,831.524,-16.412,11.081,419.137,-0.401,3.227
1782117409.587824,0.997000,1855197,1000,12,0,1,834.286,-12.390,11.206,420.314,-0.958,3.157
1782117409.588824,0.998000,1855198,1000,12,0,1,843.558,-3.204,11.214,419.857,-1.459,3.116
1782117409.589824,0.999000,1855199,1000,12,0,1,845.912,0.647,11.214,419.953,-2.579,3.135
1782117409.590824,1.000000,1855200,1000,12,0,1,839.667,-5.539,11.240,417.503,-4.044,3.179
1782117409.591824,1.001000,1855201,1000,12,0,1,833.709,-10.826,11.341,420.025,-2.826,3.197
1782117409.592824,1.002000,1855202,1000,12,0,1,835.079,-8.970,11.404,421.707,0.487,3.184
1782117409.593824,1.003000,1855203,1000,12,0,1,836.592,-5.332,11.422,420.001,-1.043,3.176
1782117409.594824,1.004000,1855204,1000,12,0,1,835.055,-5.520,11.447,422.476,1.223,3.143
1782117409.595824,1.005000,1855205,1000,12,0,1,834.694,-4.835,11.437,424.109,4.031,3.177
1782117409.596824,1.006000,1855206,1000,12,0,1,838.970,-0.033,11.190,424.854,4.240,3.229
1782117409.597824,1.007000,1855207,1000,12,0,1,843.534,5.111,11.056,421.779,2.537,3.249
1782117409.598824,1.008000,1855208,1000,12,0,1,841.588,4.110,11.045,421.419,1.027,3.251
1782117409.599824,1.009000,1855209,1000,12,0,1,836.496,-0.846,11.038,424.421,4.420,3.311
1782117409.600824,1.010000,1855210,1000,12,0,1,833.085,-3.306,11.048,422.476,2.751,3.329
1782117409.601824,1.011000,1855211,1000,12,0,1,828.929,-5.648,11.061,422.067,0.947,3.332
1782117409.602824,1.012000,1855212,1000,12,0,1,826.239,-6.915,11.078,423.220,1.873,3.341
1782117409.603824,1.013000,1855213,1000,12,0,1,820.714,-9.246,11.136,426.583,3.253,3.370
1782117409.604824,1.014000,1855214,1000,12,0,1,812.956,-14.247,11.277,427.232,3.387,3.404
1782117409.605824,1.015000,1855215,1000,12,0,1,812.211,-12.847,11.317,427.832,1.481,3.402
1782117409.606824,1.016000,1855216,1000,12,0,1,821.603,-2.162,11.138,426.511,-0.383,3.381
1782117409.607824,1.017000,1855217,1000,12,0,1,840.724,15.313,11.234,428.481,-0.960,3.273
1782117409.608824,1.018000,1855218,1000,12,0,1,851.701,25.417,11.750,431.796,1.600,2.979
1782117409.609824,1.019000,1855219,1000,12,0,1,847.137,17.956,12.004,434.078,2.191,2.865
1782117409.610824,1.020000,1855220,1000,12,0,1,844.591,11.016,12.078,433.645,1.003,2.866
1782117409.611824,1.021000,1855221,1000,12,0,1,840.651,6.432,11.955,429.177,-3.482,2.906
1782117409.612824,1.022000,1855222,1000,12,0,1,835.943,-0.083,11.892,431.363,-2.904,2.935
1782117409.613824,1.023000,1855223,1000,12,0,1,840.219,2.598,11.868,431.243,-0.885,2.844
1782117409.614824,1.024000,1855224,1000,12,0,1,845.408,7.585,11.798,427.064,-4.959,2.773
1782117409.615824,1.025000,1855225,1000,12,0,1,846.440,7.463,11.745,426.439,-4.583,2.801
1782117409.616824,1.026000,1855226,1000,12,0,1,845.960,5.969,11.655,426.031,-3.394,2.825
1782117409.617824,1.027000,1855227,1000,12,0,1,842.213,2.172,11.410,430.018,0.374,2.815
1782117409.618824,1.028000,1855228,1000,12,0,1,838.418,-1.839,11.035,433.165,4.644,2.884
1782117409.619824,1.029000,1855229,1000,12,0,1,834.430,-4.593,10.854,439.554,8.628,3.125
1782117409.620824,1.030000,1855230,1000,12,0,1,832.364,-5.954,10.886,446.520,14.290,3.719
1782117409.621824,1.031000,1855231,1000,12,0,1,832.556,-4.475,10.785,452.429,16.319,4.322
1782117409.622824,1.032000,1855232,1000,12,0,1,830.731,-4.740,10.774,452.862,14.120,4.643
1782117409.623824,1.033000,1855233,1000,12,0,1,830.707,-4.522,10.258,455.768,11.638,4.893
1782117409.624824,1.034000,1855234,1000,12,0,1,828.809,-4.644,8.888,448.082,3.680,4.918
1782117409.625824,1.035000,1855235,1000,12,0,1,825.615,-7.346,8.500,441.236,-7.259,5.021
1782117409.626824,1.036000,1855236,1000,12,0,1,831.692,-2.216,8.480,431.724,-14.568,5.413
1782117409.627824,1.037000,1855237,1000,12,0,1,853.214,15.686,8.765,406.310,-35.152,7.346
1782117409.628824,1.038000,1855238,1000,12,0,1,861.934,23.824,9.384,397.878,-42.320,9.475
1782117409.629824,1.039000,1855239,1000,12,0,1,849.203,8.198,9.419,406.334,-27.006,10.187
1782117409.630824,1.040000,1855240,1000,12,0,1,844.951,-0.866,9.390,410.633,-17.767,10.490
1782117409.631824,1.041000,1855241,1000,12,0,1,842.333,-2.380,9.371,410.826,-13.425,10.635
1782117409.632824,1.042000,1855242,1000,12,0,1,837.481,-8.128,9.399,410.970,-10.270,10.733
1782117409.633824,1.043000,1855243,1000,12,0,1,831.740,-11.628,9.490,415.918,-3.447,10.744
1782117409.634824,1.044000,1855244,1000,12,0,1,829.866,-12.613,9.538,420.722,3.470,10.755
1782117409.635824,1.045000,1855245,1000,12,0,1,826.383,-12.135,9.446,425.334,8.004,10.815
1782117409.636824,1.046000,1855246,1000,12,0,1,825.783,-11.159,9.291,427.688,10.742,10.921
1782117409.637824,1.047000,1855247,1000,12,0,1,826.984,-6.649,9.173,426.223,8.826,10.991
1782117409.638824,1.048000,1855248,1000,12,0,1,829.746,-2.397,9.168,430.547,10.969,11.098
1782117409.639824,1.049000,1855249,1000,12,0,1,833.133,2.381,9.173,433.165,13.496,11.255
1782117409.640824,1.050000,1855250,1000,12,0,1,837.697,6.898,9.192,422.740,3.621,11.252
1782117409.641824,1.051000,1855251,1000,12,0,1,840.099,9.071,9.154,412.411,-7.126,11.290
1782117409.642824,1.052000,1855252,1000,12,0,1,835.439,4.688,9.090,413.900,-5.317,11.315
1782117409.643824,1.053000,1855253,1000,12,0,1,837.937,4.106,9.077,414.453,-2.188,11.318
1782117409.644824,1.054000,1855254,1000,12,0,1,841.997,8.360,9.120,413.756,-2.592,11.323
1782117409.645824,1.055000,1855255,1000,12,0,1,844.495,8.016,9.165,411.834,-2.713,11.315
1782117409.646824,1.056000,1855256,1000,12,0,1,846.657,8.473,9.243,406.694,-6.305,11.334
1782117409.647824,1.057000,1855257,1000,12,0,1,844.591,4.694,9.238,405.733,-6.462,11.365
1782117409.648824,1.058000,1855258,1000,12,0,1,843.150,1.091,9.221,404.532,-5.018,11.386
1782117409.649824,1.059000,1855259,1000,12,0,1,841.516,-0.989,9.222,402.010,-6.137,11.402
1782117409.650824,1.060000,1855260,1000,12,0,1,837.745,-5.039,9.237,406.045,-1.542,11.398
1782117409.651824,1.061000,1855261,1000,12,0,1,833.782,-8.255,9.277,411.546,5.015,11.419
1782117409.652824,1.062000,1855262,1000,12,0,1,833.445,-8.066,9.295,413.372,6.913,11.458
1782117409.653824,1.063000,1855263,1000,12,0,1,832.076,-7.111,9.257,412.027,5.516,11.475
1782117409.654824,1.064000,1855264,1000,12,0,1,832.581,-5.937,9.074,410.850,3.922,11.478
1782117409.655824,1.065000,1855265,1000,12,0,1,832.340,-3.791,8.907,408.664,2.311,11.481
1782117409.656824,1.066000,1855266,1000,12,0,1,832.148,-3.113,8.913,407.367,1.041,11.482
1782117409.657824,1.067000,1855267,1000,12,0,1,830.899,-2.392,8.652,411.882,4.981,11.503
1782117409.658824,1.068000,1855268,1000,12,0,1,828.617,-3.379,7.885,415.462,8.924,11.569
1782117409.659824,1.069000,1855269,1000,12,0,1,828.233,-2.688,7.474,417.623,9.660,11.646
1782117409.660824,1.070000,1855270,1000,12,0,1,828.233,-1.292,7.312,420.818,11.489,11.758
1782117409.661824,1.071000,1855271,1000,12,0,1,828.497,-0.551,7.256,424.421,13.062,11.892
1782117409.662824,1.072000,1855272,1000,12,0,1,827.416,-0.581,7.256,423.316,10.855,11.983
1782117409.663824,1.073000,1855273,1000,12,0,1,825.110,-2.523,7.256,421.827,7.007,12.024
1782117409.664824,1.074000,1855274,1000,12,0,1,822.540,-4.179,7.200,422.235,6.062,12.034
1782117409.665824,1.075000,1855275,1000,12,0,1,813.892,-10.313,7.270,425.382,7.103,12.058
1782117409.666824,1.076000,1855276,1000,12,0,1,802.314,-19.213,7.715,428.313,8.467,12.108
1782117409.667824,1.077000,1855277,1000,12,0,1,801.185,-18.315,8.133,428.385,6.761,12.146
1782117409.668824,1.078000,1855278,1000,12,0,1,820.354,0.597,8.129,418.104,-2.913,12.135
1782117409.669824,1.079000,1855279,1000,12,0,1,829.410,13.079,8.312,408.736,-13.026,12.213
1782117409.670824,1.080000,1855280,1000,12,0,1,823.717,6.168,8.315,414.861,-7.631,12.093
1782117409.671824,1.081000,1855281,1000,12,0,1,830.947,9.854,8.407,414.236,-4.599,11.888
1782117409.672824,1.082000,1855282,1000,12,0,1,848.434,24.857,9.087,409.913,-9.610,11.798
1782117409.673824,1.083000,1855283,1000,12,0,1,854.103,28.218,9.904,405.685,-11.074,11.787
1782117409.674824,1.084000,1855284,1000,12,0,1,845.071,16.511,10.155,410.970,-6.894,11.816
1782117409.675824,1.085000,1855285,1000,12,0,1,830.683,0.773,10.102,418.008,2.056,11.775
1782117409.676824,1.086000,1855286,1000,12,0,1,826.167,-4.923,10.121,418.704,2.514,11.599
1782117409.677824,1.087000,1855287,1000,12,0,1,833.878,2.606,9.882,416.783,0.318,10.480
1782117409.678824,1.088000,1855288,1000,12,0,1,831.163,2.877,9.299,416.398,-0.409,8.602
1782117409.679824,1.089000,1855289,1000,12,0,1,820.450,-7.463,9.286,417.095,0.085,7.708
1782117409.680824,1.090000,1855290,1000,12,0,1,815.286,-10.989,9.415,416.951,0.261,7.287
1782117409.681824,1.091000,1855291,1000,12,0,1,815.117,-9.094,9.496,414.212,-2.149,7.042
1782117409.682824,1.092000,1855292,1000,12,0,1,810.481,-10.249,9.537,413.420,-2.831,6.902
1782117409.683824,1.093000,1855293,1000,12,0,1,804.236,-14.296,9.609,409.673,-4.800,6.918
1782117409.684824,1.094000,1855294,1000,12,0,1,800.153,-15.354,9.689,407.727,-6.386,6.960
1782117409.685824,1.095000,1855295,1000,12,0,1,802.795,-11.114,9.664,407.439,-4.871,6.902
1782117409.686824,1.096000,1855296,1000,12,0,1,797.270,-11.761,9.679,414.933,1.647,6.736
1782117409.687824,1.097000,1855297,1000,12,0,1,789.391,-17.905,9.960,421.515,9.037,6.742
1782117409.688824,1.098000,1855298,1000,12,0,1,800.825,-6.739,10.000,425.887,11.207,6.750
1782117409.689824,1.099000,1855299,1000,12,0,1,834.935,24.036,10.556,426.415,10.707,6.649
1782117409.690824,1.100000,1855300,1000,12,0,1,860.444,46.269,12.382,427.664,9.107,6.753
1782117409.691824,1.101000,1855301,1000,12,0,1,857.778,38.422,13.460,429.898,9.488,6.811
1782117409.692824,1.102000,1855302,1000,12,0,1,850.788,23.121,13.836,431.315,8.750,6.882
1782117409.693824,1.103000,1855303,1000,12,0,1,841.228,11.443,13.918,432.997,7.950,6.966
1782117409.694824,1.104000,1855304,1000,12,0,1,830.130,-2.158,13.871,431.195,5.117,6.994
1782117409.695824,1.105000,1855305,1000,12,0,1,826.864,-5.573,13.847,430.571,1.969,6.989
1782117409.696824,1.106000,1855306,1000,12,0,1,826.311,-4.631,13.811,434.126,4.097,6.956
1782117409.697824,1.107000,1855307,1000,12,0,1,828.161,-2.092,13.798,438.233,6.291,6.953
1782117409.698824,1.108000,1855308,1000,12,0,1,835.391,5.194,13.817,434.510,2.449,6.925
1782117409.699824,1.109000,1855309,1000,12,0,1,842.789,12.122,13.922,433.093,-1.623,6.875
1782117409.700824,1.110000,1855310,1000,12,0,1,840.964,10.279,13.980,434.726,-0.102,6.871
1782117409.701824,1.111000,1855311,1000,12,0,1,834.094,2.118,13.934,436.792,0.612,6.835
1782117409.702824,1.112000,1855312,1000,12,0,1,830.010,-2.591,13.892,436.624,0.175,6.765
1782117409.703824,1.113000,1855313,1000,12,0,1,831.355,-2.187,13.859,433.045,-3.697,6.740
1782117409.704824,1.114000,1855314,1000,12,0,1,837.505,2.487,13.838,431.243,-6.089,6.772
1782117409.705824,1.115000,1855315,1000,12,0,1,839.595,3.651,13.837,430.763,-5.948,6.816
1782117409.706824,1.116000,1855316,1000,12,0,1,835.631,-2.027,13.833,432.853,-4.439,6.844
1782117409.707824,1.117000,1855317,1000,12,0,1,825.879,-11.702,13.928,436.744,-0.599,6.808
1782117409.708824,1.118000,1855318,1000,12,0,1,817.231,-20.274,14.212,446.040,6.074,6.745
1782117409.709824,1.119000,1855319,1000,12,0,1,816.030,-20.282,14.493,452.213,11.189,6.792
1782117409.710824,1.120000,1855320,1000,12,0,1,814.949,-18.396,14.724,461.653,15.138,6.933
1782117409.711824,1.121000,1855321,1000,12,0,1,813.580,-17.703,14.935,476.186,24.672,7.539
1782117409.712824,1.122000,1855322,1000,12,0,1,811.058,-16.685,15.120,488.196,30.089,8.520
1782117409.713824,1.123000,1855323,1000,12,0,1,813.796,-12.384,15.217,490.694,26.435,9.251
1782117409.714824,1.124000,1855324,1000,12,0,1,814.541,-7.429,15.242,488.701,17.586,9.541
1782117409.715824,1.125000,1855325,1000,12,0,1,820.210,-1.633,15.173,484.905,8.918,9.571
1782117409.716824,1.126000,1855326,1000,12,0,1,830.947,10.331,15.000,472.030,-5.341,9.526
1782117409.717824,1.127000,1855327,1000,12,0,1,838.778,17.619,14.983,454.255,-23.196,10.030
1782117409.718824,1.128000,1855328,1000,12,0,1,853.262,27.607,15.483,426.727,-44.042,11.799
1782117409.719824,1.129000,1855329,1000,12,0,1,870.653,40.569,16.408,396.269,-66.286,14.957
1782117409.720824,1.130000,1855330,1000,12,0,1,865.969,33.182,17.043,391.969,-62.934,17.371
1782117409.721824,1.131000,1855331,1000,12,0,1,840.820,5.594,17.005,402.370,-41.402,18.320
1782117409.722824,1.132000,1855332,1000,12,0,1,815.550,-19.620,16.867,415.293,-22.140,18.535
1782117409.723824,1.133000,1855333,1000,12,0,1,804.885,-28.037,16.861,423.773,-8.089,18.505
1782117409.724824,1.134000,1855334,1000,12,0,1,807.239,-21.983,16.986,425.670,-3.721,18.486
1782117409.725824,1.135000,1855335,1000,12,0,1,812.091,-13.396,17.091,425.550,-2.390,18.487
1782117409.726824,1.136000,1855336,1000,12,0,1,811.683,-10.797,17.145,429.634,1.516,18.485
1782117409.727824,1.137000,1855337,1000,12,0,1,815.478,-6.923,17.169,432.732,5.066,18.499
1782117409.728824,1.138000,1855338,1000,12,0,1,818.048,-2.525,17.167,430.619,2.933,18.503
1782117409.729824,1.139000,1855339,1000,12,0,1,808.007,-10.224,17.196,433.669,3.950,18.512
1782117409.730824,1.140000,1855340,1000,12,0,1,802.507,-15.899,17.272,434.342,5.662,18.529
1782117409.731824,1.141000,1855341,1000,12,0,1,815.958,-2.951,17.230,427.760,-0.778,18.527
1782117409.732824,1.142000,1855342,1000,12,0,1,829.386,11.230,17.242,423.677,-4.274,18.532
1782117409.733824,1.143000,1855343,1000,12,0,1,843.390,20.813,17.374,420.890,-4.678,18.532
1782117409.734824,1.144000,1855344,1000,12,0,1,840.507,18.439,17.434,419.617,-3.982,18.518
1782117409.735824,1.145000,1855345,1000,12,0,1,836.712,9.027,17.410,420.074,-0.889,18.506
1782117409.736824,1.146000,1855346,1000,12,0,1,838.850,10.385,17.392,415.149,-2.081,18.507
1782117409.737824,1.147000,1855347,1000,12,0,1,838.922,9.037,17.254,411.786,-3.411,18.469
1782117409.738824,1.148000,1855348,1000,12,0,1,834.382,4.496,17.240,414.741,1.975,18.403
1782117409.739824,1.149000,1855349,1000,12,0,1,830.467,0.492,16.901,415.029,5.146,18.355
1782117409.740824,1.150000,1855350,1000,12,0,1,828.929,-0.409,15.584,415.173,5.942,18.329
1782117409.741824,1.151000,1855351,1000,12,0,1,826.407,-1.158,14.606,417.792,9.178,18.326
1782117409.742824,1.152000,1855352,1000,12,0,1,826.695,-0.853,14.236,428.961,17.625,18.453
1782117409.743824,1.153000,1855353,1000,12,0,1,825.590,0.093,14.144,439.122,25.991,18.782
1782117409.744824,1.154000,1855354,1000,12,0,1,828.065,1.236,14.142,443.205,25.478,19.111
1782117409.745824,1.155000,1855355,1000,12,0,1,829.266,3.530,14.129,447.793,24.406,19.418
1782117409.746824,1.156000,1855356,1000,12,0,1,829.170,1.714,14.115,452.573,23.704,19.697
1782117409.747824,1.157000,1855357,1000,12,0,1,829.650,1.434,14.114,454.687,20.214,19.883
1782117409.748824,1.158000,1855358,1000,12,0,1,830.347,0.472,14.095,451.012,12.448,19.958
1782117409.749824,1.159000,1855359,1000,12,0,1,839.330,5.737,14.014,438.137,-2.366,19.960
1782117409.750824,1.160000,1855360,1000,12,0,1,843.462,8.928,13.995,421.178,-19.022,20.140
1782117409.751824,1.161000,1855361,1000,12,0,1,842.309,3.906,14.003,407.126,-30.169,20.587
1782117409.752824,1.162000,1855362,1000,12,0,1,838.081,-1.416,14.000,403.091,-30.318,21.028
1782117409.753824,1.163000,1855363,1000,12,0,1,830.443,-9.752,14.064,409.769,-19.482,21.202
1782117409.754824,1.164000,1855364,1000,12,0,1,825.326,-14.337,14.205,415.846,-8.795,21.221
1782117409.755824,1.165000,1855365,1000,12,0,1,827.296,-11.472,14.288,419.185,-3.153,21.209
1782117409.756824,1.166000,1855366,1000,12,0,1,829.602,-6.857,14.318,420.242,0.200,21.199
1782117409.757824,1.167000,1855367,1000,12,0,1,826.936,-7.114,14.258,424.469,4.388,21.208
1782117409.758824,1.168000,1855368,1000,12,0,1,830.106,-3.694,13.976,422.788,4.993,21.203
1782117409.759824,1.169000,1855369,1000,12,0,1,829.602,-0.529,13.679,422.812,3.459,21.149
1782117409.760824,1.170000,1855370,1000,12,0,1,816.150,-10.501,13.511,427.376,7.923,21.070
1782117409.761824,1.171000,1855371,1000,12,0,1,814.133,-12.011,13.385,427.784,7.868,20.809
1782117409.762824,1.172000,1855372,1000,12,0,1,828.257,3.675,13.186,425.022,3.851,20.377
1782117409.763824,1.173000,1855373,1000,12,0,1,830.563,9.090,13.132,425.238,2.592,20.034
1782117409.764824,1.174000,1855374,1000,12,0,1,825.470,2.869,13.096,425.070,1.765,19.881
1782117409.765824,1.175000,1855375,1000,12,0,1,818.168,-2.959,13.101,424.301,-0.031,19.841
1782117409.766824,1.176000,1855376,1000,12,0,1,821.339,-2.026,13.022,424.181,-0.971,19.827
1782117409.767824,1.177000,1855377,1000,12,0,1,836.376,11.476,12.884,420.986,-3.704,19.561
1782117409.768824,1.178000,1855378,1000,12,0,1,844.158,17.625,12.529,418.680,-6.402,18.565
1782117409.769824,1.179000,1855379,1000,12,0,1,837.000,8.240,11.199,422.307,-2.779,16.029
1782117409.770824,1.180000,1855380,1000,12,0,1,831.884,-0.496,10.169,426.535,1.839,13.333
1782117409.771824,1.181000,1855381,1000,12,0,1,835.991,1.297,10.139,430.835,5.362,12.003
1782117409.772824,1.182000,1855382,1000,12,0,1,834.550,0.266,9.753,433.261,7.469,11.636
1782117409.773824,1.183000,1855383,1000,12,0,1,831.836,-4.277,8.931,435.014,7.916,11.633
1782117409.774824,1.184000,1855384,1000,12,0,1,832.148,-3.539,8.387,439.410,10.671,11.719
1782117409.775824,1.185000,1855385,1000,12,0,1,840.868,3.153,8.182,440.323,10.958,11.816
1782117409.776824,1.186000,1855386,1000,12,0,1,850.092,12.298,8.225,438.425,7.424,11.861
1782117409.777824,1.187000,1855387,1000,12,0,1,852.229,12.886,8.367,437.513,5.429,11.864
1782117409.778824,1.188000,1855388,1000,12,0,1,844.855,5.522,8.396,433.213,1.262,11.858
1782117409.779824,1.189000,1855389,1000,12,0,1,833.229,-5.688,8.309,423.653,-7.358,11.890
1782117409.780824,1.190000,1855390,1000,12,0,1,818.408,-17.038,8.354,423.773,-8.267,11.921
1782117409.781824,1.191000,1855391,1000,12,0,1,810.361,-22.170,8.914,426.511,-3.504,11.931
1782117409.782824,1.192000,1855392,1000,12,0,1,799.840,-25.329,9.474,428.649,-2.065,11.919
1782117409.783824,1.193000,1855393,1000,12,0,1,780.984,-36.534,10.382,439.314,6.234,11.933
1782117409.784824,1.194000,1855394,1000,12,0,1,798.063,-20.331,10.453,443.133,9.918,12.002
1782117409.785824,1.195000,1855395,1000,12,0,1,858.979,37.363,11.643,431.267,-2.682,12.008
1782117409.786824,1.196000,1855396,1000,12,0,1,880.982,60.356,14.361,423.220,-12.396,12.131
1782117409.787824,1.197000,1855397,1000,12,0,1,851.629,24.524,14.719,425.694,-9.787,12.200
1782117409.788824,1.198000,1855398,1000,12,0,1,828.449,-5.667,14.727,430.090,-4.721,12.215
1782117409.789824,1.199000,1855399,1000,12,0,1,839.811,0.175,14.727,439.122,2.592,12.199
1782117409.790824,1.200000,1855400,1000,12,0,1,848.963,9.958,14.794,454.159,15.004,12.354
1782117409.791824,1.201000,1855401,1000,12,0,1,849.515,6.209,14.819,472.270,28.015,12.909
1782117409.792824,1.202000,1855402,1000,12,0,1,849.995,4.364,14.831,484.641,34.950,13.596
1782117409.793824,1.203000,1855403,1000,12,0,1,846.945,0.033,14.831,497.492,38.527,14.178
1782117409.794824,1.204000,1855404,1000,12,0,1,845.960,-2.740,14.835,509.502,42.302,14.961
1782117409.795824,1.205000,1855405,1000,12,0,1,848.098,-0.520,14.827,516.709,40.029,15.619
1782117409.796824,1.206000,1855406,1000,12,0,1,842.285,-4.600,14.839,517.237,32.292,15.924
1782117409.797824,1.207000,1855407,1000,12,0,1,846.921,-2.003,14.841,492.568,5.647,15.686
1782117409.798824,1.208000,1855408,1000,12,0,1,859.604,11.063,14.923,444.094,-40.792,16.620
1782117409.799824,1.209000,1855409,1000,12,0,1,875.457,23.274,15.260,397.662,-79.366,20.052
1782117409.800824,1.210000,1855410,1000,12,0,1,873.632,21.522,15.509,369.342,-94.579,23.953
1782117409.801824,1.211000,1855411,1000,12,0,1,855.640,1.388,15.501,375.875,-76.626,25.942
1782117409.802824,1.212000,1855412,1000,12,0,1,835.271,-17.888,15.704,398.839,-40.892,26.231
1782117409.803824,1.213000,1855413,1000,12,0,1,819.345,-30.523,16.228,413.059,-18.446,26.216
1782117409.804824,1.214000,1855414,1000,12,0,1,800.537,-41.983,17.161,429.898,-0.599,26.186
1782117409.805824,1.215000,1855415,1000,12,0,1,806.926,-34.308,17.760,435.471,8.224,26.208
1782117409.806824,1.216000,1855416,1000,12,0,1,823.116,-11.853,17.812,427.352,-0.779,26.209
1782117409.807824,1.217000,1855417,1000,12,0,1,839.114,3.145,17.789,414.092,-12.379,26.260
1782117409.808824,1.218000,1855418,1000,12,0,1,848.506,12.191,17.865,400.809,-23.264,26.455
1782117409.809824,1.219000,1855419,1000,12,0,1,845.960,7.606,17.897,398.191,-23.253,26.655
1782117409.810824,1.220000,1855420,1000,12,0,1,836.232,-3.713,17.843,409.168,-9.753,26.667
1782117409.811824,1.221000,1855421,1000,12,0,1,831.355,-9.647,17.815,420.650,4.273,26.650
1782117409.812824,1.222000,1855422,1000,12,0,1,831.884,-8.837,17.851,426.679,11.088,26.691
1782117409.813824,1.223000,1855423,1000,12,0,1,826.936,-10.700,17.869,438.978,20.761,26.849
1782117409.814824,1.224000,1855424,1000,12,0,1,818.769,-16.739,18.020,443.494,26.173,27.102
1782117409.815824,1.225000,1855425,1000,12,0,1,818.865,-13.785,18.121,437.537,18.515,27.228
1782117409.816824,1.226000,1855426,1000,12,0,1,838.177,5.009,18.132,425.166,7.774,27.250
1782117409.817824,1.227000,1855427,1000,12,0,1,861.549,28.761,18.512,409.600,-5.131,27.255
1782117409.818824,1.228000,1855428,1000,12,0,1,870.389,35.283,19.010,402.562,-9.067,27.270
1782117409.819824,1.229000,1855429,1000,12,0,1,861.525,24.488,19.287,404.989,-2.547,27.270
1782117409.820824,1.230000,1855430,1000,12,0,1,849.875,9.947,19.339,412.267,7.079,27.287
1782117409.821824,1.231000,1855431,1000,12,0,1,843.438,3.049,19.342,414.909,12.177,27.330
1782117409.822824,1.232000,1855432,1000,12,0,1,839.066,-0.664,19.343,415.462,11.923,27.362
1782117409.823824,1.233000,1855433,1000,12,0,1,837.289,-2.112,19.335,416.062,12.027,27.392
1782117409.824824,1.234000,1855434,1000,12,0,1,843.942,3.467,19.335,417.095,10.948,27.394
1782117409.825824,1.235000,1855435,1000,12,0,1,849.059,8.389,19.366,416.038,8.377,27.376
1782117409.826824,1.236000,1855436,1000,12,0,1,848.650,6.017,19.307,418.752,7.398,27.376
1782117409.827824,1.237000,1855437,1000,12,0,1,840.387,-2.660,19.224,421.659,8.144,27.389
1782117409.828824,1.238000,1855438,1000,12,0,1,833.109,-11.439,19.277,424.950,7.550,27.409
1782117409.829824,1.239000,1855439,1000,12,0,1,829.866,-14.130,19.363,430.186,9.259,27.421
1782117409.830824,1.240000,1855440,1000,12,0,1,832.172,-12.060,19.288,435.279,10.780,27.438
1782117409.831824,1.241000,1855441,1000,12,0,1,832.749,-9.963,19.084,439.074,10.992,27.478
1782117409.832824,1.242000,1855442,1000,12,0,1,832.388,-10.152,18.799,441.452,10.422,27.516
1782117409.833824,1.243000,1855443,1000,12,0,1,831.788,-9.452,18.125,441.452,8.136,27.526
1782117409.834824,1.244000,1855444,1000,12,0,1,835.967,-5.314,17.911,433.525,0.654,27.490
1782117409.835824,1.245000,1855445,1000,12,0,1,845.384,4.016,17.123,428.096,-5.513,27.499
1782117409.836824,1.246000,1855446,1000,12,0,1,848.482,8.079,14.888,431.051,-1.342,27.443
1782117409.837824,1.247000,1855447,1000,12,0,1,849.227,7.332,14.516,429.321,-0.164,27.408
1782117409.838824,1.248000,1855448,1000,12,0,1,852.782,10.340,14.567,424.421,-3.547,27.405
1782117409.839824,1.249000,1855449,1000,12,0,1,851.917,9.603,14.630,421.563,-4.159,27.409
1782117409.840824,1.250000,1855450,1000,12,0,1,849.323,6.402,14.591,428.265,2.281,27.328
1782117409.841824,1.251000,1855451,1000,12,0,1,843.246,1.664,14.566,431.964,7.893,27.063
1782117409.842824,1.252000,1855452,1000,12,0,1,845.720,2.433,14.557,431.219,5.546,26.619
1782117409.843824,1.253000,1855453,1000,12,0,1,846.512,5.420,14.577,432.636,5.254,26.066
1782117409.844824,1.254000,1855454,1000,12,0,1,846.681,3.802,14.582,434.486,4.952,25.380
1782117409.845824,1.255000,1855455,1000,12,0,1,846.849,4.109,14.593,439.674,6.206,24.756
1782117409.846824,1.256000,1855456,1000,12,0,1,841.132,-1.633,14.581,440.947,5.264,24.343
1782117409.847824,1.257000,1855457,1000,12,0,1,839.667,-4.877,14.594,442.124,1.606,24.331
1782117409.848824,1.258000,1855458,1000,12,0,1,837.241,-5.989,14.535,443.326,0.255,23.637
1782117409.849824,1.259000,1855459,1000,12,0,1,843.078,-3.466,14.166,444.647,-2.004,20.804
1782117409.850824,1.260000,1855460,1000,12,0,1,851.293,4.700,13.851,438.089,-8.434,15.979
1782117409.851824,1.261000,1855461,1000,12,0,1,852.590,3.722,13.859,434.030,-14.465,11.920
1782117409.852824,1.262000,1855462,1000,12,0,1,845.960,-3.372,13.635,431.267,-14.823,10.631
1782117409.853824,1.263000,1855463,1000,12,0,1,853.695,-0.511,12.934,427.616,-16.528,10.568
1782117409.854824,1.264000,1855464,1000,12,0,1,865.753,11.157,11.598,424.589,-16.048,10.809
1782117409.855824,1.265000,1855465,1000,12,0,1,866.570,10.013,10.630,426.583,-11.216,10.862
1782117409.856824,1.266000,1855466,1000,12,0,1,865.153,5.785,10.528,431.219,-3.373,10.872
1782117409.857824,1.267000,1855467,1000,12,0,1,864.192,4.010,10.534,432.084,0.711,10.731
1782117409.858824,1.268000,1855468,1000,12,0,1,860.877,0.229,10.392,431.868,1.923,10.218
1782117409.859824,1.269000,1855469,1000,12,0,1,855.400,-4.071,10.352,434.150,5.515,9.706
1782117409.860824,1.270000,1855470,1000,12,0,1,851.485,-7.091,10.388,433.957,6.382,9.649
1782117409.861824,1.271000,1855471,1000,12,0,1,850.740,-5.845,10.331,433.477,5.616,9.663
1782117409.862824,1.272000,1855472,1000,12,0,1,850.740,-4.170,10.272,435.327,6.558,9.580
1782117409.863824,1.273000,1855473,1000,12,0,1,850.860,-2.615,10.167,438.521,8.150,9.192
1782117409.864824,1.274000,1855474,1000,12,0,1,851.629,-1.202,9.889,439.602,7.304,8.477
1782117409.865824,1.275000,1855475,1000,12,0,1,849.515,-2.216,9.700,445.511,8.887,8.159
1782117409.866824,1.276000,1855476,1000,12,0,1,845.936,-5.623,9.706,448.610,9.668,8.200
1782117409.867824,1.277000,1855477,1000,12,0,1,846.777,-5.224,8.844,448.970,5.614,8.206
1782117409.868824,1.278000,1855478,1000,12,0,1,847.425,-4.134,7.325,450.099,3.451,8.120
1782117409.869824,1.279000,1855479,1000,12,0,1,846.537,-5.628,6.504,454.063,3.638,8.128
1782117409.870824,1.280000,1855480,1000,12,0,1,843.246,-8.482,6.462,457.570,4.550,8.092
1782117409.871824,1.281000,1855481,1000,12,0,1,841.060,-10.946,6.631,460.380,4.480,7.932
1782117409.872824,1.282000,1855482,1000,12,0,1,840.796,-10.370,6.790,466.529,7.407,7.821
1782117409.873824,1.283000,1855483,1000,12,0,1,849.179,-3.359,6.800,468.619,8.406,7.726
1782117409.874824,1.284000,1855484,1000,12,0,1,864.000,10.199,6.934,470.109,6.952,7.633
1782117409.875824,1.285000,1855485,1000,12,0,1,856.193,5.217,6.872,476.858,11.474,7.713
1782117409.876824,1.286000,1855486,1000,12,0,1,849.659,-5.107,6.857,473.880,8.887,7.744
1782117409.877824,1.287000,1855487,1000,12,0,1,855.232,1.744,6.851,461.918,-3.326,7.673
1782117409.878824,1.288000,1855488,1000,12,0,1,853.310,1.843,6.663,457.858,-7.711,7.676
1782117409.879824,1.289000,1855489,1000,12,0,1,849.035,-1.841,6.361,457.306,-6.050,7.612
1782117409.880824,1.290000,1855490,1000,12,0,1,856.721,5.382,6.175,445.535,-14.001,7.716
1782117409.881824,1.291000,1855491,1000,12,0,1,872.455,19.983,6.644,423.100,-31.464,8.770
1782117409.882824,1.292000,1855492,1000,12,0,1,877.331,24.482,7.353,411.114,-39.542,10.296
1782117409.883824,1.293000,1855493,1000,12,0,1,862.030,8.894,7.339,419.761,-26.909,10.917
1782117409.884824,1.294000,1855494,1000,12,0,1,846.801,-7.621,7.379,430.042,-12.034,11.048
1782117409.885824,1.295000,1855495,1000,12,0,1,845.143,-9.076,7.469,440.875,-1.876,11.024
1782117409.886824,1.296000,1855496,1000,12,0,1,842.909,-8.398,7.476,451.084,7.432,11.072
1782117409.887824,1.297000,1855497,1000,12,0,1,832.292,-16.434,7.760,459.059,11.618,11.193
1782117409.888824,1.298000,1855498,1000,12,0,1,816.198,-28.234,8.603,463.046,12.145,11.313
1782117409.889824,1.299000,1855499,1000,12,0,1,815.382,-27.758,9.359,464.248,9.142,11.372
1782117409.890824,1.300000,1855500,1000,12,0,1,822.708,-15.711,9.576,459.660,2.573,11.373
1782117409.891824,1.301000,1855501,1000,12,0,1,825.542,-10.495,9.688,460.380,-0.229,11.318
1782117409.892824,1.302000,1855502,1000,12,0,1,837.697,0.151,9.681,466.626,4.923,11.312
1782117409.893824,1.303000,1855503,1000,12,0,1,856.385,17.356,9.958,470.349,7.774,11.341
1782117409.894824,1.304000,1855504,1000,12,0,1,846.272,9.751,10.039,487.692,19.727,11.658
1782117409.895824,1.305000,1855505,1000,12,0,1,830.899,-8.878,10.100,501.383,32.484,12.500
1782117409.896824,1.306000,1855506,1000,12,0,1,839.066,-1.875,10.101,494.033,22.552,12.879
1782117409.897824,1.307000,1855507,1000,12,0,1,843.029,5.610,10.109,481.927,7.897,12.925
1782117409.898824,1.308000,1855508,1000,12,0,1,834.886,-1.562,10.076,472.078,-1.638,12.927
1782117409.899824,1.309000,1855509,1000,12,0,1,840.315,2.788,10.071,464.536,-7.927,12.973
1782117409.900824,1.310000,1855510,1000,12,0,1,854.151,17.219,10.340,449.595,-17.848,13.162
1782117409.901824,1.311000,1855511,1000,12,0,1,869.909,29.949,11.162,421.419,-38.904,14.118
1782117409.902824,1.312000,1855512,1000,12,0,1,870.413,29.965,11.930,399.320,-53.928,15.909
1782117409.903824,1.313000,1855513,1000,12,0,1,841.588,2.706,11.936,393.387,-50.969,17.309
1782117409.904824,1.314000,1855514,1000,12,0,1,812.115,-25.968,12.388,397.254,-38.857,18.018
1782117409.905824,1.315000,1855515,1000,12,0,1,799.840,-32.855,13.154,404.244,-25.597,18.309
1782117409.906824,1.316000,1855516,1000,12,0,1,836.832,-0.141,13.129,418.993,-9.120,18.348
1782117409.907824,1.317000,1855517,1000,12,0,1,836.832,13.476,13.254,418.993,-4.286,18.358
1782117409.908824,1.318000,1855518,1000,12,0,1,848.506,10.380,13.335,430.306,1.293,18.357
1782117409.909824,1.319000,1855519,1000,12,0,1,852.926,21.692,13.672,441.572,14.114,18.449
1782117409.910824,1.320000,1855520,1000,12,0,1,856.961,14.145,13.781,454.903,20.360,18.650
1782117409.911824,1.321000,1855521,1000,12,0,1,845.792,6.464,13.786,474.937,35.119,19.284
1782117409.912824,1.322000,1855522,1000,12,0,1,836.015,-9.692,13.842,486.803,40.967,20.114
1782117409.913824,1.323000,1855523,1000,12,0,1,827.704,-15.342,14.006,490.934,37.595,20.773
1782117409.914824,1.324000,1855524,1000,12,0,1,833.998,-11.493,14.099,485.890,28.694,21.140
1782117409.915824,1.325000,1855525,1000,12,0,1,866.642,16.162,14.279,461.197,4.090,21.111
1782117409.916824,1.326000,1855526,1000,12,0,1,890.206,38.907,15.282,419.953,-30.984,21.517
