Unix_Time_s,RelativeTime_s,Target_Position_Deg,Measured_Position_Deg,Is_Bursting
1782117408.603849,0.013,7.000,7.000,0
1782117408.613369,0.023,7.000,7.000,0
1782117408.623397,0.033,7.000,7.000,0
1782117408.634430,0.044,7.000,7.000,0
1782117408.643800,0.053,7.000,7.000,0
1782117408.655867,0.065,7.000,7.000,0
1782117408.663593,0.073,7.000,7.000,0
1782117408.673091,0.082,7.000,7.000,0
1782117408.685359,0.095,7.000,7.000,0
1782117408.703094,0.112,7.000,7.000,0
1782117408.712487,0.122,7.000,7.000,0
1782117408.716066,0.125,7.000,7.000,0
1782117408.724691,0.134,7.000,7.000,0
1782117408.735568,0.145,7.000,7.000,0
1782117408.744223,0.153,7.000,7.000,0
1782117408.758295,0.167,7.000,7.000,0
1782117408.766773,0.176,7.000,7.000,0
1782117408.774832,0.184,7.000,7.000,0
1782117408.787831,0.197,7.000,7.000,0
1782117408.796368,0.206,7.000,7.000,0
1782117408.808197,0.217,7.000,7.000,0
1782117408.814714,0.224,7.000,7.000,0
1782117408.823792,0.233,7.000,7.000,0
1782117408.833275,0.242,7.000,7.000,0
1782117408.844893,0.254,7.000,7.000,0
1782117408.854667,0.264,7.000,7.000,0
1782117408.863785,0.273,7.000,7.000,0
1782117408.873321,0.282,7.000,7.000,0
1782117408.884451,0.294,7.000,7.000,0
1782117408.895483,0.305,7.000,7.000,0
1782117408.903050,0.312,7.000,7.000,0
1782117408.914331,0.324,7.000,7.000,0
1782117408.926393,0.336,7.000,7.000,0
1782117408.933447,0.343,7.000,7.000,0
1782117408.943756,0.353,7.000,7.000,0
1782117408.952957,0.362,7.000,7.000,0
1782117408.970409,0.380,7.000,7.000,0
1782117408.972417,0.382,7.000,7.000,0
1782117408.984514,0.394,7.000,7.000,0
1782117408.995098,0.404,7.000,7.000,0
1782117409.004080,0.413,7.000,7.000,0
1782117409.013532,0.423,7.000,7.000,0
1782117409.022322,0.431,7.000,7.000,0
1782117409.034879,0.444,7.000,7.000,0
1782117409.043006,0.452,7.000,7.000,0
1782117409.053770,0.463,7.000,7.000,0
1782117409.066037,0.475,7.000,7.000,0
1782117409.073498,0.483,7.000,7.000,0
1782117409.084550,0.494,7.000,7.000,0
1782117409.096847,0.506,7.000,7.000,0
1782117409.106534,0.516,7.000,7.000,0
1782117409.114640,0.524,7.000,7.000,0
1782117409.122839,0.532,7.000,7.000,0
1782117409.134234,0.543,7.000,7.000,0
1782117409.143286,0.552,7.000,7.000,0
1782117409.154010,0.563,7.000,7.000,0
1782117409.163739,0.573,7.000,7.000,0
1782117409.175296,0.584,7.000,7.000,0
1782117409.183368,0.593,7.000,7.000,0
1782117409.193289,0.602,7.000,7.000,0
1782117409.208174,0.617,7.000,7.000,0
1782117409.213512,0.623,7.000,7.000,0
1782117409.224138,0.633,7.000,7.000,0
1782117409.239803,0.649,7.000,7.000,0
1782117409.244326,0.654,7.000,7.000,0
1782117409.253147,0.662,7.000,7.000,0
1782117409.264447,0.674,7.000,7.000,0
1782117409.277695,0.687,7.000,7.000,0
1782117409.285661,0.695,7.000,7.000,0
1782117409.293283,0.702,7.000,7.000,0
1782117409.308986,0.718,7.000,7.000,0
1782117409.329009,0.738,7.000,7.000,0
1782117409.330534,0.740,7.000,7.000,0
1782117409.334092,0.743,7.000,7.000,0
1782117409.344125,0.753,7.000,7.000,0
1782117409.353642,0.763,7.000,7.000,0
1782117409.364847,0.774,7.000,7.000,0
1782117409.374633,0.784,7.000,7.000,0
1782117409.383483,0.793,7.000,7.000,0
1782117409.393499,0.803,7.000,7.000,0
1782117409.415456,0.825,7.000,7.000,0
1782117409.415456,0.825,7.000,7.000,0
1782117409.423004,0.832,7.000,7.000,0
1782117409.436685,0.846,7.000,7.000,0
1782117409.443438,0.853,7.000,7.000,0
1782117409.454539,0.864,7.000,7.000,0
1782117409.463071,0.872,7.000,7.000,0
1782117409.474597,0.884,7.000,7.000,0
1782117409.483609,0.893,7.000,7.000,0
1782117409.495266,0.904,7.000,7.000,0
1782117409.505345,0.915,7.000,7.000,0
1782117409.513892,0.923,7.000,7.000,0
1782117409.523166,0.932,7.000,7.000,0
1782117409.534919,0.944,7.000,7.000,0
1782117409.543725,0.953,7.000,7.000,0
1782117409.553888,0.963,7.000,7.000,0
1782117409.566163,0.975,7.000,7.000,0
1782117409.574335,0.984,7.000,7.000,0
1782117409.585467,0.995,7.000,7.000,0
1782117409.593133,1.002,7.000,7.000,0
1782117409.604192,1.013,7.000,7.000,0
1782117409.618654,1.028,7.000,7.000,0
1782117409.622166,1.031,8.200,7.000,1
1782117409.633229,1.042,8.200,7.000,1
1782117409.644241,1.053,8.200,7.000,1
1782117409.657433,1.067,8.200,7.000,1
1782117409.663353,1.073,8.200,7.000,1
1782117409.674955,1.084,8.200,7.002,1
1782117409.687316,1.096,8.200,7.006,1
1782117409.693629,1.103,8.200,7.009,1
1782117409.703171,1.112,8.200,7.016,1
1782117409.717550,1.127,8.200,7.016,1
1782117409.723098,1.132,8.200,7.029,1
1782117409.733487,1.143,8.200,7.036,1
1782117409.743590,1.153,8.200,7.046,1
1782117409.755865,1.165,8.200,7.054,1
1782117409.766417,1.176,8.200,7.068,1
1782117409.773810,1.183,8.200,7.082,1
1782117409.785218,1.194,8.200,7.092,1
1782117409.792749,1.202,8.200,7.109,1
1782117409.804129,1.213,8.200,7.121,1
1782117409.815469,1.225,8.200,7.141,1
1782117409.828201,1.237,8.200,7.141,1
1782117409.844109,1.253,8.200,7.175,1
1782117409.844109,1.253,8.200,7.190,1
1782117409.854229,1.263,8.200,7.214,1
1782117409.864078,1.273,8.200,7.231,1
1782117409.873996,1.283,8.200,7.258,1
1782117409.886307,1.295,8.200,7.258,1
1782117409.893890,1.303,8.200,7.302,1
1782117409.902942,1.312,8.200,7.332,1
1782117409.914997,1.324,8.200,7.353,1
1782117409.923642,1.333,8.200,7.386,1
1782117409.937603,1.347,8.200,7.405,1
1782117409.943746,1.353,8.200,7.438,1
1782117409.952920,1.362,8.200,7.474,1
1782117409.964368,1.374,8.200,7.499,1
1782117409.983309,1.392,8.200,7.537,1
1782117409.995363,1.405,8.200,7.537,1
1782117409.996362,1.406,8.200,7.602,1
1782117410.004311,1.413,8.200,7.629,1
1782117410.014349,1.424,8.200,7.668,1
1782117410.024425,1.434,8.200,7.693,1
1782117410.033091,1.442,8.200,7.693,1
1782117410.043462,1.453,8.200,7.693,1
1782117410.053216,1.462,8.200,7.788,1
1782117410.064289,1.473,8.200,7.821,1
1782117410.073495,1.483,8.200,7.842,1
1782117410.082815,1.492,8.200,7.871,1
1782117410.096218,1.505,8.200,7.871,1
1782117410.102591,1.512,8.200,7.918,1
1782117410.113731,1.523,8.200,7.945,1
1782117410.124773,1.534,8.200,7.963,1
1782117410.135437,1.545,8.200,7.988,1
1782117410.142954,1.552,8.200,8.004,1
1782117410.153993,1.563,8.200,8.026,1
1782117410.164929,1.574,8.200,8.040,1
1782117410.175401,1.585,8.200,8.061,1
1782117410.183745,1.593,8.200,8.074,1
1782117410.193815,1.603,8.200,8.074,1
1782117410.203212,1.612,8.200,8.074,1
1782117410.213837,1.623,8.200,8.118,1
1782117410.229752,1.639,8.200,8.132,1
1782117410.234354,1.644,8.200,8.141,1
1782117410.246170,1.655,8.200,8.153,1
1782117410.253132,1.662,8.200,8.153,1
1782117410.262639,1.672,8.200,8.169,1
1782117410.273747,1.683,8.200,8.175,1
1782117410.283342,1.693,8.200,8.182,1
1782117410.296769,1.706,8.200,8.187,1
1782117410.303128,1.712,8.200,8.187,1
1782117410.313176,1.722,8.200,8.195,1
1782117410.325881,1.735,8.200,8.197,1
1782117410.334832,1.744,8.200,8.198,1
1782117410.342396,1.752,8.200,8.198,1
1782117410.354700,1.764,8.200,8.198,1
1782117410.364224,1.773,8.200,8.198,1
1782117410.373508,1.783,8.200,8.199,1
1782117410.384005,1.793,8.200,8.199,1
1782117410.397047,1.806,8.200,8.199,1
1782117410.404096,1.813,8.200,8.199,1
1782117410.414075,1.823,8.200,8.199,1
1782117410.422777,1.832,7.000,8.199,0
1782117410.433422,1.843,7.000,8.199,0
1782117410.443124,1.852,7.000,8.199,0
1782117410.454759,1.864,7.000,8.199,0
1782117410.463300,1.872,7.000,8.199,0
1782117410.474679,1.884,7.000,8.197,0
1782117410.485144,1.894,7.000,8.195,0
1782117410.495324,1.904,7.000,8.190,0
1782117410.507335,1.917,7.000,8.184,0
1782117410.513700,1.923,7.000,8.184,0
1782117410.523522,1.933,7.000,8.173,0
1782117410.535752,1.945,7.000,8.167,0
1782117410.543779,1.953,7.000,8.155,0
1782117410.553313,1.962,7.000,8.146,0
1782117410.563245,1.972,7.000,8.133,0
1782117410.575218,1.984,7.000,8.125,0
1782117410.584542,1.994,7.000,8.109,0
1782117410.593538,2.003,7.000,8.092,0
1782117410.603991,2.013,7.000,8.081,0
1782117410.613542,2.023,7.000,8.081,0
1782117410.623646,2.033,7.000,8.044,0
1782117410.633189,2.042,7.000,8.030,0
1782117410.643236,2.052,7.000,8.007,0
1782117410.653267,2.062,7.000,7.993,0
1782117410.665604,2.075,7.000,7.993,0
1782117410.673117,2.082,7.000,7.993,0
1782117410.683150,2.092,7.000,7.925,0
1782117410.693188,2.102,7.000,7.906,0
1782117410.705134,2.114,7.000,7.878,0
1782117410.713166,2.122,7.000,7.847,0
1782117410.724233,2.133,7.000,7.847,0
1782117410.745450,2.155,7.000,7.794,0
1782117410.746441,2.156,7.000,7.760,0
1782117410.752716,2.162,7.000,7.736,0
1782117410.763768,2.173,7.000,7.703,0
1782117411.004857,2.414,7.000,7.669,0
1782117411.004857,2.414,7.000,7.669,0
1782117411.005798,2.415,7.000,7.604,0
1782117411.005798,2.415,7.000,7.564,0
1782117411.006805,2.416,7.000,7.537,0
1782117411.006805,2.416,7.000,7.499,0
1782117411.007798,2.417,7.000,7.499,0
1782117411.007798,2.417,7.000,7.441,0
1782117411.007798,2.417,7.000,7.419,0
1782117411.008814,2.418,7.000,7.386,0
1782117411.008814,2.418,7.000,7.357,0
1782117411.008814,2.418,7.000,7.330,0
1782117411.009797,2.419,7.000,7.330,0
1782117411.009797,2.419,7.000,7.281,0
1782117411.009797,2.419,7.000,7.263,0
1782117411.009797,2.419,7.000,7.239,0
1782117411.010830,2.420,7.000,7.213,0
1782117411.010830,2.420,7.000,7.213,0
1782117411.011802,2.421,7.000,7.175,0
1782117411.011802,2.421,7.000,7.160,0
1782117411.011802,2.421,7.000,7.140,0
1782117411.012809,2.422,7.000,7.121,0
1782117411.012809,2.422,7.000,7.111,0
1782117411.013800,2.423,7.000,7.095,0
1782117411.013800,2.423,7.000,7.084,0
1782117411.022813,2.432,7.000,7.070,0
1782117411.034261,2.443,7.000,7.057,0
1782117411.044196,2.453,7.000,7.050,0
1782117411.053355,2.463,7.000,7.039,0
1782117411.067863,2.477,7.000,7.032,0
1782117411.075819,2.485,7.000,7.024,0
1782117411.085167,2.494,7.000,7.019,0
1782117411.093442,2.503,7.000,7.013,0
1782117411.105470,2.515,7.000,7.007,0
1782117411.121439,2.531,7.000,7.007,0
1782117411.123441,2.533,7.000,7.002,0
1782117411.133508,2.543,7.000,7.001,0
1782117411.145841,2.555,7.000,7.000,0
1782117411.153846,2.563,7.000,7.000,0
1782117411.164407,2.574,7.000,7.000,0
1782117411.173422,2.583,7.000,7.000,0
1782117411.184484,2.594,7.000,7.000,0
1782117411.193650,2.603,7.000,7.000,0
1782117411.203020,2.612,7.000,7.000,0
1782117411.216955,2.626,7.000,7.000,0
1782117411.224949,2.634,7.000,7.000,0
1782117411.232956,2.642,7.000,7.000,0
1782117411.246028,2.655,7.000,7.000,0
1782117411.263731,2.673,7.000,7.000,0
1782117411.272732,2.682,7.000,7.000,0
1782117411.273794,2.683,7.000,7.000,0
1782117411.284726,2.694,7.000,7.000,0
1782117411.294734,2.704,7.000,7.000,0
1782117411.305741,2.715,7.000,7.000,0
1782117411.313749,2.723,7.000,7.000,0
1782117411.325732,2.735,7.000,7.000,0
1782117411.334959,2.744,7.000,7.000,0
1782117411.343248,2.752,7.000,7.001,0
1782117411.356187,2.765,7.000,7.001,0
1782117411.363992,2.773,7.000,7.000,0
1782117411.374316,2.783,7.000,7.000,0
1782117411.383383,2.793,7.000,7.000,0
1782117411.397330,2.807,7.000,7.000,0
1782117411.404791,2.814,7.000,7.000,0
1782117411.414757,2.824,7.000,7.001,0
1782117411.423295,2.832,7.000,7.000,0
1782117411.435708,2.845,7.000,7.000,0
1782117411.444629,2.854,7.000,7.000,0
1782117411.455625,2.865,7.000,7.000,0
1782117411.465304,2.874,7.000,7.000,0
1782117411.474054,2.883,7.000,7.000,0
1782117411.483614,2.893,7.000,7.000,0
1782117411.492893,2.902,7.000,7.000,0
1782117411.509092,2.918,7.000,7.000,0
1782117411.513566,2.923,7.000,7.000,0
1782117411.525754,2.935,7.000,7.000,0
1782117411.533642,2.943,7.000,7.000,0
1782117411.546033,2.955,7.000,7.000,0
1782117411.554990,2.964,7.000,7.000,0
1782117411.566518,2.976,7.000,7.000,0
1782117411.574910,2.984,7.000,7.000,0
1782117411.583787,2.993,7.000,7.000,0
1782117411.593345,3.003,7.000,7.000,0
1782117411.604162,3.013,7.000,7.000,0
1782117411.619519,3.029,7.000,7.000,0
1782117411.633386,3.043,7.000,7.000,0
1782117411.633386,3.043,7.000,7.000,0
1782117411.645372,3.055,7.000,7.000,0
1782117411.655374,3.065,7.000,7.000,0
1782117411.666195,3.075,7.000,7.000,0
1782117411.677907,3.087,7.000,7.000,0
1782117411.683817,3.093,7.000,7.000,0
1782117411.693010,3.102,7.000,7.000,0
1782117411.705055,3.114,7.000,7.000,0
1782117411.715664,3.125,7.000,7.000,0
1782117411.723244,3.132,7.000,7.000,0
1782117411.735764,3.145,7.000,7.000,0
1782117411.743693,3.153,7.000,7.000,0
1782117411.754799,3.164,7.000,7.000,0
1782117411.765365,3.175,7.000,7.000,0
1782117411.774041,3.183,7.000,7.000,0
1782117411.785481,3.195,7.000,7.000,0
1782117411.793855,3.203,7.000,7.000,0
1782117411.803327,3.213,7.000,7.000,0
1782117411.815432,3.225,7.000,7.000,0
1782117411.827153,3.236,7.000,7.000,0
1782117411.833671,3.243,7.000,7.000,0
1782117411.842267,3.251,7.000,7.000,0
1782117411.855025,3.264,7.000,7.000,0
1782117411.866967,3.276,7.000,7.000,0
1782117411.874535,3.284,7.000,7.000,0
1782117411.885066,3.294,7.000,7.000,0
1782117411.894853,3.304,7.000,7.000,0
1782117411.905588,3.315,7.000,7.000,0
1782117411.915068,3.324,7.000,7.000,0
1782117411.924065,3.333,7.000,7.000,0
1782117411.941911,3.351,7.000,7.000,0
1782117411.944893,3.354,7.000,7.000,0
1782117411.955024,3.364,7.000,7.000,0
1782117411.969924,3.379,7.000,7.000,0
1782117411.975553,3.385,7.000,7.000,0
1782117411.984303,3.393,7.000,7.000,0
1782117411.993889,3.403,7.000,7.000,0
1782117412.003610,3.413,7.000,7.000,0
1782117412.013604,3.423,7.000,7.000,0
1782117412.024666,3.434,7.000,7.000,0
1782117412.037022,3.446,7.000,7.000,0
1782117412.045653,3.455,7.000,7.000,0
1782117412.053693,3.463,7.000,7.000,0
1782117412.065956,3.475,7.000,7.000,0
1782117412.073333,3.483,7.000,7.000,0
1782117412.083411,3.493,7.000,7.000,0
1782117412.093516,3.503,7.000,7.000,0
1782117412.103328,3.513,7.000,7.000,0
1782117412.114459,3.524,7.000,7.000,0
1782117412.124632,3.534,7.000,7.000,0
1782117412.133849,3.543,7.000,7.000,0
1782117412.146071,3.555,7.000,7.000,0
1782117412.153531,3.563,7.000,7.000,0
1782117412.162892,3.572,7.000,7.000,0
1782117412.175456,3.585,7.000,7.000,0
1782117412.184140,3.593,7.000,7.000,0
1782117412.192918,3.602,7.000,7.000,0
1782117412.206009,3.615,7.000,7.000,0
1782117412.215183,3.624,7.000,7.000,0
1782117412.225438,3.635,7.000,7.000,0
1782117412.233172,3.642,7.000,7.000,0
1782117412.246981,3.656,7.000,7.000,0
1782117412.253507,3.663,7.000,7.000,0
1782117412.264311,3.673,7.000,7.000,0
1782117412.274894,3.684,7.000,7.000,0
1782117412.283127,3.692,7.000,7.000,0
1782117412.293111,3.702,7.000,7.000,0
1782117412.303368,3.713,7.000,7.000,0
1782117412.313256,3.722,7.000,7.000,0
1782117412.326856,3.736,7.000,7.000,0
1782117412.332900,3.742,7.000,7.000,0
1782117412.344269,3.753,7.000,7.000,0
1782117412.357395,3.767,7.000,7.000,0
1782117412.363546,3.773,7.000,7.000,0
1782117412.377935,3.787,7.000,7.000,0
1782117412.383529,3.793,7.000,7.000,0
1782117412.393897,3.803,7.000,7.000,0
1782117412.439450,3.849,7.000,7.000,0
1782117412.439450,3.849,7.000,7.000,0
1782117412.440389,3.850,7.000,7.000,0
1782117412.440389,3.850,7.000,7.000,0
1782117412.446168,3.855,7.000,7.000,0
1782117412.457219,3.866,7.000,7.000,0
1782117412.463395,3.873,7.000,7.000,0
1782117412.475536,3.885,7.000,7.000,0
1782117412.484422,3.894,7.000,7.000,0
1782117412.493187,3.902,7.000,7.000,0
1782117412.503172,3.912,7.000,7.000,0
1782117412.513325,3.923,7.000,7.000,0
1782117412.524843,3.934,7.000,7.000,0
1782117412.556782,3.966,7.000,7.000,0
1782117412.557795,3.967,7.000,7.000,0
1782117412.557795,3.967,7.000,7.000,0
1782117412.564785,3.974,7.000,7.000,0
1782117412.573897,3.983,7.000,7.000,0
1782117412.584177,3.993,7.000,7.000,0
1782117412.594436,4.004,7.000,7.000,0
1782117412.603617,4.013,7.000,7.000,0
1782117412.613641,4.023,7.000,7.000,0
1782117412.623847,4.033,7.000,7.000,0
1782117412.632424,4.042,7.000,7.000,0
1782117412.643776,4.053,7.000,7.000,0
1782117412.657622,4.067,7.000,7.000,0
1782117412.663280,4.072,7.000,7.000,0
1782117412.673861,4.083,7.000,7.000,0
1782117412.684909,4.094,7.000,7.000,0
1782117412.694156,4.103,7.000,7.000,0
1782117412.704675,4.114,7.000,7.000,0
1782117412.715945,4.125,7.000,7.000,0
1782117412.726092,4.135,7.000,7.000,0
1782117412.735268,4.144,7.000,7.000,0
1782117412.744031,4.153,7.000,7.000,0
1782117412.753064,4.162,7.000,7.000,0
1782117412.762755,4.172,7.000,7.000,0
1782117412.773788,4.183,7.000,7.000,0
1782117412.787070,4.196,7.000,7.000,0
1782117412.798672,4.208,7.000,7.000,0
1782117412.805290,4.214,7.000,7.000,0
1782117412.813343,4.223,7.000,7.000,0
1782117412.823821,4.233,7.000,7.000,0
1782117412.833045,4.242,7.000,7.000,0
1782117412.844272,4.253,7.000,7.000,0
1782117412.856351,4.266,7.000,7.000,0
1782117412.863674,4.273,7.000,7.000,0
1782117412.873203,4.282,7.000,7.000,0
1782117412.885771,4.295,7.000,7.000,0
1782117412.893233,4.302,7.000,7.000,0
1782117412.903442,4.313,7.000,7.000,0
1782117412.912958,4.322,7.000,7.000,0
1782117412.923566,4.333,7.000,7.000,0
1782117412.932922,4.342,7.000,7.000,0
1782117412.943888,4.353,7.000,7.000,0
1782117412.956545,4.366,7.000,7.000,0
1782117412.964683,4.374,7.000,7.000,0
1782117412.973505,4.383,7.000,7.000,0
1782117412.983268,4.392,7.000,7.000,0
1782117412.996741,4.406,7.000,7.000,0
1782117413.003691,4.413,7.000,7.000,0
1782117413.012341,4.422,7.000,7.000,0
1782117413.024712,4.434,7.000,7.000,0
1782117413.033904,4.443,7.000,7.000,0
1782117413.043231,4.452,7.000,7.000,0
1782117413.067183,4.476,7.000,7.000,0
1782117413.067183,4.476,7.000,7.000,0
1782117413.079298,4.488,7.000,7.000,0
1782117413.082874,4.492,7.000,7.000,0
1782117413.095875,4.505,7.000,7.000,0
1782117413.105081,4.514,7.000,7.000,0
1782117413.113628,4.523,7.000,7.000,0
1782117413.122772,4.532,7.000,7.000,0
1782117413.134736,4.544,7.000,7.000,0
1782117413.143342,4.553,7.000,7.000,0
1782117413.153103,4.562,7.000,7.000,0
1782117413.167912,4.577,7.000,7.000,0
1782117413.173539,4.583,7.000,7.000,0
1782117413.183799,4.593,7.000,7.000,0
1782117413.193539,4.603,7.000,7.000,0
1782117413.203248,4.612,7.000,7.000,0
1782117413.213282,4.622,7.000,7.000,0
1782117413.225398,4.635,7.000,7.000,0
1782117413.234612,4.644,7.000,7.000,0
1782117413.243003,4.652,7.000,7.000,0
1782117413.256499,4.666,7.000,7.000,0
1782117413.266130,4.675,7.000,7.000,0
1782117413.273639,4.683,7.000,7.000,0
1782117413.282606,4.692,7.000,7.000,0
1782117413.299229,4.708,7.000,7.000,0
1782117413.304412,4.714,7.000,7.000,0
1782117413.313268,4.722,7.000,7.000,0
1782117413.323072,4.732,7.000,7.000,0
1782117413.335215,4.744,7.000,7.000,0
1782117413.343905,4.753,7.000,7.000,0
1782117413.353431,4.763,7.000,7.000,0
1782117413.366466,4.776,7.000,7.000,0
1782117413.373691,4.783,7.000,7.000,0
1782117413.383359,4.793,7.000,7.000,0
1782117413.392559,4.802,7.000,7.000,0
1782117413.403660,4.813,7.000,7.000,0
1782117413.413985,4.823,7.000,7.000,0
1782117413.423589,4.833,7.000,7.000,0
1782117413.434251,4.843,7.000,7.000,0
1782117413.444750,4.854,7.000,7.000,0
1782117413.453725,4.863,7.000,7.000,0
1782117413.463919,4.873,7.000,7.000,0
1782117413.479411,4.889,7.000,7.000,0
1782117413.482408,4.892,7.000,7.000,0
1782117413.493209,4.902,7.000,7.000,0
1782117413.507311,4.916,7.000,7.000,0
1782117413.513934,4.923,7.000,7.000,0
1782117413.523220,4.932,7.000,7.000,0
