Unix_Time_s,RelativeTime_s,P_1,P_2,P_3,P_4,P_5,P_6,P_7,P_8,P_9,P_10,P_11,P_12,P_13,P_14,P_15,P_16,P_17,P_18,P_19,P_20,P_21,P_22,P_23,P_24,P_25,P_26,P_27,P_28,P_29,P_30,P_31,P_32,P_33,P_34,P_35,P_36,P_37,P_38,P_39,P_40,P_41,P_42,P_43,P_44,P_45,P_46,P_47,P_48,P_49,P_50,P_51,P_52,P_53,P_54,P_55,P_56,P_57,P_58,P_59,P_60,P_61,P_62,P_63,P_64,P_65,P_66,P_67,P_68,P_69,P_70,P_71,P_72,P_73,P_74,P_75,P_76,P_77,P_78,P_79,P_80,P_81,P_82,P_83,P_84,P_85,P_86,P_87,P_88,P_89,P_90,P_91,P_92,P_93,P_94,P_95,P_96,P_97,P_98,P_99,P_100,P_101,P_102,P_103,P_104,P_105,P_106,P_107,P_108,P_109,P_110,P_111,P_112,P_113,P_114,P_115,P_116,P_117,P_118,P_119,P_120,P_121,P_122,P_123,P_124,P_125,P_126,P_127,P_128,P_129,P_130,P_131,P_132,P_133,P_134,P_135,P_136,P_137,P_138,P_139,P_140,P_141,P_142,P_143,P_144,P_145,P_146,P_147,P_148,P_149,P_150,P_151,P_152,P_153,P_154,P_155,P_156,P_157,P_158,P_159,P_160,P_161,P_162,P_163,P_164,P_165,P_166,P_167,P_168,P_169,P_170,P_171,P_172,P_173,P_174,P_175,P_176,P_177,P_178,P_179,P_180,P_181,P_182,P_183,P_184,P_185,P_186,P_187,P_188,P_189,P_190,P_191,P_192,P_193,P_194,P_195,P_196,P_197,P_198,P_199,P_200,P_201,P_202,P_203,P_204,P_205,P_206,P_207,P_208,P_209,P_210,P_211,P_212,P_213,P_214,P_215,P_216,P_217,P_218,P_219,P_220,P_221,P_222,P_223,P_224,P_225,P_226,P_227,P_228,P_229,P_230,P_231,P_232,P_233,Flex1,Flex2,Bat,IMU1_RefTime,IMU1_Ax,IMU1_Ay,IMU1_Az,IMU1_Wx,IMU1_Wy,IMU1_Wz,IMU1_Roll,IMU1_Pitch,IMU1_Yaw,IMU1_Hx,IMU1_Hy,IMU1_Hz,IMU1_Q0,IMU1_Q1,IMU1_Q2,IMU1_Q3,IMU2_RefTime,IMU2_Ax,IMU2_Ay,IMU2_Az,IMU2_Wx,IMU2_Wy,IMU2_Wz,IMU2_Roll,IMU2_Pitch,IMU2_Yaw,IMU2_Hx,IMU2_Hy,IMU2_Hz,IMU2_Q0,IMU2_Q1,IMU2_Q2,IMU2_Q3,IMU1_FusedRoll,IMU1_FusedPitch,IMU1_FusedYaw,IMU1_FusedQ0,IMU1_FusedQ1,IMU1_FusedQ2,IMU1_FusedQ3,IMU1_MagValid,IMU2_FusedRoll,IMU2_FusedPitch,IMU2_FusedYaw,IMU2_FusedQ0,IMU2_FusedQ1,IMU2_FusedQ2,IMU2_FusedQ3,IMU2_MagValid
1782117408.601362,0.011,1024.0,1024.0,1023.0,1023.0,1023.0,1023.0,1023.0,1023.0,1023.0,1024.0,1024.0,1023.0,1023.0,1024.0,1023.0,1023.0,1024.0,1023.0,1024.0,1024.0,1024.0,1023.0,1023.0,1023.0,1024.0,1024.0,1023.0,1024.0,1024.0,1023.0,1023.0,1023.0,1023.0,1024.0,1024.0,1023.0,1024.0,1024.0,1023.0,1023.0,1023.0,1023.0,1024.0,1023.0,1023.0,1023.0,1024.0,1023.0,1023.0,1022.0,1022.0,1023.0,1024.0,1024.0,1024.0,1024.0,1024.0,1023.0,1023.0,1023.0,1023.0,1023.0,1023.0,1024.0,1023.0,1024.0,1023.0,1023.0,1023.0,1022.0,1022.0,1023.0,1023.0,1023.0,1023.0,1023.0,1024.0,1023.0,1023.0,1023.0,1022.0,1023.0,1024.0,1025.0,1025.0,1024.0,1024.0,1024.0,1024.0,1025.0,1024.0,1024.0,1024.0,1025.0,1025.0,1025.0,1025.0,1024.0,1024.0,1025.0,1024.0,1024.0,1024.0,1025.0,1024.0,1025.0,1025.0,1024.0,1024.0,1023.0,1024.0,1024.0,1023.0,1024.0,1022.0,1024.0,1024.0,1023.0,1023.0,1020.0,1022.0,1023.0,1024.0,1023.0,1024.0,1024.0,1023.0,1023.0,1022.0,1023.0,1024.0,1023.0,1024.0,1024.0,1023.0,1023.0,1024.0,1025.0,1024.0,1025.0,1025.0,1024.0,1024.0,1023.0,1025.0,1024.0,1025.0,1026.0,1024.0,1024.0,1023.0,1024.0,1024.0,1026.0,1026.0,1024.0,1024.0,1026.0,1026.0,1031.0,1030.0,1027.0,1024.0,1028.0,1028.0,1033.0,1033.0,1029.0,1025.0,1030.0,1031.0,1037.0,1037.0,1031.0,1026.0,1034.0,1037.0,1038.0,1046.0,1032.0,1027.0,1035.0,1037.0,1034.0,1046.0,1033.0,1029.0,1038.0,1040.0,1034.0,1048.0,1035.0,1032.0,1040.0,1041.0,1034.0,1050.0,1035.0,1032.0,1035.0,1036.0,1031.0,1044.0,1032.0,1036.0,1035.0,1036.0,1031.0,1040.0,1030.0,1024.0,1023.0,1023.0,1023.0,1024.0,1022.0,1039.0,1040.0,1036.0,1033.0,1040.0,1034.0,1035.0,1039.0,1033.0,1034.0,1041.0,1034.0,1029.0,1029.0,1027.0,1029.0,1032.0,1999,2040,1909,	00:31:41.381,0.05615234375,0.05078125,1.01708984375,-0.1220703125,0.18310546875,0.06103515625,2.83447265625,-3.1475830078125,52.7728271484375,450.0,-1590.0,-2563.0,0.8948974609375,0.034332275390625,-0.01361083984375,0.444732666015625,2.8332608346270116,-3.147016391618798,48.162303622569844,0.9120682555681935,0.033763068673092436,-0.014978287574342697,0.40837140360205076,1,	00:31:41.382,0.02880859375,0.04736328125,1.00732421875,-1.5869140625,-1.64794921875,-0.48828125,2.713623046875,-1.6534423828125,116.60888671875,-415.0,-1251.0,-1956.0,-0.52490234375,-0.024688720703125,-0.0125732421875,-0.8507080078125,2.711535909740354,-1.6526555938341871,117.96646883554936,-0.5147986127242915,-0.024546801209244688,-0.012846020717114198,-0.8568633628760624,1
1782117408.610371,0.020,1024.0,1024.0,1024.0,1023.0,1023.0,1023.0,1024.0,1024.0,1023.0,1023.0,1024.0,1023.0,1024.0,1024.0,1023.0,1023.0,1023.0,1024.0,1024.0,1024.0,1024.0,1023.0,1023.0,1023.0,1024.0,1024.0,1024.0,1024.0,1024.0,1023.0,1023.0,1024.0,1022.0,1023.0,1024.0,1023.0,1024.0,1024.0,1023.0,1023.0,1023.0,1023.0,1024.0,1023.0,1023.0,1023.0,1023.0,1023.0,1023.0,1022.0,1022.0,1024.0,1023.0,1024.0,1024.0,1023.0,1024.0,1023.0,1023.0,1022.0,1023.0,1023.0,1024.0,1023.0,1023.0,1024.0,1024.0,1022.0,1022.0,1022.0,1023.0,1023.0,1023.0,1023.0,1023.0,1023.0,1024.0,1023.0,1023.0,1022.0,1023.0,1024.0,1024.0,1025.0,1025.0,1024.0,1024.0,1024.0,1024.0,1025.0,1023.0,1024.0,1024.0,1025.0,1025.0,1025.0,1025.0,1024.0,1024.0,1025.0,1024.0,1024.0,1024.0,1025.0,1024.0,1025.0,1024.0,1024.0,1024.0,1023.0,1023.0,1024.0,1022.0,1023.0,1023.0,1023.0,1023.0,1023.0,1023.0,1021.0,1022.0,1023.0,1024.0,1023.0,1024.0,1024.0,1024.0,1024.0,1023.0,1023.0,1024.0,1023.0,1024.0,1024.0,1023.0,1023.0,1024.0,1025.0,1024.0,1025.0,1026.0,1024.0,1024.0,1024.0,1025.0,1024.0,1025.0,1026.0,1024.0,1025.0,1023.0,1024.0,1024.0,1026.0,1026.0,1024.0,1024.0,1026.0,1026.0,1030.0,1030.0,1027.0,1024.0,1029.0,1028.0,1033.0,1033.0,1029.0,1025.0,1030.0,1031.0,1036.0,1038.0,1031.0,1026.0,1033.0,1037.0,1038.0,1045.0,1032.0,1027.0,1035.0,1037.0,1034.0,1046.0,1033.0,1029.0,1038.0,1040.0,1034.0,1049.0,1035.0,1032.0,1040.0,1041.0,1034.0,1050.0,1035.0,1031.0,1035.0,1036.0,1031.0,1044.0,1032.0,1035.0,1036.0,1036.0,1030.0,1040.0,1030.0,1023.0,1023.0,1022.0,1023.0,1024.0,1022.0,1039.0,1041.0,1035.0,1033.0,1041.0,1034.0,1035.0,1038.0,1033.0,1034.0,1041.0,1034.0,1028.0,1029.0,1026.0,1028.0,1031.0,1999,2040,1909,	00:31:41.392,0.05517578125,0.05224609375,1.01708984375,-0.18310546875,0.18310546875,0.0,2.9168701171875,-3.109130859375,52.767333984375,450.0,-1593.0,-2565.0,0.8948974609375,0.03485107421875,-0.01300048828125,0.4447021484375,2.9157899659745685,-3.1090961538184456,48.15779004175096,0.9120714647937669,0.034284647095744594,-0.01438352425050454,0.40834216083158453,1,	00:31:41.393,0.02880859375,0.046875,1.00732421875,-1.64794921875,-1.64794921875,-0.48828125,2.6092529296875,-1.6424560546875,116.60888671875,-416.0,-1255.0,-1955.0,-0.524932861328125,-0.024139404296875,-0.0118408203125,-0.8507080078125,2.608627341667651,-1.6390846986808154,117.96329443095453,-0.5148473724600248,-0.023983376030286996,-0.012136883884054078,-0.8568603601490639,1
1782117408.620884,0.030,1024.0,1024.0,1024.0,1023.0,1023.0,1023.0,1023.0,1024.0,1022.0,1023.0,1024.0,1023.0,1023.0,1024.0,1023.0,1023.0,1024.0,1024.0,1023.0,1024.0,1023.0,1023.0,1023.0,1023.0,1024.0,1024.0,1024.0,1024.0,1024.0,1023.0,1024.0,1023.0,1023.0,1024.0,1023.0,1024.0,1024.0,1024.0,1023.0,1023.0,1023.0,1023.0,1024.0,1024.0,1023.0,1024.0,1024.0,1023.0,1023.0,1022.0,1022.0,1023.0,1024.0,1024.0,1023.0,1024.0,1024.0,1023.0,1023.0,1023.0,1023.0,1023.0,1023.0,1024.0,1023.0,1023.0,1023.0,1023.0,1023.0,1022.0,1022.0,1023.0,1023.0,1024.0,1024.0,1024.0,1024.0,1024.0,1023.0,1022.0,1022.0,1024.0,1024.0,1025.0,1025.0,1024.0,1025.0,1024.0,1024.0,1025.0,1023.0,1024.0,1024.0,1025.0,1024.0,1025.0,1025.0,1024.0,1024.0,1025.0,1024.0,1024.0,1024.0,1025.0,1024.0,1024.0,1024.0,1024.0,1024.0,1023.0,1023.0,1024.0,1022.0,1024.0,1022.0,1024.0,1023.0,1023.0,1023.0,1020.0,1022.0,1023.0,1024.0,1023.0,1024.0,1024.0,1024.0,1023.0,1022.0,1023.0,1024.0,1023.0,1024.0,1024.0,1023.0,1023.0,1023.0,1024.0,1024.0,1025.0,1025.0,1024.0,1025.0,1023.0,1024.0,1024.0,1026.0,1025.0,1024.0,1024.0,1024.0,1025.0,1024.0,1026.0,1026.0,1025.0,1024.0,1025.0,1025.0,1030.0,1029.0,1027.0,1025.0,1028.0,1027.0,1033.0,1033.0,1029.0,1025.0,1030.0,1031.0,1036.0,1038.0,1031.0,1026.0,1033.0,1037.0,1037.0,1046.0,1032.0,1027.0,1035.0,1037.0,1034.0,1046.0,1034.0,1029.0,1038.0,1039.0,1033.0,1048.0,1035.0,1032.0,1040.0,1041.0,1034.0,1050.0,1034.0,1032.0,1035.0,1035.0,1031.0,1044.0,1032.0,1036.0,1036.0,1036.0,1030.0,1040.0,1031.0,1023.0,1023.0,1022.0,1023.0,1024.0,1022.0,1039.0,1041.0,1036.0,1033.0,1040.0,1034.0,1035.0,1038.0,1033.0,1034.0,1041.0,1033.0,1028.0,1029.0,1026.0,1028.0,1030.0,1999,2040,1909,	00:31:41.402,0.0556640625,0.05126953125,1.01806640625,-0.1220703125,0.1220703125,0.06103515625,2.83447265625,-3.1475830078125,52.7728271484375,450.0,-1595.0,-2562.0,0.8948974609375,0.034332275390625,-0.013641357421875,0.444732666015625,2.832595951168909,-3.1492229178180327,48.162935823927036,0.9120655215819606,0.03376569896714205,-0.014998043806073391,0.40837656714933784,1,	00:31:41.403,0.02880859375,0.046875,1.0068359375,-1.64794921875,-1.708984375,-0.48828125,2.6861572265625,-1.6534423828125,116.597900390625,-416.0,-1254.0,-1953.0,-0.524993896484375,-0.024566650390625,-0.012359619140625,-0.850677490234375,2.6838772572403946,-1.6528746549401587,117.95500855698947,-0.5148901624195258,-0.024425446159065375,-0.01263577360564845,-0.8568149481941312,1
1782117408.632430,0.042,1024.0,1024.0,1024.0,1023.0,1023.0,1022.0,1023.0,1023.0,1023.0,1024.0,1024.0,1023.0,1024.0,1024.0,1023.0,1023.0,1023.0,1024.0,1024.0,1024.0,1024.0,1023.0,1023.0,1023.0,1024.0,1024.0,1023.0,1024.0,1024.0,1023.0,1023.0,1023.0,1023.0,1023.0,1024.0,1023.0,1024.0,1024.0,1023.0,1023.0,1023.0,1023.0,1023.0,1024.0,1023.0,1024.0,1024.0,1023.0,1023.0,1022.0,1022.0,1023.0,1023.0,1024.0,1023.0,1024.0,1024.0,1023.0,1023.0,1023.0,1022.0,1023.0,1023.0,1023.0,1023.0,1023.0,1023.0,1023.0,1023.0,1021.0,1022.0,1023.0,1023.0,1023.0,1023.0,1024.0,1024.0,1023.0,1023.0,1023.0,1022.0,1023.0,1024.0,1025.0,1025.0,1024.0,1024.0,1024.0,1024.0,1024.0,1023.0,1024.0,1024.0,1025.0,1025.0,1025.0,1025.0,1024.0,1024.0,1025.0,1024.0,1024.0,1023.0,1025.0,1024.0,1024.0,1024.0,1023.0,1024.0,1023.0,1023.0,1023.0,1023.0,1023.0,1022.0,1023.0,1024.0,1023.0,1023.0,1021.0,1022.0,1023.0,1024.0,1023.0,1024.0,1024.0,1023.0,1023.0,1022.0,1023.0,1024.0,1023.0,1024.0,1024.0,1023.0,1023.0,1024.0,1025.0,1024.0,1025.0,1025.0,1024.0,1025.0,1024.0,1024.0,1024.0,1025.0,1026.0,1024.0,1024.0,1023.0,1025.0,1024.0,1026.0,1026.0,1025.0,1024.0,1025.0,1025.0,1030.0,1030.0,1027.0,1024.0,1028.0,1027.0,1033.0,1033.0,1029.0,1025.0,1030.0,1030.0,1037.0,1038.0,1031.0,1026.0,1034.0,1036.0,1038.0,1046.0,1033.0,1027.0,1035.0,1036.0,1034.0,1046.0,1034.0,1029.0,1038.0,1039.0,1034.0,1048.0,1035.0,1032.0,1040.0,1041.0,1033.0,1050.0,1034.0,1031.0,1035.0,1035.0,1031.0,1044.0,1032.0,1034.0,1035.0,1036.0,1031.0,1041.0,1031.0,1023.0,1023.0,1022.0,1023.0,1024.0,1022.0,1038.0,1041.0,1035.0,1033.0,1041.0,1034.0,1034.0,1038.0,1033.0,1034.0,1041.0,1033.0,1028.0,1029.0,1027.0,1028.0,1031.0,1999,2040,1910,	00:31:41.412,0.05419921875,0.05126953125,1.01806640625,-0.1220703125,0.1220703125,0.06103515625,2.8729248046875,-3.065185546875,52.7728271484375,449.0,-1594.0,-2562.0,0.894927978515625,0.0343017578125,-0.0128173828125,0.4447021484375,2.870779634903946,-3.065289724892522,48.16146793737746,0.9120850592370586,0.03377121989264234,-0.014193943875227988,0.4083612143443116,1,	00:31:41.413,0.02978515625,0.0458984375,1.005859375,-1.77001953125,-1.77001953125,-0.48828125,2.5872802734375,-1.7138671875,116.597900390625,-416.0,-1253.0,-1957.0,-0.5250244140625,-0.02459716796875,-0.0113525390625,-0.85064697265625,2.587130689598534,-1.7164766458039544,117.95163822520651,-0.5149208604416601,-0.02446644707255242,-0.011625560334254059,-0.8568096327636502,1
1782117408.640953,0.050,1023.0,1023.0,1024.0,1023.0,1023.0,1022.0,1023.0,1024.0,1022.0,1023.0,1024.0,1023.0,1023.0,1024.0,1023.0,1023.0,1024.0,1024.0,1023.0,1023.0,1024.0,1023.0,1023.0,1023.0,1024.0,1024.0,1023.0,1024.0,1024.0,1023.0,1023.0,1023.0,1023.0,1023.0,1024.0,1023.0,1023.0,1024.0,1023.0,1023.0,1023.0,1022.0,1023.0,1024.0,1023.0,1024.0,1024.0,1023.0,1023.0,1022.0,1023.0,1024.0,1023.0,1024.0,1023.0,1024.0,1024.0,1023.0,1022.0,1023.0,1023.0,1024.0,1023.0,1024.0,1023.0,1024.0,1024.0,1023.0,1023.0,1022.0,1022.0,1024.0,1023.0,1024.0,1023.0,1023.0,1024.0,1023.0,1023.0,1022.0,1023.0,1023.0,1024.0,1025.0,1024.0,1024.0,1025.0,1024.0,1024.0,1024.0,1024.0,1024.0,1024.0,1025.0,1025.0,1025.0,1025.0,1024.0,1024.0,1025.0,1023.0,1024.0,1024.0,1025.0,1024.0,1025.0,1025.0,1024.0,1024.0,1023.0,1023.0,1024.0,1023.0,1023.0,1022.0,1024.0,1023.0,1023.0,1023.0,1021.0,1023.0,1022.0,1024.0,1023.0,1024.0,1023.0,1023.0,1023.0,1022.0,1023.0,1024.0,1023.0,1024.0,1024.0,1024.0,1023.0,1024.0,1024.0,1024.0,1025.0,1025.0,1024.0,1024.0,1023.0,1024.0,1024.0,1025.0,1026.0,1024.0,1025.0,1023.0,1024.0,1024.0,1026.0,1027.0,1025.0,1024.0,1026.0,1025.0,1030.0,1030.0,1027.0,1024.0,1028.0,1027.0,1034.0,1033.0,1030.0,1025.0,1030.0,1030.0,1037.0,1038.0,1031.0,1026.0,1034.0,1036.0,1038.0,1046.0,1033.0,1026.0,1034.0,1036.0,1034.0,1045.0,1033.0,1029.0,1037.0,1039.0,1034.0,1048.0,1035.0,1032.0,1039.0,1041.0,1034.0,1050.0,1035.0,1031.0,1035.0,1035.0,1031.0,1043.0,1032.0,1035.0,1035.0,1035.0,1031.0,1040.0,1031.0,1023.0,1023.0,1022.0,1023.0,1024.0,1022.0,1038.0,1040.0,1035.0,1033.0,1041.0,1034.0,1034.0,1038.0,1033.0,1034.0,1041.0,1033.0,1028.0,1029.0,1026.0,1028.0,1031.0,2000,2040,1909,	00:31:41.422,0.05615234375,0.05224609375,1.01708984375,-0.1220703125,0.1220703125,0.06103515625,2.9278564453125,-3.1365966796875,52.767333984375,448.0,-1592.0,-2564.0,0.8948974609375,0.035003662109375,-0.01318359375,0.4447021484375,2.925365010667481,-3.1365541024084815,48.15911959951607,0.9120554053203415,0.034458568447209105,-0.014567685160409929,0.4083568626037568,1,	00:31:41.423,0.02978515625,0.04736328125,1.0107421875,-2.01416015625,-1.8310546875,-0.42724609375,2.6531982421875,-1.7083740234375,116.5869140625,-414.0,-1254.0,-1955.0,-0.525054931640625,-0.02484130859375,-0.011871337890625,-0.850616455078125,2.6545060660216175,-1.7068557118979009,117.94393024490529,-0.5149663301385748,-0.024698109067078155,-0.012170948366172324,-0.856768084284182,1
1782117408.651344,0.061,1024.0,1023.0,1024.0,1023.0,1023.0,1022.0,1023.0,1024.0,1023.0,1024.0,1024.0,1023.0,1023.0,1024.0,1023.0,1023.0,1024.0,1024.0,1023.0,1023.0,1024.0,1024.0,1023.0,1023.0,1023.0,1024.0,1023.0,1024.0,1024.0,1023.0,1023.0,1023.0,1023.0,1023.0,1024.0,1023.0,1024.0,1024.0,1023.0,1022.0,1023.0,1022.0,1023.0,1024.0,1023.0,1023.0,1024.0,1023.0,1023.0,1023.0,1023.0,1024.0,1024.0,1024.0,1024.0,1024.0,1024.0,1023.0,1023.0,1023.0,1023.0,1023.0,1022.0,1024.0,1022.0,1023.0,1024.0,1023.0,1022.0,1021.0,1022.0,1023.0,1023.0,1024.0,1023.0,1024.0,1024.0,1023.0,1023.0,1023.0,1023.0,1023.0,1024.0,1025.0,1024.0,1025.0,1025.0,1024.0,1024.0,1025.0,1023.0,1024.0,1024.0,1024.0,1024.0,1025.0,1025.0,1023.0,1024.0,1024.0,1023.0,1024.0,1024.0,1024.0,1023.0,1024.0,1025.0,1024.0,1024.0,1023.0,1023.0,1023.0,1022.0,1023.0,1022.0,1024.0,1024.0,1023.0,1023.0,1020.0,1022.0,1023.0,1024.0,1023.0,1024.0,1024.0,1024.0,1024.0,1022.0,1023.0,1024.0,1023.0,1024.0,1024.0,1024.0,1023.0,1023.0,1025.0,1024.0,1025.0,1026.0,1025.0,1024.0,1023.0,1024.0,1024.0,1025.0,1026.0,1024.0,1024.0,1024.0,1024.0,1024.0,1026.0,1026.0,1025.0,1024.0,1025.0,1025.0,1030.0,1030.0,1027.0,1024.0,1028.0,1028.0,1033.0,1033.0,1029.0,1024.0,1029.0,1030.0,1036.0,1037.0,1031.0,1026.0,1033.0,1036.0,1038.0,1047.0,1032.0,1027.0,1034.0,1036.0,1034.0,1046.0,1034.0,1028.0,1037.0,1038.0,1034.0,1049.0,1035.0,1032.0,1039.0,1040.0,1034.0,1051.0,1035.0,1031.0,1034.0,1035.0,1031.0,1044.0,1032.0,1035.0,1035.0,1035.0,1030.0,1041.0,1031.0,1023.0,1023.0,1022.0,1023.0,1024.0,1022.0,1037.0,1040.0,1035.0,1032.0,1040.0,1035.0,1034.0,1038.0,1033.0,1034.0,1040.0,1034.0,1028.0,1029.0,1025.0,1028.0,1031.0,2000,2041,1910,	00:31:41.432,0.05615234375,0.05078125,1.0166015625,0.0,0.1220703125,0.0,2.8399658203125,-3.1640625,52.7728271484375,450.0,-1594.0,-2563.0,0.8948974609375,0.034423828125,-0.013702392578125,0.444732666015625,2.837983991650163,-3.1633361586274367,48.16398332666834,0.9120558600913228,0.03385886474223418,-0.0150909318306995,0.4083870090097451,1,	00:31:41.434,0.02978515625,0.044921875,1.0068359375,-2.197265625,-2.01416015625,-0.42724609375,2.5433349609375,-1.7138671875,116.5869140625,-415.0,-1253.0,-1955.0,-0.525115966796875,-0.024383544921875,-0.011016845703125,-0.850616455078125,2.5419793252511513,-1.7140133462193794,117.94143587475804,-0.5150073171878022,-0.02424615093707083,-0.011296882036534407,-0.8567683280000562,1
1782117408.662248,0.071,1024.0,1023.0,1023.0,1023.0,1023.0,1022.0,1023.0,1023.0,1023.0,1023.0,1023.0,1023.0,1023.0,1024.0,1023.0,1023.0,1024.0,1024.0,1023.0,1024.0,1024.0,1023.0,1023.0,1024.0,1023.0,1024.0,1023.0,1024.0,1024.0,1024.0,1024.0,1023.0,1022.0,1023.0,1024.0,1023.0,1024.0,1024.0,1023.0,1023.0,1023.0,1023.0,1023.0,1024.0,1023.0,1023.0,1024.0,1023.0,1023.0,1022.0,1022.0,1024.0,1023.0,1024.0,1023.0,1023.0,1024.0,1024.0,1024.0,1023.0,1022.0,1023.0,1023.0,1024.0,1022.0,1023.0,1023.0,1024.0,1023.0,1022.0,1022.0,1023.0,1023.0,1024.0,1023.0,1024.0,1024.0,1023.0,1024.0,1022.0,1023.0,1024.0,1024.0,1024.0,1025.0,1024.0,1024.0,1024.0,1024.0,1025.0,1023.0,1024.0,1024.0,1025.0,1024.0,1025.0,1025.0,1024.0,1024.0,1024.0,1023.0,1024.0,1024.0,1024.0,1024.0,1025.0,1025.0,1024.0,1024.0,1023.0,1023.0,1024.0,1023.0,1023.0,1022.0,1023.0,1024.0,1023.0,1023.0,1021.0,1022.0,1023.0,1024.0,1023.0,1024.0,1024.0,1023.0,1023.0,1023.0,1023.0,1024.0,1023.0,1024.0,1024.0,1023.0,1023.0,1023.0,1024.0,1024.0,1025.0,1026.0,1024.0,1024.0,1023.0,1024.0,1024.0,1025.0,1026.0,1024.0,1024.0,1024.0,1024.0,1024.0,1026.0,1026.0,1025.0,1024.0,1025.0,1025.0,1030.0,1030.0,1026.0,1024.0,1028.0,1028.0,1033.0,1033.0,1029.0,1025.0,1029.0,1030.0,1036.0,1037.0,1031.0,1026.0,1033.0,1036.0,1038.0,1047.0,1033.0,1026.0,1035.0,1037.0,1034.0,1046.0,1033.0,1028.0,1038.0,1038.0,1034.0,1049.0,1035.0,1031.0,1040.0,1039.0,1034.0,1051.0,1034.0,1031.0,1035.0,1035.0,1030.0,1045.0,1032.0,1034.0,1035.0,1035.0,1030.0,1041.0,1031.0,1023.0,1023.0,1022.0,1023.0,1024.0,1022.0,1038.0,1040.0,1034.0,1033.0,1042.0,1035.0,1033.0,1037.0,1033.0,1033.0,1041.0,1034.0,1028.0,1029.0,1026.0,1028.0,1031.0,2000,2041,1909,	00:31:41.443,0.05517578125,0.05029296875,1.01806640625,-0.1220703125,0.18310546875,0.06103515625,2.823486328125,-3.0706787109375,52.7728271484375,448.0,-1597.0,-2562.0,0.894927978515625,0.033966064453125,-0.0130615234375,0.444732666015625,2.823003452288967,-3.071066432492248,48.16542981223508,0.9120832028070547,0.03341196835615963,-0.014409050978095273,0.408387378328105,1,	00:31:41.444,0.03125,0.04638671875,1.0048828125,-1.77001953125,-1.89208984375,-0.48828125,2.603759765625,-1.7852783203125,116.575927734375,-417.0,-1252.0,-1957.0,-0.525146484375,-0.025146484375,-0.011138916015625,-0.8505859375,2.601345135623976,-1.7824212311128227,117.93338100088224,-0.5150386056796461,-0.025025007513070845,-0.011431196132064789,-0.8567253418765709,1
1782117408.672072,0.081,1023.0,1023.0,1024.0,1022.0,1023.0,1022.0,1023.0,1023.0,1022.0,1023.0,1024.0,1023.0,1023.0,1024.0,1023.0,1023.0,1023.0,1024.0,1023.0,1024.0,1024.0,1023.0,1023.0,1023.0,1023.0,1024.0,1023.0,1024.0,1024.0,1023.0,1023.0,1023.0,1022.0,1023.0,1024.0,1023.0,1023.0,1024.0,1023.0,1023.0,1022.0,1023.0,1023.0,1024.0,1023.0,1024.0,1024.0,1023.0,1023.0,1022.0,1023.0,1023.0,1023.0,1024.0,1023.0,1024.0,1024.0,1023.0,1023.0,1023.0,1023.0,1024.0,1023.0,1024.0,1023.0,1024.0,1024.0,1023.0,1023.0,1022.0,1023.0,1023.0,1023.0,1023.0,1023.0,1024.0,1024.0,1023.0,1024.0,1023.0,1023.0,1023.0,1024.0,1024.0,1025.0,1024.0,1025.0,1024.0,1024.0,1024.0,1023.0,1024.0,1024.0,1025.0,1024.0,1025.0,1026.0,1024.0,1024.0,1025.0,1023.0,1024.0,1024.0,1025.0,1024.0,1025.0,1025.0,1024.0,1024.0,1023.0,1023.0,1024.0,1022.0,1023.0,1022.0,1023.0,1024.0,1023.0,1023.0,1021.0,1022.0,1023.0,1024.0,1023.0,1024.0,1024.0,1024.0,1023.0,1022.0,1023.0,1024.0,1023.0,1024.0,1024.0,1023.0,1023.0,1023.0,1024.0,1024.0,1025.0,1026.0,1024.0,1024.0,1023.0,1024.0,1024.0,1025.0,1026.0,1024.0,1025.0,1023.0,1025.0,1024.0,1026.0,1027.0,1025.0,1024.0,1025.0,1025.0,1030.0,1030.0,1027.0,1024.0,1028.0,1027.0,1033.0,1034.0,1029.0,1024.0,1030.0,1030.0,1036.0,1038.0,1031.0,1026.0,1034.0,1036.0,1037.0,1046.0,1032.0,1027.0,1035.0,1036.0,1034.0,1047.0,1033.0,1028.0,1038.0,1038.0,1033.0,1049.0,1035.0,1031.0,1040.0,1039.0,1034.0,1051.0,1034.0,1031.0,1035.0,1034.0,1031.0,1044.0,1032.0,1035.0,1036.0,1035.0,1030.0,1041.0,1031.0,1023.0,1022.0,1022.0,1022.0,1024.0,1022.0,1037.0,1040.0,1034.0,1033.0,1041.0,1034.0,1033.0,1038.0,1033.0,1034.0,1041.0,1033.0,1028.0,1029.0,1026.0,1028.0,1032.0,2000,2041,1910,	00:31:41.453,0.0556640625,0.0517578125,1.01708984375,-0.1220703125,0.18310546875,0.06103515625,2.900390625,-3.1201171875,52.7728271484375,451.0,-1595.0,-2561.0,0.8948974609375,0.03472900390625,-0.01312255859375,0.444732666015625,2.8989240370325566,-3.1184866238460227,48.16196438005909,0.9120587478945448,0.03418429373923897,-0.014517167915892453,0.4083742478245738,1,	00:31:41.454,0.02978515625,0.0458984375,1.00537109375,-1.708984375,-1.64794921875,-0.42724609375,2.5982666015625,-1.7083740234375,116.5704345703125,-416.0,-1254.0,-1955.0,-0.52520751953125,-0.02459716796875,-0.011444091796875,-0.850555419921875,2.597486537944011,-1.7079794489147717,117.92795326504698,-0.5150977412616331,-0.024451899369184002,-0.011736163395694247,-0.8567022143272145,1
1782117408.681977,0.091,1024.0,1024.0,1024.0,1023.0,1023.0,1023.0,1023.0,1023.0,1023.0,1023.0,1024.0,1023.0,1024.0,1023.0,1023.0,1023.0,1023.0,1024.0,1023.0,1024.0,1024.0,1023.0,1023.0,1023.0,1024.0,1024.0,1023.0,1024.0,1023.0,1023.0,1023.0,1023.0,1023.0,1023.0,1024.0,1023.0,1024.0,1024.0,1023.0,1023.0,1023.0,1023.0,1023.0,1024.0,1023.0,1023.0,1023.0,1023.0,1023.0,1022.0,1022.0,1023.0,1023.0,1024.0,1023.0,1024.0,1024.0,1023.0,1023.0,1022.0,1023.0,1023.0,1023.0,1024.0,1023.0,1024.0,1024.0,1023.0,1023.0,1022.0,1022.0,1023.0,1023.0,1024.0,1023.0,1024.0,1024.0,1023.0,1023.0,1023.0,1022.0,1024.0,1024.0,1025.0,1025.0,1025.0,1024.0,1024.0,1024.0,1025.0,1023.0,1024.0,1024.0,1025.0,1025.0,1025.0,1025.0,1024.0,1024.0,1024.0,1023.0,1024.0,1024.0,1024.0,1024.0,1025.0,1024.0,1024.0,1023.0,1023.0,1023.0,1024.0,1023.0,1023.0,1022.0,1024.0,1024.0,1023.0,1023.0,1021.0,1022.0,1023.0,1023.0,1023.0,1024.0,1024.0,1023.0,1023.0,1022.0,1023.0,1024.0,1023.0,1024.0,1024.0,1023.0,1023.0,1023.0,1024.0,1024.0,1025.0,1026.0,1024.0,1025.0,1023.0,1025.0,1024.0,1025.0,1026.0,1025.0,1025.0,1024.0,1024.0,1024.0,1026.0,1026.0,1025.0,1024.0,1025.0,1025.0,1030.0,1030.0,1027.0,1024.0,1028.0,1028.0,1034.0,1033.0,1029.0,1025.0,1030.0,1030.0,1037.0,1038.0,1031.0,1026.0,1033.0,1036.0,1038.0,1046.0,1032.0,1027.0,1035.0,1036.0,1035.0,1046.0,1033.0,1028.0,1037.0,1038.0,1034.0,1048.0,1035.0,1031.0,1039.0,1039.0,1034.0,1050.0,1034.0,1031.0,1035.0,1035.0,1030.0,1044.0,1032.0,1034.0,1035.0,1035.0,1031.0,1041.0,1030.0,1023.0,1023.0,1023.0,1023.0,1024.0,1022.0,1038.0,1039.0,1034.0,1033.0,1042.0,1034.0,1034.0,1037.0,1032.0,1034.0,1041.0,1034.0,1028.0,1029.0,1026.0,1028.0,1032.0,2001,2041,1910,	00:31:41.463,0.05517578125,0.0517578125,1.01806640625,-0.06103515625,0.18310546875,0.06103515625,2.9443359375,-3.0377197265625,52.7728271484375,449.0,-1591.0,-2560.0,0.894927978515625,0.034759521484375,-0.0123291015625,0.4447021484375,2.9433537704962514,-3.036852458152928,48.16024690605741,0.9120764686741346,0.03424768502518881,-0.013709200044877341,0.4083572813058015,1,	00:31:41.464,0.029296875,0.046875,1.00537109375,-1.64794921875,-1.64794921875,-0.48828125,2.65869140625,-1.680908203125,116.56494140625,-417.0,-1252.0,-1954.0,-0.525238037109375,-0.024658203125,-0.012054443359375,-0.850494384765625,2.66099934749342,-1.6791401436601299,117.91996302319373,-0.5151507676662436,-0.024522735025004145,-0.01233906245294734,-0.8566598330595148,1
1782117408.692043,0.101,1023.0,1024.0,1024.0,1023.0,1023.0,1023.0,1023.0,1024.0,1023.0,1023.0,1023.0,1024.0,1023.0,1024.0,1023.0,1023.0,1023.0,1024.0,1023.0,1023.0,1024.0,1023.0,1023.0,1023.0,1024.0,1024.0,1024.0,1024.0,1024.0,1023.0,1023.0,1023.0,1022.0,1023.0,1024.0,1024.0,1024.0,1024.0,1024.0,1023.0,1023.0,1023.0,1023.0,1023.0,1023.0,1023.0,1024.0,1023.0,1023.0,1022.0,1022.0,1023.0,1023.0,1024.0,1023.0,1023.0,1024.0,1023.0,1023.0,1023.0,1022.0,1023.0,1023.0,1024.0,1023.0,1023.0,1024.0,1023.0,1023.0,1022.0,1023.0,1023.0,1023.0,1024.0,1023.0,1024.0,1024.0,1023.0,1023.0,1023.0,1022.0,1023.0,1024.0,1024.0,1025.0,1025.0,1025.0,1024.0,1024.0,1024.0,1024.0,1024.0,1024.0,1025.0,1025.0,1025.0,1025.0,1024.0,1024.0,1025.0,1023.0,1024.0,1024.0,1025.0,1024.0,1025.0,1024.0,1024.0,1024.0,1023.0,1023.0,1024.0,1023.0,1023.0,1022.0,1024.0,1024.0,1023.0,1023.0,1020.0,1022.0,1023.0,1024.0,1023.0,1024.0,1024.0,1023.0,1023.0,1022.0,1023.0,1024.0,1023.0,1024.0,1024.0,1023.0,1023.0,1024.0,1024.0,1024.0,1025.0,1025.0,1024.0,1024.0,1023.0,1024.0,1024.0,1025.0,1025.0,1024.0,1025.0,1023.0,1024.0,1025.0,1026.0,1026.0,1025.0,1023.0,1025.0,1025.0,1030.0,1030.0,1027.0,1024.0,1027.0,1028.0,1034.0,1033.0,1029.0,1025.0,1029.0,1030.0,1036.0,1038.0,1031.0,1026.0,1033.0,1036.0,1038.0,1046.0,1032.0,1027.0,1035.0,1036.0,1034.0,1046.0,1034.0,1029.0,1037.0,1038.0,1034.0,1049.0,1035.0,1031.0,1039.0,1040.0,1034.0,1051.0,1034.0,1031.0,1035.0,1035.0,1031.0,1045.0,1031.0,1034.0,1035.0,1035.0,1030.0,1041.0,1031.0,1023.0,1023.0,1022.0,1023.0,1024.0,1022.0,1038.0,1040.0,1035.0,1033.0,1042.0,1034.0,1033.0,1038.0,1032.0,1034.0,1042.0,1032.0,1028.0,1029.0,1026.0,1028.0,1032.0,2001,2041,1910,	00:31:41.473,0.05517578125,0.0517578125,1.01708984375,-0.06103515625,0.18310546875,0.06103515625,2.9058837890625,-3.1201171875,52.7728271484375,450.0,-1595.0,-2561.0,0.8948974609375,0.0347900390625,-0.01312255859375,0.444732666015625,2.903756116045161,-3.1180321228418775,48.16304296473627,0.9120536012495798,0.034221274972219926,-0.01449600584001342,0.40838339657928646,1,	00:31:41.474,0.02978515625,0.046875,1.00537109375,-1.52587890625,-1.5869140625,-0.42724609375,2.691650390625,-1.7742919921875,116.5594482421875,-416.0,-1250.0,-1957.0,-0.5252685546875,-0.0255126953125,-0.011810302734375,-0.8504638671875,2.6887570368659985,-1.7757155757887133,117.91367691011345,-0.5151683162550535,-0.025369849739218527,-0.0121105259842685,-0.8566278724227497,1
1782117408.703094,0.112,1024.0,1023.0,1024.0,1022.0,1023.0,1022.0,1023.0,1023.0,1023.0,1023.0,1024.0,1023.0,1023.0,1024.0,1023.0,1023.0,1023.0,1023.0,1024.0,1024.0,1024.0,1023.0,1023.0,1024.0,1023.0,1024.0,1024.0,1023.0,1024.0,1023.0,1023.0,1023.0,1022.0,1023.0,1024.0,1023.0,1024.0,1024.0,1023.0,1023.0,1023.0,1023.0,1023.0,1023.0,1023.0,1024.0,1024.0,1023.0,1023.0,1022.0,1023.0,1024.0,1023.0,1024.0,1023.0,1024.0,1024.0,1023.0,1023.0,1023.0,1023.0,1024.0,1023.0,1024.0,1023.0,1023.0,1024.0,1023.0,1023.0,1022.0,1023.0,1023.0,1023.0,1024.0,1024.0,1024.0,1024.0,1023.0,1023.0,1023.0,1023.0,1023.0,1024.0,1025.0,1024.0,1024.0,1025.0,1024.0,1024.0,1025.0,1024.0,1024.0,1023.0,1025.0,1025.0,1025.0,1025.0,1024.0,1024.0,1025.0,1024.0,1024.0,1024.0,1025.0,1024.0,1025.0,1025.0,1024.0,1024.0,1023.0,1023.0,1024.0,1023.0,1024.0,1022.0,1023.0,1024.0,1023.0,1022.0,1020.0,1023.0,1023.0,1024.0,1023.0,1024.0,1024.0,1023.0,1023.0,1022.0,1023.0,1024.0,1023.0,1024.0,1024.0,1023.0,1023.0,1023.0,1025.0,1024.0,1025.0,1025.0,1024.0,1024.0,1024.0,1024.0,1024.0,1025.0,1026.0,1024.0,1024.0,1023.0,1024.0,1024.0,1026.0,1026.0,1025.0,1024.0,1025.0,1025.0,1030.0,1030.0,1026.0,1024.0,1027.0,1028.0,1034.0,1033.0,1029.0,1024.0,1030.0,1030.0,1037.0,1038.0,1031.0,1026.0,1033.0,1036.0,1037.0,1046.0,1033.0,1026.0,1034.0,1036.0,1034.0,1046.0,1033.0,1028.0,1037.0,1038.0,1033.0,1048.0,1035.0,1031.0,1039.0,1039.0,1034.0,1051.0,1035.0,1030.0,1035.0,1035.0,1031.0,1044.0,1032.0,1034.0,1035.0,1035.0,1030.0,1041.0,1030.0,1023.0,1022.0,1022.0,1023.0,1024.0,1022.0,1038.0,1040.0,1035.0,1033.0,1042.0,1034.0,1033.0,1037.0,1032.0,1034.0,1041.0,1033.0,1027.0,1029.0,1026.0,1028.0,1032.0,2001,2041,1910,	00:31:41.484,0.0556640625,0.0517578125,1.017578125,-0.06103515625,0.1220703125,0.06103515625,2.96630859375,-3.18603515625,52.7728271484375,450.0,-1592.0,-2562.0,0.894866943359375,0.035491943359375,-0.013397216796875,0.444732666015625,2.9638017071794014,-3.185287113178758,48.16037888737755,0.9120241173327623,0.034937767701776666,-0.014818442338382727,0.40837700174970215,1,	00:31:41.485,0.02978515625,0.0458984375,1.00537109375,-1.40380859375,-1.52587890625,-0.48828125,2.61474609375,-1.724853515625,116.553955078125,-417.0,-1251.0,-1956.0,-0.52532958984375,-0.0247802734375,-0.011474609375,-0.8504638671875,2.6125607363238195,-1.7236616624305883,117.90997760822677,-0.5152251730113739,-0.02463870013474599,-0.011774423116759348,-0.8566197047181073,1
1782117408.713067,0.122,1024.0,1023.0,1024.0,1023.0,1023.0,1023.0,1023.0,1023.0,1022.0,1023.0,1024.0,1023.0,1024.0,1024.0,1023.0,1023.0,1023.0,1024.0,1023.0,1023.0,1024.0,1023.0,1023.0,1024.0,1023.0,1024.0,1023.0,1024.0,1024.0,1024.0,1023.0,1023.0,1023.0,1023.0,1024.0,1023.0,1024.0,1024.0,1024.0,1023.0,1023.0,1023.0,1023.0,1023.0,1023.0,1024.0,1024.0,1023.0,1023.0,1022.0,1022.0,1024.0,1023.0,1023.0,1024.0,1024.0,1024.0,1023.0,1023.0,1022.0,1022.0,1024.0,1023.0,1024.0,1022.0,1024.0,1024.0,1023.0,1023.0,1021.0,1022.0,1024.0,1023.0,1024.0,1023.0,1024.0,1024.0,1023.0,1023.0,1023.0,1022.0,1024.0,1024.0,1025.0,1024.0,1025.0,1025.0,1024.0,1024.0,1025.0,1024.0,1024.0,1024.0,1025.0,1025.0,1025.0,1026.0,1024.0,1024.0,1025.0,1023.0,1024.0,1024.0,1025.0,1024.0,1024.0,1025.0,1024.0,1024.0,1023.0,1022.0,1024.0,1023.0,1024.0,1022.0,1024.0,1024.0,1023.0,1023.0,1021.0,1022.0,1023.0,1023.0,1023.0,1024.0,1024.0,1023.0,1023.0,1023.0,1023.0,1024.0,1023.0,1024.0,1024.0,1024.0,1023.0,1024.0,1024.0,1024.0,1025.0,1025.0,1024.0,1024.0,1023.0,1024.0,1024.0,1026.0,1026.0,1024.0,1024.0,1024.0,1025.0,1024.0,1026.0,1026.0,1024.0,1024.0,1026.0,1025.0,1031.0,1030.0,1027.0,1024.0,1028.0,1028.0,1034.0,1033.0,1029.0,1025.0,1030.0,1030.0,1037.0,1038.0,1031.0,1025.0,1033.0,1036.0,1038.0,1046.0,1033.0,1026.0,1035.0,1036.0,1035.0,1046.0,1034.0,1028.0,1037.0,1038.0,1034.0,1048.0,1034.0,1031.0,1039.0,1039.0,1034.0,1051.0,1034.0,1030.0,1035.0,1035.0,1031.0,1044.0,1032.0,1034.0,1035.0,1035.0,1030.0,1041.0,1031.0,1023.0,1023.0,1023.0,1023.0,1024.0,1022.0,1037.0,1041.0,1034.0,1033.0,1042.0,1033.0,1034.0,1038.0,1032.0,1033.0,1041.0,1033.0,1027.0,1029.0,1026.0,1028.0,1031.0,2001,2041,1910,	00:31:41.494,0.05517578125,0.0517578125,1.01708984375,-0.1220703125,0.1220703125,0.06103515625,2.9168701171875,-3.1036376953125,52.7728271484375,449.0,-1594.0,-2566.0,0.8948974609375,0.034820556640625,-0.012969970703125,0.444732666015625,2.9153698853520043,-3.105739448861263,48.1636402583038,0.9120517711165301,0.034270111946824035,-0.014356538013231997,0.4083883152670107,1,	00:31:41.495,0.0302734375,0.046875,1.00634765625,-1.3427734375,-1.46484375,-0.48828125,2.691650390625,-1.73583984375,116.5484619140625,-416.0,-1250.0,-1955.0,-0.525360107421875,-0.02520751953125,-0.01202392578125,-0.850433349609375,2.6908305365136727,-1.7339435478798777,117.9016696919061,-0.5152678243021426,-0.0250683305885004,-0.012311420187396893,-0.8565740347298716,1
1782117408.723189,0.132,1024.0,1023.0,1023.0,1022.0,1022.0,1022.0,1023.0,1023.0,1023.0,1023.0,1024.0,1024.0,1023.0,1024.0,1023.0,1023.0,1024.0,1024.0,1024.0,1023.0,1024.0,1023.0,1023.0,1022.0,1023.0,1024.0,1023.0,1023.0,1024.0,1023.0,1023.0,1022.0,1022.0,1023.0,1024.0,1023.0,1024.0,1024.0,1023.0,1023.0,1023.0,1023.0,1023.0,1023.0,1023.0,1024.0,1024.0,1023.0,1023.0,1022.0,1023.0,1024.0,1024.0,1024.0,1023.0,1024.0,1024.0,1024.0,1023.0,1023.0,1023.0,1023.0,1023.0,1024.0,1022.0,1023.0,1024.0,1023.0,1022.0,1021.0,1022.0,1024.0,1023.0,1023.0,1023.0,1024.0,1024.0,1023.0,1023.0,1023.0,1023.0,1023.0,1024.0,1024.0,1024.0,1024.0,1025.0,1024.0,1024.0,1025.0,1024.0,1024.0,1024.0,1025.0,1025.0,1025.0,1025.0,1024.0,1024.0,1025.0,1023.0,1024.0,1023.0,1024.0,1024.0,1024.0,1025.0,1024.0,1024.0,1023.0,1023.0,1024.0,1023.0,1024.0,1022.0,1023.0,1024.0,1023.0,1023.0,1020.0,1022.0,1023.0,1024.0,1023.0,1024.0,1024.0,1023.0,1023.0,1023.0,1023.0,1023.0,1023.0,1024.0,1024.0,1023.0,1023.0,1024.0,1024.0,1024.0,1025.0,1025.0,1024.0,1024.0,1023.0,1024.0,1024.0,1025.0,1026.0,1024.0,1024.0,1023.0,1024.0,1024.0,1026.0,1026.0,1024.0,1024.0,1025.0,1026.0,1030.0,1030.0,1027.0,1024.0,1028.0,1028.0,1033.0,1034.0,1030.0,1025.0,1029.0,1030.0,1036.0,1038.0,1031.0,1025.0,1033.0,1035.0,1038.0,1046.0,1033.0,1027.0,1035.0,1036.0,1034.0,1047.0,1034.0,1028.0,1038.0,1038.0,1034.0,1049.0,1035.0,1031.0,1039.0,1040.0,1034.0,1051.0,1035.0,1030.0,1035.0,1035.0,1031.0,1044.0,1031.0,1034.0,1035.0,1035.0,1031.0,1040.0,1030.0,1023.0,1023.0,1022.0,1023.0,1024.0,1022.0,1038.0,1040.0,1034.0,1033.0,1041.0,1034.0,1034.0,1038.0,1032.0,1034.0,1042.0,1033.0,1027.0,1029.0,1026.0,1028.0,1032.0,2001,2041,1909,	00:31:41.504,0.0556640625,0.05224609375,1.01708984375,-0.18310546875,0.18310546875,0.06103515625,2.9827880859375,-3.1640625,52.7728271484375,450.0,-1592.0,-2565.0,0.894866943359375,0.035552978515625,-0.01318359375,0.444732666015625,2.98145403804705,-3.1652067355062097,48.160628069818486,0.9120241267826352,0.03500696110640346,-0.014595536710032053,0.4083790826531308,1,	00:31:41.505,0.029296875,0.044921875,1.00537109375,-1.220703125,-1.40380859375,-0.54931640625,2.5982666015625,-1.7083740234375,116.54296875,-418.0,-1253.0,-1956.0,-0.525421142578125,-0.024566650390625,-0.011444091796875,-0.85040283203125,2.5969626691216208,-1.7066480600176632,117.89797464812547,-0.5153222744746367,-0.02444266497378573,-0.011731844187473537,-0.8565674949420082,1
1782117408.733752,0.143,1024.0,1023.0,1024.0,1023.0,1023.0,1022.0,1023.0,1024.0,1023.0,1023.0,1023.0,1024.0,1024.0,1024.0,1023.0,1023.0,1023.0,1024.0,1023.0,1023.0,1024.0,1023.0,1023.0,1023.0,1024.0,1024.0,1023.0,1023.0,1024.0,1023.0,1023.0,1023.0,1022.0,1023.0,1024.0,1023.0,1024.0,1024.0,1024.0,1024.0,1023.0,1022.0,1023.0,1024.0,1023.0,1024.0,1024.0,1023.0,1024.0,1022.0,1022.0,1024.0,1023.0,1024.0,1023.0,1024.0,1024.0,1023.0,1023.0,1022.0,1023.0,1024.0,1022.0,1024.0,1022.0,1024.0,1023.0,1023.0,1022.0,1022.0,1022.0,1023.0,1023.0,1024.0,1023.0,1024.0,1024.0,1023.0,1023.0,1022.0,1023.0,1024.0,1024.0,1025.0,1025.0,1024.0,1025.0,1024.0,1024.0,1025.0,1023.0,1024.0,1024.0,1025.0,1025.0,1026.0,1025.0,1024.0,1024.0,1025.0,1024.0,1024.0,1024.0,1024.0,1024.0,1025.0,1025.0,1024.0,1024.0,1023.0,1023.0,1024.0,1023.0,1024.0,1022.0,1024.0,1024.0,1023.0,1022.0,1020.0,1022.0,1023.0,1024.0,1023.0,1024.0,1024.0,1024.0,1023.0,1022.0,1022.0,1023.0,1023.0,1024.0,1024.0,1024.0,1022.0,1024.0,1024.0,1024.0,1025.0,1025.0,1024.0,1024.0,1023.0,1024.0,1024.0,1025.0,1026.0,1025.0,1025.0,1023.0,1024.0,1024.0,1026.0,1026.0,1025.0,1024.0,1025.0,1025.0,1030.0,1030.0,1027.0,1024.0,1027.0,1028.0,1034.0,1033.0,1029.0,1025.0,1029.0,1030.0,1036.0,1038.0,1031.0,1026.0,1033.0,1036.0,1037.0,1046.0,1032.0,1027.0,1035.0,1036.0,1034.0,1046.0,1034.0,1029.0,1038.0,1038.0,1033.0,1049.0,1034.0,1032.0,1039.0,1039.0,1034.0,1051.0,1034.0,1031.0,1035.0,1034.0,1031.0,1044.0,1032.0,1034.0,1035.0,1035.0,1030.0,1041.0,1030.0,1022.0,1023.0,1022.0,1023.0,1024.0,1022.0,1038.0,1040.0,1035.0,1033.0,1042.0,1034.0,1034.0,1038.0,1032.0,1033.0,1042.0,1033.0,1028.0,1029.0,1026.0,1027.0,1031.0,2002,2041,1909,	00:31:41.514,0.0556640625,0.05224609375,1.017578125,-0.18310546875,0.244140625,0.06103515625,2.911376953125,-3.1036376953125,52.7728271484375,449.0,-1595.0,-2566.0,0.8948974609375,0.0347900390625,-0.012939453125,0.44476318359375,2.9117191909869127,-3.1014354415839405,48.165074066043104,0.9120490700365147,0.034225943189496746,-0.014334842917376732,0.4083988135840406,1,	00:31:41.516,0.02978515625,0.044921875,1.00537109375,-1.0986328125,-1.46484375,-0.48828125,2.4993896484375,-1.6973876953125,116.5374755859375,-415.0,-1252.0,-1958.0,-0.52545166015625,-0.0240478515625,-0.010772705078125,-0.85040283203125,2.4982964893739967,-1.6951345821921857,117.89503673689731,-0.515367735350715,-0.02391320362262553,-0.011045535393271664,-0.8565642137048771,1
1782117408.743201,0.152,1023.0,1024.0,1023.0,1023.0,1023.0,1022.0,1023.0,1024.0,1022.0,1023.0,1023.0,1023.0,1023.0,1024.0,1023.0,1022.0,1023.0,1024.0,1023.0,1024.0,1023.0,1023.0,1023.0,1023.0,1023.0,1023.0,1024.0,1024.0,1024.0,1023.0,1023.0,1022.0,1022.0,1023.0,1023.0,1023.0,1024.0,1024.0,1024.0,1023.0,1023.0,1022.0,1023.0,1023.0,1023.0,1023.0,1024.0,1023.0,1023.0,1022.0,1022.0,1024.0,1023.0,1023.0,1023.0,1024.0,1024.0,1023.0,1023.0,1023.0,1022.0,1024.0,1023.0,1024.0,1022.0,1023.0,1024.0,1023.0,1023.0,1022.0,1023.0,1023.0,1023.0,1024.0,1023.0,1024.0,1024.0,1023.0,1023.0,1023.0,1023.0,1023.0,1024.0,1025.0,1025.0,1024.0,1025.0,1024.0,1024.0,1024.0,1023.0,1024.0,1024.0,1025.0,1024.0,1025.0,1025.0,1024.0,1024.0,1025.0,1023.0,1024.0,1024.0,1025.0,1024.0,1025.0,1024.0,1024.0,1024.0,1023.0,1023.0,1024.0,1022.0,1023.0,1023.0,1023.0,1024.0,1023.0,1023.0,1020.0,1022.0,1023.0,1024.0,1023.0,1024.0,1024.0,1023.0,1023.0,1022.0,1023.0,1024.0,1023.0,1024.0,1024.0,1024.0,1023.0,1023.0,1025.0,1025.0,1025.0,1025.0,1024.0,1024.0,1023.0,1024.0,1024.0,1025.0,1026.0,1024.0,1025.0,1023.0,1024.0,1023.0,1026.0,1026.0,1025.0,1024.0,1026.0,1025.0,1030.0,1030.0,1027.0,1025.0,1028.0,1028.0,1033.0,1033.0,1029.0,1025.0,1029.0,1031.0,1036.0,1038.0,1031.0,1026.0,1033.0,1035.0,1038.0,1047.0,1033.0,1026.0,1035.0,1036.0,1034.0,1046.0,1034.0,1029.0,1038.0,1038.0,1033.0,1049.0,1034.0,1031.0,1040.0,1040.0,1033.0,1051.0,1034.0,1031.0,1035.0,1034.0,1030.0,1045.0,1031.0,1034.0,1036.0,1035.0,1030.0,1041.0,1030.0,1023.0,1023.0,1022.0,1023.0,1024.0,1022.0,1038.0,1041.0,1034.0,1033.0,1041.0,1034.0,1033.0,1039.0,1032.0,1034.0,1042.0,1033.0,1027.0,1030.0,1026.0,1028.0,1031.0,2002,2041,1909,	00:31:41.525,0.0556640625,0.0517578125,1.01708984375,-0.18310546875,0.18310546875,0.06103515625,2.9168701171875,-3.1915283203125,52.7783203125,450.0,-1594.0,-2562.0,0.894866943359375,0.03515625,-0.013641357421875,0.44476318359375,2.914713840944811,-3.1910312166560844,48.16551215869956,0.9120189129730394,0.03456815772282845,-0.015037576374014788,0.4084120666042093,1,	00:31:41.526,0.02978515625,0.04541015625,1.00634765625,-1.0986328125,-1.3427734375,-0.48828125,2.581787109375,-1.7083740234375,116.531982421875,-416.0,-1253.0,-1957.0,-0.5255126953125,-0.024505615234375,-0.011322021484375,-0.850372314453125,2.5790835283502482,-1.7066662297699686,117.886852936732,-0.5154092097071408,-0.024363522858117055,-0.011595751801186608,-0.8565192956630736,1
1782117408.753665,0.163,1023.0,1024.0,1023.0,1023.0,1023.0,1023.0,1023.0,1024.0,1023.0,1024.0,1023.0,1024.0,1023.0,1024.0,1023.0,1023.0,1024.0,1024.0,1024.0,1024.0,1024.0,1024.0,1023.0,1024.0,1023.0,1024.0,1023.0,1024.0,1024.0,1023.0,1023.0,1023.0,1023.0,1023.0,1024.0,1024.0,1024.0,1024.0,1023.0,1023.0,1023.0,1023.0,1023.0,1023.0,1022.0,1024.0,1024.0,1023.0,1023.0,1022.0,1023.0,1023.0,1023.0,1024.0,1023.0,1023.0,1024.0,1023.0,1023.0,1023.0,1023.0,1024.0,1023.0,1023.0,1023.0,1023.0,1024.0,1023.0,1022.0,1022.0,1022.0,1023.0,1023.0,1024.0,1023.0,1023.0,1024.0,1023.0,1023.0,1022.0,1023.0,1023.0,1024.0,1025.0,1024.0,1024.0,1024.0,1024.0,1024.0,1025.0,1023.0,1024.0,1024.0,1025.0,1024.0,1025.0,1025.0,1024.0,1024.0,1025.0,1024.0,1024.0,1024.0,1025.0,1024.0,1025.0,1026.0,1024.0,1023.0,1023.0,1024.0,1024.0,1023.0,1024.0,1022.0,1023.0,1024.0,1023.0,1023.0,1021.0,1022.0,1023.0,1024.0,1023.0,1023.0,1024.0,1024.0,1023.0,1022.0,1023.0,1024.0,1023.0,1024.0,1024.0,1023.0,1023.0,1024.0,1024.0,1024.0,1025.0,1025.0,1025.0,1025.0,1024.0,1024.0,1024.0,1025.0,1026.0,1024.0,1024.0,1023.0,1024.0,1024.0,1026.0,1026.0,1025.0,1024.0,1026.0,1025.0,1030.0,1030.0,1027.0,1024.0,1027.0,1028.0,1033.0,1033.0,1029.0,1025.0,1029.0,1030.0,1036.0,1038.0,1031.0,1026.0,1033.0,1036.0,1038.0,1046.0,1032.0,1027.0,1035.0,1036.0,1034.0,1046.0,1033.0,1028.0,1038.0,1038.0,1033.0,1049.0,1034.0,1032.0,1040.0,1040.0,1034.0,1051.0,1034.0,1031.0,1035.0,1035.0,1031.0,1045.0,1031.0,1034.0,1036.0,1035.0,1030.0,1041.0,1031.0,1023.0,1023.0,1022.0,1023.0,1024.0,1022.0,1038.0,1042.0,1035.0,1033.0,1042.0,1034.0,1034.0,1039.0,1032.0,1034.0,1042.0,1033.0,1028.0,1030.0,1026.0,1028.0,1032.0,2002,2041,1910,	00:31:41.535,0.05517578125,0.05126953125,1.01806640625,-0.18310546875,0.244140625,0.06103515625,2.8839111328125,-3.1036376953125,52.7783203125,449.0,-1592.0,-2563.0,0.8948974609375,0.0345458984375,-0.0130615234375,0.44476318359375,2.8832150440537188,-3.1020795600542392,48.16787181011415,0.9120473876339569,0.03400171511168114,-0.014440729531795898,0.40841756990870093,1,	00:31:41.536,0.029296875,0.044921875,1.005859375,-1.03759765625,-1.3427734375,-0.48828125,2.52685546875,-1.636962890625,116.5264892578125,-415.0,-1252.0,-1955.0,-0.52557373046875,-0.02374267578125,-0.011199951171875,-0.850341796875,2.5248132321656067,-1.6395740654754059,117.88264857993474,-0.515467573747641,-0.02361855298036286,-0.01149133906040675,-0.8565064468504794,1
1782117408.764760,0.174,1023.0,1024.0,1023.0,1022.0,1023.0,1022.0,1024.0,1023.0,1023.0,1024.0,1024.0,1023.0,1024.0,1023.0,1023.0,1023.0,1023.0,1024.0,1024.0,1023.0,1024.0,1023.0,1024.0,1023.0,1024.0,1024.0,1024.0,1023.0,1024.0,1023.0,1023.0,1023.0,1023.0,1024.0,1024.0,1023.0,1023.0,1024.0,1023.0,1023.0,1023.0,1022.0,1023.0,1023.0,1022.0,1023.0,1024.0,1023.0,1023.0,1022.0,1022.0,1023.0,1024.0,1024.0,1023.0,1024.0,1024.0,1023.0,1023.0,1023.0,1023.0,1023.0,1023.0,1024.0,1023.0,1023.0,1024.0,1023.0,1023.0,1022.0,1023.0,1023.0,1023.0,1024.0,1023.0,1024.0,1024.0,1023.0,1023.0,1023.0,1023.0,1024.0,1024.0,1025.0,1025.0,1025.0,1025.0,1024.0,1024.0,1025.0,1024.0,1024.0,1024.0,1025.0,1025.0,1025.0,1025.0,1024.0,1024.0,1025.0,1024.0,1024.0,1024.0,1024.0,1024.0,1025.0,1025.0,1024.0,1024.0,1023.0,1023.0,1024.0,1023.0,1023.0,1023.0,1023.0,1024.0,1023.0,1023.0,1020.0,1022.0,1023.0,1024.0,1024.0,1024.0,1024.0,1024.0,1023.0,1022.0,1023.0,1024.0,1023.0,1023.0,1024.0,1023.0,1024.0,1024.0,1024.0,1024.0,1026.0,1025.0,1025.0,1025.0,1024.0,1025.0,1024.0,1025.0,1026.0,1024.0,1024.0,1023.0,1024.0,1024.0,1026.0,1026.0,1025.0,1024.0,1026.0,1025.0,1030.0,1030.0,1027.0,1024.0,1028.0,1027.0,1033.0,1033.0,1030.0,1025.0,1030.0,1030.0,1036.0,1037.0,1031.0,1026.0,1033.0,1036.0,1038.0,1046.0,1033.0,1026.0,1035.0,1037.0,1034.0,1047.0,1034.0,1029.0,1038.0,1039.0,1034.0,1049.0,1034.0,1032.0,1040.0,1040.0,1034.0,1051.0,1034.0,1032.0,1035.0,1035.0,1031.0,1045.0,1031.0,1034.0,1035.0,1035.0,1030.0,1040.0,1030.0,1023.0,1024.0,1022.0,1023.0,1024.0,1022.0,1038.0,1041.0,1035.0,1033.0,1041.0,1034.0,1033.0,1039.0,1033.0,1034.0,1042.0,1034.0,1028.0,1029.0,1026.0,1028.0,1032.0,2002,2041,1910,	00:31:41.545,0.0546875,0.0517578125,1.017578125,-0.244140625,0.18310546875,0.06103515625,2.9443359375,-3.0322265625,52.7728271484375,450.0,-1596.0,-2563.0,0.8948974609375,0.034759521484375,-0.012298583984375,0.44476318359375,2.9442361999477713,-3.0340764624576075,48.165174344449234,0.9120594841592754,0.03424543457448642,-0.013682474258304236,0.4083962995230147,1,	00:31:41.546,0.0302734375,0.044921875,1.00634765625,-1.03759765625,-1.28173828125,-0.48828125,2.548828125,-1.73583984375,116.52099609375,-417.0,-1252.0,-1955.0,-0.52557373046875,-0.02459716796875,-0.01092529296875,-0.850311279296875,2.5471407906926364,-1.7377793012314289,117.87625345567196,-0.515487931783536,-0.024453350668591358,-0.011214635798479946,-0.8564744349777866,1
1782117408.774832,0.184,1023.0,1024.0,1023.0,1023.0,1023.0,1022.0,1023.0,1024.0,1023.0,1023.0,1023.0,1024.0,1023.0,1024.0,1023.0,1023.0,1024.0,1024.0,1023.0,1023.0,1024.0,1023.0,1023.0,1023.0,1023.0,1024.0,1023.0,1024.0,1024.0,1024.0,1023.0,1023.0,1022.0,1023.0,1024.0,1024.0,1024.0,1024.0,1024.0,1023.0,1023.0,1023.0,1023.0,1024.0,1023.0,1024.0,1024.0,1023.0,1024.0,1022.0,1022.0,1024.0,1023.0,1024.0,1023.0,1024.0,1023.0,1023.0,1023.0,1023.0,1023.0,1023.0,1022.0,1024.0,1023.0,1024.0,1023.0,1023.0,1023.0,1022.0,1022.0,1024.0,1023.0,1023.0,1024.0,1023.0,1024.0,1023.0,1023.0,1022.0,1023.0,1024.0,1024.0,1024.0,1025.0,1024.0,1025.0,1024.0,1024.0,1025.0,1023.0,1024.0,1024.0,1026.0,1025.0,1025.0,1025.0,1024.0,1024.0,1024.0,1023.0,1024.0,1024.0,1025.0,1024.0,1025.0,1025.0,1023.0,1024.0,1023.0,1023.0,1024.0,1022.0,1024.0,1023.0,1023.0,1024.0,1023.0,1023.0,1020.0,1022.0,1023.0,1024.0,1023.0,1024.0,1024.0,1023.0,1023.0,1022.0,1023.0,1024.0,1023.0,1024.0,1024.0,1023.0,1023.0,1023.0,1024.0,1024.0,1025.0,1026.0,1024.0,1025.0,1023.0,1025.0,1024.0,1025.0,1026.0,1024.0,1024.0,1024.0,1025.0,1024.0,1026.0,1026.0,1025.0,1024.0,1025.0,1025.0,1030.0,1029.0,1027.0,1024.0,1028.0,1028.0,1034.0,1034.0,1029.0,1025.0,1029.0,1030.0,1037.0,1038.0,1031.0,1026.0,1033.0,1036.0,1038.0,1046.0,1033.0,1027.0,1036.0,1036.0,1034.0,1047.0,1034.0,1029.0,1038.0,1039.0,1033.0,1048.0,1034.0,1031.0,1040.0,1040.0,1034.0,1051.0,1034.0,1031.0,1035.0,1035.0,1031.0,1044.0,1032.0,1034.0,1036.0,1036.0,1030.0,1040.0,1030.0,1023.0,1023.0,1022.0,1023.0,1025.0,1022.0,1038.0,1041.0,1035.0,1033.0,1041.0,1034.0,1034.0,1039.0,1032.0,1034.0,1041.0,1033.0,1028.0,1029.0,1026.0,1028.0,1031.0,2003,2041,1909,	00:31:41.555,0.05517578125,0.0517578125,1.01708984375,-0.244140625,0.244140625,0.06103515625,2.9058837890625,-3.1146240234375,52.7783203125,448.0,-1594.0,-2560.0,0.894866943359375,0.034759521484375,-0.013092041015625,0.44476318359375,2.9032342637130326,-3.1148448615186055,48.16797811118695,0.9120371459859483,0.034206420893801284,-0.014471008856269054,0.4084222753647553,1,	00:31:41.557,0.02978515625,0.04541015625,1.00634765625,-1.0986328125,-1.3427734375,-0.48828125,2.5927734375,-1.680908203125,116.5155029296875,-416.0,-1253.0,-1957.0,-0.525634765625,-0.024383544921875,-0.01153564453125,-0.85028076171875,2.5947075154199495,-1.68028207570186,117.86902947742018,-0.5155453189441047,-0.02423850643026016,-0.011827566358378797,-0.8564377546528936,1
1782117408.784478,0.194,1024.0,1023.0,1024.0,1022.0,1023.0,1023.0,1023.0,1024.0,1022.0,1023.0,1024.0,1024.0,1023.0,1023.0,1023.0,1023.0,1024.0,1024.0,1024.0,1024.0,1024.0,1023.0,1023.0,1023.0,1023.0,1024.0,1024.0,1023.0,1024.0,1024.0,1023.0,1023.0,1023.0,1023.0,1024.0,1024.0,1024.0,1024.0,1024.0,1023.0,1023.0,1023.0,1023.0,1024.0,1023.0,1024.0,1024.0,1023.0,1022.0,1023.0,1022.0,1023.0,1024.0,1024.0,1023.0,1024.0,1024.0,1023.0,1023.0,1023.0,1023.0,1023.0,1023.0,1024.0,1022.0,1024.0,1024.0,1023.0,1022.0,1022.0,1022.0,1024.0,1023.0,1024.0,1023.0,1024.0,1024.0,1024.0,1023.0,1022.0,1023.0,1023.0,1024.0,1025.0,1025.0,1024.0,1024.0,1024.0,1024.0,1024.0,1024.0,1023.0,1024.0,1025.0,1025.0,1025.0,1025.0,1024.0,1024.0,1024.0,1024.0,1024.0,1024.0,1025.0,1024.0,1024.0,1025.0,1024.0,1024.0,1023.0,1022.0,1023.0,1022.0,1024.0,1022.0,1024.0,1023.0,1023.0,1023.0,1021.0,1022.0,1023.0,1024.0,1023.0,1024.0,1024.0,1023.0,1023.0,1022.0,1023.0,1024.0,1022.0,1024.0,1024.0,1023.0,1023.0,1024.0,1024.0,1024.0,1025.0,1025.0,1025.0,1025.0,1023.0,1024.0,1024.0,1025.0,1026.0,1024.0,1024.0,1023.0,1024.0,1024.0,1026.0,1026.0,1025.0,1023.0,1026.0,1025.0,1031.0,1030.0,1028.0,1025.0,1027.0,1028.0,1033.0,1034.0,1029.0,1024.0,1029.0,1031.0,1036.0,1038.0,1031.0,1026.0,1033.0,1036.0,1038.0,1046.0,1032.0,1027.0,1035.0,1036.0,1035.0,1046.0,1034.0,1029.0,1038.0,1038.0,1034.0,1048.0,1034.0,1032.0,1040.0,1040.0,1034.0,1050.0,1034.0,1031.0,1034.0,1035.0,1031.0,1045.0,1031.0,1035.0,1036.0,1035.0,1031.0,1040.0,1031.0,1023.0,1023.0,1022.0,1023.0,1024.0,1022.0,1038.0,1041.0,1035.0,1033.0,1041.0,1034.0,1033.0,1038.0,1032.0,1034.0,1041.0,1034.0,1028.0,1029.0,1026.0,1028.0,1032.0,2003,2041,1910,	00:31:41.566,0.0546875,0.0517578125,1.0185546875,-0.18310546875,0.244140625,0.06103515625,2.911376953125,-3.021240234375,52.7783203125,451.0,-1592.0,-2561.0,0.8948974609375,0.03448486328125,-0.0123291015625,0.44476318359375,2.9128460498295463,-3.021584654597779,48.16809631103928,0.9120621756896145,0.033951555574937654,-0.013693994300334677,0.40841443910624825,1,	00:31:41.567,0.029296875,0.04541015625,1.005859375,-1.0986328125,-1.40380859375,-0.54931640625,2.5323486328125,-1.6204833984375,116.510009765625,-417.0,-1249.0,-1954.0,-0.52569580078125,-0.02362060546875,-0.0113525390625,-0.850250244140625,2.5304380323147453,-1.6197102833472223,117.86443723018003,-0.5156070765962798,-0.023497287681900295,-0.011619093840581372,-0.8564240869416014,1
1782117408.795358,0.205,1023.0,1023.0,1023.0,1023.0,1023.0,1023.0,1023.0,1024.0,1022.0,1023.0,1024.0,1023.0,1023.0,1024.0,1023.0,1024.0,1023.0,1024.0,1024.0,1023.0,1024.0,1023.0,1023.0,1023.0,1024.0,1024.0,1023.0,1024.0,1024.0,1023.0,1023.0,1023.0,1022.0,1023.0,1024.0,1024.0,1024.0,1024.0,1024.0,1024.0,1023.0,1023.0,1023.0,1024.0,1023.0,1023.0,1024.0,1023.0,1023.0,1022.0,1023.0,1023.0,1024.0,1023.0,1023.0,1024.0,1024.0,1023.0,1023.0,1023.0,1023.0,1024.0,1023.0,1023.0,1023.0,1023.0,1024.0,1023.0,1023.0,1022.0,1022.0,1024.0,1023.0,1024.0,1024.0,1024.0,1024.0,1023.0,1023.0,1023.0,1023.0,1023.0,1024.0,1025.0,1025.0,1025.0,1025.0,1024.0,1024.0,1025.0,1024.0,1024.0,1024.0,1025.0,1025.0,1025.0,1025.0,1024.0,1024.0,1024.0,1023.0,1024.0,1024.0,1024.0,1024.0,1025.0,1025.0,1023.0,1024.0,1024.0,1023.0,1024.0,1023.0,1023.0,1022.0,1023.0,1024.0,1023.0,1023.0,1021.0,1022.0,1023.0,1024.0,1024.0,1024.0,1024.0,1024.0,1023.0,1023.0,1023.0,1024.0,1023.0,1024.0,1024.0,1023.0,1023.0,1024.0,1024.0,1024.0,1026.0,1026.0,1024.0,1024.0,1023.0,1024.0,1024.0,1025.0,1026.0,1025.0,1024.0,1024.0,1024.0,1024.0,1025.0,1026.0,1025.0,1024.0,1025.0,1025.0,1030.0,1030.0,1027.0,1025.0,1028.0,1028.0,1033.0,1033.0,1030.0,1025.0,1029.0,1030.0,1037.0,1038.0,1031.0,1026.0,1034.0,1036.0,1038.0,1045.0,1033.0,1027.0,1035.0,1036.0,1034.0,1046.0,1034.0,1029.0,1038.0,1039.0,1034.0,1048.0,1035.0,1032.0,1040.0,1040.0,1034.0,1051.0,1034.0,1031.0,1035.0,1035.0,1031.0,1044.0,1032.0,1035.0,1036.0,1035.0,1030.0,1041.0,1030.0,1023.0,1023.0,1023.0,1023.0,1024.0,1022.0,1039.0,1041.0,1035.0,1033.0,1041.0,1034.0,1034.0,1039.0,1032.0,1034.0,1041.0,1033.0,1028.0,1029.0,1026.0,1028.0,1032.0,2003,2041,1909,	00:31:41.576,0.0546875,0.05029296875,1.01708984375,-0.244140625,0.18310546875,0.1220703125,2.83447265625,-3.0706787109375,52.7838134765625,451.0,-1591.0,-2561.0,0.8948974609375,0.034027099609375,-0.01300048828125,0.444793701171875,2.8330252925032844,-3.0692390009437487,48.173518656523356,0.9120519981276419,0.0334862563883368,-0.014356416972207955,0.40845283281694905,1,	00:31:41.577,0.0302734375,0.044921875,1.005859375,-0.9765625,-1.40380859375,-0.54931640625,2.5433349609375,-1.7193603515625,116.5045166015625,-417.0,-1250.0,-1958.0,-0.525726318359375,-0.024444580078125,-0.010955810546875,-0.8502197265625,2.543946999658401,-1.7221368274216093,117.85766233740745,-0.5156312176272634,-0.024323943090672887,-0.011257264882140577,-0.8563913049465884,1
1782117408.805190,0.214,1023.0,1023.0,1024.0,1023.0,1023.0,1022.0,1023.0,1023.0,1023.0,1023.0,1024.0,1023.0,1024.0,1024.0,1023.0,1023.0,1023.0,1024.0,1024.0,1024.0,1024.0,1023.0,1023.0,1023.0,1024.0,1024.0,1024.0,1023.0,1024.0,1024.0,1023.0,1023.0,1023.0,1023.0,1024.0,1024.0,1023.0,1024.0,1024.0,1023.0,1023.0,1023.0,1023.0,1024.0,1023.0,1024.0,1023.0,1023.0,1023.0,1022.0,1022.0,1024.0,1023.0,1024.0,1024.0,1024.0,1024.0,1023.0,1024.0,1023.0,1022.0,1023.0,1023.0,1023.0,1023.0,1023.0,1024.0,1023.0,1023.0,1021.0,1022.0,1023.0,1023.0,1024.0,1024.0,1024.0,1024.0,1023.0,1023.0,1022.0,1022.0,1023.0,1024.0,1025.0,1024.0,1025.0,1025.0,1024.0,1024.0,1025.0,1024.0,1024.0,1024.0,1025.0,1025.0,1024.0,1025.0,1024.0,1024.0,1024.0,1023.0,1024.0,1024.0,1025.0,1024.0,1025.0,1024.0,1024.0,1024.0,1023.0,1023.0,1024.0,1022.0,1023.0,1022.0,1024.0,1024.0,1023.0,1023.0,1021.0,1022.0,1023.0,1024.0,1023.0,1024.0,1024.0,1023.0,1023.0,1023.0,1023.0,1023.0,1023.0,1024.0,1024.0,1024.0,1023.0,1023.0,1024.0,1024.0,1025.0,1026.0,1024.0,1025.0,1024.0,1024.0,1024.0,1026.0,1026.0,1024.0,1025.0,1024.0,1024.0,1024.0,1026.0,1026.0,1025.0,1024.0,1025.0,1025.0,1030.0,1030.0,1027.0,1024.0,1028.0,1027.0,1033.0,1033.0,1029.0,1025.0,1030.0,1030.0,1037.0,1038.0,1031.0,1026.0,1033.0,1036.0,1038.0,1046.0,1033.0,1027.0,1035.0,1037.0,1035.0,1046.0,1034.0,1029.0,1037.0,1039.0,1034.0,1048.0,1035.0,1032.0,1040.0,1040.0,1034.0,1050.0,1034.0,1032.0,1035.0,1035.0,1031.0,1045.0,1032.0,1035.0,1036.0,1035.0,1031.0,1040.0,1030.0,1023.0,1023.0,1023.0,1023.0,1025.0,1022.0,1038.0,1041.0,1035.0,1033.0,1042.0,1034.0,1034.0,1038.0,1033.0,1034.0,1042.0,1033.0,1028.0,1029.0,1026.0,1028.0,1032.0,2003,2041,1909,	00:31:41.586,0.05517578125,0.0517578125,1.01708984375,-0.244140625,0.18310546875,0.06103515625,2.9168701171875,-3.1036376953125,52.7783203125,450.0,-1593.0,-2561.0,0.894866943359375,0.034820556640625,-0.012939453125,0.444793701171875,2.9156260595367787,-3.101342934205717,48.16964123137773,0.9120316530261416,0.03425728048380974,-0.01431881693824638,0.40843564253594017,1,	00:31:41.587,0.029296875,0.04541015625,1.0068359375,-0.9765625,-1.3427734375,-0.54931640625,2.5872802734375,-1.658935546875,116.4935302734375,-416.0,-1248.0,-1957.0,-0.525787353515625,-0.024169921875,-0.011566162109375,-0.850189208984375,2.5855651661942094,-1.6592500017092162,117.85005995674398,-0.5156939454675099,-0.024042209022553662,-0.011849985259062609,-0.8563534928070468,1
1782117408.816227,0.225,1024.0,1024.0,1023.0,1023.0,1023.0,1023.0,1023.0,1024.0,1023.0,1024.0,1023.0,1023.0,1023.0,1024.0,1023.0,1023.0,1024.0,1024.0,1024.0,1023.0,1024.0,1023.0,1024.0,1023.0,1023.0,1024.0,1024.0,1024.0,1024.0,1023.0,1024.0,1023.0,1023.0,1023.0,1024.0,1024.0,1024.0,1024.0,1023.0,1023.0,1023.0,1022.0,1022.0,1024.0,1023.0,1023.0,1024.0,1024.0,1023.0,1022.0,1023.0,1024.0,1024.0,1024.0,1023.0,1023.0,1024.0,1023.0,1023.0,1023.0,1023.0,1024.0,1024.0,1023.0,1023.0,1023.0,1024.0,1024.0,1023.0,1022.0,1022.0,1023.0,1022.0,1024.0,1023.0,1023.0,1024.0,1023.0,1023.0,1023.0,1022.0,1023.0,1024.0,1025.0,1024.0,1024.0,1025.0,1024.0,1024.0,1024.0,1024.0,1024.0,1024.0,1025.0,1025.0,1025.0,1025.0,1024.0,1024.0,1024.0,1023.0,1024.0,1024.0,1024.0,1024.0,1025.0,1026.0,1024.0,1023.0,1023.0,1023.0,1024.0,1023.0,1024.0,1022.0,1024.0,1024.0,1023.0,1022.0,1021.0,1022.0,1023.0,1024.0,1023.0,1024.0,1024.0,1023.0,1023.0,1023.0,1023.0,1024.0,1023.0,1024.0,1024.0,1023.0,1023.0,1023.0,1024.0,1024.0,1025.0,1025.0,1025.0,1024.0,1023.0,1024.0,1024.0,1025.0,1026.0,1024.0,1024.0,1023.0,1024.0,1024.0,1026.0,1026.0,1025.0,1024.0,1026.0,1025.0,1030.0,1030.0,1028.0,1024.0,1028.0,1028.0,1033.0,1034.0,1029.0,1025.0,1029.0,1030.0,1037.0,1038.0,1031.0,1026.0,1033.0,1036.0,1038.0,1045.0,1033.0,1027.0,1035.0,1037.0,1034.0,1046.0,1034.0,1029.0,1038.0,1038.0,1034.0,1048.0,1034.0,1032.0,1041.0,1040.0,1034.0,1050.0,1034.0,1032.0,1035.0,1035.0,1031.0,1044.0,1031.0,1035.0,1035.0,1035.0,1031.0,1041.0,1031.0,1023.0,1023.0,1022.0,1023.0,1024.0,1022.0,1038.0,1041.0,1035.0,1033.0,1041.0,1034.0,1034.0,1038.0,1033.0,1034.0,1041.0,1033.0,1028.0,1029.0,1026.0,1028.0,1031.0,2003,2041,1910,	00:31:41.596,0.05517578125,0.05126953125,1.01708984375,-0.244140625,0.18310546875,0.1220703125,2.823486328125,-3.09814453125,52.7838134765625,451.0,-1596.0,-2563.0,0.894866943359375,0.0340576171875,-0.013275146484375,0.44482421875,2.8214220458332706,-3.0992775870834035,48.1759144838871,0.9120377729497366,0.03350096333445436,-0.014636298593226392,0.408473456826803,1,	00:31:41.598,0.0302734375,0.044921875,1.005859375,-0.8544921875,-1.3427734375,-0.48828125,2.537841796875,-1.7578125,116.488037109375,-417.0,-1251.0,-1957.0,-0.52581787109375,-0.024688720703125,-0.010772705078125,-0.850189208984375,2.539455912622524,-1.755999770004193,117.84570530882208,-0.515713605654155,-0.02455785908782405,-0.011068595166975247,-0.8563374771089041,1
1782117408.825791,0.235,1024.0,1024.0,1023.0,1023.0,1023.0,1023.0,1023.0,1023.0,1022.0,1024.0,1023.0,1023.0,1024.0,1024.0,1023.0,1023.0,1024.0,1024.0,1023.0,1024.0,1024.0,1023.0,1024.0,1024.0,1023.0,1024.0,1023.0,1024.0,1024.0,1023.0,1023.0,1023.0,1023.0,1023.0,1024.0,1024.0,1023.0,1024.0,1023.0,1023.0,1023.0,1023.0,1023.0,1024.0,1023.0,1024.0,1024.0,1023.0,1023.0,1023.0,1022.0,1024.0,1023.0,1024.0,1023.0,1024.0,1024.0,1023.0,1023.0,1023.0,1023.0,1024.0,1023.0,1023.0,1023.0,1023.0,1023.0,1023.0,1023.0,1022.0,1022.0,1023.0,1023.0,1024.0,1023.0,1024.0,1024.0,1023.0,1023.0,1023.0,1022.0,1024.0,1024.0,1024.0,1025.0,1024.0,1025.0,1024.0,1024.0,1025.0,1024.0,1024.0,1024.0,1026.0,1024.0,1025.0,1025.0,1024.0,1024.0,1024.0,1023.0,1024.0,1024.0,1025.0,1024.0,1025.0,1025.0,1024.0,1024.0,1023.0,1023.0,1024.0,1022.0,1024.0,1022.0,1023.0,1024.0,1024.0,1023.0,1020.0,1022.0,1023.0,1024.0,1023.0,1024.0,1024.0,1023.0,1023.0,1022.0,1023.0,1024.0,1024.0,1024.0,1024.0,1023.0,1023.0,1023.0,1025.0,1024.0,1025.0,1025.0,1025.0,1025.0,1023.0,1024.0,1024.0,1026.0,1026.0,1024.0,1024.0,1024.0,1024.0,1024.0,1026.0,1026.0,1025.0,1024.0,1026.0,1025.0,1031.0,1030.0,1027.0,1024.0,1028.0,1028.0,1034.0,1033.0,1029.0,1025.0,1029.0,1030.0,1037.0,1037.0,1031.0,1026.0,1033.0,1036.0,1038.0,1046.0,1032.0,1027.0,1035.0,1036.0,1034.0,1046.0,1034.0,1029.0,1038.0,1039.0,1034.0,1048.0,1034.0,1032.0,1040.0,1040.0,1034.0,1050.0,1034.0,1032.0,1035.0,1035.0,1031.0,1045.0,1032.0,1035.0,1035.0,1035.0,1031.0,1040.0,1030.0,1023.0,1023.0,1022.0,1023.0,1024.0,1022.0,1039.0,1041.0,1035.0,1033.0,1042.0,1034.0,1034.0,1038.0,1032.0,1035.0,1041.0,1033.0,1028.0,1029.0,1025.0,1029.0,1031.0,2003,2041,1910,	00:31:41.607,0.05517578125,0.05224609375,1.0185546875,-0.30517578125,0.18310546875,0.0,2.911376953125,-3.0926513671875,52.7838134765625,449.0,-1592.0,-2562.0,0.894866943359375,0.03472900390625,-0.012908935546875,0.444793701171875,2.910039923275301,-3.0953597110791886,48.17105127883146,0.9120301252106394,0.034191736014363844,-0.01429065698196226,0.4084455325004955,1,	00:31:41.608,0.029296875,0.0458984375,1.005859375,-0.79345703125,-1.28173828125,-0.54931640625,2.5872802734375,-1.6973876953125,116.4825439453125,-415.0,-1252.0,-1953.0,-0.52587890625,-0.02447509765625,-0.01141357421875,-0.850128173828125,2.58979293325973,-1.69761825537848,117.83789250728917,-0.5157749730248267,-0.02434909321151688,-0.011706138538851272,-0.8562980002204404,1
1782117408.835838,0.245,1024.0,1023.0,1024.0,1023.0,1023.0,1022.0,1023.0,1024.0,1023.0,1024.0,1024.0,1023.0,1024.0,1024.0,1023.0,1023.0,1024.0,1024.0,1023.0,1023.0,1024.0,1023.0,1023.0,1023.0,1024.0,1024.0,1023.0,1024.0,1024.0,1024.0,1023.0,1023.0,1023.0,1024.0,1024.0,1024.0,1024.0,1024.0,1024.0,1023.0,1022.0,1022.0,1023.0,1024.0,1024.0,1023.0,1024.0,1023.0,1023.0,1022.0,1022.0,1024.0,1023.0,1024.0,1023.0,1024.0,1024.0,1023.0,1023.0,1023.0,1023.0,1023.0,1023.0,1023.0,1023.0,1024.0,1024.0,1023.0,1023.0,1022.0,1022.0,1023.0,1023.0,1024.0,1023.0,1024.0,1024.0,1023.0,1023.0,1022.0,1023.0,1024.0,1024.0,1025.0,1025.0,1024.0,1024.0,1024.0,1024.0,1025.0,1023.0,1024.0,1024.0,1025.0,1025.0,1025.0,1025.0,1024.0,1024.0,1024.0,1024.0,1024.0,1024.0,1024.0,1024.0,1024.0,1025.0,1024.0,1024.0,1023.0,1023.0,1024.0,1022.0,1024.0,1022.0,1024.0,1023.0,1023.0,1023.0,1020.0,1022.0,1023.0,1024.0,1023.0,1024.0,1024.0,1024.0,1023.0,1022.0,1023.0,1023.0,1023.0,1024.0,1024.0,1024.0,1023.0,1024.0,1025.0,1024.0,1025.0,1025.0,1024.0,1024.0,1023.0,1025.0,1024.0,1025.0,1026.0,1025.0,1025.0,1023.0,1025.0,1024.0,1026.0,1026.0,1025.0,1024.0,1026.0,1025.0,1031.0,1030.0,1027.0,1025.0,1028.0,1028.0,1034.0,1033.0,1029.0,1024.0,1029.0,1030.0,1036.0,1037.0,1031.0,1026.0,1033.0,1036.0,1038.0,1047.0,1033.0,1027.0,1036.0,1037.0,1034.0,1046.0,1034.0,1028.0,1038.0,1039.0,1034.0,1048.0,1035.0,1032.0,1040.0,1040.0,1034.0,1050.0,1034.0,1031.0,1035.0,1035.0,1031.0,1045.0,1032.0,1035.0,1035.0,1035.0,1031.0,1040.0,1030.0,1023.0,1023.0,1022.0,1024.0,1024.0,1022.0,1039.0,1040.0,1035.0,1034.0,1042.0,1034.0,1034.0,1038.0,1032.0,1034.0,1041.0,1033.0,1028.0,1030.0,1026.0,1029.0,1031.0,2003,2041,1910,	00:31:41.617,0.05517578125,0.0517578125,1.0166015625,-0.244140625,0.1220703125,0.1220703125,2.955322265625,-3.1695556640625,52.7783203125,452.0,-1594.0,-2562.0,0.89483642578125,0.035400390625,-0.013336181640625,0.444793701171875,2.955704606109225,-3.1719526239333247,48.16970233721427,0.9119975240037426,0.0348271540071885,-0.014738268388017731,0.40844873484897165,1,	00:31:41.618,0.0302734375,0.04443359375,1.00634765625,-0.79345703125,-1.28173828125,-0.54931640625,2.493896484375,-1.7413330078125,116.47705078125,-416.0,-1249.0,-1955.0,-0.525909423828125,-0.024383544921875,-0.010528564453125,-0.850128173828125,2.496520520367264,-1.7431806819379507,117.83439348161757,-0.5158102698999356,-0.02426993679663956,-0.01080310103008775,-0.8562908551665004,1
1782117408.846134,0.255,1024.0,1023.0,1024.0,1023.0,1024.0,1023.0,1023.0,1024.0,1022.0,1023.0,1023.0,1023.0,1023.0,1024.0,1023.0,1023.0,1024.0,1024.0,1024.0,1024.0,1024.0,1023.0,1023.0,1023.0,1023.0,1023.0,1023.0,1024.0,1024.0,1023.0,1023.0,1024.0,1023.0,1023.0,1024.0,1023.0,1023.0,1024.0,1023.0,1023.0,1023.0,1023.0,1023.0,1024.0,1023.0,1023.0,1024.0,1023.0,1023.0,1022.0,1023.0,1023.0,1024.0,1023.0,1023.0,1024.0,1024.0,1023.0,1024.0,1022.0,1023.0,1023.0,1024.0,1024.0,1022.0,1023.0,1024.0,1023.0,1023.0,1022.0,1022.0,1024.0,1023.0,1024.0,1023.0,1023.0,1024.0,1023.0,1023.0,1022.0,1022.0,1023.0,1024.0,1025.0,1025.0,1024.0,1025.0,1024.0,1024.0,1025.0,1024.0,1024.0,1024.0,1025.0,1025.0,1024.0,1025.0,1024.0,1024.0,1025.0,1023.0,1024.0,1024.0,1025.0,1024.0,1024.0,1025.0,1024.0,1023.0,1023.0,1023.0,1024.0,1022.0,1024.0,1022.0,1024.0,1024.0,1022.0,1022.0,1020.0,1022.0,1023.0,1024.0,1023.0,1024.0,1024.0,1023.0,1023.0,1023.0,1022.0,1024.0,1023.0,1024.0,1024.0,1023.0,1023.0,1024.0,1025.0,1024.0,1025.0,1025.0,1025.0,1025.0,1023.0,1024.0,1024.0,1025.0,1026.0,1024.0,1024.0,1023.0,1024.0,1024.0,1026.0,1026.0,1025.0,1023.0,1025.0,1025.0,1030.0,1030.0,1027.0,1024.0,1028.0,1028.0,1034.0,1034.0,1029.0,1025.0,1029.0,1030.0,1037.0,1038.0,1031.0,1026.0,1034.0,1036.0,1038.0,1046.0,1033.0,1027.0,1036.0,1036.0,1034.0,1046.0,1033.0,1029.0,1038.0,1039.0,1034.0,1048.0,1034.0,1032.0,1040.0,1040.0,1033.0,1050.0,1034.0,1031.0,1035.0,1035.0,1031.0,1044.0,1032.0,1035.0,1036.0,1035.0,1031.0,1040.0,1030.0,1023.0,1023.0,1023.0,1023.0,1024.0,1022.0,1038.0,1040.0,1035.0,1033.0,1042.0,1034.0,1034.0,1038.0,1032.0,1034.0,1041.0,1033.0,1028.0,1029.0,1026.0,1028.0,1031.0,2003,2041,1909,	00:31:41.627,0.0556640625,0.0517578125,1.0166015625,-0.244140625,0.1220703125,0.1220703125,2.889404296875,-3.1036376953125,52.7838134765625,449.0,-1594.0,-2562.0,0.894866943359375,0.03460693359375,-0.0130615234375,0.44482421875,2.889091140874185,-3.1055225593128557,48.174494724549085,0.9120209848322823,0.034061552348337305,-0.01444523773297082,0.40847138086286217,1,	00:31:41.628,0.029296875,0.04541015625,1.00634765625,-0.8544921875,-1.28173828125,-0.48828125,2.5543212890625,-1.6973876953125,116.4715576171875,-417.0,-1251.0,-1955.0,-0.525970458984375,-0.024322509765625,-0.01116943359375,-0.85009765625,2.5567070682926643,-1.6949000145413193,117.82689413321678,-0.5158648007191785,-0.024180969724752487,-0.011468827841674195,-0.8562518636885241,1
1782117408.856668,0.266,1023.0,1022.0,1024.0,1023.0,1023.0,1022.0,1023.0,1024.0,1023.0,1023.0,1023.0,1024.0,1024.0,1024.0,1023.0,1023.0,1024.0,1024.0,1024.0,1024.0,1024.0,1024.0,1023.0,1023.0,1023.0,1024.0,1023.0,1024.0,1024.0,1023.0,1023.0,1023.0,1022.0,1023.0,1024.0,1024.0,1024.0,1024.0,1024.0,1023.0,1023.0,1023.0,1023.0,1023.0,1023.0,1024.0,1024.0,1023.0,1023.0,1022.0,1023.0,1023.0,1023.0,1024.0,1023.0,1023.0,1024.0,1024.0,1023.0,1022.0,1023.0,1024.0,1023.0,1024.0,1023.0,1023.0,1024.0,1023.0,1023.0,1022.0,1022.0,1023.0,1024.0,1024.0,1023.0,1024.0,1024.0,1023.0,1023.0,1023.0,1023.0,1023.0,1024.0,1025.0,1025.0,1024.0,1024.0,1024.0,1024.0,1025.0,1023.0,1024.0,1024.0,1026.0,1025.0,1025.0,1025.0,1024.0,1024.0,1025.0,1024.0,1024.0,1024.0,1025.0,1024.0,1025.0,1025.0,1024.0,1024.0,1023.0,1023.0,1024.0,1023.0,1024.0,1022.0,1024.0,1024.0,1023.0,1023.0,1020.0,1022.0,1023.0,1024.0,1024.0,1024.0,1024.0,1024.0,1023.0,1023.0,1023.0,1024.0,1023.0,1024.0,1024.0,1024.0,1023.0,1023.0,1024.0,1024.0,1025.0,1025.0,1024.0,1024.0,1024.0,1024.0,1024.0,1025.0,1026.0,1025.0,1024.0,1024.0,1025.0,1024.0,1026.0,1026.0,1025.0,1024.0,1025.0,1026.0,1030.0,1029.0,1027.0,1024.0,1027.0,1028.0,1034.0,1033.0,1030.0,1025.0,1029.0,1030.0,1037.0,1038.0,1031.0,1026.0,1034.0,1036.0,1038.0,1046.0,1033.0,1028.0,1036.0,1036.0,1035.0,1046.0,1034.0,1029.0,1038.0,1039.0,1034.0,1048.0,1034.0,1032.0,1041.0,1040.0,1034.0,1050.0,1034.0,1032.0,1036.0,1035.0,1031.0,1045.0,1032.0,1035.0,1036.0,1035.0,1031.0,1041.0,1031.0,1024.0,1023.0,1022.0,1023.0,1024.0,1022.0,1039.0,1041.0,1035.0,1033.0,1042.0,1034.0,1034.0,1039.0,1032.0,1034.0,1042.0,1033.0,1028.0,1029.0,1026.0,1028.0,1031.0,2003,2041,1910,	00:31:41.637,0.05615234375,0.0517578125,1.01708984375,-0.30517578125,0.18310546875,0.06103515625,2.9278564453125,-3.18603515625,52.7838134765625,452.0,-1593.0,-2563.0,0.89483642578125,0.03521728515625,-0.0135498046875,0.44482421875,2.9254048341613728,-3.1862685759675045,48.173037353475685,0.911990349695383,0.03463730767989326,-0.01495926908852636,0.4084728623146446,1,	00:31:41.638,0.02880859375,0.0458984375,1.00634765625,-0.8544921875,-1.3427734375,-0.48828125,2.6092529296875,-1.6424560546875,116.466064453125,-416.0,-1252.0,-1956.0,-0.5260009765625,-0.024169921875,-0.0118408203125,-0.85003662109375,2.6118821704576667,-1.642013600752526,117.81956042387574,-0.5159203711318898,-0.024035110513355638,-0.012117910333283207,-0.856213548341124,1
1782117408.866271,0.275,1024.0,1023.0,1024.0,1023.0,1022.0,1023.0,1024.0,1023.0,1023.0,1023.0,1023.0,1023.0,1024.0,1024.0,1023.0,1023.0,1024.0,1024.0,1024.0,1024.0,1024.0,1023.0,1023.0,1024.0,1024.0,1024.0,1023.0,1024.0,1024.0,1023.0,1023.0,1023.0,1023.0,1023.0,1024.0,1024.0,1023.0,1024.0,1023.0,1023.0,1023.0,1023.0,1023.0,1024.0,1023.0,1023.0,1024.0,1024.0,1023.0,1022.0,1023.0,1023.0,1023.0,1024.0,1023.0,1024.0,1024.0,1023.0,1023.0,1023.0,1023.0,1024.0,1023.0,1024.0,1023.0,1024.0,1024.0,1023.0,1022.0,1022.0,1022.0,1023.0,1023.0,1024.0,1023.0,1024.0,1024.0,1024.0,1023.0,1023.0,1023.0,1023.0,1024.0,1025.0,1025.0,1024.0,1024.0,1024.0,1024.0,1025.0,1023.0,1024.0,1024.0,1025.0,1024.0,1025.0,1025.0,1024.0,1024.0,1024.0,1024.0,1024.0,1024.0,1025.0,1024.0,1024.0,1025.0,1024.0,1023.0,1023.0,1023.0,1024.0,1022.0,1024.0,1022.0,1023.0,1024.0,1023.0,1023.0,1021.0,1022.0,1023.0,1024.0,1023.0,1024.0,1024.0,1024.0,1023.0,1023.0,1023.0,1024.0,1023.0,1024.0,1024.0,1024.0,1023.0,1023.0,1024.0,1025.0,1026.0,1025.0,1024.0,1025.0,1023.0,1024.0,1023.0,1026.0,1026.0,1025.0,1024.0,1024.0,1024.0,1024.0,1026.0,1026.0,1025.0,1024.0,1026.0,1025.0,1030.0,1030.0,1027.0,1024.0,1028.0,1028.0,1033.0,1034.0,1029.0,1025.0,1029.0,1030.0,1037.0,1038.0,1031.0,1027.0,1034.0,1036.0,1038.0,1046.0,1033.0,1028.0,1036.0,1035.0,1034.0,1046.0,1033.0,1029.0,1038.0,1038.0,1033.0,1048.0,1035.0,1032.0,1041.0,1040.0,1034.0,1050.0,1034.0,1032.0,1036.0,1035.0,1031.0,1044.0,1031.0,1035.0,1036.0,1035.0,1031.0,1041.0,1030.0,1023.0,1023.0,1022.0,1023.0,1024.0,1022.0,1039.0,1041.0,1035.0,1033.0,1042.0,1034.0,1034.0,1038.0,1032.0,1034.0,1041.0,1033.0,1028.0,1030.0,1026.0,1028.0,1032.0,2003,2041,1910,	00:31:41.648,0.05517578125,0.052734375,1.01708984375,-0.244140625,0.18310546875,0.06103515625,2.96630859375,-3.1036376953125,52.7838134765625,449.0,-1595.0,-2561.0,0.89483642578125,0.035186767578125,-0.01275634765625,0.444793701171875,2.963921959160065,-3.102480017488965,48.17149083813174,0.9120101913881634,0.03464593214842218,-0.014155172212849102,0.4084564864086712,1,	00:31:41.649,0.02978515625,0.044921875,1.00634765625,-0.8544921875,-1.40380859375,-0.48828125,2.537841796875,-1.7193603515625,116.4605712890625,-417.0,-1253.0,-1954.0,-0.526031494140625,-0.024383544921875,-0.01092529296875,-0.85003662109375,2.5360856873806212,-1.717962501945551,117.81602245087458,-0.515945016404589,-0.024261459706358183,-0.011208502779406056,-0.8562047016255103,1
1782117408.876855,0.286,1022.0,1023.0,1023.0,1023.0,1023.0,1023.0,1023.0,1023.0,1022.0,1023.0,1024.0,1023.0,1024.0,1024.0,1023.0,1023.0,1024.0,1024.0,1024.0,1023.0,1024.0,1024.0,1023.0,1023.0,1024.0,1024.0,1024.0,1024.0,1024.0,1023.0,1023.0,1023.0,1023.0,1023.0,1024.0,1024.0,1024.0,1024.0,1023.0,1023.0,1023.0,1024.0,1023.0,1024.0,1023.0,1023.0,1024.0,1023.0,1022.0,1022.0,1022.0,1023.0,1023.0,1024.0,1024.0,1024.0,1024.0,1023.0,1023.0,1022.0,1023.0,1023.0,1023.0,1023.0,1023.0,1023.0,1024.0,1023.0,1022.0,1022.0,1022.0,1023.0,1023.0,1024.0,1023.0,1024.0,1024.0,1023.0,1023.0,1022.0,1023.0,1024.0,1024.0,1025.0,1025.0,1025.0,1024.0,1024.0,1024.0,1025.0,1024.0,1024.0,1024.0,1026.0,1025.0,1025.0,1025.0,1024.0,1024.0,1024.0,1024.0,1024.0,1024.0,1025.0,1024.0,1025.0,1025.0,1024.0,1024.0,1023.0,1023.0,1024.0,1022.0,1024.0,1022.0,1023.0,1024.0,1023.0,1023.0,1021.0,1022.0,1023.0,1024.0,1023.0,1024.0,1024.0,1023.0,1023.0,1023.0,1024.0,1024.0,1023.0,1024.0,1024.0,1023.0,1023.0,1024.0,1025.0,1024.0,1025.0,1025.0,1024.0,1024.0,1024.0,1024.0,1024.0,1026.0,1025.0,1025.0,1024.0,1024.0,1025.0,1024.0,1026.0,1026.0,1025.0,1024.0,1025.0,1026.0,1031.0,1030.0,1027.0,1024.0,1028.0,1028.0,1034.0,1033.0,1030.0,1025.0,1030.0,1030.0,1037.0,1038.0,1031.0,1027.0,1034.0,1036.0,1038.0,1046.0,1033.0,1027.0,1036.0,1036.0,1034.0,1046.0,1034.0,1029.0,1038.0,1038.0,1033.0,1048.0,1034.0,1032.0,1040.0,1040.0,1034.0,1051.0,1034.0,1032.0,1035.0,1035.0,1031.0,1045.0,1032.0,1035.0,1036.0,1035.0,1031.0,1040.0,1030.0,1024.0,1023.0,1023.0,1023.0,1024.0,1022.0,1038.0,1041.0,1035.0,1033.0,1042.0,1034.0,1034.0,1039.0,1033.0,1034.0,1041.0,1033.0,1028.0,1030.0,1026.0,1029.0,1032.0,2003,2041,1910,	00:31:41.658,0.05517578125,0.0517578125,1.0166015625,-0.244140625,0.18310546875,0.1220703125,2.867431640625,-3.1036376953125,52.789306640625,450.0,-1594.0,-2563.0,0.89483642578125,0.034454345703125,-0.013092041015625,0.444854736328125,2.8697199875623034,-3.101035527166277,48.17776779378368,0.9120164299975365,0.03389184679861694,-0.014477585915566669,0.40849452094389826,1,	00:31:41.659,0.02978515625,0.0458984375,1.005859375,-0.8544921875,-1.3427734375,-0.48828125,2.61474609375,-1.702880859375,116.455078125,-417.0,-1252.0,-1957.0,-0.526092529296875,-0.024658203125,-0.011566162109375,-0.850006103515625,2.6152962686467784,-1.7041624948766019,117.80793153413826,-0.5159918559418981,-0.024515867133176186,-0.01186081692788013,-0.8561604393349106,1
1782117408.887468,0.297,1023.0,1023.0,1024.0,1023.0,1023.0,1022.0,1023.0,1023.0,1023.0,1023.0,1023.0,1023.0,1023.0,1023.0,1023.0,1023.0,1023.0,1024.0,1023.0,1024.0,1024.0,1023.0,1024.0,1023.0,1024.0,1024.0,1023.0,1024.0,1024.0,1023.0,1024.0,1023.0,1023.0,1023.0,1024.0,1023.0,1024.0,1024.0,1024.0,1023.0,1023.0,1023.0,1023.0,1024.0,1023.0,1023.0,1024.0,1023.0,1023.0,1022.0,1023.0,1023.0,1023.0,1024.0,1023.0,1024.0,1024.0,1024.0,1023.0,1023.0,1023.0,1024.0,1023.0,1023.0,1023.0,1024.0,1023.0,1023.0,1023.0,1022.0,1022.0,1023.0,1023.0,1024.0,1023.0,1023.0,1024.0,1024.0,1023.0,1022.0,1023.0,1023.0,1024.0,1024.0,1024.0,1025.0,1024.0,1024.0,1024.0,1025.0,1023.0,1024.0,1024.0,1025.0,1024.0,1025.0,1025.0,1024.0,1024.0,1024.0,1024.0,1024.0,1024.0,1025.0,1024.0,1024.0,1025.0,1024.0,1024.0,1023.0,1023.0,1023.0,1022.0,1023.0,1022.0,1023.0,1024.0,1024.0,1023.0,1021.0,1022.0,1024.0,1024.0,1023.0,1024.0,1024.0,1023.0,1023.0,1023.0,1023.0,1023.0,1023.0,1024.0,1024.0,1023.0,1023.0,1024.0,1024.0,1024.0,1025.0,1026.0,1025.0,1024.0,1023.0,1024.0,1024.0,1026.0,1025.0,1024.0,1025.0,1023.0,1024.0,1024.0,1026.0,1026.0,1025.0,1024.0,1025.0,1025.0,1031.0,1030.0,1027.0,1024.0,1027.0,1028.0,1034.0,1034.0,1029.0,1024.0,1030.0,1031.0,1037.0,1038.0,1031.0,1026.0,1034.0,1036.0,1039.0,1046.0,1032.0,1028.0,1035.0,1037.0,1034.0,1047.0,1033.0,1029.0,1038.0,1039.0,1034.0,1048.0,1035.0,1032.0,1040.0,1041.0,1034.0,1051.0,1035.0,1032.0,1035.0,1035.0,1031.0,1044.0,1032.0,1035.0,1036.0,1035.0,1031.0,1041.0,1030.0,1023.0,1023.0,1023.0,1023.0,1024.0,1022.0,1039.0,1041.0,1034.0,1033.0,1042.0,1034.0,1034.0,1038.0,1032.0,1034.0,1041.0,1033.0,1027.0,1029.0,1026.0,1028.0,1032.0,2003,2041,1910,	00:31:41.668,0.0546875,0.05126953125,1.01806640625,-0.244140625,0.18310546875,0.1220703125,2.9058837890625,-3.0157470703125,52.789306640625,448.0,-1595.0,-2563.0,0.894866943359375,0.034393310546875,-0.012298583984375,0.44482421875,2.904103019976556,-3.015364648168488,48.1771103274408,0.9120344998687119,0.03386094078697512,-0.013672955352873816,0.40848446485780565,1,	00:31:41.670,0.02978515625,0.0458984375,1.00537109375,-0.8544921875,-1.3427734375,-0.48828125,2.5927734375,-1.6259765625,116.4495849609375,-417.0,-1251.0,-1955.0,-0.526153564453125,-0.02398681640625,-0.011749267578125,-0.8499755859375,2.593051257896437,-1.626792709491099,117.80283577846181,-0.5160528245766132,-0.02383840189894386,-0.012042331401674667,-0.8561402893777491,1
1782117408.897513,0.307,1024.0,1023.0,1024.0,1023.0,1022.0,1022.0,1023.0,1024.0,1023.0,1023.0,1024.0,1024.0,1024.0,1024.0,1023.0,1023.0,1023.0,1024.0,1023.0,1023.0,1024.0,1024.0,1023.0,1023.0,1023.0,1024.0,1024.0,1023.0,1024.0,1023.0,1023.0,1023.0,1023.0,1023.0,1024.0,1023.0,1024.0,1024.0,1023.0,1023.0,1023.0,1023.0,1023.0,1024.0,1023.0,1024.0,1024.0,1023.0,1023.0,1023.0,1023.0,1023.0,1023.0,1023.0,1023.0,1024.0,1024.0,1023.0,1023.0,1023.0,1023.0,1023.0,1023.0,1024.0,1023.0,1024.0,1023.0,1023.0,1023.0,1022.0,1022.0,1024.0,1023.0,1024.0,1023.0,1023.0,1024.0,1024.0,1023.0,1023.0,1022.0,1023.0,1025.0,1024.0,1025.0,1024.0,1025.0,1024.0,1024.0,1025.0,1024.0,1024.0,1024.0,1025.0,1024.0,1025.0,1025.0,1024.0,1024.0,1024.0,1024.0,1024.0,1024.0,1025.0,1024.0,1025.0,1025.0,1024.0,1024.0,1023.0,1023.0,1024.0,1023.0,1024.0,1022.0,1024.0,1023.0,1023.0,1023.0,1021.0,1022.0,1023.0,1024.0,1023.0,1024.0,1024.0,1023.0,1023.0,1022.0,1023.0,1024.0,1023.0,1024.0,1024.0,1023.0,1024.0,1024.0,1025.0,1024.0,1025.0,1026.0,1024.0,1024.0,1023.0,1025.0,1024.0,1026.0,1026.0,1024.0,1025.0,1023.0,1025.0,1024.0,1025.0,1026.0,1024.0,1023.0,1025.0,1026.0,1030.0,1030.0,1027.0,1024.0,1028.0,1027.0,1034.0,1033.0,1029.0,1024.0,1029.0,1030.0,1036.0,1037.0,1031.0,1026.0,1034.0,1036.0,1038.0,1046.0,1033.0,1028.0,1035.0,1036.0,1034.0,1047.0,1033.0,1030.0,1038.0,1038.0,1033.0,1049.0,1035.0,1032.0,1040.0,1041.0,1034.0,1050.0,1034.0,1032.0,1035.0,1035.0,1031.0,1045.0,1032.0,1035.0,1036.0,1035.0,1031.0,1041.0,1031.0,1023.0,1023.0,1022.0,1023.0,1024.0,1022.0,1039.0,1041.0,1035.0,1034.0,1042.0,1034.0,1034.0,1038.0,1032.0,1034.0,1041.0,1033.0,1028.0,1030.0,1026.0,1029.0,1032.0,2003,2041,1910,	00:31:41.679,0.0546875,0.05029296875,1.01708984375,-0.244140625,0.18310546875,0.06103515625,2.8289794921875,-3.0706787109375,52.789306640625,449.0,-1593.0,-2561.0,0.894866943359375,0.034027099609375,-0.013031005859375,0.444854736328125,2.8299961074603295,-3.0709036075230056,48.181617437738645,0.9120235117658394,0.03346907869505211,-0.014378105582060834,0.408517080227353,1,	00:31:41.680,0.02978515625,0.0458984375,1.005859375,-0.79345703125,-1.3427734375,-0.54931640625,2.6092529296875,-1.7303466796875,116.4385986328125,-415.0,-1253.0,-1955.0,-0.526153564453125,-0.024810791015625,-0.01141357421875,-0.849945068359375,2.6108183624104746,-1.7279299265643844,117.79599808002433,-0.5160763210853465,-0.02467442724011251,-0.011717648492481011,-0.8561069443528615,1
1782117408.907982,0.317,1024.0,1023.0,1024.0,1022.0,1023.0,1023.0,1024.0,1024.0,1022.0,1023.0,1023.0,1024.0,1023.0,1024.0,1023.0,1023.0,1024.0,1024.0,1024.0,1024.0,1024.0,1023.0,1023.0,1023.0,1023.0,1024.0,1024.0,1024.0,1024.0,1023.0,1023.0,1023.0,1023.0,1023.0,1024.0,1024.0,1024.0,1023.0,1023.0,1024.0,1023.0,1023.0,1023.0,1024.0,1023.0,1024.0,1024.0,1023.0,1023.0,1022.0,1022.0,1023.0,1023.0,1024.0,1023.0,1023.0,1024.0,1023.0,1023.0,1023.0,1023.0,1023.0,1023.0,1023.0,1023.0,1024.0,1024.0,1023.0,1023.0,1022.0,1022.0,1023.0,1023.0,1024.0,1023.0,1024.0,1024.0,1023.0,1023.0,1023.0,1023.0,1023.0,1024.0,1024.0,1024.0,1025.0,1024.0,1024.0,1024.0,1025.0,1024.0,1024.0,1024.0,1026.0,1025.0,1024.0,1025.0,1024.0,1024.0,1025.0,1024.0,1024.0,1024.0,1025.0,1024.0,1025.0,1025.0,1024.0,1024.0,1023.0,1023.0,1024.0,1023.0,1023.0,1022.0,1024.0,1024.0,1024.0,1023.0,1020.0,1022.0,1023.0,1024.0,1023.0,1024.0,1024.0,1024.0,1023.0,1022.0,1023.0,1024.0,1023.0,1024.0,1024.0,1024.0,1023.0,1024.0,1024.0,1024.0,1025.0,1025.0,1024.0,1024.0,1023.0,1024.0,1024.0,1026.0,1025.0,1024.0,1024.0,1023.0,1024.0,1024.0,1026.0,1027.0,1025.0,1023.0,1026.0,1025.0,1030.0,1030.0,1027.0,1024.0,1027.0,1028.0,1033.0,1033.0,1029.0,1025.0,1029.0,1030.0,1037.0,1038.0,1031.0,1026.0,1034.0,1037.0,1038.0,1047.0,1032.0,1027.0,1035.0,1036.0,1034.0,1047.0,1034.0,1029.0,1039.0,1039.0,1034.0,1049.0,1034.0,1032.0,1041.0,1040.0,1034.0,1051.0,1034.0,1032.0,1035.0,1035.0,1031.0,1044.0,1031.0,1035.0,1036.0,1036.0,1030.0,1041.0,1030.0,1023.0,1023.0,1022.0,1023.0,1024.0,1022.0,1039.0,1041.0,1034.0,1033.0,1042.0,1034.0,1034.0,1038.0,1033.0,1034.0,1042.0,1033.0,1028.0,1029.0,1026.0,1028.0,1031.0,2003,2041,1910,	00:31:41.689,0.05517578125,0.05126953125,1.01708984375,-0.244140625,0.18310546875,0.06103515625,2.9058837890625,-3.1146240234375,52.789306640625,448.0,-1593.0,-2564.0,0.89483642578125,0.0347900390625,-0.0130615234375,0.444854736328125,2.9079257521811237,-3.1128835683883773,48.17798228823088,0.9120006863830245,0.03423805212942791,-0.01443567902372051,0.40850228272850453,1,	00:31:41.690,0.029296875,0.04638671875,1.0068359375,-0.732421875,-1.28173828125,-0.54931640625,2.6422119140625,-1.6534423828125,116.43310546875,-416.0,-1253.0,-1958.0,-0.5262451171875,-0.0244140625,-0.011962890625,-0.84991455078125,2.6398375661114066,-1.6562408897003729,117.78885174245288,-0.5161405530111048,-0.024270519042614812,-0.012256161036654138,-0.8560722270693264,1
1782117408.918846,0.328,1023.0,1023.0,1023.0,1023.0,1023.0,1023.0,1023.0,1024.0,1023.0,1023.0,1023.0,1023.0,1023.0,1024.0,1023.0,1023.0,1024.0,1024.0,1024.0,1024.0,1024.0,1024.0,1023.0,1023.0,1024.0,1024.0,1023.0,1023.0,1024.0,1023.0,1024.0,1023.0,1023.0,1024.0,1024.0,1024.0,1024.0,1024.0,1023.0,1024.0,1023.0,1022.0,1022.0,1024.0,1023.0,1023.0,1024.0,1023.0,1023.0,1022.0,1022.0,1023.0,1023.0,1024.0,1023.0,1024.0,1024.0,1023.0,1023.0,1023.0,1023.0,1024.0,1023.0,1024.0,1023.0,1023.0,1024.0,1023.0,1022.0,1022.0,1023.0,1023.0,1023.0,1024.0,1023.0,1024.0,1024.0,1023.0,1023.0,1023.0,1023.0,1024.0,1024.0,1025.0,1025.0,1025.0,1024.0,1024.0,1024.0,1025.0,1024.0,1024.0,1024.0,1025.0,1025.0,1025.0,1025.0,1024.0,1024.0,1025.0,1024.0,1024.0,1024.0,1025.0,1024.0,1025.0,1025.0,1024.0,1023.0,1023.0,1023.0,1024.0,1022.0,1023.0,1022.0,1024.0,1023.0,1023.0,1022.0,1021.0,1022.0,1023.0,1024.0,1023.0,1024.0,1024.0,1024.0,1023.0,1023.0,1023.0,1024.0,1023.0,1024.0,1024.0,1024.0,1023.0,1024.0,1025.0,1024.0,1025.0,1025.0,1025.0,1024.0,1023.0,1024.0,1024.0,1025.0,1026.0,1024.0,1025.0,1024.0,1025.0,1024.0,1026.0,1027.0,1025.0,1024.0,1025.0,1025.0,1030.0,1030.0,1027.0,1025.0,1028.0,1028.0,1033.0,1033.0,1029.0,1025.0,1029.0,1030.0,1036.0,1038.0,1031.0,1025.0,1034.0,1037.0,1038.0,1046.0,1033.0,1027.0,1036.0,1036.0,1035.0,1046.0,1034.0,1029.0,1038.0,1039.0,1034.0,1048.0,1035.0,1032.0,1040.0,1040.0,1034.0,1051.0,1034.0,1032.0,1035.0,1035.0,1031.0,1045.0,1031.0,1035.0,1036.0,1035.0,1031.0,1041.0,1031.0,1023.0,1023.0,1022.0,1023.0,1024.0,1022.0,1039.0,1040.0,1035.0,1034.0,1042.0,1034.0,1033.0,1038.0,1033.0,1035.0,1042.0,1034.0,1028.0,1029.0,1026.0,1028.0,1032.0,2003,2041,1910,	00:31:41.699,0.05517578125,0.05126953125,1.01708984375,-0.244140625,0.18310546875,0.06103515625,2.823486328125,-3.0706787109375,52.7947998046875,448.0,-1592.0,-2562.0,0.894866943359375,0.033966064453125,-0.013031005859375,0.44488525390625,2.8243558846792043,-3.0685735419172713,48.18305702116147,0.9120207273928103,0.03341608717053915,-0.014379237299763595,0.4085275944887656,1,	00:31:41.700,0.02978515625,0.04541015625,1.005859375,-0.732421875,-1.220703125,-0.48828125,2.559814453125,-1.7193603515625,116.4276123046875,-418.0,-1253.0,-1955.0,-0.5262451171875,-0.024505615234375,-0.01104736328125,-0.84991455078125,2.5573750281983227,-1.7205164716201033,117.78563200712071,-0.5161669540774191,-0.02437939972899642,-0.011349595164350577,-0.8560657142281186,1
1782117408.929393,0.339,1023.0,1023.0,1024.0,1022.0,1023.0,1022.0,1023.0,1024.0,1022.0,1023.0,1023.0,1023.0,1023.0,1023.0,1024.0,1023.0,1023.0,1024.0,1023.0,1024.0,1024.0,1023.0,1023.0,1023.0,1023.0,1024.0,1024.0,1024.0,1024.0,1023.0,1023.0,1023.0,1023.0,1023.0,1024.0,1023.0,1024.0,1024.0,1023.0,1023.0,1023.0,1023.0,1023.0,1023.0,1023.0,1024.0,1024.0,1023.0,1023.0,1022.0,1022.0,1023.0,1024.0,1024.0,1023.0,1024.0,1024.0,1023.0,1023.0,1022.0,1023.0,1024.0,1023.0,1024.0,1022.0,1024.0,1024.0,1023.0,1022.0,1022.0,1023.0,1023.0,1023.0,1024.0,1023.0,1023.0,1024.0,1023.0,1023.0,1023.0,1022.0,1024.0,1024.0,1024.0,1025.0,1024.0,1025.0,1024.0,1024.0,1025.0,1024.0,1023.0,1024.0,1025.0,1024.0,1025.0,1025.0,1024.0,1024.0,1025.0,1023.0,1024.0,1024.0,1025.0,1024.0,1025.0,1025.0,1024.0,1024.0,1023.0,1024.0,1024.0,1023.0,1023.0,1022.0,1023.0,1024.0,1023.0,1023.0,1020.0,1021.0,1023.0,1024.0,1023.0,1024.0,1024.0,1024.0,1023.0,1022.0,1023.0,1023.0,1023.0,1024.0,1024.0,1023.0,1023.0,1024.0,1025.0,1025.0,1025.0,1025.0,1025.0,1024.0,1023.0,1024.0,1024.0,1025.0,1025.0,1025.0,1024.0,1023.0,1024.0,1024.0,1026.0,1026.0,1025.0,1024.0,1025.0,1025.0,1031.0,1030.0,1027.0,1025.0,1028.0,1028.0,1034.0,1033.0,1029.0,1025.0,1030.0,1030.0,1037.0,1038.0,1031.0,1026.0,1033.0,1036.0,1038.0,1046.0,1033.0,1027.0,1035.0,1036.0,1035.0,1046.0,1034.0,1029.0,1038.0,1038.0,1033.0,1048.0,1035.0,1032.0,1041.0,1040.0,1033.0,1051.0,1035.0,1032.0,1035.0,1035.0,1031.0,1045.0,1033.0,1036.0,1036.0,1036.0,1031.0,1040.0,1031.0,1023.0,1023.0,1022.0,1023.0,1024.0,1022.0,1039.0,1041.0,1035.0,1033.0,1042.0,1034.0,1034.0,1039.0,1032.0,1034.0,1041.0,1033.0,1027.0,1029.0,1026.0,1029.0,1031.0,2003,2041,1910,	00:31:41.709,0.05517578125,0.0517578125,1.017578125,-0.244140625,0.18310546875,0.1220703125,2.9058837890625,-3.09814453125,52.789306640625,448.0,-1593.0,-2563.0,0.89483642578125,0.03472900390625,-0.012939453125,0.444854736328125,2.9081362691278216,-3.0975245133920395,48.17972784202309,0.9119991026993223,0.03418536114829523,-0.014312094066162726,0.4085145795711981,1,	00:31:41.711,0.02978515625,0.04541015625,1.005859375,-0.67138671875,-1.28173828125,-0.48828125,2.61474609375,-1.669921875,116.422119140625,-416.0,-1253.0,-1957.0,-0.52630615234375,-0.0244140625,-0.011749267578125,-0.849853515625,2.6173354585979616,-1.6699924147848904,117.77820924330494,-0.516221567343055,-0.02427297378743793,-0.012023793628727172,-0.8560266027058787,1
1782117408.939989,0.349,1023.0,1023.0,1024.0,1022.0,1023.0,1023.0,1023.0,1024.0,1023.0,1024.0,1024.0,1024.0,1024.0,1024.0,1023.0,1023.0,1024.0,1024.0,1024.0,1024.0,1024.0,1024.0,1023.0,1023.0,1024.0,1024.0,1023.0,1023.0,1024.0,1023.0,1023.0,1023.0,1022.0,1024.0,1024.0,1024.0,1024.0,1024.0,1024.0,1023.0,1023.0,1023.0,1024.0,1024.0,1023.0,1024.0,1024.0,1024.0,1023.0,1022.0,1022.0,1024.0,1023.0,1024.0,1023.0,1023.0,1024.0,1023.0,1023.0,1023.0,1022.0,1024.0,1023.0,1024.0,1023.0,1023.0,1024.0,1023.0,1022.0,1022.0,1023.0,1023.0,1023.0,1023.0,1023.0,1024.0,1024.0,1023.0,1023.0,1023.0,1023.0,1023.0,1024.0,1025.0,1025.0,1025.0,1025.0,1024.0,1024.0,1025.0,1024.0,1024.0,1024.0,1025.0,1024.0,1025.0,1025.0,1024.0,1024.0,1025.0,1024.0,1024.0,1024.0,1025.0,1024.0,1025.0,1025.0,1024.0,1024.0,1023.0,1023.0,1024.0,1023.0,1024.0,1022.0,1024.0,1024.0,1023.0,1023.0,1020.0,1023.0,1023.0,1024.0,1023.0,1024.0,1024.0,1023.0,1023.0,1023.0,1023.0,1024.0,1023.0,1024.0,1024.0,1024.0,1023.0,1024.0,1024.0,1024.0,1026.0,1025.0,1024.0,1024.0,1023.0,1024.0,1024.0,1025.0,1025.0,1024.0,1025.0,1024.0,1024.0,1024.0,1025.0,1026.0,1025.0,1024.0,1026.0,1026.0,1030.0,1030.0,1028.0,1024.0,1028.0,1028.0,1034.0,1033.0,1030.0,1025.0,1030.0,1030.0,1037.0,1038.0,1031.0,1027.0,1034.0,1036.0,1038.0,1046.0,1032.0,1027.0,1036.0,1037.0,1034.0,1047.0,1034.0,1029.0,1039.0,1039.0,1033.0,1048.0,1035.0,1032.0,1041.0,1040.0,1035.0,1051.0,1035.0,1032.0,1036.0,1035.0,1031.0,1045.0,1032.0,1036.0,1036.0,1035.0,1031.0,1041.0,1030.0,1023.0,1023.0,1022.0,1023.0,1024.0,1022.0,1039.0,1041.0,1035.0,1033.0,1042.0,1034.0,1034.0,1039.0,1033.0,1035.0,1042.0,1034.0,1028.0,1029.0,1026.0,1028.0,1031.0,2003,2041,1909,	00:31:41.720,0.0556640625,0.05078125,1.01806640625,-0.30517578125,0.18310546875,0.06103515625,2.823486328125,-3.1365966796875,52.7947998046875,449.0,-1595.0,-2558.0,0.89483642578125,0.03424072265625,-0.013580322265625,0.44488525390625,2.824177150740536,-3.139093186202322,48.184831584021175,0.9119930543438424,0.0336655561771655,-0.014940939477223168,0.4085487333029064,1,	00:31:41.721,0.0302734375,0.046875,1.0068359375,-0.6103515625,-1.220703125,-0.54931640625,2.6751708984375,-1.746826171875,116.4166259765625,-418.0,-1252.0,-1955.0,-0.526336669921875,-0.0252685546875,-0.011810302734375,-0.849822998046875,2.674734258776422,-1.7480688211988036,117.77027747828667,-0.5162497325085128,-0.025115383321865366,-0.012098720162642889,-0.8559842593038207,1
1782117408.949185,0.358,1024.0,1023.0,1024.0,1023.0,1023.0,1022.0,1023.0,1023.0,1023.0,1024.0,1023.0,1023.0,1024.0,1024.0,1023.0,1022.0,1023.0,1024.0,1023.0,1024.0,1024.0,1023.0,1023.0,1024.0,1024.0,1024.0,1023.0,1024.0,1024.0,1023.0,1023.0,1023.0,1022.0,1023.0,1024.0,1023.0,1024.0,1024.0,1024.0,1024.0,1023.0,1023.0,1023.0,1024.0,1023.0,1023.0,1024.0,1023.0,1023.0,1022.0,1022.0,1023.0,1023.0,1024.0,1023.0,1024.0,1024.0,1023.0,1023.0,1023.0,1022.0,1024.0,1023.0,1023.0,1023.0,1024.0,1024.0,1023.0,1023.0,1022.0,1023.0,1023.0,1023.0,1024.0,1024.0,1023.0,1024.0,1024.0,1023.0,1023.0,1023.0,1024.0,1024.0,1025.0,1024.0,1024.0,1025.0,1024.0,1024.0,1025.0,1024.0,1024.0,1024.0,1025.0,1025.0,1025.0,1025.0,1024.0,1024.0,1024.0,1024.0,1024.0,1024.0,1025.0,1024.0,1025.0,1025.0,1024.0,1024.0,1023.0,1023.0,1024.0,1023.0,1024.0,1022.0,1023.0,1024.0,1023.0,1023.0,1020.0,1022.0,1023.0,1024.0,1023.0,1024.0,1024.0,1023.0,1023.0,1023.0,1023.0,1024.0,1023.0,1023.0,1023.0,1024.0,1023.0,1024.0,1024.0,1024.0,1025.0,1025.0,1024.0,1024.0,1023.0,1024.0,1024.0,1026.0,1026.0,1024.0,1025.0,1023.0,1024.0,1024.0,1025.0,1026.0,1025.0,1024.0,1026.0,1025.0,1030.0,1030.0,1027.0,1024.0,1028.0,1028.0,1034.0,1033.0,1029.0,1025.0,1030.0,1030.0,1036.0,1038.0,1031.0,1026.0,1034.0,1036.0,1037.0,1046.0,1032.0,1027.0,1036.0,1037.0,1034.0,1047.0,1034.0,1029.0,1039.0,1039.0,1034.0,1049.0,1035.0,1032.0,1040.0,1041.0,1034.0,1050.0,1034.0,1032.0,1036.0,1035.0,1032.0,1045.0,1032.0,1034.0,1036.0,1036.0,1031.0,1041.0,1031.0,1023.0,1023.0,1022.0,1023.0,1024.0,1022.0,1039.0,1041.0,1035.0,1034.0,1041.0,1034.0,1034.0,1038.0,1033.0,1034.0,1042.0,1034.0,1028.0,1029.0,1026.0,1028.0,1032.0,2003,2041,1910,	00:31:41.730,0.05517578125,0.0517578125,1.01806640625,-0.244140625,0.18310546875,0.06103515625,2.9058837890625,-3.09814453125,52.789306640625,449.0,-1593.0,-2565.0,0.89483642578125,0.034698486328125,-0.012939453125,0.44488525390625,2.9046070426250066,-3.0979713386947747,48.181021130601465,0.9119954080303252,0.03415902284365871,-0.014327848428408821,0.40852447864158586,1,	00:31:41.731,0.0302734375,0.0458984375,1.0048828125,-0.6103515625,-1.220703125,-0.54931640625,2.581787109375,-1.724853515625,116.4111328125,-417.0,-1255.0,-1959.0,-0.526397705078125,-0.024658203125,-0.01123046875,-0.849822998046875,2.5840141531063145,-1.725439249529764,117.76678649944522,-0.516300889266338,-0.024538048648506876,-0.01152237045363925,-0.8559781018755335,1
1782117408.959000,0.368,1024.0,1024.0,1023.0,1023.0,1023.0,1022.0,1023.0,1024.0,1022.0,1024.0,1023.0,1024.0,1023.0,1024.0,1023.0,1023.0,1023.0,1024.0,1024.0,1023.0,1024.0,1023.0,1023.0,1023.0,1023.0,1024.0,1024.0,1024.0,1024.0,1024.0,1023.0,1023.0,1023.0,1023.0,1024.0,1024.0,1023.0,1024.0,1023.0,1023.0,1023.0,1023.0,1023.0,1023.0,1023.0,1023.0,1024.0,1023.0,1023.0,1022.0,1023.0,1023.0,1023.0,1024.0,1024.0,1023.0,1024.0,1023.0,1023.0,1023.0,1023.0,1024.0,1023.0,1023.0,1023.0,1024.0,1024.0,1023.0,1022.0,1022.0,1023.0,1024.0,1023.0,1024.0,1023.0,1023.0,1024.0,1023.0,1023.0,1023.0,1022.0,1023.0,1024.0,1024.0,1024.0,1024.0,1024.0,1024.0,1024.0,1025.0,1024.0,1024.0,1024.0,1026.0,1025.0,1025.0,1025.0,1024.0,1024.0,1024.0,1024.0,1024.0,1024.0,1025.0,1024.0,1025.0,1025.0,1024.0,1024.0,1023.0,1023.0,1024.0,1022.0,1023.0,1022.0,1023.0,1024.0,1023.0,1022.0,1020.0,1022.0,1023.0,1024.0,1023.0,1023.0,1025.0,1024.0,1023.0,1023.0,1023.0,1024.0,1024.0,1023.0,1024.0,1024.0,1023.0,1023.0,1024.0,1024.0,1026.0,1026.0,1024.0,1024.0,1023.0,1024.0,1024.0,1025.0,1026.0,1024.0,1024.0,1023.0,1025.0,1024.0,1025.0,1026.0,1025.0,1023.0,1026.0,1025.0,1030.0,1030.0,1028.0,1025.0,1028.0,1028.0,1033.0,1034.0,1029.0,1025.0,1030.0,1031.0,1036.0,1038.0,1031.0,1027.0,1034.0,1036.0,1037.0,1046.0,1033.0,1028.0,1036.0,1036.0,1034.0,1047.0,1034.0,1029.0,1038.0,1039.0,1034.0,1048.0,1035.0,1032.0,1041.0,1040.0,1033.0,1051.0,1034.0,1032.0,1036.0,1036.0,1031.0,1046.0,1032.0,1035.0,1036.0,1035.0,1031.0,1041.0,1031.0,1023.0,1023.0,1022.0,1023.0,1024.0,1022.0,1039.0,1040.0,1034.0,1033.0,1041.0,1034.0,1034.0,1039.0,1033.0,1034.0,1042.0,1033.0,1028.0,1029.0,1026.0,1028.0,1031.0,2003,2041,1909,	00:31:41.740,0.05517578125,0.05126953125,1.01708984375,-0.244140625,0.1220703125,0.06103515625,2.8125,-3.1146240234375,52.7947998046875,449.0,-1594.0,-2565.0,0.89483642578125,0.034027099609375,-0.013427734375,0.444915771484375,2.8117474949180497,-3.11245922716734,48.18658982456999,0.9119985442053219,0.0334721871303326,-0.014772641885748937,0.4085584867651154,1,	00:31:41.741,0.02880859375,0.04638671875,1.00634765625,-0.54931640625,-1.15966796875,-0.48828125,2.625732421875,-1.658935546875,116.4056396484375,-416.0,-1252.0,-1956.0,-0.526458740234375,-0.024383544921875,-0.011871337890625,-0.849761962890625,2.6275769250621446,-1.6592440671006916,117.7599363431511,-0.5163584370345486,-0.024240786877254766,-0.012144907954620759,-0.8559432516035063,1
1782117408.971410,0.381,1024.0,1023.0,1023.0,1023.0,1023.0,1022.0,1023.0,1023.0,1023.0,1024.0,1023.0,1024.0,1023.0,1023.0,1022.0,1023.0,1024.0,1024.0,1024.0,1024.0,1024.0,1023.0,1023.0,1023.0,1024.0,1024.0,1024.0,1023.0,1024.0,1023.0,1023.0,1023.0,1022.0,1024.0,1024.0,1024.0,1024.0,1024.0,1023.0,1023.0,1023.0,1023.0,1023.0,1024.0,1022.0,1024.0,1024.0,1023.0,1022.0,1023.0,1022.0,1023.0,1023.0,1024.0,1023.0,1024.0,1024.0,1023.0,1023.0,1023.0,1023.0,1023.0,1023.0,1023.0,1023.0,1023.0,1023.0,1023.0,1023.0,1022.0,1022.0,1023.0,1023.0,1024.0,1023.0,1023.0,1024.0,1023.0,1023.0,1023.0,1022.0,1024.0,1024.0,1024.0,1025.0,1024.0,1025.0,1024.0,1024.0,1025.0,1023.0,1024.0,1024.0,1025.0,1025.0,1025.0,1025.0,1024.0,1024.0,1024.0,1024.0,1024.0,1024.0,1024.0,1023.0,1024.0,1025.0,1024.0,1024.0,1023.0,1023.0,1024.0,1022.0,1023.0,1022.0,1024.0,1024.0,1023.0,1022.0,1021.0,1022.0,1023.0,1024.0,1023.0,1024.0,1024.0,1024.0,1023.0,1022.0,1023.0,1024.0,1023.0,1024.0,1024.0,1023.0,1023.0,1024.0,1025.0,1024.0,1025.0,1026.0,1024.0,1024.0,1023.0,1024.0,1024.0,1025.0,1026.0,1024.0,1024.0,1023.0,1025.0,1024.0,1026.0,1026.0,1025.0,1024.0,1026.0,1025.0,1031.0,1030.0,1027.0,1024.0,1028.0,1028.0,1034.0,1033.0,1029.0,1025.0,1030.0,1030.0,1037.0,1038.0,1031.0,1026.0,1034.0,1036.0,1038.0,1046.0,1033.0,1027.0,1036.0,1036.0,1034.0,1047.0,1034.0,1029.0,1039.0,1038.0,1034.0,1048.0,1035.0,1032.0,1041.0,1040.0,1034.0,1051.0,1035.0,1032.0,1036.0,1035.0,1031.0,1045.0,1032.0,1035.0,1036.0,1036.0,1030.0,1041.0,1031.0,1024.0,1022.0,1022.0,1023.0,1024.0,1022.0,1039.0,1041.0,1035.0,1033.0,1042.0,1034.0,1035.0,1039.0,1033.0,1034.0,1042.0,1034.0,1028.0,1030.0,1026.0,1029.0,1032.0,2003,2041,1910,	00:31:41.750,0.05517578125,0.05126953125,1.0185546875,-0.30517578125,0.18310546875,0.06103515625,2.900390625,-3.0926513671875,52.7947998046875,449.0,-1593.0,-2562.0,0.89483642578125,0.034637451171875,-0.012908935546875,0.44488525390625,2.8981759769844473,-3.0905961801434993,48.18244626595008,0.9119944928694849,0.03408180537013642,-0.014291619146214424,0.40853423986322474,1,	00:31:41.752,0.02880859375,0.0458984375,1.0068359375,-0.54931640625,-1.15966796875,-0.54931640625,2.5653076171875,-1.5985107421875,116.400146484375,-415.0,-1254.0,-1957.0,-0.526519775390625,-0.023651123046875,-0.01165771484375,-0.849761962890625,2.565324505238864,-1.5988565244194557,117.7555302750933,-0.5164184093366175,-0.023509832882859547,-0.011951415565507165,-0.8559301828549092,1
1782117408.979967,0.389,1023.0,1023.0,1023.0,1023.0,1023.0,1023.0,1023.0,1024.0,1023.0,1023.0,1023.0,1023.0,1023.0,1023.0,1023.0,1024.0,1024.0,1024.0,1024.0,1023.0,1024.0,1023.0,1023.0,1023.0,1024.0,1024.0,1024.0,1024.0,1024.0,1023.0,1023.0,1023.0,1023.0,1023.0,1024.0,1024.0,1024.0,1024.0,1024.0,1024.0,1023.0,1023.0,1023.0,1024.0,1023.0,1024.0,1023.0,1024.0,1023.0,1022.0,1022.0,1024.0,1023.0,1024.0,1023.0,1024.0,1024.0,1023.0,1023.0,1023.0,1023.0,1023.0,1023.0,1024.0,1022.0,1024.0,1024.0,1023.0,1023.0,1021.0,1022.0,1023.0,1023.0,1024.0,1023.0,1023.0,1024.0,1023.0,1023.0,1023.0,1022.0,1023.0,1024.0,1024.0,1025.0,1024.0,1025.0,1024.0,1024.0,1024.0,1024.0,1024.0,1024.0,1025.0,1024.0,1025.0,1025.0,1024.0,1024.0,1025.0,1024.0,1024.0,1024.0,1025.0,1024.0,1024.0,1025.0,1024.0,1024.0,1023.0,1023.0,1024.0,1022.0,1024.0,1022.0,1023.0,1024.0,1023.0,1023.0,1021.0,1022.0,1023.0,1024.0,1024.0,1024.0,1024.0,1023.0,1023.0,1022.0,1023.0,1024.0,1023.0,1024.0,1024.0,1023.0,1023.0,1023.0,1024.0,1024.0,1025.0,1026.0,1024.0,1025.0,1023.0,1024.0,1024.0,1025.0,1026.0,1024.0,1024.0,1023.0,1024.0,1024.0,1025.0,1027.0,1025.0,1024.0,1026.0,1026.0,1030.0,1030.0,1027.0,1024.0,1028.0,1028.0,1034.0,1034.0,1029.0,1025.0,1030.0,1030.0,1036.0,1038.0,1032.0,1027.0,1034.0,1036.0,1037.0,1046.0,1032.0,1027.0,1036.0,1037.0,1034.0,1047.0,1034.0,1029.0,1039.0,1039.0,1033.0,1048.0,1035.0,1032.0,1041.0,1040.0,1034.0,1051.0,1034.0,1032.0,1036.0,1035.0,1031.0,1045.0,1032.0,1035.0,1036.0,1036.0,1031.0,1041.0,1031.0,1023.0,1023.0,1022.0,1023.0,1024.0,1022.0,1039.0,1041.0,1035.0,1033.0,1042.0,1034.0,1035.0,1039.0,1033.0,1034.0,1042.0,1034.0,1028.0,1030.0,1026.0,1028.0,1032.0,2003,2041,1909,	00:31:41.761,0.0556640625,0.05126953125,1.01708984375,-0.244140625,0.18310546875,0.06103515625,2.867431640625,-3.175048828125,52.7947998046875,449.0,-1593.0,-2566.0,0.894805908203125,0.03472900390625,-0.013702392578125,0.444915771484375,2.867196921736372,-3.1758795091840537,48.1847090071514,0.9119694397639859,0.03413866778066144,-0.015080542149151749,0.4085570578844661,1,	00:31:41.762,0.02880859375,0.046875,1.0068359375,-0.54931640625,-1.15966796875,-0.48828125,2.647705078125,-1.6424560546875,116.3946533203125,-418.0,-1253.0,-1955.0,-0.52655029296875,-0.02435302734375,-0.012054443359375,-0.8497314453125,2.645525208732676,-1.642921611121374,117.74771380530095,-0.5164498022465955,-0.024201108773921193,-0.01235002259810834,-0.8558863154855274,1
1782117408.989581,0.399,1023.0,1023.0,1024.0,1022.0,1023.0,1022.0,1023.0,1023.0,1023.0,1024.0,1024.0,1023.0,1023.0,1023.0,1024.0,1023.0,1023.0,1024.0,1024.0,1023.0,1024.0,1023.0,1023.0,1023.0,1024.0,1024.0,1024.0,1024.0,1024.0,1023.0,1023.0,1023.0,1023.0,1024.0,1024.0,1024.0,1024.0,1024.0,1023.0,1023.0,1023.0,1023.0,1023.0,1023.0,1023.0,1023.0,1024.0,1023.0,1023.0,1022.0,1023.0,1023.0,1023.0,1023.0,1023.0,1023.0,1024.0,1024.0,1024.0,1022.0,1023.0,1024.0,1023.0,1024.0,1023.0,1023.0,1024.0,1023.0,1023.0,1021.0,1022.0,1024.0,1023.0,1024.0,1023.0,1023.0,1024.0,1023.0,1023.0,1023.0,1022.0,1024.0,1024.0,1025.0,1025.0,1024.0,1025.0,1024.0,1024.0,1025.0,1023.0,1024.0,1024.0,1026.0,1025.0,1025.0,1025.0,1024.0,1024.0,1024.0,1024.0,1024.0,1024.0,1025.0,1024.0,1025.0,1025.0,1024.0,1023.0,1023.0,1023.0,1024.0,1023.0,1023.0,1022.0,1023.0,1024.0,1023.0,1023.0,1021.0,1022.0,1023.0,1024.0,1023.0,1023.0,1024.0,1024.0,1024.0,1022.0,1024.0,1024.0,1023.0,1023.0,1024.0,1023.0,1023.0,1023.0,1024.0,1024.0,1025.0,1025.0,1025.0,1024.0,1024.0,1024.0,1024.0,1025.0,1025.0,1024.0,1024.0,1024.0,1024.0,1024.0,1025.0,1026.0,1025.0,1024.0,1025.0,1025.0,1030.0,1029.0,1027.0,1024.0,1028.0,1028.0,1033.0,1033.0,1029.0,1025.0,1030.0,1030.0,1037.0,1038.0,1031.0,1026.0,1034.0,1036.0,1037.0,1046.0,1032.0,1027.0,1036.0,1037.0,1034.0,1047.0,1034.0,1029.0,1039.0,1039.0,1034.0,1049.0,1034.0,1033.0,1041.0,1040.0,1034.0,1051.0,1035.0,1032.0,1036.0,1035.0,1031.0,1045.0,1032.0,1035.0,1037.0,1035.0,1031.0,1041.0,1031.0,1023.0,1023.0,1023.0,1023.0,1024.0,1022.0,1039.0,1041.0,1035.0,1033.0,1042.0,1034.0,1034.0,1039.0,1033.0,1034.0,1042.0,1034.0,1028.0,1030.0,1026.0,1028.0,1032.0,2003,2041,1909,	00:31:41.771,0.0546875,0.05126953125,1.01708984375,-0.244140625,0.18310546875,0.06103515625,2.87841796875,-3.0816650390625,52.7947998046875,449.0,-1592.0,-2563.0,0.89483642578125,0.03448486328125,-0.012908935546875,0.44488525390625,2.881083691441588,-3.083969446599754,48.18451565064233,0.9119942034724084,0.03392247810276322,-0.014299170476769655,0.40854788218245736,1,	00:31:41.772,0.029296875,0.04638671875,1.00634765625,-0.6103515625,-1.15966796875,-0.54931640625,2.61474609375,-1.7413330078125,116.38916015625,-416.0,-1255.0,-1956.0,-0.52655029296875,-0.024932861328125,-0.011383056640625,-0.849700927734375,2.614885938922907,-1.742523980331631,117.74242385388229,-0.5164721543605038,-0.02480719084613257,-0.011670639424073117,-0.8558650087648034,1
1782117409.000122,0.409,1024.0,1023.0,1024.0,1023.0,1023.0,1022.0,1023.0,1023.0,1023.0,1024.0,1024.0,1023.0,1023.0,1024.0,1023.0,1023.0,1023.0,1024.0,1024.0,1024.0,1024.0,1023.0,1023.0,1024.0,1023.0,1024.0,1024.0,1024.0,1024.0,1024.0,1023.0,1023.0,1023.0,1024.0,1024.0,1023.0,1024.0,1024.0,1024.0,1023.0,1023.0,1023.0,1023.0,1023.0,1022.0,1023.0,1023.0,1023.0,1023.0,1022.0,1022.0,1023.0,1023.0,1024.0,1024.0,1023.0,1023.0,1023.0,1023.0,1022.0,1022.0,1024.0,1023.0,1024.0,1022.0,1023.0,1024.0,1023.0,1024.0,1022.0,1022.0,1023.0,1023.0,1024.0,1023.0,1024.0,1024.0,1023.0,1023.0,1023.0,1023.0,1024.0,1024.0,1025.0,1025.0,1024.0,1025.0,1024.0,1024.0,1025.0,1023.0,1024.0,1024.0,1025.0,1025.0,1025.0,1025.0,1024.0,1024.0,1025.0,1024.0,1024.0,1024.0,1025.0,1024.0,1024.0,1025.0,1024.0,1024.0,1024.0,1023.0,1024.0,1023.0,1024.0,1022.0,1023.0,1024.0,1023.0,1023.0,1021.0,1022.0,1023.0,1024.0,1023.0,1024.0,1024.0,1023.0,1023.0,1022.0,1023.0,1024.0,1023.0,1023.0,1024.0,1024.0,1023.0,1023.0,1025.0,1024.0,1025.0,1026.0,1024.0,1024.0,1024.0,1024.0,1024.0,1024.0,1026.0,1024.0,1024.0,1023.0,1024.0,1024.0,1026.0,1026.0,1025.0,1024.0,1025.0,1026.0,1030.0,1030.0,1027.0,1024.0,1029.0,1028.0,1033.0,1034.0,1029.0,1025.0,1031.0,1031.0,1036.0,1038.0,1031.0,1026.0,1034.0,1037.0,1038.0,1045.0,1032.0,1027.0,1036.0,1037.0,1034.0,1047.0,1034.0,1029.0,1039.0,1039.0,1034.0,1048.0,1035.0,1032.0,1041.0,1041.0,1034.0,1052.0,1034.0,1032.0,1036.0,1035.0,1031.0,1045.0,1032.0,1036.0,1037.0,1035.0,1031.0,1041.0,1031.0,1023.0,1024.0,1022.0,1023.0,1024.0,1022.0,1039.0,1041.0,1035.0,1033.0,1041.0,1034.0,1035.0,1039.0,1033.0,1034.0,1041.0,1034.0,1028.0,1029.0,1026.0,1028.0,1032.0,2003,2041,1909,	00:31:41.781,0.0546875,0.0517578125,1.01806640625,-0.244140625,0.1220703125,0.1220703125,2.9608154296875,-3.043212890625,52.789306640625,450.0,-1592.0,-2565.0,0.89483642578125,0.034942626953125,-0.012298583984375,0.44488525390625,2.9623057436758296,-3.0452910048902955,48.18132061883362,0.9119931182196972,0.034431030307499486,-0.013702537281002552,0.4085282082597725,1,	00:31:41.782,0.02880859375,0.0458984375,1.0068359375,-0.67138671875,-1.28173828125,-0.54931640625,2.603759765625,-1.6644287109375,116.3836669921875,-417.0,-1252.0,-1958.0,-0.526611328125,-0.024322509765625,-0.01165771484375,-0.84967041015625,2.6042123866154183,-1.663544283696388,117.736467346963,-0.5165376494489039,-0.024170058917926993,-0.011946037600547086,-0.8558399132661151,1
1782117409.010374,0.420,1024.0,1024.0,1024.0,1023.0,1023.0,1023.0,1023.0,1024.0,1023.0,1023.0,1023.0,1023.0,1023.0,1023.0,1023.0,1023.0,1023.0,1024.0,1023.0,1024.0,1024.0,1023.0,1023.0,1023.0,1023.0,1024.0,1023.0,1024.0,1024.0,1023.0,1023.0,1023.0,1023.0,1024.0,1024.0,1023.0,1023.0,1024.0,1023.0,1023.0,1023.0,1023.0,1024.0,1024.0,1023.0,1024.0,1024.0,1023.0,1023.0,1022.0,1022.0,1023.0,1023.0,1024.0,1023.0,1024.0,1024.0,1023.0,1023.0,1022.0,1023.0,1024.0,1023.0,1024.0,1023.0,1024.0,1024.0,1023.0,1023.0,1022.0,1023.0,1023.0,1023.0,1024.0,1023.0,1023.0,1023.0,1023.0,1023.0,1022.0,1022.0,1024.0,1024.0,1025.0,1025.0,1024.0,1024.0,1024.0,1024.0,1025.0,1023.0,1024.0,1024.0,1025.0,1024.0,1025.0,1025.0,1024.0,1024.0,1025.0,1024.0,1024.0,1024.0,1025.0,1024.0,1025.0,1025.0,1024.0,1024.0,1023.0,1023.0,1024.0,1022.0,1024.0,1022.0,1023.0,1024.0,1023.0,1023.0,1020.0,1022.0,1023.0,1024.0,1023.0,1024.0,1024.0,1023.0,1023.0,1022.0,1024.0,1023.0,1023.0,1024.0,1024.0,1023.0,1023.0,1024.0,1025.0,1024.0,1025.0,1026.0,1024.0,1024.0,1023.0,1024.0,1024.0,1025.0,1026.0,1024.0,1025.0,1024.0,1024.0,1024.0,1025.0,1026.0,1025.0,1024.0,1026.0,1026.0,1030.0,1030.0,1027.0,1024.0,1028.0,1028.0,1033.0,1033.0,1029.0,1025.0,1030.0,1031.0,1036.0,1038.0,1031.0,1026.0,1035.0,1036.0,1038.0,1046.0,1033.0,1027.0,1036.0,1037.0,1034.0,1046.0,1033.0,1029.0,1040.0,1040.0,1034.0,1048.0,1035.0,1032.0,1041.0,1041.0,1034.0,1051.0,1034.0,1033.0,1036.0,1035.0,1031.0,1045.0,1032.0,1035.0,1037.0,1035.0,1031.0,1041.0,1031.0,1023.0,1023.0,1023.0,1023.0,1024.0,1022.0,1039.0,1042.0,1035.0,1033.0,1042.0,1034.0,1035.0,1040.0,1033.0,1034.0,1042.0,1034.0,1029.0,1030.0,1026.0,1028.0,1031.0,2003,2041,1909,	00:31:41.791,0.0546875,0.05078125,1.01708984375,-0.244140625,0.18310546875,0.1220703125,2.8729248046875,-3.065185546875,52.7947998046875,450.0,-1594.0,-2564.0,0.89483642578125,0.034332275390625,-0.012847900390625,0.444915771484375,2.871346609828807,-3.0678763914286,48.18735293348614,0.911991842456698,0.033788132570194994,-0.014204892141017398,0.4085675738835847,1,	00:31:41.792,0.02978515625,0.04638671875,1.0068359375,-0.67138671875,-1.220703125,-0.54931640625,2.6641845703125,-1.73583984375,116.3726806640625,-415.0,-1256.0,-1954.0,-0.526641845703125,-0.025146484375,-0.01177978515625,-0.849639892578125,2.666882935147075,-1.7354382900998013,117.728374474902,-0.51656748914891,-0.024990125671431652,-0.012087903635518576,-0.8557963574116304,1
1782117409.020321,0.429,1024.0,1023.0,1024.0,1023.0,1023.0,1022.0,1023.0,1024.0,1023.0,1023.0,1023.0,1024.0,1023.0,1024.0,1023.0,1023.0,1024.0,1024.0,1023.0,1023.0,1024.0,1023.0,1023.0,1024.0,1023.0,1024.0,1023.0,1024.0,1024.0,1023.0,1023.0,1023.0,1023.0,1023.0,1024.0,1023.0,1024.0,1024.0,1023.0,1023.0,1023.0,1023.0,1023.0,1024.0,1023.0,1024.0,1024.0,1023.0,1023.0,1022.0,1022.0,1023.0,1023.0,1024.0,1023.0,1023.0,1024.0,1023.0,1023.0,1023.0,1022.0,1023.0,1023.0,1024.0,1022.0,1023.0,1023.0,1023.0,1023.0,1022.0,1023.0,1023.0,1023.0,1024.0,1023.0,1023.0,1024.0,1023.0,1023.0,1023.0,1023.0,1023.0,1023.0,1025.0,1025.0,1024.0,1024.0,1024.0,1024.0,1025.0,1024.0,1024.0,1024.0,1025.0,1024.0,1025.0,1025.0,1024.0,1024.0,1024.0,1023.0,1024.0,1024.0,1025.0,1024.0,1025.0,1025.0,1024.0,1024.0,1024.0,1024.0,1024.0,1023.0,1024.0,1022.0,1023.0,1024.0,1023.0,1023.0,1021.0,1022.0,1023.0,1024.0,1023.0,1024.0,1024.0,1023.0,1023.0,1022.0,1023.0,1024.0,1023.0,1024.0,1024.0,1024.0,1023.0,1024.0,1024.0,1024.0,1025.0,1025.0,1024.0,1025.0,1024.0,1024.0,1024.0,1025.0,1025.0,1024.0,1024.0,1024.0,1024.0,1024.0,1026.0,1026.0,1025.0,1024.0,1026.0,1026.0,1030.0,1030.0,1027.0,1024.0,1028.0,1028.0,1033.0,1033.0,1029.0,1025.0,1030.0,1031.0,1036.0,1038.0,1031.0,1025.0,1034.0,1036.0,1037.0,1046.0,1033.0,1027.0,1037.0,1037.0,1034.0,1046.0,1034.0,1030.0,1039.0,1039.0,1034.0,1048.0,1035.0,1032.0,1042.0,1041.0,1034.0,1052.0,1035.0,1032.0,1036.0,1035.0,1031.0,1044.0,1032.0,1035.0,1037.0,1035.0,1031.0,1040.0,1031.0,1023.0,1023.0,1023.0,1023.0,1024.0,1022.0,1039.0,1042.0,1035.0,1034.0,1042.0,1035.0,1035.0,1039.0,1033.0,1034.0,1042.0,1034.0,1028.0,1030.0,1026.0,1028.0,1031.0,2003,2041,1909,	00:31:41.802,0.0546875,0.05126953125,1.017578125,-0.30517578125,0.18310546875,0.06103515625,2.955322265625,-3.09814453125,52.7947998046875,451.0,-1593.0,-2563.0,0.894805908203125,0.03509521484375,-0.012725830078125,0.44488525390625,2.9547913073049066,-3.096102077095856,48.183403484189085,0.9119724413279429,0.03455206960250174,-0.014133333526495605,0.40854947023336685,1,	00:31:41.803,0.0302734375,0.04638671875,1.005859375,-0.732421875,-1.220703125,-0.48828125,2.5762939453125,-1.7083740234375,116.3671875,-417.0,-1253.0,-1956.0,-0.526702880859375,-0.024505615234375,-0.011260986328125,-0.849609375,2.577961996196361,-1.7061714009530677,117.725379631643,-0.5166159913901264,-0.024371088262819456,-0.011555266665771806,-0.8557922898163816,1
1782117409.031400,0.441,1024.0,1023.0,1024.0,1023.0,1023.0,1023.0,1023.0,1024.0,1023.0,1024.0,1024.0,1024.0,1024.0,1024.0,1023.0,1024.0,1024.0,1024.0,1024.0,1024.0,1024.0,1023.0,1023.0,1023.0,1024.0,1024.0,1023.0,1024.0,1024.0,1023.0,1023.0,1023.0,1023.0,1024.0,1024.0,1024.0,1024.0,1024.0,1023.0,1024.0,1023.0,1023.0,1023.0,1024.0,1023.0,1024.0,1023.0,1023.0,1023.0,1022.0,1023.0,1024.0,1023.0,1024.0,1024.0,1023.0,1024.0,1023.0,1023.0,1023.0,1022.0,1023.0,1023.0,1023.0,1022.0,1024.0,1024.0,1023.0,1023.0,1022.0,1022.0,1023.0,1023.0,1024.0,1023.0,1023.0,1024.0,1023.0,1023.0,1022.0,1023.0,1023.0,1024.0,1025.0,1025.0,1024.0,1025.0,1024.0,1024.0,1025.0,1023.0,1023.0,1024.0,1025.0,1025.0,1024.0,1025.0,1024.0,1024.0,1024.0,1023.0,1024.0,1024.0,1025.0,1024.0,1025.0,1025.0,1024.0,1024.0,1023.0,1023.0,1024.0,1023.0,1024.0,1022.0,1024.0,1023.0,1023.0,1023.0,1020.0,1022.0,1023.0,1024.0,1023.0,1024.0,1024.0,1023.0,1023.0,1022.0,1023.0,1024.0,1023.0,1024.0,1024.0,1023.0,1023.0,1024.0,1025.0,1024.0,1025.0,1026.0,1024.0,1025.0,1023.0,1024.0,1024.0,1025.0,1026.0,1024.0,1025.0,1023.0,1024.0,1024.0,1026.0,1026.0,1025.0,1024.0,1026.0,1026.0,1030.0,1030.0,1027.0,1024.0,1028.0,1028.0,1034.0,1033.0,1029.0,1025.0,1030.0,1031.0,1036.0,1038.0,1031.0,1026.0,1034.0,1036.0,1037.0,1046.0,1033.0,1028.0,1036.0,1037.0,1035.0,1046.0,1034.0,1030.0,1039.0,1039.0,1034.0,1049.0,1035.0,1033.0,1042.0,1040.0,1034.0,1051.0,1035.0,1032.0,1036.0,1035.0,1032.0,1045.0,1032.0,1035.0,1037.0,1036.0,1031.0,1041.0,1031.0,1024.0,1023.0,1022.0,1023.0,1024.0,1022.0,1040.0,1042.0,1035.0,1033.0,1041.0,1034.0,1035.0,1039.0,1033.0,1035.0,1042.0,1034.0,1028.0,1030.0,1026.0,1029.0,1031.0,2003,2041,1910,	00:31:41.812,0.0556640625,0.0517578125,1.0185546875,-0.244140625,0.18310546875,0.1220703125,2.8729248046875,-3.14208984375,52.80029296875,448.0,-1591.0,-2565.0,0.894805908203125,0.034637451171875,-0.013397216796875,0.4449462890625,2.873967204251291,-3.1421643800515424,48.18898100993402,0.9119626014195269,0.034073265747283935,-0.014786646928401991,0.40858852314530203,1,	00:31:41.813,0.02880859375,0.04638671875,1.00634765625,-0.79345703125,-1.15966796875,-0.48828125,2.6312255859375,-1.64794921875,116.3616943359375,-417.0,-1252.0,-1957.0,-0.526763916015625,-0.024322509765625,-0.011932373046875,-0.849578857421875,2.6314257269139687,-1.649297507983064,117.71818104191499,-0.5166718334378668,-0.02418831430041664,-0.012209712867634328,-0.8557546756488962,1
1782117409.040981,0.450,1023.0,1023.0,1024.0,1023.0,1023.0,1022.0,1023.0,1024.0,1022.0,1024.0,1024.0,1024.0,1024.0,1024.0,1023.0,1023.0,1024.0,1024.0,1024.0,1023.0,1024.0,1023.0,1023.0,1024.0,1023.0,1024.0,1024.0,1024.0,1023.0,1023.0,1024.0,1023.0,1023.0,1024.0,1024.0,1023.0,1023.0,1024.0,1023.0,1023.0,1023.0,1023.0,1023.0,1024.0,1023.0,1023.0,1024.0,1023.0,1023.0,1022.0,1022.0,1024.0,1024.0,1024.0,1023.0,1024.0,1024.0,1023.0,1023.0,1022.0,1023.0,1024.0,1023.0,1024.0,1023.0,1024.0,1024.0,1023.0,1023.0,1022.0,1022.0,1023.0,1023.0,1024.0,1023.0,1024.0,1024.0,1024.0,1023.0,1022.0,1023.0,1023.0,1024.0,1025.0,1025.0,1024.0,1024.0,1024.0,1024.0,1025.0,1024.0,1024.0,1024.0,1025.0,1025.0,1025.0,1025.0,1024.0,1024.0,1025.0,1024.0,1024.0,1024.0,1025.0,1024.0,1024.0,1025.0,1024.0,1024.0,1023.0,1023.0,1024.0,1022.0,1023.0,1022.0,1024.0,1024.0,1023.0,1023.0,1020.0,1022.0,1023.0,1024.0,1023.0,1024.0,1024.0,1023.0,1023.0,1023.0,1023.0,1024.0,1023.0,1024.0,1024.0,1023.0,1023.0,1024.0,1025.0,1024.0,1026.0,1025.0,1024.0,1024.0,1024.0,1025.0,1024.0,1025.0,1026.0,1024.0,1024.0,1024.0,1024.0,1024.0,1025.0,1026.0,1025.0,1024.0,1026.0,1026.0,1030.0,1029.0,1027.0,1024.0,1028.0,1028.0,1033.0,1033.0,1029.0,1025.0,1030.0,1030.0,1036.0,1038.0,1031.0,1026.0,1034.0,1037.0,1037.0,1046.0,1033.0,1027.0,1036.0,1037.0,1034.0,1046.0,1034.0,1030.0,1039.0,1040.0,1034.0,1049.0,1035.0,1033.0,1042.0,1041.0,1035.0,1051.0,1034.0,1032.0,1036.0,1035.0,1032.0,1045.0,1032.0,1035.0,1037.0,1036.0,1031.0,1042.0,1031.0,1023.0,1023.0,1022.0,1023.0,1024.0,1022.0,1039.0,1042.0,1036.0,1033.0,1042.0,1034.0,1035.0,1040.0,1033.0,1035.0,1042.0,1034.0,1028.0,1030.0,1027.0,1028.0,1032.0,2002,2041,1909,	00:31:41.822,0.05517578125,0.05126953125,1.017578125,-0.18310546875,0.18310546875,0.1220703125,2.8948974609375,-3.0487060546875,52.80029296875,450.0,-1593.0,-2565.0,0.894805908203125,0.034454345703125,-0.012603759765625,0.4449462890625,2.8938422640042556,-3.0514173363405455,48.18911597905105,0.9119838852111014,0.033908874791786,-0.013993093613879673,0.4085826411593289,1,	00:31:41.823,0.02978515625,0.04638671875,1.00634765625,-0.79345703125,-1.220703125,-0.48828125,2.63671875,-1.7523193359375,116.356201171875,-416.0,-1253.0,-1956.0,-0.526763916015625,-0.025115966796875,-0.011505126953125,-0.84954833984375,2.6393828622945925,-1.7515179576052982,117.71228087379606,-0.5166897880785631,-0.024987851942811175,-0.011806446807025764,-0.8557265205452069,1
1782117409.051246,0.460,1023.0,1024.0,1023.0,1023.0,1023.0,1023.0,1023.0,1024.0,1023.0,1023.0,1023.0,1024.0,1023.0,1024.0,1023.0,1023.0,1023.0,1024.0,1024.0,1024.0,1024.0,1023.0,1023.0,1024.0,1023.0,1024.0,1023.0,1024.0,1024.0,1023.0,1023.0,1023.0,1023.0,1023.0,1024.0,1024.0,1024.0,1024.0,1023.0,1023.0,1023.0,1023.0,1023.0,1024.0,1023.0,1023.0,1024.0,1023.0,1023.0,1022.0,1022.0,1023.0,1023.0,1024.0,1023.0,1023.0,1024.0,1023.0,1023.0,1023.0,1022.0,1024.0,1023.0,1023.0,1023.0,1024.0,1024.0,1023.0,1023.0,1022.0,1022.0,1023.0,1023.0,1024.0,1023.0,1023.0,1024.0,1023.0,1023.0,1023.0,1022.0,1023.0,1024.0,1024.0,1025.0,1024.0,1025.0,1024.0,1024.0,1026.0,1023.0,1024.0,1024.0,1025.0,1025.0,1025.0,1025.0,1024.0,1024.0,1025.0,1024.0,1024.0,1024.0,1025.0,1024.0,1025.0,1024.0,1024.0,1024.0,1023.0,1023.0,1023.0,1022.0,1024.0,1022.0,1023.0,1024.0,1023.0,1023.0,1021.0,1022.0,1023.0,1024.0,1024.0,1024.0,1024.0,1023.0,1023.0,1022.0,1023.0,1024.0,1023.0,1023.0,1024.0,1023.0,1024.0,1023.0,1024.0,1024.0,1025.0,1026.0,1024.0,1025.0,1023.0,1025.0,1024.0,1025.0,1025.0,1024.0,1024.0,1023.0,1024.0,1024.0,1025.0,1026.0,1025.0,1024.0,1025.0,1025.0,1030.0,1030.0,1027.0,1025.0,1028.0,1028.0,1033.0,1033.0,1029.0,1025.0,1030.0,1031.0,1036.0,1037.0,1030.0,1026.0,1035.0,1036.0,1037.0,1045.0,1032.0,1028.0,1036.0,1037.0,1034.0,1047.0,1034.0,1029.0,1039.0,1040.0,1034.0,1049.0,1035.0,1033.0,1042.0,1041.0,1034.0,1052.0,1034.0,1032.0,1036.0,1036.0,1031.0,1044.0,1032.0,1036.0,1036.0,1036.0,1030.0,1041.0,1031.0,1023.0,1023.0,1023.0,1023.0,1024.0,1022.0,1039.0,1042.0,1035.0,1033.0,1042.0,1034.0,1035.0,1040.0,1033.0,1035.0,1042.0,1034.0,1028.0,1031.0,1026.0,1028.0,1032.0,2002,2041,1909,	00:31:41.832,0.0546875,0.05126953125,1.01806640625,-0.244140625,0.18310546875,0.1220703125,2.845458984375,-3.131103515625,52.80029296875,449.0,-1593.0,-2563.0,0.894775390625,0.034393310546875,-0.013397216796875,0.444976806640625,2.8466646812563643,-3.1297151087676305,48.19283927790153,0.9119607505061197,0.03381222489795714,-0.01478372080299279,0.40861444490250753,1,	00:31:41.833,0.02978515625,0.04638671875,1.00732421875,-0.8544921875,-1.220703125,-0.48828125,2.625732421875,-1.669921875,116.3507080078125,-419.0,-1254.0,-1957.0,-0.526824951171875,-0.02447509765625,-0.01177978515625,-0.849517822265625,2.6266937147556404,-1.671962509667061,117.70696136755146,-0.5167512548991549,-0.024337351777519618,-0.012069687636523926,-0.8557044796592821,1
1782117409.061865,0.471,1023.0,1023.0,1024.0,1023.0,1023.0,1023.0,1023.0,1024.0,1022.0,1023.0,1024.0,1024.0,1024.0,1024.0,1023.0,1023.0,1023.0,1024.0,1024.0,1024.0,1024.0,1023.0,1024.0,1023.0,1023.0,1024.0,1024.0,1024.0,1024.0,1023.0,1023.0,1023.0,1023.0,1023.0,1024.0,1024.0,1024.0,1024.0,1024.0,1023.0,1023.0,1023.0,1023.0,1024.0,1023.0,1023.0,1023.0,1024.0,1023.0,1022.0,1022.0,1024.0,1023.0,1024.0,1023.0,1023.0,1024.0,1023.0,1023.0,1022.0,1023.0,1024.0,1023.0,1024.0,1023.0,1024.0,1023.0,1023.0,1023.0,1021.0,1022.0,1023.0,1023.0,1024.0,1023.0,1023.0,1024.0,1023.0,1023.0,1023.0,1023.0,1023.0,1024.0,1025.0,1025.0,1024.0,1025.0,1024.0,1024.0,1025.0,1024.0,1024.0,1024.0,1026.0,1025.0,1025.0,1025.0,1024.0,1024.0,1024.0,1023.0,1024.0,1024.0,1025.0,1024.0,1025.0,1025.0,1024.0,1024.0,1023.0,1023.0,1024.0,1023.0,1024.0,1023.0,1023.0,1024.0,1023.0,1023.0,1021.0,1023.0,1023.0,1024.0,1024.0,1024.0,1024.0,1023.0,1023.0,1022.0,1022.0,1024.0,1023.0,1023.0,1024.0,1024.0,1023.0,1024.0,1025.0,1024.0,1025.0,1025.0,1024.0,1024.0,1024.0,1025.0,1024.0,1025.0,1026.0,1024.0,1025.0,1024.0,1024.0,1024.0,1026.0,1026.0,1025.0,1024.0,1026.0,1025.0,1030.0,1029.0,1027.0,1025.0,1028.0,1028.0,1033.0,1033.0,1029.0,1025.0,1031.0,1031.0,1036.0,1038.0,1031.0,1026.0,1034.0,1037.0,1037.0,1046.0,1032.0,1027.0,1036.0,1037.0,1035.0,1047.0,1034.0,1030.0,1039.0,1040.0,1034.0,1049.0,1035.0,1033.0,1042.0,1041.0,1034.0,1052.0,1035.0,1032.0,1036.0,1036.0,1032.0,1044.0,1031.0,1036.0,1037.0,1036.0,1031.0,1041.0,1031.0,1023.0,1023.0,1022.0,1023.0,1024.0,1022.0,1040.0,1041.0,1035.0,1034.0,1042.0,1034.0,1035.0,1040.0,1033.0,1034.0,1042.0,1034.0,1029.0,1030.0,1026.0,1028.0,1032.0,2002,2041,1909,	00:31:41.842,0.05517578125,0.05224609375,1.017578125,-0.244140625,0.18310546875,0.06103515625,2.933349609375,-3.09814453125,52.80029296875,448.0,-1593.0,-2561.0,0.894775390625,0.034912109375,-0.012847900390625,0.4449462890625,2.9314356599569185,-3.099532830787431,48.18879954142261,0.9119591743807991,0.034379058258284426,-0.014242304080913927,0.408589893891701,1,	00:31:41.844,0.02978515625,0.04736328125,1.00732421875,-0.91552734375,-1.28173828125,-0.48828125,2.70263671875,-1.7138671875,116.34521484375,-417.0,-1257.0,-1957.0,-0.52685546875,-0.025115966796875,-0.012176513671875,-0.8494873046875,2.70533030232324,-1.711147409203884,117.69891045975574,-0.5167850319570377,-0.024985319209443062,-0.012478241517055025,-0.8556595456475712,1
1782117409.071492,0.481,1023.0,1023.0,1024.0,1023.0,1023.0,1023.0,1023.0,1024.0,1023.0,1023.0,1024.0,1023.0,1023.0,1023.0,1023.0,1023.0,1023.0,1024.0,1023.0,1024.0,1024.0,1023.0,1023.0,1024.0,1023.0,1024.0,1024.0,1024.0,1024.0,1023.0,1023.0,1023.0,1023.0,1024.0,1024.0,1023.0,1024.0,1024.0,1024.0,1023.0,1023.0,1023.0,1023.0,1024.0,1022.0,1023.0,1024.0,1023.0,1023.0,1022.0,1022.0,1024.0,1023.0,1024.0,1023.0,1024.0,1024.0,1023.0,1023.0,1023.0,1023.0,1023.0,1023.0,1023.0,1023.0,1023.0,1023.0,1023.0,1023.0,1021.0,1022.0,1023.0,1023.0,1024.0,1023.0,1023.0,1023.0,1023.0,1023.0,1023.0,1023.0,1023.0,1024.0,1025.0,1025.0,1024.0,1025.0,1024.0,1024.0,1025.0,1023.0,1024.0,1024.0,1026.0,1025.0,1024.0,1025.0,1024.0,1024.0,1024.0,1024.0,1024.0,1024.0,1025.0,1024.0,1025.0,1025.0,1024.0,1024.0,1024.0,1023.0,1024.0,1023.0,1024.0,1022.0,1023.0,1023.0,1023.0,1022.0,1021.0,1021.0,1023.0,1024.0,1023.0,1024.0,1024.0,1023.0,1024.0,1022.0,1023.0,1024.0,1023.0,1024.0,1024.0,1024.0,1023.0,1023.0,1025.0,1024.0,1025.0,1025.0,1024.0,1025.0,1023.0,1024.0,1024.0,1025.0,1025.0,1024.0,1025.0,1024.0,1024.0,1024.0,1025.0,1026.0,1025.0,1024.0,1026.0,1026.0,1030.0,1030.0,1027.0,1025.0,1028.0,1028.0,1034.0,1033.0,1029.0,1025.0,1030.0,1030.0,1037.0,1038.0,1031.0,1026.0,1034.0,1037.0,1037.0,1045.0,1032.0,1028.0,1036.0,1037.0,1034.0,1046.0,1033.0,1030.0,1040.0,1039.0,1034.0,1049.0,1035.0,1033.0,1042.0,1041.0,1034.0,1051.0,1034.0,1032.0,1036.0,1035.0,1031.0,1044.0,1033.0,1035.0,1036.0,1036.0,1031.0,1040.0,1031.0,1023.0,1023.0,1022.0,1023.0,1024.0,1022.0,1040.0,1042.0,1035.0,1033.0,1042.0,1034.0,1035.0,1039.0,1033.0,1034.0,1041.0,1033.0,1028.0,1030.0,1026.0,1028.0,1032.0,2002,2041,1910,	00:31:41.853,0.05517578125,0.0517578125,1.017578125,-0.244140625,0.18310546875,0.1220703125,2.8399658203125,-3.09814453125,52.8057861328125,450.0,-1591.0,-2564.0,0.894805908203125,0.0341796875,-0.013214111328125,0.444976806640625,2.8372326777408214,-3.0984967008018183,48.19507117693063,0.9119650799288429,0.03362646096348258,-0.014568099775589921,0.40862785585711003,1,	00:31:41.854,0.029296875,0.04638671875,1.00732421875,-0.9765625,-1.40380859375,-0.54931640625,2.6202392578125,-1.6754150390625,116.3397216796875,-416.0,-1256.0,-1955.0,-0.52691650390625,-0.024444580078125,-0.01171875,-0.8494873046875,2.6201557685298726,-1.6732456610307351,117.69498688948265,-0.5168417548427343,-0.024318702226396316,-0.012012532004587757,-0.8556511556983638,1
1782117409.082551,0.492,1024.0,1023.0,1024.0,1022.0,1023.0,1022.0,1023.0,1024.0,1023.0,1023.0,1023.0,1023.0,1023.0,1024.0,1023.0,1024.0,1024.0,1024.0,1023.0,1024.0,1024.0,1024.0,1023.0,1023.0,1023.0,1024.0,1023.0,1023.0,1024.0,1023.0,1024.0,1023.0,1023.0,1023.0,1024.0,1023.0,1024.0,1024.0,1024.0,1023.0,1024.0,1023.0,1023.0,1024.0,1023.0,1023.0,1023.0,1023.0,1023.0,1022.0,1022.0,1023.0,1024.0,1024.0,1023.0,1023.0,1024.0,1023.0,1024.0,1023.0,1023.0,1024.0,1023.0,1024.0,1023.0,1023.0,1024.0,1023.0,1023.0,1022.0,1023.0,1024.0,1023.0,1024.0,1024.0,1024.0,1024.0,1023.0,1023.0,1023.0,1023.0,1023.0,1024.0,1025.0,1025.0,1024.0,1025.0,1024.0,1024.0,1025.0,1023.0,1024.0,1024.0,1025.0,1025.0,1025.0,1025.0,1024.0,1024.0,1025.0,1024.0,1024.0,1024.0,1026.0,1024.0,1025.0,1024.0,1024.0,1024.0,1023.0,1023.0,1024.0,1022.0,1023.0,1022.0,1024.0,1024.0,1023.0,1023.0,1020.0,1022.0,1023.0,1024.0,1023.0,1024.0,1024.0,1023.0,1023.0,1022.0,1022.0,1024.0,1024.0,1024.0,1024.0,1023.0,1023.0,1024.0,1024.0,1024.0,1025.0,1026.0,1025.0,1024.0,1023.0,1025.0,1024.0,1025.0,1026.0,1025.0,1025.0,1023.0,1025.0,1024.0,1026.0,1026.0,1024.0,1024.0,1026.0,1026.0,1030.0,1030.0,1027.0,1024.0,1029.0,1028.0,1034.0,1034.0,1029.0,1025.0,1031.0,1031.0,1036.0,1038.0,1031.0,1026.0,1034.0,1037.0,1038.0,1046.0,1032.0,1027.0,1036.0,1037.0,1035.0,1047.0,1034.0,1030.0,1039.0,1039.0,1034.0,1049.0,1035.0,1033.0,1042.0,1041.0,1034.0,1051.0,1035.0,1032.0,1036.0,1035.0,1031.0,1044.0,1032.0,1035.0,1037.0,1036.0,1031.0,1041.0,1031.0,1023.0,1023.0,1022.0,1023.0,1024.0,1022.0,1040.0,1041.0,1035.0,1034.0,1042.0,1034.0,1035.0,1039.0,1033.0,1034.0,1042.0,1034.0,1028.0,1030.0,1027.0,1028.0,1031.0,2002,2041,1910,	00:31:41.863,0.0556640625,0.0517578125,1.01708984375,-0.244140625,0.18310546875,0.1220703125,2.92236328125,-3.131103515625,52.80029296875,449.0,-1592.0,-2561.0,0.894775390625,0.034942626953125,-0.01312255859375,0.444976806640625,2.919874774482354,-3.1304462317117214,48.19175704753996,0.9119425962258292,0.034397311957981805,-0.014528809666180064,0.4086152711397892,1,	00:31:41.864,0.02880859375,0.046875,1.0068359375,-0.9765625,-1.40380859375,-0.48828125,2.6806640625,-1.6314697265625,116.334228515625,-416.0,-1253.0,-1956.0,-0.5269775390625,-0.0244140625,-0.01239013671875,-0.84942626953125,2.6823541472440278,-1.6300380780361938,117.68739200396242,-0.5168955505442542,-0.024277576082403093,-0.012670447900972449,-0.855610337056013,1
