Unix_Time_s,EMG_t_s,sample_idx,fs,gain,flags,emg_valid,ch1_raw_uV,ch1_filt_uV,ch1_env_uV,ch2_raw_uV,ch2_filt_uV,ch2_env_uV
1782117212.158031,0.000000,1658560,1000,12,0,1,664.292,-16.917,11.069,-13267.001,16.533,18.506
1782117212.159030,0.001000,1658561,1000,12,0,1,665.901,-15.405,11.250,-13263.398,13.029,18.589
1782117212.160031,0.002000,1658562,1000,12,0,1,679.977,-0.607,11.244,-13281.678,5.709,18.500
1782117212.161031,0.003000,1658563,1000,12,0,1,686.511,6.328,11.276,-13303.032,-19.070,18.264
1782117212.162030,0.004000,1658564,1000,12,0,1,680.986,0.050,11.266,-13272.598,6.929,18.032
1782117212.163031,0.005000,1658565,1000,12,0,1,677.887,-5.235,11.277,-13264.191,21.903,18.290
1782117212.164031,0.006000,1658566,1000,12,0,1,673.636,-8.359,11.334,-13257.129,15.384,18.416
1782117212.165030,0.007000,1658567,1000,12,0,1,663.235,-17.154,11.579,-13266.785,9.165,18.420
1782117212.166030,0.008000,1658568,1000,12,0,1,667.799,-13.748,11.735,-13263.494,-2.237,18.398
1782117212.167031,0.009000,1658569,1000,12,0,1,674.573,-3.485,11.737,-13459.287,-142.336,27.205
1782117212.168031,0.010000,1658570,1000,12,0,1,658.551,-14.634,11.868,-13467.454,-193.452,38.497
1782117212.169030,0.011000,1658571,1000,12,0,1,651.465,-21.693,12.122,-13336.037,-16.997,38.497
1782117212.170031,0.012000,1658572,1000,12,0,1,658.983,-9.538,12.168,-13291.695,29.675,38.626
1782117212.171031,0.013000,1658573,1000,12,0,1,656.605,-6.569,12.198,-13263.062,49.842,39.260
1782117212.172030,0.014000,1658574,1000,12,0,1,652.113,-8.485,12.220,-13254.270,59.052,39.836
1782117212.173031,0.015000,1658575,1000,12,0,1,666.213,5.601,12.213,-13256.985,41.710,40.266
1782117212.174031,0.016000,1658576,1000,12,0,1,682.836,23.569,12.632,-13260.059,40.221,40.343
1782117212.175030,0.017000,1658577,1000,12,0,1,681.490,22.366,12.929,-13254.463,33.488,40.462
1782117212.176030,0.018000,1658578,1000,12,0,1,680.722,17.347,13.123,-13252.685,39.237,40.647
1782117212.177031,0.019000,1658579,1000,12,0,1,682.956,18.261,13.099,-13267.097,19.887,40.727
1782117212.178030,0.020000,1658580,1000,12,0,1,673.756,8.639,12.419,-13264.023,21.222,40.836
1782117212.179030,0.021000,1658581,1000,12,0,1,675.774,5.879,12.427,-13243.773,36.999,41.111
1782117212.180031,0.022000,1658582,1000,12,0,1,682.884,12.632,12.387,-13239.570,41.094,41.470
1782117212.181031,0.023000,1658583,1000,12,0,1,687.159,13.173,12.410,-13236.255,35.032,41.765
1782117212.182030,0.024000,1658584,1000,12,0,1,686.655,10.618,12.498,-13233.733,33.306,42.021
1782117212.183031,0.025000,1658585,1000,12,0,1,687.303,7.164,12.531,-13229.409,28.028,42.201
1782117212.184031,0.026000,1658586,1000,12,0,1,681.250,0.876,12.443,-13239.282,14.656,42.153
1782117212.185030,0.027000,1658587,1000,12,0,1,676.806,-6.194,12.307,-13264.407,-14.849,41.898
1782117212.186031,0.028000,1658588,1000,12,0,1,670.129,-10.902,12.237,-13243.821,-7.537,41.842
1782117212.187031,0.029000,1658589,1000,12,0,1,667.510,-13.814,12.286,-13219.104,16.875,41.864
1782117212.188030,0.030000,1658590,1000,12,0,1,670.513,-9.042,12.251,-13211.634,12.770,41.828
1782117212.189030,0.031000,1658591,1000,12,0,1,676.350,-2.530,12.199,-13207.022,9.499,41.731
1782117212.190031,0.032000,1658592,1000,12,0,1,678.392,0.728,12.196,-13204.572,2.893,41.612
1782117212.191031,0.033000,1658593,1000,12,0,1,673.708,-2.552,11.750,-13202.866,-2.098,41.539
1782117212.192030,0.034000,1658594,1000,12,0,1,667.895,-7.453,11.007,-13199.984,-4.809,41.511
1782117212.193031,0.035000,1658595,1000,12,0,1,664.148,-8.821,10.761,-13200.536,-8.427,41.498
1782117212.194031,0.036000,1658596,1000,12,0,1,663.067,-8.134,10.702,-13200.368,-10.622,41.504
1782117212.195030,0.037000,1658597,1000,12,0,1,662.874,-5.729,10.696,-13199.095,-9.879,41.528
1782117212.196031,0.038000,1658598,1000,12,0,1,657.638,-8.085,10.757,-13198.302,-8.415,41.429
1782117212.197031,0.039000,1658599,1000,12,0,1,653.578,-10.357,10.841,-13195.852,-5.692,41.273
1782117212.198030,0.040000,1658600,1000,12,0,1,654.371,-7.526,10.891,-13213.099,-16.207,41.306
1782117212.199030,0.041000,1658601,1000,12,0,1,659.464,-1.472,10.789,-13204.908,-13.270,41.317
1782117212.200031,0.042000,1658602,1000,12,0,1,661.601,2.010,10.660,-13186.244,10.373,41.313
1782117212.201030,0.043000,1658603,1000,12,0,1,663.883,3.283,10.594,-13180.023,13.622,41.313
1782117212.202030,0.044000,1658604,1000,12,0,1,671.474,9.154,10.666,-13202.410,-5.203,41.294
1782117212.203031,0.045000,1658605,1000,12,0,1,673.876,11.005,10.736,-13239.498,-41.016,41.695
1782117212.204031,0.046000,1658606,1000,12,0,1,676.230,9.870,10.770,-13217.423,-26.781,41.865
1782117212.205030,0.047000,1658607,1000,12,0,1,678.776,10.920,10.863,-13190.448,6.843,41.688
1782117212.206031,0.048000,1658608,1000,12,0,1,670.969,2.933,10.815,-13181.440,7.457,41.074
1782117212.207031,0.049000,1658609,1000,12,0,1,670.753,-0.394,10.703,-13197.606,-7.268,41.067
1782117212.208030,0.050000,1658610,1000,12,0,1,683.412,10.842,10.545,-13186.484,-10.375,41.027
1782117212.209031,0.051000,1658611,1000,12,0,1,683.412,11.877,10.453,-13178.293,0.937,40.986
1782117212.210031,0.052000,1658612,1000,12,0,1,682.307,7.150,10.501,-13179.999,-8.747,40.996
1782117212.211030,0.053000,1658613,1000,12,0,1,685.046,9.438,10.548,-13181.368,-11.286,40.939
1782117212.212030,0.054000,1658614,1000,12,0,1,680.530,4.895,10.571,-13179.518,-12.054,40.962
1782117212.213031,0.055000,1658615,1000,12,0,1,671.306,-3.970,10.560,-13173.345,-7.224,40.858
1782117212.214031,0.056000,1658616,1000,12,0,1,663.139,-10.573,10.599,-13174.113,-5.566,40.807
1782117212.215030,0.057000,1658617,1000,12,0,1,659.800,-12.165,10.460,-13174.738,-7.364,40.800
1782117212.216031,0.058000,1658618,1000,12,0,1,662.971,-7.318,10.330,-13175.651,-4.070,40.803
1782117212.217031,0.059000,1658619,1000,12,0,1,668.207,-0.981,10.319,-13196.333,-18.518,35.589
1782117212.218030,0.060000,1658620,1000,12,0,1,676.758,6.384,10.150,-13202.001,-22.335,22.979
1782117212.219031,0.061000,1658621,1000,12,0,1,680.458,9.589,9.770,-13213.748,-22.155,23.067
1782117212.220031,0.062000,1658622,1000,12,0,1,674.909,2.803,9.684,-13184.178,0.983,22.683
1782117212.221030,0.063000,1658623,1000,12,0,1,670.369,-3.666,9.654,-13171.735,25.313,21.855
1782117212.222030,0.064000,1658624,1000,12,0,1,671.954,-3.200,9.589,-13162.031,23.819,20.475
1782117212.223031,0.065000,1658625,1000,12,0,1,671.258,-3.657,9.571,-13155.834,30.518,20.077
1782117212.224030,0.066000,1658626,1000,12,0,1,670.561,-5.288,9.003,-13165.010,14.995,19.370
1782117212.225030,0.067000,1658627,1000,12,0,1,676.614,-0.555,8.429,-13157.227,13.062,18.873
1782117212.226031,0.068000,1658628,1000,12,0,1,678.440,1.989,8.069,-13140.653,24.102,18.358
1782117212.227031,0.069000,1658629,1000,12,0,1,662.442,-11.246,7.808,-13131.189,23.262,18.437
1782117212.228030,0.070000,1658630,1000,12,0,1,659.127,-16.292,8.049,-13127.681,18.985,18.388
1782117212.229031,0.071000,1658631,1000,12,0,1,678.560,3.561,8.022,-13134.647,4.039,17.638
1782117212.230031,0.072000,1658632,1000,12,0,1,687.952,15.063,8.105,-13137.578,-5.491,16.671
1782117212.231030,0.073000,1658633,1000,12,0,1,691.819,15.389,8.183,-13142.622,-12.890,16.022
1782117212.232030,0.074000,1658634,1000,12,0,1,707.745,26.558,8.878,-13146.346,-18.563,15.537
1782117212.233031,0.075000,1658635,1000,12,0,1,714.951,31.366,9.872,-13151.702,-21.902,15.339
1782117212.234030,0.076000,1658636,1000,12,0,1,708.562,20.400,10.285,-13151.894,-20.954,15.484
1782117212.235030,0.077000,1658637,1000,12,0,1,702.412,10.193,10.348,-13157.755,-20.700,15.618
1782117212.236031,0.078000,1658638,1000,12,0,1,698.641,4.138,10.249,-13182.256,-36.459,16.413
1782117212.237031,0.079000,1658639,1000,12,0,1,698.377,1.458,10.063,-13194.963,-43.593,17.369
1782117212.238030,0.080000,1658640,1000,12,0,1,699.938,1.527,9.984,-13172.192,-15.958,17.422
1782117212.239031,0.081000,1658641,1000,12,0,1,697.464,-1.911,9.981,-13167.580,-0.093,17.370
1782117212.240031,0.082000,1658642,1000,12,0,1,697.344,-4.302,9.999,-13161.142,3.469,17.372
1782117212.241030,0.083000,1658643,1000,12,0,1,698.377,-4.011,10.009,-13190.640,-12.236,17.455
1782117212.242031,0.084000,1658644,1000,12,0,1,695.254,-7.691,10.013,-13170.751,-7.103,17.471
1782117212.243031,0.085000,1658645,1000,12,0,1,684.061,-17.445,10.236,-13150.285,24.711,17.777
1782117212.244030,0.086000,1658646,1000,12,0,1,669.672,-29.545,10.996,-13133.903,27.266,18.129
1782117212.245030,0.087000,1658647,1000,12,0,1,664.676,-31.934,11.860,-13129.027,31.147,18.604
1782117212.246031,0.088000,1658648,1000,12,0,1,662.923,-28.184,12.459,-13167.868,-8.582,18.605
1782117212.247030,0.089000,1658649,1000,12,0,1,652.738,-31.885,13.169,-13155.425,-13.013,18.679
1782117212.248030,0.090000,1658650,1000,12,0,1,637.172,-40.139,14.301,-13121.989,23.710,18.838
1782117212.249031,0.091000,1658651,1000,12,0,1,633.377,-37.959,15.274,-13114.662,21.694,18.994
1782117212.250031,0.092000,1658652,1000,12,0,1,666.646,-4.463,15.284,-13113.774,17.310,19.095
1782117212.251030,0.093000,1658653,1000,12,0,1,726.433,51.640,16.933,-13120.163,5.599,19.014
1782117212.252031,0.094000,1658654,1000,12,0,1,746.394,70.108,19.579,-13120.547,0.938,19.000
1782117212.253031,0.095000,1658655,1000,12,0,1,728.931,42.921,20.440,-13116.296,3.701,18.101
1782117212.254030,0.096000,1658656,1000,12,0,1,710.267,17.719,20.545,-13117.857,2.167,17.703
1782117212.255030,0.097000,1658657,1000,12,0,1,704.358,7.012,20.511,-13136.761,-12.380,17.763
1782117212.256031,0.098000,1658658,1000,12,0,1,703.614,5.040,20.519,-13127.561,-7.719,17.765
1782117212.257030,0.099000,1658659,1000,12,0,1,710.315,8.446,20.554,-13126.432,3.219,17.741
1782117212.258030,0.100000,1658660,1000,12,0,1,709.907,8.479,20.532,-13131.789,-4.271,17.690
1782117212.259031,0.101000,1658661,1000,12,0,1,703.229,-0.034,20.463,-13132.005,-0.681,17.690
1782117212.260031,0.102000,1658662,1000,12,0,1,705.415,-0.064,20.438,-13124.343,5.292,17.663
1782117212.261030,0.103000,1658663,1000,12,0,1,710.051,4.344,20.403,-13115.695,13.441,17.693
1782117212.262031,0.104000,1658664,1000,12,0,1,711.228,3.701,20.398,-13110.459,15.205,17.741
1782117212.263031,0.105000,1658665,1000,12,0,1,710.988,2.111,20.393,-13104.454,15.247,17.843
1782117212.264030,0.106000,1658666,1000,12,0,1,708.153,-2.013,20.340,-13108.057,8.630,17.867
1782117212.265031,0.107000,1658667,1000,12,0,1,709.234,-3.000,20.272,-13133.206,-18.133,18.020
1782117212.266031,0.108000,1658668,1000,12,0,1,713.966,0.140,20.245,-13133.446,-25.468,18.368
1782117212.267030,0.109000,1658669,1000,12,0,1,717.209,1.649,20.246,-13103.493,0.644,18.180
1782117212.268030,0.110000,1658670,1000,12,0,1,716.104,-1.033,20.226,-13097.680,6.994,17.931
1782117212.269031,0.111000,1658671,1000,12,0,1,704.574,-11.724,20.249,-13089.801,3.895,17.664
1782117212.270030,0.112000,1658672,1000,12,0,1,696.816,-20.340,20.448,-13084.564,8.287,17.702
1782117212.271030,0.113000,1658673,1000,12,0,1,696.936,-18.064,20.601,-13080.505,4.598,17.348
1782117212.272031,0.114000,1658674,1000,12,0,1,706.136,-9.031,20.635,-13082.883,2.207,17.021
1782117212.273031,0.115000,1658675,1000,12,0,1,706.184,-5.295,20.642,-13083.844,-2.779,16.470
1782117212.274030,0.116000,1658676,1000,12,0,1,698.617,-12.299,20.702,-13091.458,-7.242,16.365
1782117212.275031,0.117000,1658677,1000,12,0,1,689.802,-17.743,20.853,-13103.973,-17.767,16.453
1782117212.276031,0.118000,1658678,1000,12,0,1,684.733,-19.900,21.041,-13086.534,-2.911,16.101
1782117212.277030,0.119000,1658679,1000,12,0,1,682.187,-17.957,21.134,-13079.256,11.922,15.851
1782117212.278030,0.120000,1658680,1000,12,0,1,685.094,-12.099,21.077,-13077.887,8.796,15.672
1782117212.279031,0.121000,1658681,1000,12,0,1,699.266,2.650,21.074,-13079.640,9.918,15.724
1782117212.280030,0.122000,1658682,1000,12,0,1,715.360,18.854,21.135,-13102.604,-10.784,15.779
1782117212.281030,0.123000,1658683,1000,12,0,1,714.927,18.225,21.180,-13115.623,-24.355,16.047
1782117212.282031,0.124000,1658684,1000,12,0,1,704.863,6.302,20.864,-13079.064,6.065,15.854
1782117212.283031,0.125000,1658685,1000,12,0,1,707.673,5.466,20.401,-13075.677,17.108,15.736
1782117212.284030,0.126000,1658686,1000,12,0,1,709.114,7.968,20.228,-13089.609,-6.311,15.480
1782117212.285031,0.127000,1658687,1000,12,0,1,706.280,2.908,20.181,-13094.557,-11.836,15.293
1782117212.286031,0.128000,1658688,1000,12,0,1,707.193,2.768,20.176,-13087.087,-9.858,14.464
1782117212.287030,0.129000,1658689,1000,12,0,1,703.181,-0.696,20.175,-13058.742,11.296,13.182
1782117212.288031,0.130000,1658690,1000,12,0,1,695.471,-8.234,20.208,-13052.040,17.114,13.211
1782117212.289031,0.131000,1658691,1000,12,0,1,689.946,-12.287,20.280,-13051.656,6.282,13.241
1782117212.290030,0.132000,1658692,1000,12,0,1,683.917,-15.441,20.388,-13051.416,4.431,13.247
1782117212.291030,0.133000,1658693,1000,12,0,1,689.465,-9.697,20.427,-13055.091,-4.493,13.148
1782117212.292031,0.134000,1658694,1000,12,0,1,706.880,7.875,20.428,-13065.780,-13.513,13.249
1782117212.293031,0.135000,1658695,1000,12,0,1,714.975,16.465,20.412,-13069.359,-18.472,13.044
1782117212.294030,0.136000,1658696,1000,12,0,1,710.387,10.331,20.033,-13068.230,-13.137,12.598
1782117212.295031,0.137000,1658697,1000,12,0,1,711.757,8.372,19.553,-13070.032,-11.581,11.916
1782117212.296031,0.138000,1658698,1000,12,0,1,715.264,11.022,19.206,-13075.076,-12.079,11.977
1782117212.297030,0.139000,1658699,1000,12,0,1,707.601,3.576,18.676,-13078.391,-11.253,11.941
1782117212.298031,0.140000,1658700,1000,12,0,1,695.182,-8.711,17.835,-13096.599,-20.716,11.829
1782117212.299031,0.141000,1658701,1000,12,0,1,679.064,-20.862,17.262,-13077.743,-6.416,11.460
1782117212.300030,0.142000,1658702,1000,12,0,1,684.541,-16.495,17.407,-13064.219,16.258,11.429
1782117212.301030,0.143000,1658703,1000,12,0,1,699.962,2.679,15.806,-13081.682,-1.234,11.403
1782117212.302031,0.144000,1658704,1000,12,0,1,702.677,6.387,12.342,-13083.820,-6.789,11.443
1782117212.303030,0.145000,1658705,1000,12,0,1,707.865,8.743,10.818,-13202.914,-90.472,17.157
1782117212.304030,0.146000,1658706,1000,12,0,1,707.601,9.349,10.606,-13323.186,-203.612,33.518
1782117212.305031,0.147000,1658707,1000,12,0,1,700.659,0.657,10.560,-13110.891,-20.220,33.594
1782117212.306031,0.148000,1658708,1000,12,0,1,705.223,2.747,10.543,-13081.610,81.251,35.488
1782117212.307030,0.149000,1658709,1000,12,0,1,705.847,4.545,10.495,-13090.978,12.820,35.531
1782117212.308031,0.150000,1658710,1000,12,0,1,702.581,-0.487,10.426,-13074.740,52.043,36.280
1782117212.309031,0.151000,1658711,1000,12,0,1,693.837,-7.209,10.476,-13062.561,36.505,36.646
1782117212.310030,0.152000,1658712,1000,12,0,1,692.180,-10.114,10.573,-13058.022,43.123,37.142
1782117212.311031,0.153000,1658713,1000,12,0,1,694.149,-5.571,10.585,-13053.698,34.581,37.415
1782117212.312031,0.154000,1658714,1000,12,0,1,697.464,-2.324,10.577,-13049.302,31.988,37.626
1782117212.313030,0.155000,1658715,1000,12,0,1,698.209,-0.052,10.573,-13050.887,29.201,37.790
1782117212.314030,0.156000,1658716,1000,12,0,1,693.044,-3.910,10.583,-13081.682,-2.637,37.772
1782117212.315031,0.157000,1658717,1000,12,0,1,690.738,-5.971,10.609,-13086.558,-7.709,37.701
1782117212.316031,0.158000,1658718,1000,12,0,1,688.336,-5.600,10.638,-13047.741,25.385,37.700
1782117212.317030,0.159000,1658719,1000,12,0,1,682.932,-9.103,10.713,-13034.097,47.543,38.295
1782117212.318031,0.160000,1658720,1000,12,0,1,680.986,-8.916,10.786,-13025.546,41.865,38.737
1782117212.319031,0.161000,1658721,1000,12,0,1,672.194,-12.885,10.813,-13020.093,48.323,39.331
1782117212.320030,0.162000,1658722,1000,12,0,1,665.901,-16.963,10.695,-13014.448,40.551,39.730
1782117212.321031,0.163000,1658723,1000,12,0,1,677.935,-3.996,10.401,-13032.103,24.446,39.875
1782117212.322031,0.164000,1658724,1000,12,0,1,693.429,13.108,10.488,-13046.996,-1.694,39.874
1782117212.323030,0.165000,1658725,1000,12,0,1,705.511,22.500,10.934,-13016.850,18.492,39.958
1782117212.324030,0.166000,1658726,1000,12,0,1,706.976,22.506,11.254,-13013.463,22.246,40.068
1782117212.325031,0.167000,1658727,1000,12,0,1,702.148,13.874,11.145,-13019.252,1.620,39.990
1782117212.326030,0.168000,1658728,1000,12,0,1,700.899,9.766,10.872,-13040.414,-18.048,40.070
1782117212.327030,0.169000,1658729,1000,12,0,1,700.923,8.008,10.632,-13052.617,-40.066,40.433
1782117212.328031,0.170000,1658730,1000,12,0,1,699.122,4.820,10.515,-13024.609,-17.046,40.486
1782117212.329031,0.171000,1658731,1000,12,0,1,695.062,0.356,10.509,-12996.601,7.299,40.475
1782117212.330030,0.172000,1658732,1000,12,0,1,682.884,-9.765,10.258,-12984.326,11.780,40.480
1782117212.331031,0.173000,1658733,1000,12,0,1,677.095,-15.276,10.161,-12977.528,10.943,40.363
1782117212.332031,0.174000,1658734,1000,12,0,1,672.963,-14.737,10.335,-12973.253,7.943,40.370
1782117212.333030,0.175000,1658735,1000,12,0,1,666.045,-18.036,10.617,-12973.709,3.384,40.300
1782117212.334031,0.176000,1658736,1000,12,0,1,675.101,-8.410,10.623,-12994.367,-16.064,40.354
1782117212.335031,0.177000,1658737,1000,12,0,1,705.559,20.296,10.997,-13186.916,-160.974,46.302
1782117212.336030,0.178000,1658738,1000,12,0,1,728.883,41.394,12.452,-13301.375,-272.240,60.202
1782117212.337030,0.179000,1658739,1000,12,0,1,725.232,34.034,13.349,-13118.818,-79.834,61.230
1782117212.338031,0.180000,1658740,1000,12,0,1,721.029,21.517,13.642,-13078.319,26.525,61.297
1782117212.339031,0.181000,1658741,1000,12,0,1,709.907,9.796,13.602,-13062.970,9.765,61.307
1782117212.340030,0.182000,1658742,1000,12,0,1,690.378,-11.471,13.523,-13047.332,51.819,61.740
1782117212.341031,0.183000,1658743,1000,12,0,1,682.067,-19.670,13.738,-13033.809,43.084,62.036
1782117212.342031,0.184000,1658744,1000,12,0,1,686.775,-13.610,13.827,-13020.621,59.518,62.576
1782117212.343030,0.185000,1658745,1000,12,0,1,689.369,-8.329,13.680,-13013.968,51.319,62.941
1782117212.344031,0.186000,1658746,1000,12,0,1,676.086,-17.178,13.817,-13011.301,44.717,63.231
1782117212.345031,0.187000,1658747,1000,12,0,1,663.595,-27.610,14.310,-13020.021,28.751,63.340
1782117212.346030,0.188000,1658748,1000,12,0,1,655.404,-29.365,14.818,-12996.409,31.854,63.477
1782117212.347030,0.189000,1658749,1000,12,0,1,643.250,-34.426,15.589,-12996.216,34.856,63.648
1782117212.348031,0.190000,1658750,1000,12,0,1,636.980,-34.370,16.283,-13020.501,-3.641,63.583
1782117212.349030,0.191000,1658751,1000,12,0,1,656.629,-12.582,16.112,-12997.946,9.714,63.591
1782117212.350030,0.192000,1658752,1000,12,0,1,675.605,11.527,16.025,-12989.923,18.079,63.601
1782117212.351031,0.193000,1658753,1000,12,0,1,677.071,13.468,16.134,-12983.221,14.639,63.634
1782117212.352031,0.194000,1658754,1000,12,0,1,666.862,4.247,16.120,-12980.098,17.165,63.674
1782117212.353030,0.195000,1658755,1000,12,0,1,661.433,-1.829,16.074,-12981.756,10.509,62.393
1782117212.354031,0.196000,1658756,1000,12,0,1,667.246,4.110,16.030,-13005.128,-7.680,55.361
1782117212.355031,0.197000,1658757,1000,12,0,1,675.846,12.879,16.133,-12992.926,-4.159,55.290
1782117212.356030,0.198000,1658758,1000,12,0,1,685.694,20.220,16.380,-12985.695,12.309,54.111
1782117212.357030,0.199000,1658759,1000,12,0,1,686.847,20.883,16.632,-12981.684,10.067,54.099
1782117212.358031,0.200000,1658760,1000,12,0,1,684.037,14.642,16.760,-12983.798,10.892,53.619
1782117212.359030,0.201000,1658761,1000,12,0,1,671.618,3.947,16.738,-12984.590,5.437,53.375
1782117212.360030,0.202000,1658762,1000,12,0,1,659.199,-8.978,16.725,-12990.187,0.076,53.025
1782117212.361031,0.203000,1658763,1000,12,0,1,645.339,-17.514,16.889,-13045.339,-44.427,53.172
1782117212.362031,0.204000,1658764,1000,12,0,1,639.791,-20.626,17.136,-13031.671,-46.507,53.386
1782117212.363030,0.205000,1658765,1000,12,0,1,658.407,-1.098,17.137,-12986.344,8.728,53.240
1782117212.364031,0.206000,1658766,1000,12,0,1,699.338,36.227,17.878,-12983.221,6.881,53.248
1782117212.365031,0.207000,1658767,1000,12,0,1,718.218,53.452,19.392,-12983.317,-0.409,53.237
1782117212.366030,0.208000,1658768,1000,12,0,1,705.079,34.254,19.972,-12975.919,0.731,53.116
1782117212.367031,0.209000,1658769,1000,12,0,1,687.616,10.901,19.990,-12966.887,2.783,52.690
1782117212.368031,0.210000,1658770,1000,12,0,1,677.887,-1.220,19.951,-12959.777,4.590,52.360
1782117212.369030,0.211000,1658771,1000,12,0,1,677.383,-3.756,19.875,-12957.687,0.974,51.912
1782117212.370030,0.212000,1658772,1000,12,0,1,677.215,-3.084,19.734,-12956.534,-1.468,51.595
1782117212.371031,0.213000,1658773,1000,12,0,1,676.374,-4.922,19.738,-12953.171,-1.539,51.480
1782117212.372030,0.214000,1658774,1000,12,0,1,673.756,-6.399,19.672,-12952.018,-0.522,51.479
1782117212.373030,0.215000,1658775,1000,12,0,1,668.928,-10.616,19.471,-12954.805,-3.374,51.415
1782117212.374031,0.216000,1658776,1000,12,0,1,668.856,-10.109,19.262,-12956.606,-3.759,51.321
1782117212.375031,0.217000,1658777,1000,12,0,1,668.375,-8.433,19.199,-12955.693,-1.197,51.321
1782117212.376030,0.218000,1658778,1000,12,0,1,664.820,-10.355,19.205,-12957.279,0.236,51.258
1782117212.377031,0.219000,1658779,1000,12,0,1,660.905,-12.046,19.247,-12957.807,0.864,50.944
1782117212.378031,0.220000,1658780,1000,12,0,1,662.898,-8.997,19.277,-12980.195,-13.611,50.923
1782117212.379030,0.221000,1658781,1000,12,0,1,673.756,2.080,19.280,-12967.728,-8.554,50.927
1782117212.380030,0.222000,1658782,1000,12,0,1,681.346,10.262,19.285,-12959.176,8.880,50.915
1782117212.381031,0.223000,1658783,1000,12,0,1,680.049,8.235,19.199,-12962.539,-0.110,50.892
1782117212.382030,0.224000,1658784,1000,12,0,1,674.044,1.787,19.087,-12973.517,-8.914,50.895
1782117212.383030,0.225000,1658785,1000,12,0,1,669.768,-2.857,18.920,-12957.519,-2.821,50.894
1782117212.384031,0.226000,1658786,1000,12,0,1,672.146,-0.860,18.883,-12995.087,-26.284,50.979
1782117212.385031,0.227000,1658787,1000,12,0,1,661.794,-7.022,18.690,-12969.049,-24.231,45.742
1782117212.386030,0.228000,1658788,1000,12,0,1,652.185,-16.688,17.906,-12938.951,17.754,24.827
1782117212.387031,0.229000,1658789,1000,12,0,1,644.907,-18.653,17.447,-12927.301,14.135,22.201
1782117212.388031,0.230000,1658790,1000,12,0,1,654.035,-10.200,17.240,-12924.130,14.705,21.980
1782117212.389030,0.231000,1658791,1000,12,0,1,679.184,15.134,17.317,-12942.578,-6.931,21.959
1782117212.390031,0.232000,1658792,1000,12,0,1,685.358,22.552,17.534,-12944.836,-16.696,20.834
1782117212.391031,0.233000,1658793,1000,12,0,1,679.136,12.319,17.399,-12928.646,1.290,19.924
1782117212.392030,0.234000,1658794,1000,12,0,1,672.291,4.750,17.305,-12925.884,3.194,18.065
1782117212.393030,0.235000,1658795,1000,12,0,1,671.402,1.331,17.266,-12927.013,3.195,16.549
1782117212.394031,0.236000,1658796,1000,12,0,1,680.698,8.907,17.141,-12926.532,3.102,15.299
1782117212.395030,0.237000,1658797,1000,12,0,1,690.690,16.702,16.856,-12927.277,5.643,14.770
1782117212.396030,0.238000,1658798,1000,12,0,1,681.178,8.020,16.376,-12924.515,7.648,14.108
1782117212.397031,0.239000,1658799,1000,12,0,1,671.426,-5.008,15.652,-12919.518,14.490,13.377
1782117212.398031,0.240000,1658800,1000,12,0,1,674.164,-2.468,14.882,-12917.284,15.471,13.545
1782117212.399030,0.241000,1658801,1000,12,0,1,674.092,-1.108,14.776,-12920.551,12.080,13.583
1782117212.400031,0.242000,1658802,1000,12,0,1,676.134,-0.473,14.686,-12924.491,5.483,13.363
1782117212.401031,0.243000,1658803,1000,12,0,1,672.483,-1.605,14.564,-12921.248,5.424,13.224
1782117212.402030,0.244000,1658804,1000,12,0,1,662.154,-11.142,14.636,-12912.528,9.577,13.069
1782117212.403030,0.245000,1658805,1000,12,0,1,653.530,-16.993,14.830,-12904.457,11.802,13.091
1782117212.404031,0.246000,1658806,1000,12,0,1,661.505,-9.371,14.878,-12898.764,10.269,13.127
1782117212.405030,0.247000,1658807,1000,12,0,1,674.284,5.554,14.787,-12962.900,-43.219,14.468
1782117212.406030,0.248000,1658808,1000,12,0,1,680.217,10.591,14.585,-13203.803,-237.965,36.590
1782117212.407031,0.249000,1658809,1000,12,0,1,670.153,1.977,14.285,-13055.259,-152.182,42.426
1782117212.408031,0.250000,1658810,1000,12,0,1,677.527,3.207,14.142,-12952.859,43.086,42.834
1782117212.409030,0.251000,1658811,1000,12,0,1,692.492,18.157,14.362,-12941.834,8.231,42.843
1782117212.410031,0.252000,1658812,1000,12,0,1,691.147,14.722,14.457,-12974.862,9.101,42.862
1782117212.411031,0.253000,1658813,1000,12,0,1,688.144,7.384,14.281,-12940.344,8.968,42.418
1782117212.412030,0.254000,1658814,1000,12,0,1,693.861,9.901,14.050,-12931.072,41.148,42.307
1782117212.413031,0.255000,1658815,1000,12,0,1,692.996,7.855,14.093,-12932.417,24.682,42.433
1782117212.414031,0.256000,1658816,1000,12,0,1,688.048,0.748,13.129,-12932.634,26.308,42.585
1782117212.415030,0.257000,1658817,1000,12,0,1,686.319,-2.351,10.740,-12945.893,17.558,42.657
1782117212.416030,0.258000,1658818,1000,12,0,1,683.052,-4.822,9.610,-12926.628,23.354,42.785
1782117212.417031,0.259000,1658819,1000,12,0,1,674.236,-12.185,9.640,-12916.011,46.887,43.294
1782117212.418031,0.260000,1658820,1000,12,0,1,666.069,-18.076,9.972,-12906.163,39.074,43.640
1782117212.419030,0.261000,1658821,1000,12,0,1,658.575,-21.587,10.415,-12901.359,50.431,44.219
1782117212.420031,0.262000,1658822,1000,12,0,1,656.197,-20.574,10.805,-12898.692,37.213,44.530
1782117212.421031,0.263000,1658823,1000,12,0,1,655.020,-16.958,11.046,-12890.285,43.872,44.960
1782117212.422030,0.264000,1658824,1000,12,0,1,658.335,-11.343,11.125,-12883.872,37.529,45.272
1782117212.423031,0.265000,1658825,1000,12,0,1,658.695,-6.934,11.067,-12883.055,32.069,45.496
1782117212.424031,0.266000,1658826,1000,12,0,1,666.430,-0.254,10.975,-12898.092,9.667,45.514
1782117212.425030,0.267000,1658827,1000,12,0,1,679.689,12.987,11.063,-12878.611,13.110,45.551
1782117212.426030,0.268000,1658828,1000,12,0,1,677.647,11.514,11.086,-12868.474,21.907,45.656
1782117212.427031,0.269000,1658829,1000,12,0,1,670.729,1.922,10.958,-12868.138,7.628,45.669
1782117212.428030,0.270000,1658830,1000,12,0,1,679.136,7.125,10.930,-12911.519,-29.170,45.814
1782117212.429030,0.271000,1658831,1000,12,0,1,693.357,18.859,11.247,-12896.002,-34.985,46.065
1782117212.430031,0.272000,1658832,1000,12,0,1,698.905,21.444,11.558,-12883.776,-8.957,46.065
1782117212.431031,0.273000,1658833,1000,12,0,1,693.285,12.828,11.641,-12879.980,-16.814,46.126
1782117212.432030,0.274000,1658834,1000,12,0,1,689.129,5.106,11.661,-12875.248,-8.505,46.125
1782117212.433031,0.275000,1658835,1000,12,0,1,681.923,-1.644,11.656,-12872.582,-9.294,46.142
1782117212.434031,0.276000,1658836,1000,12,0,1,670.993,-11.853,11.775,-12866.313,-4.232,45.996
1782117212.435030,0.277000,1658837,1000,12,0,1,660.184,-19.477,12.052,-12864.919,-1.101,45.868
1782117212.436031,0.278000,1658838,1000,12,0,1,651.152,-24.064,12.299,-12877.891,-13.162,45.837
1782117212.437031,0.279000,1658839,1000,12,0,1,640.583,-28.047,12.651,-12873.615,-9.636,45.814
1782117212.438030,0.280000,1658840,1000,12,0,1,632.296,-29.966,13.264,-12859.707,4.717,45.772
1782117212.439030,0.281000,1658841,1000,12,0,1,637.172,-20.442,13.405,-12859.995,6.867,45.771
1782117212.440031,0.282000,1658842,1000,12,0,1,666.117,8.573,13.077,-12861.412,1.358,45.711
1782117212.441031,0.283000,1658843,1000,12,0,1,694.101,36.495,13.950,-12861.124,2.200,45.712
1782117212.442030,0.284000,1658844,1000,12,0,1,692.540,33.202,14.704,-12906.115,-34.134,45.964
1782117212.443031,0.285000,1658845,1000,12,0,1,676.374,12.427,14.807,-12909.406,-45.982,46.419
1782117212.444031,0.286000,1658846,1000,12,0,1,657.230,-6.843,14.785,-12857.521,6.577,46.426
1782117212.445030,0.287000,1658847,1000,12,0,1,658.479,-9.316,14.655,-12843.805,22.973,46.533
1782117212.446031,0.288000,1658848,1000,12,0,1,675.653,7.804,14.652,-12840.899,13.351,46.559
1782117212.447031,0.289000,1658849,1000,12,0,1,691.267,20.299,14.914,-12847.961,5.602,46.520
1782117212.448030,0.290000,1658850,1000,12,0,1,695.783,21.832,15.226,-12868.619,-20.285,46.557
1782117212.449030,0.291000,1658851,1000,12,0,1,697.728,18.121,15.440,-12852.693,-12.107,46.558
1782117212.450031,0.292000,1658852,1000,12,0,1,693.189,11.433,15.524,-12843.277,0.749,46.551
1782117212.451030,0.293000,1658853,1000,12,0,1,688.072,2.904,15.528,-12838.184,-1.331,46.545
1782117212.452030,0.294000,1658854,1000,12,0,1,690.931,3.471,15.455,-12835.974,1.732,46.526
1782117212.453031,0.295000,1658855,1000,12,0,1,691.075,3.889,15.277,-12833.380,0.144,46.496
1782117212.454031,0.296000,1658856,1000,12,0,1,684.901,-2.595,15.224,-12855.287,-14.766,46.520
1782117212.455030,0.297000,1658857,1000,12,0,1,673.083,-11.901,15.297,-12891.943,-46.794,46.590
1782117212.456031,0.298000,1658858,1000,12,0,1,662.322,-20.407,15.494,-12853.149,-15.036,32.289
1782117212.457031,0.299000,1658859,1000,12,0,1,654.635,-23.147,15.834,-12836.335,19.223,24.223
1782117212.458030,0.300000,1658860,1000,12,0,1,643.610,-27.937,16.313,-12829.945,14.573,23.535
1782117212.459031,0.301000,1658861,1000,12,0,1,646.468,-22.497,16.421,-12823.051,25.891,23.789
1782117212.460031,0.302000,1658862,1000,12,0,1,667.438,0.413,16.288,-12820.938,20.835,23.937
1782117212.461030,0.303000,1658863,1000,12,0,1,689.874,21.979,16.549,-12826.943,14.552,23.991
1782117212.462030,0.304000,1658864,1000,12,0,1,702.821,31.093,17.066,-12832.227,4.313,23.283
1782117212.463031,0.305000,1658865,1000,12,0,1,704.022,27.111,17.456,-12831.026,2.166,23.022
1782117212.464031,0.306000,1658866,1000,12,0,1,695.999,14.262,17.572,-12839.505,-5.857,22.734
1782117212.465030,0.307000,1658867,1000,12,0,1,695.350,7.400,17.600,-12816.085,4.894,22.609
1782117212.466031,0.308000,1658868,1000,12,0,1,693.861,4.298,17.598,-12806.597,18.104,22.513
1782117212.467031,0.309000,1658869,1000,12,0,1,691.723,-1.362,17.514,-12808.207,4.263,21.522
1782117212.468030,0.310000,1658870,1000,12,0,1,692.852,-1.762,17.328,-12807.486,2.729,20.804
1782117212.469031,0.311000,1658871,1000,12,0,1,691.147,-3.792,17.066,-12807.486,-3.804,19.551
1782117212.470031,0.312000,1658872,1000,12,0,1,688.216,-7.092,16.846,-12805.300,-4.582,18.841
1782117212.471030,0.313000,1658873,1000,12,0,1,678.488,-13.657,16.786,-12802.249,-4.422,17.801
1782117212.472030,0.314000,1658874,1000,12,0,1,682.619,-11.207,16.784,-12802.706,-6.259,17.014
1782117212.473031,0.315000,1658875,1000,12,0,1,688.961,-0.566,16.755,-12807.750,-10.725,16.469
1782117212.474030,0.316000,1658876,1000,12,0,1,686.703,-1.972,16.758,-12835.662,-31.918,17.021
1782117212.475030,0.317000,1658877,1000,12,0,1,676.975,-8.410,16.699,-12867.297,-56.758,18.727
1782117212.476031,0.318000,1658878,1000,12,0,1,672.939,-11.617,16.700,-12826.967,-20.875,18.704
1782117212.477031,0.319000,1658879,1000,12,0,1,680.193,-2.924,16.703,-12816.710,8.866,18.715
1782117212.478030,0.320000,1658880,1000,12,0,1,691.267,8.447,16.716,-12813.563,2.130,18.257
1782117212.479031,0.321000,1658881,1000,12,0,1,687.880,6.541,16.527,-12808.327,14.491,17.693
1782117212.480031,0.322000,1658882,1000,12,0,1,676.806,-5.259,16.264,-12797.109,17.827,17.827
1782117212.481030,0.323000,1658883,1000,12,0,1,672.867,-9.658,16.220,-12809.167,11.076,17.737
1782117212.482030,0.324000,1658884,1000,12,0,1,673.900,-7.619,16.240,-12812.843,-1.236,17.697
1782117212.483031,0.325000,1658885,1000,12,0,1,672.531,-8.142,16.279,-12781.568,23.465,17.957
1782117212.484030,0.326000,1658886,1000,12,0,1,671.546,-8.749,16.239,-12770.614,33.556,18.564
1782117212.485030,0.327000,1658887,1000,12,0,1,666.790,-11.609,16.088,-12765.498,24.440,18.882
1782117212.486031,0.328000,1658888,1000,12,0,1,650.624,-23.440,16.070,-12767.876,19.210,18.986
1782117212.487031,0.329000,1658889,1000,12,0,1,662.154,-15.283,15.722,-12787.501,-7.349,18.965
1782117212.488030,0.330000,1658890,1000,12,0,1,690.330,15.056,15.289,-12819.785,-36.750,19.653
1782117212.489031,0.331000,1658891,1000,12,0,1,691.939,18.006,15.227,-12794.779,-23.555,19.910
1782117212.490031,0.332000,1658892,1000,12,0,1,692.492,12.990,15.290,-12785.411,-1.286,19.910
1782117212.491030,0.333000,1658893,1000,12,0,1,699.866,19.028,14.642,-12782.384,-7.926,19.939
1782117212.492031,0.334000,1658894,1000,12,0,1,698.305,15.890,14.049,-12779.766,-0.423,19.346
1782117212.493031,0.335000,1658895,1000,12,0,1,690.570,7.165,13.976,-12776.812,-1.395,18.221
1782117212.494030,0.336000,1658896,1000,12,0,1,686.295,2.015,13.945,-12787.044,-6.888,18.223
1782117212.495030,0.337000,1658897,1000,12,0,1,686.487,2.620,13.888,-12800.784,-19.367,18.139
1782117212.496031,0.338000,1658898,1000,12,0,1,686.463,3.345,13.852,-12787.717,-7.855,18.075
1782117212.497030,0.339000,1658899,1000,12,0,1,681.779,-0.031,13.551,-12784.210,3.549,18.065
1782117212.498030,0.340000,1658900,1000,12,0,1,680.626,-1.528,13.197,-12777.292,4.593,17.847
1782117212.499031,0.341000,1658901,1000,12,0,1,676.446,-3.334,12.954,-12772.296,13.438,17.866
1782117212.500031,0.342000,1658902,1000,12,0,1,672.819,-7.035,12.891,-12766.723,12.476,17.953
1782117212.501030,0.343000,1658903,1000,12,0,1,669.480,-8.393,12.939,-12759.829,17.971,18.131
1782117212.502031,0.344000,1658904,1000,12,0,1,666.766,-10.371,13.013,-12752.094,18.648,18.320
1782117212.503031,0.345000,1658905,1000,12,0,1,670.729,-6.554,13.034,-12748.587,17.795,18.492
1782117212.504030,0.346000,1658906,1000,12,0,1,690.378,9.611,13.100,-12748.779,11.045,18.440
1782117212.505030,0.347000,1658907,1000,12,0,1,697.897,17.344,13.221,-12746.882,6.740,17.238
1782117212.506031,0.348000,1658908,1000,12,0,1,692.612,7.683,12.947,-12746.618,2.733,17.111
1782117212.507030,0.349000,1658909,1000,12,0,1,690.210,2.210,12.531,-12748.491,-3.893,16.902
1782117212.508030,0.350000,1658910,1000,12,0,1,686.391,-2.237,11.896,-12773.545,-25.132,17.149
1782117212.509031,0.351000,1658911,1000,12,0,1,683.820,-6.145,11.495,-12795.355,-47.972,18.075
1782117212.510031,0.352000,1658912,1000,12,0,1,681.875,-6.717,11.534,-12759.469,-16.352,17.982
1782117212.511030,0.353000,1658913,1000,12,0,1,679.761,-8.026,11.165,-12744.912,8.134,17.901
1782117212.512031,0.354000,1658914,1000,12,0,1,676.879,-8.231,10.329,-12743.183,2.385,17.894
1782117212.513031,0.355000,1658915,1000,12,0,1,683.100,-2.226,9.596,-12749.788,0.332,17.891
1782117212.514030,0.356000,1658916,1000,12,0,1,685.526,3.853,9.397,-12766.194,-16.408,18.022
1782117212.515031,0.357000,1658917,1000,12,0,1,683.580,1.966,9.343,-12750.485,-4.190,18.019
1782117212.516031,0.358000,1658918,1000,12,0,1,680.914,1.158,9.325,-12746.666,7.077,17.864
1782117212.517030,0.359000,1658919,1000,12,0,1,680.025,0.747,9.323,-12745.152,2.793,17.858
1782117212.518030,0.360000,1658920,1000,12,0,1,678.848,0.976,9.321,-12740.348,9.882,17.908
1782117212.519031,0.361000,1658921,1000,12,0,1,677.575,0.184,9.306,-12733.574,11.650,17.976
1782117212.520030,0.362000,1658922,1000,12,0,1,672.267,-3.600,9.265,-12728.482,15.453,18.097
1782117212.521030,0.363000,1658923,1000,12,0,1,668.471,-7.187,9.119,-12767.203,-17.078,18.246
1782117212.522031,0.364000,1658924,1000,12,0,1,664.700,-9.202,9.074,-12785.171,-41.250,19.136
1782117212.523031,0.365000,1658925,1000,12,0,1,652.834,-17.684,9.412,-12737.586,2.995,19.080
1782117212.524030,0.366000,1658926,1000,12,0,1,650.696,-19.871,9.818,-12722.092,24.717,18.865
1782117212.525031,0.367000,1658927,1000,12,0,1,663.139,-5.963,9.783,-12721.036,14.140,17.189
1782117212.526031,0.368000,1658928,1000,12,0,1,670.489,2.761,9.651,-12730.908,5.504,16.952
1782117212.527030,0.369000,1658929,1000,12,0,1,666.237,-0.870,9.643,-12731.268,-4.111,16.915
1782117212.528030,0.370000,1658930,1000,12,0,1,667.799,-1.327,9.571,-12714.310,10.056,16.972
1782117212.529031,0.371000,1658931,1000,12,0,1,693.020,19.110,9.902,-12714.478,8.898,16.895
1782117212.530030,0.372000,1658932,1000,12,0,1,708.225,33.961,10.980,-12712.436,3.673,16.714
1782117212.531030,0.373000,1658933,1000,12,0,1,700.467,22.228,11.339,-12710.202,5.954,16.662
1782117212.532031,0.374000,1658934,1000,12,0,1,694.221,11.651,11.408,-12711.163,0.922,16.661
1782117212.533031,0.375000,1658935,1000,12,0,1,693.837,9.719,11.432,-12712.004,0.121,16.328
1782117212.534030,0.376000,1658936,1000,12,0,1,693.429,8.315,11.426,-12710.875,-0.821,15.623
1782117212.535031,0.377000,1658937,1000,12,0,1,687.544,3.363,11.317,-12707.776,2.187,15.239
1782117212.536031,0.378000,1658938,1000,12,0,1,676.014,-6.602,10.861,-12706.887,2.409,14.999
1782117212.537030,0.379000,1658939,1000,12,0,1,668.447,-12.260,10.784,-12717.048,-5.840,14.986
1782117212.538031,0.380000,1658940,1000,12,0,1,666.237,-11.409,10.694,-12764.225,-42.805,15.304
1782117212.539031,0.381000,1658941,1000,12,0,1,671.738,-4.685,10.408,-12737.634,-28.961,15.488
1782117212.540030,0.382000,1658942,1000,12,0,1,679.016,3.883,10.259,-12715.943,9.990,15.551
1782117212.541030,0.383000,1658943,1000,12,0,1,675.125,1.369,9.902,-12706.551,8.139,15.554
1782117212.542031,0.384000,1658944,1000,12,0,1,659.151,-13.005,9.817,-12697.639,18.741,15.778
1782117212.543031,0.385000,1658945,1000,12,0,1,654.491,-18.498,10.109,-12688.415,18.823,15.999
1782117212.544030,0.386000,1658946,1000,12,0,1,673.516,-1.108,10.106,-12684.260,18.808,16.190
1782117212.545031,0.387000,1658947,1000,12,0,1,688.336,13.990,10.292,-12699.633,1.028,15.957
1782117212.546031,0.388000,1658948,1000,12,0,1,691.219,12.865,10.441,-12697.639,-6.784,15.947
1782117212.547030,0.389000,1658949,1000,12,0,1,701.163,16.461,10.697,-12684.500,6.228,15.964
1782117212.548031,0.390000,1658950,1000,12,0,1,701.187,14.830,10.898,-12680.657,4.631,15.964
1782117212.549031,0.391000,1658951,1000,12,0,1,695.014,3.777,10.901,-12679.696,3.200,15.857
1782117212.550030,0.392000,1658952,1000,12,0,1,688.264,-3.467,10.867,-12678.903,-0.057,15.758
1782117212.551030,0.393000,1658953,1000,12,0,1,676.158,-14.225,10.988,-12677.846,-0.296,15.552
1782117212.552031,0.394000,1658954,1000,12,0,1,668.832,-19.746,11.242,-12677.702,-1.855,15.329
1782117212.553030,0.395000,1658955,1000,12,0,1,675.726,-10.753,11.306,-12678.519,-2.837,15.126
1782117212.554030,0.396000,1658956,1000,12,0,1,679.064,-2.714,11.231,-12693.964,-14.502,15.185
1782117212.555031,0.397000,1658957,1000,12,0,1,679.040,-1.234,10.961,-12726.921,-40.813,16.217
1782117212.556031,0.398000,1658958,1000,12,0,1,682.499,3.710,10.920,-12721.012,-35.858,16.987
1782117212.557030,0.399000,1658959,1000,12,0,1,686.847,8.870,10.987,-12691.706,-0.090,16.978
1782117212.558031,0.400000,1658960,1000,12,0,1,690.378,11.881,11.110,-12681.882,11.996,16.688
1782117212.559031,0.401000,1658961,1000,12,0,1,683.628,6.474,11.114,-12675.084,14.709,15.388
1782117212.560030,0.402000,1658962,1000,12,0,1,678.728,-0.684,11.074,-12670.232,17.660,15.417
1782117212.561031,0.403000,1658963,1000,12,0,1,684.901,4.251,11.032,-12677.966,7.109,15.407
1782117212.562031,0.404000,1658964,1000,12,0,1,698.665,14.460,11.159,-12700.882,-14.958,15.548
1782117212.563030,0.405000,1658965,1000,12,0,1,696.624,12.142,11.286,-12667.710,3.836,15.557
1782117212.564030,0.406000,1658966,1000,12,0,1,690.186,0.437,11.273,-12656.708,23.572,15.740
1782117212.565031,0.407000,1658967,1000,12,0,1,691.075,-1.189,11.271,-12658.221,7.865,15.768
1782117212.566031,0.408000,1658968,1000,12,0,1,692.852,-1.518,11.272,-12696.342,-20.021,15.989
1782117212.567030,0.409000,1658969,1000,12,0,1,680.578,-12.315,11.405,-12704.077,-39.691,16.941
1782117212.568031,0.410000,1658970,1000,12,0,1,678.800,-17.154,11.659,-12666.052,0.782,16.884
1782117212.569031,0.411000,1658971,1000,12,0,1,699.794,2.122,11.663,-12664.827,7.661,16.838
1782117212.570030,0.412000,1658972,1000,12,0,1,702.437,8.140,11.709,-12662.233,0.786,16.696
1782117212.571031,0.413000,1658973,1000,12,0,1,695.975,-1.769,11.667,-12655.171,11.479,16.600
1782117212.572031,0.414000,1658974,1000,12,0,1,691.387,-4.379,11.611,-12653.345,7.746,15.580
1782117212.573030,0.415000,1658975,1000,12,0,1,687.952,-7.318,11.386,-12654.955,7.948,15.614
1782117212.574030,0.416000,1658976,1000,12,0,1,682.187,-9.242,11.111,-12652.457,6.023,15.242
1782117212.575031,0.417000,1658977,1000,12,0,1,674.885,-13.423,11.240,-12669.031,-4.288,15.122
1782117212.576030,0.418000,1658978,1000,12,0,1,668.976,-14.960,11.431,-12666.797,-8.638,15.152
1782117212.577030,0.419000,1658979,1000,12,0,1,662.490,-16.272,11.659,-12652.216,9.527,15.200
1782117212.578031,0.420000,1658980,1000,12,0,1,660.160,-14.904,11.847,-12650.415,9.946,15.199
1782117212.579031,0.421000,1658981,1000,12,0,1,673.203,-0.755,11.535,-12649.742,7.525,15.184
1782117212.580030,0.422000,1658982,1000,12,0,1,682.283,10.965,10.601,-12648.541,6.967,15.207
1782117212.581031,0.423000,1658983,1000,12,0,1,685.766,12.205,10.271,-12645.851,5.231,15.202
1782117212.582031,0.424000,1658984,1000,12,0,1,697.416,19.334,10.500,-12643.617,5.258,15.219
1782117212.583030,0.425000,1658985,1000,12,0,1,699.170,19.548,10.770,-12653.105,-5.997,15.243
1782117212.584031,0.426000,1658986,1000,12,0,1,688.144,4.751,10.727,-12696.054,-41.731,16.345
1782117212.585031,0.427000,1658987,1000,12,0,1,682.523,-4.009,10.732,-12891.294,-191.283,31.605
1782117212.586030,0.428000,1658988,1000,12,0,1,666.670,-16.686,10.948,-12739.748,-101.077,34.685
1782117212.587030,0.429000,1658989,1000,12,0,1,667.342,-19.530,11.157,-12709.842,28.557,34.910
1782117212.588031,0.430000,1658990,1000,12,0,1,676.542,-6.256,11.075,-12679.023,-7.205,34.396
1782117212.589031,0.431000,1658991,1000,12,0,1,677.935,-4.159,11.071,-12649.694,63.464,35.311
1782117212.590030,0.432000,1658992,1000,12,0,1,678.248,-2.928,11.065,-12642.728,38.704,35.705
1782117212.591031,0.433000,1658993,1000,12,0,1,684.085,2.899,11.071,-12638.284,47.068,36.302
1782117212.592031,0.434000,1658994,1000,12,0,1,684.541,5.350,10.944,-12634.849,40.476,36.655
1782117212.593030,0.435000,1658995,1000,12,0,1,676.686,-0.675,10.627,-12631.414,33.594,36.865
1782117212.594031,0.436000,1658996,1000,12,0,1,674.573,-2.447,10.631,-12631.559,35.107,37.103
1782117212.595031,0.437000,1658997,1000,12,0,1,677.959,3.365,10.456,-12647.052,9.517,37.127
1782117212.596030,0.438000,1658998,1000,12,0,1,677.095,4.299,10.315,-12639.990,17.256,37.195
1782117212.597030,0.439000,1658999,1000,12,0,1,680.049,6.933,10.096,-12630.478,19.580,37.287
1782117212.598031,0.440000,1659000,1000,12,0,1,674.885,4.580,9.897,-12621.062,29.261,37.510
1782117212.599030,0.441000,1659001,1000,12,0,1,641.184,-22.412,10.379,-12606.673,32.266,37.784
1782117212.600030,0.442000,1659002,1000,12,0,1,641.184,-26.648,11.031,-12606.673,32.676,38.066
1782117212.601031,0.443000,1659003,1000,12,0,1,640.103,-15.244,11.058,-12624.737,6.691,38.078
1782117212.602031,0.444000,1659004,1000,12,0,1,629.654,-24.856,11.262,-12622.767,3.077,38.079
1782117212.603030,0.445000,1659005,1000,12,0,1,642.673,-10.371,11.255,-12603.334,15.860,38.143
1782117212.604031,0.446000,1659006,1000,12,0,1,693.429,33.314,12.195,-12606.961,11.646,38.123
1782117212.605031,0.447000,1659007,1000,12,0,1,724.848,62.607,15.069,-12607.081,0.637,37.684
1782117212.606030,0.448000,1659008,1000,12,0,1,726.409,52.568,16.795,-12602.445,2.613,37.343
1782117212.607030,0.449000,1659009,1000,12,0,1,715.552,32.818,17.380,-12601.028,-2.465,37.345
1782117212.608031,0.450000,1659010,1000,12,0,1,704.839,14.691,17.422,-12629.493,-27.149,37.503
1782117212.609030,0.451000,1659011,1000,12,0,1,701.764,6.079,17.420,-12605.592,-18.974,37.542
1782117212.610030,0.452000,1659012,1000,12,0,1,699.002,2.358,17.423,-12601.220,-2.368,37.460
1782117212.611031,0.453000,1659013,1000,12,0,1,697.752,-1.509,17.413,-12603.671,-16.316,37.517
1782117212.612031,0.454000,1659014,1000,12,0,1,696.023,-1.772,17.295,-12591.540,-3.108,37.460
1782117212.613030,0.455000,1659015,1000,12,0,1,695.110,-3.265,17.216,-12590.291,-3.076,37.459
1782117212.614031,0.456000,1659016,1000,12,0,1,698.257,0.962,17.216,-12608.859,-19.954,37.417
1782117212.615031,0.457000,1659017,1000,12,0,1,706.664,8.162,17.254,-12644.265,-47.835,38.007
1782117212.616030,0.458000,1659018,1000,12,0,1,707.121,9.979,17.310,-12617.530,-29.544,38.131
1782117212.617031,0.459000,1659019,1000,12,0,1,701.476,2.843,17.227,-12603.743,1.625,37.716
1782117212.618031,0.460000,1659020,1000,12,0,1,700.107,0.396,17.055,-12598.458,-2.091,37.717
1782117212.619030,0.461000,1659021,1000,12,0,1,697.296,-2.171,17.055,-12592.261,9.959,37.728
1782117212.620030,0.462000,1659022,1000,12,0,1,695.591,-5.468,17.034,-12588.441,8.287,37.746
1782117212.621031,0.463000,1659023,1000,12,0,1,691.603,-8.827,17.078,-12582.725,12.982,37.756
1782117212.622030,0.464000,1659024,1000,12,0,1,691.747,-10.983,17.137,-12579.266,12.797,37.783
1782117212.623030,0.465000,1659025,1000,12,0,1,693.813,-8.911,17.152,-12580.635,7.942,37.783
1782117212.624031,0.466000,1659026,1000,12,0,1,694.414,-9.864,17.159,-12588.177,-1.087,37.774
1782117212.625031,0.467000,1659027,1000,12,0,1,689.537,-14.268,17.173,-12570.354,6.762,37.781
1782117212.626030,0.468000,1659028,1000,12,0,1,679.377,-23.451,17.362,-12558.295,19.643,37.864
1782117212.627031,0.469000,1659029,1000,12,0,1,666.405,-33.005,17.830,-12553.107,14.373,37.894
1782117212.628031,0.470000,1659030,1000,12,0,1,656.293,-38.398,18.519,-12550.537,13.475,37.916
1782117212.629030,0.471000,1659031,1000,12,0,1,651.993,-36.531,19.226,-12547.438,8.312,37.919
1782117212.630030,0.472000,1659032,1000,12,0,1,655.188,-27.278,19.548,-12547.318,5.172,37.914
1782117212.631031,0.473000,1659033,1000,12,0,1,673.155,-6.550,19.494,-12551.209,-2.924,37.909
1782117212.632030,0.474000,1659034,1000,12,0,1,689.081,13.472,19.395,-12553.371,-7.669,37.917
1782117212.633030,0.475000,1659035,1000,12,0,1,696.648,20.581,19.416,-12556.782,-11.101,37.940
1782117212.634031,0.476000,1659036,1000,12,0,1,707.505,28.791,19.827,-12563.532,-17.329,37.558
1782117212.635031,0.477000,1659037,1000,12,0,1,704.238,26.294,20.165,-12562.859,-16.113,26.154
1782117212.636030,0.478000,1659038,1000,12,0,1,695.519,14.346,20.129,-12578.953,-24.999,22.185
1782117212.637031,0.479000,1659039,1000,12,0,1,691.267,9.888,19.987,-12579.073,-26.830,22.142
1782117212.638031,0.480000,1659040,1000,12,0,1,687.352,5.849,19.985,-12563.676,-6.875,22.140
1782117212.639030,0.481000,1659041,1000,12,0,1,690.258,7.200,20.002,-12563.508,-3.483,20.245
1782117212.640031,0.482000,1659042,1000,12,0,1,693.693,10.492,20.053,-12573.188,-12.172,19.567
1782117212.641031,0.483000,1659043,1000,12,0,1,692.612,7.680,20.078,-12559.665,-2.195,18.403
1782117212.642030,0.484000,1659044,1000,12,0,1,691.843,4.864,20.076,-12592.693,-21.517,17.752
1782117212.643030,0.485000,1659045,1000,12,0,1,690.546,1.932,20.077,-12718.585,-124.925,24.591
1782117212.644031,0.486000,1659046,1000,12,0,1,686.463,-3.239,20.080,-12780.150,-177.719,34.810
1782117212.645030,0.487000,1659047,1000,12,0,1,675.581,-13.254,20.161,-12628.532,-30.587,35.052
1782117212.646030,0.488000,1659048,1000,12,0,1,666.285,-21.988,20.391,-12574.846,63.180,36.090
1782117212.647031,0.489000,1659049,1000,12,0,1,672.483,-15.776,20.489,-12563.196,44.547,36.531
1782117212.648031,0.490000,1659050,1000,12,0,1,700.755,9.511,20.523,-12584.022,38.271,36.697
1782117212.649030,0.491000,1659051,1000,12,0,1,704.430,16.849,20.416,-12582.364,16.273,36.485
1782117212.650031,0.492000,1659052,1000,12,0,1,694.606,2.091,20.067,-12558.824,42.158,36.679
1782117212.651031,0.493000,1659053,1000,12,0,1,691.531,-1.056,19.952,-12587.385,15.410,36.732
1782117212.652030,0.494000,1659054,1000,12,0,1,691.531,-1.202,19.640,-12587.385,1.169,36.730
1782117212.653030,0.495000,1659055,1000,12,0,1,691.531,-0.272,19.586,-12587.385,12.764,36.705
1782117212.654031,0.496000,1659056,1000,12,0,1,677.647,-9.343,19.056,-12543.619,35.309,37.007
1782117212.655030,0.497000,1659057,1000,12,0,1,670.489,-16.332,17.032,-12556.302,42.746,37.497
1782117212.656030,0.498000,1659058,1000,12,0,1,668.760,-11.805,15.414,-12543.186,26.888,37.688
1782117212.657031,0.499000,1659059,1000,12,0,1,668.111,-9.914,14.766,-12537.734,46.000,38.244
1782117212.658031,0.500000,1659060,1000,12,0,1,670.753,-3.659,14.628,-12536.701,29.335,38.276
1782117212.659030,0.501000,1659061,1000,12,0,1,667.318,-3.592,14.612,-12532.762,34.344,38.489
1782117212.660031,0.502000,1659062,1000,12,0,1,657.182,-10.587,14.684,-12528.126,29.677,38.716
1782117212.661031,0.503000,1659063,1000,12,0,1,651.777,-13.755,14.811,-12524.306,27.746,38.846
1782117212.662030,0.504000,1659064,1000,12,0,1,652.834,-10.086,14.877,-12518.854,26.549,39.024
1782117212.663031,0.505000,1659065,1000,12,0,1,656.581,-4.525,14.884,-12510.711,24.404,39.174
1782117212.664031,0.506000,1659066,1000,12,0,1,658.455,-1.475,14.885,-12507.732,22.331,39.200
1782117212.665030,0.507000,1659067,1000,12,0,1,660.352,0.264,14.840,-12511.479,8.209,38.629
1782117212.666030,0.508000,1659068,1000,12,0,1,663.043,2.509,14.777,-12543.811,-21.035,38.518
1782117212.667031,0.509000,1659069,1000,12,0,1,674.092,10.519,14.846,-12526.084,-21.574,38.638
1782117212.668031,0.510000,1659070,1000,12,0,1,675.197,12.447,14.950,-12499.661,10.427,38.665
1782117212.669030,0.511000,1659071,1000,12,0,1,663.859,0.081,14.947,-12490.893,7.376,38.653
1782117212.670031,0.512000,1659072,1000,12,0,1,664.868,-1.154,14.928,-12487.026,7.019,38.648
1782117212.671031,0.513000,1659073,1000,12,0,1,683.292,15.528,15.037,-12490.725,-3.101,38.607
1782117212.672030,0.514000,1659074,1000,12,0,1,696.503,27.781,15.464,-12493.320,-10.475,38.593
1782117212.673031,0.515000,1659075,1000,12,0,1,694.149,23.495,15.767,-12508.405,-23.214,38.716
1782117212.674031,0.516000,1659076,1000,12,0,1,687.952,14.443,15.837,-12502.495,-23.773,38.861
1782117212.675030,0.517000,1659077,1000,12,0,1,692.300,15.704,15.864,-12504.105,-16.719,38.922
1782117212.676030,0.518000,1659078,1000,12,0,1,690.738,14.972,15.657,-12509.317,-24.562,38.977
1782117212.677031,0.519000,1659079,1000,12,0,1,689.033,10.262,15.016,-12512.104,-21.096,39.038
1782117212.678030,0.520000,1659080,1000,12,0,1,688.024,9.292,14.061,-12507.420,-16.652,39.063
1782117212.679030,0.521000,1659081,1000,12,0,1,687.063,6.557,13.110,-12501.006,-6.533,39.056
1782117212.680031,0.522000,1659082,1000,12,0,1,683.220,2.657,12.536,-12500.694,-5.214,39.056
1782117212.681031,0.523000,1659083,1000,12,0,1,675.966,-4.897,12.521,-12497.547,-3.184,39.057
1782117212.682030,0.524000,1659084,1000,12,0,1,677.815,-5.259,12.397,-12498.988,-3.122,39.044
1782117212.683031,0.525000,1659085,1000,12,0,1,685.478,1.681,12.053,-12529.279,-28.216,39.216
1782117212.684031,0.526000,1659086,1000,12,0,1,684.829,0.047,11.344,-12534.755,-37.259,39.493
1782117212.685030,0.527000,1659087,1000,12,0,1,682.860,-4.587,10.737,-12516.524,-15.052,39.484
1782117212.686031,0.528000,1659088,1000,12,0,1,679.593,-8.473,10.612,-12494.304,4.721,39.331
1782117212.687031,0.529000,1659089,1000,12,0,1,676.542,-12.594,10.669,-12484.648,13.069,39.191
1782117212.688030,0.530000,1659090,1000,12,0,1,668.615,-18.479,10.953,-12479.556,11.731,39.215
1782117212.689030,0.531000,1659091,1000,12,0,1,664.748,-21.948,11.339,-12477.490,9.650,39.235
1782117212.690031,0.532000,1659092,1000,12,0,1,670.249,-14.628,11.430,-12479.051,3.979,39.201
1782117212.691031,0.533000,1659093,1000,12,0,1,669.888,-11.066,11.485,-12481.261,-1.500,39.201
1782117212.692030,0.534000,1659094,1000,12,0,1,669.240,-10.683,11.564,-12478.715,-1.228,39.083
1782117212.693031,0.535000,1659095,1000,12,0,1,667.775,-8.118,11.618,-12492.119,-11.408,34.899
1782117212.694031,0.536000,1659096,1000,12,0,1,661.145,-11.212,11.716,-12503.769,-22.995,24.430
1782117212.695030,0.537000,1659097,1000,12,0,1,665.661,-5.436,11.591,-12513.497,-26.037,24.325
1782117212.696031,0.538000,1659098,1000,12,0,1,674.404,6.563,11.204,-12487.122,-3.529,22.630
1782117212.697031,0.539000,1659099,1000,12,0,1,682.091,14.076,11.159,-12481.069,13.339,21.817
1782117212.698030,0.540000,1659100,1000,12,0,1,682.355,15.399,11.290,-12479.364,8.524,21.169
1782117212.699030,0.541000,1659101,1000,12,0,1,679.401,10.863,11.142,-12474.319,16.104,21.167
1782117212.700031,0.542000,1659102,1000,12,0,1,674.020,5.890,11.169,-12470.596,16.168,20.438
1782117212.701030,0.543000,1659103,1000,12,0,1,673.948,3.888,11.182,-12466.176,17.909,20.479
1782117212.702030,0.544000,1659104,1000,12,0,1,669.600,1.185,11.182,-12463.054,17.663,20.630
1782117212.703031,0.545000,1659105,1000,12,0,1,674.236,2.075,11.185,-12462.765,13.083,20.634
1782117212.704031,0.546000,1659106,1000,12,0,1,684.301,11.289,11.221,-12461.901,9.998,20.070
1782117212.705030,0.547000,1659107,1000,12,0,1,685.166,10.181,11.075,-12458.345,7.538,19.168
1782117212.706031,0.548000,1659108,1000,12,0,1,684.037,5.322,10.974,-12452.100,9.227,18.832
1782117212.707031,0.549000,1659109,1000,12,0,1,675.726,-2.706,10.891,-12447.320,8.004,17.709
1782117212.708030,0.550000,1659110,1000,12,0,1,667.318,-12.865,11.030,-12444.245,6.181,17.238
1782117212.709031,0.551000,1659111,1000,12,0,1,669.000,-10.781,11.123,-12446.095,-0.052,16.540
1782117212.710031,0.552000,1659112,1000,12,0,1,678.896,-1.478,11.024,-12446.359,-4.420,16.011
1782117212.711030,0.553000,1659113,1000,12,0,1,674.789,-1.962,10.854,-12442.636,-3.719,15.532
1782117212.712030,0.554000,1659114,1000,12,0,1,657.662,-17.173,11.031,-12448.401,-8.877,15.123
1782117212.713031,0.555000,1659115,1000,12,0,1,653.506,-19.727,11.360,-12606.313,-126.929,23.217
1782117212.714031,0.556000,1659116,1000,12,0,1,655.644,-12.245,11.490,-12669.151,-198.939,36.340
1782117212.715030,0.557000,1659117,1000,12,0,1,652.834,-10.739,11.589,-12508.501,-27.575,36.530
1782117212.716031,0.558000,1659118,1000,12,0,1,654.059,-6.733,11.623,-12478.187,44.744,36.954
1782117212.717031,0.559000,1659119,1000,12,0,1,675.317,12.946,11.672,-12481.934,15.499,36.893
1782117212.718030,0.560000,1659120,1000,12,0,1,694.173,32.351,12.412,-12513.353,8.945,36.886
1782117212.719031,0.561000,1659121,1000,12,0,1,692.108,27.826,13.021,-12487.050,8.367,36.890
1782117212.720031,0.562000,1659122,1000,12,0,1,684.805,16.232,13.221,-12468.266,46.005,37.446
1782117212.721030,0.563000,1659123,1000,12,0,1,677.143,6.948,13.074,-12484.792,17.793,37.528
1782117212.722030,0.564000,1659124,1000,12,0,1,669.744,-1.945,12.473,-12456.688,35.590,37.835
1782117212.723031,0.565000,1659125,1000,12,0,1,678.776,3.355,12.032,-12443.285,50.213,38.355
1782117212.724030,0.566000,1659126,1000,12,0,1,682.283,8.047,11.912,-12456.616,25.021,38.371
1782117212.725030,0.567000,1659127,1000,12,0,1,676.734,-0.137,11.703,-12475.712,6.069,38.308
1782117212.726031,0.568000,1659128,1000,12,0,1,666.526,-9.540,11.588,-12434.445,26.059,38.328
1782117212.727031,0.569000,1659129,1000,12,0,1,681.034,-0.996,11.498,-12427.671,43.776,38.710
1782117212.728030,0.570000,1659130,1000,12,0,1,693.813,13.928,11.591,-12431.803,18.776,38.729
1782117212.729031,0.571000,1659131,1000,12,0,1,683.989,2.759,11.561,-12428.824,22.745,38.851
1782117212.730031,0.572000,1659132,1000,12,0,1,677.959,-6.124,11.587,-12425.029,15.930,38.910
1782117212.731030,0.573000,1659133,1000,12,0,1,678.920,-4.269,11.582,-12425.149,14.111,38.958
1782117212.732030,0.574000,1659134,1000,12,0,1,679.857,-3.464,11.569,-12427.911,6.593,38.967
1782117212.733031,0.575000,1659135,1000,12,0,1,679.809,-2.222,11.570,-12428.656,2.673,38.764
1782117212.734030,0.576000,1659136,1000,12,0,1,671.810,-7.990,11.625,-12432.884,-1.233,38.404
1782117212.735030,0.577000,1659137,1000,12,0,1,667.967,-11.009,11.711,-12443.164,-12.459,38.386
1782117212.736031,0.578000,1659138,1000,12,0,1,676.278,-2.001,11.653,-12428.464,-1.666,38.381
1782117212.737031,0.579000,1659139,1000,12,0,1,681.346,5.272,11.540,-12425.581,4.453,38.341
1782117212.738030,0.580000,1659140,1000,12,0,1,672.002,-2.197,11.245,-12417.534,5.128,38.312
1782117212.739031,0.581000,1659141,1000,12,0,1,655.236,-16.402,11.054,-12407.109,13.715,38.337
1782117212.740031,0.582000,1659142,1000,12,0,1,645.676,-23.361,11.350,-12399.735,14.382,38.387
1782117212.741030,0.583000,1659143,1000,12,0,1,657.686,-10.597,11.341,-12397.549,11.298,38.420
1782117212.742031,0.584000,1659144,1000,12,0,1,669.840,4.841,11.261,-12395.940,6.302,38.430
1782117212.743031,0.585000,1659145,1000,12,0,1,682.163,13.753,11.370,-12397.045,0.014,38.396
1782117212.744030,0.586000,1659146,1000,12,0,1,693.525,22.675,11.707,-12424.044,-24.642,38.416
1782117212.745030,0.587000,1659147,1000,12,0,1,685.142,13.093,11.827,-12443.140,-47.434,38.823
1782117212.746031,0.588000,1659148,1000,12,0,1,674.524,-1.731,11.793,-12409.271,-17.621,38.900
1782117212.747030,0.589000,1659149,1000,12,0,1,669.864,-6.282,11.658,-12397.693,1.273,38.855
1782117212.748030,0.590000,1659150,1000,12,0,1,665.853,-9.939,11.539,-12392.697,-2.443,38.837
1782117212.749031,0.591000,1659151,1000,12,0,1,667.751,-7.694,11.488,-12389.550,2.299,38.772
1782117212.750031,0.592000,1659152,1000,12,0,1,686.078,8.030,11.514,-12395.099,-6.301,38.715
1782117212.751030,0.593000,1659153,1000,12,0,1,696.864,19.757,11.835,-12397.549,-9.388,38.655
1782117212.752031,0.594000,1659154,1000,12,0,1,696.383,15.811,12.043,-12397.069,-8.431,38.592
1782117212.753031,0.595000,1659155,1000,12,0,1,692.900,10.643,12.133,-12398.150,-8.837,38.568
1782117212.754030,0.596000,1659156,1000,12,0,1,689.537,5.634,12.054,-12415.805,-20.519,38.651
1782117212.755030,0.597000,1659157,1000,12,0,1,685.262,1.315,11.969,-12404.923,-15.109,38.696
1782117212.756031,0.598000,1659158,1000,12,0,1,682.860,-1.220,11.947,-12399.879,-0.721,38.674
1782117212.757030,0.599000,1659159,1000,12,0,1,679.809,-3.123,11.949,-12394.763,-1.330,38.658
1782117212.758030,0.600000,1659160,1000,12,0,1,673.131,-7.929,11.863,-12388.637,7.452,38.662
1782117212.759031,0.601000,1659161,1000,12,0,1,670.657,-9.862,11.847,-12384.338,7.394,38.676
1782117212.760031,0.602000,1659162,1000,12,0,1,671.570,-6.901,11.885,-12383.113,7.218,38.685
1782117212.761030,0.603000,1659163,1000,12,0,1,674.044,-4.165,11.896,-12424.620,-26.569,38.863
1782117212.762031,0.604000,1659164,1000,12,0,1,671.258,-5.000,11.667,-12412.610,-28.476,39.051
1782117212.763031,0.605000,1659165,1000,12,0,1,667.823,-8.795,11.397,-12378.116,14.069,34.738
1782117212.764030,0.606000,1659166,1000,12,0,1,671.066,-5.659,11.293,-12369.013,16.932,20.516
1782117212.765031,0.607000,1659167,1000,12,0,1,667.078,-7.315,11.238,-12363.224,17.707,20.297
1782117212.766031,0.608000,1659168,1000,12,0,1,668.856,-7.761,11.251,-12374.345,5.021,19.299
1782117212.767030,0.609000,1659169,1000,12,0,1,676.134,0.373,11.102,-12362.287,5.819,19.192
1782117212.768030,0.610000,1659170,1000,12,0,1,673.371,-1.571,10.117,-12356.762,14.414,19.258
1782117212.769031,0.611000,1659171,1000,12,0,1,672.074,-4.214,9.340,-12355.081,7.099,19.248
1782117212.770030,0.612000,1659172,1000,12,0,1,671.354,-3.275,9.065,-12354.961,7.734,18.148
1782117212.771030,0.613000,1659173,1000,12,0,1,672.435,-2.500,9.019,-12355.417,2.507,17.976
1782117212.772031,0.614000,1659174,1000,12,0,1,675.894,2.042,9.019,-12360.485,-1.432,17.259
1782117212.773031,0.615000,1659175,1000,12,0,1,674.645,2.128,9.012,-12365.097,-7.367,15.764
1782117212.774030,0.616000,1659176,1000,12,0,1,669.216,-1.851,8.943,-12387.388,-22.932,15.701
1782117212.775031,0.617000,1659177,1000,12,0,1,676.134,3.766,8.959,-12404.419,-38.044,16.575
1782117212.776031,0.618000,1659178,1000,12,0,1,684.925,13.963,9.074,-12379.750,-13.844,16.278
1782117212.777030,0.619000,1659179,1000,12,0,1,683.244,12.151,9.235,-12371.343,3.965,15.065
1782117212.778030,0.620000,1659180,1000,12,0,1,673.516,2.793,9.031,-12367.379,1.819,14.832
1782117212.779031,0.621000,1659181,1000,12,0,1,670.801,-1.109,9.024,-12360.389,10.439,14.554
1782117212.780030,0.622000,1659182,1000,12,0,1,669.408,-0.681,8.983,-12357.002,8.976,14.434
1782117212.781030,0.623000,1659183,1000,12,0,1,671.498,0.346,8.962,-12352.534,10.309,14.370
1782117212.782031,0.624000,1659184,1000,12,0,1,676.662,5.222,8.979,-12349.292,9.113,14.397
1782117212.783031,0.625000,1659185,1000,12,0,1,678.392,6.036,9.014,-12348.883,5.389,14.412
1782117212.784030,0.626000,1659186,1000,12,0,1,669.672,-2.353,8.949,-12352.655,-1.188,14.412
1782117212.785031,0.627000,1659187,1000,12,0,1,655.380,-15.827,9.093,-12332.117,9.630,14.369
1782117212.786031,0.628000,1659188,1000,12,0,1,657.085,-15.409,9.346,-12326.976,16.621,14.558
1782117212.787030,0.629000,1659189,1000,12,0,1,667.703,-2.896,9.325,-12327.985,6.028,14.569
1782117212.788031,0.630000,1659190,1000,12,0,1,680.914,8.080,9.390,-12329.667,3.901,14.562
1782117212.789031,0.631000,1659191,1000,12,0,1,682.451,10.454,9.218,-12328.201,0.124,14.432
1782117212.790030,0.632000,1659192,1000,12,0,1,679.112,3.938,8.624,-12326.880,1.288,14.289
1782117212.791030,0.633000,1659193,1000,12,0,1,677.887,2.290,8.499,-12326.448,-0.191,14.200
1782117212.792031,0.634000,1659194,1000,12,0,1,672.459,-2.407,8.478,-12325.535,0.012,14.172
1782117212.793031,0.635000,1659195,1000,12,0,1,661.025,-11.573,8.413,-12328.225,-1.905,14.174
1782117212.794030,0.636000,1659196,1000,12,0,1,653.699,-16.459,8.118,-12345.232,-15.702,13.917
1782117212.795031,0.637000,1659197,1000,12,0,1,655.764,-11.503,8.070,-12351.862,-22.101,12.588
1782117212.796031,0.638000,1659198,1000,12,0,1,653.699,-8.206,8.149,-12351.045,-16.810,12.566
1782117212.797030,0.639000,1659199,1000,12,0,1,650.095,-9.384,8.209,-12332.141,-0.405,12.565
1782117212.798031,0.640000,1659200,1000,12,0,1,661.265,2.245,8.094,-12325.151,10.134,12.641
1782117212.799031,0.641000,1659201,1000,12,0,1,669.961,13.284,8.237,-12323.782,6.088,12.667
1782117212.800030,0.642000,1659202,1000,12,0,1,677.215,17.504,8.526,-12323.181,5.139,12.656
1782117212.801030,0.643000,1659203,1000,12,0,1,685.694,23.367,8.707,-12323.614,0.806,12.587
1782117212.802031,0.644000,1659204,1000,12,0,1,683.989,19.191,8.841,-12343.647,-16.822,12.754
1782117212.803030,0.645000,1659205,1000,12,0,1,683.172,13.093,8.907,-12330.123,-13.053,12.826
1782117212.804030,0.646000,1659206,1000,12,0,1,681.851,9.792,8.979,-12314.654,6.338,12.526
1782117212.805031,0.647000,1659207,1000,12,0,1,679.593,4.010,8.995,-12338.795,-16.181,12.552
1782117212.806031,0.648000,1659208,1000,12,0,1,679.016,1.579,8.996,-12330.988,-17.554,12.795
1782117212.807030,0.649000,1659209,1000,12,0,1,679.449,0.047,8.985,-12302.956,12.890,12.923
1782117212.808031,0.650000,1659210,1000,12,0,1,679.953,-0.630,8.915,-12296.038,16.657,13.094
1782117212.809031,0.651000,1659211,1000,12,0,1,680.025,-1.482,8.808,-12295.629,13.289,13.186
1782117212.810030,0.652000,1659212,1000,12,0,1,681.923,-0.709,8.754,-12293.203,11.870,13.254
1782117212.811031,0.653000,1659213,1000,12,0,1,681.539,-0.713,8.735,-12293.516,9.912,12.787
1782117212.812031,0.654000,1659214,1000,12,0,1,676.879,-4.932,8.734,-12291.114,9.068,12.204
1782117212.813030,0.655000,1659215,1000,12,0,1,670.465,-9.735,8.754,-12291.570,8.319,12.098
1782117212.814030,0.656000,1659216,1000,12,0,1,663.883,-13.818,8.934,-12289.456,7.404,11.905
1782117212.815031,0.657000,1659217,1000,12,0,1,651.489,-20.970,9.356,-12298.007,1.030,11.639
1782117212.816031,0.658000,1659218,1000,12,0,1,640.607,-27.430,10.069,-12303.917,-7.431,11.665
1782117212.817030,0.659000,1659219,1000,12,0,1,635.371,-26.409,10.739,-12282.995,9.149,11.708
1782117212.818031,0.660000,1659220,1000,12,0,1,639.454,-18.099,11.038,-12278.335,16.218,11.755
1782117212.819031,0.661000,1659221,1000,12,0,1,647.862,-5.536,11.049,-12275.308,10.161,11.800
1782117212.820030,0.662000,1659222,1000,12,0,1,660.304,7.181,11.086,-12276.677,8.287,11.807
1782117212.821031,0.663000,1659223,1000,12,0,1,680.770,24.551,11.612,-12278.359,-0.565,11.802
1782117212.822031,0.664000,1659224,1000,12,0,1,689.105,31.072,12.412,-12276.029,-1.074,11.801
1782117212.823030,0.665000,1659225,1000,12,0,1,683.989,20.701,12.749,-12276.053,-4.855,11.775
1782117212.824030,0.666000,1659226,1000,12,0,1,678.128,10.833,12.838,-12297.815,-24.207,11.826
1782117212.825031,0.667000,1659227,1000,12,0,1,678.776,7.339,12.869,-12289.720,-24.278,11.077
1782117212.826030,0.668000,1659228,1000,12,0,1,681.298,7.741,12.764,-12264.162,2.672,10.909
1782117212.827030,0.669000,1659229,1000,12,0,1,681.154,5.449,12.671,-12259.238,6.114,10.929
1782117212.828031,0.670000,1659230,1000,12,0,1,677.287,0.643,12.665,-12257.965,2.134,10.930
1782117212.829031,0.671000,1659231,1000,12,0,1,671.810,-4.968,12.684,-12256.332,2.571,10.836
1782117212.830030,0.672000,1659232,1000,12,0,1,669.288,-7.067,12.722,-12253.809,1.330,10.763
1782117212.831031,0.673000,1659233,1000,12,0,1,667.342,-6.906,12.760,-12250.903,3.708,10.677
1782117212.832031,0.674000,1659234,1000,12,0,1,660.713,-10.507,12.825,-12249.558,2.832,10.606
1782117212.833030,0.675000,1659235,1000,12,0,1,657.710,-11.485,12.899,-12265.291,-8.959,10.654
1782117212.834031,0.676000,1659236,1000,12,0,1,654.227,-10.531,12.980,-12251.912,-3.487,10.665
1782117212.835031,0.677000,1659237,1000,12,0,1,656.701,-6.813,12.822,-12245.666,9.865,10.669
1782117212.836030,0.678000,1659238,1000,12,0,1,671.041,7.800,12.684,-12247.996,1.958,10.410
1782117212.837030,0.679000,1659239,1000,12,0,1,685.046,21.009,13.021,-12254.674,-2.247,10.380
1782117212.838031,0.680000,1659240,1000,12,0,1,689.057,22.437,13.353,-12257.797,-8.269,10.431
1782117212.839031,0.681000,1659241,1000,12,0,1,682.643,13.443,13.406,-12259.815,-9.092,10.510
1782117212.840030,0.682000,1659242,1000,12,0,1,672.387,0.732,13.395,-12261.616,-11.425,10.632
1782117212.841031,0.683000,1659243,1000,12,0,1,665.036,-7.630,13.435,-12260.607,-11.396,10.754
1782117212.842031,0.684000,1659244,1000,12,0,1,663.619,-9.611,13.499,-12251.552,-4.254,10.770
1782117212.843030,0.685000,1659245,1000,12,0,1,674.741,-0.692,13.400,-12245.186,0.221,10.767
1782117212.844031,0.686000,1659246,1000,12,0,1,678.752,4.463,13.211,-12243.360,-0.554,10.536
1782117212.845031,0.687000,1659247,1000,12,0,1,684.229,5.289,13.132,-12371.150,-96.841,16.994
1782117212.846030,0.688000,1659248,1000,12,0,1,690.498,10.370,13.162,-12492.599,-210.598,34.208
1782117212.847030,0.689000,1659249,1000,12,0,1,683.484,2.647,13.101,-12357.603,-82.798,36.156
1782117212.848031,0.690000,1659250,1000,12,0,1,680.530,-3.367,13.105,-12301.466,27.079,36.330
1782117212.849030,0.691000,1659251,1000,12,0,1,680.025,-2.477,12.975,-12265.219,31.101,36.586
1782117212.850030,0.692000,1659252,1000,12,0,1,683.676,-0.520,12.737,-12256.692,61.246,37.590
1782117212.851031,0.693000,1659253,1000,12,0,1,689.489,5.892,12.329,-12248.093,44.064,38.103
1782117212.852031,0.694000,1659254,1000,12,0,1,688.505,4.921,12.046,-12241.199,55.567,38.832
1782117212.853030,0.695000,1659255,1000,12,0,1,685.406,1.364,11.905,-12255.995,32.309,39.056
1782117212.854031,0.696000,1659256,1000,12,0,1,691.051,5.224,11.847,-12295.942,-4.520,39.051
1782117212.855031,0.697000,1659257,1000,12,0,1,701.476,14.142,12.001,-12273.242,6.554,38.995
1782117212.856030,0.698000,1659258,1000,12,0,1,686.655,2.580,12.005,-12249.270,36.721,39.261
1782117212.857030,0.699000,1659259,1000,12,0,1,670.513,-16.293,12.224,-12237.908,40.643,39.637
1782117212.858031,0.700000,1659260,1000,12,0,1,667.967,-16.333,12.440,-12232.455,40.329,39.976
1782117212.859030,0.701000,1659261,1000,12,0,1,672.963,-10.632,12.529,-12227.026,39.341,40.318
1782117212.860030,0.702000,1659262,1000,12,0,1,674.909,-6.419,12.561,-12221.934,35.038,40.586
1782117212.861031,0.703000,1659263,1000,12,0,1,681.010,-2.195,12.565,-12221.093,31.275,40.803
1782117212.862031,0.704000,1659264,1000,12,0,1,686.703,3.411,12.555,-12218.259,23.182,40.914
1782117212.863030,0.705000,1659265,1000,12,0,1,684.541,0.338,12.479,-12243.072,1.639,40.898
1782117212.864031,0.706000,1659266,1000,12,0,1,684.901,-1.961,12.328,-12444.149,-159.004,46.660
1782117212.865031,0.707000,1659267,1000,12,0,1,686.030,-0.965,11.967,-12375.834,-139.123,50.639
1782117212.866030,0.708000,1659268,1000,12,0,1,684.781,-3.379,11.331,-12260.511,33.645,50.851
1782117212.867031,0.709000,1659269,1000,12,0,1,678.920,-7.885,10.755,-12234.713,37.626,51.112
1782117212.868031,0.710000,1659270,1000,12,0,1,678.728,-9.011,10.524,-12222.919,50.313,51.554
1782117212.869030,0.711000,1659271,1000,12,0,1,681.563,-4.028,10.510,-12218.403,41.549,51.868
1782117212.870030,0.712000,1659272,1000,12,0,1,675.485,-7.411,10.513,-12211.605,36.579,52.112
1782117212.871031,0.713000,1659273,1000,12,0,1,666.333,-14.035,10.120,-12206.200,36.359,52.365
1782117212.872030,0.714000,1659274,1000,12,0,1,649.807,-23.798,9.718,-12206.369,23.072,52.466
1782117212.873030,0.715000,1659275,1000,12,0,1,633.137,-34.422,10.467,-12217.466,12.545,52.492
1782117212.874031,0.716000,1659276,1000,12,0,1,651.056,-15.290,10.578,-12233.416,-11.567,52.406
1782117212.875031,0.717000,1659277,1000,12,0,1,687.712,23.855,11.054,-12231.374,-8.312,52.306
1782117212.876030,0.718000,1659278,1000,12,0,1,702.701,38.705,12.286,-12219.604,-0.168,52.305
1782117212.877031,0.719000,1659279,1000,12,0,1,693.092,25.964,12.800,-12213.743,8.039,52.310
1782117212.878031,0.720000,1659280,1000,12,0,1,677.095,7.072,12.839,-12206.681,9.554,52.327
1782117212.879030,0.721000,1659281,1000,12,0,1,666.910,-4.492,12.835,-12199.283,16.158,52.375
1782117212.880030,0.722000,1659282,1000,12,0,1,666.357,-5.447,12.820,-12204.327,8.559,52.389
1782117212.881031,0.723000,1659283,1000,12,0,1,665.421,-4.932,12.801,-12308.024,-71.543,53.354
1782117212.882030,0.724000,1659284,1000,12,0,1,669.961,-1.964,12.718,-12435.598,-184.683,59.403
1782117212.883030,0.725000,1659285,1000,12,0,1,674.020,2.837,12.620,-12279.608,-54.921,59.895
1782117212.884031,0.726000,1659286,1000,12,0,1,675.990,3.160,12.540,-12220.493,63.176,60.556
1782117212.885031,0.727000,1659287,1000,12,0,1,677.191,3.632,12.513,-12211.965,29.561,60.684
1782117212.886030,0.728000,1659288,1000,12,0,1,679.160,4.108,12.478,-12217.106,41.896,60.972
1782117212.887031,0.729000,1659289,1000,12,0,1,680.986,5.039,12.140,-12223.303,11.965,60.994
1782117212.888031,0.730000,1659290,1000,12,0,1,686.223,8.244,11.776,-12200.267,30.797,61.138
1782117212.889030,0.731000,1659291,1000,12,0,1,684.901,7.366,11.668,-12188.665,35.522,61.331
1782117212.890031,0.732000,1659292,1000,12,0,1,690.402,8.976,11.737,-12184.270,26.379,61.423
1782117212.891031,0.733000,1659293,1000,12,0,1,691.627,11.380,11.797,-12181.387,25.455,61.507
1782117212.892030,0.734000,1659294,1000,12,0,1,689.465,6.696,11.757,-12179.730,14.527,61.539
1782117212.893030,0.735000,1659295,1000,12,0,1,682.451,1.007,11.757,-12175.886,16.878,61.585
1782117212.894031,0.736000,1659296,1000,12,0,1,677.815,-4.410,11.757,-12189.458,-1.117,61.585
1782117212.895030,0.737000,1659297,1000,12,0,1,671.714,-7.767,11.784,-12190.563,-4.702,60.047
1782117212.896030,0.738000,1659298,1000,12,0,1,671.714,-7.841,11.745,-12180.955,3.267,52.142
1782117212.897031,0.739000,1659299,1000,12,0,1,673.468,-3.900,11.752,-12178.889,6.997,50.820
1782117212.898031,0.740000,1659300,1000,12,0,1,679.569,1.152,11.744,-12176.367,6.106,50.683
1782117212.899030,0.741000,1659301,1000,12,0,1,681.346,3.716,11.750,-12175.214,8.058,50.504
1782117212.900031,0.742000,1659302,1000,12,0,1,682.788,2.854,11.757,-12169.857,8.996,49.772
1782117212.901031,0.743000,1659303,1000,12,0,1,687.207,5.320,11.751,-12166.494,11.463,49.407
1782117212.902030,0.744000,1659304,1000,12,0,1,681.707,0.222,11.731,-12158.832,12.455,48.810
1782117212.903030,0.745000,1659305,1000,12,0,1,667.078,-14.550,11.908,-12150.665,16.223,48.650
1782117212.904031,0.746000,1659306,1000,12,0,1,657.206,-22.926,12.320,-12158.519,4.372,48.650
1782117212.905030,0.747000,1659307,1000,12,0,1,651.513,-25.099,12.664,-12181.627,-21.302,48.734
1782117212.906030,0.748000,1659308,1000,12,0,1,651.537,-21.753,13.027,-12152.106,-6.184,48.465
1782117212.907031,0.749000,1659309,1000,12,0,1,672.194,-2.033,12.825,-12137.982,12.568,48.155
1782117212.908031,0.750000,1659310,1000,12,0,1,685.694,14.969,12.792,-12135.868,0.862,47.817
1782117212.909030,0.751000,1659311,1000,12,0,1,683.004,10.668,12.792,-12135.099,-1.053,47.492
1782117212.910031,0.752000,1659312,1000,12,0,1,685.718,10.738,12.850,-12134.066,-7.926,47.246
1782117212.911031,0.753000,1659313,1000,12,0,1,691.075,15.108,13.023,-12133.154,-10.037,47.060
1782117212.912030,0.754000,1659314,1000,12,0,1,691.651,14.094,13.166,-12132.409,-12.147,46.977
1782117212.913031,0.755000,1659315,1000,12,0,1,700.587,18.695,13.428,-12136.060,-16.512,47.035
1782117212.914031,0.756000,1659316,1000,12,0,1,707.385,23.800,13.841,-12139.375,-18.970,41.398
1782117212.915030,0.757000,1659317,1000,12,0,1,702.172,16.045,14.025,-12139.495,-18.152,36.514
1782117212.916030,0.758000,1659318,1000,12,0,1,688.505,1.321,14.018,-12144.563,-18.103,36.293
1782117212.917031,0.759000,1659319,1000,12,0,1,677.287,-10.312,14.050,-12150.016,-21.226,36.026
1782117212.918031,0.760000,1659320,1000,12,0,1,676.662,-10.745,14.074,-12134.763,-5.285,35.325
1782117212.919030,0.761000,1659321,1000,12,0,1,679.737,-6.035,14.088,-12130.944,3.923,34.837
1782117212.920031,0.762000,1659322,1000,12,0,1,694.846,5.697,14.072,-12136.853,-2.740,34.453
1782117212.921031,0.763000,1659323,1000,12,0,1,694.510,8.288,13.981,-12178.793,-33.189,34.389
1782117212.922030,0.764000,1659324,1000,12,0,1,672.194,-14.241,13.718,-12163.396,-29.297,34.483
1782117212.923031,0.765000,1659325,1000,12,0,1,659.632,-26.771,13.373,-12125.563,17.214,34.524
1782117212.924031,0.766000,1659326,1000,12,0,1,672.963,-13.746,13.339,-12118.813,19.570,34.596
1782117212.925030,0.767000,1659327,1000,12,0,1,690.186,4.845,12.924,-12113.601,17.109,34.660
1782117212.926030,0.768000,1659328,1000,12,0,1,691.747,6.481,11.743,-12117.324,10.456,34.692
1782117212.927031,0.769000,1659329,1000,12,0,1,685.622,-1.364,11.156,-12124.842,-4.591,34.679
1782117212.928030,0.770000,1659330,1000,12,0,1,687.928,-1.089,11.112,-12113.385,1.023,34.653
1782117212.929030,0.771000,1659331,1000,12,0,1,689.682,1.216,11.095,-12109.469,2.548,34.580
1782117212.930031,0.772000,1659332,1000,12,0,1,693.621,3.159,11.077,-12106.803,-0.589,34.559
1782117212.931031,0.773000,1659333,1000,12,0,1,694.822,4.888,11.077,-12106.707,-2.388,33.046
1782117212.932030,0.774000,1659334,1000,12,0,1,696.023,4.379,11.091,-12108.388,-6.395,20.266
1782117212.933031,0.775000,1659335,1000,12,0,1,693.669,2.908,11.091,-12115.787,-12.456,18.801
1782117212.934031,0.776000,1659336,1000,12,0,1,687.808,-2.668,11.089,-12145.668,-34.673,17.254
1782117212.935030,0.777000,1659337,1000,12,0,1,674.693,-12.349,11.214,-12124.338,-20.661,16.993
1782117212.936031,0.778000,1659338,1000,12,0,1,666.285,-18.846,11.511,-12109.229,8.608,15.973
1782117212.937031,0.779000,1659339,1000,12,0,1,658.935,-20.370,11.845,-12101.663,9.648,15.942
1782117212.938030,0.780000,1659340,1000,12,0,1,652.594,-22.302,12.202,-12096.210,19.176,15.573
1782117212.939030,0.781000,1659341,1000,12,0,1,641.616,-26.006,12.702,-12089.004,20.743,15.030
1782117212.940031,0.782000,1659342,1000,12,0,1,623.553,-36.216,13.636,-12080.476,26.947,15.050
1782117212.941031,0.783000,1659343,1000,12,0,1,633.521,-25.045,13.997,-12079.852,23.641,14.991
1782117212.942030,0.784000,1659344,1000,12,0,1,674.236,16.658,14.162,-12095.369,5.680,14.871
1782117212.943031,0.785000,1659345,1000,12,0,1,694.918,38.185,15.156,-12177.544,-60.880,17.017
1782117212.944031,0.786000,1659346,1000,12,0,1,699.554,35.292,15.944,-12337.642,-192.938,32.157
1782117212.945030,0.787000,1659347,1000,12,0,1,688.601,21.896,16.205,-12182.420,-79.312,34.050
1782117212.946031,0.788000,1659348,1000,12,0,1,683.100,8.949,16.217,-12121.047,54.684,34.914
1782117212.947031,0.789000,1659349,1000,12,0,1,681.298,6.599,16.234,-12101.831,23.543,35.059
1782117212.948030,0.790000,1659350,1000,12,0,1,673.924,-1.860,16.235,-12092.174,54.580,35.888
1782117212.949030,0.791000,1659351,1000,12,0,1,662.682,-11.574,16.309,-12084.584,33.575,36.183
1782117212.950031,0.792000,1659352,1000,12,0,1,664.628,-9.940,16.365,-12079.299,38.823,36.575
1782117212.951030,0.793000,1659353,1000,12,0,1,670.993,-0.573,16.348,-12079.227,28.045,36.754
1782117212.952030,0.794000,1659354,1000,12,0,1,669.120,0.155,16.348,-12080.933,17.718,36.797
1782117212.953031,0.795000,1659355,1000,12,0,1,661.770,-4.966,16.233,-12087.634,12.205,36.766
1782117212.954031,0.796000,1659356,1000,12,0,1,652.233,-10.423,15.974,-12097.195,-4.767,36.767
1782117212.955030,0.797000,1659357,1000,12,0,1,643.658,-15.077,15.720,-12104.881,-5.085,36.650
1782117212.956031,0.798000,1659358,1000,12,0,1,668.135,6.578,15.444,-12088.932,2.103,36.641
1782117212.957031,0.799000,1659359,1000,12,0,1,704.718,42.510,16.570,-12081.509,19.869,36.705
1782117212.958030,0.800000,1659360,1000,12,0,1,707.481,43.520,17.549,-12078.170,14.660,36.764
1782117212.959031,0.801000,1659361,1000,12,0,1,694.269,22.826,17.780,-12074.279,22.266,36.898
1782117212.960031,0.802000,1659362,1000,12,0,1,684.565,9.422,17.765,-12068.418,21.034,37.001
1782117212.961030,0.803000,1659363,1000,12,0,1,676.134,-1.528,17.637,-12075.240,16.147,37.044
1782117212.962030,0.804000,1659364,1000,12,0,1,674.236,-5.468,17.541,-12089.748,-2.486,37.006
1782117212.963031,0.805000,1659365,1000,12,0,1,689.537,5.375,17.357,-12068.754,9.736,36.958
1782117212.964031,0.806000,1659366,1000,12,0,1,703.469,17.371,17.204,-12066.929,15.103,36.922
1782117212.965030,0.807000,1659367,1000,12,0,1,698.881,9.960,17.112,-12095.345,-18.313,36.924
1782117212.966031,0.808000,1659368,1000,12,0,1,692.396,-1.003,17.112,-12093.664,-22.977,36.978
1782117212.967031,0.809000,1659369,1000,12,0,1,691.171,-3.885,17.058,-12067.433,-0.538,36.856
1782117212.968030,0.810000,1659370,1000,12,0,1,694.870,-2.328,16.994,-12059.314,5.704,36.857
1782117212.969031,0.811000,1659371,1000,12,0,1,695.254,-1.550,16.973,-12054.606,1.436,36.854
1782117212.970031,0.812000,1659372,1000,12,0,1,693.789,-4.101,16.964,-12052.276,0.393,36.852
1782117212.971030,0.813000,1659373,1000,12,0,1,688.865,-7.380,16.956,-12050.354,-3.825,36.555
1782117212.972030,0.814000,1659374,1000,12,0,1,672.891,-19.497,17.060,-12048.721,-4.500,36.325
1782117212.973031,0.815000,1659375,1000,12,0,1,659.704,-29.423,17.147,-12053.141,-9.912,36.271
1782117212.974030,0.816000,1659376,1000,12,0,1,658.719,-25.399,17.411,-12070.292,-23.829,36.322
1782117212.975030,0.817000,1659377,1000,12,0,1,668.711,-11.999,17.480,-12054.726,-13.024,36.288
1782117212.976031,0.818000,1659378,1000,12,0,1,680.241,2.393,17.460,-12050.619,0.863,36.258
1782117212.977031,0.819000,1659379,1000,12,0,1,681.779,5.573,17.476,-12048.265,-0.888,36.252
1782117212.978030,0.820000,1659380,1000,12,0,1,682.019,4.431,17.487,-12045.983,6.051,36.262
1782117212.979031,0.821000,1659381,1000,12,0,1,687.207,8.126,17.524,-12046.487,4.592,36.266
1782117212.980031,0.822000,1659382,1000,12,0,1,683.148,4.488,17.529,-12043.653,7.356,36.281
1782117212.981030,0.823000,1659383,1000,12,0,1,685.358,2.292,17.519,-12037.023,12.493,36.322
1782117212.982030,0.824000,1659384,1000,12,0,1,696.936,11.616,17.585,-12032.771,13.893,36.364
1782117212.983031,0.825000,1659385,1000,12,0,1,694.678,8.662,17.623,-12031.522,11.914,36.361
1782117212.984030,0.826000,1659386,1000,12,0,1,681.611,-6.214,17.640,-12027.126,9.875,36.056
1782117212.985030,0.827000,1659387,1000,12,0,1,672.122,-15.684,17.693,-12033.732,1.846,35.938
1782117212.986031,0.828000,1659388,1000,12,0,1,670.129,-16.494,17.646,-12048.817,-17.570,36.003
1782117212.987031,0.829000,1659389,1000,12,0,1,675.173,-9.926,17.466,-12046.127,-19.152,36.079
1782117212.988030,0.830000,1659390,1000,12,0,1,679.377,-3.600,17.187,-12056.936,-25.911,36.163
1782117212.989031,0.831000,1659391,1000,12,0,1,668.471,-10.056,16.849,-12031.690,-12.574,36.088
1782117212.990031,0.832000,1659392,1000,12,0,1,660.785,-16.681,16.224,-12023.043,3.963,35.890
1782117212.991030,0.833000,1659393,1000,12,0,1,667.054,-7.395,15.867,-12018.719,-2.906,35.737
1782117212.992031,0.834000,1659394,1000,12,0,1,675.365,3.554,15.699,-12021.794,-2.281,35.729
1782117212.993031,0.835000,1659395,1000,12,0,1,672.675,3.931,14.751,-12022.154,-8.264,34.696
1782117212.994030,0.836000,1659396,1000,12,0,1,660.977,-5.310,13.902,-12019.536,-3.702,21.438
1782117212.995030,0.837000,1659397,1000,12,0,1,650.576,-12.870,13.674,-12033.564,-13.503,18.369
1782117212.996031,0.838000,1659398,1000,12,0,1,641.856,-16.733,13.820,-12018.935,-4.814,16.676
1782117212.997030,0.839000,1659399,1000,12,0,1,639.142,-16.014,13.973,-12008.823,13.826,16.457
1782117212.998030,0.840000,1659400,1000,12,0,1,633.329,-15.449,14.140,-12005.700,11.486,14.625
1782117212.999031,0.841000,1659401,1000,12,0,1,659.872,5.776,14.069,-12012.137,9.954,13.904
1782117213.000031,0.842000,1659402,1000,12,0,1,684.613,33.954,14.799,-12016.701,1.342,12.775
1782117213.001030,0.843000,1659403,1000,12,0,1,692.372,34.529,15.584,-12020.521,0.684,12.144
1782117213.002031,0.844000,1659404,1000,12,0,1,696.263,32.683,16.255,-12180.907,-118.419,20.534
1782117213.003031,0.845000,1659405,1000,12,0,1,691.603,23.029,16.563,-12256.932,-202.503,35.197
1782117213.004030,0.846000,1659406,1000,12,0,1,682.115,8.903,16.545,-12112.280,-45.681,35.779
1782117213.005030,0.847000,1659407,1000,12,0,1,681.202,4.352,16.419,-12065.632,36.883,36.150
1782117213.006031,0.848000,1659408,1000,12,0,1,682.523,4.227,16.403,-12038.128,37.265,36.531
1782117213.007030,0.849000,1659409,1000,12,0,1,685.166,5.108,15.279,-12104.809,2.034,36.424
1782117213.008030,0.850000,1659410,1000,12,0,1,676.710,-1.589,13.986,-12274.347,-157.986,42.680
1782117213.009031,0.851000,1659411,1000,12,0,1,657.350,-18.235,13.851,-12107.596,-36.494,42.875
1782117213.010031,0.852000,1659412,1000,12,0,1,657.878,-18.007,14.020,-12045.070,94.503,44.811
1782117213.011030,0.853000,1659413,1000,12,0,1,656.317,-11.403,14.111,-12030.417,52.256,45.359
1782117213.012031,0.854000,1659414,1000,12,0,1,663.763,-5.545,14.111,-12024.604,79.436,46.728
1782117213.013031,0.855000,1659415,1000,12,0,1,680.001,13.315,14.216,-12033.972,41.525,47.076
1782117213.014030,0.856000,1659416,1000,12,0,1,685.886,18.451,14.243,-12035.053,42.052,47.402
1782117213.015031,0.857000,1659417,1000,12,0,1,670.969,5.076,14.191,-12020.689,44.912,47.755
1782117213.016031,0.858000,1659418,1000,12,0,1,665.973,-3.955,14.202,-12013.603,48.055,48.127
1782117213.017030,0.859000,1659419,1000,12,0,1,669.504,0.857,14.192,-12027.367,34.850,48.379
1782117213.018030,0.860000,1659420,1000,12,0,1,669.240,0.095,14.188,-12024.196,25.823,48.509
1782117213.019031,0.861000,1659421,1000,12,0,1,679.809,6.431,14.215,-12005.868,46.722,48.957
1782117213.020030,0.862000,1659422,1000,12,0,1,694.366,18.637,14.446,-12001.737,42.254,49.320
1782117213.021030,0.863000,1659423,1000,12,0,1,697.632,17.653,14.623,-11996.548,43.597,49.701
1782117213.022031,0.864000,1659424,1000,12,0,1,692.588,8.829,14.415,-11989.414,40.237,50.022
1782117213.023031,0.865000,1659425,1000,12,0,1,686.150,-1.045,13.802,-11992.729,33.023,50.220
1782117213.024030,0.866000,1659426,1000,12,0,1,675.581,-11.223,13.420,-11994.410,19.383,50.182
1782117213.025031,0.867000,1659427,1000,12,0,1,677.455,-12.050,13.421,-11981.535,23.305,50.256
1782117213.026031,0.868000,1659428,1000,12,0,1,695.086,4.722,13.434,-11983.145,14.724,50.299
1782117213.027030,0.869000,1659429,1000,12,0,1,698.065,9.301,13.475,-11979.157,5.366,50.304
1782117213.028030,0.870000,1659430,1000,12,0,1,691.579,0.703,13.461,-11973.800,3.569,50.300
1782117213.029031,0.871000,1659431,1000,12,0,1,685.406,-4.509,13.427,-11973.656,-6.135,50.303
1782117213.030030,0.872000,1659432,1000,12,0,1,680.818,-8.214,13.462,-11977.764,-16.241,50.345
1782117213.031030,0.873000,1659433,1000,12,0,1,680.818,-6.629,13.491,-11977.764,-22.994,50.419
1782117213.032031,0.874000,1659434,1000,12,0,1,679.665,-5.236,13.411,-11987.228,-32.134,50.585
1782117213.033031,0.875000,1659435,1000,12,0,1,681.539,-2.994,13.361,-11996.212,-42.609,50.915
1782117213.034030,0.876000,1659436,1000,12,0,1,682.331,-0.246,13.332,-12006.445,-47.315,51.333
1782117213.035031,0.877000,1659437,1000,12,0,1,673.804,-6.819,13.182,-11990.231,-32.575,51.539
1782117213.036031,0.878000,1659438,1000,12,0,1,668.567,-11.853,13.082,-11977.115,-11.320,51.504
1782117213.037030,0.879000,1659439,1000,12,0,1,673.636,-6.300,13.037,-11973.272,-7.305,51.443
1782117213.038031,0.880000,1659440,1000,12,0,1,667.631,-8.586,13.083,-11969.309,-0.961,51.313
1782117213.039031,0.881000,1659441,1000,12,0,1,660.232,-16.410,13.211,-11965.345,3.905,51.285
1782117213.040030,0.882000,1659442,1000,12,0,1,662.130,-13.065,13.130,-11983.024,-8.014,51.294
1782117213.041030,0.883000,1659443,1000,12,0,1,663.379,-9.877,13.162,-11988.525,-15.285,51.338
1782117213.042031,0.884000,1659444,1000,12,0,1,670.513,-3.913,13.164,-11960.157,11.048,51.361
1782117213.043031,0.885000,1659445,1000,12,0,1,684.757,9.175,13.216,-11953.383,21.726,51.439
1782117213.044030,0.886000,1659446,1000,12,0,1,686.487,11.014,13.287,-11948.002,16.496,51.490
1782117213.045031,0.887000,1659447,1000,12,0,1,680.938,3.281,13.169,-11952.638,12.433,51.484
1782117213.046031,0.888000,1659448,1000,12,0,1,677.119,-0.818,12.956,-11954.320,0.397,51.480
1782117213.047030,0.889000,1659449,1000,12,0,1,672.050,-4.543,12.772,-11941.517,8.049,51.455
1782117213.048031,0.890000,1659450,1000,12,0,1,674.140,-2.557,12.589,-11941.421,3.800,51.432
1782117213.049031,0.891000,1659451,1000,12,0,1,680.842,5.724,12.589,-11943.679,-6.148,51.421
1782117213.050030,0.892000,1659452,1000,12,0,1,682.764,8.590,11.700,-11942.502,-8.711,51.435
1782117213.051030,0.893000,1659453,1000,12,0,1,673.780,2.023,10.636,-11959.268,-25.082,51.557
1782117213.052031,0.894000,1659454,1000,12,0,1,660.809,-8.937,9.663,-11950.813,-23.725,48.877
1782117213.053030,0.895000,1659455,1000,12,0,1,653.098,-13.430,9.293,-11933.326,-3.718,39.611
1782117213.054030,0.896000,1659456,1000,12,0,1,637.052,-21.934,9.716,-11944.735,-12.529,39.121
1782117213.055031,0.897000,1659457,1000,12,0,1,624.778,-29.930,10.580,-11928.257,-4.354,38.777
1782117213.056031,0.898000,1659458,1000,12,0,1,648.198,-6.469,10.603,-11925.999,6.935,38.429
1782117213.057030,0.899000,1659459,1000,12,0,1,695.350,38.403,11.891,-11934.310,-6.063,38.438
1782117213.058031,0.900000,1659460,1000,12,0,1,710.531,52.247,13.998,-11937.769,-4.891,31.285
1782117213.059031,0.901000,1659461,1000,12,0,1,717.137,45.127,15.166,-11939.523,-5.853,30.867
1782117213.060030,0.902000,1659462,1000,12,0,1,702.941,28.694,15.492,-11933.662,1.388,27.825
1782117213.061031,0.903000,1659463,1000,12,0,1,695.471,8.945,15.460,-11928.954,7.727,26.848
1782117213.062031,0.904000,1659464,1000,12,0,1,695.086,7.182,15.473,-11923.429,10.785,24.432
1782117213.063030,0.905000,1659465,1000,12,0,1,691.675,-0.464,15.358,-11933.326,3.636,23.721
1782117213.064030,0.906000,1659466,1000,12,0,1,694.390,-0.825,15.135,-11957.178,-20.424,23.145
1782117213.065031,0.907000,1659467,1000,12,0,1,699.530,3.051,15.124,-11931.092,-3.469,22.262
1782117213.066031,0.908000,1659468,1000,12,0,1,691.051,-4.692,15.129,-11913.268,19.036,21.369
1782117213.067030,0.909000,1659469,1000,12,0,1,672.002,-21.001,15.417,-11907.143,14.051,20.888
1782117213.068031,0.910000,1659470,1000,12,0,1,663.475,-27.860,15.912,-11906.062,11.787,20.634
1782117213.069031,0.911000,1659471,1000,12,0,1,675.605,-12.658,15.987,-11910.602,-0.102,19.547
1782117213.070030,0.912000,1659472,1000,12,0,1,675.605,-6.007,15.791,-11910.602,-5.268,18.626
1782117213.071031,0.913000,1659473,1000,12,0,1,669.744,-10.374,15.661,-11927.945,-20.487,17.813
1782117213.072031,0.914000,1659474,1000,12,0,1,666.694,-9.689,15.672,-11933.398,-30.940,17.438
1782117213.073030,0.915000,1659475,1000,12,0,1,669.792,-5.229,15.688,-11921.027,-15.578,16.945
1782117213.074030,0.916000,1659476,1000,12,0,1,687.736,10.963,15.685,-11916.920,-9.731,16.778
1782117213.075031,0.917000,1659477,1000,12,0,1,703.734,25.875,16.015,-11914.325,-6.404,16.476
1782117213.076030,0.918000,1659478,1000,12,0,1,709.739,26.514,16.435,-11913.941,-3.691,16.352
1782117213.077030,0.919000,1659479,1000,12,0,1,702.028,15.778,16.533,-11914.638,-2.858,16.340
1782117213.078031,0.920000,1659480,1000,12,0,1,693.141,1.401,16.534,-11910.194,2.772,16.336
1782117213.079031,0.921000,1659481,1000,12,0,1,694.870,-0.374,16.522,-11905.822,8.707,16.360
1782117213.080030,0.922000,1659482,1000,12,0,1,698.065,0.726,16.482,-11900.874,13.007,16.302
1782117213.081031,0.923000,1659483,1000,12,0,1,698.401,-1.303,16.456,-11923.237,-2.954,15.980
1782117213.082031,0.924000,1659484,1000,12,0,1,697.104,-4.097,16.449,-11946.057,-26.232,15.763
1782117213.083030,0.925000,1659485,1000,12,0,1,692.468,-8.964,16.493,-11909.545,4.213,14.578
1782117213.084031,0.926000,1659486,1000,12,0,1,689.778,-11.713,16.576,-11910.842,15.403,13.133
1782117213.085031,0.927000,1659487,1000,12,0,1,690.402,-9.892,16.607,-11894.364,13.291,12.441
1782117213.086030,0.928000,1659488,1000,12,0,1,688.889,-9.075,16.572,-11885.549,27.962,12.956
1782117213.087030,0.929000,1659489,1000,12,0,1,685.790,-10.028,16.608,-11879.471,18.350,13.173
1782117213.088031,0.930000,1659490,1000,12,0,1,678.032,-13.505,16.674,-11876.036,19.353,13.454
1782117213.089031,0.931000,1659491,1000,12,0,1,673.636,-15.256,16.652,-11874.739,10.468,13.524
1782117213.090030,0.932000,1659492,1000,12,0,1,671.546,-12.416,16.642,-11873.971,5.794,13.501
1782117213.091031,0.933000,1659493,1000,12,0,1,673.804,-7.746,16.619,-11889.104,-10.178,13.404
1782117213.092031,0.934000,1659494,1000,12,0,1,692.828,10.193,16.672,-11914.277,-36.130,14.260
1782117213.093030,0.935000,1659495,1000,12,0,1,707.505,25.429,17.006,-11916.920,-37.349,14.893
1782117213.094031,0.936000,1659496,1000,12,0,1,695.495,13.244,17.038,-11890.785,-11.666,14.801
1782117213.095031,0.937000,1659497,1000,12,0,1,679.209,-5.699,17.051,-11882.834,3.802,14.706
1782117213.096030,0.938000,1659498,1000,12,0,1,672.315,-12.233,17.138,-11878.583,3.167,14.713
1782117213.097030,0.939000,1659499,1000,12,0,1,667.126,-15.401,17.264,-11873.971,10.928,14.750
1782117213.098031,0.940000,1659500,1000,12,0,1,665.036,-16.192,17.411,-11869.887,11.761,14.834
1782117213.099030,0.941000,1659501,1000,12,0,1,674.092,-7.247,17.423,-11868.158,14.170,14.943
1782117213.100030,0.942000,1659502,1000,12,0,1,681.394,1.458,17.382,-11866.404,13.021,15.006
1782117213.101031,0.943000,1659503,1000,12,0,1,674.188,-4.287,17.390,-11871.424,8.296,14.628
1782117213.102031,0.944000,1659504,1000,12,0,1,673.323,-7.077,17.373,-11874.355,2.445,14.242
1782117213.103030,0.945000,1659505,1000,12,0,1,692.324,9.810,17.324,-11862.537,10.072,14.303
1782117213.104031,0.946000,1659506,1000,12,0,1,699.530,18.509,17.244,-11860.183,12.129,14.296
1782117213.105031,0.947000,1659507,1000,12,0,1,703.037,16.895,16.886,-11857.156,7.400,14.321
1782117213.106030,0.948000,1659508,1000,12,0,1,704.742,17.824,17.049,-11854.658,7.368,14.326
1782117213.107030,0.949000,1659509,1000,12,0,1,702.581,12.938,16.264,-11854.105,1.414,14.301
1782117213.108031,0.950000,1659510,1000,12,0,1,697.897,7.825,14.531,-11857.012,-4.262,14.297
1782117213.109030,0.951000,1659511,1000,12,0,1,698.857,6.837,13.090,-11858.525,-10.447,14.350
1782117213.110030,0.952000,1659512,1000,12,0,1,698.641,7.396,12.489,-11856.171,-10.548,14.426
1782117213.111031,0.953000,1659513,1000,12,0,1,700.010,7.115,12.466,-11855.379,-11.267,14.472
1782117213.112031,0.954000,1659514,1000,12,0,1,703.301,9.556,12.498,-11852.520,-10.640,14.470
1782117213.113030,0.955000,1659515,1000,12,0,1,698.617,5.148,12.519,-11852.856,-10.171,14.532
1782117213.114031,0.956000,1659516,1000,12,0,1,690.666,-3.983,12.531,-11855.691,-13.214,14.364
1782117213.115031,0.957000,1659517,1000,12,0,1,686.102,-8.199,12.577,-11853.553,-10.232,14.429
1782117213.116030,0.958000,1659518,1000,12,0,1,688.865,-6.556,12.593,-11851.391,-6.232,14.203
1782117213.117031,0.959000,1659519,1000,12,0,1,687.424,-6.205,12.270,-11864.290,-13.978,14.201
1782117213.118031,0.960000,1659520,1000,12,0,1,690.642,-5.894,11.650,-11881.297,-27.234,14.620
1782117213.119030,0.961000,1659521,1000,12,0,1,694.966,-1.212,11.513,-11861.240,-8.739,14.672
1782117213.120030,0.962000,1659522,1000,12,0,1,696.311,-1.951,11.485,-11841.086,17.226,14.854
1782117213.121031,0.963000,1659523,1000,12,0,1,693.621,-4.956,11.412,-11840.774,15.730,14.738
1782117213.122030,0.964000,1659524,1000,12,0,1,689.129,-9.987,11.417,-11862.513,-2.879,14.079
1782117213.123030,0.965000,1659525,1000,12,0,1,682.980,-14.746,11.582,-11837.627,9.046,13.964
1782117213.124031,0.966000,1659526,1000,12,0,1,682.980,-14.126,11.651,-11837.627,19.222,14.160
1782117213.125031,0.967000,1659527,1000,12,0,1,666.670,-22.812,11.522,-11841.519,2.219,14.134
1782117213.126030,0.968000,1659528,1000,12,0,1,673.492,-19.013,11.222,-11854.009,-4.781,14.141
1782117213.127031,0.969000,1659529,1000,12,0,1,679.881,-3.451,11.008,-11827.034,6.368,14.164
1782117213.128031,0.970000,1659530,1000,12,0,1,689.105,3.116,11.016,-11825.473,16.184,14.342
1782117213.129030,0.971000,1659531,1000,12,0,1,690.138,9.405,11.095,-11829.604,-0.917,14.290
1782117213.130030,0.972000,1659532,1000,12,0,1,690.138,7.132,11.141,-11829.604,-0.431,14.171
1782117213.131031,0.973000,1659533,1000,12,0,1,708.538,22.245,11.575,-11854.202,-22.442,14.516
1782117213.132030,0.974000,1659534,1000,12,0,1,713.870,28.940,12.263,-11849.229,-25.027,14.473
1782117213.133030,0.975000,1659535,1000,12,0,1,692.108,5.914,12.226,-11837.315,-4.675,14.476
1782117213.134031,0.976000,1659536,1000,12,0,1,683.004,-6.192,12.145,-11829.724,-1.935,14.314
1782117213.135031,0.977000,1659537,1000,12,0,1,686.439,-2.010,12.068,-11827.130,5.132,14.209
1782117213.136030,0.978000,1659538,1000,12,0,1,688.649,0.661,12.000,-11825.593,2.954,13.654
1782117213.137031,0.979000,1659539,1000,12,0,1,695.831,5.133,11.938,-11825.617,5.512,13.427
1782117213.138031,0.980000,1659540,1000,12,0,1,702.797,11.018,11.887,-11825.521,3.835,13.157
1782117213.139030,0.981000,1659541,1000,12,0,1,691.891,0.218,11.689,-11818.747,9.847,13.147
1782117213.140031,0.982000,1659542,1000,12,0,1,676.590,-15.986,11.776,-11811.253,15.854,13.312
1782117213.141031,0.983000,1659543,1000,12,0,1,674.645,-17.920,11.995,-11821.269,6.718,13.268
1782117213.142030,0.984000,1659544,1000,12,0,1,681.250,-9.690,11.987,-11817.834,3.899,12.257
1782117213.143030,0.985000,1659545,1000,12,0,1,681.322,-7.196,11.480,-11819.708,4.601,11.079
1782117213.144031,0.986000,1659546,1000,12,0,1,696.936,4.312,11.342,-11829.628,-8.071,11.015
1782117213.145030,0.987000,1659547,1000,12,0,1,713.582,21.350,11.710,-11810.460,4.206,11.018
1782117213.146030,0.988000,1659548,1000,12,0,1,710.171,16.307,11.809,-11806.569,11.300,11.124
1782117213.147031,0.989000,1659549,1000,12,0,1,701.956,5.281,11.630,-11802.917,4.599,11.036
1782117213.148031,0.990000,1659550,1000,12,0,1,698.137,0.911,11.403,-11802.245,5.597,10.938
1782117213.149030,0.991000,1659551,1000,12,0,1,703.013,4.031,11.371,-11797.753,1.636,10.756
1782117213.150031,0.992000,1659552,1000,12,0,1,705.223,7.539,11.419,-11810.532,-7.868,10.655
1782117213.151031,0.993000,1659553,1000,12,0,1,702.557,3.837,11.416,-11811.997,-16.680,10.850
1782117213.152030,0.994000,1659554,1000,12,0,1,694.966,-2.210,11.376,-11803.230,-5.891,10.876
1782117213.153030,0.995000,1659555,1000,12,0,1,692.012,-5.880,11.322,-11801.981,-5.154,10.807
1782117213.154031,0.996000,1659556,1000,12,0,1,699.194,1.218,11.017,-11801.740,-5.799,10.702
1782117213.155030,0.997000,1659557,1000,12,0,1,698.233,2.176,10.759,-11797.993,-1.764,10.653
1782117213.156030,0.998000,1659558,1000,12,0,1,684.493,-10.453,10.563,-11788.673,5.318,10.629
1782117213.157031,0.999000,1659559,1000,12,0,1,692.828,-6.106,10.439,-11781.563,12.717,10.778
1782117213.158031,1.000000,1659560,1000,12,0,1,704.959,7.983,10.442,-11779.569,11.767,10.889
1782117213.159030,1.001000,1659561,1000,12,0,1,700.395,2.459,10.403,-11774.621,14.119,10.972
1782117213.160031,1.002000,1659562,1000,12,0,1,685.430,-12.083,10.490,-11767.055,17.679,11.154
1782117213.161031,1.003000,1659563,1000,12,0,1,708.970,2.705,10.449,-11794.126,-4.205,11.055
1782117213.162030,1.004000,1659564,1000,12,0,1,708.970,10.817,10.473,-11794.126,-14.629,11.146
1782117213.163031,1.005000,1659565,1000,12,0,1,699.986,-6.082,10.483,-11788.121,-1.611,11.055
1782117213.164031,1.006000,1659566,1000,12,0,1,694.029,-8.454,10.536,-11772.435,5.151,10.920
1782117213.165030,1.007000,1659567,1000,12,0,1,689.081,-14.034,10.659,-11781.347,2.427,10.829
1782117213.166030,1.008000,1659568,1000,12,0,1,681.563,-17.368,10.899,-11800.876,-22.316,11.245
1782117213.167031,1.009000,1659569,1000,12,0,1,680.410,-16.584,11.114,-11785.502,-11.339,11.186
1782117213.168031,1.010000,1659570,1000,12,0,1,692.252,-3.691,11.095,-11787.568,-6.824,10.546
1782117213.169030,1.011000,1659571,1000,12,0,1,710.003,14.925,11.292,-11786.631,-13.973,10.658
1782117213.170031,1.012000,1659572,1000,12,0,1,717.137,21.097,11.677,-11784.566,-7.252,10.427
1782117213.171031,1.013000,1659573,1000,12,0,1,717.233,19.015,11.962,-11806.617,-27.524,10.905
1782117213.172030,1.014000,1659574,1000,12,0,1,718.458,16.511,12.105,-11832.343,-47.824,12.826
1782117213.173031,1.015000,1659575,1000,12,0,1,713.534,11.346,12.032,-11799.002,-20.146,13.076
1782117213.174031,1.016000,1659576,1000,12,0,1,711.588,5.427,11.890,-11786.559,6.560,12.824
1782117213.175030,1.017000,1659577,1000,12,0,1,709.619,3.975,11.457,-11783.605,1.915,12.823
1782117213.176030,1.018000,1659578,1000,12,0,1,710.507,1.790,11.140,-11783.797,7.206,12.845
1782117213.177031,1.019000,1659579,1000,12,0,1,711.228,2.487,11.135,-11777.383,8.614,12.872
1782117213.178030,1.020000,1659580,1000,12,0,1,709.571,-0.940,11.127,-11773.348,14.709,12.836
1782117213.179030,1.021000,1659581,1000,12,0,1,705.103,-5.519,11.075,-11770.057,14.902,13.007
1782117213.180031,1.022000,1659582,1000,12,0,1,703.878,-8.006,11.087,-11780.722,6.164,13.036
1782117213.181031,1.023000,1659583,1000,12,0,1,707.217,-5.175,10.656,-11772.531,8.220,12.697
1782117213.182030,1.024000,1659584,1000,12,0,1,702.581,-8.056,9.905,-11759.896,20.972,12.550
1782117213.183031,1.025000,1659585,1000,12,0,1,698.473,-13.097,10.042,-11754.756,21.937,12.910
1782117213.184031,1.026000,1659586,1000,12,0,1,698.929,-10.937,10.122,-11752.138,19.397,13.196
1782117213.185030,1.027000,1659587,1000,12,0,1,702.557,-7.133,10.169,-11753.483,14.685,13.339
1782117213.186031,1.028000,1659588,1000,12,0,1,701.836,-5.475,10.198,-11755.092,7.340,13.372
1782117213.187031,1.029000,1659589,1000,12,0,1,699.770,-7.174,10.222,-11751.777,7.094,13.387
1782117213.188030,1.030000,1659590,1000,12,0,1,697.464,-7.237,10.154,-11749.808,4.844,13.394
1782117213.189030,1.031000,1659591,1000,12,0,1,686.126,-14.414,10.357,-11751.081,0.876,13.322
1782117213.190031,1.032000,1659592,1000,12,0,1,677.719,-20.323,10.508,-11750.889,-2.898,13.138
1782117213.191031,1.033000,1659593,1000,12,0,1,689.417,-7.242,10.249,-11776.495,-22.937,13.499
1782117213.192030,1.034000,1659594,1000,12,0,1,693.429,2.305,10.162,-11789.634,-39.564,14.602
1782117213.193031,1.035000,1659595,1000,12,0,1,682.956,-6.063,10.148,-11759.272,-9.680,14.652
1782117213.194031,1.036000,1659596,1000,12,0,1,684.853,-4.537,10.149,-11753.459,3.498,14.616
1782117213.195030,1.037000,1659597,1000,12,0,1,685.694,0.509,9.690,-11750.336,-0.319,14.604
1782117213.196031,1.038000,1659598,1000,12,0,1,673.996,-8.621,9.490,-11751.898,2.387,14.520
1782117213.197031,1.039000,1659599,1000,12,0,1,674.549,-8.349,9.534,-11759.200,-7.504,14.544
1782117213.198030,1.040000,1659600,1000,12,0,1,682.643,2.135,9.538,-11741.833,6.261,14.550
1782117213.199030,1.041000,1659601,1000,12,0,1,694.101,11.834,9.667,-11735.299,15.485,14.712
1782117213.200031,1.042000,1659602,1000,12,0,1,699.458,17.009,9.905,-11733.498,11.066,14.753
1782117213.201030,1.043000,1659603,1000,12,0,1,710.219,21.681,10.354,-11760.497,-8.747,14.616
1782117213.202030,1.044000,1659604,1000,12,0,1,707.048,19.046,10.694,-11746.565,-8.251,14.638
1782117213.203031,1.045000,1659605,1000,12,0,1,700.971,7.386,10.713,-11912.908,-116.668,22.045
1782117213.204031,1.046000,1659606,1000,12,0,1,695.206,2.074,10.716,-12066.857,-269.709,44.047
1782117213.205030,1.047000,1659607,1000,12,0,1,697.464,1.294,10.713,-12040.506,-203.512,52.616
1782117213.206031,1.048000,1659608,1000,12,0,1,701.596,6.040,10.645,-11846.779,-5.822,52.617
1782117213.207031,1.049000,1659609,1000,12,0,1,703.589,6.859,10.654,-11788.913,93.563,54.225
1782117213.208030,1.050000,1659610,1000,12,0,1,703.037,5.806,10.626,-11768.856,79.867,55.364
1782117213.209031,1.051000,1659611,1000,12,0,1,702.052,4.393,10.638,-11756.125,94.904,56.933
1782117213.210031,1.052000,1659612,1000,12,0,1,703.950,5.038,10.524,-11749.976,79.071,57.967
1782117213.211030,1.053000,1659613,1000,12,0,1,708.538,9.025,10.594,-11745.940,71.897,58.849
1782117213.212030,1.054000,1659614,1000,12,0,1,703.277,4.428,10.502,-11742.890,62.652,59.476
1782117213.213031,1.055000,1659615,1000,12,0,1,691.459,-6.886,10.512,-11738.806,51.896,59.927
1782117213.214031,1.056000,1659616,1000,12,0,1,681.082,-15.577,10.673,-11734.771,49.693,60.333
1782117213.215030,1.057000,1659617,1000,12,0,1,678.848,-15.923,10.726,-11732.417,38.785,60.581
1782117213.216031,1.058000,1659618,1000,12,0,1,685.502,-7.937,10.501,-11729.871,37.853,60.735
1782117213.217031,1.059000,1659619,1000,12,0,1,689.922,-1.505,10.238,-11726.267,30.970,60.872
1782117213.218030,1.060000,1659620,1000,12,0,1,699.938,5.634,10.256,-11719.422,34.508,61.059
1782117213.219031,1.061000,1659621,1000,12,0,1,711.036,15.385,10.270,-11714.593,31.407,61.189
1782117213.220031,1.062000,1659622,1000,12,0,1,701.476,5.892,9.862,-11709.069,32.004,61.347
1782117213.221030,1.063000,1659623,1000,12,0,1,698.113,-2.763,9.496,-11719.301,18.405,61.279
1782117213.222030,1.064000,1659624,1000,12,0,1,704.214,3.041,9.215,-11831.478,-71.393,61.736
1782117213.223031,1.065000,1659625,1000,12,0,1,707.385,4.378,9.095,-11970.774,-194.885,67.548
1782117213.224030,1.066000,1659626,1000,12,0,1,697.104,-4.304,9.083,-11784.830,-44.476,67.834
1782117213.225030,1.067000,1659627,1000,12,0,1,697.440,-7.431,9.126,-11734.122,76.071,68.682
1782117213.226031,1.068000,1659628,1000,12,0,1,704.622,1.543,9.125,-11741.857,15.764,68.710
1782117213.227031,1.069000,1659629,1000,12,0,1,704.622,1.870,9.123,-11737.173,38.315,68.913
1782117213.228030,1.070000,1659630,1000,12,0,1,696.479,-4.729,9.146,-11711.927,31.868,69.029
1782117213.229031,1.071000,1659631,1000,12,0,1,688.360,-11.220,9.250,-11703.640,41.661,69.248
1782117213.230031,1.072000,1659632,1000,12,0,1,679.305,-16.303,9.465,-11700.541,25.301,69.334
1782117213.231030,1.073000,1659633,1000,12,0,1,675.077,-17.209,9.746,-11716.299,4.414,69.328
1782117213.232030,1.074000,1659634,1000,12,0,1,676.326,-12.114,9.829,-11740.968,-23.794,69.346
1782117213.233031,1.075000,1659635,1000,12,0,1,682.331,-3.643,9.667,-11712.576,-11.525,69.295
1782117213.234030,1.076000,1659636,1000,12,0,1,703.373,14.857,9.771,-11706.474,8.188,69.251
1782117213.235030,1.077000,1659637,1000,12,0,1,713.702,26.311,10.407,-11702.727,-4.924,69.223
1782117213.236031,1.078000,1659638,1000,12,0,1,715.792,22.174,10.841,-11696.073,10.204,69.230
1782117213.237031,1.079000,1659639,1000,12,0,1,715.504,18.900,11.120,-11689.900,6.726,69.230
1782117213.238030,1.080000,1659640,1000,12,0,1,709.931,9.465,11.153,-11686.489,14.462,69.257
1782117213.239031,1.081000,1659641,1000,12,0,1,707.361,3.364,10.976,-11683.270,12.011,69.277
1782117213.240031,1.082000,1659642,1000,12,0,1,706.448,0.853,10.593,-11692.566,6.469,69.282
1782117213.241030,1.083000,1659643,1000,12,0,1,707.601,-0.455,10.544,-11689.035,3.858,69.208
1782117213.242031,1.084000,1659644,1000,12,0,1,704.887,-2.830,10.547,-11672.701,18.674,69.032
1782117213.243031,1.085000,1659645,1000,12,0,1,703.565,-5.911,10.545,-11672.725,16.992,69.061
1782117213.244030,1.086000,1659646,1000,12,0,1,704.310,-4.385,10.544,-11702.583,-13.219,69.084
1782117213.245030,1.087000,1659647,1000,12,0,1,707.481,-1.984,10.547,-11688.963,-11.732,69.104
1782117213.246031,1.088000,1659648,1000,12,0,1,707.577,-0.586,10.477,-11677.313,3.521,69.105
1782117213.247030,1.089000,1659649,1000,12,0,1,705.751,-2.477,10.416,-11672.990,-2.464,69.098
1782117213.248030,1.090000,1659650,1000,12,0,1,702.196,-4.468,10.431,-11672.894,-5.669,69.097
1782117213.249031,1.091000,1659651,1000,12,0,1,700.155,-5.684,10.327,-11673.446,-13.486,69.088
1782117213.250031,1.092000,1659652,1000,12,0,1,705.463,-0.295,10.043,-11674.695,-18.759,69.121
1782117213.251030,1.093000,1659653,1000,12,0,1,707.745,3.729,9.578,-11695.233,-37.055,69.309
1782117213.252031,1.094000,1659654,1000,12,0,1,699.026,-3.648,9.206,-11705.081,-50.295,69.663
1782117213.253031,1.095000,1659655,1000,12,0,1,683.532,-16.421,9.437,-11678.683,-23.893,67.765
1782117213.254030,1.096000,1659656,1000,12,0,1,678.488,-20.338,9.861,-11667.657,-7.774,56.022
1782117213.255030,1.097000,1659657,1000,12,0,1,683.220,-12.312,10.012,-11662.565,-5.537,48.070
1782117213.256031,1.098000,1659658,1000,12,0,1,690.474,-3.830,9.990,-11661.243,-1.468,48.064
1782117213.257030,1.099000,1659659,1000,12,0,1,703.517,7.824,10.004,-11663.237,-3.180,46.209
1782117213.258030,1.100000,1659660,1000,12,0,1,709.499,13.518,10.152,-11663.045,-0.996,44.807
1782117213.259031,1.101000,1659661,1000,12,0,1,702.412,4.883,10.156,-11660.066,3.699,42.753
1782117213.260031,1.102000,1659662,1000,12,0,1,695.278,-3.944,10.147,-11673.254,-3.836,41.268
1782117213.261030,1.103000,1659663,1000,12,0,1,692.180,-6.966,10.114,-11655.527,7.434,40.010
1782117213.262031,1.104000,1659664,1000,12,0,1,689.249,-8.709,10.170,-11644.309,24.768,39.173
1782117213.263031,1.105000,1659665,1000,12,0,1,675.726,-17.763,10.430,-11636.935,23.691,38.625
1782117213.264030,1.106000,1659666,1000,12,0,1,681.202,-14.074,10.387,-11637.943,22.029,38.108
1782117213.265031,1.107000,1659667,1000,12,0,1,702.557,9.497,10.229,-11641.499,10.920,37.743
1782117213.266031,1.108000,1659668,1000,12,0,1,707.313,15.924,10.413,-11645.030,3.601,37.365
1782117213.267030,1.109000,1659669,1000,12,0,1,703.902,10.412,10.515,-11645.630,-2.410,37.109
1782117213.268030,1.110000,1659670,1000,12,0,1,704.142,9.866,10.577,-11671.020,-25.322,36.960
1782117213.269031,1.111000,1659671,1000,12,0,1,697.969,4.763,10.373,-11652.908,-20.368,36.805
1782117213.270030,1.112000,1659672,1000,12,0,1,699.746,4.260,10.357,-11650.434,-8.633,36.547
1782117213.271030,1.113000,1659673,1000,12,0,1,704.983,10.290,10.451,-11660.571,-26.129,36.641
1782117213.272031,1.114000,1659674,1000,12,0,1,704.478,9.052,10.520,-11638.880,-8.459,35.242
1782117213.273031,1.115000,1659675,1000,12,0,1,703.157,6.394,10.541,-11631.794,2.024,21.966
1782117213.274030,1.116000,1659676,1000,12,0,1,698.593,2.035,10.527,-11625.693,0.118,21.046
1782117213.275031,1.117000,1659677,1000,12,0,1,693.141,-4.084,10.491,-11623.939,5.008,18.103
1782117213.276031,1.118000,1659678,1000,12,0,1,693.573,-4.020,10.504,-11624.300,-0.120,17.965
1782117213.277030,1.119000,1659679,1000,12,0,1,692.012,-4.507,10.520,-11622.570,3.856,17.137
1782117213.278030,1.120000,1659680,1000,12,0,1,693.549,-4.209,10.515,-11626.702,0.006,16.534
1782117213.279031,1.121000,1659681,1000,12,0,1,705.031,5.233,10.421,-11630.569,-2.018,15.451
1782117213.280030,1.122000,1659682,1000,12,0,1,719.035,16.500,10.427,-11637.055,-5.215,15.049
1782117213.281030,1.123000,1659683,1000,12,0,1,715.216,11.964,10.280,-11671.404,-29.359,15.599
1782117213.282031,1.124000,1659684,1000,12,0,1,694.414,-9.438,10.223,-11649.329,-15.868,15.396
1782117213.283031,1.125000,1659685,1000,12,0,1,671.066,-30.297,11.073,-11619.496,24.252,15.689
1782117213.284030,1.126000,1659686,1000,12,0,1,653.290,-42.257,12.406,-11637.703,6.561,15.673
1782117213.285031,1.127000,1659687,1000,12,0,1,655.788,-35.244,12.842,-11629.584,4.531,15.671
1782117213.286031,1.128000,1659688,1000,12,0,1,686.775,-2.317,12.457,-11623.051,14.622,15.741
1782117213.287030,1.129000,1659689,1000,12,0,1,716.561,29.112,12.845,-11626.750,2.587,15.716
1782117213.288031,1.130000,1659690,1000,12,0,1,715.720,28.378,13.390,-11625.501,1.330,15.584
1782117213.289031,1.131000,1659691,1000,12,0,1,705.031,13.406,13.515,-11621.754,-1.025,15.492
1782117213.290030,1.132000,1659692,1000,12,0,1,700.131,7.178,13.553,-11618.391,-0.994,15.465
1782117213.291030,1.133000,1659693,1000,12,0,1,695.326,2.328,13.557,-11629.656,-13.137,15.567
1782117213.292031,1.134000,1659694,1000,12,0,1,690.907,-1.838,13.553,-11655.839,-37.340,16.225
1782117213.293031,1.135000,1659695,1000,12,0,1,678.560,-10.646,13.611,-11654.854,-37.975,16.921
1782117213.294030,1.136000,1659696,1000,12,0,1,666.838,-20.402,13.900,-11619.448,-2.368,16.820
1782117213.295031,1.137000,1659697,1000,12,0,1,669.000,-15.779,14.075,-11612.361,11.338,16.815
1782117213.296031,1.138000,1659698,1000,12,0,1,688.336,3.321,14.083,-11612.962,5.275,16.824
1782117213.297030,1.139000,1659699,1000,12,0,1,715.696,28.083,14.628,-11613.899,7.805,16.857
1782117213.298031,1.140000,1659700,1000,12,0,1,724.536,34.584,15.411,-11610.392,8.517,16.881
1782117213.299031,1.141000,1659701,1000,12,0,1,728.667,29.753,15.955,-11606.596,14.507,16.898
1782117213.300030,1.142000,1659702,1000,12,0,1,725.208,22.881,16.279,-11606.981,13.417,16.796
1782117213.301030,1.143000,1659703,1000,12,0,1,718.554,9.902,16.331,-11621.297,2.449,15.961
1782117213.302031,1.144000,1659704,1000,12,0,1,711.805,1.299,16.324,-11602.993,12.690,14.401
1782117213.303030,1.145000,1659705,1000,12,0,1,709.234,-3.981,16.168,-11591.944,28.206,14.556
1782117213.304030,1.146000,1659706,1000,12,0,1,708.658,-4.592,15.923,-11587.212,23.849,14.901
1782117213.305031,1.147000,1659707,1000,12,0,1,704.598,-7.874,15.867,-11586.299,21.958,15.201
1782117213.306031,1.148000,1659708,1000,12,0,1,702.941,-9.547,15.915,-11584.473,15.588,15.359
1782117213.307030,1.149000,1659709,1000,12,0,1,704.118,-6.715,15.905,-11584.666,10.298,15.421
1782117213.308031,1.150000,1659710,1000,12,0,1,700.683,-8.173,15.832,-11582.696,5.307,15.439
1782117213.309031,1.151000,1659711,1000,12,0,1,696.287,-10.799,15.890,-11583.296,-0.367,15.430
1782117213.310030,1.152000,1659712,1000,12,0,1,690.666,-13.452,15.994,-11584.954,-6.657,15.449
1782117213.311031,1.153000,1659713,1000,12,0,1,688.168,-13.807,16.082,-11632.227,-45.501,16.702
1782117213.312031,1.154000,1659714,1000,12,0,1,697.536,-4.109,16.046,-11634.124,-57.237,18.227
1782117213.313030,1.155000,1659715,1000,12,0,1,701.572,2.763,15.853,-11600.639,-15.653,18.053
1782117213.314030,1.156000,1659716,1000,12,0,1,695.903,-2.890,15.733,-11591.608,-4.069,17.791
1782117213.315031,1.157000,1659717,1000,12,0,1,694.486,-4.842,15.690,-11587.596,-2.396,17.727
1782117213.316031,1.158000,1659718,1000,12,0,1,698.617,-0.945,15.528,-11590.551,-1.898,17.722
1782117213.317030,1.159000,1659719,1000,12,0,1,698.545,-0.478,15.458,-11588.773,-3.197,17.724
1782117213.318031,1.160000,1659720,1000,12,0,1,694.197,-4.959,15.411,-11580.582,7.505,17.391
1782117213.319031,1.161000,1659721,1000,12,0,1,688.985,-9.433,15.454,-11574.913,11.624,17.230
1782117213.320030,1.162000,1659722,1000,12,0,1,692.972,-6.287,15.468,-11568.332,17.356,17.361
1782117213.321031,1.163000,1659723,1000,12,0,1,707.937,7.449,15.435,-11567.131,17.039,17.133
1782117213.322031,1.164000,1659724,1000,12,0,1,712.813,12.943,15.491,-11566.002,15.130,17.225
1782117213.323030,1.165000,1659725,1000,12,0,1,715.071,11.199,15.545,-11569.268,10.698,17.289
1782117213.324030,1.166000,1659726,1000,12,0,1,720.164,14.429,15.676,-11595.835,-12.742,17.382
1782117213.325031,1.167000,1659727,1000,12,0,1,726.289,17.030,15.849,-11597.949,-20.565,17.610
1782117213.326030,1.168000,1659728,1000,12,0,1,723.094,13.216,15.949,-11600.687,-15.551,17.747
1782117213.327030,1.169000,1659729,1000,12,0,1,711.564,0.564,15.937,-11592.376,-12.892,17.832
1782117213.328031,1.170000,1659730,1000,12,0,1,694.414,-14.120,16.050,-11568.572,10.080,17.889
1782117213.329031,1.171000,1659731,1000,12,0,1,685.046,-21.666,16.323,-11565.329,11.908,17.965
1782117213.330030,1.172000,1659732,1000,12,0,1,684.325,-17.989,16.355,-11564.801,4.694,17.962
1782117213.331031,1.173000,1659733,1000,12,0,1,692.732,-7.638,16.303,-11563.359,3.888,17.485
1782117213.332031,1.174000,1659734,1000,12,0,1,694.846,-1.490,16.249,-11576.210,-10.713,17.406
1782117213.333030,1.175000,1659735,1000,12,0,1,696.287,-0.659,15.675,-11574.217,-13.151,17.166
1782117213.334031,1.176000,1659736,1000,12,0,1,695.206,0.006,14.491,-11556.129,3.191,17.147
1782117213.335031,1.177000,1659737,1000,12,0,1,688.048,-6.291,13.636,-11551.709,8.141,17.173
1782117213.336030,1.178000,1659738,1000,12,0,1,679.425,-13.510,13.765,-11543.782,10.034,17.107
1782117213.337030,1.179000,1659739,1000,12,0,1,680.145,-12.307,13.250,-11540.540,13.908,17.216
1782117213.338031,1.180000,1659740,1000,12,0,1,696.215,2.321,12.631,-11544.335,6.944,17.243
1782117213.339031,1.181000,1659741,1000,12,0,1,718.626,22.238,12.878,-11549.956,1.755,17.244
1782117213.340030,1.182000,1659742,1000,12,0,1,721.677,23.646,13.267,-11570.253,-14.409,17.364
1782117213.341031,1.183000,1659743,1000,12,0,1,713.990,11.152,13.356,-11593.265,-33.430,17.900
1782117213.342031,1.184000,1659744,1000,12,0,1,709.571,3.967,13.365,-11575.249,-16.512,17.262
1782117213.343030,1.185000,1659745,1000,12,0,1,712.141,4.146,13.293,-11540.299,20.973,16.671
1782117213.344031,1.186000,1659746,1000,12,0,1,717.738,8.290,13.029,-11533.550,27.704,17.122
1782117213.345031,1.187000,1659747,1000,12,0,1,714.951,5.899,12.864,-11530.739,22.098,17.331
1782117213.346030,1.188000,1659748,1000,12,0,1,708.201,-1.567,12.857,-11525.983,22.420,17.603
1782117213.347030,1.189000,1659749,1000,12,0,1,705.295,-3.631,12.239,-11522.740,17.756,17.747
1782117213.348031,1.190000,1659750,1000,12,0,1,708.946,0.159,11.219,-11522.524,12.465,17.793
1782117213.349030,1.191000,1659751,1000,12,0,1,712.645,5.132,10.425,-11532.541,-1.918,17.677
1782117213.350030,1.192000,1659752,1000,12,0,1,712.165,4.804,9.934,-11551.469,-22.458,17.859
1782117213.351031,1.193000,1659753,1000,12,0,1,715.143,6.353,9.876,-11529.706,-10.631,17.919
1782117213.352031,1.194000,1659754,1000,12,0,1,716.561,7.663,9.933,-11527.184,-0.726,17.829
1782117213.353030,1.195000,1659755,1000,12,0,1,701.380,-5.509,9.948,-11522.092,-6.574,17.402
1782117213.354031,1.196000,1659756,1000,12,0,1,695.110,-14.269,10.130,-11518.296,0.583,17.072
1782117213.355031,1.197000,1659757,1000,12,0,1,714.111,2.646,10.075,-11523.965,-8.445,16.830
1782117213.356030,1.198000,1659758,1000,12,0,1,716.681,8.044,10.049,-11522.572,-7.913,16.722
1782117213.357030,1.199000,1659759,1000,12,0,1,707.985,-4.445,10.024,-11517.336,-2.022,16.661
1782117213.358031,1.200000,1659760,1000,12,0,1,705.631,-7.612,10.015,-11513.564,0.931,16.645
1782117213.359030,1.201000,1659761,1000,12,0,1,712.813,-3.017,9.907,-11508.952,5.726,16.665
1782117213.360030,1.202000,1659762,1000,12,0,1,717.161,1.429,9.725,-11537.657,-15.921,16.790
1782117213.361031,1.203000,1659763,1000,12,0,1,718.891,0.676,9.527,-11598.117,-65.843,18.088
1782117213.362031,1.204000,1659764,1000,12,0,1,720.212,0.889,9.510,-11885.212,-275.258,42.155
1782117213.363030,1.205000,1659765,1000,12,0,1,709.739,-7.702,9.564,-11794.318,-238.553,53.947
1782117213.364031,1.206000,1659766,1000,12,0,1,715.240,-6.349,9.598,-11605.804,37.953,54.210
1782117213.365031,1.207000,1659767,1000,12,0,1,723.166,5.107,9.600,-11561.125,66.437,55.017
1782117213.366030,1.208000,1659768,1000,12,0,1,724.536,4.785,9.623,-11540.636,86.426,56.358
1782117213.367031,1.209000,1659769,1000,12,0,1,717.185,0.018,9.623,-11527.737,85.066,57.626
1782117213.368031,1.210000,1659770,1000,12,0,1,709.403,-7.702,9.659,-11522.284,73.275,58.541
1782117213.369030,1.211000,1659771,1000,12,0,1,710.868,-4.908,9.592,-11515.198,70.497,59.361
1782117213.370030,1.212000,1659772,1000,12,0,1,714.087,0.418,9.550,-11536.240,36.050,59.529
1782117213.371031,1.213000,1659773,1000,12,0,1,712.477,0.044,9.492,-11580.102,-5.864,59.486
1782117213.372030,1.214000,1659774,1000,12,0,1,708.778,-2.504,9.321,-11551.637,-0.141,59.447
1782117213.373030,1.215000,1659775,1000,12,0,1,706.208,-4.611,9.208,-11515.654,46.497,59.791
1782117213.374031,1.216000,1659776,1000,12,0,1,701.836,-7.071,9.035,-11507.847,39.294,60.021
1782117213.375031,1.217000,1659777,1000,12,0,1,701.308,-7.969,8.781,-11502.515,42.252,60.248
1782117213.376030,1.218000,1659778,1000,12,0,1,707.649,-1.635,8.583,-11497.663,37.040,60.435
1782117213.377031,1.219000,1659779,1000,12,0,1,715.119,4.615,8.607,-11494.036,36.776,60.631
1782117213.378031,1.220000,1659780,1000,12,0,1,717.209,5.529,8.409,-11488.751,35.000,60.816
1782117213.379030,1.221000,1659781,1000,12,0,1,716.609,2.507,7.838,-11506.767,17.989,60.846
1782117213.380030,1.222000,1659782,1000,12,0,1,713.510,-1.493,7.417,-11500.041,13.867,60.874
1782117213.381031,1.223000,1659783,1000,12,0,1,713.174,-3.566,7.355,-11474.219,36.727,61.093
1782117213.382030,1.224000,1659784,1000,12,0,1,717.377,-0.127,7.352,-11467.397,38.004,61.310
1782117213.383030,1.225000,1659785,1000,12,0,1,718.771,1.444,7.355,-11465.211,28.890,61.418
1782117213.384031,1.226000,1659786,1000,12,0,1,712.357,-3.907,7.375,-11463.962,22.712,61.500
1782117213.385031,1.227000,1659787,1000,12,0,1,708.105,-7.707,7.402,-11462.761,12.555,61.515
1782117213.386030,1.228000,1659788,1000,12,0,1,704.430,-8.232,7.245,-11461.512,6.081,61.504
1782117213.387031,1.229000,1659789,1000,12,0,1,699.482,-10.187,7.179,-11458.173,-1.214,61.473
1782117213.388031,1.230000,1659790,1000,12,0,1,697.104,-9.350,7.293,-11455.963,-6.040,61.471
1782117213.389030,1.231000,1659791,1000,12,0,1,707.265,1.468,6.583,-11461.992,-18.580,61.527
1782117213.390031,1.232000,1659792,1000,12,0,1,723.118,17.808,6.204,-11509.000,-59.575,62.068
1782117213.391031,1.233000,1659793,1000,12,0,1,725.785,20.686,6.676,-11540.588,-93.281,63.278
1782117213.392030,1.234000,1659794,1000,12,0,1,702.773,-0.191,6.652,-11490.841,-46.047,63.569
1782117213.393030,1.235000,1659795,1000,12,0,1,678.656,-23.740,7.428,-11468.934,-9.655,63.514
1782117213.394031,1.236000,1659796,1000,12,0,1,661.962,-34.375,8.800,-11458.773,-8.923,63.406
1782117213.395030,1.237000,1659797,1000,12,0,1,661.770,-31.046,9.799,-11456.948,-0.797,63.329
1782117213.396030,1.238000,1659798,1000,12,0,1,675.413,-13.051,9.969,-11461.127,-9.067,63.263
1782117213.397031,1.239000,1659799,1000,12,0,1,691.099,4.078,9.972,-11466.292,-10.080,63.229
1782117213.398031,1.240000,1659800,1000,12,0,1,704.238,15.756,10.218,-11465.835,-9.538,63.219
1782117213.399030,1.241000,1659801,1000,12,0,1,699.410,11.637,10.324,-11456.996,0.726,63.218
1782117213.400031,1.242000,1659802,1000,12,0,1,703.998,9.213,10.384,-11452.744,7.235,63.147
1782117213.401031,1.243000,1659803,1000,12,0,1,729.604,29.958,11.179,-11484.307,-17.159,63.175
1782117213.402030,1.244000,1659804,1000,12,0,1,736.762,34.780,12.165,-11520.218,-48.920,63.553
1782117213.403030,1.245000,1659805,1000,12,0,1,723.262,16.455,12.361,-11463.073,-3.060,63.548
1782117213.404031,1.246000,1659806,1000,12,0,1,713.966,3.470,12.205,-11441.478,35.542,63.746
1782117213.405030,1.247000,1659807,1000,12,0,1,711.925,0.715,12.200,-11433.984,23.447,63.821
1782117213.406030,1.248000,1659808,1000,12,0,1,700.107,-7.586,12.194,-11435.497,24.876,63.908
1782117213.407031,1.249000,1659809,1000,12,0,1,698.065,-10.456,12.267,-11437.155,9.063,63.920
1782117213.408031,1.250000,1659810,1000,12,0,1,714.279,6.776,12.257,-11443.448,1.894,63.921
1782117213.409030,1.251000,1659811,1000,12,0,1,730.805,22.874,12.670,-11461.776,-20.013,63.978
1782117213.410031,1.252000,1659812,1000,12,0,1,734.168,24.864,13.147,-11451.855,-17.906,63.989
1782117213.411031,1.253000,1659813,1000,12,0,1,740.773,25.279,13.624,-11452.384,-11.909,63.330
1782117213.412030,1.254000,1659814,1000,12,0,1,744.377,25.930,14.109,-11455.843,-21.666,50.047
1782117213.413031,1.255000,1659815,1000,12,0,1,738.035,15.282,14.231,-11455.458,-16.242,37.039
1782117213.414031,1.256000,1659816,1000,12,0,1,727.538,1.671,14.205,-11452.216,-14.904,36.708
1782117213.415030,1.257000,1659817,1000,12,0,1,722.806,-6.070,14.213,-11446.258,-5.406,35.494
1782117213.416030,1.258000,1659818,1000,12,0,1,716.681,-12.040,14.298,-11437.179,2.718,33.325
1782117213.417031,1.259000,1659819,1000,12,0,1,713.822,-16.352,14.484,-11429.564,11.612,31.122
1782117213.418031,1.260000,1659820,1000,12,0,1,712.910,-16.509,14.631,-11424.448,15.446,29.427
1782117213.419030,1.261000,1659821,1000,12,0,1,711.829,-17.310,14.818,-11420.676,17.866,27.801
1782117213.420031,1.262000,1659822,1000,12,0,1,709.186,-18.705,15.052,-11415.008,20.866,27.489
1782117213.421031,1.263000,1659823,1000,12,0,1,708.201,-18.681,15.282,-11412.846,20.627,27.631
1782117213.422030,1.264000,1659824,1000,12,0,1,708.442,-16.645,15.458,-11413.182,16.837,27.733
1782117213.423031,1.265000,1659825,1000,12,0,1,708.514,-14.450,15.579,-11413.254,12.823,27.003
1782117213.424031,1.266000,1659826,1000,12,0,1,704.670,-15.195,15.695,-11412.197,10.013,26.463
1782117213.425030,1.267000,1659827,1000,12,0,1,700.299,-16.505,15.827,-11409.507,7.803,25.803
1782117213.426030,1.268000,1659828,1000,12,0,1,696.119,-16.415,15.995,-11420.700,-4.091,25.273
1782117213.427031,1.269000,1659829,1000,12,0,1,684.925,-21.025,16.256,-11416.113,-8.129,24.758
1782117213.428030,1.270000,1659830,1000,12,0,1,674.765,-25.776,16.641,-11421.181,-9.866,24.299
1782117213.429030,1.271000,1659831,1000,12,0,1,675.221,-19.366,16.861,-11433.840,-26.582,24.456
1782117213.430031,1.272000,1659832,1000,12,0,1,673.540,-13.473,16.967,-11415.272,-12.998,24.446
1782117213.431031,1.273000,1659833,1000,12,0,1,665.853,-15.020,17.092,-11448.036,-31.417,24.298
1782117213.432030,1.274000,1659834,1000,12,0,1,667.631,-9.754,17.148,-11584.858,-144.335,31.275
1782117213.433031,1.275000,1659835,1000,12,0,1,699.386,19.631,17.370,-11501.746,-91.090,33.577
1782117213.434031,1.276000,1659836,1000,12,0,1,723.767,44.959,18.489,-11442.655,20.271,33.546
