Unix_Time_s,EMG_t_s,sample_idx,fs,gain,flags,emg_valid,ch1_raw_uV,ch1_filt_uV,ch1_env_uV,ch2_raw_uV,ch2_filt_uV,ch2_env_uV
1782117398.472544,0.000000,1843800,1000,12,0,1,609.020,4.845,3.535,562.924,2.344,1.216
1782117398.473544,0.001000,1843801,1000,12,0,1,608.756,4.844,3.593,561.627,-0.628,1.152
1782117398.474545,0.002000,1843802,1000,12,0,1,610.053,4.706,3.613,561.892,0.341,1.153
1782117398.475544,0.003000,1843803,1000,12,0,1,610.654,5.372,3.640,561.291,-0.400,1.121
1782117398.476544,0.004000,1843804,1000,12,0,1,613.200,6.171,3.718,560.570,-1.025,1.125
1782117398.477545,0.005000,1843805,1000,12,0,1,613.200,6.210,3.789,560.570,-0.823,1.130
1782117398.478544,0.006000,1843806,1000,12,0,1,613.920,5.031,3.813,561.363,-0.234,1.127
1782117398.479544,0.007000,1843807,1000,12,0,1,615.121,5.619,3.854,560.594,-0.343,1.127
1782117398.480544,0.008000,1843808,1000,12,0,1,614.112,3.781,3.887,560.835,-0.774,1.132
1782117398.481544,0.009000,1843809,1000,12,0,1,614.401,2.689,3.897,560.522,-0.322,1.133
1782117398.482544,0.010000,1843810,1000,12,0,1,614.305,2.371,3.895,558.697,-2.189,1.174
1782117398.483544,0.011000,1843811,1000,12,0,1,613.872,0.857,3.891,559.369,-1.535,1.188
1782117398.484545,0.012000,1843812,1000,12,0,1,611.110,-1.458,3.875,559.994,-0.435,1.184
1782117398.485544,0.013000,1843813,1000,12,0,1,613.320,-1.033,3.826,558.361,-1.647,1.188
1782117398.486544,0.014000,1843814,1000,12,0,1,612.647,-0.244,3.767,558.625,-1.582,1.199
1782117398.487545,0.015000,1843815,1000,12,0,1,615.746,0.363,3.715,559.153,-0.435,1.195
1782117398.488544,0.016000,1843816,1000,12,0,1,613.776,0.304,3.685,559.177,-0.384,1.197
1782117398.489544,0.017000,1843817,1000,12,0,1,615.265,-1.019,3.676,560.979,1.187,1.193
1782117398.490544,0.018000,1843818,1000,12,0,1,618.484,2.819,3.688,560.018,0.931,1.200
1782117398.491544,0.019000,1843819,1000,12,0,1,617.235,0.875,3.656,560.955,0.832,1.204
1782117398.492544,0.020000,1843820,1000,12,0,1,615.482,-1.570,3.649,561.171,1.804,1.231
1782117398.493544,0.021000,1843821,1000,12,0,1,617.163,-0.470,3.630,561.411,1.232,1.219
1782117398.494545,0.022000,1843822,1000,12,0,1,614.785,-2.114,3.627,560.691,1.011,1.214
1782117398.495544,0.023000,1843823,1000,12,0,1,614.064,-3.556,3.642,560.474,0.269,1.211
1782117398.496544,0.024000,1843824,1000,12,0,1,615.145,-2.023,3.554,561.195,1.059,1.216
1782117398.497545,0.025000,1843825,1000,12,0,1,612.359,-3.734,3.496,561.916,1.581,1.236
1782117398.498544,0.026000,1843826,1000,12,0,1,611.782,-4.767,3.554,560.667,0.501,1.233
1782117398.499544,0.027000,1843827,1000,12,0,1,611.110,-3.769,3.593,560.811,0.114,1.217
1782117398.500545,0.028000,1843828,1000,12,0,1,610.918,-4.058,3.635,559.874,-0.288,1.191
1782117398.501544,0.029000,1843829,1000,12,0,1,609.621,-3.759,3.642,560.594,-0.219,1.168
1782117398.502544,0.030000,1843830,1000,12,0,1,609.188,-4.146,3.662,560.042,-0.076,1.157
1782117398.503544,0.031000,1843831,1000,12,0,1,605.994,-5.282,3.714,561.195,0.206,1.122
1782117398.504544,0.032000,1843832,1000,12,0,1,603.447,-7.361,3.807,562.684,1.889,1.112
1782117398.505544,0.033000,1843833,1000,12,0,1,606.354,-3.719,3.771,562.660,1.477,1.130
1782117398.506544,0.034000,1843834,1000,12,0,1,607.723,-0.883,3.679,562.300,0.727,1.131
1782117398.507545,0.035000,1843835,1000,12,0,1,606.666,-1.665,3.651,562.372,0.555,1.117
1782117398.508544,0.036000,1843836,1000,12,0,1,607.074,-0.906,3.637,562.636,0.474,1.117
1782117398.509544,0.037000,1843837,1000,12,0,1,610.726,2.272,3.645,559.081,-2.160,1.158
1782117398.510545,0.038000,1843838,1000,12,0,1,611.710,3.864,3.677,561.027,-1.729,1.150
1782117398.511544,0.039000,1843839,1000,12,0,1,614.953,5.223,3.720,561.795,0.699,1.135
1782117398.512544,0.040000,1843840,1000,12,0,1,613.320,4.635,3.758,560.066,-1.622,1.141
1782117398.513544,0.041000,1843841,1000,12,0,1,616.274,4.575,3.813,562.612,0.577,1.133
1782117398.514544,0.042000,1843842,1000,12,0,1,617.283,6.609,3.924,561.147,0.288,1.099
1782117398.515544,0.043000,1843843,1000,12,0,1,616.274,3.739,3.930,560.018,-1.767,1.127
1782117398.516544,0.044000,1843844,1000,12,0,1,614.929,2.471,3.889,558.577,-1.921,1.145
1782117398.517545,0.045000,1843845,1000,12,0,1,613.752,0.771,3.879,559.105,-2.016,1.167
1782117398.518544,0.046000,1843846,1000,12,0,1,613.104,0.104,3.872,561.940,1.254,1.166
1782117398.519544,0.047000,1843847,1000,12,0,1,613.608,0.612,3.738,563.861,2.852,1.231
1782117398.520545,0.048000,1843848,1000,12,0,1,612.623,-0.088,3.640,561.339,0.765,1.231
1782117398.521544,0.049000,1843849,1000,12,0,1,610.245,-1.978,3.616,560.859,-0.731,1.219
1782117398.522544,0.050000,1843850,1000,12,0,1,605.441,-5.725,3.642,562.540,1.082,1.183
1782117398.523545,0.051000,1843851,1000,12,0,1,606.402,-4.948,3.645,561.555,0.321,1.180
1782117398.524544,0.052000,1843852,1000,12,0,1,605.705,-3.506,3.618,562.228,0.114,1.179
1782117398.525544,0.053000,1843853,1000,12,0,1,605.057,-4.237,3.587,561.940,0.475,1.180
1782117398.526544,0.054000,1843854,1000,12,0,1,605.393,-2.830,3.502,560.618,-1.280,1.185
1782117398.527544,0.055000,1843855,1000,12,0,1,605.465,-2.367,3.407,560.210,-1.379,1.195
1782117398.528544,0.056000,1843856,1000,12,0,1,603.135,-3.671,3.372,562.084,0.065,1.195
1782117398.529544,0.057000,1843857,1000,12,0,1,601.285,-5.035,3.354,561.916,0.601,1.197
1782117398.530545,0.058000,1843858,1000,12,0,1,598.907,-5.982,3.417,560.787,-0.868,1.198
1782117398.531544,0.059000,1843859,1000,12,0,1,599.412,-4.960,3.468,560.234,-1.100,1.207
1782117398.532544,0.060000,1843860,1000,12,0,1,598.187,-4.170,3.501,559.057,-1.846,1.196
1782117398.533545,0.061000,1843861,1000,12,0,1,596.986,-4.626,3.560,562.300,0.593,1.179
1782117398.534544,0.062000,1843862,1000,12,0,1,599.988,-1.003,3.557,559.970,0.184,1.178
1782117398.535544,0.063000,1843863,1000,12,0,1,599.820,0.675,3.555,560.306,-1.280,1.168
1782117398.536544,0.064000,1843864,1000,12,0,1,603.615,3.180,3.583,559.153,-0.443,1.148
1782117398.537544,0.065000,1843865,1000,12,0,1,604.024,5.530,3.667,560.018,-0.977,1.155
1782117398.538544,0.066000,1843866,1000,12,0,1,605.513,5.110,3.737,559.417,-0.031,1.154
1782117398.539544,0.067000,1843867,1000,12,0,1,606.258,6.778,3.856,560.642,0.020,1.142
1782117398.540545,0.068000,1843868,1000,12,0,1,604.768,4.460,3.887,561.075,1.291,1.149
1782117398.541544,0.069000,1843869,1000,12,0,1,603.567,3.237,3.912,561.675,1.125,1.154
1782117398.542544,0.070000,1843870,1000,12,0,1,604.841,3.907,3.944,561.699,1.260,1.139
1782117398.543545,0.071000,1843871,1000,12,0,1,606.378,5.183,4.011,560.787,0.242,1.126
1782117398.544544,0.072000,1843872,1000,12,0,1,604.168,3.198,4.025,560.763,-0.202,1.117
1782117398.545544,0.073000,1843873,1000,12,0,1,605.465,2.777,4.013,561.459,0.666,1.121
1782117398.546544,0.074000,1843874,1000,12,0,1,603.591,2.200,4.015,561.844,0.689,1.115
1782117398.547544,0.075000,1843875,1000,12,0,1,605.057,1.344,3.985,562.156,1.034,1.102
1782117398.548544,0.076000,1843876,1000,12,0,1,604.841,2.415,3.942,561.723,0.392,1.101
1782117398.549544,0.077000,1843877,1000,12,0,1,607.122,2.310,3.919,559.826,-1.088,1.112
1782117398.550545,0.078000,1843878,1000,12,0,1,607.074,3.108,3.902,560.594,-0.920,1.119
1782117398.551544,0.079000,1843879,1000,12,0,1,607.963,1.918,3.875,559.057,-1.125,1.129
1782117398.552544,0.080000,1843880,1000,12,0,1,607.795,1.997,3.841,559.754,-1.354,1.145
1782117398.553545,0.081000,1843881,1000,12,0,1,607.098,0.272,3.768,560.594,0.527,1.147
1782117398.554544,0.082000,1843882,1000,12,0,1,607.267,0.067,3.621,561.868,1.078,1.126
1782117398.555544,0.083000,1843883,1000,12,0,1,605.465,-1.311,3.588,562.612,2.091,1.146
1782117398.556545,0.084000,1843884,1000,12,0,1,605.057,-2.387,3.601,561.627,0.890,1.148
1782117398.557544,0.085000,1843885,1000,12,0,1,605.393,-1.213,3.598,561.219,0.115,1.145
1782117398.558544,0.086000,1843886,1000,12,0,1,603.351,-2.871,3.618,562.852,1.413,1.161
1782117398.559544,0.087000,1843887,1000,12,0,1,600.661,-4.611,3.662,562.828,1.426,1.138
1782117398.560544,0.088000,1843888,1000,12,0,1,598.619,-5.740,3.711,562.948,0.927,1.119
1782117398.561544,0.089000,1843889,1000,12,0,1,596.313,-6.371,3.747,562.276,0.319,1.115
1782117398.562544,0.090000,1843890,1000,12,0,1,595.929,-5.817,3.780,561.435,-0.785,1.097
1782117398.563545,0.091000,1843891,1000,12,0,1,594.944,-4.851,3.787,561.363,-0.906,1.102
1782117398.564544,0.092000,1843892,1000,12,0,1,595.785,-3.553,3.704,560.667,-1.275,1.116
1782117398.565544,0.093000,1843893,1000,12,0,1,596.073,-1.736,3.674,560.955,-1.229,1.101
1782117398.566545,0.094000,1843894,1000,12,0,1,593.022,-3.691,3.694,558.721,-2.335,1.117
1782117398.567544,0.095000,1843895,1000,12,0,1,591.965,-4.308,3.743,559.706,-2.190,1.123
1782117398.568544,0.096000,1843896,1000,12,0,1,590.981,-3.690,3.779,559.706,-0.721,1.114
1782117398.569544,0.097000,1843897,1000,12,0,1,591.653,-2.804,3.799,559.562,-1.371,1.056
1782117398.570544,0.098000,1843898,1000,12,0,1,589.972,-2.579,3.816,558.697,-1.236,1.065
1782117398.571544,0.099000,1843899,1000,12,0,1,592.902,-0.619,3.807,559.297,-1.000,1.070
1782117398.572544,0.100000,1843900,1000,12,0,1,590.332,-0.331,3.720,559.730,0.113,1.059
1782117398.573545,0.101000,1843901,1000,12,0,1,586.200,-4.810,3.716,559.081,-0.422,1.059
1782117398.574544,0.102000,1843902,1000,12,0,1,587.281,-2.546,3.701,559.177,-0.346,1.060
1782117398.575544,0.103000,1843903,1000,12,0,1,587.906,-0.484,3.653,562.636,2.574,1.119
1782117398.576545,0.104000,1843904,1000,12,0,1,596.842,6.637,3.750,560.763,1.699,1.130
1782117398.577544,0.105000,1843905,1000,12,0,1,604.264,14.812,4.282,559.153,-0.960,1.122
1782117398.578544,0.106000,1843906,1000,12,0,1,601.910,11.126,4.533,558.553,-0.869,1.128
1782117398.579545,0.107000,1843907,1000,12,0,1,599.340,7.043,4.586,558.817,-0.831,1.131
1782117398.580544,0.108000,1843908,1000,12,0,1,594.560,2.590,4.522,560.066,0.543,1.127
1782117398.581544,0.109000,1843909,1000,12,0,1,590.452,-1.821,4.475,560.787,1.315,1.132
1782117398.582544,0.110000,1843910,1000,12,0,1,589.251,-2.179,4.446,558.120,-0.871,1.108
1782117398.583544,0.111000,1843911,1000,12,0,1,587.402,-2.829,4.416,557.952,-1.543,1.126
1782117398.584544,0.112000,1843912,1000,12,0,1,587.161,-2.533,4.428,559.538,0.442,1.128
1782117398.585544,0.113000,1843913,1000,12,0,1,585.480,-2.563,4.442,560.739,1.550,1.134
1782117398.586545,0.114000,1843914,1000,12,0,1,586.825,-1.512,4.424,559.850,0.875,1.139
1782117398.587544,0.115000,1843915,1000,12,0,1,590.164,2.503,4.369,560.378,0.819,1.137
1782117398.588544,0.116000,1843916,1000,12,0,1,585.672,-0.644,4.310,561.940,2.274,1.182
1782117398.589545,0.117000,1843917,1000,12,0,1,584.447,-3.074,4.224,560.787,1.327,1.196
1782117398.590544,0.118000,1843918,1000,12,0,1,585.360,-0.816,4.179,560.787,0.506,1.184
1782117398.591544,0.119000,1843919,1000,12,0,1,586.657,-0.049,4.153,559.970,0.317,1.175
1782117398.592544,0.120000,1843920,1000,12,0,1,584.471,-0.915,4.119,561.844,1.001,1.170
1782117398.593544,0.121000,1843921,1000,12,0,1,586.777,-0.106,4.053,562.276,2.185,1.209
1782117398.594544,0.122000,1843922,1000,12,0,1,586.633,1.460,4.033,562.252,1.121,1.219
1782117398.595544,0.123000,1843923,1000,12,0,1,585.816,-0.263,4.014,560.618,0.055,1.216
1782117398.596545,0.124000,1843924,1000,12,0,1,587.762,1.896,4.011,560.066,-1.183,1.223
1782117398.597544,0.125000,1843925,1000,12,0,1,588.747,3.103,4.030,558.625,-1.790,1.241
1782117398.598544,0.126000,1843926,1000,12,0,1,587.738,2.086,4.026,558.096,-2.521,1.290
1782117398.599545,0.127000,1843927,1000,12,0,1,585.096,0.147,4.013,558.817,-1.371,1.295
1782117398.600544,0.128000,1843928,1000,12,0,1,584.207,-0.818,3.991,560.138,-0.012,1.288
1782117398.601544,0.129000,1843929,1000,12,0,1,584.999,0.884,3.984,561.243,1.015,1.287
1782117398.602545,0.130000,1843930,1000,12,0,1,587.281,2.936,3.995,563.093,2.398,1.317
1782117398.603544,0.131000,1843931,1000,12,0,1,587.402,3.833,4.032,560.715,0.542,1.317
1782117398.604544,0.132000,1843932,1000,12,0,1,587.954,3.473,4.061,560.210,-0.989,1.315
1782117398.605544,0.133000,1843933,1000,12,0,1,585.576,2.013,4.067,559.970,-0.515,1.284
1782117398.606544,0.134000,1843934,1000,12,0,1,581.564,-2.188,4.065,560.667,-0.369,1.279
1782117398.607544,0.135000,1843935,1000,12,0,1,582.045,-1.806,4.069,560.859,0.263,1.279
1782117398.608544,0.136000,1843936,1000,12,0,1,582.597,-0.418,4.049,560.018,-0.620,1.266
1782117398.609545,0.137000,1843937,1000,12,0,1,586.297,2.032,4.007,559.850,-0.830,1.256
1782117398.610544,0.138000,1843938,1000,12,0,1,585.672,2.558,3.940,559.153,-1.019,1.257
1782117398.611544,0.139000,1843939,1000,12,0,1,579.331,-3.972,3.877,560.282,-0.370,1.258
1782117398.612545,0.140000,1843940,1000,12,0,1,576.928,-6.320,3.893,560.162,0.340,1.254
1782117398.613544,0.141000,1843941,1000,12,0,1,580.436,-2.580,3.849,559.778,-0.521,1.249
1782117398.614544,0.142000,1843942,1000,12,0,1,577.361,-3.367,3.846,560.138,0.164,1.236
1782117398.615544,0.143000,1843943,1000,12,0,1,575.872,-5.445,3.914,561.531,1.118,1.234
1782117398.616544,0.144000,1843944,1000,12,0,1,578.850,-1.313,3.884,560.618,0.739,1.194
1782117398.617544,0.145000,1843945,1000,12,0,1,578.298,-0.611,3.837,560.739,0.082,1.153
1782117398.618544,0.146000,1843946,1000,12,0,1,579.283,0.036,3.801,559.105,-0.685,1.153
1782117398.619545,0.147000,1843947,1000,12,0,1,580.387,2.247,3.794,559.273,-1.266,1.150
1782117398.620544,0.148000,1843948,1000,12,0,1,580.075,1.887,3.786,559.177,-0.520,1.139
1782117398.621544,0.149000,1843949,1000,12,0,1,580.003,2.244,3.798,559.201,-0.809,1.136
1782117398.622545,0.150000,1843950,1000,12,0,1,578.898,1.528,3.804,558.072,-1.254,1.150
1782117398.623544,0.151000,1843951,1000,12,0,1,578.970,1.603,3.749,558.865,-0.878,1.155
1782117398.624544,0.152000,1843952,1000,12,0,1,580.700,3.364,3.762,558.673,-0.306,1.155
1782117398.625545,0.153000,1843953,1000,12,0,1,580.556,3.478,3.793,560.114,0.479,1.098
1782117398.626544,0.154000,1843954,1000,12,0,1,579.475,2.094,3.687,559.033,0.317,1.072
1782117398.627544,0.155000,1843955,1000,12,0,1,578.754,1.321,3.040,559.105,-0.396,1.065
1782117398.628544,0.156000,1843956,1000,12,0,1,579.523,1.659,2.612,559.634,0.624,1.062
1782117398.629544,0.157000,1843957,1000,12,0,1,581.396,3.113,2.455,558.577,-0.305,1.056
1782117398.630544,0.158000,1843958,1000,12,0,1,581.084,2.650,2.456,558.264,-0.757,1.059
1782117398.631544,0.159000,1843959,1000,12,0,1,580.556,1.268,2.449,558.985,0.229,1.043
1782117398.632545,0.160000,1843960,1000,12,0,1,582.213,2.196,2.449,558.745,0.105,1.035
1782117398.633544,0.161000,1843961,1000,12,0,1,583.678,3.106,2.456,557.376,-0.857,1.019
1782117398.634544,0.162000,1843962,1000,12,0,1,583.750,2.503,2.455,559.177,0.271,1.018
1782117398.635545,0.163000,1843963,1000,12,0,1,582.165,0.596,2.430,560.330,2.092,1.037
1782117398.636544,0.164000,1843964,1000,12,0,1,586.345,2.897,2.455,560.546,1.626,1.055
1782117398.637544,0.165000,1843965,1000,12,0,1,587.690,4.887,2.526,561.075,2.052,1.088
1782117398.638544,0.166000,1843966,1000,12,0,1,588.338,3.551,2.574,561.507,2.000,1.078
1782117398.639544,0.167000,1843967,1000,12,0,1,590.020,4.756,2.624,559.417,0.208,1.061
1782117398.640544,0.168000,1843968,1000,12,0,1,590.860,4.466,2.697,559.754,-0.345,1.060
1782117398.641544,0.169000,1843969,1000,12,0,1,591.677,4.247,2.763,561.387,1.485,1.080
1782117398.642545,0.170000,1843970,1000,12,0,1,592.734,4.323,2.827,561.099,1.072,1.081
1782117398.643544,0.171000,1843971,1000,12,0,1,593.239,3.786,2.877,560.402,0.073,1.036
1782117398.644544,0.172000,1843972,1000,12,0,1,590.452,0.911,2.872,561.075,0.474,1.026
1782117398.645545,0.173000,1843973,1000,12,0,1,590.044,-0.945,2.875,562.060,1.224,1.041
1782117398.646544,0.174000,1843974,1000,12,0,1,589.203,-1.142,2.867,559.778,-0.543,1.030
1782117398.647544,0.175000,1843975,1000,12,0,1,588.386,-2.749,2.860,559.369,-1.728,1.028
1782117398.648545,0.176000,1843976,1000,12,0,1,590.044,-1.299,2.851,562.348,1.245,0.980
1782117398.649544,0.177000,1843977,1000,12,0,1,590.164,-1.159,2.855,561.579,0.963,0.970
1782117398.650544,0.178000,1843978,1000,12,0,1,589.804,-2.138,2.869,558.841,-1.975,1.010
1782117398.651544,0.179000,1843979,1000,12,0,1,591.461,-1.076,2.870,558.312,-2.423,1.056
1782117398.652544,0.180000,1843980,1000,12,0,1,591.533,-1.103,2.844,558.000,-2.144,1.045
1782117398.653544,0.181000,1843981,1000,12,0,1,593.239,-0.640,2.794,559.345,-0.966,1.052
1782117398.654544,0.182000,1843982,1000,12,0,1,594.127,0.173,2.750,560.859,0.883,1.050
1782117398.655545,0.183000,1843983,1000,12,0,1,595.184,0.020,2.735,558.433,-0.969,1.056
1782117398.656544,0.184000,1843984,1000,12,0,1,595.785,0.317,2.718,559.033,-1.221,1.069
1782117398.657544,0.185000,1843985,1000,12,0,1,592.206,-3.003,2.739,560.114,0.636,1.072
1782117398.658545,0.186000,1843986,1000,12,0,1,594.103,-2.635,2.764,558.144,-1.184,1.081
1782117398.659544,0.187000,1843987,1000,12,0,1,596.722,0.913,2.752,561.795,1.223,1.089
1782117398.660544,0.188000,1843988,1000,12,0,1,596.049,-0.230,2.728,562.540,3.105,1.165
1782117398.661544,0.189000,1843989,1000,12,0,1,593.599,-2.206,2.688,561.771,1.019,1.173
1782117398.662544,0.190000,1843990,1000,12,0,1,592.614,-3.313,2.578,559.586,-0.395,1.173
1782117398.663544,0.191000,1843991,1000,12,0,1,591.293,-3.559,2.601,559.994,-1.019,1.180
1782117398.664544,0.192000,1843992,1000,12,0,1,592.446,-2.552,2.583,561.123,0.734,1.184
1782117398.665545,0.193000,1843993,1000,12,0,1,592.254,-1.526,2.475,561.075,0.432,1.175
1782117398.666544,0.194000,1843994,1000,12,0,1,589.732,-3.601,2.520,562.276,1.209,1.183
1782117398.667544,0.195000,1843995,1000,12,0,1,588.867,-4.116,2.585,560.306,0.026,1.183
1782117398.668545,0.196000,1843996,1000,12,0,1,590.500,-2.086,2.601,559.225,-1.828,1.207
1782117398.669544,0.197000,1843997,1000,12,0,1,592.326,-0.133,2.582,559.297,-0.966,1.201
1782117398.670544,0.198000,1843998,1000,12,0,1,590.812,-1.042,2.572,560.426,-0.269,1.200
1782117398.671544,0.199000,1843999,1000,12,0,1,591.869,-1.106,2.557,559.658,-0.167,1.194
1782117398.672544,0.200000,1844000,1000,12,0,1,594.223,1.470,2.557,558.529,-1.592,1.202
1782117398.673544,0.201000,1844001,1000,12,0,1,596.962,2.969,2.581,559.057,-0.815,1.202
1782117398.674544,0.202000,1844002,1000,12,0,1,599.268,4.575,2.618,558.961,-0.552,1.203
1782117398.675545,0.203000,1844003,1000,12,0,1,598.547,3.069,2.608,557.544,-1.667,1.224
1782117398.676544,0.204000,1844004,1000,12,0,1,597.826,1.238,2.597,559.610,-0.114,1.224
1782117398.677544,0.205000,1844005,1000,12,0,1,596.025,-0.458,2.591,559.033,0.347,1.223
1782117398.678545,0.206000,1844006,1000,12,0,1,597.466,-0.185,2.580,558.144,-1.139,1.231
1782117398.679544,0.207000,1844007,1000,12,0,1,598.331,1.382,2.550,560.426,0.988,1.238
1782117398.680544,0.208000,1844008,1000,12,0,1,599.412,1.503,2.531,558.865,0.296,1.234
1782117398.681545,0.209000,1844009,1000,12,0,1,598.571,1.312,2.532,559.273,-0.468,1.235
1782117398.682544,0.210000,1844010,1000,12,0,1,595.593,-1.675,2.524,560.138,1.187,1.247
1782117398.683544,0.211000,1844011,1000,12,0,1,594.440,-2.601,2.512,559.177,-0.091,1.241
1782117398.684544,0.212000,1844012,1000,12,0,1,592.158,-3.568,2.538,558.385,-0.659,1.244
1782117398.685544,0.213000,1844013,1000,12,0,1,592.734,-3.198,2.576,557.712,-1.135,1.219
1782117398.686544,0.214000,1844014,1000,12,0,1,593.239,-1.295,2.550,557.712,-0.953,1.204
1782117398.687544,0.215000,1844015,1000,12,0,1,593.527,-1.258,2.461,559.706,0.925,1.176
1782117398.688545,0.216000,1844016,1000,12,0,1,592.182,-1.643,2.421,560.618,2.083,1.179
1782117398.689544,0.217000,1844017,1000,12,0,1,594.103,-0.771,2.328,561.147,2.131,1.216
1782117398.690544,0.218000,1844018,1000,12,0,1,594.055,0.201,2.241,560.570,1.612,1.237
1782117398.691545,0.219000,1844019,1000,12,0,1,593.527,-1.279,2.166,561.387,1.662,1.241
1782117398.692544,0.220000,1844020,1000,12,0,1,594.968,-0.031,2.078,560.402,1.123,1.242
1782117398.693544,0.221000,1844021,1000,12,0,1,596.625,1.151,2.015,560.739,0.529,1.244
1782117398.694544,0.222000,1844022,1000,12,0,1,597.058,1.110,2.017,560.691,0.889,1.249
1782117398.695544,0.223000,1844023,1000,12,0,1,596.361,0.137,2.012,560.835,0.420,1.238
1782117398.696544,0.224000,1844024,1000,12,0,1,596.049,-0.677,2.008,560.114,-0.020,1.236
1782117398.697544,0.225000,1844025,1000,12,0,1,597.490,0.541,1.972,559.706,-0.760,1.216
1782117398.698545,0.226000,1844026,1000,12,0,1,596.938,0.324,1.964,559.778,-0.602,1.206
1782117398.699544,0.227000,1844027,1000,12,0,1,594.824,-1.566,1.969,560.354,-0.135,1.199
1782117398.700544,0.228000,1844028,1000,12,0,1,598.139,0.929,1.950,561.435,0.694,1.170
1782117398.701545,0.229000,1844029,1000,12,0,1,595.905,0.834,1.948,559.826,-0.392,1.120
1782117398.702544,0.230000,1844030,1000,12,0,1,595.232,-1.229,1.950,559.177,-1.667,1.104
1782117398.703544,0.231000,1844031,1000,12,0,1,594.824,0.124,1.947,561.651,0.760,1.100
1782117398.704545,0.232000,1844032,1000,12,0,1,595.785,0.331,1.948,560.474,0.221,1.094
1782117398.705544,0.233000,1844033,1000,12,0,1,596.529,1.936,1.967,558.481,-2.098,1.125
1782117398.706544,0.234000,1844034,1000,12,0,1,594.824,0.298,1.967,560.066,-0.652,1.115
1782117398.707544,0.235000,1844035,1000,12,0,1,594.656,-0.273,1.921,559.778,-0.162,1.112
1782117398.708544,0.236000,1844036,1000,12,0,1,593.839,-0.438,1.886,560.691,0.009,1.099
1782117398.709544,0.237000,1844037,1000,12,0,1,595.929,0.382,1.882,559.177,-0.382,1.087
1782117398.710544,0.238000,1844038,1000,12,0,1,594.319,0.085,1.882,561.027,0.084,0.994
1782117398.711545,0.239000,1844039,1000,12,0,1,595.448,-0.859,1.860,560.955,1.320,1.002
1782117398.712544,0.240000,1844040,1000,12,0,1,593.623,-1.031,1.805,561.315,0.448,1.002
1782117398.713544,0.241000,1844041,1000,12,0,1,595.376,-1.507,1.747,560.546,0.492,0.994
1782117398.714545,0.242000,1844042,1000,12,0,1,597.058,1.240,1.718,560.378,-0.396,0.990
1782117398.715544,0.243000,1844043,1000,12,0,1,597.995,0.870,1.709,560.018,-0.300,0.989
1782117398.716544,0.244000,1844044,1000,12,0,1,597.274,0.467,1.633,560.618,-0.083,0.974
1782117398.717544,0.245000,1844045,1000,12,0,1,597.562,-0.028,1.525,561.291,0.650,0.979
1782117398.718544,0.246000,1844046,1000,12,0,1,598.931,1.232,1.507,559.514,-0.700,0.949
1782117398.719544,0.247000,1844047,1000,12,0,1,595.713,-0.921,1.512,560.546,-0.608,0.943
1782117398.720544,0.248000,1844048,1000,12,0,1,594.776,-2.672,1.552,562.997,2.186,0.992
1782117398.721545,0.249000,1844049,1000,12,0,1,596.217,-0.025,1.544,559.658,-0.639,0.996
1782117398.722544,0.250000,1844050,1000,12,0,1,594.896,-0.798,1.534,560.066,-1.405,0.990
1782117398.723544,0.251000,1844051,1000,12,0,1,591.437,-3.084,1.539,560.594,0.158,0.984
1782117398.724545,0.252000,1844052,1000,12,0,1,591.821,-2.717,1.448,561.988,0.606,0.984
1782117398.725544,0.253000,1844053,1000,12,0,1,593.455,0.124,1.381,561.075,0.580,0.959
1782117398.726544,0.254000,1844054,1000,12,0,1,592.614,-0.201,1.370,560.450,-0.801,0.966
1782117398.727545,0.255000,1844055,1000,12,0,1,591.821,-0.829,1.374,559.898,-0.760,0.970
1782117398.728544,0.256000,1844056,1000,12,0,1,591.221,-0.997,1.381,561.459,0.198,0.957
1782117398.729544,0.257000,1844057,1000,12,0,1,591.845,-0.591,1.370,558.481,-1.347,0.966
1782117398.730544,0.258000,1844058,1000,12,0,1,592.686,0.418,1.354,558.673,-2.303,1.018
1782117398.731544,0.259000,1844059,1000,12,0,1,591.485,-0.745,1.346,559.778,-0.057,1.016
1782117398.732544,0.260000,1844060,1000,12,0,1,591.581,-1.149,1.334,560.114,-0.007,1.002
1782117398.733544,0.261000,1844061,1000,12,0,1,591.365,-1.030,1.291,560.378,0.407,1.004
1782117398.734545,0.262000,1844062,1000,12,0,1,590.692,-1.837,1.216,559.538,-0.176,1.000
1782117398.735544,0.263000,1844063,1000,12,0,1,589.011,-2.876,1.200,560.618,0.246,0.988
1782117398.736544,0.264000,1844064,1000,12,0,1,589.251,-2.700,1.246,561.051,1.266,0.995
1782117398.737545,0.265000,1844065,1000,12,0,1,587.810,-2.694,1.291,559.393,-0.634,0.990
1782117398.738544,0.266000,1844066,1000,12,0,1,585.408,-4.419,1.415,560.907,0.397,0.947
1782117398.739544,0.267000,1844067,1000,12,0,1,586.441,-2.661,1.460,560.739,0.806,0.905
1782117398.740544,0.268000,1844068,1000,12,0,1,584.447,-2.446,1.500,561.123,0.416,0.878
1782117398.741544,0.269000,1844069,1000,12,0,1,584.543,-2.311,1.525,560.667,0.464,0.848
1782117398.742544,0.270000,1844070,1000,12,0,1,585.456,0.448,1.526,562.997,1.596,0.863
1782117398.743544,0.271000,1844071,1000,12,0,1,584.159,-0.065,1.518,560.618,0.598,0.864
1782117398.744545,0.272000,1844072,1000,12,0,1,582.165,-0.919,1.515,561.699,-0.236,0.855
1782117398.745544,0.273000,1844073,1000,12,0,1,581.156,-1.146,1.524,564.558,3.243,0.969
1782117398.746544,0.274000,1844074,1000,12,0,1,583.150,1.162,1.529,562.252,0.957,0.978
1782117398.747545,0.275000,1844075,1000,12,0,1,583.270,2.349,1.563,561.892,-0.414,0.974
1782117398.748544,0.276000,1844076,1000,12,0,1,584.855,3.013,1.620,564.414,2.102,1.015
1782117398.749544,0.277000,1844077,1000,12,0,1,586.441,4.839,1.744,562.780,0.731,1.020
1782117398.750545,0.278000,1844078,1000,12,0,1,586.681,4.155,1.836,560.955,-1.497,1.037
1782117398.751544,0.279000,1844079,1000,12,0,1,587.858,4.438,1.937,560.739,-1.573,1.059
1782117398.752544,0.280000,1844080,1000,12,0,1,589.203,4.858,2.047,559.009,-2.555,1.094
1782117398.753544,0.281000,1844081,1000,12,0,1,589.203,4.011,2.125,559.009,-2.777,1.157
1782117398.754544,0.282000,1844082,1000,12,0,1,592.158,5.177,2.247,561.507,0.022,1.157
1782117398.755544,0.283000,1844083,1000,12,0,1,593.575,6.117,2.392,562.540,1.175,1.131
1782117398.756544,0.284000,1844084,1000,12,0,1,592.037,3.482,2.442,562.828,1.124,1.138
1782117398.757545,0.285000,1844085,1000,12,0,1,592.782,2.952,2.477,563.381,1.333,1.153
1782117398.758544,0.286000,1844086,1000,12,0,1,593.070,3.145,2.516,563.021,0.829,1.159
1782117398.759544,0.287000,1844087,1000,12,0,1,592.758,2.049,2.532,563.573,0.748,1.163
1782117398.760545,0.288000,1844088,1000,12,0,1,593.983,2.831,2.563,560.594,-1.373,1.179
1782117398.761544,0.289000,1844089,1000,12,0,1,593.671,2.502,2.585,561.819,-1.551,1.184
1782117398.762544,0.290000,1844090,1000,12,0,1,594.608,2.539,2.605,562.132,0.124,1.183
1782117398.763544,0.291000,1844091,1000,12,0,1,596.770,4.273,2.666,562.997,-0.115,1.181
1782117398.764544,0.292000,1844092,1000,12,0,1,597.466,4.304,2.729,561.940,-0.136,1.180
1782117398.765544,0.293000,1844093,1000,12,0,1,597.730,3.541,2.772,561.579,-1.217,1.191
1782117398.766544,0.294000,1844094,1000,12,0,1,598.211,3.065,2.805,563.237,0.599,1.194
1782117398.767545,0.295000,1844095,1000,12,0,1,596.577,0.909,2.808,561.195,-0.624,1.194
1782117398.768544,0.296000,1844096,1000,12,0,1,596.529,-0.469,2.803,560.474,-2.033,1.224
1782117398.769544,0.297000,1844097,1000,12,0,1,597.658,0.105,2.800,562.348,0.350,1.222
1782117398.770545,0.298000,1844098,1000,12,0,1,597.490,-0.770,2.777,562.300,0.432,1.184
1782117398.771544,0.299000,1844099,1000,12,0,1,599.820,0.031,2.777,560.618,-0.937,1.188
1782117398.772544,0.300000,1844100,1000,12,0,1,598.139,-1.237,2.780,561.675,-0.434,1.173
1782117398.773545,0.301000,1844101,1000,12,0,1,596.433,-4.375,2.814,561.483,0.217,1.173
1782117398.774544,0.302000,1844102,1000,12,0,1,597.178,-3.550,2.833,562.540,0.386,1.171
1782117398.775544,0.303000,1844103,1000,12,0,1,599.003,-2.252,2.850,560.354,-0.566,1.171
1782117398.776544,0.304000,1844104,1000,12,0,1,597.658,-2.921,2.880,560.979,-1.240,1.179
1782117398.777544,0.305000,1844105,1000,12,0,1,595.520,-5.157,2.969,564.029,2.205,1.214
1782117398.778544,0.306000,1844106,1000,12,0,1,595.545,-4.674,3.038,562.036,0.609,1.217
1782117398.779544,0.307000,1844107,1000,12,0,1,596.385,-3.127,3.069,560.546,-1.621,1.224
1782117398.780545,0.308000,1844108,1000,12,0,1,595.545,-3.087,3.099,561.411,-0.432,1.181
1782117398.781544,0.309000,1844109,1000,12,0,1,594.368,-3.543,3.138,565.086,2.303,1.225
1782117398.782544,0.310000,1844110,1000,12,0,1,597.538,-0.586,3.135,563.189,1.667,1.248
1782117398.783545,0.311000,1844111,1000,12,0,1,597.466,0.892,3.134,562.300,-0.819,1.252
1782117398.784544,0.312000,1844112,1000,12,0,1,596.746,-0.533,3.124,560.402,-1.274,1.265
1782117398.785544,0.313000,1844113,1000,12,0,1,597.851,0.935,3.100,563.141,-0.166,1.264
1782117398.786544,0.314000,1844114,1000,12,0,1,600.349,2.705,3.100,562.708,1.220,1.263
1782117398.787544,0.315000,1844115,1000,12,0,1,600.541,2.968,3.105,561.435,-1.121,1.270
1782117398.788544,0.316000,1844116,1000,12,0,1,602.030,2.898,3.069,562.228,0.082,1.269
1782117398.789544,0.317000,1844117,1000,12,0,1,600.397,1.566,3.054,563.045,0.858,1.270
1782117398.790545,0.318000,1844118,1000,12,0,1,598.067,-1.855,3.046,562.276,0.207,1.269
1782117398.791544,0.319000,1844119,1000,12,0,1,597.923,-2.186,3.044,561.147,-0.775,1.272
1782117398.792544,0.320000,1844120,1000,12,0,1,600.108,-0.562,3.044,561.916,-0.406,1.253
1782117398.793545,0.321000,1844121,1000,12,0,1,597.010,-2.607,3.067,564.318,2.001,1.282
1782117398.794544,0.322000,1844122,1000,12,0,1,592.758,-6.953,3.218,562.900,0.860,1.287
1782117398.795544,0.323000,1844123,1000,12,0,1,590.981,-7.671,3.392,562.204,-0.512,1.205
1782117398.796544,0.324000,1844124,1000,12,0,1,589.467,-7.613,3.555,562.060,-0.393,1.198
1782117398.797544,0.325000,1844125,1000,12,0,1,589.587,-6.467,3.655,561.844,-0.739,1.201
1782117398.798544,0.326000,1844126,1000,12,0,1,589.900,-4.354,3.682,562.732,-0.039,1.164
1782117398.799544,0.327000,1844127,1000,12,0,1,585.984,-6.231,3.724,563.261,0.588,1.162
1782117398.800545,0.328000,1844128,1000,12,0,1,585.480,-5.973,3.773,560.522,-1.698,1.168
1782117398.801544,0.329000,1844129,1000,12,0,1,584.927,-4.006,3.763,561.099,-1.817,1.175
1782117398.802544,0.330000,1844130,1000,12,0,1,584.927,-3.141,3.727,561.099,-0.756,1.123
1782117398.803545,0.331000,1844131,1000,12,0,1,584.303,-1.861,3.693,563.861,0.883,1.060
1782117398.804544,0.332000,1844132,1000,12,0,1,593.623,5.600,3.705,560.306,-0.614,1.063
1782117398.805544,0.333000,1844133,1000,12,0,1,600.805,13.747,4.094,561.651,-1.463,1.070
1782117398.806545,0.334000,1844134,1000,12,0,1,601.141,11.947,4.401,562.948,1.635,1.083
1782117398.807544,0.335000,1844135,1000,12,0,1,598.859,8.335,4.537,563.141,0.769,1.072
1782117398.808544,0.336000,1844136,1000,12,0,1,594.560,3.153,4.537,562.036,0.370,1.067
1782117398.809544,0.337000,1844137,1000,12,0,1,591.245,-0.959,4.530,563.357,0.789,1.068
1782117398.810544,0.338000,1844138,1000,12,0,1,592.734,0.041,4.512,561.435,-0.038,1.050
1782117398.811544,0.339000,1844139,1000,12,0,1,592.182,0.114,4.498,560.378,-1.734,1.056
1782117398.812544,0.340000,1844140,1000,12,0,1,592.614,-0.163,4.484,561.195,-0.550,1.058
1782117398.813545,0.341000,1844141,1000,12,0,1,592.374,0.171,4.443,560.835,-0.445,1.060
1782117398.814544,0.342000,1844142,1000,12,0,1,592.494,-0.093,4.401,561.675,-0.136,1.060
1782117398.815544,0.343000,1844143,1000,12,0,1,592.614,0.343,4.373,561.387,0.371,1.047
1782117398.816545,0.344000,1844144,1000,12,0,1,593.094,0.689,4.353,561.555,-0.232,1.044
1782117398.817544,0.345000,1844145,1000,12,0,1,592.926,0.741,4.352,559.994,-0.764,1.046
1782117398.818544,0.346000,1844146,1000,12,0,1,591.293,-0.518,4.352,559.321,-2.060,1.047
1782117398.819544,0.347000,1844147,1000,12,0,1,593.983,1.219,4.356,562.012,0.739,1.051
1782117398.820544,0.348000,1844148,1000,12,0,1,595.665,3.669,4.385,562.756,1.731,1.078
1782117398.821544,0.349000,1844149,1000,12,0,1,593.335,1.000,4.387,561.819,0.512,1.072
1782117398.822544,0.350000,1844150,1000,12,0,1,591.509,-0.907,4.386,563.885,1.824,1.101
1782117398.823545,0.351000,1844151,1000,12,0,1,591.461,-0.970,4.344,563.549,1.978,1.136
1782117398.824544,0.352000,1844152,1000,12,0,1,589.299,-2.248,4.327,561.940,-0.194,1.135
1782117398.825544,0.353000,1844153,1000,12,0,1,589.804,-2.267,4.327,560.667,-1.166,1.144
1782117398.826545,0.354000,1844154,1000,12,0,1,586.753,-3.400,4.334,561.579,-0.563,1.133
1782117398.827544,0.355000,1844155,1000,12,0,1,586.489,-4.472,4.319,561.988,0.371,1.090
1782117398.828544,0.356000,1844156,1000,12,0,1,587.041,-2.316,4.280,560.979,-0.544,1.090
1782117398.829545,0.357000,1844157,1000,12,0,1,586.705,-2.544,4.272,560.859,-0.696,1.070
1782117398.830544,0.358000,1844158,1000,12,0,1,586.393,-2.154,4.261,561.771,0.358,1.069
1782117398.831544,0.359000,1844159,1000,12,0,1,585.936,-2.077,4.242,561.579,0.351,1.020
1782117398.832544,0.360000,1844160,1000,12,0,1,583.774,-3.321,4.267,560.450,-0.620,0.996
1782117398.833544,0.361000,1844161,1000,12,0,1,585.120,-2.019,4.274,561.291,-0.142,0.989
1782117398.834544,0.362000,1844162,1000,12,0,1,585.576,-0.310,4.274,562.252,1.098,0.985
1782117398.835544,0.363000,1844163,1000,12,0,1,585.336,-0.432,4.272,561.795,0.487,0.987
1782117398.836545,0.364000,1844164,1000,12,0,1,582.958,-1.605,4.261,562.492,0.760,0.978
1782117398.837544,0.365000,1844165,1000,12,0,1,581.516,-2.694,4.258,563.597,1.675,0.994
1782117398.838544,0.366000,1844166,1000,12,0,1,582.429,-0.998,4.240,562.756,0.785,1.000
1782117398.839545,0.367000,1844167,1000,12,0,1,583.294,0.701,4.236,562.564,0.032,0.993
1782117398.840544,0.368000,1844168,1000,12,0,1,581.637,-0.102,4.227,562.684,0.211,0.993
1782117398.841544,0.369000,1844169,1000,12,0,1,578.754,-2.083,4.226,561.699,-0.748,0.992
1782117398.842544,0.370000,1844170,1000,12,0,1,578.370,-2.033,4.235,562.492,-0.365,0.992
1782117398.843544,0.371000,1844171,1000,12,0,1,578.634,-0.526,4.220,563.189,0.620,0.955
1782117398.844544,0.372000,1844172,1000,12,0,1,577.313,-1.040,4.106,562.636,-0.044,0.947
1782117398.845544,0.373000,1844173,1000,12,0,1,574.839,-2.392,3.975,562.900,0.049,0.944
1782117398.846545,0.374000,1844174,1000,12,0,1,572.749,-3.551,3.859,562.564,-0.030,0.942
1782117398.847544,0.375000,1844175,1000,12,0,1,574.791,-1.136,3.753,563.477,0.417,0.938
1782117398.848544,0.376000,1844176,1000,12,0,1,573.421,-0.565,3.703,563.189,0.624,0.943
1782117398.849545,0.377000,1844177,1000,12,0,1,573.566,-0.926,3.599,563.429,0.263,0.940
1782117398.850544,0.378000,1844178,1000,12,0,1,572.725,-0.053,3.498,563.429,0.593,0.912
1782117398.851544,0.379000,1844179,1000,12,0,1,574.983,1.279,3.457,564.990,1.354,0.896
1782117398.852545,0.380000,1844180,1000,12,0,1,576.568,3.972,3.474,562.108,-0.396,0.891
1782117398.853544,0.381000,1844181,1000,12,0,1,578.514,4.818,3.530,563.573,-0.697,0.888
1782117398.854544,0.382000,1844182,1000,12,0,1,577.001,4.076,3.488,563.213,0.504,0.887
1782117398.855544,0.383000,1844183,1000,12,0,1,576.953,2.799,2.923,563.909,-0.273,0.863
1782117398.856544,0.384000,1844184,1000,12,0,1,573.638,0.908,2.389,562.444,-0.507,0.835
1782117398.857544,0.385000,1844185,1000,12,0,1,574.238,0.287,2.078,560.570,-2.923,0.925
1782117398.858544,0.386000,1844186,1000,12,0,1,571.524,-0.131,2.030,561.627,-1.730,0.955
1782117398.859545,0.387000,1844187,1000,12,0,1,567.921,-3.713,2.092,562.420,-0.441,0.951
1782117398.860544,0.388000,1844188,1000,12,0,1,567.392,-2.982,2.134,562.732,-0.421,0.953
1782117398.861544,0.389000,1844189,1000,12,0,1,567.681,-1.442,2.144,561.507,-0.935,0.930
1782117398.862545,0.390000,1844190,1000,12,0,1,566.792,-1.292,2.152,562.228,-0.984,0.937
1782117398.863544,0.391000,1844191,1000,12,0,1,567.632,0.147,2.152,564.534,1.676,0.965
1782117398.864544,0.392000,1844192,1000,12,0,1,568.785,1.815,2.167,565.158,1.979,1.004
1782117398.865544,0.393000,1844193,1000,12,0,1,568.257,1.909,2.183,563.285,0.339,1.004
1782117398.866544,0.394000,1844194,1000,12,0,1,568.858,2.018,2.199,564.510,0.530,1.006
1782117398.867544,0.395000,1844195,1000,12,0,1,570.443,3.727,2.259,563.501,0.573,1.004
1782117398.868544,0.396000,1844196,1000,12,0,1,569.362,2.603,2.288,563.597,-0.370,0.962
1782117398.869545,0.397000,1844197,1000,12,0,1,570.587,2.817,2.316,564.318,0.915,0.965
1782117398.870544,0.398000,1844198,1000,12,0,1,570.275,2.903,2.294,564.750,0.901,0.942
1782117398.871544,0.399000,1844199,1000,12,0,1,571.404,2.711,2.322,563.117,-0.248,0.940
1782117398.872545,0.400000,1844200,1000,12,0,1,571.692,3.294,2.364,563.789,-0.312,0.905
1782117398.873544,0.401000,1844201,1000,12,0,1,571.188,2.000,2.377,562.948,-0.296,0.862
1782117398.874544,0.402000,1844202,1000,12,0,1,572.076,2.501,2.382,561.988,-1.602,0.891
1782117398.875545,0.403000,1844203,1000,12,0,1,572.845,3.050,2.400,564.222,0.361,0.877
1782117398.876544,0.404000,1844204,1000,12,0,1,573.181,2.908,2.387,562.972,0.084,0.873
1782117398.877544,0.405000,1844205,1000,12,0,1,576.688,5.307,2.421,562.444,-1.410,0.894
1782117398.878544,0.406000,1844206,1000,12,0,1,576.112,5.097,2.504,564.390,0.818,0.898
1782117398.879544,0.407000,1844207,1000,12,0,1,575.607,3.078,2.516,563.789,0.313,0.894
1782117398.880544,0.408000,1844208,1000,12,0,1,573.397,1.470,2.507,561.339,-1.957,0.934
1782117398.881544,0.409000,1844209,1000,12,0,1,576.736,2.735,2.519,563.117,-0.908,0.942
1782117398.882545,0.410000,1844210,1000,12,0,1,575.463,3.049,2.512,564.966,1.507,0.962
1782117398.883544,0.411000,1844211,1000,12,0,1,574.526,0.148,2.496,565.711,1.639,0.989
1782117398.884544,0.412000,1844212,1000,12,0,1,575.511,1.438,2.504,564.366,0.581,0.980
1782117398.885545,0.413000,1844213,1000,12,0,1,575.055,0.525,2.504,562.612,-1.430,0.999
1782117398.886544,0.414000,1844214,1000,12,0,1,576.544,0.955,2.498,561.435,-2.214,1.041
1782117398.887544,0.415000,1844215,1000,12,0,1,577.121,1.589,2.479,564.510,0.262,1.014
1782117398.888544,0.416000,1844216,1000,12,0,1,577.817,0.835,2.477,564.366,1.267,1.024
1782117398.889544,0.417000,1844217,1000,12,0,1,574.382,-1.705,2.487,564.822,0.617,1.028
1782117398.890544,0.418000,1844218,1000,12,0,1,575.800,-2.526,2.513,561.819,-0.940,1.036
1782117398.891544,0.419000,1844219,1000,12,0,1,577.217,0.094,2.495,562.660,-1.492,1.052
1782117398.892545,0.420000,1844220,1000,12,0,1,576.040,-1.984,2.495,562.900,0.228,1.051
1782117398.893544,0.421000,1844221,1000,12,0,1,572.293,-4.724,2.581,563.309,-0.158,1.048
1782117398.894544,0.422000,1844222,1000,12,0,1,572.557,-5.151,2.678,561.195,-1.114,1.059
1782117398.895545,0.423000,1844223,1000,12,0,1,572.220,-3.818,2.711,562.228,-1.055,1.070
1782117398.896544,0.424000,1844224,1000,12,0,1,571.572,-4.297,2.733,563.837,1.216,1.084
1782117398.897544,0.425000,1844225,1000,12,0,1,570.203,-4.334,2.796,564.029,1.128,1.094
1782117398.898545,0.426000,1844226,1000,12,0,1,569.506,-4.334,2.861,562.420,-0.358,1.091
1782117398.899544,0.427000,1844227,1000,12,0,1,571.476,-1.881,2.870,561.988,-1.007,1.100
1782117398.900544,0.428000,1844228,1000,12,0,1,571.884,-0.213,2.871,563.261,0.079,1.097
1782117398.901544,0.429000,1844229,1000,12,0,1,570.467,-1.394,2.872,562.540,-0.023,1.080
1782117398.902544,0.430000,1844230,1000,12,0,1,570.587,-0.814,2.819,562.972,-0.388,1.080
1782117398.903544,0.431000,1844231,1000,12,0,1,571.188,0.095,2.735,562.612,0.077,1.075
1782117398.904544,0.432000,1844232,1000,12,0,1,569.458,-0.796,2.676,565.038,1.217,1.087
1782117398.905545,0.433000,1844233,1000,12,0,1,570.203,-0.624,2.648,565.999,2.953,1.164
1782117398.906544,0.434000,1844234,1000,12,0,1,570.803,0.816,2.647,564.798,0.987,1.170
1782117398.907544,0.435000,1844235,1000,12,0,1,569.866,-0.279,2.647,563.597,-0.078,1.094
1782117398.908545,0.436000,1844236,1000,12,0,1,570.347,0.092,2.647,562.876,-0.860,1.074
1782117398.909544,0.437000,1844237,1000,12,0,1,570.155,0.222,2.595,563.333,-0.397,1.073
1782117398.910544,0.438000,1844238,1000,12,0,1,568.137,-1.549,2.570,563.117,-0.163,1.072
1782117398.911544,0.439000,1844239,1000,12,0,1,566.984,-2.477,2.586,563.837,0.154,1.064
1782117398.912544,0.440000,1844240,1000,12,0,1,569.626,-0.066,2.579,563.261,0.251,1.055
1782117398.913544,0.441000,1844241,1000,12,0,1,565.783,-1.774,2.591,563.477,-0.157,1.029
1782117398.914544,0.442000,1844242,1000,12,0,1,563.717,-4.657,2.661,564.005,0.752,0.995
1782117398.915545,0.443000,1844243,1000,12,0,1,563.429,-2.956,2.680,563.501,0.071,0.994
1782117398.916544,0.444000,1844244,1000,12,0,1,562.780,-3.037,2.699,563.741,0.113,0.992
1782117398.917544,0.445000,1844245,1000,12,0,1,563.861,-1.068,2.652,561.988,-1.091,1.000
1782117398.918545,0.446000,1844246,1000,12,0,1,562.636,-0.855,2.629,563.837,-0.343,1.000
1782117398.919544,0.447000,1844247,1000,12,0,1,559.898,-2.836,2.629,565.158,1.728,1.021
1782117398.920544,0.448000,1844248,1000,12,0,1,559.538,-2.253,2.617,564.942,0.743,1.019
1782117398.921544,0.449000,1844249,1000,12,0,1,559.586,-1.106,2.593,564.870,0.621,1.022
1782117398.922544,0.450000,1844250,1000,12,0,1,560.931,0.688,2.553,565.062,0.412,1.023
1782117398.923544,0.451000,1844251,1000,12,0,1,562.972,3.058,2.574,565.399,0.563,1.025
1782117398.924544,0.452000,1844252,1000,12,0,1,562.660,3.157,2.588,564.726,-0.047,1.000
1782117398.925545,0.453000,1844253,1000,12,0,1,562.396,2.419,2.575,564.077,-0.901,1.006
1782117398.926544,0.454000,1844254,1000,12,0,1,562.276,2.463,2.565,564.942,-0.094,1.006
1782117398.927544,0.455000,1844255,1000,12,0,1,564.222,3.515,2.503,564.270,-0.352,0.988
1782117398.928545,0.456000,1844256,1000,12,0,1,565.615,4.883,2.494,566.143,0.722,0.986
1782117398.929544,0.457000,1844257,1000,12,0,1,565.783,4.183,2.526,565.999,1.376,1.004
1782117398.930544,0.458000,1844258,1000,12,0,1,566.672,4.287,2.590,564.318,-0.741,0.971
1782117398.931545,0.459000,1844259,1000,12,0,1,568.858,5.441,2.674,564.318,-0.692,0.968
1782117398.932544,0.460000,1844260,1000,12,0,1,570.251,6.020,2.773,562.588,-1.685,0.973
1782117398.933544,0.461000,1844261,1000,12,0,1,570.323,5.121,2.866,563.261,-1.581,0.971
1782117398.934544,0.462000,1844262,1000,12,0,1,570.443,4.205,2.920,563.693,-0.202,0.968
1782117398.935544,0.463000,1844263,1000,12,0,1,572.677,5.188,3.009,561.555,-2.168,0.995
1782117398.936544,0.464000,1844264,1000,12,0,1,570.707,3.397,3.045,561.723,-2.054,0.989
1782117398.937544,0.465000,1844265,1000,12,0,1,570.635,1.598,3.045,563.525,-0.020,0.988
1782117398.938545,0.466000,1844266,1000,12,0,1,572.220,3.140,3.075,563.981,0.578,0.975
1782117398.939544,0.467000,1844267,1000,12,0,1,571.356,1.843,3.076,565.110,1.178,0.985
1782117398.940544,0.468000,1844268,1000,12,0,1,571.404,1.028,3.059,564.750,1.034,0.987
1782117398.941545,0.469000,1844269,1000,12,0,1,573.518,2.500,3.079,566.047,1.299,0.982
1782117398.942544,0.470000,1844270,1000,12,0,1,574.935,3.174,3.099,565.423,1.213,0.996
1782117398.943544,0.471000,1844271,1000,12,0,1,575.319,2.666,3.050,567.032,1.393,1.015
1782117398.944544,0.472000,1844272,1000,12,0,1,575.824,2.006,2.975,566.840,1.902,1.038
1782117398.945544,0.473000,1844273,1000,12,0,1,576.160,1.497,2.933,566.696,0.664,1.032
1782117398.946544,0.474000,1844274,1000,12,0,1,571.356,-3.012,2.901,564.462,-0.720,1.022
1782117398.947544,0.475000,1844275,1000,12,0,1,570.539,-5.259,2.931,562.876,-2.681,1.079
1782117398.948545,0.476000,1844276,1000,12,0,1,569.290,-5.042,2.954,565.110,-0.432,1.079
1782117398.949544,0.477000,1844277,1000,12,0,1,567.632,-6.915,3.100,565.038,0.433,1.071
1782117398.950544,0.478000,1844278,1000,12,0,1,570.563,-3.905,3.149,563.021,-1.688,1.098
1782117398.951545,0.479000,1844279,1000,12,0,1,568.521,-4.156,3.197,566.768,1.345,1.114
1782117398.952544,0.480000,1844280,1000,12,0,1,565.278,-7.503,3.367,564.582,0.852,1.119
1782117398.953544,0.481000,1844281,1000,12,0,1,565.110,-6.409,3.487,564.318,-1.074,1.129
1782117398.954545,0.482000,1844282,1000,12,0,1,565.423,-5.142,3.560,563.861,-0.145,1.116
1782117398.955544,0.483000,1844283,1000,12,0,1,564.462,-4.702,3.620,564.246,-0.701,1.040
1782117398.956544,0.484000,1844284,1000,12,0,1,565.110,-3.586,3.654,562.276,-1.438,1.051
1782117398.957544,0.485000,1844285,1000,12,0,1,563.693,-3.224,3.682,564.077,-0.918,1.058
1782117398.958544,0.486000,1844286,1000,12,0,1,564.606,-2.423,3.698,565.591,1.441,1.071
1782117398.959544,0.487000,1844287,1000,12,0,1,565.182,-0.354,3.698,565.783,0.950,1.078
1782117398.960544,0.488000,1844288,1000,12,0,1,563.429,-1.552,3.698,564.077,-0.493,1.080
1782117398.961545,0.489000,1844289,1000,12,0,1,559.538,-4.075,3.726,563.981,-1.107,1.091
1782117398.962544,0.490000,1844290,1000,12,0,1,558.769,-4.401,3.778,566.263,0.879,1.098
1782117398.963544,0.491000,1844291,1000,12,0,1,559.153,-2.509,3.786,567.440,2.169,1.139
1782117398.964545,0.492000,1844292,1000,12,0,1,559.874,-1.160,3.732,565.543,0.122,1.135
1782117398.965544,0.493000,1844293,1000,12,0,1,558.024,-1.620,3.716,566.191,0.140,1.135
1782117398.966544,0.494000,1844294,1000,12,0,1,559.153,-0.762,3.692,564.582,-0.592,1.138
1782117398.967544,0.495000,1844295,1000,12,0,1,560.811,1.846,3.698,565.230,-0.784,1.133
1782117398.968544,0.496000,1844296,1000,12,0,1,561.267,2.249,3.710,563.741,-0.879,1.138
1782117398.969544,0.497000,1844297,1000,12,0,1,560.162,1.494,3.694,564.125,-1.297,1.127
1782117398.970544,0.498000,1844298,1000,12,0,1,562.252,2.779,3.702,564.510,0.124,1.122
1782117398.971545,0.499000,1844299,1000,12,0,1,562.780,3.885,3.739,563.981,-0.488,1.121
1782117398.972544,0.500000,1844300,1000,12,0,1,559.105,0.445,3.738,562.780,-1.169,1.131
1782117398.973544,0.501000,1844301,1000,12,0,1,559.586,0.125,3.713,563.573,-0.549,1.131
1782117398.974545,0.502000,1844302,1000,12,0,1,559.514,1.388,3.691,564.390,0.597,1.134
1782117398.975544,0.503000,1844303,1000,12,0,1,559.778,1.017,3.678,564.462,0.632,1.131
1782117398.976544,0.504000,1844304,1000,12,0,1,557.424,0.213,3.662,565.927,1.472,1.150
1782117398.977545,0.505000,1844305,1000,12,0,1,552.475,-4.154,3.675,566.239,1.955,1.181
1782117398.978544,0.506000,1844306,1000,12,0,1,552.235,-3.801,3.650,565.903,0.840,1.183
1782117398.979544,0.507000,1844307,1000,12,0,1,553.316,-1.203,3.605,564.942,0.019,1.167
1782117398.980544,0.508000,1844308,1000,12,0,1,553.028,-0.704,3.555,563.861,-1.402,1.179
1782117398.981544,0.509000,1844309,1000,12,0,1,552.235,-0.587,3.472,565.014,-0.475,1.177
1782117398.982544,0.510000,1844310,1000,12,0,1,555.502,2.174,3.380,565.062,-0.067,1.152
1782117398.983544,0.511000,1844311,1000,12,0,1,554.469,2.741,3.324,566.263,0.448,1.132
1782117398.984545,0.512000,1844312,1000,12,0,1,554.397,1.320,3.276,565.302,0.237,1.132
1782117398.985544,0.513000,1844313,1000,12,0,1,555.286,2.892,3.219,563.429,-1.918,1.123
1782117398.986544,0.514000,1844314,1000,12,0,1,557.400,3.865,3.229,564.846,-0.558,1.088
1782117398.987545,0.515000,1844315,1000,12,0,1,557.111,3.914,3.269,565.278,0.521,1.091
1782117398.988544,0.516000,1844316,1000,12,0,1,555.622,1.631,3.247,565.711,0.564,1.090
1782117398.989544,0.517000,1844317,1000,12,0,1,557.063,2.337,3.253,565.351,0.720,1.082
1782117398.990544,0.518000,1844318,1000,12,0,1,559.393,4.354,3.308,565.399,0.356,1.074
1782117398.991544,0.519000,1844319,1000,12,0,1,556.151,1.472,3.295,564.702,0.191,1.058
1782117398.992544,0.520000,1844320,1000,12,0,1,554.733,-0.862,3.267,567.344,1.743,1.073
1782117398.993544,0.521000,1844321,1000,12,0,1,558.697,2.683,3.267,568.233,3.240,1.150
1782117398.994545,0.522000,1844322,1000,12,0,1,555.910,1.444,3.261,568.545,2.328,1.165
1782117398.995544,0.523000,1844323,1000,12,0,1,556.175,-0.172,3.254,567.128,1.171,1.173
1782117398.996544,0.524000,1844324,1000,12,0,1,554.373,0.198,3.226,565.951,-0.767,1.174
1782117398.997545,0.525000,1844325,1000,12,0,1,552.403,-2.606,3.161,568.185,0.848,1.118
1782117398.998544,0.526000,1844326,1000,12,0,1,551.851,-1.804,3.090,567.200,0.499,1.118
1782117398.999544,0.527000,1844327,1000,12,0,1,553.052,-0.731,2.933,566.816,-1.068,1.127
1782117399.000545,0.528000,1844328,1000,12,0,1,552.307,-0.316,2.881,566.311,-0.877,1.108
1782117399.001544,0.529000,1844329,1000,12,0,1,552.307,-0.610,2.822,567.512,-0.675,1.096
1782117399.002544,0.530000,1844330,1000,12,0,1,551.178,-0.869,2.618,565.182,-1.624,1.113
1782117399.003544,0.531000,1844331,1000,12,0,1,552.788,0.065,2.456,565.879,-2.278,1.149
1782117399.004544,0.532000,1844332,1000,12,0,1,553.172,1.146,2.351,567.392,0.288,1.149
1782117399.005544,0.533000,1844333,1000,12,0,1,554.613,1.601,2.266,566.095,-1.015,1.154
1782117399.006544,0.534000,1844334,1000,12,0,1,555.862,2.765,2.243,564.198,-2.550,1.192
1782117399.007545,0.535000,1844335,1000,12,0,1,556.247,2.448,2.224,563.957,-2.482,1.236
1782117399.008544,0.536000,1844336,1000,12,0,1,555.430,1.251,2.204,565.639,-0.670,1.222
1782117399.009544,0.537000,1844337,1000,12,0,1,555.814,0.968,2.208,565.639,0.149,1.215
1782117399.010545,0.538000,1844338,1000,12,0,1,556.631,1.458,2.207,566.311,0.252,1.214
1782117399.011544,0.539000,1844339,1000,12,0,1,558.144,2.403,2.157,566.023,0.705,1.208
1782117399.012544,0.540000,1844340,1000,12,0,1,557.784,1.973,2.084,567.152,0.931,1.208
1782117399.013544,0.541000,1844341,1000,12,0,1,555.670,-0.209,2.054,568.185,2.308,1.213
1782117399.014544,0.542000,1844342,1000,12,0,1,557.208,0.516,2.048,568.017,1.559,1.233
1782117399.015544,0.543000,1844343,1000,12,0,1,555.502,0.204,2.036,567.200,0.661,1.237
1782117399.016544,0.544000,1844344,1000,12,0,1,555.598,-0.855,2.037,564.486,-1.787,1.259
1782117399.017545,0.545000,1844345,1000,12,0,1,553.460,-1.156,2.026,565.038,-1.899,1.283
1782117399.018544,0.546000,1844346,1000,12,0,1,551.827,-3.299,2.055,565.471,-0.574,1.279
1782117399.019544,0.547000,1844347,1000,12,0,1,550.626,-3.024,2.088,565.759,-0.768,1.271
1782117399.020545,0.548000,1844348,1000,12,0,1,552.355,-1.634,2.064,567.200,0.761,1.275
1782117399.021544,0.549000,1844349,1000,12,0,1,552.908,0.057,1.989,566.864,0.526,1.276
1782117399.022544,0.550000,1844350,1000,12,0,1,552.668,-0.459,1.989,566.023,-0.510,1.267
1782117399.023545,0.551000,1844351,1000,12,0,1,550.938,-1.583,2.002,567.945,0.932,1.271
1782117399.024544,0.552000,1844352,1000,12,0,1,553.388,-0.127,1.992,566.095,0.046,1.269
1782117399.025544,0.553000,1844353,1000,12,0,1,552.716,0.344,1.988,566.335,-0.820,1.271
1782117399.026544,0.554000,1844354,1000,12,0,1,554.781,0.673,1.990,566.335,0.201,1.254
1782117399.027544,0.555000,1844355,1000,12,0,1,558.000,3.939,1.981,565.014,-1.291,1.237
1782117399.028544,0.556000,1844356,1000,12,0,1,559.562,4.370,2.004,565.663,-0.585,1.234
1782117399.029544,0.557000,1844357,1000,12,0,1,560.066,3.903,2.072,565.158,-0.397,1.235
1782117399.030545,0.558000,1844358,1000,12,0,1,560.739,3.579,2.131,563.861,-1.652,1.241
1782117399.031544,0.559000,1844359,1000,12,0,1,560.018,2.233,2.152,565.206,-0.285,1.240
1782117399.032544,0.560000,1844360,1000,12,0,1,558.553,0.431,2.131,567.032,1.622,1.261
1782117399.033545,0.561000,1844361,1000,12,0,1,557.880,-0.606,2.097,565.423,0.505,1.261
1782117399.034544,0.562000,1844362,1000,12,0,1,557.087,-0.926,2.093,565.975,0.091,1.261
1782117399.035544,0.563000,1844363,1000,12,0,1,557.256,-0.928,2.057,565.182,0.239,1.232
1782117399.036544,0.564000,1844364,1000,12,0,1,556.343,-0.916,1.987,565.014,-0.746,1.234
1782117399.037544,0.565000,1844365,1000,12,0,1,556.463,-1.059,1.914,565.038,-0.133,1.232
1782117399.038544,0.566000,1844366,1000,12,0,1,555.430,-1.008,1.906,564.774,-0.645,1.233
1782117399.039544,0.567000,1844367,1000,12,0,1,554.325,-2.149,1.901,563.117,-1.691,1.251
1782117399.040545,0.568000,1844368,1000,12,0,1,551.947,-3.342,1.860,564.462,-0.943,1.258
1782117399.041544,0.569000,1844369,1000,12,0,1,553.749,-2.193,1.874,567.056,1.910,1.286
1782117399.042544,0.570000,1844370,1000,12,0,1,553.989,-0.570,1.872,567.825,2.480,1.310
1782117399.043545,0.571000,1844371,1000,12,0,1,553.749,-1.467,1.845,566.239,0.833,1.233
1782117399.044544,0.572000,1844372,1000,12,0,1,554.253,-0.711,1.836,566.792,0.701,1.192
1782117399.045544,0.573000,1844373,1000,12,0,1,552.788,-1.927,1.856,567.921,1.871,1.210
1782117399.046544,0.574000,1844374,1000,12,0,1,556.679,0.398,1.857,566.335,0.500,1.207
1782117399.047544,0.575000,1844375,1000,12,0,1,555.382,0.814,1.823,567.681,0.812,1.207
1782117399.048544,0.576000,1844376,1000,12,0,1,552.740,-3.288,1.864,567.032,1.170,1.216
1782117399.049544,0.577000,1844377,1000,12,0,1,550.218,-4.320,1.959,568.161,0.907,1.213
1782117399.050545,0.578000,1844378,1000,12,0,1,548.008,-6.273,2.150,565.951,0.171,1.207
1782117399.051544,0.579000,1844379,1000,12,0,1,546.230,-6.343,2.328,565.711,-1.450,1.221
1782117399.052544,0.580000,1844380,1000,12,0,1,546.062,-5.487,2.451,566.600,0.357,1.200
1782117399.053545,0.581000,1844381,1000,12,0,1,545.389,-4.292,2.525,567.392,0.571,1.159
1782117399.054544,0.582000,1844382,1000,12,0,1,546.158,-2.609,2.547,564.678,-1.219,1.171
1782117399.055544,0.583000,1844383,1000,12,0,1,543.083,-3.243,2.578,565.471,-1.517,1.181
1782117399.056545,0.584000,1844384,1000,12,0,1,542.243,-3.655,2.600,565.927,-0.081,1.125
1782117399.057544,0.585000,1844385,1000,12,0,1,542.002,-1.748,2.589,566.504,-0.160,1.069
1782117399.058544,0.586000,1844386,1000,12,0,1,542.843,-0.337,2.583,566.263,-0.044,1.065
1782117399.059544,0.587000,1844387,1000,12,0,1,543.420,1.438,2.587,566.528,-0.201,1.065
1782117399.060544,0.588000,1844388,1000,12,0,1,540.922,0.035,2.579,568.161,1.063,1.075
1782117399.061544,0.589000,1844389,1000,12,0,1,542.531,0.999,2.560,569.266,2.062,1.110
1782117399.062544,0.590000,1844390,1000,12,0,1,542.243,2.367,2.567,567.873,0.450,1.104
1782117399.063545,0.591000,1844391,1000,12,0,1,541.138,0.531,2.568,567.825,-0.102,1.054
1782117399.064544,0.592000,1844392,1000,12,0,1,543.468,2.876,2.599,563.597,-3.072,1.119
1782117399.065544,0.593000,1844393,1000,12,0,1,545.125,4.326,2.670,565.351,-2.723,1.179
1782117399.066545,0.594000,1844394,1000,12,0,1,547.023,5.247,2.768,564.990,-0.860,1.159
1782117399.067544,0.595000,1844395,1000,12,0,1,548.536,6.095,2.895,565.086,-1.769,1.154
1782117399.068544,0.596000,1844396,1000,12,0,1,550.770,6.787,3.014,566.912,0.821,1.157
1782117399.069544,0.597000,1844397,1000,12,0,1,550.049,5.800,3.094,566.359,0.518,1.155
1782117399.070544,0.598000,1844398,1000,12,0,1,550.218,4.229,3.143,566.455,0.211,1.150
1782117399.071544,0.599000,1844399,1000,12,0,1,549.809,3.871,3.190,567.873,1.746,1.174
1782117399.072544,0.600000,1844400,1000,12,0,1,552.572,4.836,3.262,569.578,2.787,1.236
1782117399.073545,0.601000,1844401,1000,12,0,1,551.827,4.847,3.326,566.071,0.296,1.230
1782117399.074544,0.602000,1844402,1000,12,0,1,552.620,3.682,3.366,566.383,-1.151,1.241
1782117399.075544,0.603000,1844403,1000,12,0,1,553.508,4.839,3.435,566.960,0.706,1.239
1782117399.076545,0.604000,1844404,1000,12,0,1,552.668,3.190,3.463,567.344,0.048,1.239
1782117399.077544,0.605000,1844405,1000,12,0,1,554.421,3.833,3.461,566.720,0.078,1.225
1782117399.078544,0.606000,1844406,1000,12,0,1,555.190,4.476,3.463,565.543,-1.459,1.240
1782117399.079545,0.607000,1844407,1000,12,0,1,557.015,4.432,3.476,565.230,-1.584,1.259
1782117399.080544,0.608000,1844408,1000,12,0,1,557.184,4.390,3.495,565.663,-1.028,1.245
1782117399.081544,0.609000,1844409,1000,12,0,1,555.574,1.278,3.485,565.615,-0.888,1.251
1782117399.082544,0.610000,1844410,1000,12,0,1,555.886,0.614,3.486,567.729,0.806,1.235
1782117399.083544,0.611000,1844411,1000,12,0,1,558.529,1.844,3.494,567.632,1.205,1.245
1782117399.084544,0.612000,1844412,1000,12,0,1,559.105,1.795,3.501,565.903,-0.717,1.249
1782117399.085544,0.613000,1844413,1000,12,0,1,559.153,0.263,3.499,566.359,-0.507,1.250
1782117399.086545,0.614000,1844414,1000,12,0,1,558.168,-1.246,3.501,566.984,0.499,1.248
1782117399.087544,0.615000,1844415,1000,12,0,1,557.808,-2.667,3.518,566.672,0.108,1.248
1782117399.088544,0.616000,1844416,1000,12,0,1,557.976,-2.774,3.537,565.759,-0.476,1.246
1782117399.089545,0.617000,1844417,1000,12,0,1,556.751,-3.964,3.568,568.497,1.371,1.238
1782117399.090544,0.618000,1844418,1000,12,0,1,553.028,-7.022,3.673,569.626,3.147,1.309
1782117399.091544,0.619000,1844419,1000,12,0,1,554.181,-6.225,3.765,567.512,0.610,1.284
1782117399.092544,0.620000,1844420,1000,12,0,1,554.109,-4.453,3.816,565.807,-1.115,1.245
1782117399.093544,0.621000,1844421,1000,12,0,1,558.385,-1.361,3.815,566.744,-0.467,1.241
1782117399.094544,0.622000,1844422,1000,12,0,1,561.051,2.645,3.832,566.143,-0.404,1.239
1782117399.095544,0.623000,1844423,1000,12,0,1,560.546,1.388,3.828,564.822,-1.812,1.237
1782117399.096545,0.624000,1844424,1000,12,0,1,558.481,-0.339,3.828,566.960,-0.064,1.235
1782117399.097544,0.625000,1844425,1000,12,0,1,555.262,-3.217,3.853,565.807,-0.125,1.230
1782117399.098544,0.626000,1844426,1000,12,0,1,552.331,-5.511,3.903,566.071,-0.969,1.226
1782117399.099545,0.627000,1844427,1000,12,0,1,552.331,-4.862,3.916,566.071,-0.015,1.219
1782117399.100544,0.628000,1844428,1000,12,0,1,552.812,-3.480,3.846,567.368,0.291,1.220
1782117399.101544,0.629000,1844429,1000,12,0,1,548.200,-6.185,3.841,567.825,1.319,1.217
1782117399.102545,0.630000,1844430,1000,12,0,1,544.645,-9.314,3.985,569.338,1.744,1.241
1782117399.103544,0.631000,1844431,1000,12,0,1,546.879,-5.965,4.028,566.960,0.327,1.239
1782117399.104544,0.632000,1844432,1000,12,0,1,551.587,-0.784,4.013,566.672,-1.199,1.239
1782117399.105544,0.633000,1844433,1000,12,0,1,556.103,3.631,4.019,568.161,0.787,1.225
1782117399.106544,0.634000,1844434,1000,12,0,1,555.046,2.856,4.006,566.071,-0.822,1.230
1782117399.107544,0.635000,1844435,1000,12,0,1,550.290,-2.119,4.010,566.239,-1.356,1.245
1782117399.108544,0.636000,1844436,1000,12,0,1,553.460,-0.366,4.010,565.567,-0.789,1.250
1782117399.109545,0.637000,1844437,1000,12,0,1,553.460,1.393,4.010,565.567,-1.394,1.265
1782117399.110544,0.638000,1844438,1000,12,0,1,560.330,4.986,4.071,566.095,-0.031,1.256
1782117399.111544,0.639000,1844439,1000,12,0,1,565.302,10.925,4.352,566.431,0.041,1.222
1782117399.112545,0.640000,1844440,1000,12,0,1,560.426,4.939,4.395,566.864,0.720,1.224
1782117399.113544,0.641000,1844441,1000,12,0,1,557.952,1.080,4.397,567.560,1.128,1.235
1782117399.114544,0.642000,1844442,1000,12,0,1,557.736,1.237,4.382,566.431,0.337,1.157
1782117399.115544,0.643000,1844443,1000,12,0,1,557.640,0.775,4.340,565.134,-1.158,1.103
1782117399.116544,0.644000,1844444,1000,12,0,1,557.856,1.399,4.281,566.071,-0.382,1.097
1782117399.117544,0.645000,1844445,1000,12,0,1,557.015,0.579,4.194,566.864,0.647,1.072
1782117399.118544,0.646000,1844446,1000,12,0,1,557.448,0.925,4.085,567.825,1.098,1.077
1782117399.119545,0.647000,1844447,1000,12,0,1,556.391,0.329,4.002,566.023,-0.095,1.075
1782117399.120544,0.648000,1844448,1000,12,0,1,554.325,-1.661,3.964,566.720,-0.516,1.077
1782117399.121544,0.649000,1844449,1000,12,0,1,552.331,-3.195,3.952,565.447,-0.550,1.051
1782117399.122545,0.650000,1844450,1000,12,0,1,551.611,-3.655,3.927,567.512,-0.003,0.975
1782117399.123544,0.651000,1844451,1000,12,0,1,551.779,-3.055,3.890,566.431,0.552,0.977
1782117399.124544,0.652000,1844452,1000,12,0,1,552.499,-2.199,3.868,566.984,-0.422,0.965
1782117399.125545,0.653000,1844453,1000,12,0,1,550.818,-3.177,3.833,568.954,2.126,1.006
1782117399.126544,0.654000,1844454,1000,12,0,1,551.419,-3.160,3.833,567.825,0.960,1.015
1782117399.127544,0.655000,1844455,1000,12,0,1,556.631,1.553,3.801,566.119,-0.940,1.023
1782117399.128544,0.656000,1844456,1000,12,0,1,559.369,4.195,3.794,564.005,-2.319,1.055
1782117399.129544,0.657000,1844457,1000,12,0,1,560.859,4.173,3.788,563.597,-2.842,1.106
1782117399.130544,0.658000,1844458,1000,12,0,1,562.468,4.880,3.800,565.182,-0.592,1.100
1782117399.131544,0.659000,1844459,1000,12,0,1,559.562,1.801,3.805,565.711,0.160,1.093
1782117399.132545,0.660000,1844460,1000,12,0,1,560.883,1.287,3.808,567.560,1.678,1.113
1782117399.133544,0.661000,1844461,1000,12,0,1,560.138,1.719,3.807,567.056,1.609,1.123
1782117399.134544,0.662000,1844462,1000,12,0,1,560.426,0.618,3.799,564.438,-1.100,1.129
1782117399.135545,0.663000,1844463,1000,12,0,1,563.069,3.485,3.831,565.110,-0.869,1.133
1782117399.136544,0.664000,1844464,1000,12,0,1,562.540,3.005,3.850,564.870,-0.302,1.132
1782117399.137544,0.665000,1844465,1000,12,0,1,563.141,2.634,3.850,566.191,0.168,1.132
1782117399.138544,0.666000,1844466,1000,12,0,1,565.158,4.423,3.881,566.528,1.166,1.142
1782117399.139544,0.667000,1844467,1000,12,0,1,563.837,2.862,3.861,567.921,1.457,1.144
1782117399.140544,0.668000,1844468,1000,12,0,1,560.883,-0.399,3.732,566.071,0.536,1.057
1782117399.141544,0.669000,1844469,1000,12,0,1,561.387,-0.757,3.628,567.344,0.208,1.054
1782117399.142545,0.670000,1844470,1000,12,0,1,561.675,-0.126,3.573,567.753,1.570,1.065
1782117399.143544,0.671000,1844471,1000,12,0,1,559.225,-2.733,3.589,568.161,0.912,1.071
1782117399.144544,0.672000,1844472,1000,12,0,1,559.009,-3.497,3.603,568.209,1.239,1.084
1782117399.145545,0.673000,1844473,1000,12,0,1,556.991,-4.633,3.657,567.176,0.012,1.053
1782117399.146544,0.674000,1844474,1000,12,0,1,555.070,-6.767,3.780,567.344,-0.137,1.053
1782117399.147544,0.675000,1844475,1000,12,0,1,554.373,-6.627,3.868,567.344,0.259,1.054
1782117399.148545,0.676000,1844476,1000,12,0,1,552.572,-7.500,3.934,566.528,-0.680,1.049
1782117399.149544,0.677000,1844477,1000,12,0,1,555.550,-4.814,3.933,566.455,-0.535,1.052
1782117399.150544,0.678000,1844478,1000,12,0,1,555.550,-2.868,3.923,566.455,-0.465,1.053
1782117399.151544,0.679000,1844479,1000,12,0,1,556.631,-2.642,3.842,566.215,-0.438,1.038
1782117399.152544,0.680000,1844480,1000,12,0,1,555.262,-2.048,3.621,564.077,-2.038,1.049
1782117399.153544,0.681000,1844481,1000,12,0,1,554.853,-2.911,3.545,564.870,-1.641,1.073
1782117399.154544,0.682000,1844482,1000,12,0,1,554.998,-1.254,3.548,564.654,-0.819,1.066
1782117399.155545,0.683000,1844483,1000,12,0,1,552.211,-2.864,3.534,564.342,-1.448,1.080
1782117399.156544,0.684000,1844484,1000,12,0,1,551.635,-2.892,3.535,564.510,-0.814,1.080
1782117399.157544,0.685000,1844485,1000,12,0,1,551.226,-1.458,3.528,565.110,-0.349,1.064
1782117399.158545,0.686000,1844486,1000,12,0,1,550.650,-1.382,3.533,565.182,-0.057,1.058
1782117399.159544,0.687000,1844487,1000,12,0,1,550.506,-0.211,3.528,565.351,-0.055,1.039
1782117399.160544,0.688000,1844488,1000,12,0,1,550.506,0.315,3.457,565.879,0.380,1.041
1782117399.161544,0.689000,1844489,1000,12,0,1,548.680,-0.260,3.092,565.399,0.085,1.041
1782117399.162544,0.690000,1844490,1000,12,0,1,547.623,-1.161,3.017,566.143,0.307,1.037
1782117399.163544,0.691000,1844491,1000,12,0,1,548.248,0.092,3.013,567.080,1.439,1.044
1782117399.164544,0.692000,1844492,1000,12,0,1,550.169,1.893,3.020,565.254,-0.175,1.044
1782117399.165545,0.693000,1844493,1000,12,0,1,548.896,1.316,3.024,566.023,-0.054,1.031
1782117399.166544,0.694000,1844494,1000,12,0,1,547.287,-0.760,3.019,564.798,-0.169,1.030
1782117399.167544,0.695000,1844495,1000,12,0,1,547.767,-0.226,3.018,566.023,0.021,1.025
1782117399.168545,0.696000,1844496,1000,12,0,1,545.173,-1.838,3.027,565.423,0.752,1.019
1782117399.169544,0.697000,1844497,1000,12,0,1,544.164,-3.189,3.060,564.942,-0.458,1.021
1782117399.170544,0.698000,1844498,1000,12,0,1,544.621,-1.633,3.059,566.191,1.125,1.031
1782117399.171544,0.699000,1844499,1000,12,0,1,544.909,-1.020,3.029,565.206,0.520,1.031
1782117399.172544,0.700000,1844500,1000,12,0,1,548.056,2.099,2.999,564.366,-0.614,1.034
1782117399.173544,0.701000,1844501,1000,12,0,1,548.704,3.603,3.012,563.309,-1.001,1.041
1782117399.174544,0.702000,1844502,1000,12,0,1,549.545,3.700,3.041,564.342,-0.538,1.042
1782117399.175545,0.703000,1844503,1000,12,0,1,550.698,5.137,3.094,566.504,1.904,1.033
1782117399.176544,0.704000,1844504,1000,12,0,1,551.611,5.477,3.158,567.296,2.256,1.073
1782117399.177544,0.705000,1844505,1000,12,0,1,553.148,6.555,3.284,566.960,1.655,1.090
1782117399.178545,0.706000,1844506,1000,12,0,1,551.611,5.129,3.310,565.230,-0.222,1.040
1782117399.179544,0.707000,1844507,1000,12,0,1,549.257,2.218,3.272,565.399,-0.636,0.964
1782117399.180544,0.708000,1844508,1000,12,0,1,546.759,0.208,3.199,565.254,-0.371,0.961
1782117399.181545,0.709000,1844509,1000,12,0,1,542.939,-2.976,3.216,566.023,-0.195,0.962
1782117399.182544,0.710000,1844510,1000,12,0,1,541.042,-4.327,3.269,564.510,-0.859,0.940
1782117399.183544,0.711000,1844511,1000,12,0,1,543.107,-1.909,3.271,565.302,-0.995,0.922
1782117399.184544,0.712000,1844512,1000,12,0,1,542.219,-1.412,3.276,564.438,-0.606,0.913
1782117399.185544,0.713000,1844513,1000,12,0,1,541.738,-2.299,3.255,564.149,-1.496,0.929
1782117399.186544,0.714000,1844514,1000,12,0,1,541.546,-1.658,3.236,563.285,-1.296,0.946
1782117399.187544,0.715000,1844515,1000,12,0,1,542.531,-1.080,3.218,566.263,0.720,0.952
1782117399.188545,0.716000,1844516,1000,12,0,1,541.858,-0.990,3.160,565.735,1.630,0.965
1782117399.189544,0.717000,1844517,1000,12,0,1,544.429,0.395,3.134,565.302,0.152,0.943
1782117399.190544,0.718000,1844518,1000,12,0,1,546.182,2.683,3.156,564.029,-0.170,0.940
1782117399.191545,0.719000,1844519,1000,12,0,1,547.695,3.016,3.183,565.158,0.142,0.940
1782117399.192544,0.720000,1844520,1000,12,0,1,550.722,5.254,3.269,565.783,1.390,0.934
1782117399.193544,0.721000,1844521,1000,12,0,1,552.980,6.644,3.379,564.029,-0.307,0.926
1782117399.194544,0.722000,1844522,1000,12,0,1,554.781,7.028,3.487,564.990,-0.061,0.910
1782117399.195544,0.723000,1844523,1000,12,0,1,553.028,5.118,3.501,566.191,1.611,0.938
1782117399.196544,0.724000,1844524,1000,12,0,1,551.611,2.338,3.384,564.702,-0.104,0.938
1782117399.197544,0.725000,1844525,1000,12,0,1,550.097,1.314,3.257,565.351,0.063,0.937
1782117399.198545,0.726000,1844526,1000,12,0,1,547.431,-1.319,3.085,566.552,1.191,0.947
1782117399.199544,0.727000,1844527,1000,12,0,1,547.095,-1.424,3.016,565.038,-0.107,0.944
1782117399.200544,0.728000,1844528,1000,12,0,1,546.062,-1.454,2.995,564.726,-1.044,0.954
1782117399.201545,0.729000,1844529,1000,12,0,1,546.206,-1.368,2.978,566.119,0.442,0.954
1782117399.202544,0.730000,1844530,1000,12,0,1,546.662,-0.218,2.964,564.462,-0.737,0.915
1782117399.203544,0.731000,1844531,1000,12,0,1,546.446,-0.481,2.936,563.549,-1.978,0.928
1782117399.204545,0.732000,1844532,1000,12,0,1,545.798,-0.953,2.934,564.942,-0.373,0.922
1782117399.205544,0.733000,1844533,1000,12,0,1,545.029,-1.810,2.917,565.254,0.286,0.900
1782117399.206544,0.734000,1844534,1000,12,0,1,543.900,-2.786,2.915,565.086,0.056,0.893
1782117399.207544,0.735000,1844535,1000,12,0,1,543.732,-3.108,2.941,565.182,0.280,0.892
1782117399.208544,0.736000,1844536,1000,12,0,1,547.095,-0.448,2.935,567.032,1.673,0.923
1782117399.209544,0.737000,1844537,1000,12,0,1,547.936,0.777,2.937,565.999,1.320,0.942
1782117399.210544,0.738000,1844538,1000,12,0,1,548.608,0.165,2.937,565.351,-0.097,0.940
1782117399.211545,0.739000,1844539,1000,12,0,1,549.545,0.982,2.940,566.095,0.859,0.948
1782117399.212544,0.740000,1844540,1000,12,0,1,547.431,-1.145,2.940,567.344,1.659,0.976
1782117399.213544,0.741000,1844541,1000,12,0,1,549.329,-0.388,2.940,565.351,0.224,0.955
1782117399.214545,0.742000,1844542,1000,12,0,1,552.475,3.082,2.960,566.383,0.027,0.955
1782117399.215544,0.743000,1844543,1000,12,0,1,551.419,2.023,2.968,564.678,-0.386,0.956
1782117399.216544,0.744000,1844544,1000,12,0,1,550.770,0.912,2.969,565.230,-1.186,0.970
1782117399.217544,0.745000,1844545,1000,12,0,1,549.353,0.190,2.969,565.230,-0.119,0.971
1782117399.218544,0.746000,1844546,1000,12,0,1,551.130,1.246,2.963,565.975,-0.276,0.966
1782117399.219544,0.747000,1844547,1000,12,0,1,552.620,3.502,2.970,565.230,-0.309,0.964
1782117399.220544,0.748000,1844548,1000,12,0,1,552.620,2.987,2.991,565.230,-0.906,0.960
1782117399.221545,0.749000,1844549,1000,12,0,1,556.607,5.728,3.095,567.008,0.756,0.963
1782117399.222544,0.750000,1844550,1000,12,0,1,555.694,5.356,3.173,565.735,0.087,0.959
1782117399.223544,0.751000,1844551,1000,12,0,1,550.626,-0.676,3.133,563.333,-2.590,1.017
1782117399.224545,0.752000,1844552,1000,12,0,1,548.200,-3.305,3.124,564.606,-1.276,1.030
1782117399.225544,0.753000,1844553,1000,12,0,1,545.990,-4.944,3.118,564.510,-0.648,0.998
1782117399.226544,0.754000,1844554,1000,12,0,1,542.026,-7.977,3.224,563.573,-1.468,0.968
1782117399.227545,0.755000,1844555,1000,12,0,1,540.105,-9.272,3.355,564.149,-0.771,0.946
1782117399.228544,0.756000,1844556,1000,12,0,1,540.249,-7.945,3.463,563.981,-0.335,0.947
1782117399.229544,0.757000,1844557,1000,12,0,1,547.239,-1.740,3.457,564.270,-0.224,0.943
1782117399.230544,0.758000,1844558,1000,12,0,1,557.376,7.802,3.629,563.981,0.072,0.941
1782117399.231544,0.759000,1844559,1000,12,0,1,558.745,8.695,3.808,563.189,-0.730,0.947
1782117399.232544,0.760000,1844560,1000,12,0,1,554.829,3.005,3.783,563.717,-0.112,0.939
1782117399.233544,0.761000,1844561,1000,12,0,1,554.301,1.109,3.777,563.333,-0.073,0.928
1782117399.234545,0.762000,1844562,1000,12,0,1,553.869,0.619,3.772,563.573,-0.090,0.925
1782117399.235544,0.763000,1844563,1000,12,0,1,549.305,-3.280,3.787,561.099,-1.521,0.925
1782117399.236544,0.764000,1844564,1000,12,0,1,550.338,-3.088,3.805,561.916,-1.605,0.935
1782117399.237545,0.765000,1844565,1000,12,0,1,550.410,-0.967,3.804,564.125,1.354,0.949
1782117399.238544,0.766000,1844566,1000,12,0,1,550.938,-0.906,3.804,564.558,1.493,0.944
1782117399.239544,0.767000,1844567,1000,12,0,1,551.178,0.673,3.804,564.174,1.038,0.956
1782117399.240544,0.768000,1844568,1000,12,0,1,552.548,1.615,3.792,565.831,1.967,0.995
1782117399.241544,0.769000,1844569,1000,12,0,1,553.460,3.078,3.793,565.062,1.628,1.021
1782117399.242544,0.770000,1844570,1000,12,0,1,554.061,3.160,3.747,565.278,0.874,1.010
1782117399.243544,0.771000,1844571,1000,12,0,1,554.902,3.528,3.661,565.735,1.537,1.032
1782117399.244545,0.772000,1844572,1000,12,0,1,554.974,3.109,3.551,565.086,0.664,1.036
1782117399.245544,0.773000,1844573,1000,12,0,1,555.862,2.735,3.498,565.062,0.388,1.012
1782117399.246544,0.774000,1844574,1000,12,0,1,555.526,2.044,3.494,565.351,0.755,1.018
1782117399.247545,0.775000,1844575,1000,12,0,1,555.238,0.351,3.489,565.663,0.818,1.024
1782117399.248544,0.776000,1844576,1000,12,0,1,556.151,0.532,3.485,564.125,-0.198,1.011
1782117399.249544,0.777000,1844577,1000,12,0,1,557.111,0.436,3.480,565.278,0.073,1.011
1782117399.250545,0.778000,1844578,1000,12,0,1,556.655,-0.533,3.475,564.390,0.331,1.001
1782117399.251544,0.779000,1844579,1000,12,0,1,555.430,-2.394,3.486,563.621,-1.178,1.013
1782117399.252544,0.780000,1844580,1000,12,0,1,553.701,-4.053,3.532,564.846,0.339,1.008
1782117399.253544,0.781000,1844581,1000,12,0,1,554.950,-3.302,3.562,565.014,0.551,0.972
1782117399.254544,0.782000,1844582,1000,12,0,1,556.151,-1.453,3.566,566.047,1.031,0.981
1782117399.255544,0.783000,1844583,1000,12,0,1,559.393,0.946,3.559,566.480,1.548,1.005
1782117399.256544,0.784000,1844584,1000,12,0,1,562.228,3.920,3.580,564.222,-0.756,1.010
1782117399.257545,0.785000,1844585,1000,12,0,1,562.612,3.733,3.592,564.366,-1.196,1.024
1782117399.258544,0.786000,1844586,1000,12,0,1,562.060,2.721,3.612,562.636,-1.958,1.034
1782117399.259544,0.787000,1844587,1000,12,0,1,561.435,1.814,3.620,564.125,-1.507,1.039
1782117399.260545,0.788000,1844588,1000,12,0,1,561.507,1.468,3.626,565.663,0.872,1.046
1782117399.261544,0.789000,1844589,1000,12,0,1,560.330,0.586,3.624,565.110,-0.028,1.039
1782117399.262544,0.790000,1844590,1000,12,0,1,558.385,-1.505,3.627,566.191,0.637,1.016
1782117399.263544,0.791000,1844591,1000,12,0,1,557.664,-2.091,3.638,564.726,-0.125,1.016
1782117399.264544,0.792000,1844592,1000,12,0,1,559.922,-0.352,3.612,563.525,-1.874,1.050
1782117399.265544,0.793000,1844593,1000,12,0,1,562.228,1.829,3.610,563.285,-1.393,1.067
1782117399.266544,0.794000,1844594,1000,12,0,1,561.027,0.308,3.608,565.807,0.470,1.056
1782117399.267545,0.795000,1844595,1000,12,0,1,559.994,-1.657,3.616,564.990,0.899,1.063
1782117399.268544,0.796000,1844596,1000,12,0,1,557.352,-3.907,3.653,565.038,-0.129,1.062
1782117399.269544,0.797000,1844597,1000,12,0,1,559.778,-3.067,3.646,565.062,0.709,1.066
1782117399.270545,0.798000,1844598,1000,12,0,1,562.780,0.422,3.622,563.501,-0.917,1.066
1782117399.271544,0.799000,1844599,1000,12,0,1,565.447,1.558,3.537,563.429,-0.989,1.070
1782117399.272544,0.800000,1844600,1000,12,0,1,568.281,3.568,3.491,562.468,-1.196,1.083
1782117399.273545,0.801000,1844601,1000,12,0,1,566.792,1.641,3.498,565.471,0.711,1.025
1782117399.274544,0.802000,1844602,1000,12,0,1,563.861,-2.079,3.479,563.213,0.384,1.010
1782117399.275544,0.803000,1844603,1000,12,0,1,562.348,-3.408,3.442,563.717,-1.108,1.018
1782117399.276544,0.804000,1844604,1000,12,0,1,563.597,-2.328,3.268,563.981,0.719,1.002
1782117399.277544,0.805000,1844605,1000,12,0,1,563.477,-1.328,2.999,563.909,-0.410,0.998
1782117399.278544,0.806000,1844606,1000,12,0,1,563.813,-1.222,2.786,563.861,0.110,0.997
1782117399.279544,0.807000,1844607,1000,12,0,1,560.594,-2.633,2.800,562.276,-1.400,1.016
1782117399.280545,0.808000,1844608,1000,12,0,1,559.033,-4.384,2.647,563.861,-0.451,1.018
1782117399.281544,0.809000,1844609,1000,12,0,1,556.415,-4.730,2.438,563.669,0.411,1.014
1782117399.282544,0.810000,1844610,1000,12,0,1,553.821,-6.583,2.575,563.261,-0.781,1.020
1782117399.283545,0.811000,1844611,1000,12,0,1,556.439,-3.300,2.612,563.381,0.002,1.020
1782117399.284544,0.812000,1844612,1000,12,0,1,559.946,1.064,2.615,564.366,0.444,1.022
1782117399.285544,0.813000,1844613,1000,12,0,1,560.835,1.894,2.587,564.990,1.463,1.020
1782117399.286544,0.814000,1844614,1000,12,0,1,560.594,1.381,2.558,562.780,-0.492,0.997
1782117399.287544,0.815000,1844615,1000,12,0,1,559.393,-0.178,2.554,563.021,-0.726,0.984
1782117399.288544,0.816000,1844616,1000,12,0,1,560.066,-0.231,2.551,564.198,0.969,0.970
1782117399.289544,0.817000,1844617,1000,12,0,1,559.586,-0.585,2.551,564.750,1.277,0.976
1782117399.290545,0.818000,1844618,1000,12,0,1,559.634,-1.259,2.547,563.261,0.293,0.936
1782117399.291544,0.819000,1844619,1000,12,0,1,558.577,-1.873,2.523,565.014,0.990,0.918
1782117399.292544,0.820000,1844620,1000,12,0,1,556.895,-3.530,2.533,563.645,0.894,0.919
1782117399.293545,0.821000,1844621,1000,12,0,1,561.123,-0.106,2.484,562.612,-1.143,0.907
1782117399.294544,0.822000,1844622,1000,12,0,1,564.390,3.910,2.506,563.837,0.434,0.905
1782117399.295544,0.823000,1844623,1000,12,0,1,566.480,4.778,2.567,563.477,0.216,0.903
1782117399.296544,0.824000,1844624,1000,12,0,1,567.753,5.861,2.682,565.399,1.239,0.914
1782117399.297544,0.825000,1844625,1000,12,0,1,567.032,4.472,2.755,565.278,1.768,0.940
1782117399.298544,0.826000,1844626,1000,12,0,1,564.077,1.674,2.764,563.549,-0.671,0.945
1782117399.299544,0.827000,1844627,1000,12,0,1,562.300,-0.328,2.763,563.717,-0.527,0.948
1782117399.300545,0.828000,1844628,1000,12,0,1,560.859,-0.965,2.766,564.702,0.244,0.947
1782117399.301544,0.829000,1844629,1000,12,0,1,560.306,-1.224,2.750,565.855,1.204,0.948
1782117399.302544,0.830000,1844630,1000,12,0,1,560.354,-0.577,2.691,564.942,0.433,0.949
1782117399.303545,0.831000,1844631,1000,12,0,1,558.673,-1.480,2.659,565.399,0.161,0.946
1782117399.304544,0.832000,1844632,1000,12,0,1,556.583,-3.223,2.690,565.278,0.484,0.937
1782117399.305544,0.833000,1844633,1000,12,0,1,553.580,-5.067,2.780,565.591,0.198,0.911
1782117399.306545,0.834000,1844634,1000,12,0,1,552.475,-5.901,2.849,565.110,0.170,0.905
1782117399.307544,0.835000,1844635,1000,12,0,1,546.302,-9.265,3.091,563.909,-1.130,0.904
1782117399.308544,0.836000,1844636,1000,12,0,1,542.050,-13.052,3.580,564.918,-0.296,0.861
1782117399.309544,0.837000,1844637,1000,12,0,1,541.306,-11.149,3.903,564.486,-0.057,0.834
1782117399.310544,0.838000,1844638,1000,12,0,1,540.849,-9.775,4.136,565.302,0.070,0.825
1782117399.311544,0.839000,1844639,1000,12,0,1,537.967,-9.951,4.368,565.158,0.631,0.830
1782117399.312544,0.840000,1844640,1000,12,0,1,534.388,-11.271,4.645,565.879,0.516,0.829
1782117399.313545,0.841000,1844641,1000,12,0,1,535.205,-8.644,4.794,564.702,0.125,0.829
1782117399.314544,0.842000,1844642,1000,12,0,1,546.086,2.451,4.806,564.318,-1.019,0.798
1782117399.315544,0.843000,1844643,1000,12,0,1,562.900,18.142,5.442,564.678,-0.255,0.774
1782117399.316545,0.844000,1844644,1000,12,0,1,570.059,24.363,6.441,565.110,-0.105,0.772
1782117399.317544,0.845000,1844645,1000,12,0,1,561.555,14.379,6.750,564.174,-0.728,0.768
1782117399.318544,0.846000,1844646,1000,12,0,1,549.305,1.000,6.729,563.765,-1.366,0.792
1782117399.319544,0.847000,1844647,1000,12,0,1,548.608,-0.944,6.716,565.158,-0.136,0.785
1782117399.320544,0.848000,1844648,1000,12,0,1,555.934,6.733,6.783,565.302,0.346,0.776
1782117399.321544,0.849000,1844649,1000,12,0,1,571.284,18.966,7.291,565.567,0.057,0.764
1782117399.322544,0.850000,1844650,1000,12,0,1,572.965,21.318,7.873,564.990,-0.086,0.745
1782117399.323545,0.851000,1844651,1000,12,0,1,567.825,11.799,8.045,564.005,-1.298,0.760
1782117399.324544,0.852000,1844652,1000,12,0,1,566.744,8.889,8.137,564.606,-0.617,0.763
1782117399.325544,0.853000,1844653,1000,12,0,1,567.584,7.576,8.193,565.711,0.520,0.751
1782117399.326545,0.854000,1844654,1000,12,0,1,568.785,6.853,8.244,565.687,0.653,0.750
1782117399.327544,0.855000,1844655,1000,12,0,1,567.993,4.692,8.268,566.840,1.292,0.769
1782117399.328544,0.856000,1844656,1000,12,0,1,568.665,2.789,8.276,565.495,0.602,0.774
1782117399.329545,0.857000,1844657,1000,12,0,1,569.842,2.784,8.277,564.053,-1.267,0.769
1782117399.330544,0.858000,1844658,1000,12,0,1,568.954,0.144,8.254,565.278,-0.014,0.767
1782117399.331544,0.859000,1844659,1000,12,0,1,567.801,-2.193,8.232,564.654,-0.028,0.764
1782117399.332544,0.860000,1844660,1000,12,0,1,569.290,-2.391,8.187,564.582,-0.560,0.761
1782117399.333544,0.861000,1844661,1000,12,0,1,567.945,-3.596,8.189,565.711,0.777,0.768
1782117399.334544,0.862000,1844662,1000,12,0,1,566.407,-6.276,8.236,565.230,0.357,0.768
1782117399.335544,0.863000,1844663,1000,12,0,1,563.501,-8.203,8.313,565.230,0.037,0.739
1782117399.336545,0.864000,1844664,1000,12,0,1,562.372,-9.468,8.418,563.933,-0.806,0.745
1782117399.337544,0.865000,1844665,1000,12,0,1,559.369,-10.281,8.542,564.990,-0.510,0.741
1782117399.338544,0.866000,1844666,1000,12,0,1,562.468,-7.717,8.612,564.750,0.062,0.728
1782117399.339545,0.867000,1844667,1000,12,0,1,572.124,2.300,8.617,566.071,0.329,0.707
1782117399.340544,0.868000,1844668,1000,12,0,1,579.883,9.362,8.717,564.942,0.186,0.706
1782117399.341544,0.869000,1844669,1000,12,0,1,582.237,10.252,8.832,563.669,-1.778,0.737
1782117399.342544,0.870000,1844670,1000,12,0,1,579.715,6.456,8.865,566.239,0.564,0.730
1782117399.343544,0.871000,1844671,1000,12,0,1,576.328,1.541,8.868,567.416,2.056,0.769
1782117399.344544,0.872000,1844672,1000,12,0,1,576.160,0.413,8.851,566.912,1.027,0.780
1782117399.345544,0.873000,1844673,1000,12,0,1,577.985,1.374,8.827,563.789,-1.373,0.803
1782117399.346545,0.874000,1844674,1000,12,0,1,576.640,0.091,8.788,565.254,-1.133,0.800
1782117399.347544,0.875000,1844675,1000,12,0,1,578.706,0.144,8.766,565.615,0.674,0.766
1782117399.348544,0.876000,1844676,1000,12,0,1,580.892,2.268,8.768,566.071,0.130,0.760
1782117399.349545,0.877000,1844677,1000,12,0,1,583.198,2.506,8.775,564.077,-0.580,0.761
1782117399.350544,0.878000,1844678,1000,12,0,1,582.741,1.632,8.777,564.149,-1.430,0.787
1782117399.351544,0.879000,1844679,1000,12,0,1,584.087,0.585,8.776,564.101,-0.391,0.770
1782117399.352545,0.880000,1844680,1000,12,0,1,586.176,1.809,8.779,565.014,-0.038,0.768
1782117399.353544,0.881000,1844681,1000,12,0,1,585.888,0.263,8.777,565.519,0.913,0.778
1782117399.354544,0.882000,1844682,1000,12,0,1,586.681,-0.579,8.765,564.606,-0.013,0.775
1782117399.355544,0.883000,1844683,1000,12,0,1,585.120,-2.150,8.741,564.654,-0.296,0.776
1782117399.356544,0.884000,1844684,1000,12,0,1,583.798,-4.656,8.726,564.942,0.267,0.776
1782117399.357544,0.885000,1844685,1000,12,0,1,584.375,-3.946,8.645,566.143,0.820,0.769
1782117399.358544,0.886000,1844686,1000,12,0,1,583.750,-4.439,8.469,564.798,0.202,0.768
1782117399.359545,0.887000,1844687,1000,12,0,1,581.613,-5.963,8.364,565.447,-0.347,0.769
1782117399.360544,0.888000,1844688,1000,12,0,1,579.787,-7.179,8.311,567.104,1.709,0.806
1782117399.361544,0.889000,1844689,1000,12,0,1,580.363,-5.957,8.234,569.266,2.800,0.894
1782117399.362545,0.890000,1844690,1000,12,0,1,579.162,-5.577,8.117,566.504,0.887,0.900
1782117399.363544,0.891000,1844691,1000,12,0,1,577.985,-6.188,8.072,566.960,-0.407,0.901
1782117399.364544,0.892000,1844692,1000,12,0,1,581.132,-2.711,8.074,568.641,1.912,0.930
1782117399.365544,0.893000,1844693,1000,12,0,1,584.495,1.139,7.657,569.026,1.608,0.957
1782117399.366544,0.894000,1844694,1000,12,0,1,582.717,-0.110,6.838,563.717,-2.460,1.018
1782117399.367544,0.895000,1844695,1000,12,0,1,577.769,-4.727,6.563,564.101,-3.469,1.125
1782117399.368544,0.896000,1844696,1000,12,0,1,573.926,-7.871,6.655,564.366,-1.311,1.124
1782117399.369545,0.897000,1844697,1000,12,0,1,576.472,-5.299,6.696,564.198,-1.879,1.155
1782117399.370544,0.898000,1844698,1000,12,0,1,580.436,-0.442,6.628,564.101,-1.156,1.165
1782117399.371544,0.899000,1844699,1000,12,0,1,582.141,1.108,6.063,564.822,-0.480,1.167
1782117399.372545,0.900000,1844700,1000,12,0,1,584.759,2.829,5.275,566.071,0.810,1.173
1782117399.373544,0.901000,1844701,1000,12,0,1,585.432,3.310,5.026,564.870,0.187,1.159
1782117399.374544,0.902000,1844702,1000,12,0,1,582.573,0.070,4.867,565.182,-0.367,1.156
1782117399.375545,0.903000,1844703,1000,12,0,1,579.090,-3.324,4.770,563.909,-0.537,1.157
1782117399.376544,0.904000,1844704,1000,12,0,1,578.874,-3.568,4.698,566.720,0.573,1.156
1782117399.377544,0.905000,1844705,1000,12,0,1,578.466,-2.757,4.667,566.455,1.828,1.170
1782117399.378544,0.906000,1844706,1000,12,0,1,577.385,-3.255,4.673,565.278,-0.730,1.172
1782117399.379544,0.907000,1844707,1000,12,0,1,577.169,-2.555,4.671,565.038,-0.405,1.159
1782117399.380544,0.908000,1844708,1000,12,0,1,579.018,-0.306,4.671,564.894,-0.860,1.166
1782117399.381544,0.909000,1844709,1000,12,0,1,578.274,0.260,4.661,566.311,0.359,1.167
1782117399.382545,0.910000,1844710,1000,12,0,1,576.640,-1.118,4.651,566.960,1.218,1.177
1782117399.383544,0.911000,1844711,1000,12,0,1,578.370,0.743,4.625,566.287,0.271,1.172
1782117399.384544,0.912000,1844712,1000,12,0,1,578.610,1.889,4.546,566.960,0.738,1.176
1782117399.385545,0.913000,1844713,1000,12,0,1,577.217,0.433,4.396,566.311,0.355,1.177
1782117399.386544,0.914000,1844714,1000,12,0,1,578.298,1.302,4.191,566.816,0.415,1.173
1782117399.387544,0.915000,1844715,1000,12,0,1,578.081,1.499,3.937,567.152,1.034,1.180
1782117399.388544,0.916000,1844716,1000,12,0,1,579.331,1.809,3.791,565.855,-0.141,1.180
1782117399.389544,0.917000,1844717,1000,12,0,1,579.403,2.180,3.790,565.062,-0.971,1.187
1782117399.390544,0.918000,1844718,1000,12,0,1,580.291,1.862,3.561,563.405,-1.877,1.216
1782117399.391544,0.919000,1844719,1000,12,0,1,583.558,4.321,3.309,564.654,-1.135,1.200
1782117399.392545,0.920000,1844720,1000,12,0,1,582.597,3.285,3.215,565.951,0.934,1.205
1782117399.393544,0.921000,1844721,1000,12,0,1,583.054,1.923,3.219,564.822,-0.228,1.170
1782117399.394544,0.922000,1844722,1000,12,0,1,583.174,2.243,3.234,564.942,-0.353,1.162
1782117399.395545,0.923000,1844723,1000,12,0,1,584.039,1.722,3.237,563.261,-1.304,1.160
1782117399.396544,0.924000,1844724,1000,12,0,1,585.432,2.953,3.264,564.390,-1.061,1.159
1782117399.397544,0.925000,1844725,1000,12,0,1,588.915,4.883,3.336,563.861,-0.400,1.156
1782117399.398545,0.926000,1844726,1000,12,0,1,587.690,4.115,3.371,565.447,-0.090,1.156
1782117399.399544,0.927000,1844727,1000,12,0,1,584.327,-0.249,3.353,565.519,0.991,1.162
1782117399.400544,0.928000,1844728,1000,12,0,1,584.327,-0.536,3.346,564.174,-0.960,1.152
1782117399.401544,0.929000,1844729,1000,12,0,1,585.576,0.820,3.347,563.141,-1.576,1.172
1782117399.402544,0.930000,1844730,1000,12,0,1,583.102,-1.030,3.340,563.765,-1.083,1.182
1782117399.403544,0.931000,1844731,1000,12,0,1,584.567,-0.594,3.341,563.957,-0.390,1.176
1782117399.404544,0.932000,1844732,1000,12,0,1,583.894,-0.003,3.340,563.621,-0.548,1.179
1782117399.405545,0.933000,1844733,1000,12,0,1,581.877,-2.522,3.345,564.318,0.097,1.178
1782117399.406544,0.934000,1844734,1000,12,0,1,583.678,-1.004,3.283,565.999,1.857,1.207
1782117399.407544,0.935000,1844735,1000,12,0,1,583.894,-0.233,3.235,566.624,2.394,1.248
1782117399.408545,0.936000,1844736,1000,12,0,1,585.528,0.099,3.173,565.399,1.310,1.261
1782117399.409544,0.937000,1844737,1000,12,0,1,588.026,2.420,3.078,565.062,0.519,1.262
1782117399.410544,0.938000,1844738,1000,12,0,1,587.930,1.456,2.914,565.038,0.803,1.244
1782117399.411544,0.939000,1844739,1000,12,0,1,589.659,1.767,2.800,563.861,-0.290,1.180
1782117399.412544,0.940000,1844740,1000,12,0,1,585.816,-1.321,2.693,564.366,-0.022,1.174
1782117399.413544,0.941000,1844741,1000,12,0,1,587.858,-1.892,2.561,565.327,1.084,1.182
1782117399.414544,0.942000,1844742,1000,12,0,1,588.482,0.322,2.533,565.951,1.400,1.168
1782117399.415545,0.943000,1844743,1000,12,0,1,585.888,-3.180,2.567,566.335,1.540,1.166
1782117399.416544,0.944000,1844744,1000,12,0,1,585.768,-3.072,2.604,564.246,-0.345,1.114
1782117399.417544,0.945000,1844745,1000,12,0,1,584.015,-3.766,2.572,565.110,-0.474,1.002
1782117399.418545,0.946000,1844746,1000,12,0,1,585.648,-2.688,2.350,567.032,1.667,1.013
1782117399.419544,0.947000,1844747,1000,12,0,1,584.447,-1.753,2.241,565.759,0.323,0.978
1782117399.420544,0.948000,1844748,1000,12,0,1,581.925,-4.382,2.324,564.774,-1.094,0.977
1782117399.421544,0.949000,1844749,1000,12,0,1,583.846,-1.751,2.332,566.359,0.186,0.975
1782117399.422544,0.950000,1844750,1000,12,0,1,585.768,0.815,2.300,565.302,-0.284,0.969
1782117399.423544,0.951000,1844751,1000,12,0,1,583.438,-0.586,2.254,563.261,-2.464,1.029
1782117399.424544,0.952000,1844752,1000,12,0,1,583.558,-1.039,2.259,564.222,-1.526,1.050
1782117399.425545,0.953000,1844753,1000,12,0,1,582.597,-0.769,2.212,565.639,0.297,1.049
1782117399.426544,0.954000,1844754,1000,12,0,1,582.309,-1.535,2.164,564.005,-0.802,1.052
1782117399.427544,0.955000,1844755,1000,12,0,1,582.862,-0.480,2.130,564.149,-1.028,1.030
1782117399.428545,0.956000,1844756,1000,12,0,1,585.480,1.367,2.089,563.093,-1.027,1.035
1782117399.429544,0.957000,1844757,1000,12,0,1,587.810,3.446,2.114,564.918,-0.034,1.033
1782117399.430544,0.958000,1844758,1000,12,0,1,586.417,1.767,2.128,564.510,0.852,1.033
1782117399.431545,0.959000,1844759,1000,12,0,1,585.360,-0.310,2.129,563.957,-0.444,1.034
1782117399.432544,0.960000,1844760,1000,12,0,1,587.426,1.173,2.129,565.855,1.484,1.040
1782117399.433544,0.961000,1844761,1000,12,0,1,589.659,2.804,2.163,565.423,1.364,1.058
1782117399.434544,0.962000,1844762,1000,12,0,1,592.638,4.631,2.244,563.573,-0.767,1.058
1782117399.435544,0.963000,1844763,1000,12,0,1,592.374,4.077,2.316,564.990,0.228,1.057
1782117399.436544,0.964000,1844764,1000,12,0,1,590.092,0.982,2.313,565.927,1.341,1.073
1782117399.437544,0.965000,1844765,1000,12,0,1,589.924,0.268,2.304,563.909,-0.519,1.065
1782117399.438545,0.966000,1844766,1000,12,0,1,588.939,-0.241,2.290,566.167,0.482,1.067
1782117399.439544,0.967000,1844767,1000,12,0,1,587.426,-1.729,2.282,563.117,-0.692,1.063
1782117399.440544,0.968000,1844768,1000,12,0,1,586.465,-2.054,2.285,565.206,-1.030,1.039
1782117399.441545,0.969000,1844769,1000,12,0,1,582.814,-4.383,2.288,567.008,2.461,1.084
1782117399.442544,0.970000,1844770,1000,12,0,1,585.192,-2.641,2.271,564.198,-0.924,1.084
1782117399.443544,0.971000,1844771,1000,12,0,1,585.840,0.038,2.255,563.861,-1.435,1.102
1782117399.444544,0.972000,1844772,1000,12,0,1,585.504,-0.961,2.236,565.639,0.482,1.103
1782117399.445544,0.973000,1844773,1000,12,0,1,587.522,1.216,2.230,565.927,0.871,1.095
1782117399.446544,0.974000,1844774,1000,12,0,1,588.002,1.645,2.203,566.143,0.952,1.093
1782117399.447544,0.975000,1844775,1000,12,0,1,588.482,1.281,2.099,562.876,-1.537,1.113
1782117399.448545,0.976000,1844776,1000,12,0,1,588.530,1.126,2.023,565.062,-0.569,1.116
1782117399.449544,0.977000,1844777,1000,12,0,1,587.618,-0.463,2.024,565.158,1.087,1.117
1782117399.450544,0.978000,1844778,1000,12,0,1,589.611,0.561,2.024,562.228,-2.091,1.148
1782117399.451545,0.979000,1844779,1000,12,0,1,591.365,1.932,2.039,564.462,-0.364,1.127
1782117399.452544,0.980000,1844780,1000,12,0,1,587.738,-1.442,2.044,565.735,1.786,1.145
1782117399.453544,0.981000,1844781,1000,12,0,1,585.960,-4.119,2.124,565.711,0.988,1.152
1782117399.454545,0.982000,1844782,1000,12,0,1,585.336,-3.719,2.188,564.846,0.540,1.152
1782117399.455544,0.983000,1844783,1000,12,0,1,584.351,-4.321,2.244,565.062,-0.035,1.152
1782117399.456544,0.984000,1844784,1000,12,0,1,583.006,-4.458,2.326,564.582,0.023,1.122
1782117399.457544,0.985000,1844785,1000,12,0,1,580.676,-5.493,2.452,563.117,-1.645,1.094
1782117399.458544,0.986000,1844786,1000,12,0,1,580.964,-4.388,2.530,563.957,-0.969,1.087
1782117399.459544,0.987000,1844787,1000,12,0,1,578.922,-4.052,2.571,564.101,-0.346,1.086
1782117399.460544,0.988000,1844788,1000,12,0,1,577.841,-4.534,2.642,562.516,-1.788,1.109
1782117399.461545,0.989000,1844789,1000,12,0,1,577.913,-2.567,2.655,562.180,-2.006,1.144
1782117399.462544,0.990000,1844790,1000,12,0,1,577.241,-2.174,2.666,564.606,0.249,1.145
1782117399.463544,0.991000,1844791,1000,12,0,1,578.442,-0.340,2.653,564.486,0.898,1.141
1782117399.464545,0.992000,1844792,1000,12,0,1,576.712,-0.500,2.654,563.621,-0.392,1.125
1782117399.465544,0.993000,1844793,1000,12,0,1,576.760,-0.865,2.618,564.582,0.621,1.108
1782117399.466544,0.994000,1844794,1000,12,0,1,575.031,-0.882,2.585,564.582,0.863,1.113
1782117399.467544,0.995000,1844795,1000,12,0,1,572.148,-3.626,2.581,564.558,0.608,1.115
1782117399.468544,0.996000,1844796,1000,12,0,1,573.109,-2.209,2.572,565.278,1.306,1.105
1782117399.469544,0.997000,1844797,1000,12,0,1,573.253,-0.982,2.564,563.813,0.214,1.104
1782117399.470544,0.998000,1844798,1000,12,0,1,572.605,-1.427,2.496,562.132,-1.505,1.114
1782117399.471545,0.999000,1844799,1000,12,0,1,572.196,-1.107,2.488,564.366,0.345,1.115
1782117399.472544,1.000000,1844800,1000,12,0,1,575.511,1.622,2.496,563.501,0.570,1.117
1782117399.473544,1.001000,1844801,1000,12,0,1,581.877,7.590,2.716,563.309,-0.535,1.064
1782117399.474545,1.002000,1844802,1000,12,0,1,594.464,16.956,3.620,564.822,1.289,1.058
1782117399.475544,1.003000,1844803,1000,12,0,1,599.700,21.220,4.701,563.669,0.296,1.058
1782117399.476544,1.004000,1844804,1000,12,0,1,596.698,14.746,5.138,562.660,-1.016,1.061
1782117399.477545,1.005000,1844805,1000,12,0,1,590.452,7.022,5.233,563.453,-0.219,1.052
1782117399.478544,1.006000,1844806,1000,12,0,1,586.176,1.188,5.232,562.492,-0.754,1.047
1782117399.479544,1.007000,1844807,1000,12,0,1,585.576,0.245,5.209,563.453,-0.382,1.048
1782117399.480544,1.008000,1844808,1000,12,0,1,583.150,-1.287,5.206,565.182,1.524,1.064
1782117399.481544,1.009000,1844809,1000,12,0,1,581.685,-2.961,5.223,564.630,0.952,1.070
1782117399.482544,1.010000,1844810,1000,12,0,1,579.979,-3.219,5.240,563.069,-0.701,1.054
1782117399.483544,1.011000,1844811,1000,12,0,1,580.003,-3.306,5.246,561.723,-1.796,1.067
1782117399.484545,1.012000,1844812,1000,12,0,1,581.733,-0.822,5.206,564.870,0.585,1.065
1782117399.485544,1.013000,1844813,1000,12,0,1,585.720,2.281,5.184,563.069,0.464,1.066
1782117399.486544,1.014000,1844814,1000,12,0,1,589.299,5.344,5.237,564.870,0.278,1.050
1782117399.487545,1.015000,1844815,1000,12,0,1,592.566,6.607,5.320,564.414,1.641,1.073
1782117399.488544,1.016000,1844816,1000,12,0,1,591.773,4.855,5.364,563.861,-0.268,1.071
1782117399.489544,1.017000,1844817,1000,12,0,1,589.491,0.644,5.359,565.110,1.439,1.086
1782117399.490544,1.018000,1844818,1000,12,0,1,587.498,-2.157,5.360,564.990,1.204,1.090
1782117399.491544,1.019000,1844819,1000,12,0,1,592.974,0.819,5.325,564.798,0.677,1.037
1782117399.492544,1.020000,1844820,1000,12,0,1,595.040,3.234,5.332,565.687,1.417,1.048
1782117399.493544,1.021000,1844821,1000,12,0,1,595.088,1.037,5.334,564.318,0.187,1.028
1782117399.494545,1.022000,1844822,1000,12,0,1,598.187,2.803,5.347,565.206,0.332,1.027
1782117399.495544,1.023000,1844823,1000,12,0,1,600.709,4.238,5.378,563.573,-0.460,1.022
1782117399.496544,1.024000,1844824,1000,12,0,1,596.938,0.322,5.373,562.948,-1.798,1.044
1782117399.497545,1.025000,1844825,1000,12,0,1,594.295,-3.314,5.390,563.357,-0.892,1.029
1782117399.498544,1.026000,1844826,1000,12,0,1,589.251,-6.626,5.469,562.396,-1.591,1.051
1782117399.499544,1.027000,1844827,1000,12,0,1,588.651,-7.482,5.570,561.555,-2.327,1.090
1782117399.500545,1.028000,1844828,1000,12,0,1,590.860,-3.562,5.592,564.510,0.242,1.050
1782117399.501544,1.029000,1844829,1000,12,0,1,590.860,-2.593,5.597,564.510,1.036,1.059
1782117399.502544,1.030000,1844830,1000,12,0,1,592.494,-1.036,5.595,565.495,0.925,1.036
1782117399.503544,1.031000,1844831,1000,12,0,1,592.230,-0.187,5.565,565.182,1.211,1.041
1782117399.504544,1.032000,1844832,1000,12,0,1,590.452,-2.279,5.549,564.630,-0.004,1.038
1782117399.505544,1.033000,1844833,1000,12,0,1,594.175,0.619,5.516,564.918,0.351,1.040
1782117399.506544,1.034000,1844834,1000,12,0,1,599.292,5.013,5.526,563.909,-0.394,1.041
1782117399.507545,1.035000,1844835,1000,12,0,1,602.318,6.462,5.547,562.276,-1.930,1.051
1782117399.508544,1.036000,1844836,1000,12,0,1,606.738,8.058,5.629,563.813,-0.549,1.045
1782117399.509544,1.037000,1844837,1000,12,0,1,608.684,8.147,5.717,564.029,0.354,1.045
1782117399.510545,1.038000,1844838,1000,12,0,1,607.699,4.542,5.717,563.453,-0.361,1.015
1782117399.511544,1.039000,1844839,1000,12,0,1,607.699,2.333,5.715,562.564,-0.854,0.982
1782117399.512544,1.040000,1844840,1000,12,0,1,605.561,-0.697,5.707,563.693,-0.041,0.981
1782117399.513544,1.041000,1844841,1000,12,0,1,604.672,-3.097,5.724,564.966,1.468,0.995
1782117399.514544,1.042000,1844842,1000,12,0,1,604.480,-3.223,5.742,565.086,1.403,1.013
1782117399.515544,1.043000,1844843,1000,12,0,1,604.744,-3.376,5.760,564.966,0.993,1.019
1782117399.516544,1.044000,1844844,1000,12,0,1,604.913,-2.790,5.772,562.780,-0.774,1.018
1782117399.517545,1.045000,1844845,1000,12,0,1,604.168,-3.165,5.767,563.981,-0.586,1.017
1782117399.518544,1.046000,1844846,1000,12,0,1,605.345,-1.989,5.765,565.495,1.533,1.024
1782117399.519544,1.047000,1844847,1000,12,0,1,605.657,-0.822,5.765,566.239,1.490,1.045
1782117399.520545,1.048000,1844848,1000,12,0,1,603.495,-2.519,5.772,564.702,0.373,1.024
1782117399.521544,1.049000,1844849,1000,12,0,1,603.880,-2.207,5.779,564.318,-0.812,1.029
1782117399.522544,1.050000,1844850,1000,12,0,1,601.069,-3.427,5.794,565.110,0.195,1.027
1782117399.523545,1.051000,1844851,1000,12,0,1,600.541,-4.584,5.731,565.062,0.092,1.024
1782117399.524544,1.052000,1844852,1000,12,0,1,608.948,2.848,5.221,563.501,-1.217,1.022
1782117399.525544,1.053000,1844853,1000,12,0,1,613.392,7.348,4.396,563.189,-1.619,1.047
1782117399.526544,1.054000,1844854,1000,12,0,1,615.434,6.549,3.980,563.717,-0.785,1.043
1782117399.527544,1.055000,1844855,1000,12,0,1,613.992,4.242,3.900,563.861,-0.379,1.044
1782117399.528544,1.056000,1844856,1000,12,0,1,606.738,-3.990,3.937,566.071,1.295,1.054
1782117399.529544,1.057000,1844857,1000,12,0,1,600.853,-10.287,4.197,565.423,1.445,1.072
1782117399.530545,1.058000,1844858,1000,12,0,1,611.302,-2.498,4.208,564.486,-0.273,1.051
1782117399.531544,1.059000,1844859,1000,12,0,1,628.044,13.093,4.578,564.198,-0.112,1.043
1782117399.532544,1.060000,1844860,1000,12,0,1,630.230,14.038,4.969,563.213,-1.075,1.049
1782117399.533545,1.061000,1844861,1000,12,0,1,627.996,7.638,5.064,565.423,0.590,1.021
1782117399.534544,1.062000,1844862,1000,12,0,1,628.981,6.421,5.143,565.254,1.210,1.032
1782117399.535544,1.063000,1844863,1000,12,0,1,627.612,3.563,5.158,564.342,-0.431,1.032
1782117399.536544,1.064000,1844864,1000,12,0,1,622.328,-2.134,5.111,563.789,-0.581,1.034
1782117399.537544,1.065000,1844865,1000,12,0,1,616.563,-7.759,5.143,564.678,-0.221,1.009
1782117399.538544,1.066000,1844866,1000,12,0,1,614.761,-8.891,5.250,562.948,-1.017,1.018
1782117399.539544,1.067000,1844867,1000,12,0,1,620.118,-3.414,5.272,561.027,-3.184,1.094
1782117399.540545,1.068000,1844868,1000,12,0,1,626.843,3.658,5.288,564.270,-0.283,1.082
1782117399.541544,1.069000,1844869,1000,12,0,1,628.837,5.249,5.339,564.726,1.208,1.091
1782117399.542544,1.070000,1844870,1000,12,0,1,627.516,2.871,5.335,563.909,-0.335,1.074
1782117399.543545,1.071000,1844871,1000,12,0,1,623.697,-1.348,5.336,562.636,-0.904,1.081
1782117399.544544,1.072000,1844872,1000,12,0,1,628.381,0.515,5.322,563.429,-0.738,1.085
1782117399.545544,1.073000,1844873,1000,12,0,1,633.761,5.587,5.347,564.149,0.661,1.087
1782117399.546544,1.074000,1844874,1000,12,0,1,639.406,7.531,5.451,564.149,0.384,1.058
1782117399.547544,1.075000,1844875,1000,12,0,1,644.859,10.325,5.624,563.669,0.167,1.051
1782117399.548544,1.076000,1844876,1000,12,0,1,646.492,8.521,5.675,563.765,0.106,1.027
1782117399.549544,1.077000,1844877,1000,12,0,1,646.300,4.931,5.619,564.270,0.671,0.977
1782117399.550545,1.078000,1844878,1000,12,0,1,642.145,-0.908,5.598,564.198,0.701,0.981
1782117399.551544,1.079000,1844879,1000,12,0,1,638.181,-6.928,5.671,563.261,-0.182,0.971
1782117399.552544,1.080000,1844880,1000,12,0,1,630.254,-13.294,5.973,562.252,-0.979,0.972
1782117399.553545,1.081000,1844881,1000,12,0,1,627.444,-16.682,6.422,562.156,-1.034,0.968
1782117399.554544,1.082000,1844882,1000,12,0,1,627.324,-13.790,6.704,564.582,1.140,0.981
1782117399.555544,1.083000,1844883,1000,12,0,1,627.396,-12.375,6.928,566.023,2.682,1.051
1782117399.556545,1.084000,1844884,1000,12,0,1,631.888,-6.652,6.955,561.795,-0.899,1.057
1782117399.557544,1.085000,1844885,1000,12,0,1,647.213,7.034,6.966,563.741,-0.707,1.026
1782117399.558544,1.086000,1844886,1000,12,0,1,645.868,8.775,6.984,563.549,0.913,1.031
1782117399.559544,1.087000,1844887,1000,12,0,1,648.054,5.476,6.931,562.636,-1.211,1.044
1782117399.560544,1.088000,1844888,1000,12,0,1,647.862,7.132,6.975,560.378,-2.099,1.084
1782117399.561544,1.089000,1844889,1000,12,0,1,652.690,6.932,7.036,562.492,-1.222,1.091
1782117399.562544,1.090000,1844890,1000,12,0,1,656.077,10.297,7.184,562.636,0.476,1.093
1782117399.563545,1.091000,1844891,1000,12,0,1,655.476,6.450,7.228,563.741,0.409,1.075
1782117399.564544,1.092000,1844892,1000,12,0,1,654.611,3.462,7.231,565.351,2.383,1.109
1782117399.565544,1.093000,1844893,1000,12,0,1,654.491,1.461,7.218,565.423,2.092,1.139
1782117399.566545,1.094000,1844894,1000,12,0,1,655.764,0.312,7.207,563.621,0.266,1.134
1782117399.567544,1.095000,1844895,1000,12,0,1,657.109,0.529,7.194,563.717,-0.036,1.131
1782117399.568544,1.096000,1844896,1000,12,0,1,658.431,-0.552,7.189,564.342,0.648,1.114
1782117399.569544,1.097000,1844897,1000,12,0,1,659.512,-0.459,7.188,564.390,0.745,1.099
1782117399.570544,1.098000,1844898,1000,12,0,1,660.448,-1.517,7.182,563.573,-0.119,1.098
1782117399.571544,1.099000,1844899,1000,12,0,1,664.124,0.566,7.176,561.892,-1.372,1.109
1782117399.572544,1.100000,1844900,1000,12,0,1,665.805,1.133,7.161,562.804,-0.944,1.117
1782117399.573545,1.101000,1844901,1000,12,0,1,669.240,2.202,7.139,561.988,-0.606,1.120
1782117399.574544,1.102000,1844902,1000,12,0,1,669.552,2.032,7.133,562.228,-1.084,1.117
1782117399.575544,1.103000,1844903,1000,12,0,1,666.502,-2.283,7.065,562.060,-0.308,1.094
1782117399.576545,1.104000,1844904,1000,12,0,1,667.270,-2.742,7.014,563.501,0.320,1.090
1782117399.577544,1.105000,1844905,1000,12,0,1,670.417,-0.095,6.989,564.149,1.532,1.110
1782117399.578544,1.106000,1844906,1000,12,0,1,676.254,3.862,6.987,562.492,-0.288,1.095
1782117399.579545,1.107000,1844907,1000,12,0,1,675.461,3.303,6.850,563.189,-0.142,1.076
1782117399.580544,1.108000,1844908,1000,12,0,1,673.684,-0.922,6.842,562.252,-0.274,1.076
1782117399.581544,1.109000,1844909,1000,12,0,1,672.603,-2.118,6.594,563.357,-0.234,1.077
1782117399.582544,1.110000,1844910,1000,12,0,1,672.723,-3.356,6.305,563.429,0.773,1.071
1782117399.583544,1.111000,1844911,1000,12,0,1,673.203,-3.172,6.228,562.540,-0.712,1.073
1782117399.584544,1.112000,1844912,1000,12,0,1,678.248,-0.250,6.162,561.771,-0.981,1.068
1782117399.585544,1.113000,1844913,1000,12,0,1,679.329,0.819,6.142,563.645,0.258,1.067
1782117399.586545,1.114000,1844914,1000,12,0,1,675.173,-4.571,6.169,561.627,-0.427,1.066
1782117399.587544,1.115000,1844915,1000,12,0,1,672.483,-8.074,6.177,563.309,-0.241,1.066
1782117399.588544,1.116000,1844916,1000,12,0,1,675.341,-6.070,6.108,562.156,0.392,1.057
1782117399.589545,1.117000,1844917,1000,12,0,1,675.413,-5.328,6.136,562.972,-0.264,0.957
1782117399.590544,1.118000,1844918,1000,12,0,1,673.396,-7.652,6.209,562.036,0.285,0.957
1782117399.591544,1.119000,1844919,1000,12,0,1,675.870,-5.786,6.218,561.675,-0.894,0.951
1782117399.592544,1.120000,1844920,1000,12,0,1,680.241,-1.338,6.208,562.684,0.548,0.953
1782117399.593544,1.121000,1844921,1000,12,0,1,683.364,1.021,6.207,561.147,-0.433,0.946
1782117399.594544,1.122000,1844922,1000,12,0,1,679.209,-2.168,6.214,560.955,-1.167,0.955
1782117399.595544,1.123000,1844923,1000,12,0,1,675.029,-7.109,6.245,564.342,2.184,0.999
1782117399.596545,1.124000,1844924,1000,12,0,1,670.177,-9.665,6.303,561.844,0.579,1.001
1782117399.597544,1.125000,1844925,1000,12,0,1,667.871,-11.225,6.334,564.318,1.094,1.012
1782117399.598544,1.126000,1844926,1000,12,0,1,675.533,-3.214,6.235,562.300,1.028,1.023
1782117399.599545,1.127000,1844927,1000,12,0,1,681.563,4.234,6.225,561.387,-1.650,1.045
1782117399.600544,1.128000,1844928,1000,12,0,1,681.611,3.776,6.246,561.531,-0.386,1.041
1782117399.601544,1.129000,1844929,1000,12,0,1,678.920,1.037,6.171,561.123,-1.121,1.053
1782117399.602545,1.130000,1844930,1000,12,0,1,682.187,2.311,5.886,560.763,-1.130,1.056
1782117399.603544,1.131000,1844931,1000,12,0,1,691.867,10.327,5.587,562.612,0.416,1.048
1782117399.604544,1.132000,1844932,1000,12,0,1,696.624,13.393,5.568,561.892,0.334,1.036
1782117399.605544,1.133000,1844933,1000,12,0,1,698.737,11.839,5.544,561.195,-0.683,0.969
1782117399.606544,1.134000,1844934,1000,12,0,1,708.081,16.210,5.925,562.084,0.193,0.961
1782117399.607544,1.135000,1844935,1000,12,0,1,714.183,19.050,6.433,564.222,2.142,1.003
1782117399.608544,1.136000,1844936,1000,12,0,1,714.903,14.771,6.649,562.684,1.057,1.005
1782117399.609545,1.137000,1844937,1000,12,0,1,719.275,13.775,6.885,561.027,-0.977,1.000
1782117399.610544,1.138000,1844938,1000,12,0,1,724.584,14.768,7.123,562.876,0.543,0.958
1782117399.611544,1.139000,1844939,1000,12,0,1,731.381,15.852,7.403,560.378,-0.593,0.946
1782117399.612545,1.140000,1844940,1000,12,0,1,736.306,16.336,7.617,561.147,-1.241,0.960
1782117399.613544,1.141000,1844941,1000,12,0,1,734.936,10.658,7.711,561.507,0.612,0.962
1782117399.614544,1.142000,1844942,1000,12,0,1,737.771,7.982,7.778,561.916,0.047,0.901
1782117399.615544,1.143000,1844943,1000,12,0,1,735.729,4.371,7.800,561.099,0.158,0.852
1782117399.616544,1.144000,1844944,1000,12,0,1,731.814,-3.172,7.813,562.180,0.265,0.852
1782117399.617544,1.145000,1844945,1000,12,0,1,733.255,-3.710,7.830,561.411,0.423,0.854
1782117399.618544,1.146000,1844946,1000,12,0,1,735.537,-2.932,7.840,562.997,0.773,0.856
1782117399.619545,1.147000,1844947,1000,12,0,1,734.840,-4.836,7.870,564.101,2.341,0.912
1782117399.620544,1.148000,1844948,1000,12,0,1,735.537,-6.021,7.913,562.228,0.259,0.912
1782117399.621544,1.149000,1844949,1000,12,0,1,734.336,-7.680,7.987,562.204,-0.433,0.894
1782117399.622545,1.150000,1844950,1000,12,0,1,736.138,-8.025,8.065,561.819,-0.203,0.884
1782117399.623544,1.151000,1844951,1000,12,0,1,740.461,-4.873,8.089,564.822,1.399,0.902
1782117399.624544,1.152000,1844952,1000,12,0,1,750.142,1.223,8.086,566.311,3.604,1.024
1782117399.625545,1.153000,1844953,1000,12,0,1,752.904,2.854,8.089,563.717,0.402,1.025
1782117399.626544,1.154000,1844954,1000,12,0,1,746.178,-6.263,8.128,563.021,-0.684,1.029
1782117399.627544,1.155000,1844955,1000,12,0,1,740.005,-14.025,8.367,560.090,-2.612,1.071
1782117399.628544,1.156000,1844956,1000,12,0,1,734.864,-18.534,8.751,560.835,-2.689,1.136
1782117399.629544,1.157000,1844957,1000,12,0,1,737.170,-17.031,9.064,562.036,-0.246,1.136
1782117399.630544,1.158000,1844958,1000,12,0,1,746.611,-7.306,9.122,562.420,-0.241,1.136
1782117399.631544,1.159000,1844959,1000,12,0,1,759.774,3.748,9.132,563.141,0.732,1.140
1782117399.632545,1.160000,1844960,1000,12,0,1,774.162,15.021,9.364,563.237,0.735,1.140
1782117399.633544,1.161000,1844961,1000,12,0,1,772.144,11.908,9.504,563.501,0.759,1.141
1782117399.634544,1.162000,1844962,1000,12,0,1,762.945,-0.913,9.505,563.477,0.749,1.137
1782117399.635545,1.163000,1844963,1000,12,0,1,755.907,-8.309,9.576,563.717,0.570,1.139
1782117399.636544,1.164000,1844964,1000,12,0,1,765.659,-2.238,9.560,562.108,-0.561,1.140
1782117399.637544,1.165000,1844965,1000,12,0,1,781.585,12.841,9.663,560.546,-2.391,1.189
1782117399.638544,1.166000,1844966,1000,12,0,1,790.160,17.844,9.950,561.219,-1.534,1.207
1782117399.639544,1.167000,1844967,1000,12,0,1,792.466,15.921,10.174,561.411,-0.961,1.214
1782117399.640544,1.168000,1844968,1000,12,0,1,794.556,13.032,10.283,562.036,-0.497,1.216
1782117399.641544,1.169000,1844969,1000,12,0,1,805.317,16.994,10.528,562.900,0.486,1.211
1782117399.642545,1.170000,1844970,1000,12,0,1,809.545,17.853,10.825,562.180,-0.095,1.209
1782117399.643544,1.171000,1844971,1000,12,0,1,807.503,9.313,10.904,560.811,-1.372,1.223
1782117399.644544,1.172000,1844972,1000,12,0,1,811.755,7.798,10.955,561.964,-0.498,1.214
1782117399.645545,1.173000,1844973,1000,12,0,1,816.871,8.161,10.970,561.675,-0.035,1.174
1782117399.646544,1.174000,1844974,1000,12,0,1,815.886,3.076,10.893,561.411,-0.648,1.174
1782117399.647544,1.175000,1844975,1000,12,0,1,815.286,-2.276,10.782,562.948,0.934,1.172
1782117399.648545,1.176000,1844976,1000,12,0,1,821.459,-0.650,10.773,562.228,0.668,1.166
1782117399.649544,1.177000,1844977,1000,12,0,1,832.100,5.412,10.783,562.468,0.301,1.144
1782117399.650544,1.178000,1844978,1000,12,0,1,840.171,8.811,10.842,563.669,1.688,1.167
1782117399.651544,1.179000,1844979,1000,12,0,1,840.555,4.964,10.863,563.093,1.069,1.166
1782117399.652544,1.180000,1844980,1000,12,0,1,839.018,-1.341,10.860,560.090,-1.490,1.174
1782117399.653544,1.181000,1844981,1000,12,0,1,842.141,-2.293,10.766,561.435,-0.980,1.181
1782117399.654544,1.182000,1844982,1000,12,0,1,842.429,-4.054,10.614,563.309,1.617,1.202
1782117399.655545,1.183000,1844983,1000,12,0,1,843.582,-6.374,10.520,562.108,0.359,1.199
1782117399.656544,1.184000,1844984,1000,12,0,1,846.152,-5.605,10.297,560.138,-1.496,1.217
1782117399.657544,1.185000,1844985,1000,12,0,1,847.834,-6.102,9.976,560.787,-1.082,1.189
1782117399.658545,1.186000,1844986,1000,12,0,1,848.194,-7.330,9.810,561.964,0.380,1.180
1782117399.659544,1.187000,1844987,1000,12,0,1,849.251,-8.148,9.683,562.300,0.651,1.176
1782117399.660544,1.188000,1844988,1000,12,0,1,851.197,-7.726,9.518,561.147,-0.342,1.174
1782117399.661544,1.189000,1844989,1000,12,0,1,852.277,-7.945,9.319,559.778,-1.636,1.194
1782117399.662544,1.190000,1844990,1000,12,0,1,853.406,-8.503,9.107,560.739,-0.871,1.188
1782117399.663544,1.191000,1844991,1000,12,0,1,859.724,-4.816,9.008,560.018,-0.721,1.189
1782117399.664544,1.192000,1844992,1000,12,0,1,868.660,1.429,8.939,562.997,0.996,1.197
1782117399.665545,1.193000,1844993,1000,12,0,1,874.545,4.104,8.936,562.948,2.246,1.238
1782117399.666544,1.194000,1844994,1000,12,0,1,870.173,-2.225,8.931,561.003,-0.580,1.240
1782117399.667544,1.195000,1844995,1000,12,0,1,870.821,-6.338,8.960,561.483,0.007,1.239
1782117399.668545,1.196000,1844996,1000,12,0,1,875.842,-2.963,8.960,561.940,0.578,1.237
1782117399.669544,1.197000,1844997,1000,12,0,1,878.508,-2.871,8.943,561.219,-0.039,1.192
1782117399.670544,1.198000,1844998,1000,12,0,1,881.895,-2.265,8.909,561.988,0.475,1.193
1782117399.671544,1.199000,1844999,1000,12,0,1,886.219,-0.397,8.842,563.045,1.537,1.211
1782117399.672544,1.200000,1845000,1000,12,0,1,887.324,-1.300,8.771,561.123,0.079,1.211
1782117399.673544,1.201000,1845001,1000,12,0,1,890.614,-1.032,8.745,561.099,-0.681,1.199
1782117399.674544,1.202000,1845002,1000,12,0,1,896.572,2.443,8.750,561.219,0.167,1.085
1782117399.675545,1.203000,1845003,1000,12,0,1,897.292,1.649,8.744,561.747,0.150,1.084
1782117399.676544,1.204000,1845004,1000,12,0,1,900.151,0.751,8.700,560.594,-0.254,1.080
1782117399.677544,1.205000,1845005,1000,12,0,1,907.813,5.677,8.509,561.916,0.081,1.015
1782117399.678545,1.206000,1845006,1000,12,0,1,909.086,4.934,8.125,559.514,-0.818,0.948
1782117399.679544,1.207000,1845007,1000,12,0,1,912.882,3.980,7.780,562.252,-0.068,0.947
1782117399.680544,1.208000,1845008,1000,12,0,1,921.145,8.694,7.809,562.348,1.806,0.981
1782117399.681545,1.209000,1845009,1000,12,0,1,921.313,6.138,7.839,564.149,1.531,0.999
1782117399.682544,1.210000,1845010,1000,12,0,1,923.186,2.603,7.554,562.900,1.605,1.019
1782117399.683544,1.211000,1845011,1000,12,0,1,932.675,7.529,7.441,562.997,0.067,1.013
1782117399.684544,1.212000,1845012,1000,12,0,1,940.217,10.578,7.589,562.492,0.364,1.009
1782117399.685544,1.213000,1845013,1000,12,0,1,947.135,11.237,7.664,563.093,0.111,1.006
1782117399.686544,1.214000,1845014,1000,12,0,1,947.591,7.567,7.732,561.651,-0.600,1.007
1782117399.687544,1.215000,1845015,1000,12,0,1,955.494,7.225,7.584,561.171,-1.493,0.971
1782117399.688545,1.216000,1845016,1000,12,0,1,965.319,12.560,7.370,561.579,-0.780,0.953
1782117399.689544,1.217000,1845017,1000,12,0,1,973.149,12.925,7.251,561.411,-0.580,0.947
1782117399.690544,1.218000,1845018,1000,12,0,1,975.672,10.240,7.161,561.795,-0.444,0.947
1782117399.691545,1.219000,1845019,1000,12,0,1,980.139,7.255,6.824,562.540,0.662,0.949
1782117399.692544,1.220000,1845020,1000,12,0,1,986.625,8.259,6.446,563.045,0.806,0.955
1782117399.693544,1.221000,1845021,1000,12,0,1,988.691,5.346,6.355,560.811,-0.630,0.940
1782117399.694544,1.222000,1845022,1000,12,0,1,989.484,0.747,6.260,559.538,-2.411,0.997
1782117399.695544,1.223000,1845023,1000,12,0,1,993.303,0.055,6.152,560.426,-0.987,1.007
1782117399.696544,1.224000,1845024,1000,12,0,1,992.702,-3.493,6.157,562.036,0.446,1.005
1782117399.697544,1.225000,1845025,1000,12,0,1,994.792,-5.853,6.204,561.291,0.267,0.997
1782117399.698545,1.226000,1845026,1000,12,0,1,999.596,-3.942,6.228,560.258,-1.095,1.004
1782117399.699544,1.227000,1845027,1000,12,0,1,1005.746,-1.786,6.186,561.603,0.096,1.003
1782117399.700544,1.228000,1845028,1000,12,0,1,1011.847,0.400,6.060,560.859,-0.046,0.975
1782117399.701545,1.229000,1845029,1000,12,0,1,1012.567,-2.152,6.026,561.363,-0.309,0.964
1782117399.702544,1.230000,1845030,1000,12,0,1,1015.282,-4.609,6.059,560.426,-0.330,0.942
1782117399.703544,1.231000,1845031,1000,12,0,1,1018.452,-4.414,6.082,563.141,0.937,0.941
1782117399.704545,1.232000,1845032,1000,12,0,1,1019.894,-6.971,6.135,562.780,1.915,0.952
1782117399.705544,1.233000,1845033,1000,12,0,1,1021.671,-8.405,6.183,560.234,-1.401,0.971
1782117399.706544,1.234000,1845034,1000,12,0,1,1023.953,-9.316,6.272,560.955,-0.679,0.953
1782117399.707544,1.235000,1845035,1000,12,0,1,1023.953,-11.412,6.419,560.955,-0.112,0.940
1782117399.708544,1.236000,1845036,1000,12,0,1,1032.625,-7.442,6.421,559.946,-1.124,0.952
1782117399.709544,1.237000,1845037,1000,12,0,1,1039.807,-1.736,6.322,559.778,-0.927,0.957
1782117399.710544,1.238000,1845038,1000,12,0,1,1052.226,4.066,6.253,559.489,-0.942,0.965
1782117399.711545,1.239000,1845039,1000,12,0,1,1062.362,10.920,6.342,560.715,0.270,0.937
1782117399.712544,1.240000,1845040,1000,12,0,1,1068.632,10.569,6.404,559.153,-0.409,0.931
1782117399.713544,1.241000,1845041,1000,12,0,1,1072.715,9.520,6.509,559.994,-0.352,0.927
1782117399.714545,1.242000,1845042,1000,12,0,1,1075.934,7.095,6.583,561.387,1.650,0.945
1782117399.715544,1.243000,1845043,1000,12,0,1,1073.220,0.908,6.558,562.228,1.941,0.932
1782117399.716544,1.244000,1845044,1000,12,0,1,1076.823,-1.184,6.553,562.180,1.879,0.965
1782117399.717544,1.245000,1845045,1000,12,0,1,1085.710,4.045,6.516,561.675,0.989,0.975
1782117399.718544,1.246000,1845046,1000,12,0,1,1088.761,3.772,6.525,559.946,-0.586,0.975
1782117399.719544,1.247000,1845047,1000,12,0,1,1088.353,-1.033,6.514,559.393,-1.379,0.995
1782117399.720544,1.248000,1845048,1000,12,0,1,1093.997,-0.069,6.506,560.883,0.016,0.992
1782117399.721545,1.249000,1845049,1000,12,0,1,1101.324,3.146,6.521,561.411,0.807,0.975
1782117399.722544,1.250000,1845050,1000,12,0,1,1101.876,0.304,6.518,561.988,0.849,0.982
1782117399.723544,1.251000,1845051,1000,12,0,1,1106.224,-1.509,6.520,561.964,1.001,0.988
1782117399.724545,1.252000,1845052,1000,12,0,1,1111.917,0.660,6.512,561.579,0.233,0.988
1782117399.725544,1.253000,1845053,1000,12,0,1,1116.265,-0.406,6.508,560.426,-0.587,0.991
1782117399.726544,1.254000,1845054,1000,12,0,1,1120.396,-0.790,6.508,560.979,-0.490,0.993
1782117399.727545,1.255000,1845055,1000,12,0,1,1125.056,-1.309,6.461,561.459,0.452,0.995
1782117399.728544,1.256000,1845056,1000,12,0,1,1127.362,-3.013,6.437,560.787,-0.247,0.989
1782117399.729544,1.257000,1845057,1000,12,0,1,1131.398,-4.040,6.438,560.354,-0.588,0.992
1782117399.730544,1.258000,1845058,1000,12,0,1,1135.433,-3.580,6.340,560.018,-0.678,0.964
1782117399.731544,1.259000,1845059,1000,12,0,1,1140.622,-2.912,6.293,560.859,0.001,0.939
1782117399.732544,1.260000,1845060,1000,12,0,1,1144.897,-2.039,6.289,561.459,0.882,0.920
1782117399.733544,1.261000,1845061,1000,12,0,1,1146.242,-3.984,6.224,560.282,-0.199,0.920
1782117399.734545,1.262000,1845062,1000,12,0,1,1147.828,-5.720,6.095,561.219,0.234,0.919
1782117399.735544,1.263000,1845063,1000,12,0,1,1148.885,-6.701,5.960,561.387,0.840,0.927
1782117399.736544,1.264000,1845064,1000,12,0,1,1155.178,-4.203,5.894,562.636,1.233,0.939
1782117399.737545,1.265000,1845065,1000,12,0,1,1159.622,-1.092,5.806,561.387,0.663,0.920
1782117399.738544,1.266000,1845066,1000,12,0,1,1157.868,-5.313,5.579,560.642,-0.925,0.923
1782117399.739544,1.267000,1845067,1000,12,0,1,1160.271,-6.077,5.341,560.907,-0.323,0.920
1782117399.740544,1.268000,1845068,1000,12,0,1,1165.891,-2.673,5.154,562.564,0.755,0.924
1782117399.741544,1.269000,1845069,1000,12,0,1,1169.182,-1.977,5.059,562.540,1.061,0.932
1782117399.742544,1.270000,1845070,1000,12,0,1,1174.058,-0.873,4.924,561.603,-0.253,0.925
1782117399.743544,1.271000,1845071,1000,12,0,1,1174.058,-2.810,4.882,560.859,-0.926,0.930
1782117399.744545,1.272000,1845072,1000,12,0,1,1183.499,0.151,4.881,559.850,-1.644,0.896
1782117399.745544,1.273000,1845073,1000,12,0,1,1185.636,1.736,4.887,560.162,-1.428,0.908
1782117399.746544,1.274000,1845074,1000,12,0,1,1186.333,-3.785,4.891,560.378,-0.619,0.910
1782117399.747545,1.275000,1845075,1000,12,0,1,1189.816,-2.824,4.837,559.802,-1.096,0.922
1782117399.748544,1.276000,1845076,1000,12,0,1,1190.320,-5.478,4.867,561.387,0.330,0.910
1782117399.749544,1.277000,1845077,1000,12,0,1,1189.864,-8.642,5.012,561.147,0.697,0.916
1782117399.750545,1.278000,1845078,1000,12,0,1,1190.080,-10.148,5.213,559.538,-0.983,0.926
1782117399.751544,1.279000,1845079,1000,12,0,1,1192.242,-10.077,5.395,561.699,0.649,0.930
1782117399.752544,1.280000,1845080,1000,12,0,1,1192.482,-9.959,5.538,560.907,0.879,0.937
1782117399.753544,1.281000,1845081,1000,12,0,1,1192.554,-11.336,5.731,559.393,-1.261,0.944
1782117399.754544,1.282000,1845082,1000,12,0,1,1196.686,-7.914,5.756,561.868,0.970,0.915
1782117399.755544,1.283000,1845083,1000,12,0,1,1202.163,-3.567,5.654,562.180,1.730,0.926
1782117399.756544,1.284000,1845084,1000,12,0,1,1208.240,0.787,5.500,561.027,0.089,0.921
1782117399.757545,1.285000,1845085,1000,12,0,1,1222.772,10.619,5.468,561.627,0.443,0.923
1782117399.758544,1.286000,1845086,1000,12,0,1,1227.312,13.963,5.718,560.330,-0.432,0.912
1782117399.759544,1.287000,1845087,1000,12,0,1,1227.841,8.372,5.834,560.474,-0.888,0.911
1782117399.760545,1.288000,1845088,1000,12,0,1,1226.568,4.698,5.843,561.651,0.556,0.904
1782117399.761544,1.289000,1845089,1000,12,0,1,1228.393,1.585,5.640,559.778,-0.898,0.912
1782117399.762544,1.290000,1845090,1000,12,0,1,1233.918,3.895,5.466,560.931,-0.584,0.914
1782117399.763544,1.291000,1845091,1000,12,0,1,1240.427,6.128,5.368,561.531,0.855,0.921
1782117399.764544,1.292000,1845092,1000,12,0,1,1252.390,11.920,5.536,560.835,-0.258,0.892
1782117399.765544,1.293000,1845093,1000,12,0,1,1264.352,18.357,6.114,560.378,-0.422,0.850
1782117399.766544,1.294000,1845094,1000,12,0,1,1283.833,27.195,7.221,560.835,-0.146,0.808
1782117399.767545,1.295000,1845095,1000,12,0,1,1321.233,50.905,10.180,560.715,0.091,0.796
1782117399.768544,1.296000,1845096,1000,12,0,1,1331.130,52.661,12.602,561.603,0.603,0.796
1782117399.769544,1.297000,1845097,1000,12,0,1,1322.794,29.095,13.256,561.579,0.916,0.783
1782117399.770545,1.298000,1845098,1000,12,0,1,1319.407,15.272,13.431,562.396,1.132,0.799
1782117399.771544,1.299000,1845099,1000,12,0,1,1312.105,1.181,13.425,561.795,0.918,0.801
1782117399.772544,1.300000,1845100,1000,12,0,1,1301.896,-14.212,13.574,561.555,0.118,0.793
1782117399.773545,1.301000,1845101,1000,12,0,1,1294.402,-23.821,13.984,559.730,-1.049,0.794
1782117399.774544,1.302000,1845102,1000,12,0,1,1287.268,-30.888,14.650,561.363,-0.387,0.795
1782117399.775544,1.303000,1845103,1000,12,0,1,1283.280,-33.751,15.408,559.129,-0.996,0.803
1782117399.776544,1.304000,1845104,1000,12,0,1,1280.710,-33.845,16.134,557.736,-3.244,0.922
1782117399.777544,1.305000,1845105,1000,12,0,1,1276.002,-35.134,16.881,560.138,-0.427,0.922
1782117399.778544,1.306000,1845106,1000,12,0,1,1265.457,-40.917,17.840,561.868,1.438,0.944
1782117399.779544,1.307000,1845107,1000,12,0,1,1253.158,-47.886,19.074,560.258,0.059,0.940
1782117399.780545,1.308000,1845108,1000,12,0,1,1250.300,-46.102,20.151,559.610,-0.924,0.944
1782117399.781544,1.309000,1845109,1000,12,0,1,1258.587,-33.313,20.690,560.522,-0.010,0.944
1782117399.782544,1.310000,1845110,1000,12,0,1,1278.764,-12.562,20.764,562.588,1.798,0.970
1782117399.783545,1.311000,1845111,1000,12,0,1,1288.085,-0.669,20.757,561.555,1.112,0.982
1782117399.784544,1.312000,1845112,1000,12,0,1,1306.364,9.949,20.789,561.988,0.645,0.986
1782117399.785544,1.313000,1845113,1000,12,0,1,1315.084,18.423,20.930,561.531,0.721,0.984
1782117399.786544,1.314000,1845114,1000,12,0,1,1313.474,9.731,20.967,559.538,-1.338,0.987
1782117399.787544,1.315000,1845115,1000,12,0,1,1309.367,2.930,20.970,560.282,-0.872,0.990
1782117399.788544,1.316000,1845116,1000,12,0,1,1314.651,2.637,20.960,560.594,0.125,0.981
1782117399.789544,1.317000,1845117,1000,12,0,1,1338.216,19.860,21.130,559.369,-1.084,0.992
1782117399.790545,1.318000,1845118,1000,12,0,1,1365.359,40.497,21.889,560.955,0.231,0.987
1782117399.791544,1.319000,1845119,1000,12,0,1,1389.860,53.452,23.156,560.378,0.430,0.977
1782117399.792544,1.320000,1845120,1000,12,0,1,1401.246,55.333,24.442,559.682,-0.711,0.982
1782117399.793545,1.321000,1845121,1000,12,0,1,1409.749,49.197,25.410,560.354,0.165,0.973
1782117399.794544,1.322000,1845122,1000,12,0,1,1410.998,41.503,26.079,561.771,1.301,0.963
1782117399.795544,1.323000,1845123,1000,12,0,1,1402.591,23.168,26.283,560.739,0.662,0.946
1782117399.796544,1.324000,1845124,1000,12,0,1,1382.822,-0.404,26.277,560.138,-0.474,0.944
1782117399.797544,1.325000,1845125,1000,12,0,1,1352.076,-31.419,26.647,559.898,-0.418,0.934
1782117399.798544,1.326000,1845126,1000,12,0,1,1332.763,-49.678,27.547,560.667,0.009,0.932
1782117399.799544,1.327000,1845127,1000,12,0,1,1310.280,-61.901,28.879,560.234,-0.024,0.927
1782117399.800545,1.328000,1845128,1000,12,0,1,1278.476,-83.236,31.153,559.297,-1.083,0.929
1782117399.801544,1.329000,1845129,1000,12,0,1,1257.770,-91.598,33.709,560.546,-0.099,0.925
1782117399.802544,1.330000,1845130,1000,12,0,1,1236.344,-95.150,36.268,562.012,1.494,0.941
1782117399.803545,1.331000,1845131,1000,12,0,1,1202.571,-109.197,39.386,562.396,1.546,0.949
1782117399.804544,1.332000,1845132,1000,12,0,1,1169.302,-121.392,42.950,561.844,0.950,0.949
1782117399.805544,1.333000,1845133,1000,12,0,1,1173.001,-101.707,45.292,561.579,0.307,0.918
1782117399.806545,1.334000,1845134,1000,12,0,1,1228.105,-36.290,45.582,562.780,1.236,0.934
1782117399.807544,1.335000,1845135,1000,12,0,1,1269.396,16.557,45.617,561.603,0.453,0.934
1782117399.808544,1.336000,1845136,1000,12,0,1,1298.822,40.280,45.929,560.859,-0.783,0.939
1782117399.809544,1.337000,1845137,1000,12,0,1,1337.663,70.798,46.993,559.850,-1.162,0.945
1782117399.810544,1.338000,1845138,1000,12,0,1,1329.280,61.236,47.779,561.940,0.139,0.942
1782117399.811544,1.339000,1845139,1000,12,0,1,1294.354,18.188,47.848,562.948,1.857,0.969
1782117399.812544,1.340000,1845140,1000,12,0,1,1280.134,1.935,47.846,563.333,1.435,0.987
1782117399.813545,1.341000,1845141,1000,12,0,1,1296.348,15.967,47.891,561.195,-0.084,0.979
1782117399.814544,1.342000,1845142,1000,12,0,1,1296.179,22.828,47.970,561.507,-0.776,0.985
1782117399.815544,1.343000,1845143,1000,12,0,1,1285.682,11.757,47.929,560.306,-0.905,0.991
1782117399.816545,1.344000,1845144,1000,12,0,1,1317.534,37.728,48.071,562.324,-0.165,0.991
1782117399.817544,1.345000,1845145,1000,12,0,1,1333.724,59.032,48.257,562.300,0.918,1.000
1782117399.818544,1.346000,1845146,1000,12,0,1,1330.361,47.586,48.151,560.642,-1.334,1.014
1782117399.819544,1.347000,1845147,1000,12,0,1,1320.368,36.625,48.254,562.180,-0.164,1.006
1782117399.820544,1.348000,1845148,1000,12,0,1,1309.943,21.239,48.299,560.835,-0.547,0.996
1782117399.821544,1.349000,1845149,1000,12,0,1,1338.984,39.247,48.616,563.309,0.227,0.988
1782117399.822544,1.350000,1845150,1000,12,0,1,1391.806,80.841,49.902,562.636,1.225,1.003
1782117399.823545,1.351000,1845151,1000,12,0,1,1402.327,81.174,51.095,562.924,-0.302,0.993
1782117399.824544,1.352000,1845152,1000,12,0,1,1385.416,46.562,51.332,563.741,1.383,1.010
1782117399.825544,1.353000,1845153,1000,12,0,1,1398.075,38.551,51.399,565.014,1.513,1.023
1782117399.826545,1.354000,1845154,1000,12,0,1,1421.639,48.140,51.627,562.012,-0.354,0.916
1782117399.827544,1.355000,1845155,1000,12,0,1,1417.412,30.867,51.572,564.053,-0.211,0.915
1782117399.828544,1.356000,1845156,1000,12,0,1,1377.682,-15.743,51.295,561.051,-0.847,0.900
1782117399.829545,1.357000,1845157,1000,12,0,1,1342.732,-57.091,51.483,560.715,-2.942,0.991
