Unix_Time_s,EMG_t_s,sample_idx,fs,gain,flags,emg_valid,ch1_raw_uV,ch1_filt_uV,ch1_env_uV,ch2_raw_uV,ch2_filt_uV,ch2_env_uV
1782117398.472544,0.000000,1844160,1000,12,0,1,704.863,-8.919,3.352,353.152,6.730,3.366
1782117398.473544,0.001000,1844161,1000,12,0,1,706.208,-6.738,3.285,350.798,4.215,3.405
1782117398.474545,0.002000,1844162,1000,12,0,1,712.717,-0.151,2.996,348.011,0.578,3.391
1782117398.475544,0.003000,1844163,1000,12,0,1,721.221,7.868,3.162,346.931,-0.743,3.386
1782117398.476544,0.004000,1844164,1000,12,0,1,720.860,8.009,3.326,344.072,-3.081,3.362
1782117398.477545,0.005000,1844165,1000,12,0,1,714.183,0.734,3.244,344.120,-3.779,3.395
1782117398.478544,0.006000,1844166,1000,12,0,1,714.183,-0.136,3.222,0.673,-253.157,35.962
1782117398.479544,0.007000,1844167,1000,12,0,1,704.430,-5.707,3.321,348.444,-63.300,37.060
1782117398.480544,0.008000,1844168,1000,12,0,1,702.749,-8.967,3.545,348.011,144.734,42.337
1782117398.481544,0.009000,1844169,1000,12,0,1,702.076,-4.646,3.576,346.859,-19.627,42.427
1782117398.482544,0.010000,1844170,1000,12,0,1,705.319,-2.151,3.520,349.116,81.616,43.967
1782117398.483544,0.011000,1844171,1000,12,0,1,702.821,-0.395,3.487,347.651,9.895,43.982
1782117398.484545,0.012000,1844172,1000,12,0,1,697.272,-5.573,3.573,347.771,37.337,44.288
1782117398.485544,0.013000,1844173,1000,12,0,1,705.223,1.671,3.580,347.051,21.971,44.377
1782117398.486544,0.014000,1844174,1000,12,0,1,709.523,8.352,3.755,345.633,11.796,44.403
1782117398.487545,0.015000,1844175,1000,12,0,1,702.461,0.993,3.747,348.444,25.168,44.545
1782117398.488544,0.016000,1844176,1000,12,0,1,695.567,-5.321,3.820,349.813,5.456,44.551
1782117398.489544,0.017000,1844177,1000,12,0,1,696.864,-4.565,3.854,348.132,22.386,44.663
1782117398.490544,0.018000,1844178,1000,12,0,1,713.870,10.113,4.105,343.351,-3.070,44.665
1782117398.491544,0.019000,1844179,1000,12,0,1,721.317,18.086,4.835,341.622,12.080,44.697
1782117398.492544,0.020000,1844180,1000,12,0,1,717.233,10.688,5.045,342.247,-2.320,44.698
1782117398.493544,0.021000,1844181,1000,12,0,1,712.789,4.403,5.072,342.054,9.789,44.719
1782117398.494545,0.022000,1844182,1000,12,0,1,712.309,2.127,5.079,347.099,3.686,44.720
1782117398.495544,0.023000,1844183,1000,12,0,1,717.642,5.711,5.141,348.276,11.933,44.751
1782117398.496544,0.024000,1844184,1000,12,0,1,718.002,6.389,5.209,349.116,5.147,44.756
1782117398.497545,0.025000,1844185,1000,12,0,1,713.846,1.105,5.209,350.245,7.718,44.764
1782117398.498544,0.026000,1844186,1000,12,0,1,709.282,-2.750,5.208,349.092,2.750,44.756
1782117398.499544,0.027000,1844187,1000,12,0,1,708.322,-3.708,5.217,347.387,-0.575,44.747
1782117398.500545,0.028000,1844188,1000,12,0,1,709.715,-1.050,5.215,347.675,-2.321,44.742
1782117398.501544,0.029000,1844189,1000,12,0,1,709.907,-0.035,5.201,348.348,-4.019,44.743
1782117398.502544,0.030000,1844190,1000,12,0,1,710.628,0.969,5.203,349.044,-4.230,44.746
1782117398.503544,0.031000,1844191,1000,12,0,1,711.708,2.355,5.213,346.762,-8.152,44.760
1782117398.504544,0.032000,1844192,1000,12,0,1,714.447,4.282,5.244,347.003,-8.544,44.777
1782117398.505544,0.033000,1844193,1000,12,0,1,716.633,5.970,5.303,348.564,-7.733,44.790
1782117398.506544,0.034000,1844194,1000,12,0,1,717.570,5.401,5.344,348.780,-6.805,44.800
1782117398.507545,0.035000,1844195,1000,12,0,1,718.314,4.657,5.384,347.459,-7.989,44.814
1782117398.508544,0.036000,1844196,1000,12,0,1,718.674,3.358,5.404,345.081,-8.640,44.830
1782117398.509544,0.037000,1844197,1000,12,0,1,716.993,0.557,5.405,343.784,-8.798,44.840
1782117398.510545,0.038000,1844198,1000,12,0,1,714.399,-3.115,5.419,344.625,-5.891,44.846
1782117398.511544,0.039000,1844199,1000,12,0,1,712.885,-5.223,5.465,348.180,-1.315,44.846
1782117398.512544,0.040000,1844200,1000,12,0,1,710.435,-7.246,5.558,347.123,0.170,44.846
1782117398.513544,0.041000,1844201,1000,12,0,1,714.279,-4.686,5.596,346.498,-0.426,44.846
1782117398.514544,0.042000,1844202,1000,12,0,1,715.792,-1.616,5.600,347.603,1.921,44.846
1782117398.515544,0.043000,1844203,1000,12,0,1,714.014,-3.842,5.597,348.804,3.121,44.848
1782117398.516544,0.044000,1844204,1000,12,0,1,715.143,-2.559,5.534,349.645,3.842,44.850
1782117398.517545,0.045000,1844205,1000,12,0,1,711.853,-3.985,5.552,348.348,2.290,44.852
1782117398.518544,0.046000,1844206,1000,12,0,1,709.354,-6.314,5.622,349.453,1.728,44.852
1782117398.519544,0.047000,1844207,1000,12,0,1,706.976,-6.123,5.669,354.809,5.380,44.859
1782117398.520545,0.048000,1844208,1000,12,0,1,708.826,-4.045,5.674,362.472,10.011,44.878
1782117398.521544,0.049000,1844209,1000,12,0,1,712.597,1.455,5.620,355.818,3.610,44.873
1782117398.522544,0.050000,1844210,1000,12,0,1,719.371,7.118,5.568,351.086,-5.437,44.869
1782117398.523545,0.051000,1844211,1000,12,0,1,719.539,8.366,5.612,346.666,-8.271,44.881
1782117398.524544,0.052000,1844212,1000,12,0,1,719.539,5.881,5.674,346.666,-10.104,44.903
1782117398.525544,0.053000,1844213,1000,12,0,1,717.882,4.475,5.599,344.961,-9.183,44.922
1782117398.526544,0.054000,1844214,1000,12,0,1,716.777,1.637,5.488,345.898,-8.781,44.937
1782117398.527544,0.055000,1844215,1000,12,0,1,716.801,1.210,5.490,346.378,-5.885,44.941
1782117398.528544,0.056000,1844216,1000,12,0,1,716.873,0.437,5.490,345.730,-5.495,27.177
1782117398.529544,0.057000,1844217,1000,12,0,1,721.437,2.932,5.447,346.474,-3.393,25.664
1782117398.530545,0.058000,1844218,1000,12,0,1,723.479,4.756,5.340,346.282,-1.520,15.484
1782117398.531544,0.059000,1844219,1000,12,0,1,720.764,0.460,5.299,343.568,-2.656,15.238
1782117398.532544,0.060000,1844220,1000,12,0,1,718.578,-2.416,5.302,344.553,-0.578,9.948
1782117398.533545,0.061000,1844221,1000,12,0,1,717.762,-3.703,5.327,346.786,2.894,9.858
1782117398.534544,0.062000,1844222,1000,12,0,1,721.365,-0.911,5.270,348.876,5.406,8.359
1782117398.535544,0.063000,1844223,1000,12,0,1,721.845,0.364,5.265,351.182,7.267,7.828
1782117398.536544,0.064000,1844224,1000,12,0,1,708.802,-10.112,5.326,355.626,10.276,7.785
1782117398.537544,0.065000,1844225,1000,12,0,1,699.050,-19.083,5.969,359.541,12.350,7.141
1782117398.538544,0.066000,1844226,1000,12,0,1,697.680,-16.636,6.372,359.349,10.215,7.244
1782117398.539544,0.067000,1844227,1000,12,0,1,698.929,-12.154,6.568,358.268,6.318,6.577
1782117398.540545,0.068000,1844228,1000,12,0,1,700.010,-7.834,6.506,355.602,2.241,6.570
1782117398.541544,0.069000,1844229,1000,12,0,1,693.669,-9.927,6.144,358.100,1.513,6.348
1782117398.542544,0.070000,1844230,1000,12,0,1,691.627,-10.697,6.145,360.166,2.901,6.353
1782117398.543545,0.071000,1844231,1000,12,0,1,703.469,1.945,6.119,357.235,-1.454,6.204
1782117398.544544,0.072000,1844232,1000,12,0,1,720.236,17.916,6.616,350.630,-7.916,6.282
1782117398.545544,0.073000,1844233,1000,12,0,1,723.310,20.629,7.185,349.981,-9.406,6.196
1782117398.546544,0.074000,1844234,1000,12,0,1,718.218,12.156,7.333,352.888,-5.301,6.198
1782117398.547544,0.075000,1844235,1000,12,0,1,721.197,11.310,7.504,349.116,-6.960,6.180
1782117398.548544,0.076000,1844236,1000,12,0,1,723.070,11.879,7.680,346.931,-8.770,6.292
1782117398.549544,0.077000,1844237,1000,12,0,1,713.534,1.652,7.665,347.963,-5.482,6.339
1782117398.550545,0.078000,1844238,1000,12,0,1,707.193,-6.424,7.717,348.756,-3.304,6.347
1782117398.551544,0.079000,1844239,1000,12,0,1,710.844,-3.094,7.730,348.228,-1.974,6.328
1782117398.552544,0.080000,1844240,1000,12,0,1,722.350,6.916,7.790,345.802,-2.871,6.313
1782117398.553545,0.081000,1844241,1000,12,0,1,727.826,12.259,7.974,346.883,-1.236,6.209
1782117398.554544,0.082000,1844242,1000,12,0,1,724.512,7.317,8.018,349.837,2.666,6.102
1782117398.555544,0.083000,1844243,1000,12,0,1,722.446,3.454,7.988,354.521,6.531,6.074
1782117398.556545,0.084000,1844244,1000,12,0,1,723.142,3.449,7.967,355.842,7.805,6.098
1782117398.557544,0.085000,1844245,1000,12,0,1,725.640,4.758,7.968,363.193,11.231,6.199
1782117398.558544,0.086000,1844246,1000,12,0,1,723.479,3.094,7.966,357.740,7.489,6.169
1782117398.559544,0.087000,1844247,1000,12,0,1,721.845,0.029,7.965,358.653,2.414,6.052
1782117398.560544,0.088000,1844248,1000,12,0,1,721.004,-0.284,7.953,357.019,2.770,6.007
1782117398.561544,0.089000,1844249,1000,12,0,1,722.181,-0.107,7.919,352.816,-4.235,6.034
1782117398.562544,0.090000,1844250,1000,12,0,1,721.557,-0.156,7.852,352.095,-4.781,6.072
1782117398.563545,0.091000,1844251,1000,12,0,1,718.963,-3.175,7.837,353.440,-3.819,6.096
1782117398.564544,0.092000,1844252,1000,12,0,1,713.846,-7.369,7.903,352.455,-4.262,6.119
1782117398.565544,0.093000,1844253,1000,12,0,1,712.117,-9.273,7.992,350.966,-5.225,6.148
1782117398.566545,0.094000,1844254,1000,12,0,1,715.984,-5.204,8.018,353.272,-3.202,6.141
1782117398.567544,0.095000,1844255,1000,12,0,1,723.214,1.334,8.000,354.977,-0.004,6.132
1782117398.568544,0.096000,1844256,1000,12,0,1,722.398,1.126,7.952,355.050,-0.114,6.127
1782117398.569544,0.097000,1844257,1000,12,0,1,715.480,-6.257,7.954,355.482,1.143,6.082
1782117398.570544,0.098000,1844258,1000,12,0,1,711.781,-9.934,8.057,357.283,2.601,5.926
1782117398.571544,0.099000,1844259,1000,12,0,1,715.167,-6.354,8.104,353.800,0.922,5.906
1782117398.572544,0.100000,1844260,1000,12,0,1,717.570,-2.681,8.050,350.870,-2.503,5.866
1782117398.573545,0.101000,1844261,1000,12,0,1,718.050,-1.994,7.968,351.999,-0.472,5.749
1782117398.574544,0.102000,1844262,1000,12,0,1,715.216,-3.518,7.940,349.645,-1.483,5.572
1782117398.575544,0.103000,1844263,1000,12,0,1,715.432,-3.382,7.929,348.444,-2.853,5.434
1782117398.576545,0.104000,1844264,1000,12,0,1,717.594,-0.010,7.926,351.374,0.293,5.290
1782117398.577544,0.105000,1844265,1000,12,0,1,716.873,0.314,7.924,352.936,1.915,5.231
1782117398.578544,0.106000,1844266,1000,12,0,1,715.240,-0.730,7.925,349.597,-1.115,5.176
1782117398.579545,0.107000,1844267,1000,12,0,1,716.609,1.013,7.915,351.278,-1.232,5.156
1782117398.580544,0.108000,1844268,1000,12,0,1,716.032,1.588,7.890,354.449,2.151,5.161
1782117398.581544,0.109000,1844269,1000,12,0,1,715.071,0.695,7.890,354.593,1.317,5.150
1782117398.582544,0.110000,1844270,1000,12,0,1,714.999,1.034,7.884,355.242,0.927,5.151
1782117398.583544,0.111000,1844271,1000,12,0,1,714.207,0.605,7.867,354.665,0.101,5.135
1782117398.584544,0.112000,1844272,1000,12,0,1,714.399,0.509,7.866,351.110,-3.365,5.100
1782117398.585544,0.113000,1844273,1000,12,0,1,717.449,2.967,7.877,351.134,-3.744,5.023
1782117398.586545,0.114000,1844274,1000,12,0,1,718.074,3.458,7.762,351.711,-2.048,4.817
1782117398.587544,0.115000,1844275,1000,12,0,1,716.320,0.914,7.279,352.744,-0.888,4.491
1782117398.588544,0.116000,1844276,1000,12,0,1,716.128,-0.143,6.888,347.843,-3.402,4.280
1782117398.589545,0.117000,1844277,1000,12,0,1,718.554,1.436,6.673,348.252,-3.726,4.219
1782117398.590544,0.118000,1844278,1000,12,0,1,719.035,1.697,6.585,349.068,-0.230,4.207
1782117398.591544,0.119000,1844279,1000,12,0,1,718.915,0.648,6.434,350.678,1.099,4.204
1782117398.592544,0.120000,1844280,1000,12,0,1,719.011,0.465,6.254,351.446,3.184,4.208
1782117398.593544,0.121000,1844281,1000,12,0,1,723.479,3.435,6.267,348.900,1.146,4.206
1782117398.594544,0.122000,1844282,1000,12,0,1,725.905,5.992,5.794,347.243,-0.464,4.055
1782117398.595544,0.123000,1844283,1000,12,0,1,724.728,3.841,5.036,351.831,3.466,3.862
1782117398.596545,0.124000,1844284,1000,12,0,1,725.280,3.423,4.758,352.359,4.684,3.846
1782117398.597544,0.125000,1844285,1000,12,0,1,724.632,2.936,4.500,352.888,3.420,3.749
1782117398.598544,0.126000,1844286,1000,12,0,1,724.295,1.801,4.182,353.200,3.358,3.570
1782117398.599545,0.127000,1844287,1000,12,0,1,724.223,1.966,4.185,350.918,0.353,3.485
1782117398.600544,0.128000,1844288,1000,12,0,1,725.520,2.444,4.100,347.555,-3.377,3.487
1782117398.601544,0.129000,1844289,1000,12,0,1,724.367,1.835,4.085,347.531,-3.882,3.519
1782117398.602545,0.130000,1844290,1000,12,0,1,726.313,2.048,3.977,349.164,-2.172,3.508
1782117398.603544,0.131000,1844291,1000,12,0,1,723.334,0.456,3.579,347.867,-2.754,3.526
1782117398.604544,0.132000,1844292,1000,12,0,1,720.404,-3.947,3.472,346.883,-3.928,3.549
1782117398.605544,0.133000,1844293,1000,12,0,1,717.089,-5.892,3.537,349.213,-1.275,3.432
1782117398.606544,0.134000,1844294,1000,12,0,1,716.393,-7.104,3.644,350.846,0.867,3.252
1782117398.607544,0.135000,1844295,1000,12,0,1,710.964,-9.899,3.845,349.573,0.248,2.838
1782117398.608544,0.136000,1844296,1000,12,0,1,707.385,-13.320,4.259,350.678,0.983,2.636
1782117398.609545,0.137000,1844297,1000,12,0,1,707.385,-11.199,4.544,349.525,1.299,2.620
1782117398.610544,0.138000,1844298,1000,12,0,1,710.748,-7.033,4.652,350.245,1.332,2.598
1782117398.611544,0.139000,1844299,1000,12,0,1,721.293,2.686,4.667,349.885,2.366,2.550
1782117398.612545,0.140000,1844300,1000,12,0,1,727.370,9.389,4.852,346.522,-0.605,2.460
1782117398.613544,0.141000,1844301,1000,12,0,1,724.079,4.991,4.883,349.765,1.774,2.413
1782117398.614544,0.142000,1844302,1000,12,0,1,722.326,1.964,4.778,351.182,4.493,2.421
1782117398.615544,0.143000,1844303,1000,12,0,1,720.212,0.233,4.595,354.161,5.308,2.425
1782117398.616544,0.144000,1844304,1000,12,0,1,717.930,-1.920,4.544,356.683,7.712,2.620
1782117398.617544,0.145000,1844305,1000,12,0,1,717.161,-1.954,4.548,356.899,5.949,2.752
1782117398.618544,0.146000,1844306,1000,12,0,1,714.951,-2.665,4.561,354.449,2.809,2.780
1782117398.619545,0.147000,1844307,1000,12,0,1,714.111,-2.821,4.492,353.200,-0.118,2.776
1782117398.620544,0.148000,1844308,1000,12,0,1,712.165,-2.680,4.284,353.104,-0.732,2.753
1782117398.621544,0.149000,1844309,1000,12,0,1,711.180,-2.962,4.209,352.455,-1.890,2.763
1782117398.622545,0.150000,1844310,1000,12,0,1,710.964,-1.548,4.198,352.167,-2.684,2.767
1782117398.623544,0.151000,1844311,1000,12,0,1,711.877,-0.188,4.189,351.254,-3.318,2.805
1782117398.624544,0.152000,1844312,1000,12,0,1,712.405,1.182,4.162,353.152,-2.225,2.815
1782117398.625545,0.153000,1844313,1000,12,0,1,715.095,3.156,4.159,353.656,-0.770,2.788
1782117398.626544,0.154000,1844314,1000,12,0,1,712.669,1.846,4.167,351.687,-2.758,2.815
1782117398.627544,0.155000,1844315,1000,12,0,1,709.427,-2.309,4.179,350.414,-3.386,2.843
1782117398.628544,0.156000,1844316,1000,12,0,1,708.802,-2.590,4.194,350.534,-2.691,2.864
1782117398.629544,0.157000,1844317,1000,12,0,1,711.420,-0.484,4.192,350.918,-1.435,2.865
1782117398.630544,0.158000,1844318,1000,12,0,1,709.571,-1.164,4.189,354.041,1.539,2.858
1782117398.631544,0.159000,1844319,1000,12,0,1,703.277,-6.834,4.298,356.203,4.211,2.913
1782117398.632545,0.160000,1844320,1000,12,0,1,706.976,-4.212,4.337,357.235,4.558,2.981
1782117398.633544,0.161000,1844321,1000,12,0,1,713.774,3.891,4.371,354.377,2.149,2.996
1782117398.634544,0.162000,1844322,1000,12,0,1,712.477,3.035,4.391,354.185,0.611,2.959
1782117398.635545,0.163000,1844323,1000,12,0,1,710.700,0.809,4.373,353.200,0.424,2.912
1782117398.636544,0.164000,1844324,1000,12,0,1,711.348,1.743,4.352,352.167,-1.359,2.904
1782117398.637544,0.165000,1844325,1000,12,0,1,714.591,4.669,4.400,354.257,0.268,2.902
1782117398.638544,0.166000,1844326,1000,12,0,1,713.078,4.383,4.444,355.266,1.203,2.866
1782117398.639544,0.167000,1844327,1000,12,0,1,714.159,4.029,4.475,353.008,-1.380,2.824
1782117398.640544,0.168000,1844328,1000,12,0,1,712.405,3.949,4.504,353.392,-1.891,2.837
1782117398.641544,0.169000,1844329,1000,12,0,1,711.348,1.802,4.510,350.341,-3.830,2.884
1782117398.642545,0.170000,1844330,1000,12,0,1,713.462,4.190,4.548,350.990,-4.413,2.916
1782117398.643544,0.171000,1844331,1000,12,0,1,715.408,5.663,4.593,353.560,-0.973,2.915
1782117398.644544,0.172000,1844332,1000,12,0,1,715.768,5.376,4.577,353.800,-0.767,2.916
1782117398.645545,0.173000,1844333,1000,12,0,1,713.030,2.439,4.558,350.269,-3.392,2.914
1782117398.646544,0.174000,1844334,1000,12,0,1,708.322,-2.619,4.547,352.768,-1.911,2.851
1782117398.647544,0.175000,1844335,1000,12,0,1,705.223,-5.487,4.594,352.599,-0.040,2.810
1782117398.648545,0.176000,1844336,1000,12,0,1,707.145,-3.992,4.622,351.759,-1.408,2.776
1782117398.649544,0.177000,1844337,1000,12,0,1,708.466,-1.742,4.620,352.744,0.343,2.776
1782117398.650544,0.178000,1844338,1000,12,0,1,709.427,-1.514,4.612,355.002,2.515,2.758
1782117398.651544,0.179000,1844339,1000,12,0,1,711.829,0.624,4.606,353.969,2.229,2.721
1782117398.652544,0.180000,1844340,1000,12,0,1,710.387,-0.523,4.597,356.203,3.234,2.742
1782117398.653544,0.181000,1844341,1000,12,0,1,707.865,-3.360,4.621,356.731,4.393,2.784
1782117398.654544,0.182000,1844342,1000,12,0,1,708.874,-2.365,4.600,357.764,3.989,2.786
1782117398.655545,0.183000,1844343,1000,12,0,1,706.280,-3.318,4.548,357.332,3.574,2.826
1782117398.656544,0.184000,1844344,1000,12,0,1,707.000,-3.156,4.458,356.899,1.994,2.837
1782117398.657544,0.185000,1844345,1000,12,0,1,714.375,4.301,4.276,353.200,-1.230,2.842
1782117398.658545,0.186000,1844346,1000,12,0,1,719.996,9.748,4.079,351.975,-3.424,2.880
1782117398.659544,0.187000,1844347,1000,12,0,1,716.561,6.541,3.871,353.536,-1.689,2.884
1782117398.660544,0.188000,1844348,1000,12,0,1,715.071,3.241,3.769,353.080,-1.786,2.889
1782117398.661544,0.189000,1844349,1000,12,0,1,712.069,1.462,3.755,351.014,-3.863,2.921
1782117398.662544,0.190000,1844350,1000,12,0,1,711.757,-0.031,3.513,351.687,-3.239,2.956
1782117398.663544,0.191000,1844351,1000,12,0,1,713.486,2.310,3.456,352.768,-1.796,2.956
1782117398.664544,0.192000,1844352,1000,12,0,1,713.078,1.798,3.455,354.257,-0.413,2.887
1782117398.665545,0.193000,1844353,1000,12,0,1,713.438,1.438,3.460,351.134,-2.371,2.808
1782117398.666544,0.194000,1844354,1000,12,0,1,711.708,0.170,3.450,352.431,-2.186,2.606
1782117398.667544,0.195000,1844355,1000,12,0,1,712.429,-0.594,3.440,352.023,-0.678,2.468
1782117398.668545,0.196000,1844356,1000,12,0,1,714.639,1.645,3.427,351.711,-1.555,2.446
1782117398.669544,0.197000,1844357,1000,12,0,1,712.525,-0.756,3.405,352.335,0.044,2.446
1782117398.670544,0.198000,1844358,1000,12,0,1,709.739,-3.973,3.430,351.591,-0.226,2.444
1782117398.671544,0.199000,1844359,1000,12,0,1,710.700,-3.519,3.441,348.612,-2.245,2.450
1782117398.672544,0.200000,1844360,1000,12,0,1,710.243,-3.191,3.464,349.261,-1.608,2.431
1782117398.673544,0.201000,1844361,1000,12,0,1,708.946,-4.556,3.523,349.333,-0.239,2.386
1782117398.674544,0.202000,1844362,1000,12,0,1,707.601,-5.033,3.590,349.957,0.269,2.365
1782117398.675545,0.203000,1844363,1000,12,0,1,706.376,-5.496,3.646,351.951,2.356,2.386
1782117398.676544,0.204000,1844364,1000,12,0,1,705.799,-4.982,3.704,351.735,2.408,2.378
1782117398.677544,0.205000,1844365,1000,12,0,1,707.361,-2.688,3.709,350.390,0.607,2.331
1782117398.678545,0.206000,1844366,1000,12,0,1,707.841,-0.895,3.694,350.317,0.403,2.301
1782117398.679544,0.207000,1844367,1000,12,0,1,708.682,0.257,3.693,352.071,1.505,2.302
1782117398.680544,0.208000,1844368,1000,12,0,1,704.670,-1.703,3.697,352.575,2.074,2.310
1782117398.681545,0.209000,1844369,1000,12,0,1,701.668,-4.452,3.624,354.689,2.768,2.266
1782117398.682544,0.210000,1844370,1000,12,0,1,702.629,-2.125,3.587,354.401,2.761,2.207
1782117398.683544,0.211000,1844371,1000,12,0,1,703.662,-0.008,3.545,356.058,2.530,2.215
1782117398.684544,0.212000,1844372,1000,12,0,1,704.598,1.337,3.524,355.722,2.690,2.246
1782117398.685544,0.213000,1844373,1000,12,0,1,700.203,-1.279,3.526,356.731,1.977,2.263
1782117398.686544,0.214000,1844374,1000,12,0,1,696.624,-4.958,3.587,356.034,1.871,2.270
1782117398.687544,0.215000,1844375,1000,12,0,1,703.229,1.201,3.530,356.563,1.125,2.275
1782117398.688545,0.216000,1844376,1000,12,0,1,711.540,9.334,3.717,355.362,0.695,2.271
1782117398.689544,0.217000,1844377,1000,12,0,1,708.177,6.384,3.783,352.215,-2.393,2.288
1782117398.690544,0.218000,1844378,1000,12,0,1,705.511,1.268,3.745,354.377,-0.836,2.275
1782117398.691545,0.219000,1844379,1000,12,0,1,707.265,2.742,3.757,353.248,-0.116,2.210
1782117398.692544,0.220000,1844380,1000,12,0,1,707.601,2.535,3.727,351.687,-2.438,2.148
1782117398.693544,0.221000,1844381,1000,12,0,1,705.583,0.372,3.640,354.521,0.719,2.146
1782117398.694544,0.222000,1844382,1000,12,0,1,703.662,-1.649,3.568,358.172,3.860,2.211
1782117398.695544,0.223000,1844383,1000,12,0,1,702.268,-2.565,3.570,358.893,4.367,2.245
1782117398.696544,0.224000,1844384,1000,12,0,1,702.773,-1.686,3.558,359.349,3.418,2.281
1782117398.697544,0.225000,1844385,1000,12,0,1,704.839,0.780,3.474,357.428,1.383,2.289
1782117398.698545,0.226000,1844386,1000,12,0,1,704.718,1.539,3.435,358.100,0.348,2.281
1782117398.699544,0.227000,1844387,1000,12,0,1,702.485,-0.260,3.427,358.004,0.474,2.281
1782117398.700544,0.228000,1844388,1000,12,0,1,701.788,-0.523,3.421,359.133,0.105,2.254
1782117398.701545,0.229000,1844389,1000,12,0,1,703.782,1.663,3.428,355.218,-2.640,2.262
1782117398.702544,0.230000,1844390,1000,12,0,1,704.070,2.708,3.448,356.539,-3.412,2.268
1782117398.703544,0.231000,1844391,1000,12,0,1,698.377,-1.864,3.425,356.563,-1.625,2.193
1782117398.704545,0.232000,1844392,1000,12,0,1,697.993,-3.049,3.436,356.923,-2.444,2.147
1782117398.705544,0.233000,1844393,1000,12,0,1,698.353,-0.929,3.407,358.412,-0.415,2.088
1782117398.706544,0.234000,1844394,1000,12,0,1,701.476,1.029,3.380,358.244,-0.494,2.070
1782117398.707544,0.235000,1844395,1000,12,0,1,707.072,6.373,3.445,358.076,-0.863,2.066
1782117398.708544,0.236000,1844396,1000,12,0,1,711.396,9.074,3.408,358.605,-0.014,2.008
1782117398.709544,0.237000,1844397,1000,12,0,1,710.195,6.934,3.424,357.548,-0.843,1.998
1782117398.710544,0.238000,1844398,1000,12,0,1,707.913,2.744,3.415,356.971,-1.171,1.989
1782117398.711545,0.239000,1844399,1000,12,0,1,710.123,3.156,3.438,358.268,0.002,1.912
1782117398.712544,0.240000,1844400,1000,12,0,1,712.549,4.786,3.504,358.292,0.677,1.859
1782117398.713544,0.241000,1844401,1000,12,0,1,715.408,5.553,3.576,359.758,1.259,1.850
1782117398.714545,0.242000,1844402,1000,12,0,1,709.427,0.685,3.568,362.544,3.856,1.928
1782117398.715544,0.243000,1844403,1000,12,0,1,708.225,-3.279,3.592,366.387,6.152,2.088
1782117398.716544,0.244000,1844404,1000,12,0,1,712.789,1.989,3.603,366.099,5.547,2.209
1782117398.717544,0.245000,1844405,1000,12,0,1,713.078,2.189,3.615,364.225,1.971,2.225
1782117398.718544,0.246000,1844406,1000,12,0,1,711.997,0.661,3.609,364.850,1.501,2.224
1782117398.719544,0.247000,1844407,1000,12,0,1,711.300,0.081,3.608,364.850,0.954,2.228
1782117398.720544,0.248000,1844408,1000,12,0,1,712.237,0.506,3.564,364.346,-0.466,2.229
1782117398.721545,0.249000,1844409,1000,12,0,1,711.588,0.544,3.530,360.935,-3.395,2.258
1782117398.722544,0.250000,1844410,1000,12,0,1,709.090,-2.087,3.514,360.214,-5.016,2.356
1782117398.723544,0.251000,1844411,1000,12,0,1,709.403,-1.906,3.465,361.343,-3.084,2.395
1782117398.724545,0.252000,1844412,1000,12,0,1,704.406,-5.093,3.466,365.018,-0.266,2.395
1782117398.725544,0.253000,1844413,1000,12,0,1,703.061,-7.312,3.533,363.817,-0.146,2.372
1782117398.726544,0.254000,1844414,1000,12,0,1,703.878,-4.820,3.528,359.878,-4.417,2.429
1782117398.727545,0.255000,1844415,1000,12,0,1,702.316,-5.851,3.604,359.686,-4.292,2.502
1782117398.728544,0.256000,1844416,1000,12,0,1,709.427,-0.358,3.602,363.024,-0.750,2.504
1782117398.729544,0.257000,1844417,1000,12,0,1,711.877,3.628,3.638,365.667,2.096,2.513
1782117398.730544,0.258000,1844418,1000,12,0,1,707.505,-1.934,3.641,365.426,1.922,2.510
1782117398.731544,0.259000,1844419,1000,12,0,1,711.949,0.584,3.587,361.727,-1.515,2.489
1782117398.732544,0.260000,1844420,1000,12,0,1,713.966,3.390,3.606,358.581,-4.425,2.536
1782117398.733544,0.261000,1844421,1000,12,0,1,713.726,1.410,3.612,361.607,-1.840,2.524
1782117398.734545,0.262000,1844422,1000,12,0,1,713.150,0.936,3.609,364.754,2.061,2.512
1782117398.735544,0.263000,1844423,1000,12,0,1,713.462,0.336,3.605,368.621,4.446,2.575
1782117398.736544,0.264000,1844424,1000,12,0,1,712.429,-0.074,3.536,364.874,1.939,2.576
1782117398.737545,0.265000,1844425,1000,12,0,1,711.949,-0.849,3.534,361.487,-3.219,2.611
1782117398.738544,0.266000,1844426,1000,12,0,1,711.588,-0.488,3.279,359.758,-3.787,2.663
1782117398.739544,0.267000,1844427,1000,12,0,1,713.438,1.112,3.156,361.127,-3.094,2.678
1782117398.740544,0.268000,1844428,1000,12,0,1,715.816,3.707,3.194,361.127,-1.859,2.688
1782117398.741544,0.269000,1844429,1000,12,0,1,717.786,5.146,3.253,365.330,0.846,2.691
1782117398.742544,0.270000,1844430,1000,12,0,1,716.993,4.180,3.287,366.051,2.723,2.696
1782117398.743544,0.271000,1844431,1000,12,0,1,714.495,1.221,3.291,361.871,-1.789,2.706
1782117398.744545,0.272000,1844432,1000,12,0,1,712.333,-1.209,3.287,361.343,-2.781,2.680
1782117398.745544,0.273000,1844433,1000,12,0,1,707.385,-5.102,3.346,364.129,0.362,2.608
1782117398.746544,0.274000,1844434,1000,12,0,1,708.442,-5.199,3.417,364.490,0.965,2.566
1782117398.747545,0.275000,1844435,1000,12,0,1,709.763,-2.294,3.431,365.859,1.803,2.572
1782117398.748544,0.276000,1844436,1000,12,0,1,716.248,1.735,3.433,362.016,-0.778,2.573
1782117398.749544,0.277000,1844437,1000,12,0,1,722.806,8.091,3.618,358.725,-4.425,2.648
1782117398.750545,0.278000,1844438,1000,12,0,1,722.566,6.091,3.719,359.878,-2.615,2.673
1782117398.751544,0.279000,1844439,1000,12,0,1,720.548,2.242,3.725,358.581,-2.426,2.669
1782117398.752544,0.280000,1844440,1000,12,0,1,716.897,-1.834,3.714,359.349,-2.043,2.641
1782117398.753544,0.281000,1844441,1000,12,0,1,715.552,-4.307,3.755,360.022,-0.056,2.631
1782117398.754544,0.282000,1844442,1000,12,0,1,712.357,-5.951,3.824,359.421,-0.780,2.611
1782117398.755544,0.283000,1844443,1000,12,0,1,712.045,-6.791,3.940,362.136,1.615,2.620
1782117398.756544,0.284000,1844444,1000,12,0,1,711.348,-5.215,4.006,366.051,5.049,2.715
1782117398.757545,0.285000,1844445,1000,12,0,1,707.265,-7.938,4.061,366.411,5.016,2.803
1782117398.758544,0.286000,1844446,1000,12,0,1,711.468,-3.803,3.891,362.976,1.134,2.808
1782117398.759544,0.287000,1844447,1000,12,0,1,712.285,-0.007,3.765,364.105,0.715,2.807
1782117398.760545,0.288000,1844448,1000,12,0,1,709.306,-2.845,3.767,364.370,1.619,2.811
1782117398.761544,0.289000,1844449,1000,12,0,1,701.932,-7.175,3.875,367.444,2.715,2.838
1782117398.762544,0.290000,1844450,1000,12,0,1,699.794,-9.118,4.028,366.820,3.046,2.868
1782117398.763544,0.291000,1844451,1000,12,0,1,701.259,-4.873,4.010,369.414,3.002,2.894
1782117398.764544,0.292000,1844452,1000,12,0,1,701.235,-3.573,4.041,367.973,2.905,2.872
1782117398.765544,0.293000,1844453,1000,12,0,1,698.761,-4.324,4.060,367.468,0.307,2.737
1782117398.766544,0.294000,1844454,1000,12,0,1,700.851,-2.312,4.064,367.420,0.965,2.626
1782117398.767545,0.295000,1844455,1000,12,0,1,710.099,6.166,4.145,366.291,-0.579,2.613
1782117398.768544,0.296000,1844456,1000,12,0,1,711.805,8.681,4.322,368.165,0.667,2.606
1782117398.769544,0.297000,1844457,1000,12,0,1,700.539,-2.401,4.335,372.921,4.868,2.692
1782117398.770545,0.298000,1844458,1000,12,0,1,693.957,-9.551,4.540,373.041,4.736,2.773
1782117398.771544,0.299000,1844459,1000,12,0,1,705.391,0.410,4.540,367.829,-0.537,2.732
1782117398.772544,0.300000,1844460,1000,12,0,1,716.609,12.477,4.861,365.018,-4.162,2.703
1782117398.773545,0.301000,1844461,1000,12,0,1,728.283,19.657,5.594,360.983,-6.382,2.816
1782117398.774544,0.302000,1844462,1000,12,0,1,731.477,21.684,6.338,363.024,-5.480,2.921
1782117398.775544,0.303000,1844463,1000,12,0,1,729.460,15.053,6.606,367.684,0.450,2.921
1782117398.776544,0.304000,1844464,1000,12,0,1,722.590,7.389,6.653,369.342,1.550,2.862
1782117398.777544,0.305000,1844465,1000,12,0,1,719.587,1.655,6.606,371.936,3.114,2.832
1782117398.778544,0.306000,1844466,1000,12,0,1,719.323,1.689,6.610,370.999,2.171,2.846
1782117398.779544,0.307000,1844467,1000,12,0,1,720.524,2.097,6.596,371.744,0.979,2.834
1782117398.780545,0.308000,1844468,1000,12,0,1,716.537,-0.628,6.591,371.071,0.760,2.823
1782117398.781544,0.309000,1844469,1000,12,0,1,719.059,-0.023,6.591,371.167,-0.675,2.817
1782117398.782544,0.310000,1844470,1000,12,0,1,717.810,0.843,6.575,368.982,-1.901,2.759
1782117398.783545,0.311000,1844471,1000,12,0,1,717.017,-1.568,6.575,367.660,-3.999,2.805
1782117398.784544,0.312000,1844472,1000,12,0,1,715.912,-1.703,6.578,366.219,-4.204,2.852
1782117398.785544,0.313000,1844473,1000,12,0,1,717.113,-1.719,6.583,365.571,-4.644,2.858
1782117398.786544,0.314000,1844474,1000,12,0,1,715.984,-2.255,6.590,365.090,-3.958,2.900
1782117398.787544,0.315000,1844475,1000,12,0,1,713.078,-5.572,6.636,363.649,-4.341,2.929
1782117398.788544,0.316000,1844476,1000,12,0,1,712.477,-6.605,6.701,363.649,-3.738,2.928
1782117398.789544,0.317000,1844477,1000,12,0,1,711.108,-7.071,6.774,363.385,-2.591,2.918
1782117398.790545,0.318000,1844478,1000,12,0,1,710.195,-8.326,6.855,366.868,0.323,2.906
1782117398.791544,0.319000,1844479,1000,12,0,1,709.042,-8.148,6.913,366.748,1.919,2.916
1782117398.792544,0.320000,1844480,1000,12,0,1,711.324,-6.440,6.948,366.628,0.589,2.892
1782117398.793545,0.321000,1844481,1000,12,0,1,715.888,-1.149,6.948,371.239,4.738,2.958
1782117398.794544,0.322000,1844482,1000,12,0,1,714.687,-1.539,6.949,374.314,7.152,3.101
1782117398.795544,0.323000,1844483,1000,12,0,1,715.840,-1.268,6.914,376.764,7.708,3.287
1782117398.796544,0.324000,1844484,1000,12,0,1,721.485,4.293,6.901,373.666,4.498,3.345
1782117398.797544,0.325000,1844485,1000,12,0,1,720.884,4.545,6.923,379.190,5.794,3.435
1782117398.798544,0.326000,1844486,1000,12,0,1,717.161,0.503,6.919,376.212,5.052,3.506
1782117398.799544,0.327000,1844487,1000,12,0,1,714.279,-1.508,6.828,374.578,-0.634,3.451
1782117398.800545,0.328000,1844488,1000,12,0,1,710.363,-3.945,6.796,376.764,2.206,3.445
1782117398.801544,0.329000,1844489,1000,12,0,1,703.541,-8.288,6.889,374.939,-0.270,3.429
1782117398.802544,0.330000,1844490,1000,12,0,1,702.172,-8.503,6.988,374.098,-1.825,3.426
1782117398.803545,0.331000,1844491,1000,12,0,1,716.513,4.990,6.997,371.864,-3.074,3.454
1782117398.804544,0.332000,1844492,1000,12,0,1,723.647,14.086,7.227,375.371,-1.320,3.457
1782117398.805544,0.333000,1844493,1000,12,0,1,719.443,7.960,7.250,404.148,21.808,4.627
1782117398.806545,0.334000,1844494,1000,12,0,1,711.468,-0.159,7.213,397.446,20.353,5.402
1782117398.807544,0.335000,1844495,1000,12,0,1,704.334,-7.523,7.204,400.280,10.334,5.551
1782117398.808544,0.336000,1844496,1000,12,0,1,698.809,-11.604,7.369,382.986,1.582,5.553
1782117398.809544,0.337000,1844497,1000,12,0,1,700.203,-9.888,7.500,378.398,-12.865,5.843
1782117398.810544,0.338000,1844498,1000,12,0,1,702.388,-5.769,7.534,377.581,-6.631,5.913
1782117398.811544,0.339000,1844499,1000,12,0,1,707.433,-1.350,7.468,374.626,-11.704,6.129
1782117398.812544,0.340000,1844500,1000,12,0,1,721.437,10.480,7.503,369.030,-13.534,6.406
1782117398.813545,0.341000,1844501,1000,12,0,1,725.616,14.920,7.764,368.165,-13.776,6.682
1782117398.814544,0.342000,1844502,1000,12,0,1,722.758,8.658,7.844,368.813,-11.007,6.849
1782117398.815544,0.343000,1844503,1000,12,0,1,728.931,11.495,7.987,377.917,-2.012,6.855
1782117398.816545,0.344000,1844504,1000,12,0,1,729.172,11.521,8.145,378.998,0.764,6.854
1782117398.817544,0.345000,1844505,1000,12,0,1,726.986,6.387,8.148,374.170,-3.939,6.876
1782117398.818544,0.346000,1844506,1000,12,0,1,719.587,0.279,8.055,373.377,-5.617,6.921
1782117398.819544,0.347000,1844507,1000,12,0,1,713.390,-6.641,8.103,372.441,-4.502,6.916
1782117398.820544,0.348000,1844508,1000,12,0,1,714.999,-4.037,8.010,371.432,-6.058,6.937
1782117398.821544,0.349000,1844509,1000,12,0,1,716.969,-0.596,8.010,368.861,-6.143,6.991
1782117398.822544,0.350000,1844510,1000,12,0,1,716.465,-0.395,7.813,366.820,-8.036,7.058
1782117398.823545,0.351000,1844511,1000,12,0,1,717.570,0.828,7.303,372.176,-1.972,7.006
1782117398.824544,0.352000,1844512,1000,12,0,1,721.677,4.235,6.655,423.965,37.854,8.783
1782117398.825544,0.353000,1844513,1000,12,0,1,722.590,5.190,6.348,439.074,57.788,11.997
1782117398.826545,0.354000,1844514,1000,12,0,1,722.974,3.585,6.282,417.936,24.858,12.499
1782117398.827544,0.355000,1844515,1000,12,0,1,715.984,-2.296,6.286,387.862,-4.699,12.509
1782117398.828544,0.356000,1844516,1000,12,0,1,711.853,-8.454,6.394,381.785,-16.495,12.721
1782117398.829545,0.357000,1844517,1000,12,0,1,713.606,-6.079,6.445,377.557,-14.200,12.878
1782117398.830544,0.358000,1844518,1000,12,0,1,707.361,-10.340,6.608,378.229,-14.477,13.039
1782117398.831544,0.359000,1844519,1000,12,0,1,701.308,-16.130,6.991,378.830,-9.680,13.110
1782117398.832544,0.360000,1844520,1000,12,0,1,709.715,-7.990,7.080,375.131,-11.199,13.203
1782117398.833544,0.361000,1844521,1000,12,0,1,721.725,4.548,7.106,369.822,-14.278,13.345
1782117398.834544,0.362000,1844522,1000,12,0,1,724.848,7.468,7.180,369.462,-12.171,13.442
1782117398.835544,0.363000,1844523,1000,12,0,1,723.359,4.454,7.204,370.663,-9.282,13.490
1782117398.836545,0.364000,1844524,1000,12,0,1,718.506,-0.095,7.197,370.759,-6.683,13.511
1782117398.837544,0.365000,1844525,1000,12,0,1,715.408,-3.607,7.172,372.729,-4.961,13.516
1782117398.838544,0.366000,1844526,1000,12,0,1,717.329,-1.052,7.112,372.368,-3.121,13.513
1782117398.839545,0.367000,1844527,1000,12,0,1,719.587,2.039,7.047,374.338,-2.645,13.513
1782117398.840544,0.368000,1844528,1000,12,0,1,718.194,1.692,6.952,373.618,-1.392,13.514
1782117398.841544,0.369000,1844529,1000,12,0,1,715.672,-0.228,6.856,371.672,-4.228,13.525
1782117398.842544,0.370000,1844530,1000,12,0,1,709.162,-4.475,6.825,372.513,-2.647,13.530
1782117398.843544,0.371000,1844531,1000,12,0,1,701.788,-10.040,6.969,374.074,-0.887,13.514
1782117398.844544,0.372000,1844532,1000,12,0,1,703.397,-7.376,7.043,373.978,-0.209,13.476
1782117398.845544,0.373000,1844533,1000,12,0,1,714.807,4.301,7.067,374.026,0.155,13.432
1782117398.846545,0.374000,1844534,1000,12,0,1,719.323,9.866,7.178,370.375,-1.708,13.419
1782117398.847544,0.375000,1844535,1000,12,0,1,716.561,5.631,7.193,372.825,0.180,13.394
1782117398.848544,0.376000,1844536,1000,12,0,1,714.711,2.421,7.201,372.681,2.820,13.380
1782117398.849545,0.377000,1844537,1000,12,0,1,720.956,5.891,7.246,374.482,3.771,13.391
1782117398.850544,0.378000,1844538,1000,12,0,1,722.734,7.426,7.301,374.506,5.747,13.412
1782117398.851544,0.379000,1844539,1000,12,0,1,722.638,4.219,7.230,374.314,5.010,13.430
1782117398.852545,0.380000,1844540,1000,12,0,1,720.764,1.691,7.134,374.578,5.820,13.453
1782117398.853544,0.381000,1844541,1000,12,0,1,714.663,-4.845,7.132,376.980,7.388,13.487
1782117398.854544,0.382000,1844542,1000,12,0,1,714.519,-6.158,6.903,378.037,8.144,13.535
1782117398.855544,0.383000,1844543,1000,12,0,1,715.552,-3.570,6.829,376.644,5.948,13.205
1782117398.856544,0.384000,1844544,1000,12,0,1,711.588,-6.419,6.889,375.851,3.773,12.899
1782117398.857544,0.385000,1844545,1000,12,0,1,712.501,-5.200,6.846,377.941,4.585,12.832
1782117398.858544,0.386000,1844546,1000,12,0,1,713.558,-1.986,6.653,377.605,3.434,12.839
1782117398.859545,0.387000,1844547,1000,12,0,1,711.396,-2.770,6.516,377.245,1.473,12.712
1782117398.860544,0.388000,1844548,1000,12,0,1,709.643,-3.105,6.479,375.299,-0.893,12.678
1782117398.861544,0.389000,1844549,1000,12,0,1,706.616,-3.916,6.500,376.668,-1.209,12.570
1782117398.862545,0.390000,1844550,1000,12,0,1,707.793,-2.231,6.337,376.740,-0.798,12.424
1782117398.863544,0.391000,1844551,1000,12,0,1,714.687,5.170,6.020,377.845,-1.033,12.271
1782117398.864544,0.392000,1844552,1000,12,0,1,723.455,12.784,6.165,377.293,-0.989,12.173
1782117398.865544,0.393000,1844553,1000,12,0,1,725.328,13.914,6.264,377.221,-1.713,12.172
1782117398.866544,0.394000,1844554,1000,12,0,1,709.499,-0.866,6.050,376.236,-1.799,12.174
1782117398.867544,0.395000,1844555,1000,12,0,1,693.789,-17.152,6.455,375.755,-2.101,12.165
1782117398.868544,0.396000,1844556,1000,12,0,1,700.827,-10.911,6.637,374.386,-2.224,12.143
1782117398.869545,0.397000,1844557,1000,12,0,1,711.132,1.698,6.574,373.618,-2.277,12.131
1782117398.870544,0.398000,1844558,1000,12,0,1,714.207,3.904,6.573,376.308,0.723,12.101
1782117398.871544,0.399000,1844559,1000,12,0,1,709.979,0.060,6.572,376.188,2.088,12.073
1782117398.872545,0.400000,1844560,1000,12,0,1,707.889,-3.537,6.591,375.347,0.860,12.020
1782117398.873544,0.401000,1844561,1000,12,0,1,709.258,-1.764,6.595,377.917,3.347,12.026
1782117398.874544,0.402000,1844562,1000,12,0,1,708.922,-1.632,6.571,379.334,4.588,10.789
1782117398.875545,0.403000,1844563,1000,12,0,1,705.607,-4.002,6.555,379.527,3.901,7.065
1782117398.876544,0.404000,1844564,1000,12,0,1,705.151,-3.990,6.559,377.365,1.420,6.131
1782117398.877544,0.405000,1844565,1000,12,0,1,701.956,-4.616,6.584,380.103,1.955,6.102
1782117398.878544,0.406000,1844566,1000,12,0,1,701.908,-4.153,6.501,380.776,2.865,5.653
1782117398.879544,0.407000,1844567,1000,12,0,1,700.971,-2.160,6.451,382.481,1.999,5.291
1782117398.880544,0.408000,1844568,1000,12,0,1,706.952,3.000,6.297,414.765,25.376,6.057
1782117398.881544,0.409000,1844569,1000,12,0,1,709.715,8.146,5.982,418.176,31.850,7.423
1782117398.882545,0.410000,1844570,1000,12,0,1,709.955,7.171,5.961,392.882,0.113,7.252
1782117398.883544,0.411000,1844571,1000,12,0,1,712.741,9.317,6.071,386.348,-9.927,7.105
1782117398.884544,0.412000,1844572,1000,12,0,1,713.558,9.552,6.129,387.261,-7.622,6.977
1782117398.885545,0.413000,1844573,1000,12,0,1,711.396,6.168,6.159,411.522,9.818,6.992
1782117398.886544,0.414000,1844574,1000,12,0,1,708.994,3.025,6.174,455.072,47.523,9.652
1782117398.887544,0.415000,1844575,1000,12,0,1,704.094,-1.955,6.159,417.744,18.423,9.973
1782117398.888544,0.416000,1844576,1000,12,0,1,702.316,-4.340,6.187,391.153,-23.352,10.496
1782117398.889544,0.417000,1844577,1000,12,0,1,701.235,-4.657,6.216,391.921,-15.055,10.703
1782117398.890544,0.418000,1844578,1000,12,0,1,701.908,-4.223,6.240,385.844,-20.095,11.073
1782117398.891544,0.419000,1844579,1000,12,0,1,710.123,2.539,6.250,378.926,-22.770,11.516
1782117398.892545,0.420000,1844580,1000,12,0,1,709.643,3.669,6.239,381.953,-17.787,11.781
1782117398.893544,0.421000,1844581,1000,12,0,1,711.324,1.892,6.082,385.604,-10.903,11.881
1782117398.894544,0.422000,1844582,1000,12,0,1,714.471,5.517,6.042,381.905,-11.156,11.985
1782117398.895545,0.423000,1844583,1000,12,0,1,710.964,1.400,6.015,380.271,-12.825,12.122
1782117398.896544,0.424000,1844584,1000,12,0,1,711.564,0.535,5.851,380.391,-9.549,12.195
1782117398.897544,0.425000,1844585,1000,12,0,1,713.942,3.318,5.816,380.103,-9.794,12.273
1782117398.898545,0.426000,1844586,1000,12,0,1,711.588,1.159,5.808,379.334,-8.393,12.324
1782117398.899544,0.427000,1844587,1000,12,0,1,709.403,-0.968,5.749,379.743,-8.218,12.367
1782117398.900544,0.428000,1844588,1000,12,0,1,708.898,-0.947,5.654,379.431,-6.761,12.377
1782117398.901544,0.429000,1844589,1000,12,0,1,710.291,0.756,5.624,378.590,-7.345,12.400
1782117398.902544,0.430000,1844590,1000,12,0,1,710.988,1.989,5.626,380.704,-4.543,12.390
1782117398.903544,0.431000,1844591,1000,12,0,1,710.459,1.548,5.588,393.363,6.119,12.376
1782117398.904544,0.432000,1844592,1000,12,0,1,710.195,1.132,5.522,384.307,2.258,12.326
1782117398.905545,0.433000,1844593,1000,12,0,1,709.427,0.442,5.499,379.407,-6.708,12.334
1782117398.906544,0.434000,1844594,1000,12,0,1,710.892,0.960,5.426,378.229,-3.094,12.330
1782117398.907544,0.435000,1844595,1000,12,0,1,709.883,0.387,5.376,374.867,-5.598,12.339
1782117398.908545,0.436000,1844596,1000,12,0,1,709.451,-1.383,5.372,375.155,-2.848,12.336
1782117398.909544,0.437000,1844597,1000,12,0,1,709.114,-1.588,5.362,379.455,3.019,12.341
1782117398.910544,0.438000,1844598,1000,12,0,1,706.280,-4.510,5.382,380.584,5.942,12.369
1782117398.911544,0.439000,1844599,1000,12,0,1,705.487,-5.669,5.413,380.247,6.376,12.401
1782117398.912544,0.440000,1844600,1000,12,0,1,708.898,-2.502,5.416,385.075,10.019,12.481
1782117398.913544,0.441000,1844601,1000,12,0,1,710.315,-0.679,5.367,383.346,10.114,12.562
1782117398.914544,0.442000,1844602,1000,12,0,1,710.195,-1.174,5.056,379.310,4.094,12.574
1782117398.915545,0.443000,1844603,1000,12,0,1,708.322,-2.486,4.671,386.973,9.696,12.647
1782117398.916544,0.444000,1844604,1000,12,0,1,702.437,-6.931,4.771,388.558,11.441,12.747
1782117398.917544,0.445000,1844605,1000,12,0,1,694.750,-12.517,4.473,389.015,8.136,12.796
1782117398.918545,0.446000,1844606,1000,12,0,1,682.451,-20.006,5.063,385.316,4.287,12.806
1782117398.919544,0.447000,1844607,1000,12,0,1,676.110,-23.060,6.018,385.604,0.921,12.803
1782117398.920544,0.448000,1844608,1000,12,0,1,698.617,-1.016,5.994,380.680,-2.470,12.807
1782117398.921544,0.449000,1844609,1000,12,0,1,716.489,20.811,6.678,375.827,-9.008,12.867
1782117398.922544,0.450000,1844610,1000,12,0,1,715.384,17.902,7.124,380.151,-4.888,12.885
1782117398.923544,0.451000,1844611,1000,12,0,1,716.104,15.302,7.441,376.308,-5.795,12.902
1782117398.924544,0.452000,1844612,1000,12,0,1,715.816,13.834,7.691,375.779,-7.850,12.934
1782117398.925545,0.453000,1844613,1000,12,0,1,710.892,7.045,7.734,377.653,-3.102,12.929
1782117398.926544,0.454000,1844614,1000,12,0,1,704.959,0.499,7.714,376.476,-3.648,12.938
1782117398.927544,0.455000,1844615,1000,12,0,1,700.443,-4.387,7.711,379.479,0.063,12.935
1782117398.928545,0.456000,1844616,1000,12,0,1,698.425,-5.852,7.733,381.208,3.231,12.937
1782117398.929544,0.457000,1844617,1000,12,0,1,695.735,-7.319,7.796,382.505,4.412,12.949
1782117398.930544,0.458000,1844618,1000,12,0,1,698.113,-5.151,7.819,381.520,4.537,12.458
1782117398.931545,0.459000,1844619,1000,12,0,1,707.913,4.033,7.754,377.125,0.668,11.616
1782117398.932544,0.460000,1844620,1000,12,0,1,713.510,9.490,7.804,377.605,0.850,11.616
1782117398.933544,0.461000,1844621,1000,12,0,1,706.832,2.834,7.702,385.988,8.242,11.590
1782117398.934544,0.462000,1844622,1000,12,0,1,703.782,-2.316,7.590,392.594,14.007,11.708
1782117398.935544,0.463000,1844623,1000,12,0,1,711.108,4.053,7.562,383.898,5.659,11.653
1782117398.936544,0.464000,1844624,1000,12,0,1,714.423,7.628,7.626,382.265,-0.185,9.520
1782117398.937544,0.465000,1844625,1000,12,0,1,709.547,2.330,7.628,382.025,0.941,9.158
1782117398.938545,0.466000,1844626,1000,12,0,1,707.937,-0.463,7.604,380.103,-2.820,8.551
1782117398.939544,0.467000,1844627,1000,12,0,1,709.643,1.438,7.578,378.950,-3.737,8.298
1782117398.940544,0.468000,1844628,1000,12,0,1,710.243,2.046,7.560,379.455,-3.980,7.817
1782117398.941545,0.469000,1844629,1000,12,0,1,710.171,1.778,7.556,378.758,-4.208,7.148
1782117398.942544,0.470000,1844630,1000,12,0,1,710.748,2.035,7.543,376.572,-6.015,6.744
1782117398.943544,0.471000,1844631,1000,12,0,1,711.108,2.144,7.545,378.350,-4.611,6.598
1782117398.944544,0.472000,1844632,1000,12,0,1,712.789,2.948,7.516,378.181,-2.974,6.420
1782117398.945544,0.473000,1844633,1000,12,0,1,713.438,3.211,7.527,374.074,-6.282,6.223
1782117398.946544,0.474000,1844634,1000,12,0,1,710.555,0.026,7.526,373.209,-6.039,6.134
1782117398.947544,0.475000,1844635,1000,12,0,1,710.652,-1.225,7.514,372.801,-4.459,6.009
1782117398.948545,0.476000,1844636,1000,12,0,1,710.628,-0.923,7.513,375.875,-0.858,5.892
1782117398.949544,0.477000,1844637,1000,12,0,1,711.300,-1.418,7.514,374.098,0.109,5.776
1782117398.950544,0.478000,1844638,1000,12,0,1,710.964,-1.527,7.516,374.867,0.208,5.696
1782117398.951545,0.479000,1844639,1000,12,0,1,711.540,-2.010,7.521,377.701,4.425,5.636
1782117398.952544,0.480000,1844640,1000,12,0,1,714.903,0.644,7.516,379.118,5.559,5.654
1782117398.953544,0.481000,1844641,1000,12,0,1,716.801,2.070,7.519,382.865,8.196,5.706
1782117398.954545,0.482000,1844642,1000,12,0,1,713.438,-1.334,7.519,386.036,10.478,5.887
1782117398.955544,0.483000,1844643,1000,12,0,1,707.937,-6.603,7.577,383.706,7.077,5.895
1782117398.956544,0.484000,1844644,1000,12,0,1,707.865,-6.786,7.636,381.184,2.928,5.894
1782117398.957544,0.485000,1844645,1000,12,0,1,710.531,-2.935,7.647,379.142,0.228,5.840
1782117398.958544,0.486000,1844646,1000,12,0,1,712.165,-0.879,7.646,380.535,0.211,5.826
1782117398.959544,0.487000,1844647,1000,12,0,1,712.789,0.219,7.643,387.285,5.187,5.857
1782117398.960544,0.488000,1844648,1000,12,0,1,714.351,1.525,7.619,420.530,29.462,7.138
1782117398.961545,0.489000,1844649,1000,12,0,1,714.759,2.282,7.584,423.749,34.950,8.636
1782117398.962544,0.490000,1844650,1000,12,0,1,713.030,0.576,7.576,393.194,-0.818,8.519
1782117398.963544,0.491000,1844651,1000,12,0,1,709.547,-2.348,7.582,390.840,-9.463,8.504
1782117398.964545,0.492000,1844652,1000,12,0,1,705.655,-5.461,7.620,390.696,-5.078,8.515
1782117398.965544,0.493000,1844653,1000,12,0,1,704.791,-5.736,7.655,381.905,-14.526,8.651
1782117398.966544,0.494000,1844654,1000,12,0,1,705.031,-4.229,7.615,379.623,-14.539,8.744
1782117398.967544,0.495000,1844655,1000,12,0,1,706.760,-2.324,7.414,378.350,-13.285,8.869
1782117398.968544,0.496000,1844656,1000,12,0,1,707.625,-0.675,6.854,378.638,-10.799,8.979
1782117398.969544,0.497000,1844657,1000,12,0,1,710.507,1.248,6.031,381.304,-6.246,9.022
1782117398.970544,0.498000,1844658,1000,12,0,1,708.874,0.701,6.030,382.049,-3.628,9.029
1782117398.971545,0.499000,1844659,1000,12,0,1,708.201,-1.396,5.266,382.145,-2.718,8.947
1782117398.972544,0.500000,1844660,1000,12,0,1,708.850,-0.208,4.618,382.938,-1.319,8.923
1782117398.973544,0.501000,1844661,1000,12,0,1,708.201,-0.993,4.082,383.466,-0.434,8.885
1782117398.974545,0.502000,1844662,1000,12,0,1,708.706,-0.673,3.584,383.346,-0.592,8.816
1782117398.975544,0.503000,1844663,1000,12,0,1,708.153,-0.558,3.444,384.067,-0.282,8.805
1782117398.976544,0.504000,1844664,1000,12,0,1,709.378,0.076,3.443,385.147,0.313,8.790
1782117398.977545,0.505000,1844665,1000,12,0,1,707.433,-0.278,3.387,385.772,0.336,8.790
1782117398.978544,0.506000,1844666,1000,12,0,1,703.614,-3.884,3.330,383.250,-2.151,8.784
1782117398.979544,0.507000,1844667,1000,12,0,1,700.395,-5.357,3.254,381.568,-4.412,8.784
1782117398.980544,0.508000,1844668,1000,12,0,1,698.521,-5.891,3.279,381.953,-3.740,8.776
1782117398.981544,0.509000,1844669,1000,12,0,1,699.338,-3.593,3.269,383.442,-2.155,8.781
1782117398.982544,0.510000,1844670,1000,12,0,1,703.878,1.510,2.988,382.793,-1.939,8.784
1782117398.983544,0.511000,1844671,1000,12,0,1,706.424,4.972,3.044,381.688,-2.701,8.715
1782117398.984545,0.512000,1844672,1000,12,0,1,706.232,4.538,3.093,380.271,-2.905,8.497
1782117398.985544,0.513000,1844673,1000,12,0,1,705.319,3.387,3.077,382.337,-0.655,8.460
1782117398.986544,0.514000,1844674,1000,12,0,1,702.581,0.888,2.885,387.790,5.132,8.491
1782117398.987545,0.515000,1844675,1000,12,0,1,703.589,0.818,2.868,381.905,1.870,8.494
1782117398.988544,0.516000,1844676,1000,12,0,1,707.121,4.222,2.929,378.902,-2.579,8.492
1782117398.989544,0.517000,1844677,1000,12,0,1,707.697,4.248,2.983,379.551,0.302,8.476
1782117398.990544,0.518000,1844678,1000,12,0,1,707.601,3.078,3.001,382.601,2.719,8.466
1782117398.991544,0.519000,1844679,1000,12,0,1,706.808,1.823,3.001,383.394,4.722,8.471
1782117398.992544,0.520000,1844680,1000,12,0,1,706.280,0.539,2.988,397.999,14.355,8.669
1782117398.993544,0.521000,1844681,1000,12,0,1,708.081,1.641,2.982,436.047,44.593,10.701
1782117398.994545,0.522000,1844682,1000,12,0,1,706.184,0.367,2.953,440.827,48.138,12.676
1782117398.995544,0.523000,1844683,1000,12,0,1,697.368,-7.177,3.090,408.255,9.269,12.712
1782117398.996544,0.524000,1844684,1000,12,0,1,687.376,-15.129,3.758,395.548,-10.201,12.765
1782117398.997545,0.525000,1844685,1000,12,0,1,682.115,-17.478,4.495,396.701,-8.266,12.803
1782117398.998544,0.526000,1844686,1000,12,0,1,676.542,-18.146,5.174,396.533,-9.027,12.866
1782117398.999544,0.527000,1844687,1000,12,0,1,674.837,-16.553,5.675,397.590,-7.926,12.915
1782117399.000545,0.528000,1844688,1000,12,0,1,691.147,0.073,5.671,389.783,-13.208,13.049
1782117399.001544,0.529000,1844689,1000,12,0,1,710.892,20.667,6.374,382.890,-19.630,13.327
1782117399.002544,0.530000,1844690,1000,12,0,1,702.100,14.254,6.684,385.195,-15.204,13.476
1782117399.003544,0.531000,1844691,1000,12,0,1,687.376,-3.188,6.693,390.888,-7.766,13.471
1782117399.004544,0.532000,1844692,1000,12,0,1,687.976,-2.699,6.701,409.625,8.322,13.441
1782117399.005544,0.533000,1844693,1000,12,0,1,705.559,12.276,6.859,387.117,-4.472,13.418
1782117399.006544,0.534000,1844694,1000,12,0,1,717.473,23.818,7.581,377.701,-21.697,13.758
1782117399.007545,0.535000,1844695,1000,12,0,1,719.323,21.330,8.149,378.638,-11.921,13.861
1782117399.008544,0.536000,1844696,1000,12,0,1,719.900,17.771,8.527,379.623,-11.753,13.961
1782117399.009544,0.537000,1844697,1000,12,0,1,719.443,13.940,8.752,380.968,-6.258,13.969
1782117399.010545,0.538000,1844698,1000,12,0,1,725.689,14.856,8.998,379.695,-6.087,13.361
1782117399.011544,0.539000,1844699,1000,12,0,1,731.742,18.206,9.353,380.704,-4.391,12.429
1782117399.012544,0.540000,1844700,1000,12,0,1,718.963,4.782,9.377,383.754,0.233,12.429
1782117399.013544,0.541000,1844701,1000,12,0,1,701.932,-13.632,9.568,386.805,2.508,12.361
1782117399.014544,0.542000,1844702,1000,12,0,1,696.383,-18.303,9.881,386.925,3.820,12.352
1782117399.015544,0.543000,1844703,1000,12,0,1,701.356,-11.749,9.987,385.436,1.028,12.181
1782117399.016544,0.544000,1844704,1000,12,0,1,703.493,-6.708,10.014,385.604,1.638,12.009
1782117399.017545,0.545000,1844705,1000,12,0,1,705.367,-4.594,10.030,383.970,-0.058,11.861
1782117399.018544,0.546000,1844706,1000,12,0,1,702.388,-5.088,10.055,384.619,0.446,11.762
1782117399.019544,0.547000,1844707,1000,12,0,1,697.945,-8.985,10.134,383.034,-0.088,11.729
1782117399.020545,0.548000,1844708,1000,12,0,1,695.230,-9.808,10.228,384.835,0.928,11.718
1782117399.021544,0.549000,1844709,1000,12,0,1,693.141,-10.158,10.326,387.021,4.049,11.726
1782117399.022544,0.550000,1844710,1000,12,0,1,698.449,-5.003,10.350,383.130,1.036,11.726
1782117399.023545,0.551000,1844711,1000,12,0,1,705.727,3.091,10.359,382.505,-0.149,11.725
1782117399.024544,0.552000,1844712,1000,12,0,1,707.433,4.189,10.375,384.547,2.923,11.732
1782117399.025544,0.553000,1844713,1000,12,0,1,706.640,2.377,10.380,384.283,3.041,11.740
1782117399.026544,0.554000,1844714,1000,12,0,1,705.391,0.244,10.380,384.595,3.310,11.749
1782117399.027544,0.555000,1844715,1000,12,0,1,704.839,-0.959,10.381,385.027,3.897,11.762
1782117399.028544,0.556000,1844716,1000,12,0,1,705.823,-0.536,10.367,386.324,4.630,11.777
1782117399.029544,0.557000,1844717,1000,12,0,1,706.040,-0.260,10.339,387.285,5.297,11.784
1782117399.030545,0.558000,1844718,1000,12,0,1,705.439,-0.960,10.307,387.814,4.894,11.792
1782117399.031544,0.559000,1844719,1000,12,0,1,706.856,0.242,10.294,389.591,5.462,11.814
1782117399.032544,0.560000,1844720,1000,12,0,1,706.544,0.750,10.292,390.480,5.400,11.835
1782117399.033545,0.561000,1844721,1000,12,0,1,706.520,0.527,10.269,390.216,3.805,11.841
1782117399.034544,0.562000,1844722,1000,12,0,1,706.088,1.017,10.250,391.393,3.471,11.844
1782117399.035544,0.563000,1844723,1000,12,0,1,706.520,1.403,10.240,390.480,2.028,11.847
1782117399.036544,0.564000,1844724,1000,12,0,1,706.544,2.195,10.244,389.952,0.100,11.825
1782117399.037544,0.565000,1844725,1000,12,0,1,708.274,3.412,10.255,389.615,-0.458,11.822
1782117399.038544,0.566000,1844726,1000,12,0,1,707.072,3.078,10.247,391.081,-0.059,11.817
1782117399.039544,0.567000,1844727,1000,12,0,1,706.064,1.230,10.231,389.087,-1.247,11.818
1782117399.040545,0.568000,1844728,1000,12,0,1,704.478,0.202,10.221,387.670,-3.405,11.821
1782117399.041544,0.569000,1844729,1000,12,0,1,702.557,-1.944,10.222,387.381,-2.844,11.809
1782117399.042544,0.570000,1844730,1000,12,0,1,701.115,-3.133,10.231,386.709,-3.060,11.642
1782117399.043545,0.571000,1844731,1000,12,0,1,704.718,-0.547,10.229,403.139,9.459,9.877
1782117399.044544,0.572000,1844732,1000,12,0,1,709.907,4.088,10.245,409.072,17.593,7.576
1782117399.045544,0.573000,1844733,1000,12,0,1,710.604,4.021,10.211,398.983,4.812,7.493
1782117399.046544,0.574000,1844734,1000,12,0,1,711.468,2.764,9.991,392.738,-2.622,7.362
1782117399.047544,0.575000,1844735,1000,12,0,1,712.525,2.936,9.690,393.795,-2.206,7.275
1782117399.048544,0.576000,1844736,1000,12,0,1,710.796,0.267,9.344,393.603,-1.650,7.166
1782117399.049544,0.577000,1844737,1000,12,0,1,712.958,0.753,9.047,395.452,-0.807,7.079
1782117399.050545,0.578000,1844738,1000,12,0,1,712.021,0.513,9.047,403.283,5.424,6.871
1782117399.051544,0.579000,1844739,1000,12,0,1,708.514,-3.457,8.576,396.725,1.099,6.287
1782117399.052544,0.580000,1844740,1000,12,0,1,707.649,-3.899,8.354,394.828,-4.869,5.948
1782117399.053545,0.581000,1844741,1000,12,0,1,707.000,-3.427,8.355,396.797,-1.154,5.848
1782117399.054544,0.582000,1844742,1000,12,0,1,704.046,-4.909,8.376,394.347,-4.350,5.761
1782117399.055544,0.583000,1844743,1000,12,0,1,702.316,-5.469,8.230,395.044,-4.109,5.756
1782117399.056545,0.584000,1844744,1000,12,0,1,703.878,-2.802,7.520,393.483,-4.588,4.912
1782117399.057544,0.585000,1844745,1000,12,0,1,703.397,-1.442,6.891,391.201,-7.103,4.722
1782117399.058544,0.586000,1844746,1000,12,0,1,706.304,0.880,6.418,390.552,-6.629,4.518
1782117399.059544,0.587000,1844747,1000,12,0,1,703.998,0.846,6.109,389.567,-6.814,4.534
1782117399.060544,0.588000,1844748,1000,12,0,1,702.100,-2.220,5.744,389.327,-5.952,4.531
1782117399.061544,0.589000,1844749,1000,12,0,1,702.797,-0.637,5.136,389.087,-5.086,4.545
1782117399.062544,0.590000,1844750,1000,12,0,1,703.830,-0.037,5.091,389.183,-3.969,4.580
1782117399.063545,0.591000,1844751,1000,12,0,1,702.292,-1.110,4.715,389.928,-2.365,4.578
1782117399.064544,0.592000,1844752,1000,12,0,1,702.869,-1.532,3.947,390.912,-0.643,4.547
1782117399.065544,0.593000,1844753,1000,12,0,1,703.710,-0.528,3.580,391.609,0.568,4.546
1782117399.066545,0.594000,1844754,1000,12,0,1,705.055,0.027,3.453,392.234,1.447,4.544
1782117399.067544,0.595000,1844755,1000,12,0,1,707.721,1.937,3.402,394.516,3.372,4.569
1782117399.068544,0.596000,1844756,1000,12,0,1,705.031,-0.046,3.325,396.077,4.871,4.620
1782117399.069544,0.597000,1844757,1000,12,0,1,703.998,-2.405,3.091,395.356,3.720,4.650
1782117399.070544,0.598000,1844758,1000,12,0,1,705.727,0.064,2.763,395.909,3.302,4.672
1782117399.071544,0.599000,1844759,1000,12,0,1,705.439,0.054,2.360,395.188,2.586,4.651
1782117399.072544,0.600000,1844760,1000,12,0,1,706.352,0.992,2.256,396.101,2.190,4.659
1782117399.073545,0.601000,1844761,1000,12,0,1,705.847,1.424,2.222,398.359,3.968,4.693
1782117399.074544,0.602000,1844762,1000,12,0,1,707.193,2.331,2.167,397.038,2.328,4.686
1782117399.075544,0.603000,1844763,1000,12,0,1,706.592,2.992,2.182,396.870,0.864,4.668
1782117399.076545,0.604000,1844764,1000,12,0,1,705.367,1.490,2.192,394.852,-0.592,4.645
1782117399.077544,0.605000,1844765,1000,12,0,1,703.013,0.277,2.188,395.548,-1.237,4.615
1782117399.078544,0.606000,1844766,1000,12,0,1,699.578,-2.560,2.216,400.088,3.009,4.589
1782117399.079545,0.607000,1844767,1000,12,0,1,697.752,-3.587,2.273,400.641,3.465,4.553
1782117399.080544,0.608000,1844768,1000,12,0,1,699.026,-1.849,2.284,397.494,-0.145,4.501
1782117399.081544,0.609000,1844769,1000,12,0,1,702.677,1.707,2.297,393.603,-3.764,4.466
1782117399.082544,0.610000,1844770,1000,12,0,1,703.782,3.000,2.333,392.450,-4.843,4.453
1782117399.083544,0.611000,1844771,1000,12,0,1,694.245,-5.110,2.442,394.443,-2.298,4.432
1782117399.084544,0.612000,1844772,1000,12,0,1,690.738,-9.946,2.814,395.356,-0.717,4.406
1782117399.085544,0.613000,1844773,1000,12,0,1,687.376,-10.019,3.144,396.053,-0.075,4.397
1782117399.086545,0.614000,1844774,1000,12,0,1,686.102,-11.103,3.501,395.020,-0.495,4.397
1782117399.087544,0.615000,1844775,1000,12,0,1,694.774,-2.103,3.480,391.753,-3.274,4.421
1782117399.088544,0.616000,1844776,1000,12,0,1,702.605,6.438,3.571,392.234,-2.987,4.441
1782117399.089545,0.617000,1844777,1000,12,0,1,710.267,11.663,3.930,392.378,-1.638,4.444
1782117399.090544,0.618000,1844778,1000,12,0,1,716.320,16.218,4.550,395.092,0.181,4.418
1782117399.091544,0.619000,1844779,1000,12,0,1,715.288,13.108,4.905,399.536,4.550,4.446
1782117399.092544,0.620000,1844780,1000,12,0,1,704.022,2.076,4.894,398.791,3.655,4.455
1782117399.093544,0.621000,1844781,1000,12,0,1,698.353,-5.292,4.950,396.990,0.763,4.251
1782117399.094544,0.622000,1844782,1000,12,0,1,709.931,5.084,4.969,394.203,-1.640,3.454
1782117399.095544,0.623000,1844783,1000,12,0,1,712.525,10.072,5.138,396.533,-0.766,3.388
1782117399.096545,0.624000,1844784,1000,12,0,1,710.483,5.532,5.182,397.494,1.311,3.373
1782117399.097544,0.625000,1844785,1000,12,0,1,706.184,2.498,5.177,394.996,-1.612,3.366
1782117399.098544,0.626000,1844786,1000,12,0,1,702.677,-1.944,5.185,395.236,-1.579,3.366
1782117399.099545,0.627000,1844787,1000,12,0,1,698.833,-4.091,5.216,396.773,0.205,3.364
1782117399.100544,0.628000,1844788,1000,12,0,1,688.817,-11.732,5.473,398.503,1.598,3.283
1782117399.101544,0.629000,1844789,1000,12,0,1,684.661,-15.106,5.855,401.145,3.784,3.323
1782117399.102545,0.630000,1844790,1000,12,0,1,694.342,-4.732,5.867,396.437,0.186,3.251
1782117399.103544,0.631000,1844791,1000,12,0,1,697.512,0.923,5.848,396.365,-1.686,3.255
1782117399.104544,0.632000,1844792,1000,12,0,1,690.618,-5.480,5.858,401.049,3.425,3.233
1782117399.105544,0.633000,1844793,1000,12,0,1,683.893,-11.436,6.028,401.337,3.671,3.223
1782117399.106544,0.634000,1844794,1000,12,0,1,681.611,-12.307,6.262,400.497,1.922,3.168
1782117399.107544,0.635000,1844795,1000,12,0,1,671.882,-17.582,6.734,405.109,4.991,3.087
1782117399.108544,0.636000,1844796,1000,12,0,1,669.192,-19.367,7.269,409.168,8.203,3.161
1782117399.109545,0.637000,1844797,1000,12,0,1,686.799,-1.398,7.271,405.829,4.318,3.072
1782117399.110544,0.638000,1844798,1000,12,0,1,702.220,15.532,7.589,398.815,-3.408,2.994
1782117399.111544,0.639000,1844799,1000,12,0,1,704.839,16.588,7.943,397.638,-5.306,3.001
1782117399.112545,0.640000,1844800,1000,12,0,1,695.182,7.157,8.007,398.263,-3.839,2.998
1782117399.113544,0.641000,1844801,1000,12,0,1,699.914,7.049,8.067,395.572,-5.644,3.084
1782117399.114544,0.642000,1844802,1000,12,0,1,715.384,21.714,8.629,391.225,-8.930,3.332
1782117399.115544,0.643000,1844803,1000,12,0,1,711.708,18.252,9.007,393.002,-7.023,3.476
1782117399.116544,0.644000,1844804,1000,12,0,1,700.107,4.235,9.026,396.413,-2.264,3.484
1782117399.117544,0.645000,1844805,1000,12,0,1,703.662,5.407,9.055,400.881,1.632,3.459
1782117399.118544,0.646000,1844806,1000,12,0,1,719.299,18.696,9.433,400.329,2.056,3.402
1782117399.119545,0.647000,1844807,1000,12,0,1,724.199,22.789,9.962,398.575,-0.643,3.363
1782117399.120544,0.648000,1844808,1000,12,0,1,720.452,14.974,10.185,396.846,-1.723,3.339
1782117399.121544,0.649000,1844809,1000,12,0,1,709.667,3.599,10.198,399.296,-0.166,3.319
1782117399.122545,0.650000,1844810,1000,12,0,1,700.587,-7.413,10.250,399.704,1.317,3.310
1782117399.123544,0.651000,1844811,1000,12,0,1,691.843,-14.021,10.439,398.863,-0.071,3.262
1782117399.124544,0.652000,1844812,1000,12,0,1,692.924,-13.828,10.615,397.614,-0.799,3.247
1782117399.125545,0.653000,1844813,1000,12,0,1,699.530,-5.641,10.637,397.734,-0.803,3.247
1782117399.126544,0.654000,1844814,1000,12,0,1,701.067,-3.674,10.647,397.494,-0.476,3.247
1782117399.127544,0.655000,1844815,1000,12,0,1,700.107,-5.188,10.672,398.839,0.600,3.243
1782117399.128544,0.656000,1844816,1000,12,0,1,698.305,-6.692,10.708,400.184,2.092,3.228
1782117399.129544,0.657000,1844817,1000,12,0,1,695.951,-9.041,10.772,400.425,2.161,3.206
1782117399.130544,0.658000,1844818,1000,12,0,1,695.711,-8.728,10.840,399.392,0.979,3.209
1782117399.131544,0.659000,1844819,1000,12,0,1,700.755,-4.208,10.853,399.440,0.655,3.165
1782117399.132545,0.660000,1844820,1000,12,0,1,704.646,0.546,10.845,398.935,0.270,3.091
1782117399.133544,0.661000,1844821,1000,12,0,1,705.559,0.873,10.822,399.848,0.616,3.075
1782117399.134544,0.662000,1844822,1000,12,0,1,704.502,0.180,10.730,400.304,1.167,3.078
1782117399.135545,0.663000,1844823,1000,12,0,1,704.622,-0.061,10.636,398.023,-0.951,3.080
1782117399.136544,0.664000,1844824,1000,12,0,1,705.391,1.314,10.521,398.215,-1.451,3.087
1782117399.137544,0.665000,1844825,1000,12,0,1,706.112,2.203,10.521,399.152,-0.018,3.052
1782117399.138544,0.666000,1844826,1000,12,0,1,705.319,2.101,10.486,397.999,-1.118,3.026
1782117399.139544,0.667000,1844827,1000,12,0,1,704.358,1.390,10.358,398.407,-0.963,3.021
1782117399.140544,0.668000,1844828,1000,12,0,1,706.880,3.567,10.113,397.662,-1.043,3.024
1782117399.141544,0.669000,1844829,1000,12,0,1,707.793,5.054,9.967,398.479,-0.770,2.957
1782117399.142545,0.670000,1844830,1000,12,0,1,706.232,2.926,9.972,395.741,-1.985,2.925
1782117399.143544,0.671000,1844831,1000,12,0,1,706.352,2.378,9.949,394.804,-3.563,2.966
1782117399.144544,0.672000,1844832,1000,12,0,1,708.274,3.373,9.935,395.765,-1.460,2.964
1782117399.145545,0.673000,1844833,1000,12,0,1,707.433,2.167,9.837,394.371,-2.130,2.977
1782117399.146544,0.674000,1844834,1000,12,0,1,707.241,0.331,9.806,393.218,-2.842,2.999
1782117399.147544,0.675000,1844835,1000,12,0,1,710.580,2.194,9.804,396.461,0.321,2.990
1782117399.148545,0.676000,1844836,1000,12,0,1,709.066,0.493,9.801,397.806,2.455,3.002
1782117399.149544,0.677000,1844837,1000,12,0,1,709.715,-1.356,9.785,400.040,3.607,3.045
1782117399.150544,0.678000,1844838,1000,12,0,1,708.201,-2.236,9.649,401.385,4.931,3.116
1782117399.151544,0.679000,1844839,1000,12,0,1,708.946,-3.494,9.422,400.953,3.660,3.113
1782117399.152544,0.680000,1844840,1000,12,0,1,709.595,-2.083,9.403,403.619,4.826,3.186
1782117399.153544,0.681000,1844841,1000,12,0,1,708.466,-3.603,9.416,404.820,5.754,3.280
1782117399.154544,0.682000,1844842,1000,12,0,1,707.961,-3.722,9.399,404.844,4.167,3.297
1782117399.155545,0.683000,1844843,1000,12,0,1,709.114,-2.237,9.264,406.021,4.369,3.314
1782117399.156544,0.684000,1844844,1000,12,0,1,708.586,-1.751,9.103,405.181,2.842,3.327
1782117399.157544,0.685000,1844845,1000,12,0,1,710.724,0.207,8.756,405.805,2.082,3.265
1782117399.158545,0.686000,1844846,1000,12,0,1,710.363,1.253,8.319,406.021,2.046,3.066
1782117399.159544,0.687000,1844847,1000,12,0,1,709.427,0.207,8.317,405.061,0.352,3.005
1782117399.160544,0.688000,1844848,1000,12,0,1,709.234,0.663,8.022,403.283,-1.437,2.973
1782117399.161544,0.689000,1844849,1000,12,0,1,710.724,1.988,7.676,405.853,-0.067,2.876
1782117399.162544,0.690000,1844850,1000,12,0,1,711.997,3.277,7.623,407.174,1.776,2.836
1782117399.163544,0.691000,1844851,1000,12,0,1,709.787,1.272,7.560,406.190,0.047,2.721
1782117399.164544,0.692000,1844852,1000,12,0,1,707.048,-2.005,6.914,403.331,-2.443,2.435
1782117399.165545,0.693000,1844853,1000,12,0,1,705.415,-3.376,6.432,404.172,-2.496,2.251
1782117399.166544,0.694000,1844854,1000,12,0,1,704.646,-4.248,6.432,404.652,-1.195,2.235
1782117399.167544,0.695000,1844855,1000,12,0,1,708.177,-1.448,6.390,405.805,-0.821,2.226
1782117399.168545,0.696000,1844856,1000,12,0,1,712.910,2.663,5.829,401.001,-3.930,2.276
1782117399.169544,0.697000,1844857,1000,12,0,1,710.555,0.441,4.858,398.815,-7.015,2.481
1782117399.170544,0.698000,1844858,1000,12,0,1,707.673,-3.806,4.405,401.722,-3.288,2.512
1782117399.171544,0.699000,1844859,1000,12,0,1,702.605,-7.411,4.499,403.235,-1.204,2.518
1782117399.172544,0.700000,1844860,1000,12,0,1,701.572,-8.901,4.553,403.739,-0.915,2.514
1782117399.173544,0.701000,1844861,1000,12,0,1,704.238,-4.671,4.151,402.250,-1.717,2.526
1782117399.174544,0.702000,1844862,1000,12,0,1,707.193,-1.238,3.666,400.713,-3.485,2.571
1782117399.175545,0.703000,1844863,1000,12,0,1,707.241,-0.000,3.578,403.980,-0.476,2.569
1782117399.176544,0.704000,1844864,1000,12,0,1,707.072,0.043,3.540,406.718,2.466,2.592
1782117399.177544,0.705000,1844865,1000,12,0,1,701.716,-3.035,3.490,408.616,3.522,2.638
1782117399.178545,0.706000,1844866,1000,12,0,1,699.218,-5.254,3.440,411.450,5.318,2.727
1782117399.179544,0.707000,1844867,1000,12,0,1,697.801,-3.990,3.243,413.083,6.053,2.842
1782117399.180544,0.708000,1844868,1000,12,0,1,697.776,-2.981,3.028,417.719,8.242,3.069
1782117399.181545,0.709000,1844869,1000,12,0,1,696.984,-1.688,2.979,427.232,14.945,3.725
1782117399.182544,0.710000,1844870,1000,12,0,1,696.191,-1.523,2.986,433.525,18.459,4.548
1782117399.183544,0.711000,1844871,1000,12,0,1,702.509,4.044,3.038,434.918,16.125,5.087
1782117399.184544,0.712000,1844872,1000,12,0,1,713.630,14.093,3.633,430.571,9.318,5.253
1782117399.185544,0.713000,1844873,1000,12,0,1,716.272,15.568,4.248,433.237,7.254,5.350
1782117399.186544,0.714000,1844874,1000,12,0,1,710.676,7.940,4.390,436.600,9.272,5.505
1782117399.187544,0.715000,1844875,1000,12,0,1,709.883,4.020,4.416,439.338,8.191,5.625
1782117399.188545,0.716000,1844876,1000,12,0,1,705.992,0.695,4.407,439.242,6.363,5.695
1782117399.189544,0.717000,1844877,1000,12,0,1,703.349,-3.938,4.437,429.802,-3.711,5.717
1782117399.190544,0.718000,1844878,1000,12,0,1,705.655,-1.613,4.415,414.861,-18.012,6.257
1782117399.191545,0.719000,1844879,1000,12,0,1,700.731,-4.961,4.413,402.442,-27.852,7.393
1782117399.192544,0.720000,1844880,1000,12,0,1,698.857,-7.692,4.526,394.011,-32.003,8.664
1782117399.193544,0.721000,1844881,1000,12,0,1,697.776,-6.205,4.598,389.447,-31.407,9.723
1782117399.194544,0.722000,1844882,1000,12,0,1,699.674,-4.490,4.617,392.810,-24.264,10.309
1782117399.195544,0.723000,1844883,1000,12,0,1,700.347,-1.418,4.611,392.234,-18.785,10.641
1782117399.196544,0.724000,1844884,1000,12,0,1,697.296,-3.452,4.637,394.948,-14.680,10.834
1782117399.197544,0.725000,1844885,1000,12,0,1,683.436,-12.752,4.965,405.901,-1.947,10.838
1782117399.198545,0.726000,1844886,1000,12,0,1,682.523,-14.126,5.352,411.570,5.014,10.855
1782117399.199544,0.727000,1844887,1000,12,0,1,704.430,8.019,5.467,404.100,-1.079,10.844
1782117399.200544,0.728000,1844888,1000,12,0,1,718.146,22.951,6.350,396.773,-8.451,10.888
1782117399.201545,0.729000,1844889,1000,12,0,1,710.531,14.213,6.642,399.656,-5.109,10.899
1782117399.202544,0.730000,1844890,1000,12,0,1,706.328,6.341,6.696,404.916,1.625,10.880
1782117399.203544,0.731000,1844891,1000,12,0,1,709.354,7.989,6.772,403.884,1.816,10.853
1782117399.204545,0.732000,1844892,1000,12,0,1,706.304,4.803,6.785,403.211,1.121,10.838
1782117399.205544,0.733000,1844893,1000,12,0,1,694.630,-6.527,6.840,403.355,2.337,10.826
1782117399.206544,0.734000,1844894,1000,12,0,1,686.487,-14.239,7.126,406.214,5.021,10.841
1782117399.207544,0.735000,1844895,1000,12,0,1,687.976,-11.669,7.315,404.604,5.178,10.862
1782117399.208544,0.736000,1844896,1000,12,0,1,696.744,-2.229,7.319,398.839,0.143,10.858
1782117399.209544,0.737000,1844897,1000,12,0,1,710.507,10.095,7.457,395.236,-2.202,10.863
1782117399.210544,0.738000,1844898,1000,12,0,1,719.443,17.679,7.865,393.050,-2.348,10.866
1782117399.211545,0.739000,1844899,1000,12,0,1,718.194,13.967,8.104,394.131,-0.313,10.866
1782117399.212544,0.740000,1844900,1000,12,0,1,724.127,14.528,8.348,396.125,3.231,10.873
1782117399.213544,0.741000,1844901,1000,12,0,1,728.475,17.214,8.694,394.708,2.749,10.880
1782117399.214545,0.742000,1844902,1000,12,0,1,722.758,8.894,8.779,395.236,3.012,10.882
1782117399.215544,0.743000,1844903,1000,12,0,1,714.927,-0.551,8.767,398.791,6.240,10.912
1782117399.216544,0.744000,1844904,1000,12,0,1,711.300,-4.876,8.773,399.392,6.686,10.952
1782117399.217544,0.745000,1844905,1000,12,0,1,709.835,-5.692,8.808,400.088,5.740,10.981
1782117399.218544,0.746000,1844906,1000,12,0,1,709.427,-5.415,8.833,399.968,5.065,10.991
1782117399.219544,0.747000,1844907,1000,12,0,1,707.769,-5.808,8.871,400.785,4.149,10.962
1782117399.220544,0.748000,1844908,1000,12,0,1,709.667,-3.971,8.872,400.208,3.255,10.961
1782117399.221545,0.749000,1844909,1000,12,0,1,714.375,0.953,8.811,399.728,1.530,10.962
1782117399.222544,0.750000,1844910,1000,12,0,1,718.050,4.049,8.740,398.647,0.504,10.962
1782117399.223544,0.751000,1844911,1000,12,0,1,723.575,7.330,8.776,397.326,-1.008,10.960
1782117399.224545,0.752000,1844912,1000,12,0,1,722.350,5.817,8.813,397.758,-0.499,10.949
1782117399.225544,0.753000,1844913,1000,12,0,1,717.281,-1.439,8.815,396.365,-0.754,10.949
1782117399.226544,0.754000,1844914,1000,12,0,1,709.643,-8.443,8.896,396.197,-0.919,10.945
1782117399.227545,0.755000,1844915,1000,12,0,1,707.121,-11.944,9.044,398.335,2.002,10.937
1782117399.228544,0.756000,1844916,1000,12,0,1,705.439,-11.460,9.158,399.560,3.625,10.923
1782117399.229544,0.757000,1844917,1000,12,0,1,706.400,-10.512,9.261,400.665,4.694,10.910
1782117399.230544,0.758000,1844918,1000,12,0,1,707.577,-7.559,9.313,402.322,6.011,10.880
1782117399.231544,0.759000,1844919,1000,12,0,1,707.817,-6.665,9.358,400.449,4.444,10.692
1782117399.232544,0.760000,1844920,1000,12,0,1,706.184,-6.821,9.405,402.562,4.697,10.389
1782117399.233544,0.761000,1844921,1000,12,0,1,701.668,-9.382,9.481,406.622,8.249,10.203
1782117399.234545,0.762000,1844922,1000,12,0,1,701.620,-8.664,9.349,406.093,6.636,10.161
1782117399.235544,0.763000,1844923,1000,12,0,1,709.499,0.092,9.087,403.211,2.428,10.115
1782117399.236544,0.764000,1844924,1000,12,0,1,709.427,2.489,9.024,407.126,3.743,10.043
1782117399.237545,0.765000,1844925,1000,12,0,1,708.946,1.079,9.007,409.552,5.654,10.008
1782117399.238544,0.766000,1844926,1000,12,0,1,707.625,1.480,9.009,406.142,0.848,9.969
1782117399.239544,0.767000,1844927,1000,12,0,1,703.902,-1.673,8.995,408.688,0.650,9.955
1782117399.240544,0.768000,1844928,1000,12,0,1,702.028,-2.616,9.000,414.357,5.223,9.652
1782117399.241544,0.769000,1844929,1000,12,0,1,703.950,-0.086,8.972,414.068,3.720,8.827
1782117399.242544,0.770000,1844930,1000,12,0,1,704.070,1.210,8.908,418.104,4.482,7.605
1782117399.243544,0.771000,1844931,1000,12,0,1,702.821,0.258,8.864,418.488,4.825,6.211
1782117399.244545,0.772000,1844932,1000,12,0,1,702.773,0.317,8.842,420.794,3.743,5.204
1782117399.245544,0.773000,1844933,1000,12,0,1,701.428,-0.259,8.840,421.491,4.428,4.519
1782117399.246544,0.774000,1844934,1000,12,0,1,696.864,-4.043,8.845,420.554,1.583,4.020
1782117399.247545,0.775000,1844935,1000,12,0,1,697.224,-3.918,8.677,419.017,-0.142,4.011
1782117399.248544,0.776000,1844936,1000,12,0,1,701.740,0.996,8.445,418.512,-1.374,3.952
1782117399.249544,0.777000,1844937,1000,12,0,1,704.742,3.983,8.387,417.335,-2.266,3.962
1782117399.250545,0.778000,1844938,1000,12,0,1,708.394,6.278,7.784,418.080,-1.998,3.788
1782117399.251544,0.779000,1844939,1000,12,0,1,704.694,3.523,7.537,419.713,-0.456,3.719
1782117399.252544,0.780000,1844940,1000,12,0,1,705.487,1.619,7.487,421.082,0.445,3.713
1782117399.253544,0.781000,1844941,1000,12,0,1,706.304,3.788,7.420,421.419,0.070,3.704
1782117399.254544,0.782000,1844942,1000,12,0,1,704.118,0.872,7.390,420.962,-1.033,3.703
1782117399.255544,0.783000,1844943,1000,12,0,1,704.502,1.229,7.334,419.857,-2.915,3.711
1782117399.256544,0.784000,1844944,1000,12,0,1,705.823,2.801,7.064,421.899,-2.168,3.656
1782117399.257545,0.785000,1844945,1000,12,0,1,703.998,1.566,6.872,423.340,-1.239,3.586
1782117399.258544,0.786000,1844946,1000,12,0,1,701.956,-0.195,6.865,424.541,-1.491,3.592
1782117399.259544,0.787000,1844947,1000,12,0,1,705.439,2.655,6.725,422.908,-3.349,3.610
1782117399.260545,0.788000,1844948,1000,12,0,1,705.103,3.868,6.267,422.307,-5.215,3.669
1782117399.261544,0.789000,1844949,1000,12,0,1,704.454,1.922,5.954,422.980,-4.579,3.726
1782117399.262544,0.790000,1844950,1000,12,0,1,704.791,2.771,5.602,425.694,-2.693,3.717
1782117399.263544,0.791000,1844951,1000,12,0,1,701.428,-0.400,5.045,426.679,-1.441,3.702
1782117399.264544,0.792000,1844952,1000,12,0,1,701.548,-1.150,4.889,430.354,0.731,3.679
1782117399.265544,0.793000,1844953,1000,12,0,1,701.956,-0.035,4.888,432.108,2.783,3.594
1782117399.266544,0.794000,1844954,1000,12,0,1,698.377,-3.346,4.862,436.720,5.080,3.541
1782117399.267545,0.795000,1844955,1000,12,0,1,691.795,-8.682,4.950,445.535,12.049,3.845
1782117399.268544,0.796000,1844956,1000,12,0,1,695.422,-6.255,4.970,447.505,12.819,4.190
1782117399.269544,0.797000,1844957,1000,12,0,1,701.668,1.475,4.906,449.451,10.843,4.423
1782117399.270545,0.798000,1844958,1000,12,0,1,698.065,-1.236,4.877,455.552,14.075,4.828
1782117399.271544,0.799000,1844959,1000,12,0,1,697.392,-3.160,4.895,457.690,13.413,5.183
1782117399.272544,0.800000,1844960,1000,12,0,1,694.005,-4.082,4.896,459.371,11.129,5.416
1782117399.273545,0.801000,1844961,1000,12,0,1,697.032,-2.840,4.802,459.467,8.537,5.547
1782117399.274544,0.802000,1844962,1000,12,0,1,707.072,7.615,4.852,453.726,0.868,5.548
1782117399.275544,0.803000,1844963,1000,12,0,1,711.084,11.147,5.097,449.066,-5.981,5.611
1782117399.276544,0.804000,1844964,1000,12,0,1,707.841,7.132,5.057,442.173,-12.053,5.863
1782117399.277544,0.805000,1844965,1000,12,0,1,709.835,6.703,4.860,431.531,-21.425,6.594
1782117399.278544,0.806000,1844966,1000,12,0,1,711.829,8.581,4.740,416.831,-31.917,7.974
1782117399.279544,0.807000,1844967,1000,12,0,1,715.528,9.764,4.707,403.043,-40.787,9.819
1782117399.280545,0.808000,1844968,1000,12,0,1,709.763,5.243,4.644,404.412,-35.412,10.990
1782117399.281544,0.809000,1844969,1000,12,0,1,701.500,-4.370,4.589,410.105,-23.255,11.454
1782117399.282544,0.810000,1844970,1000,12,0,1,698.137,-6.802,4.589,413.492,-16.358,11.666
1782117399.283545,0.811000,1844971,1000,12,0,1,694.342,-8.673,4.561,419.113,-8.266,11.667
1782117399.284544,0.812000,1844972,1000,12,0,1,694.414,-8.162,4.542,418.176,-5.818,11.658
1782117399.285544,0.813000,1844973,1000,12,0,1,695.711,-4.805,4.593,414.669,-8.034,11.708
1782117399.286544,0.814000,1844974,1000,12,0,1,702.244,0.402,4.579,410.513,-9.044,11.766
1782117399.287544,0.815000,1844975,1000,12,0,1,715.167,11.935,4.878,408.880,-8.787,11.804
1782117399.288544,0.816000,1844976,1000,12,0,1,719.803,15.140,5.323,415.293,-0.961,11.804
1782117399.289544,0.817000,1844977,1000,12,0,1,711.372,5.220,5.369,423.076,8.226,11.861
1782117399.290545,0.818000,1844978,1000,12,0,1,705.775,-3.122,5.374,427.928,12.871,11.977
1782117399.291544,0.819000,1844979,1000,12,0,1,704.959,-3.977,5.404,430.114,14.434,12.139
1782117399.292544,0.820000,1844980,1000,12,0,1,708.274,-1.827,5.407,430.354,13.541,12.273
1782117399.293545,0.821000,1844981,1000,12,0,1,715.576,4.421,5.443,424.109,7.842,12.304
1782117399.294544,0.822000,1844982,1000,12,0,1,716.969,5.680,5.502,421.635,3.830,12.304
1782117399.295544,0.823000,1844983,1000,12,0,1,707.121,-3.664,5.526,428.985,10.307,12.374
1782117399.296544,0.824000,1844984,1000,12,0,1,692.876,-16.209,5.955,440.179,19.516,12.676
1782117399.297544,0.825000,1844985,1000,12,0,1,690.859,-17.357,6.418,437.561,16.895,12.900
1782117399.298544,0.826000,1844986,1000,12,0,1,716.969,6.578,6.483,427.712,4.642,12.915
1782117399.299544,0.827000,1844987,1000,12,0,1,732.486,24.589,7.335,420.866,-2.543,12.916
1782117399.300545,0.828000,1844988,1000,12,0,1,714.063,6.477,7.339,423.460,-1.216,12.914
1782117399.301544,0.829000,1844989,1000,12,0,1,694.053,-14.904,7.619,430.595,5.569,12.938
1782117399.302544,0.830000,1844990,1000,12,0,1,690.979,-16.457,7.963,427.064,2.981,12.945
1782117399.303545,0.831000,1844991,1000,12,0,1,689.057,-14.177,8.194,422.980,-3.144,12.952
1782117399.304544,0.832000,1844992,1000,12,0,1,680.722,-18.452,8.599,422.548,-3.018,12.958
1782117399.305544,0.833000,1844993,1000,12,0,1,687.135,-12.091,8.766,416.182,-7.990,13.001
1782117399.306545,0.834000,1844994,1000,12,0,1,709.499,10.348,8.878,409.769,-13.420,13.135
1782117399.307544,0.835000,1844995,1000,12,0,1,710.243,13.764,9.086,410.537,-11.354,13.232
1782117399.308544,0.836000,1844996,1000,12,0,1,714.014,10.709,9.212,419.161,-2.237,13.234
1782117399.309544,0.837000,1844997,1000,12,0,1,720.980,17.069,9.515,430.426,8.735,13.283
1782117399.310544,0.838000,1844998,1000,12,0,1,718.194,11.107,9.628,441.500,17.397,13.489
1782117399.311544,0.839000,1844999,1000,12,0,1,713.150,3.774,9.639,455.888,26.893,14.000
1782117399.312544,0.840000,1845000,1000,12,0,1,707.457,-2.502,9.638,470.277,35.477,14.867
1782117399.313545,0.841000,1845001,1000,12,0,1,702.220,-7.846,9.701,488.917,44.476,16.141
1782117399.314544,0.842000,1845002,1000,12,0,1,697.296,-10.784,9.819,513.850,57.901,18.099
1782117399.315544,0.843000,1845003,1000,12,0,1,699.914,-8.143,9.887,526.269,59.775,19.972
1782117399.316545,0.844000,1845004,1000,12,0,1,704.935,-0.761,9.876,522.185,43.988,20.906
1782117399.317544,0.845000,1845005,1000,12,0,1,709.883,3.809,9.814,505.299,19.243,21.014
1782117399.318544,0.846000,1845006,1000,12,0,1,712.357,6.985,9.824,483.488,-7.609,20.963
1782117399.319544,0.847000,1845007,1000,12,0,1,706.544,1.937,9.825,474.408,-19.989,21.097
1782117399.320544,0.848000,1845008,1000,12,0,1,703.421,-1.927,9.828,458.050,-31.286,21.464
1782117399.321544,0.849000,1845009,1000,12,0,1,705.679,0.939,9.818,431.339,-53.110,22.661
1782117399.322544,0.850000,1845010,1000,12,0,1,710.868,5.339,9.830,396.894,-75.556,25.004
1782117399.323545,0.851000,1845011,1000,12,0,1,703.109,0.197,9.822,377.725,-84.832,27.707
1782117399.324544,0.852000,1845012,1000,12,0,1,699.626,-5.920,9.799,370.543,-76.144,29.726
1782117399.325544,0.853000,1845013,1000,12,0,1,701.235,-2.481,9.678,372.873,-62.205,30.989
1782117399.326545,0.854000,1845014,1000,12,0,1,698.497,-4.748,9.648,384.355,-40.259,31.461
1782117399.327544,0.855000,1845015,1000,12,0,1,699.602,-4.265,9.621,385.220,-28.831,31.579
1782117399.328544,0.856000,1845016,1000,12,0,1,701.980,-1.149,9.545,385.412,-24.314,31.444
1782117399.329545,0.857000,1845017,1000,12,0,1,707.361,2.377,9.451,388.006,-15.340,30.986
1782117399.330544,0.858000,1845018,1000,12,0,1,710.555,5.674,9.456,393.026,-7.954,30.599
1782117399.331544,0.859000,1845019,1000,12,0,1,712.429,5.148,9.463,393.987,-2.508,30.424
1782117399.332544,0.860000,1845020,1000,12,0,1,713.366,5.334,9.445,395.428,-0.238,30.336
1782117399.333544,0.861000,1845021,1000,12,0,1,710.387,1.558,9.367,396.773,4.037,30.319
1782117399.334544,0.862000,1845022,1000,12,0,1,705.920,-2.977,9.305,401.001,8.710,30.333
1782117399.335544,0.863000,1845023,1000,12,0,1,702.388,-5.780,9.316,406.286,15.504,30.391
1782117399.336545,0.864000,1845024,1000,12,0,1,701.788,-5.484,9.349,410.922,20.337,30.500
1782117399.337544,0.865000,1845025,1000,12,0,1,699.866,-5.103,9.223,411.786,21.923,30.632
1782117399.338544,0.866000,1845026,1000,12,0,1,706.112,0.222,8.971,412.123,22.026,30.789
1782117399.339545,0.867000,1845027,1000,12,0,1,720.596,14.146,9.162,407.439,18.915,30.883
1782117399.340544,0.868000,1845028,1000,12,0,1,725.592,18.595,9.522,405.205,16.383,30.917
1782117399.341544,0.869000,1845029,1000,12,0,1,723.166,13.289,9.689,404.700,17.256,30.946
1782117399.342544,0.870000,1845030,1000,12,0,1,719.011,7.444,9.743,401.049,14.659,30.956
1782117399.343544,0.871000,1845031,1000,12,0,1,715.047,1.865,9.726,400.256,13.341,30.993
1782117399.344544,0.872000,1845032,1000,12,0,1,709.955,-3.257,9.704,401.986,15.126,31.062
1782117399.345544,0.873000,1845033,1000,12,0,1,708.874,-5.384,9.720,402.659,14.490,31.096
1782117399.346545,0.874000,1845034,1000,12,0,1,711.684,-2.626,9.453,407.751,16.531,31.061
1782117399.347544,0.875000,1845035,1000,12,0,1,713.702,-1.012,9.130,410.441,16.914,31.061
1782117399.348544,0.876000,1845036,1000,12,0,1,713.006,-2.108,9.087,410.705,12.999,31.109
1782117399.349545,0.877000,1845037,1000,12,0,1,712.189,-3.638,8.411,410.585,9.315,31.135
1782117399.350544,0.878000,1845038,1000,12,0,1,709.499,-5.950,8.403,412.171,6.795,31.149
1782117399.351544,0.879000,1845039,1000,12,0,1,712.237,-4.519,8.160,412.339,4.211,31.145
1782117399.352545,0.880000,1845040,1000,12,0,1,713.726,-1.873,7.825,412.411,1.182,31.142
1782117399.353544,0.881000,1845041,1000,12,0,1,711.132,-4.490,7.591,413.948,0.539,31.139
1782117399.354544,0.882000,1845042,1000,12,0,1,711.636,-4.164,7.152,416.110,1.071,31.137
1782117399.355544,0.883000,1845043,1000,12,0,1,710.964,-3.388,6.962,415.822,0.181,31.116
1782117399.356544,0.884000,1845044,1000,12,0,1,712.885,-2.036,6.812,414.212,-1.624,31.059
1782117399.357544,0.885000,1845045,1000,12,0,1,710.363,-2.061,6.535,413.588,-1.819,31.019
1782117399.358544,0.886000,1845046,1000,12,0,1,711.588,-2.107,6.364,417.527,2.240,31.019
1782117399.359545,0.887000,1845047,1000,12,0,1,708.153,-2.158,5.896,423.052,8.200,31.016
1782117399.360544,0.888000,1845048,1000,12,0,1,706.880,-4.388,5.717,429.466,13.591,30.978
1782117399.361544,0.889000,1845049,1000,12,0,1,702.989,-4.811,5.732,441.908,22.717,30.911
1782117399.362545,0.890000,1845050,1000,12,0,1,700.107,-7.420,5.817,444.959,24.643,30.699
1782117399.363544,0.891000,1845051,1000,12,0,1,698.689,-6.337,5.780,448.418,21.577,30.202
1782117399.364544,0.892000,1845052,1000,12,0,1,702.461,-2.468,5.586,455.888,24.598,29.279
1782117399.365544,0.893000,1845053,1000,12,0,1,705.343,1.792,5.472,463.215,25.108,28.256
1782117399.366544,0.894000,1845054,1000,12,0,1,707.649,3.419,5.492,467.586,23.022,27.754
1782117399.367544,0.895000,1845055,1000,12,0,1,717.401,10.435,5.661,455.696,7.530,27.641
1782117399.368544,0.896000,1845056,1000,12,0,1,730.517,20.826,6.305,432.468,-18.655,27.746
1782117399.369545,0.897000,1845057,1000,12,0,1,741.518,26.544,7.332,414.573,-36.481,28.079
1782117399.370544,0.898000,1845058,1000,12,0,1,731.021,15.430,7.645,412.627,-37.540,28.232
1782117399.371544,0.899000,1845059,1000,12,0,1,715.432,-4.749,7.674,418.824,-28.147,27.504
1782117399.372545,0.900000,1845060,1000,12,0,1,700.635,-16.924,8.003,429.634,-16.867,25.456
1782117399.373544,0.901000,1845061,1000,12,0,1,680.698,-32.647,9.239,440.803,-5.241,22.464
1782117399.374544,0.902000,1845062,1000,12,0,1,681.082,-30.351,10.153,434.246,-9.253,19.758
1782117399.375545,0.903000,1845063,1000,12,0,1,704.911,-3.806,10.161,415.486,-26.037,18.071
1782117399.376544,0.904000,1845064,1000,12,0,1,715.119,10.511,10.247,404.148,-33.807,17.804
1782117399.377544,0.905000,1845065,1000,12,0,1,711.228,6.032,10.265,405.013,-27.991,17.777
1782117399.378544,0.906000,1845066,1000,12,0,1,701.980,-1.788,10.267,409.096,-18.051,17.628
1782117399.379544,0.907000,1845067,1000,12,0,1,691.363,-10.649,10.371,409.024,-12.825,17.587
1782117399.380544,0.908000,1845068,1000,12,0,1,699.722,-3.656,10.353,404.580,-12.309,17.637
1782117399.381544,0.909000,1845069,1000,12,0,1,709.883,9.364,10.412,398.623,-13.365,17.735
1782117399.382545,0.910000,1845070,1000,12,0,1,713.318,10.924,10.499,397.974,-10.248,17.794
1782117399.383544,0.911000,1845071,1000,12,0,1,716.104,12.227,10.638,400.521,-3.605,17.792
1782117399.384544,0.912000,1845072,1000,12,0,1,719.203,12.593,10.778,401.385,0.180,17.749
1782117399.385545,0.913000,1845073,1000,12,0,1,718.434,10.164,10.843,400.953,1.686,17.615
1782117399.386544,0.914000,1845074,1000,12,0,1,719.924,8.215,10.877,400.857,2.709,17.383
1782117399.387544,0.915000,1845075,1000,12,0,1,721.965,8.446,10.919,404.772,6.260,17.127
1782117399.388544,0.916000,1845076,1000,12,0,1,720.092,4.841,10.940,406.742,8.586,16.885
1782117399.389544,0.917000,1845077,1000,12,0,1,722.109,3.875,10.769,409.336,9.086,16.721
1782117399.390544,0.918000,1845078,1000,12,0,1,721.893,3.529,10.455,411.858,10.509,16.627
1782117399.391544,0.919000,1845079,1000,12,0,1,721.821,1.079,10.286,413.035,9.601,16.503
1782117399.392545,0.920000,1845080,1000,12,0,1,720.332,-0.030,10.232,410.898,6.561,16.398
1782117399.393544,0.921000,1845081,1000,12,0,1,719.203,-2.302,10.234,411.138,4.816,16.303
1782117399.394544,0.922000,1845082,1000,12,0,1,716.176,-4.092,10.240,414.092,7.030,16.193
1782117399.395545,0.923000,1845083,1000,12,0,1,717.257,-3.872,10.226,411.210,4.748,16.077
1782117399.396544,0.924000,1845084,1000,12,0,1,719.611,-0.431,10.220,404.580,-1.512,15.907
1782117399.397544,0.925000,1845085,1000,12,0,1,720.356,0.182,10.219,407.655,1.109,15.727
1782117399.398545,0.926000,1845086,1000,12,0,1,719.035,-0.811,10.215,410.753,6.381,15.646
1782117399.399544,0.927000,1845087,1000,12,0,1,719.900,-0.605,10.202,408.736,5.072,15.606
1782117399.400544,0.928000,1845088,1000,12,0,1,724.127,2.786,10.175,407.343,4.267,15.589
1782117399.401544,0.929000,1845089,1000,12,0,1,723.767,2.648,10.162,408.448,5.868,15.599
1782117399.402544,0.930000,1845090,1000,12,0,1,721.533,-1.083,10.160,407.295,5.647,15.619
1782117399.403544,0.931000,1845091,1000,12,0,1,716.393,-5.360,10.168,412.483,8.927,15.670
1782117399.404544,0.932000,1845092,1000,12,0,1,711.420,-10.546,10.260,414.453,11.469,15.753
1782117399.405545,0.933000,1845093,1000,12,0,1,710.507,-10.476,10.356,414.020,8.445,15.798
1782117399.406544,0.934000,1845094,1000,12,0,1,710.531,-9.243,10.434,416.615,8.875,15.846
1782117399.407544,0.935000,1845095,1000,12,0,1,714.183,-5.539,10.459,414.501,5.642,15.864
1782117399.408545,0.936000,1845096,1000,12,0,1,711.636,-5.583,10.485,413.540,1.492,15.862
1782117399.409544,0.937000,1845097,1000,12,0,1,711.588,-6.658,10.522,413.852,0.770,15.820
1782117399.410544,0.938000,1845098,1000,12,0,1,711.348,-4.461,10.523,416.711,0.764,15.703
1782117399.411544,0.939000,1845099,1000,12,0,1,710.676,-4.998,10.525,417.335,0.800,15.371
1782117399.412544,0.940000,1845100,1000,12,0,1,710.676,-3.423,10.483,415.702,-2.634,14.976
1782117399.413544,0.941000,1845101,1000,12,0,1,710.507,-2.620,10.452,416.855,-2.592,14.666
1782117399.414544,0.942000,1845102,1000,12,0,1,711.444,-0.872,10.447,417.119,-2.322,14.251
1782117399.415545,0.943000,1845103,1000,12,0,1,709.715,-0.808,10.444,415.462,-3.993,13.814
1782117399.416544,0.944000,1845104,1000,12,0,1,708.562,-1.634,10.435,415.462,-3.683,13.435
1782117399.417544,0.945000,1845105,1000,12,0,1,708.850,0.104,10.331,413.948,-3.761,13.403
1782117399.418545,0.946000,1845106,1000,12,0,1,708.586,0.541,9.902,415.221,-2.243,13.144
1782117399.419544,0.947000,1845107,1000,12,0,1,708.994,1.589,9.166,417.719,1.527,12.091
1782117399.420544,0.948000,1845108,1000,12,0,1,708.970,2.080,8.907,417.335,2.004,10.867
1782117399.421544,0.949000,1845109,1000,12,0,1,711.132,3.752,8.898,415.606,0.799,10.113
1782117399.422544,0.950000,1845110,1000,12,0,1,710.387,3.711,8.586,413.708,-0.356,9.827
1782117399.423544,0.951000,1845111,1000,12,0,1,710.724,2.720,7.249,414.068,-0.043,9.799
1782117399.424544,0.952000,1845112,1000,12,0,1,711.564,3.629,5.864,415.894,1.926,9.716
1782117399.425545,0.953000,1845113,1000,12,0,1,711.781,2.917,5.854,419.593,4.351,9.012
1782117399.426544,0.954000,1845114,1000,12,0,1,713.294,3.534,5.684,418.536,3.285,7.653
1782117399.427544,0.955000,1845115,1000,12,0,1,715.432,4.714,5.659,416.182,-0.967,6.551
1782117399.428545,0.956000,1845116,1000,12,0,1,713.558,2.612,5.665,417.335,-1.056,6.035
1782117399.429544,0.957000,1845117,1000,12,0,1,708.706,-2.397,5.472,417.071,-1.908,5.762
1782117399.430544,0.958000,1845118,1000,12,0,1,711.516,-1.014,5.449,418.416,-2.357,5.503
1782117399.431545,0.959000,1845119,1000,12,0,1,714.351,2.944,5.302,421.755,0.023,5.169
1782117399.432544,0.960000,1845120,1000,12,0,1,713.726,1.720,5.078,423.388,0.536,4.962
1782117399.433544,0.961000,1845121,1000,12,0,1,715.191,2.688,4.790,421.467,-1.759,4.942
1782117399.434544,0.962000,1845122,1000,12,0,1,715.456,3.150,4.469,421.010,-3.191,4.962
1782117399.435544,0.963000,1845123,1000,12,0,1,714.471,1.806,4.239,421.635,-2.124,4.966
1782117399.436544,0.964000,1845124,1000,12,0,1,712.693,0.412,4.077,419.689,-3.231,4.972
1782117399.437544,0.965000,1845125,1000,12,0,1,712.069,-0.386,3.898,418.152,-4.069,4.926
1782117399.438545,0.966000,1845126,1000,12,0,1,713.270,1.001,3.840,420.602,-0.957,4.776
1782117399.439544,0.967000,1845127,1000,12,0,1,716.368,3.503,3.833,420.818,0.950,4.602
1782117399.440544,0.968000,1845128,1000,12,0,1,717.257,4.366,3.851,421.539,1.662,4.362
1782117399.441545,0.969000,1845129,1000,12,0,1,712.117,-0.566,3.848,420.770,2.202,4.157
1782117399.442544,0.970000,1845130,1000,12,0,1,706.304,-6.401,3.953,427.064,6.435,4.153
1782117399.443544,0.971000,1845131,1000,12,0,1,703.109,-8.614,4.124,431.459,11.335,4.399
1782117399.444544,0.972000,1845132,1000,12,0,1,702.917,-7.934,4.235,429.562,7.615,4.418
1782117399.445544,0.973000,1845133,1000,12,0,1,705.631,-4.475,4.246,422.668,0.350,4.367
1782117399.446544,0.974000,1845134,1000,12,0,1,708.322,-1.237,4.250,421.347,-3.116,4.384
1782117399.447544,0.975000,1845135,1000,12,0,1,707.169,-1.683,4.256,420.098,-3.644,4.412
1782117399.448545,0.976000,1845136,1000,12,0,1,705.535,-3.362,4.281,419.737,-5.211,4.381
1782117399.449544,0.977000,1845137,1000,12,0,1,708.634,-0.628,4.281,422.836,-2.816,4.340
1782117399.450544,0.978000,1845138,1000,12,0,1,709.258,1.016,4.265,423.028,-2.535,4.313
1782117399.451545,0.979000,1845139,1000,12,0,1,707.649,-0.833,4.251,423.196,-3.788,4.266
1782117399.452544,0.980000,1845140,1000,12,0,1,705.247,-2.306,4.260,421.995,-4.360,4.236
1782117399.453544,0.981000,1845141,1000,12,0,1,702.076,-4.519,4.241,424.397,-3.500,4.073
1782117399.454545,0.982000,1845142,1000,12,0,1,701.836,-3.919,4.008,422.740,-3.145,3.763
1782117399.455544,0.983000,1845143,1000,12,0,1,701.067,-2.743,3.745,423.845,-3.554,3.604
1782117399.456544,0.984000,1845144,1000,12,0,1,701.067,-2.024,3.521,422.259,-2.500,3.396
1782117399.457544,0.985000,1845145,1000,12,0,1,704.694,2.217,3.447,420.025,-4.763,3.369
1782117399.458544,0.986000,1845146,1000,12,0,1,712.573,9.253,3.601,417.695,-4.691,3.428
1782117399.459544,0.987000,1845147,1000,12,0,1,709.787,8.091,3.660,417.023,-4.237,3.478
1782117399.460544,0.988000,1845148,1000,12,0,1,706.976,2.810,3.627,419.593,-0.375,3.477
1782117399.461545,0.989000,1845149,1000,12,0,1,707.745,3.926,3.600,418.824,0.958,3.477
1782117399.462544,0.990000,1845150,1000,12,0,1,707.841,3.301,3.598,419.713,1.395,3.463
1782117399.463544,0.991000,1845151,1000,12,0,1,706.400,1.743,3.587,419.017,2.452,3.461
1782117399.464545,0.992000,1845152,1000,12,0,1,708.562,2.550,3.603,419.353,1.702,3.454
1782117399.465544,0.993000,1845153,1000,12,0,1,708.826,3.005,3.626,419.665,2.716,3.429
1782117399.466544,0.994000,1845154,1000,12,0,1,710.748,3.122,3.646,418.608,0.886,3.391
1782117399.467544,0.995000,1845155,1000,12,0,1,710.243,2.759,3.667,417.191,-0.660,3.351
1782117399.468544,0.996000,1845156,1000,12,0,1,710.411,1.320,3.671,419.905,0.562,3.337
1782117399.469544,0.997000,1845157,1000,12,0,1,713.462,3.446,3.696,421.034,1.720,3.339
1782117399.470544,0.998000,1845158,1000,12,0,1,717.570,6.241,3.788,424.517,2.851,3.351
1782117399.471545,0.999000,1845159,1000,12,0,1,713.798,2.726,3.771,426.511,4.378,3.406
1782117399.472544,1.000000,1845160,1000,12,0,1,714.567,0.880,3.736,426.031,2.300,3.421
1782117399.473544,1.001000,1845161,1000,12,0,1,717.401,3.958,3.758,421.467,-2.078,3.433
1782117399.474545,1.002000,1845162,1000,12,0,1,713.366,0.131,3.723,420.866,-3.796,3.464
1782117399.475544,1.003000,1845163,1000,12,0,1,711.180,-3.038,3.725,419.233,-3.656,3.448
1782117399.476544,1.004000,1845164,1000,12,0,1,716.104,1.513,3.698,412.867,-8.320,3.614
1782117399.477545,1.005000,1845165,1000,12,0,1,713.294,0.336,3.637,413.756,-7.058,3.747
1782117399.478544,1.006000,1845166,1000,12,0,1,700.971,-10.517,3.912,417.744,-0.532,3.744
1782117399.479544,1.007000,1845167,1000,12,0,1,693.693,-16.660,4.554,420.170,2.483,3.751
1782117399.480544,1.008000,1845168,1000,12,0,1,696.071,-12.050,4.861,419.233,3.087,3.762
1782117399.481544,1.009000,1845169,1000,12,0,1,708.802,0.531,4.843,414.020,-1.103,3.765
1782117399.482544,1.010000,1845170,1000,12,0,1,724.055,15.115,5.288,412.819,-2.035,3.775
1782117399.483544,1.011000,1845171,1000,12,0,1,728.523,17.908,5.851,408.904,-3.355,3.797
1782117399.484545,1.012000,1845172,1000,12,0,1,727.202,12.910,6.113,407.871,-4.598,3.825
1782117399.485544,1.013000,1845173,1000,12,0,1,724.728,7.908,6.209,408.039,-2.463,3.830
1782117399.486544,1.014000,1845174,1000,12,0,1,721.725,2.720,6.221,413.252,1.406,3.807
1782117399.487545,1.015000,1845175,1000,12,0,1,712.405,-6.006,6.279,416.350,5.308,3.838
1782117399.488544,1.016000,1845176,1000,12,0,1,702.124,-15.892,6.667,416.711,3.929,3.875
1782117399.489544,1.017000,1845177,1000,12,0,1,708.898,-10.086,6.800,411.282,-0.946,3.875
1782117399.490544,1.018000,1845178,1000,12,0,1,711.684,-3.277,6.788,415.053,-0.381,3.869
1782117399.491544,1.019000,1845179,1000,12,0,1,707.577,-7.371,6.867,419.233,4.698,3.913
1782117399.492544,1.020000,1845180,1000,12,0,1,712.357,-2.723,6.818,421.899,5.071,3.873
1782117399.493544,1.021000,1845181,1000,12,0,1,716.993,3.177,6.723,426.271,7.958,3.701
1782117399.494545,1.022000,1845182,1000,12,0,1,703.157,-7.172,6.706,434.005,12.926,3.984
1782117399.495544,1.023000,1845183,1000,12,0,1,694.029,-16.658,7.080,437.368,14.628,4.489
1782117399.496544,1.024000,1845184,1000,12,0,1,703.157,-6.148,7.131,437.657,12.203,4.789
1782117399.497545,1.025000,1845185,1000,12,0,1,698.113,-5.288,7.166,446.688,16.607,5.309
1782117399.498544,1.026000,1845186,1000,12,0,1,703.950,-3.289,7.165,450.628,19.585,5.943
1782117399.499544,1.027000,1845187,1000,12,0,1,707.865,5.506,7.207,452.646,16.366,6.365
1782117399.500545,1.028000,1845188,1000,12,0,1,708.826,3.523,7.222,454.087,15.655,6.730
1782117399.501544,1.029000,1845189,1000,12,0,1,713.078,7.958,7.309,467.634,21.664,7.375
1782117399.502544,1.030000,1845190,1000,12,0,1,702.100,-0.961,7.303,478.732,29.666,8.462
1782117399.503544,1.031000,1845191,1000,12,0,1,709.306,0.377,7.275,472.198,18.388,8.839
1782117399.504544,1.032000,1845192,1000,12,0,1,736.089,25.362,8.092,448.298,-6.711,8.879
1782117399.505544,1.033000,1845193,1000,12,0,1,747.547,33.329,9.357,425.070,-30.283,9.845
1782117399.506544,1.034000,1845194,1000,12,0,1,739.068,20.792,9.804,407.030,-43.470,11.601
1782117399.507545,1.035000,1845195,1000,12,0,1,737.579,12.124,9.947,399.728,-45.909,13.277
1782117399.508544,1.036000,1845196,1000,12,0,1,736.666,9.952,9.961,401.914,-37.664,14.290
1782117399.509544,1.037000,1845197,1000,12,0,1,733.928,3.670,9.909,410.249,-24.920,14.706
1782117399.510545,1.038000,1845198,1000,12,0,1,731.742,0.548,9.901,422.596,-10.490,14.781
1782117399.511544,1.039000,1845199,1000,12,0,1,716.825,-11.858,10.027,444.406,9.225,14.838
1782117399.512544,1.040000,1845200,1000,12,0,1,715.119,-16.043,10.269,465.352,26.835,15.314
1782117399.513544,1.041000,1845201,1000,12,0,1,731.429,1.275,10.268,472.342,29.103,15.854
1782117399.514544,1.042000,1845202,1000,12,0,1,724.463,-1.146,10.263,475.922,24.830,16.236
1782117399.515544,1.043000,1845203,1000,12,0,1,691.051,-30.263,11.112,485.842,27.401,16.688
1782117399.516544,1.044000,1845204,1000,12,0,1,666.766,-49.909,13.156,497.828,31.742,17.281
1782117399.517545,1.045000,1845205,1000,12,0,1,652.137,-53.610,15.180,507.172,33.431,17.915
1782117399.518544,1.046000,1845206,1000,12,0,1,668.808,-33.914,15.918,488.316,13.293,18.014
1782117399.519544,1.047000,1845207,1000,12,0,1,709.787,10.683,15.982,447.697,-27.322,18.422
1782117399.520545,1.048000,1845208,1000,12,0,1,734.336,35.384,16.724,416.302,-54.191,19.948
1782117399.521544,1.049000,1845209,1000,12,0,1,721.701,22.057,17.008,400.617,-60.131,21.676
1782117399.522544,1.050000,1845210,1000,12,0,1,703.878,-0.443,17.008,398.431,-52.186,22.896
1782117399.523545,1.051000,1845211,1000,12,0,1,700.251,-5.217,17.015,400.617,-38.911,23.546
1782117399.524544,1.052000,1845212,1000,12,0,1,713.558,5.506,17.032,401.890,-29.115,23.897
1782117399.525544,1.053000,1845213,1000,12,0,1,723.719,15.543,17.168,404.796,-19.565,24.051
1782117399.526544,1.054000,1845214,1000,12,0,1,724.920,14.023,17.281,404.772,-13.729,24.101
1782117399.527544,1.055000,1845215,1000,12,0,1,734.408,18.158,17.471,398.551,-15.081,24.175
1782117399.528544,1.056000,1845216,1000,12,0,1,754.057,32.606,18.008,387.237,-21.320,24.362
1782117399.529544,1.057000,1845217,1000,12,0,1,764.338,37.939,18.642,383.202,-22.222,24.561
1782117399.530545,1.058000,1845218,1000,12,0,1,762.897,30.440,19.056,388.799,-13.030,24.626
1782117399.531544,1.059000,1845219,1000,12,0,1,751.343,15.204,19.177,396.245,-3.214,24.630
1782117399.532544,1.060000,1845220,1000,12,0,1,745.794,5.054,19.071,398.335,0.845,24.629
1782117399.533545,1.061000,1845221,1000,12,0,1,744.184,2.859,18.906,400.160,2.643,24.627
1782117399.534544,1.062000,1845222,1000,12,0,1,741.830,-0.523,18.818,401.482,5.079,24.629
1782117399.535544,1.063000,1845223,1000,12,0,1,738.443,-3.866,18.793,402.442,6.446,24.643
1782117399.536544,1.064000,1845224,1000,12,0,1,737.050,-5.661,18.806,402.971,8.177,24.669
1782117399.537544,1.065000,1845225,1000,12,0,1,744.112,-0.524,18.787,402.274,8.950,24.690
1782117399.538544,1.066000,1845226,1000,12,0,1,754.826,8.365,18.689,397.566,6.928,24.704
1782117399.539544,1.067000,1845227,1000,12,0,1,759.053,9.699,18.685,399.896,9.871,24.743
1782117399.540545,1.068000,1845228,1000,12,0,1,764.698,9.802,18.731,408.399,20.028,24.904
1782117399.541544,1.069000,1845229,1000,12,0,1,761.431,4.416,18.712,425.502,34.573,25.371
1782117399.542544,1.070000,1845230,1000,12,0,1,749.973,-10.274,18.765,448.898,53.418,26.462
1782117399.543545,1.071000,1845231,1000,12,0,1,748.220,-15.160,18.881,479.525,73.550,28.411
1782117399.544544,1.072000,1845232,1000,12,0,1,756.051,-8.842,18.896,516.733,95.599,31.410
1782117399.545544,1.073000,1845233,1000,12,0,1,761.503,-4.591,18.759,557.039,115.076,35.315
1782117399.546544,1.074000,1845234,1000,12,0,1,758.669,-7.946,18.773,592.782,125.885,39.511
1782117399.547544,1.075000,1845235,1000,12,0,1,745.073,-20.033,18.971,615.818,121.769,43.037
1782117399.548544,1.076000,1845236,1000,12,0,1,731.453,-31.364,19.477,612.719,94.033,44.959
1782117399.549544,1.077000,1845237,1000,12,0,1,748.148,-16.353,19.598,568.329,33.409,45.148
1782117399.550545,1.078000,1845238,1000,12,0,1,776.780,14.062,19.693,489.445,-51.334,45.674
1782117399.551544,1.079000,1845239,1000,12,0,1,794.556,28.660,20.074,426.295,-113.481,48.314
1782117399.552544,1.080000,1845240,1000,12,0,1,811.851,38.541,20.800,373.185,-147.480,52.457
1782117399.553545,1.081000,1845241,1000,12,0,1,792.418,20.838,21.008,350.534,-154.067,56.742
1782117399.554544,1.082000,1845242,1000,12,0,1,740.942,-30.315,21.139,379.839,-107.714,58.744
1782117399.555544,1.083000,1845243,1000,12,0,1,701.740,-63.856,22.498,419.113,-52.223,59.051
1782117399.556545,1.084000,1845244,1000,12,0,1,696.119,-61.590,23.946,436.167,-25.583,58.841
1782117399.557544,1.085000,1845245,1000,12,0,1,709.090,-38.525,24.498,434.726,-20.965,58.557
1782117399.558544,1.086000,1845246,1000,12,0,1,724.055,-16.930,24.574,429.898,-22.508,58.401
1782117399.559544,1.087000,1845247,1000,12,0,1,734.192,-3.054,24.573,424.229,-22.889,58.385
1782117399.560544,1.088000,1845248,1000,12,0,1,745.169,7.470,24.595,416.975,-25.476,58.477
1782117399.561544,1.089000,1845249,1000,12,0,1,758.309,18.144,24.672,392.738,-39.111,58.723
1782117399.562544,1.090000,1845250,1000,12,0,1,764.434,21.391,24.753,371.432,-53.407,59.085
1782117399.563545,1.091000,1845251,1000,12,0,1,751.463,7.090,24.772,372.873,-42.526,59.248
1782117399.564544,1.092000,1845252,1000,12,0,1,733.255,-12.821,24.838,383.994,-22.016,59.226
1782117399.565544,1.093000,1845253,1000,12,0,1,723.094,-21.784,24.660,391.033,-7.454,59.108
1782117399.566545,1.094000,1845254,1000,12,0,1,719.515,-22.083,23.834,390.840,-1.515,58.938
1782117399.567544,1.095000,1845255,1000,12,0,1,723.142,-15.729,22.705,388.414,0.407,58.748
1782117399.568544,1.096000,1845256,1000,12,0,1,733.015,-3.336,22.197,387.790,4.126,58.721
1782117399.569544,1.097000,1845257,1000,12,0,1,743.944,8.689,22.180,389.711,9.211,58.608
1782117399.570544,1.098000,1845258,1000,12,0,1,744.040,11.042,21.665,392.474,14.860,58.143
1782117399.571544,1.099000,1845259,1000,12,0,1,734.000,2.346,21.441,398.719,21.566,57.598
1782117399.572544,1.100000,1845260,1000,12,0,1,740.053,6.511,21.461,403.980,27.515,57.256
1782117399.573545,1.101000,1845261,1000,12,0,1,750.598,19.055,21.617,410.009,31.244,57.162
1782117399.574544,1.102000,1845262,1000,12,0,1,752.688,20.176,21.791,415.870,34.879,57.226
1782117399.575544,1.103000,1845263,1000,12,0,1,746.803,14.216,21.772,426.607,40.001,57.439
1782117399.576545,1.104000,1845264,1000,12,0,1,741.182,7.260,21.706,439.987,47.549,57.798
1782117399.577544,1.105000,1845265,1000,12,0,1,739.813,5.489,21.568,450.724,50.490,58.199
1782117399.578544,1.106000,1845266,1000,12,0,1,743.152,7.599,21.097,454.687,46.565,58.492
1782117399.579545,1.107000,1845267,1000,12,0,1,752.544,14.113,20.500,449.355,34.220,58.608
1782117399.580544,1.108000,1845268,1000,12,0,1,759.005,18.171,20.207,434.246,14.439,58.615
1782117399.581544,1.109000,1845269,1000,12,0,1,761.455,15.825,20.217,419.281,-3.587,58.615
1782117399.582544,1.110000,1845270,1000,12,0,1,754.393,6.798,20.227,408.231,-14.396,58.650
1782117399.583544,1.111000,1845271,1000,12,0,1,750.838,-1.709,20.224,406.262,-15.972,58.693
1782117399.584544,1.112000,1845272,1000,12,0,1,745.265,-6.691,20.246,406.718,-12.807,58.716
1782117399.585544,1.113000,1845273,1000,12,0,1,735.057,-17.181,20.384,409.937,-8.926,58.723
1782117399.586545,1.114000,1845274,1000,12,0,1,722.037,-26.832,20.719,406.093,-9.304,58.726
1782117399.587544,1.115000,1845275,1000,12,0,1,717.666,-28.933,21.119,396.245,-17.089,58.762
1782117399.588544,1.116000,1845276,1000,12,0,1,715.600,-24.923,21.378,397.422,-15.038,58.792
1782117399.589545,1.117000,1845277,1000,12,0,1,721.389,-16.655,21.464,398.815,-9.473,58.791
1782117399.590544,1.118000,1845278,1000,12,0,1,737.050,1.242,21.420,397.086,-9.894,58.739
1782117399.591544,1.119000,1845279,1000,12,0,1,748.076,13.926,21.501,396.533,-8.201,58.547
1782117399.592544,1.120000,1845280,1000,12,0,1,743.272,10.277,21.501,398.815,-5.114,58.062
1782117399.593544,1.121000,1845281,1000,12,0,1,740.773,6.026,21.411,402.562,-0.344,57.123
1782117399.594544,1.122000,1845282,1000,12,0,1,743.944,9.339,21.415,408.279,4.707,55.504
1782117399.595544,1.123000,1845283,1000,12,0,1,743.512,9.247,21.445,411.330,7.620,53.075
1782117399.596545,1.124000,1845284,1000,12,0,1,742.503,7.111,21.439,417.695,11.050,50.025
1782117399.597544,1.125000,1845285,1000,12,0,1,743.248,7.386,21.277,430.691,20.569,47.057
1782117399.598544,1.126000,1845286,1000,12,0,1,752.183,12.895,20.889,451.348,34.641,45.404
1782117399.599545,1.127000,1845287,1000,12,0,1,759.149,18.519,20.926,472.703,48.105,45.668
1782117399.600544,1.128000,1845288,1000,12,0,1,765.875,19.604,21.014,503.641,64.764,46.008
1782117399.601544,1.129000,1845289,1000,12,0,1,770.583,20.507,20.823,550.193,92.761,45.069
1782117399.602545,1.130000,1845290,1000,12,0,1,770.055,14.989,20.208,596.601,117.125,43.250
1782117399.603544,1.131000,1845291,1000,12,0,1,757.780,1.158,19.993,636.500,128.910,41.572
1782117399.604544,1.132000,1845292,1000,12,0,1,735.177,-21.087,19.754,663.043,126.882,42.640
1782117399.605544,1.133000,1845293,1000,12,0,1,718.434,-35.893,18.288,677.215,110.569,44.812
1782117399.606544,1.134000,1845294,1000,12,0,1,703.205,-43.470,17.215,667.126,77.091,45.977
1782117399.607544,1.135000,1845295,1000,12,0,1,712.741,-32.725,16.974,608.876,6.460,45.890
1782117399.608544,1.136000,1845296,1000,12,0,1,755.066,10.042,16.864,506.596,-94.253,47.681
1782117399.609545,1.137000,1845297,1000,12,0,1,811.322,59.164,18.821,399.320,-185.891,54.352
1782117399.610544,1.138000,1845298,1000,12,0,1,832.100,74.657,21.554,340.373,-220.728,62.574
1782117399.611544,1.139000,1845299,1000,12,0,1,789.151,27.764,21.758,336.193,-193.432,68.068
1782117399.612545,1.140000,1845300,1000,12,0,1,728.451,-35.690,22.130,355.242,-144.228,70.656
1782117399.613544,1.141000,1845301,1000,12,0,1,703.421,-58.140,23.587,357.500,-112.932,72.188
1782117399.614544,1.142000,1845302,1000,12,0,1,704.454,-47.896,24.473,345.033,-103.779,73.599
1782117399.615544,1.143000,1845303,1000,12,0,1,702.172,-39.358,24.908,336.193,-93.035,74.759
1782117399.616544,1.144000,1845304,1000,12,0,1,701.836,-32.951,25.147,348.372,-67.196,75.360
1782117399.617544,1.145000,1845305,1000,12,0,1,709.667,-18.693,25.188,361.559,-39.390,75.566
1782117399.618544,1.146000,1845306,1000,12,0,1,724.343,-1.314,25.184,369.654,-23.728,75.638
1782117399.619545,1.147000,1845307,1000,12,0,1,738.660,14.211,25.234,369.198,-16.021,75.660
1782117399.620544,1.148000,1845308,1000,12,0,1,742.815,17.772,25.311,367.444,-13.102,75.654
1782117399.621544,1.149000,1845309,1000,12,0,1,748.172,18.711,25.447,362.688,-10.574,75.607
1782117399.622545,1.150000,1845310,1000,12,0,1,752.424,20.428,25.593,362.640,-5.619,75.511
1782117399.623544,1.151000,1845311,1000,12,0,1,753.913,17.400,25.570,362.520,2.164,75.382
1782117399.624544,1.152000,1845312,1000,12,0,1,745.602,8.066,25.436,358.677,5.736,75.225
1782117399.625545,1.153000,1845313,1000,12,0,1,730.733,-7.865,25.381,355.890,10.303,75.026
1782117399.626544,1.154000,1845314,1000,12,0,1,720.644,-16.882,25.472,355.842,18.184,74.769
1782117399.627544,1.155000,1845315,1000,12,0,1,708.153,-24.060,25.686,355.578,25.149,74.512
1782117399.628544,1.156000,1845316,1000,12,0,1,682.932,-40.651,26.300,365.955,39.188,74.427
1782117399.629544,1.157000,1845317,1000,12,0,1,664.556,-50.921,27.195,387.117,61.469,74.776
1782117399.630544,1.158000,1845318,1000,12,0,1,666.766,-39.407,27.641,412.027,82.859,75.662
1782117399.631544,1.159000,1845319,1000,12,0,1,680.530,-16.998,27.655,437.681,99.436,76.956
1782117399.632545,1.160000,1845320,1000,12,0,1,704.983,10.372,27.677,461.557,109.866,78.482
1782117399.633544,1.161000,1845321,1000,12,0,1,733.663,38.811,28.215,481.927,112.390,80.043
1782117399.634544,1.162000,1845322,1000,12,0,1,751.991,53.192,29.185,490.406,102.635,81.329
1782117399.635545,1.163000,1845323,1000,12,0,1,744.953,42.915,29.710,487.548,80.146,82.105
1782117399.636544,1.164000,1845324,1000,12,0,1,714.543,10.495,29.504,472.679,49.690,82.395
1782117399.637544,1.165000,1845325,1000,12,0,1,728.115,12.427,29.272,438.017,5.570,82.363
1782117399.638544,1.166000,1845326,1000,12,0,1,776.829,55.753,30.110,402.755,-36.007,82.493
1782117399.639544,1.167000,1845327,1000,12,0,1,821.603,86.777,32.429,382.745,-55.894,82.860
1782117399.640544,1.168000,1845328,1000,12,0,1,828.257,82.312,34.455,387.141,-50.919,83.160
1782117399.641544,1.169000,1845329,1000,12,0,1,799.696,40.765,34.878,403.187,-31.486,83.271
1782117399.642545,1.170000,1845330,1000,12,0,1,762.008,-4.175,34.853,417.575,-16.103,83.299
1782117399.643544,1.171000,1845331,1000,12,0,1,756.627,-17.257,34.928,413.180,-16.520,83.332
1782117399.644544,1.172000,1845332,1000,12,0,1,761.047,-10.691,34.936,401.337,-26.885,83.416
1782117399.645545,1.173000,1845333,1000,12,0,1,759.365,-13.059,34.960,403.091,-22.800,83.472
1782117399.646544,1.174000,1845334,1000,12,0,1,758.597,-13.710,34.999,405.469,-14.514,83.482
1782117399.647544,1.175000,1845335,1000,12,0,1,760.062,-11.590,35.022,406.526,-10.525,83.445
1782117399.648545,1.176000,1845336,1000,12,0,1,765.058,-7.381,34.990,409.985,-3.291,83.302
1782117399.649544,1.177000,1845337,1000,12,0,1,768.421,-3.281,34.895,414.741,3.325,83.025
1782117399.650544,1.178000,1845338,1000,12,0,1,770.103,-3.351,34.788,421.539,10.885,82.533
1782117399.651544,1.179000,1845339,1000,12,0,1,768.373,-4.811,34.673,432.949,20.194,81.534
1782117399.652544,1.180000,1845340,1000,12,0,1,757.996,-14.612,34.670,451.372,33.527,79.974
1782117399.653544,1.181000,1845341,1000,12,0,1,742.863,-27.420,34.886,474.456,48.198,78.166
1782117399.654544,1.182000,1845342,1000,12,0,1,728.499,-37.924,35.170,498.765,60.288,76.555
1782117399.655545,1.183000,1845343,1000,12,0,1,722.085,-39.810,35.254,522.522,68.483,75.564
1782117399.656544,1.184000,1845344,1000,12,0,1,736.138,-24.030,34.880,554.709,79.584,75.616
1782117399.657544,1.185000,1845345,1000,12,0,1,738.900,-14.015,34.628,593.503,94.988,76.794
1782117399.658545,1.186000,1845346,1000,12,0,1,744.497,-10.915,34.633,601.838,83.907,76.554
1782117399.659544,1.187000,1845347,1000,12,0,1,753.192,0.293,33.608,595.905,53.410,72.294
1782117399.660544,1.188000,1845348,1000,12,0,1,734.408,-13.685,31.965,577.001,21.043,65.276
1782117399.661544,1.189000,1845349,1000,12,0,1,716.849,-30.845,32.021,552.596,-15.484,59.308
1782117399.662544,1.190000,1845350,1000,12,0,1,724.800,-19.760,31.744,517.958,-49.919,56.135
1782117399.663544,1.191000,1845351,1000,12,0,1,775.003,24.282,30.852,445.632,-109.026,55.981
1782117399.664544,1.192000,1845352,1000,12,0,1,832.556,76.892,32.004,354.137,-178.774,59.646
1782117399.665545,1.193000,1845353,1000,12,0,1,855.808,88.752,33.923,315.079,-194.024,64.323
1782117399.666544,1.194000,1845354,1000,12,0,1,828.017,53.388,34.440,343.087,-138.906,66.581
1782117399.667544,1.195000,1845355,1000,12,0,1,787.109,3.324,34.341,379.551,-75.456,67.200
1782117399.668545,1.196000,1845356,1000,12,0,1,757.972,-25.630,34.531,422.259,-22.915,67.195
1782117399.669544,1.197000,1845357,1000,12,0,1,738.059,-40.755,34.951,434.606,3.979,67.159
1782117399.670544,1.198000,1845358,1000,12,0,1,724.487,-46.598,35.478,444.166,9.146,67.146
1782117399.671544,1.199000,1845359,1000,12,0,1,735.681,-31.347,35.656,446.208,16.256,67.168
1782117399.672544,1.200000,1845360,1000,12,0,1,754.922,-6.058,35.549,448.682,12.730,67.188
1782117399.673544,1.201000,1845361,1000,12,0,1,764.362,5.385,35.472,464.752,24.676,67.278
1782117399.674544,1.202000,1845362,1000,12,0,1,748.748,-5.956,35.464,458.987,19.020,67.327
1782117399.675545,1.203000,1845363,1000,12,0,1,742.167,-15.312,35.512,459.299,9.651,67.325
1782117399.676544,1.204000,1845364,1000,12,0,1,753.144,-3.338,35.435,429.850,-10.407,67.292
1782117399.677544,1.205000,1845365,1000,12,0,1,768.469,10.049,35.300,404.364,-40.194,67.437
1782117399.678545,1.206000,1845366,1000,12,0,1,780.600,18.611,34.928,393.002,-39.496,67.441
1782117399.679544,1.207000,1845367,1000,12,0,1,774.042,10.813,34.212,400.833,-28.572,67.000
1782117399.680544,1.208000,1845368,1000,12,0,1,748.460,-15.469,33.826,426.583,3.838,65.970
1782117399.681545,1.209000,1845369,1000,12,0,1,754.874,-14.986,33.807,434.558,18.438,64.506
1782117399.682544,1.210000,1845370,1000,12,0,1,791.457,19.165,33.884,416.134,4.944,62.611
1782117399.683544,1.211000,1845371,1000,12,0,1,791.986,22.692,33.590,403.836,-3.921,60.563
1782117399.684544,1.212000,1845372,1000,12,0,1,768.661,-4.681,32.743,405.541,2.652,58.799
1782117399.685544,1.213000,1845373,1000,12,0,1,757.876,-15.189,32.247,413.468,15.043,57.735
1782117399.686544,1.214000,1845374,1000,12,0,1,755.138,-14.896,32.282,417.455,21.613,57.387
1782117399.687544,1.215000,1845375,1000,12,0,1,747.547,-16.922,32.323,420.650,24.991,57.491
1782117399.688545,1.216000,1845376,1000,12,0,1,735.705,-23.023,31.515,424.878,27.499,57.397
1782117399.689544,1.217000,1845377,1000,12,0,1,732.462,-21.347,29.184,423.076,24.588,56.956
1782117399.690544,1.218000,1845378,1000,12,0,1,759.534,5.357,26.773,419.497,17.185,56.551
1782117399.691545,1.219000,1845379,1000,12,0,1,788.503,35.971,26.635,426.223,19.050,56.440
1782117399.692544,1.220000,1845380,1000,12,0,1,786.869,33.207,27.039,434.342,22.904,56.487
1782117399.693544,1.221000,1845381,1000,12,0,1,775.123,16.208,27.026,436.480,19.770,56.508
1782117399.694544,1.222000,1845382,1000,12,0,1,757.276,-1.164,26.985,437.152,14.546,56.417
1782117399.695544,1.223000,1845383,1000,12,0,1,745.265,-15.185,27.007,435.183,8.537,56.338
1782117399.696544,1.224000,1845384,1000,12,0,1,773.322,6.632,26.953,430.883,0.844,56.301
1782117399.697544,1.225000,1845385,1000,12,0,1,797.510,31.055,27.260,429.153,-3.023,56.283
1782117399.698545,1.226000,1845386,1000,12,0,1,788.767,17.913,27.357,433.813,-0.129,56.281
1782117399.699544,1.227000,1845387,1000,12,0,1,770.247,-4.698,27.361,438.161,4.234,56.282
1782117399.700544,1.228000,1845388,1000,12,0,1,760.975,-16.125,27.452,445.079,9.211,56.276
1782117399.701545,1.229000,1845389,1000,12,0,1,764.554,-13.288,27.508,455.384,18.001,56.261
1782117399.702544,1.230000,1845390,1000,12,0,1,764.746,-10.465,27.470,458.290,20.106,56.133
1782117399.703544,1.231000,1845391,1000,12,0,1,768.253,-8.212,27.220,461.581,19.781,55.788
1782117399.704545,1.232000,1845392,1000,12,0,1,773.922,-0.786,26.686,464.656,21.278,55.215
1782117399.705544,1.233000,1845393,1000,12,0,1,770.439,-2.668,26.089,466.145,19.427,54.428
1782117399.706544,1.234000,1845394,1000,12,0,1,765.755,-6.400,25.882,456.489,9.840,53.270
1782117399.707544,1.235000,1845395,1000,12,0,1,776.012,2.889,25.809,433.885,-12.020,51.576
1782117399.708544,1.236000,1845396,1000,12,0,1,785.020,13.707,25.836,425.526,-21.484,50.284
1782117399.709544,1.237000,1845397,1000,12,0,1,781.224,9.940,25.874,432.108,-13.014,49.748
1782117399.710544,1.238000,1845398,1000,12,0,1,773.057,1.583,25.803,437.513,-7.051,49.669
1782117399.711545,1.239000,1845399,1000,12,0,1,762.536,-7.051,25.451,441.452,-4.516,49.625
1782117399.712544,1.240000,1845400,1000,12,0,1,763.761,-6.862,25.316,441.692,-5.552,49.126
1782117399.713544,1.241000,1845401,1000,12,0,1,770.079,1.375,25.082,442.293,-7.833,46.657
1782117399.714545,1.242000,1845402,1000,12,0,1,777.453,6.655,22.622,441.044,-10.127,39.239
1782117399.715544,1.243000,1845403,1000,12,0,1,774.042,4.249,18.830,441.212,-12.254,28.104
1782117399.716544,1.244000,1845404,1000,12,0,1,770.583,-2.727,17.255,439.963,-13.261,20.185
1782117399.717544,1.245000,1845405,1000,12,0,1,767.797,-5.135,17.264,438.834,-14.816,17.262
1782117399.718544,1.246000,1845406,1000,12,0,1,771.280,-4.512,16.891,440.563,-12.272,17.043
1782117399.719544,1.247000,1845407,1000,12,0,1,770.199,-4.318,15.889,442.725,-8.637,17.078
1782117399.720544,1.248000,1845408,1000,12,0,1,766.500,-9.307,14.518,455.528,2.699,17.033
1782117399.721545,1.249000,1845409,1000,12,0,1,763.833,-11.096,13.913,456.849,8.097,16.916
1782117399.722544,1.250000,1845410,1000,12,0,1,764.266,-10.064,13.959,449.883,0.480,16.820
1782117399.723544,1.251000,1845411,1000,12,0,1,763.593,-8.768,13.993,449.955,1.912,16.456
1782117399.724545,1.252000,1845412,1000,12,0,1,763.737,-7.156,14.005,450.340,4.493,16.247
1782117399.725544,1.253000,1845413,1000,12,0,1,766.139,-3.275,13.844,448.730,4.309,16.201
1782117399.726544,1.254000,1845414,1000,12,0,1,765.010,-1.551,13.838,451.108,7.056,16.165
1782117399.727545,1.255000,1845415,1000,12,0,1,763.305,-2.096,13.768,451.156,8.150,15.177
1782117399.728544,1.256000,1845416,1000,12,0,1,762.008,-0.672,13.514,453.102,8.424,14.162
1782117399.729544,1.257000,1845417,1000,12,0,1,762.176,0.711,13.428,455.744,9.900,13.645
1782117399.730544,1.258000,1845418,1000,12,0,1,759.822,1.146,13.249,456.825,8.393,13.686
1782117399.731544,1.259000,1845419,1000,12,0,1,756.651,-0.932,13.079,457.065,5.631,13.459
1782117399.732544,1.260000,1845420,1000,12,0,1,753.120,-2.242,12.799,455.528,1.352,13.442
1782117399.733544,1.261000,1845421,1000,12,0,1,754.129,-1.011,12.391,455.984,-1.878,13.433
1782117399.734545,1.262000,1845422,1000,12,0,1,755.834,2.011,12.377,455.000,-4.589,13.443
1782117399.735544,1.263000,1845423,1000,12,0,1,751.583,-1.278,12.190,457.137,-6.000,13.301
1782117399.736544,1.264000,1845424,1000,12,0,1,751.247,-2.768,12.013,458.579,-5.345,12.967
1782117399.737545,1.265000,1845425,1000,12,0,1,746.875,-4.803,11.792,461.437,-5.090,12.497
1782117399.738544,1.266000,1845426,1000,12,0,1,741.951,-10.156,11.424,460.620,-5.341,11.901
1782117399.739544,1.267000,1845427,1000,12,0,1,740.773,-9.621,11.102,460.572,-6.563,11.419
1782117399.740544,1.268000,1845428,1000,12,0,1,740.365,-8.737,11.145,459.347,-5.931,11.189
1782117399.741544,1.269000,1845429,1000,12,0,1,746.106,-2.944,9.925,460.620,-4.329,10.877
1782117399.742544,1.270000,1845430,1000,12,0,1,754.249,5.765,8.782,470.397,5.468,10.412
1782117399.743544,1.271000,1845431,1000,12,0,1,754.850,6.940,8.534,457.209,-1.086,10.031
1782117399.744545,1.272000,1845432,1000,12,0,1,751.198,3.256,8.545,455.024,-7.114,9.869
1782117399.745544,1.273000,1845433,1000,12,0,1,748.388,1.118,8.272,454.159,-0.697,9.796
1782117399.746544,1.274000,1845434,1000,12,0,1,749.469,2.874,8.229,455.504,-0.953,9.796
1782117399.747545,1.275000,1845435,1000,12,0,1,751.919,6.511,7.019,458.963,5.517,9.817
1782117399.748544,1.276000,1845436,1000,12,0,1,756.243,10.783,6.721,460.933,6.465,9.860
1782117399.749544,1.277000,1845437,1000,12,0,1,762.368,16.287,7.074,459.924,5.259,9.870
1782117399.750545,1.278000,1845438,1000,12,0,1,769.839,21.684,7.365,455.768,0.319,9.784
1782117399.751544,1.279000,1845439,1000,12,0,1,772.048,22.171,7.781,457.450,-1.023,9.448
1782117399.752544,1.280000,1845440,1000,12,0,1,767.292,15.126,7.933,461.869,2.366,9.016
1782117399.753544,1.281000,1845441,1000,12,0,1,760.398,6.335,7.898,464.296,1.523,8.574
1782117399.754544,1.282000,1845442,1000,12,0,1,760.879,4.131,7.919,462.662,-1.522,8.031
1782117399.755544,1.283000,1845443,1000,12,0,1,759.654,2.915,7.921,462.734,-4.885,7.578
1782117399.756544,1.284000,1845444,1000,12,0,1,756.603,-1.941,7.874,461.557,-6.216,7.501
1782117399.757545,1.285000,1845445,1000,12,0,1,753.721,-5.164,7.897,459.443,-9.550,7.429
1782117399.758544,1.286000,1845446,1000,12,0,1,751.991,-7.592,7.730,462.614,-6.762,6.847
1782117399.759544,1.287000,1845447,1000,12,0,1,747.355,-11.181,7.764,459.732,-7.171,6.672
1782117399.760545,1.288000,1845448,1000,12,0,1,742.383,-15.466,8.063,457.978,-8.817,6.714
1782117399.761544,1.289000,1845449,1000,12,0,1,745.121,-12.473,8.193,457.618,-5.879,6.735
1782117399.762544,1.290000,1845450,1000,12,0,1,752.904,-3.858,8.154,456.849,-4.586,6.721
1782117399.763544,1.291000,1845451,1000,12,0,1,756.939,0.669,8.152,457.642,-1.096,6.631
1782117399.764544,1.292000,1845452,1000,12,0,1,753.456,-1.881,8.102,461.341,4.157,6.501
1782117399.765544,1.293000,1845453,1000,12,0,1,746.659,-7.759,8.154,464.824,9.098,6.396
1782117399.766544,1.294000,1845454,1000,12,0,1,734.000,-16.260,8.463,473.880,16.422,6.541
1782117399.767545,1.295000,1845455,1000,12,0,1,723.575,-23.212,9.048,475.801,18.789,6.742
1782117399.768544,1.296000,1845456,1000,12,0,1,715.840,-24.226,9.654,477.363,16.055,6.899
1782117399.769544,1.297000,1845457,1000,12,0,1,706.952,-26.140,10.320,484.161,19.324,7.320
1782117399.770545,1.298000,1845458,1000,12,0,1,698.425,-27.021,10.926,488.797,19.706,7.823
1782117399.771544,1.299000,1845459,1000,12,0,1,698.401,-21.004,11.213,482.311,10.055,7.868
1782117399.772544,1.300000,1845460,1000,12,0,1,715.288,-1.135,11.123,478.900,1.179,7.870
1782117399.773545,1.301000,1845461,1000,12,0,1,737.339,22.506,11.503,474.192,-4.726,7.894
1782117399.774544,1.302000,1845462,1000,12,0,1,754.898,36.912,12.592,464.752,-15.378,8.163
1782117399.775544,1.303000,1845463,1000,12,0,1,769.550,45.331,14.122,454.303,-24.835,8.866
1782117399.776544,1.304000,1845464,1000,12,0,1,780.528,48.173,15.678,447.337,-29.549,9.750
1782117399.777544,1.305000,1845465,1000,12,0,1,775.123,36.871,16.520,448.154,-26.235,10.368
1782117399.778544,1.306000,1845466,1000,12,0,1,765.635,19.327,16.744,445.776,-23.007,10.801
1782117399.779544,1.307000,1845467,1000,12,0,1,756.819,7.189,16.774,447.193,-19.550,11.061
1782117399.780545,1.308000,1845468,1000,12,0,1,748.628,-3.546,16.781,446.400,-14.252,11.181
1782117399.781544,1.309000,1845469,1000,12,0,1,734.768,-15.351,16.921,451.180,-8.352,11.215
1782117399.782544,1.310000,1845470,1000,12,0,1,724.439,-24.309,17.263,456.056,1.061,11.214
1782117399.783545,1.311000,1845471,1000,12,0,1,726.481,-19.406,17.480,456.489,3.110,11.219
1782117399.784544,1.312000,1845472,1000,12,0,1,743.128,-1.915,17.479,458.218,6.137,11.234
1782117399.785544,1.313000,1845473,1000,12,0,1,766.115,20.147,17.709,459.227,8.576,11.268
1782117399.786544,1.314000,1845474,1000,12,0,1,776.684,29.327,18.184,457.858,7.715,11.295
1782117399.787544,1.315000,1845475,1000,12,0,1,771.712,20.900,18.410,462.014,10.852,11.376
1782117399.788544,1.316000,1845476,1000,12,0,1,772.817,16.417,18.500,465.136,13.763,11.517
1782117399.789544,1.317000,1845477,1000,12,0,1,777.237,17.934,18.624,463.935,11.141,11.587
1782117399.790545,1.318000,1845478,1000,12,0,1,791.145,24.484,18.903,466.914,10.963,11.660
1782117399.791544,1.319000,1845479,1000,12,0,1,803.996,32.397,19.445,465.641,9.120,11.715
1782117399.792544,1.320000,1845480,1000,12,0,1,811.923,31.678,19.938,464.488,4.376,11.706
1782117399.793545,1.321000,1845481,1000,12,0,1,807.719,21.981,20.155,462.590,1.857,11.708
1782117399.794544,1.322000,1845482,1000,12,0,1,795.397,3.683,20.157,463.191,-0.357,11.665
1782117399.795544,1.323000,1845483,1000,12,0,1,785.740,-9.679,20.202,462.086,-1.408,11.666
1782117399.796544,1.324000,1845484,1000,12,0,1,786.365,-11.977,20.269,463.407,-2.267,11.670
1782117399.797544,1.325000,1845485,1000,12,0,1,798.375,-3.314,20.254,458.218,-5.527,11.670
1782117399.798544,1.326000,1845486,1000,12,0,1,805.773,2.812,20.200,455.888,-9.115,11.705
1782117399.799544,1.327000,1845487,1000,12,0,1,814.373,5.362,20.083,453.366,-8.657,11.745
1782117399.800545,1.328000,1845488,1000,12,0,1,816.775,5.959,19.865,449.571,-10.829,11.845
1782117399.801544,1.329000,1845489,1000,12,0,1,815.838,-0.173,19.616,451.324,-7.364,11.889
1782117399.802544,1.330000,1845490,1000,12,0,1,809.328,-7.246,19.526,451.901,-3.431,11.895
1782117399.803545,1.331000,1845491,1000,12,0,1,803.155,-15.600,19.630,450.267,-3.445,11.903
1782117399.804544,1.332000,1845492,1000,12,0,1,795.517,-21.152,19.848,450.051,-1.401,11.902
1782117399.805544,1.333000,1845493,1000,12,0,1,787.974,-26.957,20.206,450.460,0.415,11.882
1782117399.806545,1.334000,1845494,1000,12,0,1,782.185,-29.056,20.618,448.754,0.760,11.850
1782117399.807544,1.335000,1845495,1000,12,0,1,774.402,-31.647,21.086,448.946,1.131,11.774
1782117399.808544,1.336000,1845496,1000,12,0,1,771.880,-30.600,21.498,450.171,3.353,11.745
1782117399.809544,1.337000,1845497,1000,12,0,1,776.204,-21.704,21.659,452.429,4.895,11.721
1782117399.810544,1.338000,1845498,1000,12,0,1,785.764,-10.348,21.598,453.871,6.003,11.686
1782117399.811544,1.339000,1845499,1000,12,0,1,798.231,2.819,21.529,457.954,7.718,11.707
1782117399.812544,1.340000,1845500,1000,12,0,1,798.976,4.560,21.532,460.789,9.227,11.762
1782117399.813545,1.341000,1845501,1000,12,0,1,797.270,0.451,21.532,462.734,8.268,11.819
