Unix_Time_s,RelativeTime_s,P_1,P_2,P_3,P_4,P_5,P_6,P_7,P_8,P_9,P_10,P_11,P_12,P_13,P_14,P_15,P_16,P_17,P_18,P_19,P_20,P_21,P_22,P_23,P_24,P_25,P_26,P_27,P_28,P_29,P_30,P_31,P_32,P_33,P_34,P_35,P_36,P_37,P_38,P_39,P_40,P_41,P_42,P_43,P_44,P_45,P_46,P_47,P_48,P_49,P_50,P_51,P_52,P_53,P_54,P_55,P_56,P_57,P_58,P_59,P_60,P_61,P_62,P_63,P_64,P_65,P_66,P_67,P_68,P_69,P_70,P_71,P_72,P_73,P_74,P_75,P_76,P_77,P_78,P_79,P_80,P_81,P_82,P_83,P_84,P_85,P_86,P_87,P_88,P_89,P_90,P_91,P_92,P_93,P_94,P_95,P_96,P_97,P_98,P_99,P_100,P_101,P_102,P_103,P_104,P_105,P_106,P_107,P_108,P_109,P_110,P_111,P_112,P_113,P_114,P_115,P_116,P_117,P_118,P_119,P_120,P_121,P_122,P_123,P_124,P_125,P_126,P_127,P_128,P_129,P_130,P_131,P_132,P_133,P_134,P_135,P_136,P_137,P_138,P_139,P_140,P_141,P_142,P_143,P_144,P_145,P_146,P_147,P_148,P_149,P_150,P_151,P_152,P_153,P_154,P_155,P_156,P_157,P_158,P_159,P_160,P_161,P_162,P_163,P_164,P_165,P_166,P_167,P_168,P_169,P_170,P_171,P_172,P_173,P_174,P_175,P_176,P_177,P_178,P_179,P_180,P_181,P_182,P_183,P_184,P_185,P_186,P_187,P_188,P_189,P_190,P_191,P_192,P_193,P_194,P_195,P_196,P_197,P_198,P_199,P_200,P_201,P_202,P_203,P_204,P_205,P_206,P_207,P_208,P_209,P_210,P_211,P_212,P_213,P_214,P_215,P_216,P_217,P_218,P_219,P_220,P_221,P_222,P_223,P_224,P_225,P_226,P_227,P_228,P_229,P_230,P_231,P_232,P_233,Flex1,Flex2,Bat,IMU1_RefTime,IMU1_Ax,IMU1_Ay,IMU1_Az,IMU1_Wx,IMU1_Wy,IMU1_Wz,IMU1_Roll,IMU1_Pitch,IMU1_Yaw,IMU1_Hx,IMU1_Hy,IMU1_Hz,IMU1_Q0,IMU1_Q1,IMU1_Q2,IMU1_Q3,IMU2_RefTime,IMU2_Ax,IMU2_Ay,IMU2_Az,IMU2_Wx,IMU2_Wy,IMU2_Wz,IMU2_Roll,IMU2_Pitch,IMU2_Yaw,IMU2_Hx,IMU2_Hy,IMU2_Hz,IMU2_Q0,IMU2_Q1,IMU2_Q2,IMU2_Q3,IMU1_FusedRoll,IMU1_FusedPitch,IMU1_FusedYaw,IMU1_FusedQ0,IMU1_FusedQ1,IMU1_FusedQ2,IMU1_FusedQ3,IMU1_MagValid,IMU2_FusedRoll,IMU2_FusedPitch,IMU2_FusedYaw,IMU2_FusedQ0,IMU2_FusedQ1,IMU2_FusedQ2,IMU2_FusedQ3,IMU2_MagValid
1782117398.481439,0.009,1023.0,1023.0,1024.0,1023.0,1023.0,1022.0,1023.0,1023.0,1023.0,1024.0,1024.0,1024.0,1024.0,1024.0,1023.0,1023.0,1023.0,1024.0,1023.0,1023.0,1024.0,1023.0,1023.0,1023.0,1023.0,1024.0,1023.0,1024.0,1024.0,1023.0,1023.0,1024.0,1023.0,1022.0,1024.0,1024.0,1024.0,1024.0,1023.0,1023.0,1023.0,1022.0,1022.0,1024.0,1023.0,1024.0,1024.0,1023.0,1023.0,1022.0,1022.0,1023.0,1023.0,1024.0,1023.0,1024.0,1024.0,1023.0,1023.0,1023.0,1022.0,1023.0,1022.0,1024.0,1023.0,1024.0,1024.0,1023.0,1023.0,1022.0,1022.0,1023.0,1023.0,1024.0,1023.0,1024.0,1024.0,1023.0,1023.0,1022.0,1022.0,1024.0,1023.0,1024.0,1024.0,1024.0,1024.0,1023.0,1024.0,1024.0,1023.0,1023.0,1023.0,1025.0,1024.0,1025.0,1024.0,1024.0,1024.0,1025.0,1023.0,1023.0,1023.0,1025.0,1024.0,1025.0,1024.0,1024.0,1024.0,1023.0,1023.0,1023.0,1023.0,1024.0,1023.0,1024.0,1023.0,1022.0,1023.0,1021.0,1022.0,1023.0,1024.0,1023.0,1024.0,1024.0,1023.0,1023.0,1022.0,1023.0,1024.0,1023.0,1024.0,1024.0,1023.0,1023.0,1024.0,1025.0,1023.0,1025.0,1024.0,1024.0,1024.0,1023.0,1025.0,1024.0,1025.0,1025.0,1024.0,1024.0,1023.0,1025.0,1024.0,1025.0,1025.0,1025.0,1023.0,1025.0,1025.0,1028.0,1027.0,1026.0,1024.0,1028.0,1026.0,1031.0,1029.0,1027.0,1025.0,1032.0,1029.0,1035.0,1033.0,1029.0,1026.0,1035.0,1034.0,1034.0,1038.0,1031.0,1027.0,1037.0,1035.0,1032.0,1039.0,1032.0,1029.0,1040.0,1038.0,1033.0,1043.0,1035.0,1032.0,1042.0,1039.0,1033.0,1044.0,1034.0,1031.0,1036.0,1034.0,1030.0,1041.0,1032.0,1034.0,1037.0,1035.0,1031.0,1039.0,1031.0,1023.0,1024.0,1022.0,1023.0,1024.0,1022.0,1041.0,1044.0,1036.0,1033.0,1042.0,1035.0,1035.0,1040.0,1034.0,1033.0,1040.0,1033.0,1029.0,1032.0,1027.0,1028.0,1032.0,2033,2022,1907,	00:31:31.262,0.0546875,0.04638671875,1.0166015625,-0.30517578125,0.18310546875,0.1220703125,2.6312255859375,-3.0047607421875,52.1795654296875,445.0,-1584.0,-2569.0,0.89727783203125,0.032135009765625,-0.013458251953125,0.4400634765625,2.6224331954958857,-3.009159460194427,47.65258864863006,0.913976818807316,0.03152968592491108,-0.014772038754528035,0.4042697619898998,1,	00:31:31.263,0.02294921875,0.06591796875,1.00439453125,-0.18310546875,-0.9765625,-0.48828125,3.75732421875,-1.2359619140625,122.684326171875,-406.0,-1277.0,-1936.0,-0.478973388671875,-0.02520751953125,-0.023590087890625,-0.877166748046875,3.73498622453203,-1.2470902704463613,123.48605639457232,-0.4728349926493268,-0.0250079356071263,-0.023553581113991383,-0.8804810626581855,1
1782117398.491706,0.019,1023.0,1023.0,1024.0,1022.0,1023.0,1023.0,1023.0,1024.0,1022.0,1023.0,1024.0,1023.0,1023.0,1024.0,1023.0,1023.0,1023.0,1024.0,1023.0,1024.0,1024.0,1023.0,1023.0,1023.0,1023.0,1024.0,1023.0,1024.0,1024.0,1023.0,1023.0,1023.0,1023.0,1022.0,1024.0,1023.0,1024.0,1024.0,1023.0,1023.0,1024.0,1023.0,1023.0,1024.0,1023.0,1024.0,1023.0,1023.0,1022.0,1022.0,1023.0,1023.0,1023.0,1024.0,1023.0,1024.0,1024.0,1023.0,1023.0,1023.0,1022.0,1023.0,1023.0,1024.0,1023.0,1024.0,1024.0,1023.0,1023.0,1022.0,1022.0,1023.0,1023.0,1024.0,1023.0,1024.0,1024.0,1023.0,1023.0,1022.0,1022.0,1023.0,1023.0,1024.0,1024.0,1024.0,1024.0,1023.0,1024.0,1023.0,1023.0,1023.0,1024.0,1025.0,1024.0,1025.0,1024.0,1024.0,1024.0,1025.0,1023.0,1024.0,1023.0,1025.0,1024.0,1024.0,1024.0,1023.0,1024.0,1023.0,1022.0,1023.0,1022.0,1024.0,1022.0,1024.0,1023.0,1023.0,1023.0,1021.0,1022.0,1023.0,1024.0,1023.0,1024.0,1024.0,1023.0,1023.0,1022.0,1023.0,1024.0,1023.0,1024.0,1024.0,1023.0,1023.0,1023.0,1025.0,1024.0,1025.0,1024.0,1023.0,1024.0,1023.0,1024.0,1024.0,1026.0,1025.0,1024.0,1024.0,1023.0,1025.0,1024.0,1025.0,1025.0,1024.0,1024.0,1026.0,1025.0,1028.0,1026.0,1026.0,1024.0,1028.0,1027.0,1031.0,1029.0,1028.0,1025.0,1031.0,1029.0,1034.0,1033.0,1029.0,1026.0,1035.0,1034.0,1036.0,1038.0,1031.0,1026.0,1037.0,1034.0,1033.0,1039.0,1032.0,1029.0,1040.0,1038.0,1033.0,1043.0,1035.0,1032.0,1042.0,1039.0,1033.0,1044.0,1034.0,1031.0,1037.0,1035.0,1030.0,1041.0,1031.0,1033.0,1037.0,1034.0,1030.0,1039.0,1030.0,1023.0,1024.0,1022.0,1023.0,1023.0,1021.0,1040.0,1044.0,1037.0,1033.0,1042.0,1034.0,1035.0,1040.0,1034.0,1033.0,1040.0,1033.0,1028.0,1032.0,1028.0,1029.0,1032.0,2033,2022,1907,	00:31:31.272,0.0546875,0.046875,1.017578125,-0.3662109375,0.244140625,0.1220703125,2.63671875,-3.09814453125,52.18505859375,447.0,-1586.0,-2572.0,0.897247314453125,0.03253173828125,-0.014129638671875,0.440093994140625,2.6396850768883295,-3.0958405448158928,47.65280696203414,0.9139458298405195,0.03197227456102659,-0.015402840377221935,0.40428151860409395,1,	00:31:31.273,0.0224609375,0.0654296875,1.00390625,-0.1220703125,-0.91552734375,-0.48828125,3.702392578125,-1.3238525390625,122.684326171875,-407.0,-1280.0,-1936.0,-0.478973388671875,-0.025604248046875,-0.0228271484375,-0.877166748046875,3.7169342325984456,-1.3459965657690107,123.48097079510404,-0.4728487270505053,-0.025694135427322972,-0.023005073233647425,-0.8804684317662239,1
1782117398.501355,0.029,1024.0,1023.0,1024.0,1022.0,1023.0,1023.0,1023.0,1024.0,1022.0,1022.0,1024.0,1024.0,1024.0,1023.0,1023.0,1023.0,1023.0,1024.0,1023.0,1024.0,1024.0,1023.0,1023.0,1022.0,1023.0,1024.0,1023.0,1024.0,1024.0,1023.0,1023.0,1023.0,1022.0,1023.0,1024.0,1023.0,1024.0,1024.0,1023.0,1023.0,1023.0,1022.0,1022.0,1024.0,1023.0,1023.0,1024.0,1023.0,1023.0,1023.0,1022.0,1024.0,1023.0,1024.0,1023.0,1024.0,1024.0,1024.0,1023.0,1023.0,1022.0,1023.0,1022.0,1024.0,1022.0,1023.0,1024.0,1023.0,1023.0,1022.0,1022.0,1023.0,1023.0,1024.0,1023.0,1024.0,1023.0,1023.0,1023.0,1022.0,1022.0,1024.0,1022.0,1024.0,1024.0,1024.0,1024.0,1023.0,1023.0,1023.0,1023.0,1024.0,1023.0,1025.0,1024.0,1025.0,1024.0,1023.0,1024.0,1025.0,1023.0,1023.0,1023.0,1025.0,1023.0,1025.0,1024.0,1024.0,1024.0,1024.0,1023.0,1023.0,1022.0,1024.0,1022.0,1024.0,1024.0,1023.0,1023.0,1021.0,1021.0,1023.0,1024.0,1023.0,1024.0,1024.0,1023.0,1023.0,1022.0,1023.0,1024.0,1023.0,1024.0,1024.0,1023.0,1023.0,1023.0,1025.0,1024.0,1025.0,1024.0,1024.0,1024.0,1023.0,1025.0,1024.0,1025.0,1025.0,1024.0,1024.0,1023.0,1025.0,1024.0,1025.0,1025.0,1024.0,1024.0,1025.0,1025.0,1028.0,1027.0,1026.0,1024.0,1028.0,1026.0,1031.0,1029.0,1028.0,1025.0,1032.0,1029.0,1035.0,1033.0,1030.0,1025.0,1034.0,1034.0,1035.0,1038.0,1031.0,1027.0,1036.0,1035.0,1033.0,1040.0,1033.0,1029.0,1040.0,1038.0,1034.0,1043.0,1035.0,1032.0,1042.0,1040.0,1033.0,1044.0,1033.0,1031.0,1037.0,1035.0,1030.0,1041.0,1031.0,1034.0,1037.0,1035.0,1030.0,1038.0,1031.0,1023.0,1024.0,1023.0,1023.0,1024.0,1021.0,1040.0,1045.0,1037.0,1034.0,1041.0,1034.0,1035.0,1041.0,1034.0,1034.0,1040.0,1033.0,1029.0,1032.0,1028.0,1028.0,1032.0,2033,2022,1908,	00:31:31.283,0.05517578125,0.0458984375,1.01708984375,-0.30517578125,0.244140625,0.06103515625,2.5433349609375,-3.1036376953125,52.1905517578125,446.0,-1587.0,-2569.0,0.897247314453125,0.031829833984375,-0.014556884765625,0.44012451171875,2.545415611878015,-3.1035274630965946,47.65846071704536,0.9139496147435299,0.031248224953868888,-0.01579522078107521,0.40431443351414365,1,	00:31:31.284,0.02294921875,0.064453125,1.00439453125,0.0,-0.8544921875,-0.48828125,3.6199951171875,-1.2908935546875,122.6788330078125,-408.0,-1279.0,-1934.0,-0.479034423828125,-0.0250244140625,-0.022308349609375,-0.877166748046875,3.6483392876451,-1.2937915262898996,123.47712557706512,-0.4729088238145643,-0.025010876424692997,-0.022692900844848627,-0.8804639303628741,1
1782117398.512564,0.040,1023.0,1023.0,1023.0,1023.0,1023.0,1023.0,1023.0,1023.0,1022.0,1023.0,1024.0,1024.0,1024.0,1023.0,1023.0,1023.0,1022.0,1024.0,1023.0,1024.0,1024.0,1023.0,1023.0,1023.0,1023.0,1024.0,1024.0,1024.0,1024.0,1023.0,1023.0,1024.0,1022.0,1022.0,1024.0,1023.0,1024.0,1023.0,1023.0,1023.0,1023.0,1023.0,1023.0,1024.0,1023.0,1024.0,1024.0,1024.0,1023.0,1022.0,1022.0,1023.0,1023.0,1024.0,1023.0,1024.0,1024.0,1023.0,1023.0,1023.0,1022.0,1023.0,1023.0,1024.0,1023.0,1024.0,1024.0,1023.0,1023.0,1022.0,1022.0,1023.0,1022.0,1024.0,1023.0,1024.0,1023.0,1023.0,1023.0,1022.0,1023.0,1023.0,1023.0,1024.0,1024.0,1024.0,1024.0,1024.0,1023.0,1023.0,1022.0,1023.0,1023.0,1024.0,1024.0,1025.0,1024.0,1024.0,1024.0,1024.0,1023.0,1023.0,1023.0,1024.0,1023.0,1025.0,1024.0,1024.0,1024.0,1023.0,1023.0,1023.0,1022.0,1024.0,1022.0,1024.0,1023.0,1023.0,1023.0,1021.0,1022.0,1023.0,1024.0,1023.0,1024.0,1024.0,1023.0,1023.0,1022.0,1023.0,1024.0,1024.0,1024.0,1024.0,1023.0,1023.0,1023.0,1025.0,1024.0,1025.0,1024.0,1024.0,1024.0,1023.0,1025.0,1024.0,1025.0,1025.0,1024.0,1024.0,1023.0,1024.0,1024.0,1026.0,1025.0,1024.0,1024.0,1026.0,1024.0,1028.0,1026.0,1026.0,1024.0,1028.0,1027.0,1031.0,1030.0,1028.0,1025.0,1031.0,1029.0,1035.0,1033.0,1030.0,1026.0,1035.0,1034.0,1035.0,1038.0,1031.0,1027.0,1036.0,1034.0,1033.0,1039.0,1033.0,1029.0,1041.0,1038.0,1033.0,1043.0,1034.0,1032.0,1042.0,1039.0,1033.0,1044.0,1034.0,1031.0,1037.0,1035.0,1030.0,1041.0,1032.0,1034.0,1037.0,1035.0,1030.0,1038.0,1031.0,1023.0,1024.0,1023.0,1023.0,1024.0,1021.0,1040.0,1045.0,1036.0,1034.0,1042.0,1034.0,1035.0,1040.0,1034.0,1034.0,1040.0,1033.0,1029.0,1032.0,1028.0,1029.0,1032.0,2033,2022,1908,	00:31:31.293,0.05517578125,0.04638671875,1.0185546875,-0.30517578125,0.244140625,0.1220703125,2.6312255859375,-3.0926513671875,52.18505859375,447.0,-1584.0,-2567.0,0.897247314453125,0.032470703125,-0.014129638671875,0.440093994140625,2.6335989807656217,-3.09230725645739,47.65485578266629,0.9139413456549338,0.03191157852666915,-0.015395545771727701,0.4042967289365273,1,	00:31:31.294,0.02197265625,0.0654296875,1.00439453125,0.1220703125,-0.91552734375,-0.48828125,3.7078857421875,-1.2689208984375,122.67333984375,-406.0,-1280.0,-1938.0,-0.479095458984375,-0.02520751953125,-0.0230712890625,-0.877105712890625,3.730003498074036,-1.2585904190060855,123.46988041818643,-0.4729569697196802,-0.025079017450590064,-0.023464240120573368,-0.8804159114378013,1
1782117398.523887,0.051,1023.0,1023.0,1024.0,1023.0,1023.0,1023.0,1024.0,1023.0,1023.0,1023.0,1024.0,1024.0,1024.0,1024.0,1023.0,1023.0,1023.0,1024.0,1023.0,1024.0,1023.0,1023.0,1023.0,1022.0,1023.0,1024.0,1024.0,1024.0,1024.0,1023.0,1023.0,1023.0,1022.0,1023.0,1024.0,1023.0,1024.0,1024.0,1024.0,1023.0,1023.0,1023.0,1022.0,1024.0,1022.0,1024.0,1023.0,1023.0,1023.0,1022.0,1022.0,1023.0,1023.0,1024.0,1023.0,1024.0,1024.0,1023.0,1023.0,1023.0,1022.0,1023.0,1023.0,1024.0,1023.0,1024.0,1024.0,1023.0,1023.0,1022.0,1022.0,1023.0,1023.0,1024.0,1023.0,1024.0,1023.0,1023.0,1023.0,1022.0,1022.0,1023.0,1023.0,1024.0,1024.0,1024.0,1024.0,1023.0,1023.0,1023.0,1022.0,1023.0,1024.0,1025.0,1024.0,1025.0,1024.0,1024.0,1024.0,1025.0,1023.0,1024.0,1023.0,1025.0,1024.0,1025.0,1024.0,1024.0,1023.0,1023.0,1022.0,1023.0,1022.0,1024.0,1022.0,1023.0,1023.0,1023.0,1023.0,1021.0,1022.0,1023.0,1024.0,1022.0,1024.0,1024.0,1024.0,1023.0,1022.0,1023.0,1024.0,1023.0,1024.0,1024.0,1023.0,1023.0,1023.0,1025.0,1024.0,1026.0,1024.0,1024.0,1024.0,1023.0,1025.0,1024.0,1025.0,1025.0,1024.0,1024.0,1023.0,1025.0,1024.0,1026.0,1025.0,1024.0,1023.0,1025.0,1024.0,1028.0,1027.0,1026.0,1024.0,1028.0,1026.0,1031.0,1029.0,1028.0,1025.0,1031.0,1029.0,1034.0,1033.0,1029.0,1025.0,1035.0,1034.0,1035.0,1039.0,1031.0,1027.0,1036.0,1034.0,1033.0,1040.0,1033.0,1029.0,1040.0,1038.0,1034.0,1044.0,1034.0,1032.0,1042.0,1040.0,1034.0,1045.0,1034.0,1032.0,1037.0,1035.0,1030.0,1041.0,1032.0,1033.0,1037.0,1035.0,1031.0,1039.0,1031.0,1023.0,1024.0,1022.0,1024.0,1024.0,1022.0,1040.0,1045.0,1036.0,1034.0,1042.0,1035.0,1035.0,1040.0,1034.0,1034.0,1039.0,1033.0,1029.0,1032.0,1028.0,1029.0,1032.0,2033,2021,1908,	00:31:31.303,0.05517578125,0.046875,1.0166015625,-0.244140625,0.244140625,0.1220703125,2.6861572265625,-3.1585693359375,52.18505859375,445.0,-1585.0,-2569.0,0.897216796875,0.033172607421875,-0.014434814453125,0.440093994140625,2.6769447554334387,-3.1690808028711657,47.65368639439739,0.9139102780274929,0.032527217863768394,-0.01585559397977254,0.40430011619254114,1,	00:31:31.304,0.02197265625,0.06591796875,1.0048828125,0.244140625,-0.8544921875,-0.54931640625,3.7957763671875,-1.241455078125,122.662353515625,-407.0,-1281.0,-1935.0,-0.4791259765625,-0.025390625,-0.02386474609375,-0.877044677734375,3.818312293097254,-1.2346246731347017,123.46197711829929,-0.4730054347550877,-0.025261106279826886,-0.024240018980540453,-0.8803636502499935,1
1782117398.532004,0.059,1023.0,1023.0,1024.0,1023.0,1023.0,1023.0,1023.0,1024.0,1022.0,1023.0,1024.0,1024.0,1024.0,1023.0,1023.0,1023.0,1023.0,1024.0,1023.0,1024.0,1023.0,1023.0,1023.0,1022.0,1023.0,1024.0,1023.0,1024.0,1023.0,1023.0,1023.0,1024.0,1023.0,1023.0,1024.0,1023.0,1024.0,1024.0,1024.0,1023.0,1023.0,1022.0,1023.0,1024.0,1023.0,1024.0,1024.0,1023.0,1023.0,1022.0,1022.0,1023.0,1023.0,1024.0,1023.0,1024.0,1024.0,1023.0,1023.0,1023.0,1022.0,1023.0,1023.0,1024.0,1023.0,1024.0,1023.0,1023.0,1023.0,1023.0,1022.0,1023.0,1023.0,1024.0,1023.0,1024.0,1023.0,1023.0,1023.0,1022.0,1022.0,1024.0,1023.0,1024.0,1024.0,1024.0,1024.0,1023.0,1024.0,1023.0,1023.0,1023.0,1023.0,1025.0,1025.0,1025.0,1024.0,1023.0,1024.0,1025.0,1023.0,1023.0,1023.0,1024.0,1024.0,1025.0,1024.0,1023.0,1024.0,1023.0,1023.0,1024.0,1022.0,1024.0,1023.0,1024.0,1023.0,1023.0,1023.0,1021.0,1022.0,1023.0,1024.0,1023.0,1024.0,1024.0,1023.0,1023.0,1023.0,1022.0,1024.0,1023.0,1024.0,1024.0,1023.0,1023.0,1023.0,1025.0,1024.0,1026.0,1024.0,1024.0,1024.0,1023.0,1024.0,1024.0,1025.0,1025.0,1024.0,1024.0,1023.0,1025.0,1024.0,1025.0,1025.0,1025.0,1023.0,1026.0,1025.0,1027.0,1028.0,1026.0,1024.0,1029.0,1027.0,1031.0,1029.0,1027.0,1025.0,1031.0,1030.0,1034.0,1033.0,1029.0,1026.0,1034.0,1035.0,1035.0,1038.0,1031.0,1027.0,1036.0,1035.0,1033.0,1039.0,1032.0,1029.0,1040.0,1038.0,1034.0,1043.0,1035.0,1032.0,1041.0,1040.0,1033.0,1045.0,1035.0,1031.0,1037.0,1035.0,1031.0,1041.0,1032.0,1034.0,1037.0,1035.0,1030.0,1038.0,1031.0,1023.0,1024.0,1022.0,1023.0,1024.0,1022.0,1040.0,1045.0,1037.0,1033.0,1042.0,1035.0,1035.0,1040.0,1035.0,1034.0,1041.0,1033.0,1029.0,1032.0,1028.0,1028.0,1032.0,2033,2021,1908,	00:31:31.313,0.0556640625,0.04638671875,1.017578125,-0.30517578125,0.18310546875,0.06103515625,2.5982666015625,-3.1256103515625,52.1905517578125,446.0,-1585.0,-2570.0,0.897247314453125,0.0323486328125,-0.014495849609375,0.44012451171875,2.59590237184584,-3.1192475861049522,47.658656907371565,0.9139304054847559,0.03170622901983833,-0.01574247724594873,0.40432425524815097,1,	00:31:31.314,0.021484375,0.0673828125,1.005859375,0.244140625,-0.91552734375,-0.54931640625,3.878173828125,-1.2030029296875,122.6568603515625,-406.0,-1277.0,-1937.0,-0.47918701171875,-0.02545166015625,-0.024627685546875,-0.87701416015625,3.8867526998609527,-1.1796919927302352,123.45449879241363,-0.47306442127522275,-0.025123380693387255,-0.02499122371604902,-0.8803148912765523,1
1782117398.543097,0.071,1023.0,1023.0,1024.0,1023.0,1023.0,1023.0,1024.0,1024.0,1022.0,1023.0,1023.0,1023.0,1024.0,1024.0,1023.0,1023.0,1023.0,1024.0,1023.0,1024.0,1023.0,1023.0,1023.0,1023.0,1023.0,1024.0,1024.0,1024.0,1024.0,1023.0,1023.0,1023.0,1022.0,1023.0,1024.0,1023.0,1024.0,1023.0,1023.0,1023.0,1023.0,1022.0,1022.0,1024.0,1023.0,1024.0,1024.0,1023.0,1023.0,1022.0,1023.0,1024.0,1023.0,1024.0,1024.0,1024.0,1024.0,1023.0,1023.0,1023.0,1022.0,1023.0,1023.0,1024.0,1023.0,1024.0,1024.0,1023.0,1023.0,1022.0,1022.0,1023.0,1023.0,1024.0,1023.0,1024.0,1024.0,1023.0,1023.0,1022.0,1022.0,1023.0,1023.0,1024.0,1024.0,1024.0,1023.0,1023.0,1023.0,1023.0,1023.0,1023.0,1023.0,1025.0,1025.0,1025.0,1024.0,1024.0,1024.0,1025.0,1023.0,1024.0,1023.0,1025.0,1024.0,1025.0,1024.0,1024.0,1024.0,1023.0,1023.0,1024.0,1022.0,1024.0,1023.0,1024.0,1024.0,1023.0,1022.0,1021.0,1022.0,1023.0,1024.0,1023.0,1024.0,1024.0,1023.0,1024.0,1022.0,1023.0,1024.0,1023.0,1024.0,1024.0,1024.0,1023.0,1023.0,1025.0,1024.0,1025.0,1024.0,1024.0,1024.0,1023.0,1025.0,1024.0,1025.0,1024.0,1024.0,1024.0,1023.0,1025.0,1024.0,1026.0,1025.0,1024.0,1023.0,1026.0,1025.0,1028.0,1027.0,1026.0,1024.0,1028.0,1027.0,1031.0,1029.0,1028.0,1025.0,1031.0,1029.0,1034.0,1033.0,1029.0,1026.0,1035.0,1035.0,1036.0,1038.0,1031.0,1027.0,1037.0,1035.0,1033.0,1039.0,1033.0,1029.0,1040.0,1038.0,1034.0,1043.0,1034.0,1032.0,1042.0,1040.0,1033.0,1045.0,1034.0,1031.0,1036.0,1035.0,1031.0,1041.0,1031.0,1034.0,1037.0,1035.0,1030.0,1039.0,1031.0,1023.0,1024.0,1022.0,1023.0,1024.0,1022.0,1040.0,1044.0,1037.0,1034.0,1042.0,1035.0,1035.0,1040.0,1036.0,1034.0,1040.0,1033.0,1028.0,1032.0,1028.0,1028.0,1032.0,2034,2021,1908,	00:31:31.323,0.05419921875,0.04541015625,1.017578125,-0.30517578125,0.244140625,0.06103515625,2.548828125,-3.043212890625,52.1905517578125,446.0,-1587.0,-2567.0,0.89727783203125,0.031646728515625,-0.0140380859375,0.44012451171875,2.5484245787664586,-3.0368360926471127,47.661759486502085,0.9139566399131216,0.031037990563679847,-0.015251514004134626,0.4043356215089974,1,	00:31:31.325,0.021484375,0.0673828125,1.00634765625,0.1220703125,-0.91552734375,-0.54931640625,3.790283203125,-1.241455078125,122.6513671875,-407.0,-1277.0,-1937.0,-0.479217529296875,-0.025390625,-0.023834228515625,-0.87701416015625,3.813898115908741,-1.2421734489179344,123.44996354321857,-0.47309643326208356,-0.02530339197897341,-0.02417225269171093,-0.8803154010858049,1
1782117398.555214,0.083,1024.0,1023.0,1024.0,1023.0,1023.0,1023.0,1024.0,1024.0,1022.0,1023.0,1024.0,1023.0,1024.0,1023.0,1023.0,1023.0,1023.0,1024.0,1023.0,1024.0,1023.0,1023.0,1023.0,1022.0,1023.0,1024.0,1024.0,1024.0,1024.0,1023.0,1023.0,1023.0,1022.0,1022.0,1024.0,1023.0,1024.0,1024.0,1024.0,1023.0,1023.0,1023.0,1022.0,1024.0,1023.0,1024.0,1023.0,1023.0,1023.0,1022.0,1022.0,1023.0,1023.0,1024.0,1023.0,1024.0,1024.0,1023.0,1023.0,1023.0,1022.0,1023.0,1023.0,1024.0,1023.0,1024.0,1024.0,1023.0,1023.0,1022.0,1022.0,1023.0,1022.0,1024.0,1023.0,1024.0,1023.0,1023.0,1023.0,1022.0,1023.0,1023.0,1023.0,1024.0,1024.0,1023.0,1024.0,1023.0,1024.0,1023.0,1023.0,1023.0,1023.0,1025.0,1025.0,1025.0,1025.0,1024.0,1024.0,1025.0,1023.0,1024.0,1023.0,1024.0,1024.0,1025.0,1024.0,1024.0,1024.0,1023.0,1023.0,1023.0,1023.0,1024.0,1023.0,1024.0,1024.0,1023.0,1022.0,1021.0,1022.0,1023.0,1024.0,1024.0,1024.0,1024.0,1023.0,1023.0,1022.0,1023.0,1024.0,1023.0,1024.0,1024.0,1024.0,1023.0,1023.0,1025.0,1024.0,1025.0,1024.0,1024.0,1024.0,1023.0,1025.0,1024.0,1025.0,1025.0,1024.0,1024.0,1023.0,1025.0,1024.0,1025.0,1025.0,1024.0,1024.0,1026.0,1025.0,1028.0,1027.0,1026.0,1025.0,1028.0,1026.0,1031.0,1029.0,1027.0,1025.0,1031.0,1030.0,1034.0,1033.0,1029.0,1026.0,1035.0,1034.0,1036.0,1039.0,1030.0,1027.0,1036.0,1035.0,1033.0,1039.0,1032.0,1029.0,1040.0,1039.0,1034.0,1043.0,1035.0,1032.0,1042.0,1040.0,1034.0,1044.0,1034.0,1031.0,1036.0,1036.0,1031.0,1041.0,1032.0,1034.0,1037.0,1035.0,1030.0,1038.0,1030.0,1024.0,1024.0,1023.0,1023.0,1024.0,1022.0,1040.0,1045.0,1037.0,1033.0,1042.0,1035.0,1035.0,1041.0,1036.0,1034.0,1040.0,1033.0,1029.0,1032.0,1028.0,1029.0,1032.0,2034,2021,1909,	00:31:31.334,0.0546875,0.0458984375,1.01904296875,-0.30517578125,0.244140625,0.1220703125,2.61474609375,-3.1036376953125,52.1905517578125,446.0,-1587.0,-2566.0,0.897247314453125,0.032379150390625,-0.0142822265625,0.44012451171875,2.6084970317703062,-3.100641726677578,47.659708012167854,0.9139287283244667,0.0317413552715759,-0.015549274238919516,0.4043327663934618,1,	00:31:31.335,0.021484375,0.0673828125,1.00732421875,0.06103515625,-0.9765625,-0.54931640625,3.8671875,-1.2030029296875,122.6458740234375,-406.0,-1281.0,-1936.0,-0.479278564453125,-0.025390625,-0.02459716796875,-0.876953125,3.8598506285837173,-1.1718071081931951,123.44287975320114,-0.47316193912438614,-0.024954286216600743,-0.024814619173863125,-0.8802722860789873,1
1782117398.563856,0.091,1023.0,1023.0,1024.0,1023.0,1024.0,1022.0,1023.0,1024.0,1022.0,1024.0,1024.0,1023.0,1024.0,1024.0,1023.0,1023.0,1023.0,1024.0,1023.0,1024.0,1024.0,1023.0,1023.0,1023.0,1023.0,1024.0,1024.0,1024.0,1024.0,1024.0,1023.0,1023.0,1023.0,1023.0,1024.0,1024.0,1024.0,1023.0,1023.0,1023.0,1023.0,1023.0,1022.0,1024.0,1023.0,1024.0,1023.0,1023.0,1023.0,1022.0,1022.0,1023.0,1023.0,1023.0,1024.0,1024.0,1024.0,1023.0,1023.0,1023.0,1022.0,1024.0,1022.0,1023.0,1023.0,1024.0,1023.0,1022.0,1022.0,1022.0,1022.0,1024.0,1023.0,1024.0,1023.0,1024.0,1024.0,1023.0,1022.0,1022.0,1022.0,1023.0,1023.0,1024.0,1024.0,1024.0,1024.0,1023.0,1023.0,1023.0,1022.0,1023.0,1023.0,1025.0,1025.0,1025.0,1024.0,1023.0,1024.0,1025.0,1023.0,1024.0,1023.0,1024.0,1024.0,1025.0,1024.0,1024.0,1023.0,1023.0,1023.0,1023.0,1022.0,1024.0,1022.0,1024.0,1023.0,1023.0,1023.0,1021.0,1022.0,1023.0,1024.0,1023.0,1024.0,1023.0,1023.0,1023.0,1022.0,1023.0,1024.0,1024.0,1024.0,1024.0,1023.0,1023.0,1023.0,1025.0,1024.0,1025.0,1025.0,1024.0,1024.0,1023.0,1025.0,1024.0,1025.0,1025.0,1024.0,1024.0,1024.0,1025.0,1024.0,1025.0,1025.0,1025.0,1024.0,1026.0,1025.0,1028.0,1027.0,1026.0,1024.0,1028.0,1027.0,1031.0,1029.0,1027.0,1025.0,1031.0,1030.0,1034.0,1033.0,1030.0,1026.0,1035.0,1034.0,1035.0,1039.0,1031.0,1027.0,1036.0,1035.0,1033.0,1040.0,1033.0,1029.0,1040.0,1039.0,1034.0,1044.0,1035.0,1032.0,1042.0,1040.0,1033.0,1045.0,1035.0,1031.0,1036.0,1035.0,1031.0,1041.0,1032.0,1034.0,1037.0,1036.0,1031.0,1039.0,1030.0,1023.0,1023.0,1023.0,1023.0,1024.0,1022.0,1040.0,1044.0,1037.0,1034.0,1042.0,1034.0,1035.0,1041.0,1036.0,1033.0,1040.0,1033.0,1029.0,1032.0,1028.0,1029.0,1032.0,2034,2021,1909,	00:31:31.344,0.0546875,0.0458984375,1.0166015625,-0.30517578125,0.18310546875,0.06103515625,2.5433349609375,-3.0377197265625,52.1905517578125,444.0,-1588.0,-2566.0,0.897247314453125,0.031585693359375,-0.0140380859375,0.440155029296875,2.5422453527844833,-3.0326187381713328,47.663779293424014,0.9139524062700929,0.030974133684562793,-0.01523911716173606,0.4043505551173745,1,	00:31:31.345,0.021484375,0.0673828125,1.00732421875,-0.30517578125,-1.0986328125,-0.54931640625,3.7847900390625,-1.2469482421875,122.640380859375,-405.0,-1281.0,-1937.0,-0.47930908203125,-0.025390625,-0.023712158203125,-0.876953125,3.8046186048421635,-1.2576682120914224,123.4377691704165,-0.47318750692500255,-0.025386626605418412,-0.02403420710808555,-0.8802678338826105,1
1782117398.573872,0.101,1024.0,1024.0,1023.0,1022.0,1023.0,1023.0,1023.0,1024.0,1022.0,1023.0,1024.0,1024.0,1024.0,1024.0,1023.0,1023.0,1022.0,1024.0,1023.0,1024.0,1024.0,1023.0,1023.0,1022.0,1023.0,1024.0,1023.0,1024.0,1024.0,1023.0,1023.0,1023.0,1022.0,1023.0,1024.0,1023.0,1024.0,1024.0,1023.0,1023.0,1023.0,1022.0,1023.0,1024.0,1023.0,1024.0,1024.0,1023.0,1023.0,1023.0,1022.0,1023.0,1023.0,1023.0,1023.0,1024.0,1024.0,1023.0,1023.0,1023.0,1023.0,1023.0,1023.0,1024.0,1023.0,1024.0,1024.0,1023.0,1022.0,1022.0,1023.0,1023.0,1023.0,1023.0,1023.0,1024.0,1023.0,1023.0,1022.0,1022.0,1022.0,1023.0,1022.0,1024.0,1023.0,1024.0,1024.0,1023.0,1023.0,1023.0,1023.0,1023.0,1023.0,1024.0,1024.0,1025.0,1024.0,1024.0,1024.0,1025.0,1023.0,1023.0,1023.0,1024.0,1024.0,1025.0,1024.0,1023.0,1023.0,1023.0,1022.0,1023.0,1022.0,1023.0,1023.0,1024.0,1024.0,1023.0,1022.0,1021.0,1022.0,1023.0,1024.0,1023.0,1024.0,1024.0,1023.0,1024.0,1023.0,1023.0,1024.0,1023.0,1024.0,1024.0,1024.0,1023.0,1023.0,1025.0,1024.0,1025.0,1024.0,1024.0,1024.0,1022.0,1024.0,1024.0,1025.0,1025.0,1024.0,1024.0,1023.0,1025.0,1024.0,1026.0,1024.0,1024.0,1024.0,1026.0,1024.0,1028.0,1027.0,1025.0,1024.0,1028.0,1027.0,1032.0,1029.0,1027.0,1025.0,1031.0,1029.0,1034.0,1032.0,1029.0,1026.0,1034.0,1034.0,1036.0,1039.0,1030.0,1027.0,1036.0,1035.0,1033.0,1040.0,1032.0,1029.0,1040.0,1039.0,1034.0,1044.0,1035.0,1032.0,1041.0,1041.0,1033.0,1045.0,1034.0,1031.0,1036.0,1036.0,1030.0,1041.0,1032.0,1034.0,1037.0,1036.0,1031.0,1039.0,1031.0,1023.0,1024.0,1023.0,1024.0,1024.0,1022.0,1040.0,1045.0,1038.0,1033.0,1042.0,1035.0,1035.0,1041.0,1035.0,1034.0,1040.0,1033.0,1029.0,1032.0,1028.0,1028.0,1033.0,2034,2021,1909,	00:31:31.354,0.05419921875,0.0458984375,1.017578125,-0.30517578125,0.244140625,0.1220703125,2.6312255859375,-3.05419921875,52.1905517578125,447.0,-1586.0,-2567.0,0.897247314453125,0.032318115234375,-0.013824462890625,0.44012451171875,2.6262444242467913,-3.05862084183813,47.660480759606855,0.9139334801789706,0.031735145503960234,-0.01515111704153057,0.40433762872158147,1,	00:31:31.356,0.02197265625,0.0673828125,1.00537109375,-0.42724609375,-1.15966796875,-0.48828125,3.8671875,-1.263427734375,122.62939453125,-405.0,-1281.0,-1935.0,-0.479339599609375,-0.025848388671875,-0.024322509765625,-0.87689208984375,3.8885239535415814,-1.2439042319560418,123.43020394116292,-0.47323111317132127,-0.025629038837612042,-0.02473396408818651,-0.8802179826130438,1
1782117398.584509,0.112,1023.0,1024.0,1024.0,1022.0,1023.0,1023.0,1023.0,1023.0,1022.0,1023.0,1024.0,1023.0,1024.0,1023.0,1022.0,1023.0,1023.0,1024.0,1023.0,1024.0,1024.0,1023.0,1023.0,1023.0,1023.0,1024.0,1023.0,1024.0,1023.0,1023.0,1023.0,1023.0,1023.0,1023.0,1024.0,1023.0,1024.0,1024.0,1023.0,1023.0,1023.0,1022.0,1023.0,1023.0,1023.0,1024.0,1023.0,1024.0,1023.0,1022.0,1023.0,1024.0,1023.0,1024.0,1023.0,1024.0,1023.0,1023.0,1023.0,1023.0,1022.0,1023.0,1022.0,1024.0,1022.0,1024.0,1024.0,1023.0,1023.0,1022.0,1023.0,1023.0,1023.0,1024.0,1023.0,1024.0,1024.0,1023.0,1023.0,1022.0,1023.0,1023.0,1023.0,1024.0,1024.0,1024.0,1024.0,1023.0,1023.0,1023.0,1023.0,1023.0,1023.0,1025.0,1024.0,1025.0,1024.0,1023.0,1024.0,1025.0,1023.0,1024.0,1022.0,1025.0,1024.0,1025.0,1024.0,1024.0,1024.0,1023.0,1022.0,1023.0,1022.0,1024.0,1022.0,1024.0,1024.0,1023.0,1023.0,1021.0,1022.0,1022.0,1024.0,1023.0,1024.0,1024.0,1023.0,1023.0,1022.0,1023.0,1024.0,1023.0,1024.0,1024.0,1023.0,1023.0,1023.0,1024.0,1024.0,1026.0,1024.0,1024.0,1024.0,1023.0,1024.0,1024.0,1026.0,1024.0,1024.0,1024.0,1023.0,1025.0,1024.0,1025.0,1025.0,1024.0,1024.0,1025.0,1025.0,1028.0,1027.0,1026.0,1024.0,1028.0,1027.0,1031.0,1030.0,1028.0,1025.0,1031.0,1030.0,1034.0,1033.0,1030.0,1026.0,1035.0,1034.0,1035.0,1039.0,1031.0,1027.0,1036.0,1036.0,1033.0,1040.0,1032.0,1029.0,1040.0,1039.0,1034.0,1044.0,1034.0,1032.0,1042.0,1040.0,1033.0,1045.0,1034.0,1031.0,1036.0,1036.0,1031.0,1041.0,1032.0,1034.0,1037.0,1035.0,1031.0,1039.0,1031.0,1024.0,1024.0,1023.0,1024.0,1024.0,1022.0,1040.0,1045.0,1038.0,1033.0,1042.0,1034.0,1035.0,1041.0,1035.0,1034.0,1040.0,1034.0,1029.0,1032.0,1028.0,1029.0,1032.0,2034,2021,1908,	00:31:31.365,0.05419921875,0.046875,1.01806640625,-0.30517578125,0.18310546875,0.06103515625,2.6751708984375,-2.9718017578125,52.1905517578125,445.0,-1585.0,-2568.0,0.897247314453125,0.0323486328125,-0.013031005859375,0.44012451171875,2.675270880028498,-2.9813671948448026,47.65842762299898,0.9139496659180291,0.031854065808671755,-0.01436222024604118,0.4043204833908172,1,	00:31:31.366,0.02197265625,0.06787109375,1.00634765625,-0.48828125,-1.15966796875,-0.48828125,3.8067626953125,-1.2030029296875,122.62939453125,-406.0,-1277.0,-1937.0,-0.47943115234375,-0.025146484375,-0.02410888671875,-0.87689208984375,3.79307266180615,-1.2673598369146,123.42653261400451,-0.4732734712613877,-0.025415713329000215,-0.023902947017345726,-0.8802243532418654,1
1782117398.593987,0.121,1023.0,1023.0,1024.0,1023.0,1023.0,1023.0,1023.0,1024.0,1022.0,1023.0,1024.0,1023.0,1024.0,1024.0,1023.0,1023.0,1023.0,1024.0,1023.0,1024.0,1023.0,1023.0,1023.0,1023.0,1023.0,1024.0,1024.0,1024.0,1024.0,1023.0,1023.0,1023.0,1022.0,1023.0,1024.0,1023.0,1024.0,1024.0,1023.0,1023.0,1023.0,1023.0,1023.0,1023.0,1023.0,1024.0,1024.0,1023.0,1023.0,1022.0,1022.0,1023.0,1023.0,1024.0,1023.0,1024.0,1024.0,1023.0,1023.0,1023.0,1022.0,1023.0,1022.0,1024.0,1023.0,1023.0,1024.0,1023.0,1022.0,1021.0,1022.0,1023.0,1023.0,1024.0,1023.0,1024.0,1023.0,1023.0,1022.0,1022.0,1022.0,1023.0,1022.0,1024.0,1023.0,1024.0,1024.0,1024.0,1023.0,1024.0,1022.0,1023.0,1023.0,1025.0,1024.0,1025.0,1024.0,1024.0,1024.0,1025.0,1023.0,1024.0,1023.0,1025.0,1024.0,1025.0,1024.0,1024.0,1024.0,1023.0,1023.0,1023.0,1023.0,1023.0,1023.0,1024.0,1024.0,1023.0,1023.0,1021.0,1022.0,1022.0,1024.0,1024.0,1024.0,1024.0,1023.0,1024.0,1023.0,1023.0,1024.0,1023.0,1024.0,1024.0,1023.0,1023.0,1023.0,1025.0,1023.0,1025.0,1025.0,1024.0,1024.0,1023.0,1025.0,1025.0,1025.0,1025.0,1024.0,1024.0,1023.0,1025.0,1024.0,1025.0,1025.0,1024.0,1023.0,1025.0,1025.0,1028.0,1027.0,1026.0,1024.0,1028.0,1027.0,1031.0,1029.0,1028.0,1025.0,1031.0,1030.0,1035.0,1033.0,1029.0,1026.0,1034.0,1034.0,1035.0,1039.0,1031.0,1027.0,1036.0,1035.0,1033.0,1040.0,1032.0,1029.0,1040.0,1039.0,1034.0,1044.0,1034.0,1032.0,1042.0,1041.0,1033.0,1045.0,1034.0,1031.0,1037.0,1036.0,1030.0,1041.0,1032.0,1034.0,1037.0,1036.0,1031.0,1039.0,1030.0,1023.0,1024.0,1022.0,1024.0,1024.0,1021.0,1041.0,1046.0,1037.0,1033.0,1042.0,1035.0,1035.0,1042.0,1034.0,1034.0,1041.0,1033.0,1029.0,1032.0,1028.0,1028.0,1032.0,2033,2021,1909,	00:31:31.375,0.05517578125,0.04541015625,1.01953125,-0.30517578125,0.18310546875,0.06103515625,2.603759765625,-3.0377197265625,52.1905517578125,447.0,-1584.0,-2568.0,0.897247314453125,0.03204345703125,-0.0137939453125,0.440155029296875,2.6042195338124365,-3.041192012672113,47.662695617297416,0.9139368451643924,0.03149844643469369,-0.015089142474649923,0.40435084852456793,1,	00:31:31.376,0.021484375,0.06689453125,1.0048828125,-0.54931640625,-1.220703125,-0.54931640625,3.812255859375,-1.307373046875,122.618408203125,-405.0,-1280.0,-1931.0,-0.47943115234375,-0.02593994140625,-0.023712158203125,-0.876861572265625,3.817340964301955,-1.1924191081741526,123.41960309784632,-0.4733438090503362,-0.024941994467715632,-0.024397780472625145,-0.880186505039529,1
1782117398.604331,0.132,1023.0,1023.0,1024.0,1022.0,1023.0,1023.0,1024.0,1024.0,1022.0,1023.0,1024.0,1023.0,1024.0,1024.0,1023.0,1024.0,1022.0,1023.0,1023.0,1023.0,1023.0,1023.0,1023.0,1023.0,1022.0,1024.0,1023.0,1024.0,1024.0,1023.0,1023.0,1023.0,1022.0,1023.0,1024.0,1024.0,1024.0,1023.0,1023.0,1023.0,1023.0,1023.0,1023.0,1024.0,1023.0,1023.0,1024.0,1023.0,1023.0,1023.0,1023.0,1023.0,1023.0,1024.0,1023.0,1024.0,1024.0,1023.0,1023.0,1023.0,1022.0,1023.0,1022.0,1024.0,1023.0,1024.0,1023.0,1023.0,1023.0,1022.0,1022.0,1023.0,1023.0,1023.0,1023.0,1024.0,1024.0,1023.0,1023.0,1022.0,1023.0,1023.0,1023.0,1024.0,1023.0,1024.0,1024.0,1023.0,1023.0,1024.0,1022.0,1023.0,1024.0,1025.0,1024.0,1025.0,1024.0,1024.0,1024.0,1025.0,1023.0,1023.0,1023.0,1025.0,1024.0,1025.0,1024.0,1023.0,1023.0,1024.0,1023.0,1023.0,1022.0,1024.0,1022.0,1024.0,1024.0,1023.0,1023.0,1021.0,1022.0,1023.0,1024.0,1023.0,1024.0,1024.0,1024.0,1023.0,1023.0,1023.0,1024.0,1023.0,1024.0,1023.0,1024.0,1023.0,1024.0,1025.0,1024.0,1025.0,1025.0,1024.0,1024.0,1023.0,1024.0,1024.0,1025.0,1024.0,1024.0,1024.0,1023.0,1024.0,1024.0,1025.0,1025.0,1024.0,1024.0,1026.0,1025.0,1028.0,1027.0,1026.0,1024.0,1028.0,1027.0,1031.0,1029.0,1027.0,1025.0,1031.0,1029.0,1034.0,1033.0,1029.0,1026.0,1035.0,1034.0,1035.0,1039.0,1031.0,1026.0,1036.0,1034.0,1033.0,1040.0,1033.0,1029.0,1040.0,1038.0,1034.0,1044.0,1035.0,1032.0,1042.0,1041.0,1033.0,1045.0,1034.0,1032.0,1037.0,1036.0,1030.0,1041.0,1031.0,1034.0,1037.0,1036.0,1030.0,1039.0,1030.0,1023.0,1024.0,1023.0,1023.0,1024.0,1022.0,1040.0,1046.0,1037.0,1034.0,1043.0,1034.0,1035.0,1041.0,1035.0,1034.0,1040.0,1033.0,1029.0,1032.0,1028.0,1029.0,1032.0,2033,2021,1909,	00:31:31.385,0.0546875,0.04541015625,1.017578125,-0.30517578125,0.18310546875,0.1220703125,2.52685546875,-3.087158203125,52.196044921875,446.0,-1586.0,-2569.0,0.897216796875,0.03167724609375,-0.014495849609375,0.440185546875,2.5242669068664036,-3.089589824797028,47.668110041884404,0.9139254049946167,0.03103183180325307,-0.01575600459153889,0.40438734876312815,1,	00:31:31.386,0.02197265625,0.0673828125,1.00634765625,-0.54931640625,-1.220703125,-0.48828125,3.834228515625,-1.23046875,122.6129150390625,-405.0,-1280.0,-1937.0,-0.4794921875,-0.025482177734375,-0.024200439453125,-0.8768310546875,3.833349489164015,-1.2933569573285693,123.41345827005206,-0.473357052481299,-0.025784421097076463,-0.024101869664462535,-0.88016326006803,1
1782117398.614444,0.142,1023.0,1023.0,1024.0,1022.0,1023.0,1023.0,1023.0,1023.0,1022.0,1023.0,1023.0,1023.0,1023.0,1024.0,1023.0,1023.0,1023.0,1024.0,1023.0,1024.0,1024.0,1023.0,1023.0,1023.0,1023.0,1024.0,1024.0,1023.0,1024.0,1023.0,1023.0,1023.0,1022.0,1022.0,1024.0,1023.0,1024.0,1024.0,1023.0,1023.0,1023.0,1023.0,1023.0,1024.0,1023.0,1023.0,1024.0,1023.0,1023.0,1022.0,1022.0,1023.0,1023.0,1024.0,1024.0,1024.0,1024.0,1023.0,1023.0,1023.0,1023.0,1023.0,1023.0,1024.0,1023.0,1024.0,1023.0,1023.0,1023.0,1022.0,1022.0,1023.0,1022.0,1024.0,1023.0,1024.0,1023.0,1022.0,1023.0,1022.0,1023.0,1023.0,1023.0,1024.0,1024.0,1024.0,1024.0,1023.0,1023.0,1023.0,1023.0,1023.0,1024.0,1024.0,1024.0,1024.0,1024.0,1024.0,1024.0,1025.0,1023.0,1023.0,1023.0,1024.0,1024.0,1025.0,1024.0,1024.0,1024.0,1023.0,1023.0,1023.0,1022.0,1023.0,1023.0,1024.0,1023.0,1023.0,1022.0,1021.0,1022.0,1023.0,1024.0,1023.0,1024.0,1024.0,1023.0,1023.0,1023.0,1023.0,1024.0,1023.0,1024.0,1024.0,1024.0,1023.0,1023.0,1025.0,1024.0,1025.0,1024.0,1024.0,1024.0,1023.0,1025.0,1024.0,1025.0,1025.0,1024.0,1024.0,1023.0,1025.0,1024.0,1025.0,1025.0,1024.0,1023.0,1026.0,1025.0,1028.0,1027.0,1026.0,1024.0,1029.0,1027.0,1031.0,1030.0,1028.0,1024.0,1031.0,1029.0,1034.0,1033.0,1029.0,1026.0,1034.0,1034.0,1035.0,1039.0,1030.0,1027.0,1036.0,1035.0,1033.0,1040.0,1032.0,1029.0,1040.0,1038.0,1034.0,1044.0,1035.0,1032.0,1041.0,1040.0,1033.0,1045.0,1034.0,1032.0,1036.0,1036.0,1030.0,1041.0,1032.0,1034.0,1037.0,1035.0,1030.0,1039.0,1030.0,1023.0,1023.0,1023.0,1023.0,1024.0,1021.0,1041.0,1045.0,1037.0,1033.0,1043.0,1035.0,1036.0,1041.0,1034.0,1034.0,1041.0,1033.0,1029.0,1033.0,1028.0,1029.0,1032.0,2033,2021,1909,	00:31:31.395,0.0546875,0.0458984375,1.01708984375,-0.30517578125,0.244140625,0.06103515625,2.61474609375,-3.065185546875,52.196044921875,447.0,-1585.0,-2569.0,0.897216796875,0.0322265625,-0.01397705078125,0.440155029296875,2.6101682429439808,-3.0648278711175347,47.664050466462314,0.9139235055586731,0.0316292448666476,-0.015256388035334108,0.4043645131321824,1,	00:31:31.396,0.02099609375,0.06787109375,1.00634765625,-0.54931640625,-1.220703125,-0.48828125,3.878173828125,-1.16455078125,122.607421875,-406.0,-1282.0,-1933.0,-0.47955322265625,-0.025146484375,-0.024810791015625,-0.876800537109375,3.850046152707561,-1.2162311597322955,123.40728208590377,-0.4734241257726984,-0.025262559791784246,-0.0245477869029217,-0.8801299940163905,1
1782117398.626109,0.154,1024.0,1023.0,1023.0,1023.0,1023.0,1023.0,1023.0,1024.0,1022.0,1023.0,1023.0,1023.0,1024.0,1024.0,1023.0,1023.0,1023.0,1024.0,1023.0,1024.0,1024.0,1023.0,1023.0,1023.0,1023.0,1024.0,1024.0,1024.0,1024.0,1023.0,1023.0,1024.0,1022.0,1023.0,1024.0,1023.0,1024.0,1024.0,1023.0,1023.0,1023.0,1023.0,1023.0,1024.0,1023.0,1024.0,1023.0,1023.0,1023.0,1022.0,1022.0,1023.0,1023.0,1024.0,1023.0,1024.0,1024.0,1023.0,1023.0,1023.0,1022.0,1024.0,1023.0,1024.0,1023.0,1024.0,1023.0,1023.0,1023.0,1022.0,1022.0,1023.0,1022.0,1024.0,1023.0,1024.0,1024.0,1023.0,1023.0,1023.0,1022.0,1023.0,1023.0,1024.0,1024.0,1024.0,1023.0,1024.0,1023.0,1023.0,1023.0,1022.0,1023.0,1025.0,1024.0,1025.0,1024.0,1023.0,1024.0,1025.0,1023.0,1023.0,1023.0,1025.0,1024.0,1025.0,1024.0,1024.0,1024.0,1023.0,1023.0,1023.0,1023.0,1024.0,1022.0,1024.0,1024.0,1023.0,1023.0,1021.0,1022.0,1023.0,1024.0,1024.0,1024.0,1024.0,1023.0,1023.0,1022.0,1023.0,1024.0,1023.0,1024.0,1024.0,1023.0,1023.0,1024.0,1025.0,1024.0,1025.0,1025.0,1024.0,1024.0,1023.0,1024.0,1024.0,1025.0,1024.0,1024.0,1024.0,1023.0,1025.0,1024.0,1025.0,1025.0,1024.0,1023.0,1025.0,1025.0,1028.0,1028.0,1026.0,1024.0,1028.0,1027.0,1031.0,1029.0,1028.0,1025.0,1030.0,1029.0,1035.0,1033.0,1029.0,1026.0,1035.0,1034.0,1036.0,1039.0,1031.0,1027.0,1036.0,1035.0,1033.0,1040.0,1033.0,1030.0,1040.0,1039.0,1034.0,1044.0,1035.0,1032.0,1041.0,1041.0,1034.0,1045.0,1034.0,1031.0,1036.0,1036.0,1031.0,1041.0,1032.0,1034.0,1037.0,1035.0,1030.0,1039.0,1031.0,1023.0,1023.0,1023.0,1023.0,1024.0,1022.0,1041.0,1045.0,1037.0,1033.0,1043.0,1035.0,1036.0,1041.0,1035.0,1034.0,1041.0,1033.0,1030.0,1033.0,1028.0,1029.0,1033.0,2033,2020,1909,	00:31:31.406,0.05517578125,0.046875,1.017578125,-0.30517578125,0.244140625,0.1220703125,2.65869140625,-3.1365966796875,52.1905517578125,446.0,-1583.0,-2569.0,0.897186279296875,0.032867431640625,-0.014373779296875,0.440155029296875,2.662756954823256,-3.135020547522618,47.662372085861165,0.9138939162713713,0.03229542722347295,-0.01563140379780166,0.4043644079267352,1,	00:31:31.407,0.02099609375,0.06689453125,1.00537109375,-0.67138671875,-1.220703125,-0.48828125,3.7847900390625,-1.20849609375,122.6019287109375,-406.0,-1282.0,-1932.0,-0.479583740234375,-0.025115966796875,-0.02392578125,-0.876800537109375,3.762245090008522,-1.1859788700449414,123.4032895599562,-0.47348294953603065,-0.024668373012828843,-0.023997707607270317,-0.8801303755132852,1
1782117398.635088,0.163,1023.0,1023.0,1024.0,1022.0,1023.0,1023.0,1023.0,1024.0,1023.0,1023.0,1024.0,1024.0,1023.0,1024.0,1023.0,1023.0,1023.0,1023.0,1023.0,1024.0,1023.0,1023.0,1023.0,1023.0,1023.0,1023.0,1023.0,1024.0,1024.0,1023.0,1023.0,1023.0,1022.0,1023.0,1024.0,1023.0,1024.0,1024.0,1023.0,1023.0,1023.0,1022.0,1023.0,1023.0,1023.0,1024.0,1024.0,1023.0,1023.0,1022.0,1022.0,1023.0,1024.0,1024.0,1023.0,1024.0,1024.0,1023.0,1023.0,1023.0,1022.0,1024.0,1022.0,1024.0,1023.0,1024.0,1024.0,1023.0,1023.0,1022.0,1023.0,1023.0,1022.0,1024.0,1023.0,1023.0,1024.0,1023.0,1023.0,1022.0,1022.0,1024.0,1023.0,1024.0,1024.0,1024.0,1024.0,1023.0,1023.0,1023.0,1023.0,1023.0,1023.0,1025.0,1024.0,1026.0,1024.0,1023.0,1024.0,1025.0,1023.0,1023.0,1023.0,1024.0,1024.0,1025.0,1024.0,1024.0,1024.0,1023.0,1022.0,1023.0,1022.0,1023.0,1022.0,1024.0,1023.0,1023.0,1023.0,1021.0,1022.0,1022.0,1024.0,1023.0,1025.0,1023.0,1023.0,1023.0,1023.0,1022.0,1024.0,1023.0,1024.0,1024.0,1023.0,1024.0,1023.0,1025.0,1024.0,1025.0,1024.0,1024.0,1024.0,1024.0,1024.0,1024.0,1025.0,1025.0,1024.0,1024.0,1023.0,1025.0,1024.0,1025.0,1024.0,1024.0,1024.0,1025.0,1025.0,1027.0,1027.0,1026.0,1024.0,1028.0,1026.0,1032.0,1030.0,1027.0,1025.0,1030.0,1029.0,1034.0,1033.0,1029.0,1026.0,1034.0,1034.0,1035.0,1039.0,1031.0,1026.0,1036.0,1036.0,1032.0,1040.0,1032.0,1030.0,1041.0,1039.0,1034.0,1044.0,1035.0,1032.0,1042.0,1040.0,1034.0,1044.0,1033.0,1032.0,1037.0,1036.0,1031.0,1041.0,1032.0,1034.0,1037.0,1035.0,1031.0,1039.0,1031.0,1023.0,1023.0,1023.0,1023.0,1024.0,1022.0,1041.0,1045.0,1038.0,1033.0,1042.0,1035.0,1036.0,1042.0,1035.0,1035.0,1041.0,1033.0,1029.0,1033.0,1028.0,1029.0,1033.0,2033,2020,1909,	00:31:31.416,0.0556640625,0.0458984375,1.01806640625,-0.30517578125,0.18310546875,0.06103515625,2.5653076171875,-3.1201171875,52.196044921875,446.0,-1584.0,-2568.0,0.897216796875,0.032073974609375,-0.014617919921875,0.440185546875,2.5684845587980987,-3.1235976830906527,47.66804522149288,0.9139035478986626,0.0315041627974172,-0.01587135001798127,0.40439571351991066,1,	00:31:31.417,0.02099609375,0.0673828125,1.005859375,-0.67138671875,-1.220703125,-0.48828125,3.8671875,-1.1865234375,122.596435546875,-405.0,-1280.0,-1938.0,-0.479644775390625,-0.025299072265625,-0.02459716796875,-0.876739501953125,3.846660848210455,-1.2070969453745646,123.39571608390786,-0.4735164579004202,-0.025180923134463292,-0.024557031454703795,-0.8800824037632321,1
1782117398.645338,0.173,1023.0,1023.0,1024.0,1023.0,1023.0,1022.0,1024.0,1023.0,1023.0,1023.0,1024.0,1024.0,1024.0,1024.0,1024.0,1023.0,1022.0,1024.0,1023.0,1024.0,1024.0,1023.0,1023.0,1022.0,1023.0,1024.0,1023.0,1024.0,1024.0,1023.0,1023.0,1023.0,1022.0,1023.0,1024.0,1023.0,1024.0,1024.0,1023.0,1023.0,1023.0,1022.0,1022.0,1024.0,1023.0,1024.0,1024.0,1023.0,1023.0,1023.0,1022.0,1023.0,1023.0,1024.0,1023.0,1024.0,1024.0,1023.0,1023.0,1023.0,1022.0,1023.0,1023.0,1024.0,1023.0,1024.0,1024.0,1023.0,1023.0,1022.0,1022.0,1023.0,1023.0,1023.0,1022.0,1024.0,1023.0,1024.0,1023.0,1022.0,1022.0,1023.0,1023.0,1024.0,1023.0,1024.0,1024.0,1023.0,1023.0,1023.0,1022.0,1024.0,1023.0,1025.0,1024.0,1025.0,1024.0,1024.0,1024.0,1025.0,1023.0,1024.0,1023.0,1024.0,1024.0,1025.0,1024.0,1024.0,1024.0,1023.0,1022.0,1023.0,1022.0,1023.0,1022.0,1024.0,1024.0,1023.0,1022.0,1021.0,1022.0,1023.0,1024.0,1023.0,1025.0,1024.0,1023.0,1023.0,1023.0,1023.0,1024.0,1023.0,1024.0,1024.0,1023.0,1023.0,1024.0,1025.0,1024.0,1025.0,1025.0,1024.0,1024.0,1023.0,1025.0,1024.0,1025.0,1025.0,1024.0,1024.0,1023.0,1024.0,1024.0,1025.0,1025.0,1024.0,1024.0,1026.0,1024.0,1028.0,1027.0,1026.0,1024.0,1028.0,1027.0,1031.0,1029.0,1028.0,1024.0,1031.0,1030.0,1034.0,1033.0,1029.0,1026.0,1034.0,1034.0,1035.0,1038.0,1031.0,1027.0,1037.0,1035.0,1033.0,1040.0,1032.0,1029.0,1041.0,1039.0,1034.0,1043.0,1035.0,1032.0,1043.0,1040.0,1033.0,1044.0,1034.0,1031.0,1037.0,1036.0,1032.0,1041.0,1032.0,1034.0,1038.0,1035.0,1032.0,1039.0,1030.0,1023.0,1024.0,1023.0,1023.0,1024.0,1022.0,1041.0,1046.0,1037.0,1034.0,1043.0,1034.0,1035.0,1041.0,1034.0,1034.0,1041.0,1034.0,1029.0,1032.0,1028.0,1029.0,1033.0,2033,2020,1909,	00:31:31.426,0.05419921875,0.0458984375,1.017578125,-0.30517578125,0.18310546875,0.1220703125,2.581787109375,-3.0322265625,52.196044921875,445.0,-1585.0,-2567.0,0.897216796875,0.0318603515625,-0.013824462890625,0.440185546875,2.581715893630259,-3.031709348142588,47.66846818923465,0.913925401051674,0.03128635584040695,-0.01509130258337828,0.40439309815710406,1,	00:31:31.427,0.021484375,0.0673828125,1.00634765625,-0.732421875,-1.28173828125,-0.48828125,3.790283203125,-1.263427734375,122.5909423828125,-405.0,-1283.0,-1936.0,-0.47967529296875,-0.025543212890625,-0.023712158203125,-0.87677001953125,3.7687887345329507,-1.277871578415234,123.3915197555638,-0.47354463570988575,-0.025403363606422362,-0.023665177215583307,-0.8800852836488214,1
1782117398.696202,0.224,1024.0,1023.0,1024.0,1022.0,1023.0,1022.0,1023.0,1024.0,1022.0,1023.0,1024.0,1024.0,1024.0,1024.0,1022.0,1024.0,1023.0,1024.0,1023.0,1024.0,1023.0,1023.0,1024.0,1023.0,1023.0,1024.0,1023.0,1024.0,1024.0,1023.0,1024.0,1023.0,1022.0,1023.0,1024.0,1023.0,1024.0,1024.0,1023.0,1023.0,1023.0,1023.0,1022.0,1024.0,1023.0,1024.0,1024.0,1023.0,1023.0,1022.0,1022.0,1022.0,1023.0,1024.0,1023.0,1024.0,1024.0,1023.0,1023.0,1023.0,1022.0,1023.0,1023.0,1024.0,1023.0,1024.0,1024.0,1023.0,1023.0,1023.0,1022.0,1023.0,1023.0,1024.0,1023.0,1024.0,1023.0,1023.0,1023.0,1022.0,1022.0,1023.0,1023.0,1024.0,1024.0,1024.0,1024.0,1023.0,1023.0,1024.0,1023.0,1023.0,1023.0,1025.0,1024.0,1025.0,1024.0,1024.0,1024.0,1025.0,1023.0,1023.0,1023.0,1025.0,1024.0,1025.0,1024.0,1024.0,1024.0,1023.0,1023.0,1023.0,1022.0,1024.0,1022.0,1024.0,1023.0,1023.0,1023.0,1021.0,1021.0,1023.0,1024.0,1023.0,1024.0,1024.0,1024.0,1023.0,1022.0,1023.0,1024.0,1023.0,1024.0,1024.0,1023.0,1023.0,1023.0,1025.0,1024.0,1025.0,1025.0,1024.0,1024.0,1023.0,1025.0,1024.0,1024.0,1025.0,1024.0,1024.0,1023.0,1024.0,1024.0,1025.0,1025.0,1024.0,1024.0,1026.0,1025.0,1028.0,1027.0,1026.0,1024.0,1028.0,1027.0,1031.0,1030.0,1028.0,1025.0,1031.0,1029.0,1034.0,1033.0,1029.0,1026.0,1035.0,1034.0,1035.0,1038.0,1031.0,1027.0,1037.0,1035.0,1033.0,1040.0,1032.0,1029.0,1040.0,1039.0,1034.0,1043.0,1035.0,1032.0,1041.0,1041.0,1033.0,1045.0,1034.0,1032.0,1037.0,1036.0,1031.0,1042.0,1032.0,1035.0,1038.0,1035.0,1031.0,1040.0,1030.0,1023.0,1024.0,1022.0,1023.0,1024.0,1022.0,1041.0,1046.0,1037.0,1033.0,1043.0,1035.0,1036.0,1042.0,1035.0,1034.0,1042.0,1034.0,1029.0,1032.0,1028.0,1029.0,1033.0,2033,2020,1909,	00:31:31.436,0.05517578125,0.0458984375,1.017578125,-0.30517578125,0.18310546875,0.06103515625,2.581787109375,-3.1201171875,52.196044921875,444.0,-1587.0,-2564.0,0.897216796875,0.032196044921875,-0.014556884765625,0.440216064453125,2.5798133265428316,-3.1214388830182607,47.66910011684533,0.9138973467662005,0.03158706135633243,-0.015813853339311724,0.4044055132798425,1,	00:31:31.437,0.0205078125,0.0673828125,1.005859375,-0.732421875,-1.28173828125,-0.54931640625,3.8177490234375,-1.1920166015625,122.58544921875,-405.0,-1283.0,-1935.0,-0.479736328125,-0.025115966796875,-0.02423095703125,-0.876708984375,3.806801457539468,-1.2105461272341844,123.38420887911461,-0.4736125332569743,-0.02504512846987266,-0.024234116709545096,-0.8800435315762211,1
1782117398.698207,0.226,1023.0,1024.0,1024.0,1022.0,1024.0,1022.0,1023.0,1023.0,1022.0,1023.0,1024.0,1024.0,1024.0,1024.0,1023.0,1023.0,1023.0,1024.0,1023.0,1024.0,1024.0,1023.0,1023.0,1023.0,1023.0,1024.0,1023.0,1024.0,1024.0,1023.0,1023.0,1023.0,1023.0,1023.0,1024.0,1023.0,1024.0,1024.0,1023.0,1023.0,1024.0,1023.0,1023.0,1024.0,1023.0,1024.0,1024.0,1023.0,1023.0,1022.0,1023.0,1023.0,1022.0,1024.0,1023.0,1024.0,1024.0,1023.0,1024.0,1023.0,1023.0,1023.0,1023.0,1024.0,1023.0,1024.0,1024.0,1023.0,1023.0,1022.0,1022.0,1023.0,1023.0,1024.0,1023.0,1024.0,1023.0,1023.0,1023.0,1022.0,1022.0,1023.0,1023.0,1024.0,1023.0,1024.0,1024.0,1023.0,1023.0,1024.0,1023.0,1023.0,1024.0,1025.0,1024.0,1025.0,1024.0,1023.0,1024.0,1025.0,1023.0,1023.0,1023.0,1024.0,1023.0,1025.0,1024.0,1024.0,1023.0,1023.0,1023.0,1024.0,1022.0,1024.0,1022.0,1024.0,1024.0,1023.0,1022.0,1021.0,1022.0,1023.0,1024.0,1023.0,1025.0,1023.0,1024.0,1023.0,1023.0,1022.0,1024.0,1023.0,1024.0,1024.0,1023.0,1023.0,1023.0,1025.0,1024.0,1025.0,1024.0,1024.0,1024.0,1023.0,1025.0,1024.0,1025.0,1024.0,1024.0,1024.0,1024.0,1025.0,1024.0,1025.0,1025.0,1024.0,1023.0,1026.0,1024.0,1028.0,1027.0,1025.0,1024.0,1028.0,1027.0,1031.0,1029.0,1027.0,1024.0,1031.0,1030.0,1034.0,1033.0,1029.0,1026.0,1034.0,1035.0,1036.0,1039.0,1031.0,1027.0,1036.0,1035.0,1033.0,1040.0,1032.0,1029.0,1040.0,1039.0,1034.0,1043.0,1035.0,1033.0,1042.0,1041.0,1033.0,1044.0,1034.0,1032.0,1037.0,1036.0,1031.0,1042.0,1032.0,1034.0,1038.0,1036.0,1030.0,1039.0,1031.0,1023.0,1024.0,1023.0,1023.0,1024.0,1021.0,1041.0,1046.0,1038.0,1033.0,1043.0,1035.0,1036.0,1042.0,1035.0,1034.0,1041.0,1033.0,1029.0,1033.0,1028.0,1028.0,1033.0,2033,2020,1909,	00:31:31.446,0.05419921875,0.04736328125,1.01806640625,-0.30517578125,0.18310546875,0.1220703125,2.6422119140625,-3.0596923828125,52.196044921875,446.0,-1587.0,-2571.0,0.897216796875,0.032440185546875,-0.0137939453125,0.440185546875,2.6441280529793727,-3.0574608999490724,47.66676765703118,0.9139066727756755,0.03187452305996754,-0.015077009352550236,0.40439002463559504,1,	00:31:31.448,0.0224609375,0.068359375,1.00634765625,-0.79345703125,-1.220703125,-0.48828125,3.8671875,-1.2744140625,122.5799560546875,-405.0,-1284.0,-1934.0,-0.479766845703125,-0.025970458984375,-0.024261474609375,-0.876678466796875,3.8696778337471263,-1.2804830934714804,123.37699360739992,-0.47363284564492547,-0.025843418386808634,-0.024425933284814454,-0.8800042153510064,1
1782117398.698207,0.226,1023.0,1024.0,1024.0,1023.0,1023.0,1022.0,1023.0,1024.0,1023.0,1023.0,1024.0,1023.0,1024.0,1024.0,1023.0,1024.0,1023.0,1024.0,1023.0,1024.0,1023.0,1023.0,1023.0,1023.0,1023.0,1024.0,1024.0,1024.0,1024.0,1023.0,1023.0,1023.0,1023.0,1023.0,1024.0,1023.0,1023.0,1024.0,1023.0,1023.0,1023.0,1022.0,1023.0,1023.0,1023.0,1024.0,1023.0,1023.0,1023.0,1022.0,1023.0,1023.0,1023.0,1024.0,1023.0,1024.0,1024.0,1023.0,1023.0,1023.0,1022.0,1023.0,1023.0,1023.0,1023.0,1023.0,1024.0,1023.0,1023.0,1022.0,1022.0,1023.0,1023.0,1024.0,1023.0,1024.0,1023.0,1023.0,1023.0,1023.0,1022.0,1023.0,1023.0,1024.0,1024.0,1024.0,1024.0,1023.0,1023.0,1023.0,1022.0,1024.0,1023.0,1025.0,1024.0,1025.0,1024.0,1024.0,1024.0,1025.0,1023.0,1024.0,1022.0,1025.0,1024.0,1025.0,1024.0,1024.0,1024.0,1023.0,1023.0,1023.0,1023.0,1024.0,1023.0,1024.0,1023.0,1023.0,1023.0,1021.0,1022.0,1023.0,1024.0,1023.0,1024.0,1024.0,1023.0,1023.0,1023.0,1023.0,1024.0,1023.0,1024.0,1024.0,1023.0,1023.0,1022.0,1025.0,1024.0,1025.0,1025.0,1024.0,1024.0,1023.0,1025.0,1024.0,1025.0,1025.0,1024.0,1024.0,1023.0,1025.0,1024.0,1025.0,1025.0,1024.0,1024.0,1026.0,1024.0,1027.0,1027.0,1026.0,1024.0,1028.0,1027.0,1031.0,1030.0,1027.0,1025.0,1031.0,1029.0,1034.0,1033.0,1029.0,1026.0,1035.0,1035.0,1035.0,1039.0,1031.0,1026.0,1036.0,1035.0,1033.0,1040.0,1032.0,1029.0,1041.0,1039.0,1034.0,1044.0,1035.0,1032.0,1043.0,1041.0,1034.0,1045.0,1034.0,1032.0,1037.0,1036.0,1031.0,1042.0,1032.0,1034.0,1038.0,1035.0,1031.0,1040.0,1031.0,1023.0,1023.0,1023.0,1023.0,1024.0,1022.0,1041.0,1046.0,1037.0,1033.0,1043.0,1034.0,1035.0,1042.0,1034.0,1033.0,1042.0,1033.0,1029.0,1033.0,1028.0,1028.0,1033.0,2032,2020,1909,	00:31:31.457,0.05517578125,0.04541015625,1.017578125,-0.30517578125,0.18310546875,0.06103515625,2.559814453125,-3.09814453125,52.2015380859375,446.0,-1585.0,-2570.0,0.897216796875,0.03192138671875,-0.014434814453125,0.440216064453125,2.558472875541919,-3.095708230792703,47.67189525333339,0.9139009435740091,0.03132669124829293,-0.015683080937634018,0.4044227302245431,1,	00:31:31.458,0.021484375,0.068359375,1.0048828125,-0.732421875,-1.220703125,-0.48828125,3.900146484375,-1.2030029296875,122.5689697265625,-404.0,-1283.0,-1935.0,-0.479827880859375,-0.025543212890625,-0.0247802734375,-0.87664794921875,3.8947399055902485,-1.2065207147734502,123.37059198602822,-0.47369897024769464,-0.02538063489363678,-0.024923104651075015,-0.879968151590284,1
1782117398.702792,0.230,1023.0,1024.0,1023.0,1022.0,1023.0,1022.0,1023.0,1024.0,1022.0,1023.0,1024.0,1024.0,1024.0,1024.0,1023.0,1023.0,1022.0,1024.0,1023.0,1024.0,1023.0,1023.0,1023.0,1023.0,1022.0,1024.0,1023.0,1024.0,1024.0,1023.0,1023.0,1023.0,1023.0,1023.0,1024.0,1024.0,1024.0,1024.0,1023.0,1023.0,1023.0,1022.0,1023.0,1024.0,1023.0,1024.0,1023.0,1023.0,1023.0,1022.0,1022.0,1023.0,1023.0,1024.0,1023.0,1024.0,1024.0,1023.0,1023.0,1023.0,1022.0,1023.0,1023.0,1024.0,1023.0,1024.0,1024.0,1023.0,1023.0,1022.0,1022.0,1023.0,1022.0,1023.0,1023.0,1023.0,1023.0,1023.0,1024.0,1022.0,1022.0,1023.0,1023.0,1024.0,1024.0,1024.0,1024.0,1024.0,1023.0,1023.0,1022.0,1023.0,1023.0,1025.0,1024.0,1025.0,1024.0,1024.0,1024.0,1025.0,1023.0,1024.0,1022.0,1025.0,1024.0,1025.0,1024.0,1023.0,1024.0,1023.0,1022.0,1024.0,1023.0,1024.0,1023.0,1024.0,1023.0,1023.0,1023.0,1021.0,1022.0,1023.0,1024.0,1023.0,1024.0,1024.0,1023.0,1023.0,1022.0,1023.0,1024.0,1023.0,1024.0,1024.0,1023.0,1023.0,1023.0,1025.0,1024.0,1025.0,1024.0,1024.0,1024.0,1023.0,1025.0,1024.0,1026.0,1025.0,1024.0,1024.0,1022.0,1024.0,1024.0,1025.0,1025.0,1024.0,1024.0,1025.0,1025.0,1028.0,1027.0,1026.0,1024.0,1028.0,1027.0,1032.0,1030.0,1027.0,1024.0,1031.0,1030.0,1034.0,1032.0,1030.0,1026.0,1034.0,1034.0,1035.0,1039.0,1031.0,1026.0,1036.0,1035.0,1033.0,1040.0,1032.0,1029.0,1040.0,1038.0,1034.0,1044.0,1035.0,1032.0,1042.0,1040.0,1034.0,1045.0,1034.0,1032.0,1038.0,1035.0,1031.0,1042.0,1031.0,1034.0,1038.0,1035.0,1031.0,1039.0,1031.0,1023.0,1024.0,1022.0,1023.0,1024.0,1022.0,1041.0,1046.0,1037.0,1033.0,1043.0,1034.0,1036.0,1042.0,1034.0,1034.0,1042.0,1033.0,1029.0,1033.0,1028.0,1029.0,1034.0,2032,2020,1910,	00:31:31.467,0.05419921875,0.0458984375,1.01806640625,-0.30517578125,0.18310546875,0.06103515625,2.5927734375,-3.01025390625,52.2015380859375,445.0,-1584.0,-2567.0,0.897216796875,0.0318603515625,-0.013641357421875,0.440216064453125,2.5926844306950607,-3.0101873042795138,47.67059886341563,0.9139211266830229,0.03129836560124293,-0.014880272965156274,0.4044096487345564,1,	00:31:31.468,0.021484375,0.068359375,1.0048828125,-0.732421875,-1.220703125,-0.48828125,3.8616943359375,-1.3018798828125,122.5689697265625,-407.0,-1281.0,-1934.0,-0.479827880859375,-0.026153564453125,-0.024078369140625,-0.87664794921875,3.869711901865881,-1.3082896066184533,123.36528759910213,-0.4737142201629854,-0.026059494656633743,-0.02430844042828561,-0.8799572944623846,1
1782117398.703798,0.231,1024.0,1023.0,1024.0,1023.0,1023.0,1022.0,1024.0,1024.0,1023.0,1023.0,1024.0,1023.0,1024.0,1024.0,1023.0,1023.0,1023.0,1024.0,1024.0,1023.0,1024.0,1023.0,1024.0,1023.0,1023.0,1024.0,1024.0,1024.0,1024.0,1022.0,1024.0,1024.0,1023.0,1023.0,1024.0,1023.0,1024.0,1023.0,1024.0,1024.0,1023.0,1023.0,1022.0,1024.0,1023.0,1024.0,1024.0,1023.0,1023.0,1022.0,1022.0,1023.0,1023.0,1024.0,1023.0,1024.0,1024.0,1023.0,1023.0,1023.0,1022.0,1024.0,1023.0,1024.0,1023.0,1024.0,1024.0,1023.0,1023.0,1023.0,1022.0,1023.0,1023.0,1024.0,1023.0,1024.0,1024.0,1023.0,1023.0,1022.0,1022.0,1023.0,1023.0,1024.0,1023.0,1024.0,1024.0,1023.0,1024.0,1023.0,1022.0,1023.0,1023.0,1025.0,1024.0,1025.0,1025.0,1024.0,1024.0,1025.0,1024.0,1023.0,1023.0,1025.0,1024.0,1025.0,1024.0,1023.0,1024.0,1023.0,1022.0,1023.0,1022.0,1024.0,1022.0,1024.0,1024.0,1022.0,1023.0,1020.0,1022.0,1023.0,1024.0,1024.0,1024.0,1024.0,1023.0,1023.0,1023.0,1022.0,1024.0,1023.0,1024.0,1024.0,1023.0,1023.0,1024.0,1025.0,1024.0,1025.0,1024.0,1024.0,1024.0,1023.0,1025.0,1024.0,1025.0,1025.0,1024.0,1024.0,1023.0,1025.0,1024.0,1025.0,1025.0,1024.0,1024.0,1026.0,1025.0,1028.0,1027.0,1026.0,1024.0,1028.0,1026.0,1031.0,1030.0,1028.0,1024.0,1031.0,1028.0,1034.0,1033.0,1029.0,1026.0,1035.0,1034.0,1035.0,1040.0,1031.0,1027.0,1036.0,1034.0,1033.0,1040.0,1032.0,1029.0,1040.0,1038.0,1034.0,1044.0,1035.0,1032.0,1042.0,1040.0,1034.0,1045.0,1033.0,1032.0,1037.0,1036.0,1031.0,1042.0,1032.0,1034.0,1038.0,1035.0,1030.0,1040.0,1031.0,1023.0,1024.0,1023.0,1023.0,1024.0,1022.0,1041.0,1046.0,1037.0,1034.0,1044.0,1034.0,1035.0,1042.0,1035.0,1033.0,1042.0,1033.0,1029.0,1033.0,1028.0,1029.0,1034.0,2032,2020,1909,	00:31:31.477,0.0556640625,0.04541015625,1.017578125,-0.244140625,0.244140625,0.1220703125,2.559814453125,-3.0926513671875,52.2015380859375,446.0,-1584.0,-2568.0,0.897186279296875,0.031951904296875,-0.014404296875,0.44024658203125,2.5623723932371605,-3.0951062920887518,47.67341290208303,0.9138946979417905,0.03135587987945936,-0.015664100069663893,0.4044353172509495,1,	00:31:31.478,0.02099609375,0.06884765625,1.0048828125,-0.732421875,-1.220703125,-0.48828125,3.900146484375,-1.23046875,122.5579833984375,-403.0,-1283.0,-1935.0,-0.479888916015625,-0.0257568359375,-0.024658203125,-0.8765869140625,3.8991040123622676,-1.236081556918157,123.35877381511473,-0.4737797258436312,-0.025628150339676845,-0.024831612402759457,-0.8799200874597531,1
1782117398.706718,0.234,1023.0,1024.0,1024.0,1023.0,1023.0,1023.0,1024.0,1024.0,1023.0,1023.0,1024.0,1023.0,1024.0,1023.0,1023.0,1023.0,1022.0,1024.0,1023.0,1024.0,1024.0,1023.0,1023.0,1022.0,1023.0,1024.0,1023.0,1024.0,1024.0,1023.0,1024.0,1023.0,1022.0,1023.0,1024.0,1024.0,1024.0,1024.0,1023.0,1023.0,1024.0,1022.0,1022.0,1024.0,1023.0,1024.0,1024.0,1023.0,1023.0,1022.0,1022.0,1023.0,1023.0,1024.0,1023.0,1024.0,1024.0,1024.0,1023.0,1023.0,1022.0,1022.0,1022.0,1024.0,1023.0,1024.0,1023.0,1023.0,1023.0,1022.0,1022.0,1023.0,1023.0,1023.0,1023.0,1024.0,1024.0,1023.0,1022.0,1022.0,1022.0,1023.0,1023.0,1024.0,1024.0,1024.0,1024.0,1023.0,1024.0,1023.0,1022.0,1024.0,1023.0,1025.0,1024.0,1025.0,1024.0,1024.0,1024.0,1025.0,1023.0,1024.0,1023.0,1025.0,1023.0,1025.0,1024.0,1024.0,1023.0,1023.0,1023.0,1023.0,1022.0,1024.0,1023.0,1024.0,1023.0,1022.0,1023.0,1020.0,1022.0,1023.0,1024.0,1024.0,1024.0,1024.0,1023.0,1023.0,1023.0,1023.0,1024.0,1023.0,1024.0,1024.0,1023.0,1024.0,1023.0,1025.0,1024.0,1025.0,1025.0,1024.0,1024.0,1023.0,1024.0,1024.0,1026.0,1025.0,1024.0,1024.0,1023.0,1025.0,1024.0,1026.0,1025.0,1024.0,1024.0,1026.0,1025.0,1027.0,1027.0,1025.0,1024.0,1028.0,1027.0,1031.0,1030.0,1027.0,1025.0,1031.0,1030.0,1034.0,1034.0,1030.0,1026.0,1034.0,1034.0,1035.0,1039.0,1030.0,1026.0,1037.0,1035.0,1033.0,1040.0,1032.0,1029.0,1040.0,1039.0,1034.0,1044.0,1035.0,1032.0,1042.0,1039.0,1033.0,1045.0,1034.0,1032.0,1037.0,1036.0,1031.0,1042.0,1031.0,1034.0,1038.0,1035.0,1031.0,1040.0,1031.0,1023.0,1024.0,1022.0,1024.0,1024.0,1022.0,1041.0,1046.0,1038.0,1033.0,1044.0,1035.0,1036.0,1042.0,1036.0,1034.0,1042.0,1034.0,1029.0,1033.0,1028.0,1029.0,1033.0,2032,2019,1906,	00:31:31.487,0.0556640625,0.04541015625,1.017578125,-0.244140625,0.18310546875,0.06103515625,2.537841796875,-3.1805419921875,52.20703125,446.0,-1584.0,-2568.0,0.897186279296875,0.0321044921875,-0.01519775390625,0.44024658203125,2.540298654190751,-3.182774921591472,47.6751803579441,0.9138684700228639,0.03148865479523705,-0.01644106845852039,0.40445342795580136,1,	00:31:31.488,0.021484375,0.06787109375,1.0048828125,-0.79345703125,-1.220703125,-0.48828125,3.80126953125,-1.219482421875,122.5579833984375,-403.0,-1280.0,-1930.0,-0.479949951171875,-0.025238037109375,-0.02398681640625,-0.8765869140625,3.8063779551317234,-1.2139373397183917,123.35488443322367,-0.47383680346507334,-0.025075608553114033,-0.024210413783461095,-0.879922583755029,1
1782117398.717068,0.245,1023.0,1024.0,1023.0,1023.0,1023.0,1022.0,1023.0,1024.0,1023.0,1023.0,1024.0,1023.0,1024.0,1023.0,1023.0,1023.0,1022.0,1024.0,1022.0,1024.0,1024.0,1023.0,1023.0,1023.0,1023.0,1024.0,1023.0,1024.0,1024.0,1023.0,1024.0,1023.0,1023.0,1023.0,1024.0,1023.0,1024.0,1024.0,1023.0,1023.0,1023.0,1023.0,1023.0,1024.0,1023.0,1024.0,1024.0,1023.0,1023.0,1022.0,1022.0,1023.0,1023.0,1024.0,1023.0,1024.0,1024.0,1023.0,1024.0,1023.0,1023.0,1023.0,1022.0,1024.0,1023.0,1024.0,1023.0,1023.0,1023.0,1022.0,1022.0,1023.0,1023.0,1023.0,1022.0,1024.0,1024.0,1023.0,1023.0,1022.0,1023.0,1023.0,1023.0,1024.0,1023.0,1024.0,1024.0,1023.0,1023.0,1024.0,1022.0,1024.0,1023.0,1024.0,1024.0,1026.0,1025.0,1023.0,1024.0,1025.0,1023.0,1023.0,1023.0,1025.0,1024.0,1025.0,1024.0,1024.0,1024.0,1023.0,1023.0,1023.0,1022.0,1024.0,1022.0,1024.0,1024.0,1023.0,1023.0,1021.0,1022.0,1023.0,1024.0,1023.0,1025.0,1024.0,1023.0,1024.0,1023.0,1023.0,1024.0,1023.0,1024.0,1024.0,1023.0,1023.0,1023.0,1025.0,1024.0,1025.0,1025.0,1024.0,1024.0,1023.0,1025.0,1024.0,1025.0,1025.0,1024.0,1025.0,1023.0,1025.0,1024.0,1025.0,1025.0,1024.0,1024.0,1025.0,1024.0,1028.0,1028.0,1026.0,1024.0,1028.0,1027.0,1031.0,1029.0,1028.0,1025.0,1031.0,1029.0,1034.0,1033.0,1029.0,1025.0,1034.0,1034.0,1035.0,1039.0,1031.0,1027.0,1036.0,1034.0,1033.0,1040.0,1033.0,1029.0,1040.0,1039.0,1034.0,1044.0,1035.0,1032.0,1042.0,1040.0,1033.0,1044.0,1034.0,1032.0,1037.0,1036.0,1031.0,1041.0,1032.0,1034.0,1038.0,1036.0,1031.0,1039.0,1031.0,1023.0,1024.0,1023.0,1023.0,1024.0,1022.0,1041.0,1046.0,1038.0,1034.0,1043.0,1035.0,1036.0,1041.0,1036.0,1035.0,1041.0,1034.0,1029.0,1033.0,1028.0,1028.0,1033.0,2032,2019,1906,	00:31:31.497,0.05517578125,0.046875,1.0185546875,-0.244140625,0.244140625,0.06103515625,2.603759765625,-3.1201171875,52.2015380859375,446.0,-1585.0,-2565.0,0.897186279296875,0.032379150390625,-0.014434814453125,0.44024658203125,2.605966629650611,-3.1189334765116223,47.67215221668124,0.9138800874124425,0.03178724093418139,-0.01570071651568802,0.404433238799326,1,	00:31:31.498,0.02294921875,0.0673828125,1.0048828125,-0.732421875,-1.15966796875,-0.48828125,3.8287353515625,-1.3128662109375,122.552490234375,-404.0,-1281.0,-1932.0,-0.47998046875,-0.026092529296875,-0.023773193359375,-0.8765869140625,3.8276292351987133,-1.3122488035724988,123.34862038376728,-0.47385054044312225,-0.025919402577026567,-0.023965122498404795,-0.8798974501585101,1
1782117398.729117,0.257,1023.0,1023.0,1024.0,1023.0,1023.0,1022.0,1023.0,1023.0,1023.0,1024.0,1024.0,1023.0,1024.0,1024.0,1023.0,1023.0,1023.0,1024.0,1023.0,1024.0,1024.0,1023.0,1023.0,1023.0,1023.0,1024.0,1023.0,1024.0,1023.0,1023.0,1023.0,1023.0,1022.0,1023.0,1024.0,1024.0,1024.0,1024.0,1023.0,1024.0,1024.0,1023.0,1023.0,1024.0,1023.0,1024.0,1024.0,1023.0,1022.0,1022.0,1022.0,1023.0,1023.0,1024.0,1023.0,1024.0,1024.0,1023.0,1023.0,1023.0,1022.0,1023.0,1022.0,1023.0,1023.0,1024.0,1023.0,1023.0,1023.0,1022.0,1022.0,1023.0,1022.0,1023.0,1023.0,1024.0,1024.0,1023.0,1023.0,1022.0,1022.0,1023.0,1023.0,1024.0,1024.0,1024.0,1024.0,1023.0,1023.0,1023.0,1023.0,1023.0,1024.0,1025.0,1024.0,1025.0,1025.0,1023.0,1024.0,1025.0,1023.0,1024.0,1023.0,1025.0,1023.0,1025.0,1024.0,1023.0,1023.0,1023.0,1023.0,1023.0,1022.0,1024.0,1022.0,1024.0,1024.0,1023.0,1023.0,1021.0,1022.0,1023.0,1024.0,1023.0,1024.0,1024.0,1023.0,1023.0,1023.0,1023.0,1024.0,1023.0,1025.0,1024.0,1024.0,1023.0,1024.0,1025.0,1024.0,1025.0,1024.0,1024.0,1024.0,1023.0,1025.0,1024.0,1025.0,1025.0,1024.0,1024.0,1023.0,1025.0,1024.0,1026.0,1025.0,1024.0,1023.0,1026.0,1024.0,1028.0,1027.0,1026.0,1024.0,1028.0,1027.0,1030.0,1030.0,1028.0,1024.0,1031.0,1030.0,1034.0,1034.0,1029.0,1026.0,1035.0,1034.0,1035.0,1039.0,1031.0,1027.0,1036.0,1034.0,1033.0,1040.0,1033.0,1029.0,1040.0,1039.0,1033.0,1043.0,1035.0,1032.0,1042.0,1040.0,1033.0,1044.0,1034.0,1032.0,1037.0,1036.0,1031.0,1041.0,1032.0,1034.0,1037.0,1035.0,1031.0,1039.0,1031.0,1023.0,1023.0,1023.0,1024.0,1024.0,1022.0,1041.0,1046.0,1037.0,1034.0,1043.0,1035.0,1036.0,1041.0,1036.0,1034.0,1042.0,1034.0,1030.0,1032.0,1028.0,1029.0,1033.0,2032,2019,1906,	00:31:31.508,0.0556640625,0.04638671875,1.017578125,-0.244140625,0.244140625,0.1220703125,2.6422119140625,-3.2025146484375,52.2015380859375,447.0,-1587.0,-2569.0,0.89715576171875,0.032958984375,-0.014923095703125,0.44024658203125,2.6414693375020524,-3.1997557304387314,47.671391128774616,0.9138485341827209,0.0323547053462765,-0.016220542223256706,0.4044390233694462,1,	00:31:31.509,0.0205078125,0.068359375,1.0048828125,-0.732421875,-1.220703125,-0.48828125,3.856201171875,-1.241455078125,122.54150390625,-405.0,-1282.0,-1935.0,-0.48004150390625,-0.025665283203125,-0.0242919921875,-0.87652587890625,3.8573022020065046,-1.240167479659565,123.34210648649153,-0.47391578482610003,-0.025490243861283464,-0.024490001338564667,-0.8798603958554966,1
1782117398.737428,0.265,1023.0,1023.0,1024.0,1023.0,1024.0,1022.0,1024.0,1023.0,1022.0,1023.0,1024.0,1023.0,1024.0,1024.0,1023.0,1023.0,1023.0,1024.0,1023.0,1023.0,1024.0,1023.0,1023.0,1023.0,1023.0,1024.0,1023.0,1024.0,1024.0,1023.0,1023.0,1023.0,1022.0,1023.0,1024.0,1023.0,1024.0,1024.0,1023.0,1023.0,1023.0,1023.0,1022.0,1023.0,1023.0,1023.0,1024.0,1023.0,1023.0,1022.0,1022.0,1023.0,1024.0,1024.0,1024.0,1024.0,1024.0,1023.0,1023.0,1023.0,1023.0,1024.0,1023.0,1023.0,1023.0,1024.0,1023.0,1023.0,1023.0,1022.0,1022.0,1023.0,1022.0,1024.0,1023.0,1024.0,1024.0,1023.0,1022.0,1022.0,1022.0,1023.0,1023.0,1024.0,1024.0,1024.0,1024.0,1023.0,1023.0,1023.0,1023.0,1023.0,1023.0,1024.0,1025.0,1026.0,1024.0,1023.0,1024.0,1025.0,1023.0,1023.0,1023.0,1025.0,1024.0,1025.0,1024.0,1023.0,1024.0,1023.0,1022.0,1023.0,1022.0,1024.0,1023.0,1024.0,1023.0,1023.0,1023.0,1020.0,1022.0,1023.0,1024.0,1023.0,1025.0,1024.0,1023.0,1023.0,1022.0,1023.0,1024.0,1023.0,1024.0,1024.0,1023.0,1023.0,1024.0,1024.0,1024.0,1025.0,1025.0,1024.0,1024.0,1023.0,1025.0,1024.0,1025.0,1025.0,1024.0,1024.0,1023.0,1025.0,1024.0,1026.0,1025.0,1024.0,1024.0,1025.0,1024.0,1028.0,1027.0,1025.0,1024.0,1028.0,1027.0,1031.0,1030.0,1028.0,1025.0,1030.0,1030.0,1034.0,1033.0,1030.0,1026.0,1034.0,1034.0,1035.0,1039.0,1031.0,1027.0,1036.0,1035.0,1033.0,1040.0,1032.0,1029.0,1040.0,1038.0,1034.0,1043.0,1035.0,1033.0,1042.0,1041.0,1034.0,1044.0,1034.0,1032.0,1036.0,1036.0,1031.0,1042.0,1032.0,1035.0,1037.0,1036.0,1030.0,1039.0,1030.0,1023.0,1024.0,1022.0,1023.0,1024.0,1022.0,1042.0,1045.0,1038.0,1033.0,1043.0,1035.0,1036.0,1041.0,1036.0,1034.0,1042.0,1034.0,1029.0,1032.0,1029.0,1029.0,1034.0,2032,2019,1907,	00:31:31.518,0.0546875,0.04638671875,1.017578125,-0.30517578125,0.18310546875,0.06103515625,2.61474609375,-3.109130859375,52.2015380859375,446.0,-1584.0,-2566.0,0.897186279296875,0.032440185546875,-0.014312744140625,0.44024658203125,2.6163480446354574,-3.1091549084829206,47.67329619271842,0.9138760737275703,0.03183577411430226,-0.015585731228464341,0.40444293829525274,1,	00:31:31.519,0.02099609375,0.06689453125,1.005859375,-0.67138671875,-1.28173828125,-0.48828125,3.7847900390625,-1.1920166015625,122.54150390625,-404.0,-1281.0,-1935.0,-0.4801025390625,-0.024993896484375,-0.023956298828125,-0.87652587890625,3.782559861454149,-1.1915766203251115,123.33781420332001,-0.473979718910718,-0.024809073234065036,-0.024116406466511947,-0.8798557466344841,1
1782117398.748214,0.276,1023.0,1023.0,1024.0,1023.0,1023.0,1023.0,1023.0,1023.0,1022.0,1023.0,1024.0,1024.0,1024.0,1024.0,1023.0,1023.0,1023.0,1023.0,1023.0,1024.0,1024.0,1023.0,1023.0,1023.0,1023.0,1024.0,1023.0,1024.0,1024.0,1023.0,1024.0,1023.0,1022.0,1023.0,1024.0,1023.0,1024.0,1024.0,1023.0,1023.0,1023.0,1022.0,1023.0,1024.0,1023.0,1024.0,1024.0,1023.0,1023.0,1022.0,1023.0,1023.0,1023.0,1024.0,1023.0,1024.0,1024.0,1023.0,1023.0,1023.0,1022.0,1023.0,1023.0,1024.0,1023.0,1024.0,1024.0,1023.0,1023.0,1022.0,1022.0,1023.0,1023.0,1024.0,1023.0,1024.0,1024.0,1024.0,1023.0,1022.0,1022.0,1023.0,1023.0,1024.0,1024.0,1024.0,1024.0,1023.0,1023.0,1024.0,1023.0,1023.0,1023.0,1025.0,1025.0,1026.0,1025.0,1023.0,1024.0,1025.0,1023.0,1023.0,1023.0,1024.0,1024.0,1025.0,1025.0,1023.0,1024.0,1023.0,1023.0,1023.0,1022.0,1023.0,1022.0,1024.0,1024.0,1022.0,1023.0,1021.0,1022.0,1022.0,1024.0,1023.0,1024.0,1024.0,1024.0,1023.0,1022.0,1023.0,1024.0,1023.0,1024.0,1024.0,1023.0,1023.0,1023.0,1024.0,1024.0,1026.0,1025.0,1024.0,1024.0,1023.0,1025.0,1024.0,1025.0,1025.0,1024.0,1024.0,1023.0,1024.0,1024.0,1026.0,1025.0,1024.0,1023.0,1025.0,1024.0,1027.0,1027.0,1026.0,1024.0,1027.0,1027.0,1031.0,1030.0,1028.0,1025.0,1030.0,1030.0,1034.0,1034.0,1029.0,1027.0,1033.0,1034.0,1036.0,1039.0,1031.0,1027.0,1035.0,1035.0,1033.0,1040.0,1032.0,1030.0,1039.0,1039.0,1034.0,1043.0,1035.0,1033.0,1041.0,1041.0,1034.0,1045.0,1034.0,1032.0,1036.0,1036.0,1031.0,1042.0,1032.0,1035.0,1037.0,1035.0,1031.0,1039.0,1031.0,1023.0,1024.0,1023.0,1024.0,1024.0,1021.0,1042.0,1045.0,1038.0,1034.0,1043.0,1035.0,1037.0,1041.0,1035.0,1034.0,1042.0,1034.0,1030.0,1032.0,1028.0,1029.0,1034.0,2031,2019,1908,	00:31:31.528,0.0546875,0.0458984375,1.01708984375,-0.244140625,0.244140625,0.06103515625,2.548828125,-3.0377197265625,52.20703125,448.0,-1584.0,-2572.0,0.897216796875,0.031646728515625,-0.0140380859375,0.44024658203125,2.5511452177506544,-3.040108041923521,47.677381172079926,0.9138998241174657,0.03107328512328061,-0.015263788238898313,0.40446085001927023,1,	00:31:31.530,0.021484375,0.06884765625,1.0048828125,-0.67138671875,-1.28173828125,-0.54931640625,3.8671875,-1.2249755859375,122.530517578125,-406.0,-1281.0,-1936.0,-0.480133056640625,-0.02557373046875,-0.024444580078125,-0.876495361328125,3.8652792698721203,-1.223810761484236,123.32960609630473,-0.47401495184391773,-0.025400378746053984,-0.024616217968051957,-0.8798060513550215,1
1782117398.758351,0.286,1023.0,1024.0,1023.0,1023.0,1023.0,1023.0,1023.0,1023.0,1023.0,1023.0,1024.0,1024.0,1024.0,1024.0,1022.0,1023.0,1023.0,1024.0,1023.0,1024.0,1024.0,1023.0,1023.0,1023.0,1023.0,1024.0,1023.0,1024.0,1024.0,1023.0,1023.0,1023.0,1023.0,1023.0,1024.0,1024.0,1024.0,1024.0,1023.0,1023.0,1023.0,1022.0,1023.0,1023.0,1023.0,1023.0,1023.0,1023.0,1023.0,1022.0,1022.0,1023.0,1023.0,1024.0,1023.0,1024.0,1024.0,1023.0,1023.0,1023.0,1023.0,1023.0,1023.0,1023.0,1023.0,1024.0,1024.0,1023.0,1023.0,1022.0,1022.0,1023.0,1022.0,1024.0,1023.0,1024.0,1024.0,1023.0,1023.0,1022.0,1022.0,1023.0,1023.0,1024.0,1024.0,1024.0,1023.0,1023.0,1023.0,1023.0,1023.0,1024.0,1024.0,1024.0,1025.0,1025.0,1025.0,1024.0,1024.0,1026.0,1024.0,1023.0,1023.0,1025.0,1024.0,1025.0,1024.0,1024.0,1024.0,1023.0,1022.0,1023.0,1022.0,1024.0,1023.0,1024.0,1024.0,1023.0,1023.0,1021.0,1022.0,1023.0,1024.0,1024.0,1024.0,1024.0,1023.0,1023.0,1022.0,1023.0,1024.0,1024.0,1024.0,1024.0,1023.0,1024.0,1024.0,1025.0,1024.0,1026.0,1025.0,1024.0,1024.0,1023.0,1024.0,1024.0,1025.0,1025.0,1024.0,1025.0,1024.0,1024.0,1024.0,1025.0,1025.0,1024.0,1024.0,1025.0,1025.0,1028.0,1027.0,1026.0,1024.0,1028.0,1027.0,1031.0,1030.0,1028.0,1025.0,1030.0,1030.0,1034.0,1035.0,1029.0,1026.0,1033.0,1034.0,1035.0,1039.0,1030.0,1027.0,1035.0,1035.0,1033.0,1040.0,1032.0,1029.0,1039.0,1039.0,1034.0,1044.0,1035.0,1033.0,1041.0,1041.0,1033.0,1045.0,1034.0,1033.0,1036.0,1036.0,1031.0,1042.0,1032.0,1034.0,1037.0,1036.0,1031.0,1039.0,1031.0,1023.0,1023.0,1023.0,1023.0,1024.0,1021.0,1042.0,1045.0,1038.0,1034.0,1043.0,1035.0,1036.0,1041.0,1036.0,1035.0,1042.0,1034.0,1030.0,1033.0,1028.0,1029.0,1034.0,2031,2019,1908,	00:31:31.539,0.05517578125,0.0458984375,1.017578125,-0.244140625,0.244140625,0.06103515625,2.5927734375,-3.1201171875,52.20703125,447.0,-1585.0,-2567.0,0.897186279296875,0.032257080078125,-0.014495849609375,0.44024658203125,2.590912726541462,-3.1188459734569722,47.67583270934055,0.9138712912605893,0.03166738213485072,-0.015752131484501095,0.40446051756892637,1,	00:31:31.540,0.02197265625,0.0673828125,1.00537109375,-0.67138671875,-1.28173828125,-0.54931640625,3.790283203125,-1.2908935546875,122.5250244140625,-404.0,-1280.0,-1935.0,-0.48016357421875,-0.025787353515625,-0.0235595703125,-0.876495361328125,3.7879392359429334,-1.2944290817404331,123.32481872422389,-0.4740476056626959,-0.02562343167598484,-0.023728829090633653,-0.8798063707342649,1
1782117398.768980,0.296,1023.0,1024.0,1024.0,1022.0,1023.0,1022.0,1023.0,1023.0,1023.0,1023.0,1024.0,1024.0,1024.0,1024.0,1023.0,1023.0,1023.0,1023.0,1024.0,1023.0,1024.0,1023.0,1023.0,1022.0,1023.0,1024.0,1023.0,1024.0,1024.0,1023.0,1023.0,1022.0,1022.0,1022.0,1024.0,1024.0,1024.0,1023.0,1023.0,1023.0,1023.0,1023.0,1023.0,1023.0,1023.0,1024.0,1024.0,1023.0,1023.0,1022.0,1022.0,1024.0,1023.0,1024.0,1023.0,1024.0,1024.0,1023.0,1023.0,1022.0,1023.0,1023.0,1022.0,1023.0,1023.0,1024.0,1024.0,1023.0,1022.0,1022.0,1022.0,1023.0,1022.0,1023.0,1022.0,1024.0,1023.0,1022.0,1023.0,1022.0,1022.0,1024.0,1023.0,1024.0,1023.0,1024.0,1024.0,1023.0,1024.0,1023.0,1022.0,1023.0,1024.0,1025.0,1024.0,1025.0,1024.0,1024.0,1024.0,1025.0,1023.0,1023.0,1023.0,1025.0,1024.0,1025.0,1025.0,1024.0,1023.0,1023.0,1022.0,1023.0,1023.0,1024.0,1023.0,1024.0,1023.0,1023.0,1023.0,1021.0,1022.0,1022.0,1024.0,1023.0,1024.0,1023.0,1024.0,1023.0,1023.0,1023.0,1024.0,1023.0,1024.0,1024.0,1023.0,1024.0,1023.0,1025.0,1024.0,1025.0,1025.0,1024.0,1024.0,1023.0,1024.0,1024.0,1025.0,1025.0,1024.0,1024.0,1023.0,1024.0,1024.0,1025.0,1025.0,1024.0,1023.0,1026.0,1025.0,1028.0,1027.0,1025.0,1024.0,1027.0,1027.0,1031.0,1030.0,1028.0,1024.0,1030.0,1030.0,1034.0,1033.0,1029.0,1026.0,1033.0,1034.0,1036.0,1038.0,1031.0,1026.0,1035.0,1035.0,1033.0,1040.0,1032.0,1030.0,1039.0,1039.0,1034.0,1044.0,1035.0,1032.0,1042.0,1040.0,1033.0,1044.0,1034.0,1032.0,1037.0,1036.0,1031.0,1042.0,1032.0,1035.0,1037.0,1036.0,1031.0,1039.0,1031.0,1023.0,1023.0,1022.0,1024.0,1024.0,1022.0,1042.0,1046.0,1038.0,1034.0,1043.0,1035.0,1036.0,1041.0,1036.0,1035.0,1042.0,1034.0,1030.0,1032.0,1029.0,1029.0,1034.0,2031,2019,1909,	00:31:31.549,0.05419921875,0.04541015625,1.017578125,-0.244140625,0.244140625,0.06103515625,2.548828125,-3.0322265625,52.20703125,447.0,-1583.0,-2569.0,0.897186279296875,0.0316162109375,-0.01397705078125,0.440277099609375,2.5482060566581506,-3.0342641270103354,47.67871101190348,0.9138976210258828,0.03102944959608625,-0.015227170925187182,0.40447057347427784,1,	00:31:31.551,0.0205078125,0.06787109375,1.0068359375,-0.732421875,-1.28173828125,-0.48828125,3.8232421875,-1.2249755859375,122.51953125,-405.0,-1284.0,-1936.0,-0.480224609375,-0.025421142578125,-0.02410888671875,-0.876434326171875,3.8234500825704405,-1.2257788691640263,123.3181549422856,-0.47411151847665356,-0.025244879942008473,-0.024284387298778704,-0.8797677151487193,1
1782117398.779371,0.307,1024.0,1024.0,1024.0,1023.0,1023.0,1023.0,1023.0,1023.0,1023.0,1023.0,1024.0,1024.0,1024.0,1024.0,1023.0,1023.0,1022.0,1023.0,1024.0,1023.0,1024.0,1023.0,1023.0,1023.0,1023.0,1024.0,1023.0,1024.0,1024.0,1023.0,1023.0,1023.0,1023.0,1023.0,1024.0,1023.0,1024.0,1023.0,1023.0,1024.0,1023.0,1022.0,1023.0,1023.0,1023.0,1024.0,1024.0,1023.0,1023.0,1022.0,1022.0,1023.0,1023.0,1024.0,1024.0,1024.0,1024.0,1023.0,1023.0,1023.0,1023.0,1023.0,1023.0,1023.0,1022.0,1024.0,1023.0,1023.0,1023.0,1022.0,1022.0,1023.0,1023.0,1024.0,1023.0,1024.0,1024.0,1023.0,1022.0,1022.0,1023.0,1023.0,1022.0,1024.0,1024.0,1024.0,1024.0,1024.0,1023.0,1024.0,1022.0,1023.0,1023.0,1024.0,1025.0,1025.0,1025.0,1024.0,1024.0,1025.0,1023.0,1023.0,1023.0,1024.0,1024.0,1025.0,1024.0,1023.0,1023.0,1023.0,1023.0,1023.0,1022.0,1024.0,1022.0,1024.0,1024.0,1023.0,1022.0,1021.0,1021.0,1023.0,1024.0,1023.0,1024.0,1024.0,1024.0,1023.0,1022.0,1023.0,1024.0,1023.0,1024.0,1023.0,1023.0,1023.0,1023.0,1024.0,1024.0,1025.0,1024.0,1024.0,1024.0,1023.0,1025.0,1024.0,1025.0,1025.0,1024.0,1024.0,1024.0,1024.0,1024.0,1025.0,1025.0,1025.0,1023.0,1025.0,1025.0,1028.0,1027.0,1026.0,1024.0,1027.0,1027.0,1031.0,1030.0,1028.0,1025.0,1030.0,1030.0,1034.0,1033.0,1029.0,1027.0,1034.0,1034.0,1036.0,1039.0,1031.0,1027.0,1036.0,1035.0,1033.0,1040.0,1033.0,1029.0,1040.0,1039.0,1034.0,1044.0,1036.0,1032.0,1042.0,1041.0,1033.0,1045.0,1034.0,1032.0,1036.0,1036.0,1031.0,1042.0,1032.0,1035.0,1038.0,1035.0,1030.0,1040.0,1032.0,1023.0,1023.0,1022.0,1023.0,1024.0,1021.0,1042.0,1045.0,1038.0,1034.0,1043.0,1035.0,1037.0,1041.0,1036.0,1035.0,1042.0,1034.0,1030.0,1032.0,1028.0,1029.0,1033.0,2031,2018,1909,	00:31:31.560,0.0546875,0.0458984375,1.017578125,-0.30517578125,0.18310546875,0.1220703125,2.603759765625,-3.1036376953125,52.20703125,447.0,-1583.0,-2568.0,0.897186279296875,0.032318115234375,-0.0142822265625,0.440277099609375,2.6057128173933415,-3.101031287870556,47.67677101713294,0.91386916756949,0.03172283730119841,-0.015557483451826507,0.4044685041731373,1,	00:31:31.561,0.02197265625,0.06884765625,1.00537109375,-0.732421875,-1.28173828125,-0.48828125,3.9056396484375,-1.2579345703125,122.5140380859375,-406.0,-1279.0,-1936.0,-0.480255126953125,-0.026031494140625,-0.02459716796875,-0.87640380859375,3.9050290715219043,-1.2602452719479065,123.31050357287484,-0.47414160007486866,-0.025848555030029797,-0.024766181456969526,-0.8797205417275098,1
1782117398.789425,0.317,1023.0,1023.0,1024.0,1023.0,1023.0,1023.0,1023.0,1023.0,1023.0,1022.0,1024.0,1024.0,1024.0,1024.0,1024.0,1023.0,1023.0,1024.0,1023.0,1024.0,1024.0,1023.0,1023.0,1023.0,1023.0,1024.0,1023.0,1024.0,1024.0,1023.0,1023.0,1023.0,1022.0,1023.0,1024.0,1023.0,1023.0,1024.0,1023.0,1024.0,1023.0,1022.0,1023.0,1023.0,1023.0,1024.0,1024.0,1023.0,1023.0,1022.0,1022.0,1023.0,1023.0,1024.0,1023.0,1024.0,1024.0,1024.0,1024.0,1023.0,1022.0,1024.0,1023.0,1023.0,1023.0,1024.0,1024.0,1023.0,1023.0,1022.0,1022.0,1023.0,1023.0,1023.0,1023.0,1024.0,1023.0,1023.0,1023.0,1022.0,1022.0,1023.0,1022.0,1024.0,1024.0,1024.0,1024.0,1023.0,1024.0,1024.0,1023.0,1023.0,1023.0,1025.0,1025.0,1025.0,1025.0,1024.0,1024.0,1025.0,1023.0,1024.0,1023.0,1024.0,1024.0,1025.0,1024.0,1024.0,1024.0,1023.0,1023.0,1023.0,1023.0,1024.0,1022.0,1024.0,1024.0,1023.0,1023.0,1021.0,1022.0,1023.0,1024.0,1023.0,1024.0,1024.0,1023.0,1023.0,1022.0,1023.0,1024.0,1023.0,1024.0,1024.0,1024.0,1023.0,1023.0,1025.0,1024.0,1025.0,1024.0,1024.0,1024.0,1023.0,1025.0,1024.0,1025.0,1025.0,1024.0,1024.0,1023.0,1024.0,1024.0,1025.0,1025.0,1024.0,1023.0,1026.0,1025.0,1028.0,1027.0,1026.0,1024.0,1028.0,1027.0,1031.0,1030.0,1027.0,1024.0,1031.0,1029.0,1034.0,1033.0,1030.0,1026.0,1034.0,1034.0,1035.0,1040.0,1031.0,1027.0,1035.0,1035.0,1033.0,1040.0,1033.0,1029.0,1040.0,1038.0,1034.0,1044.0,1035.0,1032.0,1042.0,1040.0,1033.0,1045.0,1034.0,1032.0,1037.0,1036.0,1030.0,1042.0,1033.0,1035.0,1037.0,1035.0,1031.0,1040.0,1031.0,1023.0,1024.0,1022.0,1024.0,1024.0,1022.0,1042.0,1046.0,1037.0,1034.0,1044.0,1035.0,1036.0,1041.0,1036.0,1035.0,1043.0,1034.0,1030.0,1032.0,1028.0,1028.0,1034.0,2031,2018,1909,	00:31:31.570,0.0556640625,0.044921875,1.0166015625,-0.30517578125,0.18310546875,0.1220703125,2.515869140625,-3.131103515625,52.2125244140625,447.0,-1585.0,-2563.0,0.89715576171875,0.03173828125,-0.014892578125,0.4403076171875,2.5173065355585087,-3.1331436161442,47.68271395973424,0.913862935336026,0.031131659036951326,-0.016124144833256648,0.4045063252633086,1,	00:31:31.571,0.021484375,0.06787109375,1.00537109375,-0.79345703125,-1.220703125,-0.48828125,3.8287353515625,-1.20849609375,122.508544921875,-405.0,-1281.0,-1932.0,-0.480316162109375,-0.02532958984375,-0.024200439453125,-0.87640380859375,3.8293510339418755,-1.2107312501579308,123.30625907131079,-0.47420606833781215,-0.025156344141244177,-0.02438942028523001,-0.8797163857057524,1
1782117398.799829,0.327,1023.0,1023.0,1024.0,1023.0,1023.0,1023.0,1023.0,1024.0,1023.0,1023.0,1023.0,1023.0,1024.0,1024.0,1023.0,1023.0,1023.0,1023.0,1023.0,1024.0,1024.0,1023.0,1023.0,1023.0,1023.0,1023.0,1023.0,1024.0,1024.0,1023.0,1023.0,1023.0,1022.0,1023.0,1024.0,1023.0,1024.0,1024.0,1023.0,1023.0,1024.0,1022.0,1023.0,1024.0,1023.0,1024.0,1024.0,1023.0,1023.0,1023.0,1022.0,1023.0,1023.0,1024.0,1023.0,1024.0,1024.0,1023.0,1023.0,1022.0,1023.0,1023.0,1023.0,1024.0,1023.0,1024.0,1024.0,1023.0,1023.0,1022.0,1022.0,1023.0,1022.0,1024.0,1023.0,1024.0,1023.0,1023.0,1023.0,1022.0,1023.0,1023.0,1023.0,1024.0,1024.0,1024.0,1024.0,1024.0,1023.0,1023.0,1023.0,1023.0,1024.0,1025.0,1025.0,1025.0,1025.0,1024.0,1024.0,1025.0,1024.0,1024.0,1023.0,1024.0,1024.0,1025.0,1024.0,1024.0,1024.0,1023.0,1023.0,1023.0,1022.0,1023.0,1022.0,1023.0,1024.0,1023.0,1022.0,1021.0,1022.0,1023.0,1024.0,1023.0,1025.0,1024.0,1023.0,1023.0,1023.0,1023.0,1024.0,1023.0,1024.0,1024.0,1023.0,1023.0,1023.0,1024.0,1023.0,1025.0,1025.0,1024.0,1024.0,1023.0,1024.0,1024.0,1025.0,1025.0,1024.0,1024.0,1023.0,1024.0,1024.0,1025.0,1026.0,1024.0,1024.0,1025.0,1024.0,1028.0,1027.0,1026.0,1024.0,1028.0,1027.0,1031.0,1030.0,1027.0,1024.0,1031.0,1029.0,1034.0,1034.0,1029.0,1026.0,1034.0,1034.0,1035.0,1040.0,1031.0,1026.0,1036.0,1034.0,1032.0,1041.0,1033.0,1029.0,1039.0,1038.0,1034.0,1044.0,1035.0,1032.0,1042.0,1040.0,1033.0,1046.0,1034.0,1032.0,1036.0,1036.0,1031.0,1042.0,1032.0,1035.0,1037.0,1035.0,1032.0,1040.0,1031.0,1023.0,1024.0,1022.0,1023.0,1024.0,1022.0,1042.0,1046.0,1037.0,1034.0,1044.0,1035.0,1036.0,1042.0,1035.0,1035.0,1043.0,1034.0,1030.0,1032.0,1028.0,1029.0,1034.0,2031,2018,1908,	00:31:31.580,0.0546875,0.04541015625,1.01806640625,-0.244140625,0.18310546875,0.06103515625,2.559814453125,-3.05419921875,52.2125244140625,445.0,-1587.0,-2566.0,0.897186279296875,0.03179931640625,-0.014068603515625,0.440277099609375,2.561815206485118,-3.0526145845238513,47.680868231787244,0.9138809798066739,0.031202872001872804,-0.015324973106708429,0.40449113800639325,1,	00:31:31.581,0.021484375,0.0673828125,1.0048828125,-0.79345703125,-1.220703125,-0.48828125,3.8671875,-1.3018798828125,122.5030517578125,-405.0,-1280.0,-1933.0,-0.4803466796875,-0.02618408203125,-0.024139404296875,-0.8763427734375,3.8691722630885725,-1.3007640525816473,123.29953308509224,-0.47422150463233625,-0.026013458270970156,-0.024320528239013588,-0.8796850438874149,1
1782117398.811089,0.339,1024.0,1024.0,1023.0,1022.0,1023.0,1023.0,1023.0,1024.0,1023.0,1023.0,1024.0,1024.0,1024.0,1024.0,1024.0,1023.0,1023.0,1023.0,1023.0,1024.0,1023.0,1023.0,1023.0,1023.0,1022.0,1024.0,1023.0,1024.0,1024.0,1023.0,1023.0,1023.0,1022.0,1023.0,1024.0,1023.0,1024.0,1024.0,1023.0,1023.0,1023.0,1022.0,1023.0,1024.0,1023.0,1024.0,1024.0,1023.0,1023.0,1022.0,1022.0,1023.0,1022.0,1024.0,1023.0,1024.0,1024.0,1023.0,1023.0,1023.0,1023.0,1023.0,1022.0,1023.0,1023.0,1024.0,1024.0,1023.0,1023.0,1022.0,1023.0,1023.0,1022.0,1024.0,1023.0,1024.0,1023.0,1023.0,1023.0,1022.0,1023.0,1024.0,1023.0,1024.0,1024.0,1024.0,1024.0,1024.0,1023.0,1023.0,1022.0,1023.0,1023.0,1025.0,1024.0,1025.0,1024.0,1024.0,1024.0,1025.0,1023.0,1023.0,1023.0,1024.0,1024.0,1024.0,1024.0,1023.0,1024.0,1023.0,1022.0,1023.0,1023.0,1023.0,1023.0,1024.0,1023.0,1023.0,1023.0,1021.0,1022.0,1023.0,1024.0,1024.0,1024.0,1024.0,1024.0,1024.0,1022.0,1023.0,1024.0,1023.0,1024.0,1024.0,1024.0,1023.0,1023.0,1025.0,1024.0,1025.0,1025.0,1024.0,1024.0,1023.0,1025.0,1024.0,1025.0,1025.0,1024.0,1025.0,1023.0,1025.0,1024.0,1025.0,1025.0,1025.0,1024.0,1025.0,1024.0,1028.0,1027.0,1026.0,1024.0,1027.0,1027.0,1031.0,1029.0,1028.0,1024.0,1031.0,1029.0,1034.0,1034.0,1029.0,1026.0,1034.0,1034.0,1035.0,1040.0,1031.0,1027.0,1036.0,1034.0,1033.0,1041.0,1032.0,1029.0,1040.0,1038.0,1034.0,1044.0,1035.0,1032.0,1041.0,1040.0,1034.0,1045.0,1034.0,1031.0,1036.0,1036.0,1031.0,1041.0,1032.0,1035.0,1037.0,1036.0,1031.0,1040.0,1032.0,1023.0,1024.0,1023.0,1023.0,1024.0,1021.0,1041.0,1045.0,1037.0,1034.0,1043.0,1035.0,1036.0,1042.0,1035.0,1035.0,1042.0,1034.0,1030.0,1032.0,1028.0,1029.0,1034.0,2031,2018,1909,	00:31:31.591,0.05517578125,0.046875,1.01806640625,-0.244140625,0.18310546875,0.1220703125,2.63671875,-3.09814453125,52.20703125,447.0,-1585.0,-2567.0,0.89715576171875,0.032562255859375,-0.01416015625,0.440277099609375,2.6370385155629266,-3.0992278989744126,47.678001216418004,0.9138566547215002,0.03196647715227581,-0.015432180999132529,0.4044823936209232,1,	00:31:31.592,0.02099609375,0.068359375,1.00537109375,-0.8544921875,-1.220703125,-0.48828125,3.878173828125,-1.2249755859375,122.4920654296875,-404.0,-1279.0,-1933.0,-0.48040771484375,-0.025634765625,-0.0245361328125,-0.876312255859375,3.878078841600718,-1.2225950698247425,123.29344902628522,-0.4742900620631159,-0.025451793161051745,-0.02471149573180072,-0.8796536166194906,1
1782117398.861489,0.389,1023.0,1023.0,1024.0,1022.0,1023.0,1022.0,1023.0,1024.0,1023.0,1023.0,1024.0,1023.0,1024.0,1024.0,1023.0,1023.0,1022.0,1023.0,1023.0,1024.0,1024.0,1023.0,1023.0,1023.0,1023.0,1024.0,1023.0,1024.0,1024.0,1023.0,1023.0,1023.0,1023.0,1023.0,1023.0,1024.0,1024.0,1024.0,1023.0,1023.0,1023.0,1022.0,1023.0,1024.0,1024.0,1024.0,1024.0,1023.0,1023.0,1022.0,1022.0,1023.0,1023.0,1024.0,1023.0,1024.0,1024.0,1023.0,1023.0,1023.0,1022.0,1024.0,1023.0,1024.0,1023.0,1024.0,1024.0,1023.0,1023.0,1022.0,1022.0,1022.0,1022.0,1024.0,1023.0,1023.0,1024.0,1023.0,1023.0,1022.0,1022.0,1023.0,1023.0,1024.0,1023.0,1024.0,1024.0,1023.0,1024.0,1023.0,1022.0,1023.0,1023.0,1024.0,1024.0,1025.0,1024.0,1024.0,1024.0,1025.0,1023.0,1023.0,1023.0,1025.0,1023.0,1025.0,1024.0,1023.0,1024.0,1023.0,1023.0,1023.0,1022.0,1023.0,1023.0,1024.0,1024.0,1023.0,1023.0,1021.0,1023.0,1023.0,1024.0,1023.0,1025.0,1024.0,1023.0,1023.0,1022.0,1022.0,1024.0,1023.0,1024.0,1024.0,1023.0,1023.0,1023.0,1024.0,1024.0,1026.0,1025.0,1024.0,1024.0,1024.0,1024.0,1024.0,1025.0,1025.0,1024.0,1024.0,1023.0,1025.0,1024.0,1025.0,1025.0,1025.0,1024.0,1025.0,1025.0,1028.0,1027.0,1026.0,1024.0,1028.0,1026.0,1031.0,1030.0,1027.0,1025.0,1031.0,1030.0,1034.0,1033.0,1030.0,1026.0,1034.0,1033.0,1036.0,1039.0,1031.0,1027.0,1036.0,1034.0,1034.0,1040.0,1033.0,1030.0,1040.0,1038.0,1035.0,1043.0,1036.0,1032.0,1042.0,1040.0,1034.0,1044.0,1034.0,1032.0,1037.0,1036.0,1031.0,1041.0,1033.0,1035.0,1038.0,1035.0,1032.0,1039.0,1032.0,1023.0,1024.0,1023.0,1023.0,1024.0,1022.0,1042.0,1045.0,1038.0,1034.0,1043.0,1036.0,1037.0,1041.0,1035.0,1035.0,1043.0,1035.0,1030.0,1032.0,1028.0,1029.0,1034.0,2031,2018,1902,	00:31:31.632,0.0546875,0.044921875,1.01806640625,-0.244140625,0.18310546875,0.1220703125,2.5048828125,-3.05419921875,52.218017578125,446.0,-1583.0,-2571.0,0.89715576171875,0.031341552734375,-0.014312744140625,0.44036865234375,2.5455704114153392,-3.0753944349971136,47.68409728353424,0.9138673513953438,0.03115394940127783,-0.015563204386429741,0.40451660307036585,1,	00:31:31.633,0.021484375,0.068359375,1.0048828125,-0.9765625,-1.28173828125,-0.42724609375,3.8946533203125,-1.2579345703125,122.4700927734375,-405.0,-1284.0,-1930.0,-0.4805908203125,-0.02593994140625,-0.024505615234375,-0.876220703125,3.959814761967209,-1.2309057043451697,123.28636264742079,-0.47432360981813165,-0.025855422498513067,-0.025302887083292844,-0.8796069430158964,1
1782117398.864487,0.392,1024.0,1023.0,1024.0,1022.0,1023.0,1022.0,1023.0,1024.0,1023.0,1023.0,1024.0,1024.0,1024.0,1024.0,1023.0,1023.0,1023.0,1024.0,1024.0,1024.0,1024.0,1023.0,1023.0,1023.0,1023.0,1024.0,1023.0,1024.0,1024.0,1023.0,1023.0,1023.0,1022.0,1023.0,1024.0,1023.0,1024.0,1024.0,1024.0,1024.0,1023.0,1022.0,1023.0,1024.0,1023.0,1024.0,1024.0,1023.0,1023.0,1022.0,1022.0,1023.0,1023.0,1024.0,1024.0,1024.0,1024.0,1023.0,1023.0,1023.0,1023.0,1024.0,1022.0,1024.0,1023.0,1024.0,1024.0,1023.0,1023.0,1022.0,1023.0,1023.0,1023.0,1023.0,1022.0,1024.0,1024.0,1023.0,1023.0,1022.0,1022.0,1023.0,1023.0,1024.0,1023.0,1024.0,1024.0,1023.0,1023.0,1024.0,1022.0,1024.0,1023.0,1025.0,1024.0,1025.0,1025.0,1024.0,1024.0,1025.0,1023.0,1023.0,1022.0,1025.0,1024.0,1025.0,1024.0,1024.0,1024.0,1023.0,1023.0,1023.0,1023.0,1024.0,1023.0,1023.0,1024.0,1023.0,1022.0,1021.0,1022.0,1023.0,1024.0,1023.0,1024.0,1024.0,1024.0,1023.0,1022.0,1023.0,1024.0,1023.0,1024.0,1024.0,1024.0,1023.0,1023.0,1025.0,1024.0,1025.0,1024.0,1024.0,1024.0,1023.0,1025.0,1024.0,1025.0,1025.0,1024.0,1024.0,1023.0,1025.0,1024.0,1025.0,1025.0,1025.0,1024.0,1025.0,1024.0,1028.0,1027.0,1026.0,1024.0,1028.0,1026.0,1031.0,1030.0,1028.0,1025.0,1031.0,1030.0,1035.0,1034.0,1030.0,1026.0,1034.0,1034.0,1035.0,1039.0,1031.0,1027.0,1036.0,1034.0,1033.0,1040.0,1033.0,1029.0,1040.0,1039.0,1034.0,1044.0,1036.0,1032.0,1042.0,1040.0,1033.0,1045.0,1035.0,1031.0,1036.0,1035.0,1031.0,1041.0,1032.0,1035.0,1038.0,1036.0,1031.0,1039.0,1032.0,1023.0,1023.0,1022.0,1024.0,1024.0,1022.0,1042.0,1046.0,1038.0,1034.0,1044.0,1035.0,1037.0,1042.0,1036.0,1035.0,1043.0,1035.0,1030.0,1032.0,1028.0,1029.0,1034.0,2030,2018,1899,	00:31:31.642,0.0556640625,0.0458984375,1.01806640625,-0.244140625,0.18310546875,0.1220703125,2.57080078125,-3.1146240234375,52.218017578125,446.0,-1583.0,-2570.0,0.897125244140625,0.032073974609375,-0.014556884765625,0.440338134765625,2.595599271708948,-3.1485225933409233,47.68254925840612,0.9138374417976126,0.031810146795709406,-0.015970525594184097,0.40451722687899916,1,	00:31:31.643,0.0205078125,0.06884765625,1.005859375,-0.9765625,-1.28173828125,-0.48828125,3.9056396484375,-1.1810302734375,122.464599609375,-405.0,-1283.0,-1932.0,-0.48065185546875,-0.025421142578125,-0.024932861328125,-0.876190185546875,3.899017738988113,-1.1674457044695952,123.28167000421452,-0.474392610335054,-0.025117853167650563,-0.02509821286076287,-0.8795969670382783,1
1782117398.872911,0.400,1023.0,1023.0,1024.0,1023.0,1023.0,1022.0,1024.0,1023.0,1023.0,1023.0,1024.0,1023.0,1024.0,1024.0,1023.0,1023.0,1023.0,1023.0,1023.0,1024.0,1024.0,1023.0,1023.0,1022.0,1023.0,1024.0,1023.0,1024.0,1024.0,1023.0,1023.0,1023.0,1022.0,1023.0,1024.0,1024.0,1024.0,1024.0,1023.0,1023.0,1023.0,1023.0,1023.0,1023.0,1022.0,1024.0,1024.0,1023.0,1023.0,1022.0,1022.0,1024.0,1024.0,1024.0,1023.0,1024.0,1024.0,1023.0,1023.0,1023.0,1022.0,1024.0,1022.0,1023.0,1023.0,1024.0,1024.0,1023.0,1023.0,1022.0,1022.0,1023.0,1023.0,1023.0,1023.0,1023.0,1024.0,1023.0,1023.0,1022.0,1022.0,1023.0,1023.0,1024.0,1023.0,1024.0,1024.0,1023.0,1024.0,1024.0,1023.0,1023.0,1023.0,1025.0,1024.0,1025.0,1025.0,1024.0,1024.0,1026.0,1023.0,1024.0,1023.0,1024.0,1024.0,1025.0,1025.0,1024.0,1024.0,1023.0,1023.0,1023.0,1022.0,1024.0,1023.0,1024.0,1024.0,1023.0,1023.0,1020.0,1022.0,1023.0,1024.0,1023.0,1024.0,1024.0,1023.0,1023.0,1023.0,1022.0,1024.0,1023.0,1024.0,1024.0,1023.0,1023.0,1024.0,1025.0,1024.0,1025.0,1025.0,1024.0,1024.0,1023.0,1025.0,1023.0,1025.0,1025.0,1024.0,1025.0,1023.0,1025.0,1024.0,1025.0,1025.0,1025.0,1023.0,1026.0,1024.0,1028.0,1027.0,1026.0,1024.0,1028.0,1027.0,1031.0,1030.0,1028.0,1024.0,1031.0,1029.0,1034.0,1033.0,1030.0,1026.0,1034.0,1034.0,1035.0,1039.0,1031.0,1026.0,1036.0,1034.0,1033.0,1040.0,1033.0,1030.0,1040.0,1039.0,1034.0,1043.0,1035.0,1031.0,1043.0,1040.0,1033.0,1045.0,1034.0,1031.0,1037.0,1035.0,1031.0,1041.0,1032.0,1035.0,1038.0,1036.0,1031.0,1040.0,1031.0,1023.0,1023.0,1022.0,1023.0,1024.0,1022.0,1042.0,1046.0,1037.0,1034.0,1044.0,1036.0,1037.0,1042.0,1035.0,1034.0,1043.0,1034.0,1030.0,1032.0,1028.0,1029.0,1034.0,2030,2017,1900,	00:31:31.652,0.0546875,0.044921875,1.017578125,-0.244140625,0.1220703125,0.06103515625,2.5048828125,-3.0487060546875,52.2235107421875,446.0,-1584.0,-2571.0,0.89715576171875,0.03131103515625,-0.0142822265625,0.44036865234375,2.531826800611695,-3.0793838923828254,47.686543446451964,0.9138612803349412,0.031058723090167308,-0.015642889944504516,0.4045345671494276,1,	00:31:31.653,0.0205078125,0.068359375,1.0048828125,-0.9765625,-1.3427734375,-0.48828125,3.8287353515625,-1.131591796875,122.4591064453125,-404.0,-1284.0,-1930.0,-0.480712890625,-0.02471923828125,-0.0245361328125,-0.876190185546875,3.798736450987516,-1.1681508270892442,123.27773111393286,-0.474444435683244,-0.024708940226626893,-0.024324678831403206,-0.8796023281698577,1
1782117398.881269,0.409,1024.0,1024.0,1024.0,1023.0,1023.0,1022.0,1024.0,1024.0,1023.0,1023.0,1024.0,1023.0,1024.0,1024.0,1023.0,1023.0,1023.0,1024.0,1023.0,1024.0,1024.0,1023.0,1023.0,1023.0,1023.0,1024.0,1024.0,1024.0,1024.0,1023.0,1024.0,1023.0,1022.0,1023.0,1024.0,1023.0,1024.0,1024.0,1023.0,1023.0,1023.0,1023.0,1023.0,1024.0,1023.0,1024.0,1023.0,1023.0,1023.0,1023.0,1022.0,1024.0,1023.0,1024.0,1024.0,1024.0,1024.0,1023.0,1023.0,1023.0,1023.0,1023.0,1023.0,1024.0,1023.0,1024.0,1024.0,1023.0,1023.0,1022.0,1022.0,1023.0,1023.0,1024.0,1022.0,1024.0,1024.0,1023.0,1023.0,1022.0,1023.0,1023.0,1023.0,1024.0,1024.0,1024.0,1024.0,1023.0,1023.0,1023.0,1022.0,1024.0,1023.0,1024.0,1025.0,1025.0,1025.0,1024.0,1024.0,1025.0,1023.0,1023.0,1023.0,1025.0,1023.0,1025.0,1025.0,1024.0,1024.0,1023.0,1023.0,1024.0,1022.0,1024.0,1022.0,1024.0,1024.0,1023.0,1023.0,1021.0,1022.0,1023.0,1024.0,1023.0,1024.0,1024.0,1023.0,1023.0,1022.0,1023.0,1024.0,1024.0,1024.0,1024.0,1023.0,1023.0,1023.0,1025.0,1024.0,1025.0,1025.0,1024.0,1024.0,1022.0,1025.0,1024.0,1024.0,1025.0,1024.0,1024.0,1023.0,1025.0,1024.0,1025.0,1025.0,1024.0,1024.0,1026.0,1024.0,1028.0,1027.0,1026.0,1024.0,1028.0,1026.0,1031.0,1030.0,1028.0,1024.0,1031.0,1029.0,1034.0,1033.0,1029.0,1026.0,1034.0,1034.0,1036.0,1039.0,1031.0,1027.0,1036.0,1034.0,1033.0,1040.0,1033.0,1029.0,1041.0,1038.0,1035.0,1043.0,1035.0,1032.0,1042.0,1039.0,1033.0,1045.0,1034.0,1032.0,1036.0,1035.0,1031.0,1041.0,1032.0,1035.0,1038.0,1035.0,1031.0,1040.0,1031.0,1023.0,1024.0,1022.0,1023.0,1024.0,1021.0,1042.0,1045.0,1037.0,1034.0,1043.0,1036.0,1037.0,1042.0,1036.0,1034.0,1043.0,1034.0,1029.0,1033.0,1028.0,1029.0,1034.0,2030,2017,1902,	00:31:31.663,0.05517578125,0.04541015625,1.01708984375,-0.244140625,0.18310546875,0.06103515625,2.5653076171875,-3.109130859375,52.218017578125,447.0,-1583.0,-2568.0,0.897125244140625,0.03204345703125,-0.0145263671875,0.44036865234375,2.596560972517735,-3.13970364520331,47.68359039373901,0.9138361346946139,0.03178691648220422,-0.015896474374103284,0.40452492255661393,1,	00:31:31.664,0.02099609375,0.068359375,1.00537109375,-0.9765625,-1.3427734375,-0.48828125,3.8836669921875,-1.20849609375,122.45361328125,-406.0,-1282.0,-1930.0,-0.480712890625,-0.025543212890625,-0.024627685546875,-0.87615966796875,3.8771741862202567,-1.2058700489166891,123.27014695736516,-0.4744742084523766,-0.025324747391179167,-0.024768718662648962,-0.8795563616158284,1
1782117398.892284,0.420,1024.0,1024.0,1024.0,1023.0,1023.0,1022.0,1023.0,1023.0,1023.0,1024.0,1023.0,1023.0,1024.0,1024.0,1023.0,1023.0,1023.0,1024.0,1023.0,1023.0,1023.0,1022.0,1024.0,1023.0,1023.0,1024.0,1023.0,1023.0,1024.0,1023.0,1023.0,1023.0,1023.0,1023.0,1024.0,1023.0,1024.0,1024.0,1023.0,1023.0,1023.0,1023.0,1023.0,1023.0,1022.0,1024.0,1023.0,1022.0,1023.0,1023.0,1022.0,1023.0,1023.0,1024.0,1023.0,1024.0,1024.0,1023.0,1023.0,1023.0,1023.0,1023.0,1023.0,1024.0,1023.0,1023.0,1023.0,1023.0,1023.0,1022.0,1022.0,1023.0,1023.0,1023.0,1023.0,1023.0,1024.0,1023.0,1022.0,1022.0,1022.0,1023.0,1023.0,1024.0,1024.0,1024.0,1024.0,1023.0,1024.0,1023.0,1023.0,1024.0,1023.0,1025.0,1024.0,1025.0,1025.0,1024.0,1024.0,1025.0,1023.0,1023.0,1024.0,1025.0,1024.0,1025.0,1024.0,1024.0,1024.0,1023.0,1023.0,1024.0,1023.0,1023.0,1022.0,1024.0,1024.0,1023.0,1023.0,1021.0,1022.0,1023.0,1024.0,1024.0,1024.0,1024.0,1024.0,1023.0,1023.0,1023.0,1024.0,1023.0,1024.0,1024.0,1023.0,1023.0,1024.0,1025.0,1024.0,1025.0,1025.0,1024.0,1024.0,1023.0,1025.0,1024.0,1025.0,1025.0,1024.0,1024.0,1023.0,1024.0,1024.0,1026.0,1025.0,1024.0,1024.0,1025.0,1025.0,1028.0,1027.0,1026.0,1024.0,1028.0,1027.0,1031.0,1029.0,1027.0,1025.0,1031.0,1030.0,1034.0,1034.0,1029.0,1026.0,1035.0,1034.0,1036.0,1040.0,1031.0,1027.0,1036.0,1034.0,1033.0,1040.0,1033.0,1029.0,1040.0,1038.0,1034.0,1044.0,1036.0,1032.0,1042.0,1040.0,1033.0,1045.0,1035.0,1032.0,1036.0,1035.0,1031.0,1041.0,1032.0,1035.0,1038.0,1035.0,1031.0,1040.0,1032.0,1023.0,1023.0,1022.0,1023.0,1024.0,1022.0,1042.0,1045.0,1038.0,1033.0,1044.0,1035.0,1037.0,1042.0,1036.0,1034.0,1043.0,1034.0,1030.0,1032.0,1028.0,1029.0,1034.0,2030,2017,1903,	00:31:31.673,0.0556640625,0.044921875,1.01806640625,-0.244140625,0.18310546875,0.06103515625,2.4774169921875,-3.14208984375,52.2235107421875,447.0,-1584.0,-2565.0,0.897125244140625,0.031463623046875,-0.015106201171875,0.440399169921875,2.5039801539112108,-3.1210006705456563,47.68920397163705,0.9138472181924986,0.030983543238824966,-0.016072540741267793,0.40455525615707916,1,	00:31:31.674,0.02099609375,0.06884765625,1.0048828125,-0.91552734375,-1.3427734375,-0.54931640625,3.9605712890625,-1.1865234375,122.4481201171875,-404.0,-1281.0,-1935.0,-0.48077392578125,-0.02569580078125,-0.0252685546875,-0.8760986328125,3.956353164773347,-1.194442728151761,123.2619090520217,-0.47452334951151937,-0.025566739680834675,-0.025421996629075825,-0.8795042095850663,1
1782117398.902809,0.430,1023.0,1023.0,1024.0,1023.0,1024.0,1022.0,1023.0,1024.0,1023.0,1023.0,1023.0,1023.0,1024.0,1024.0,1023.0,1023.0,1023.0,1024.0,1023.0,1023.0,1024.0,1023.0,1023.0,1023.0,1023.0,1024.0,1024.0,1024.0,1024.0,1023.0,1023.0,1023.0,1022.0,1023.0,1023.0,1023.0,1024.0,1024.0,1023.0,1024.0,1023.0,1023.0,1023.0,1024.0,1023.0,1024.0,1024.0,1023.0,1023.0,1023.0,1022.0,1023.0,1023.0,1024.0,1023.0,1024.0,1024.0,1023.0,1023.0,1022.0,1023.0,1023.0,1023.0,1024.0,1022.0,1024.0,1024.0,1023.0,1022.0,1022.0,1022.0,1023.0,1023.0,1023.0,1023.0,1023.0,1024.0,1023.0,1022.0,1021.0,1022.0,1023.0,1024.0,1024.0,1024.0,1024.0,1024.0,1023.0,1024.0,1023.0,1023.0,1023.0,1023.0,1024.0,1025.0,1025.0,1024.0,1024.0,1024.0,1025.0,1023.0,1023.0,1023.0,1024.0,1024.0,1025.0,1024.0,1023.0,1024.0,1023.0,1022.0,1023.0,1022.0,1023.0,1023.0,1024.0,1024.0,1023.0,1023.0,1021.0,1022.0,1023.0,1024.0,1023.0,1024.0,1024.0,1023.0,1023.0,1022.0,1023.0,1024.0,1023.0,1024.0,1024.0,1023.0,1024.0,1024.0,1025.0,1024.0,1024.0,1025.0,1024.0,1024.0,1023.0,1025.0,1024.0,1025.0,1025.0,1024.0,1025.0,1023.0,1024.0,1024.0,1025.0,1025.0,1025.0,1023.0,1026.0,1024.0,1028.0,1027.0,1026.0,1024.0,1029.0,1026.0,1031.0,1030.0,1028.0,1024.0,1031.0,1030.0,1035.0,1034.0,1029.0,1026.0,1034.0,1034.0,1036.0,1039.0,1031.0,1027.0,1036.0,1034.0,1033.0,1040.0,1032.0,1029.0,1040.0,1038.0,1035.0,1044.0,1035.0,1032.0,1042.0,1040.0,1034.0,1045.0,1034.0,1032.0,1036.0,1036.0,1031.0,1042.0,1032.0,1035.0,1037.0,1036.0,1031.0,1040.0,1031.0,1023.0,1024.0,1022.0,1023.0,1024.0,1022.0,1041.0,1045.0,1037.0,1034.0,1045.0,1035.0,1035.0,1042.0,1035.0,1035.0,1043.0,1034.0,1029.0,1033.0,1028.0,1028.0,1035.0,2030,2017,1904,	00:31:31.683,0.05517578125,0.044921875,1.017578125,-0.244140625,0.1220703125,0.06103515625,2.5433349609375,-3.0816650390625,52.218017578125,447.0,-1584.0,-2567.0,0.897125244140625,0.031768798828125,-0.014373779296875,0.44036865234375,2.5712105688487554,-3.0601513719457287,47.6861084669317,0.9138577199249674,0.03130503485792739,-0.015350515598408748,0.4045348244551348,1,	00:31:31.684,0.021484375,0.06884765625,1.00537109375,-0.91552734375,-1.3427734375,-0.48828125,3.878173828125,-1.2579345703125,122.442626953125,-404.0,-1284.0,-1931.0,-0.480804443359375,-0.025909423828125,-0.024383544921875,-0.8760986328125,3.8720038454329195,-1.259636181537375,123.25772788519622,-0.47455432811915843,-0.025718520297534415,-0.024503326981993027,-0.8795091439796933,1
1782117398.913814,0.441,1024.0,1023.0,1024.0,1023.0,1023.0,1022.0,1023.0,1023.0,1023.0,1023.0,1024.0,1023.0,1024.0,1024.0,1023.0,1023.0,1023.0,1023.0,1023.0,1024.0,1024.0,1023.0,1023.0,1023.0,1023.0,1024.0,1023.0,1024.0,1024.0,1023.0,1022.0,1023.0,1022.0,1023.0,1024.0,1023.0,1024.0,1024.0,1023.0,1023.0,1022.0,1023.0,1023.0,1023.0,1023.0,1023.0,1024.0,1022.0,1023.0,1022.0,1023.0,1023.0,1023.0,1024.0,1023.0,1024.0,1024.0,1024.0,1023.0,1023.0,1023.0,1023.0,1022.0,1024.0,1023.0,1024.0,1023.0,1023.0,1023.0,1022.0,1022.0,1023.0,1023.0,1023.0,1023.0,1024.0,1024.0,1023.0,1022.0,1022.0,1022.0,1023.0,1023.0,1024.0,1024.0,1024.0,1024.0,1023.0,1023.0,1023.0,1023.0,1024.0,1024.0,1024.0,1024.0,1025.0,1024.0,1024.0,1024.0,1025.0,1023.0,1023.0,1023.0,1024.0,1024.0,1025.0,1024.0,1024.0,1023.0,1024.0,1023.0,1023.0,1022.0,1024.0,1022.0,1024.0,1024.0,1023.0,1022.0,1021.0,1022.0,1023.0,1024.0,1024.0,1024.0,1024.0,1024.0,1024.0,1022.0,1023.0,1024.0,1024.0,1024.0,1024.0,1024.0,1023.0,1023.0,1025.0,1024.0,1025.0,1024.0,1024.0,1024.0,1023.0,1025.0,1024.0,1025.0,1025.0,1024.0,1024.0,1023.0,1024.0,1024.0,1025.0,1025.0,1025.0,1023.0,1026.0,1024.0,1027.0,1027.0,1027.0,1024.0,1028.0,1027.0,1031.0,1029.0,1028.0,1025.0,1031.0,1030.0,1034.0,1033.0,1030.0,1026.0,1034.0,1034.0,1035.0,1039.0,1031.0,1027.0,1036.0,1035.0,1033.0,1040.0,1032.0,1029.0,1041.0,1038.0,1035.0,1044.0,1035.0,1032.0,1042.0,1040.0,1033.0,1045.0,1035.0,1032.0,1037.0,1035.0,1031.0,1042.0,1032.0,1035.0,1038.0,1036.0,1031.0,1040.0,1030.0,1023.0,1024.0,1022.0,1023.0,1024.0,1022.0,1041.0,1046.0,1037.0,1034.0,1044.0,1035.0,1036.0,1041.0,1036.0,1034.0,1043.0,1034.0,1030.0,1033.0,1029.0,1029.0,1035.0,2030,2017,1905,	00:31:31.693,0.0556640625,0.04541015625,1.01806640625,-0.244140625,0.18310546875,0.06103515625,2.559814453125,-3.1695556640625,52.218017578125,448.0,-1587.0,-2570.0,0.8970947265625,0.0322265625,-0.0150146484375,0.44036865234375,2.5456634283512996,-3.147001588580596,47.68805216131959,0.9138322431261963,0.031407339037791755,-0.01613315696637587,0.4045539911109618,1,	00:31:31.694,0.02099609375,0.06787109375,1.00537109375,-0.91552734375,-1.40380859375,-0.54931640625,3.84521484375,-1.1865234375,122.4371337890625,-404.0,-1281.0,-1934.0,-0.48089599609375,-0.02520751953125,-0.024444580078125,-0.876068115234375,3.8493705054474,-1.1826600948673354,123.25158177293989,-0.47462981998858533,-0.025035533605789074,-0.02464748203147111,-0.8794840860778466,1
1782117398.922864,0.450,1024.0,1023.0,1024.0,1023.0,1023.0,1023.0,1024.0,1024.0,1022.0,1023.0,1024.0,1023.0,1024.0,1024.0,1023.0,1023.0,1023.0,1024.0,1023.0,1024.0,1024.0,1022.0,1023.0,1023.0,1023.0,1024.0,1023.0,1024.0,1024.0,1024.0,1023.0,1023.0,1022.0,1022.0,1024.0,1023.0,1024.0,1024.0,1024.0,1023.0,1023.0,1022.0,1023.0,1024.0,1023.0,1024.0,1024.0,1023.0,1023.0,1023.0,1022.0,1023.0,1023.0,1024.0,1023.0,1024.0,1024.0,1023.0,1023.0,1023.0,1022.0,1023.0,1022.0,1024.0,1023.0,1024.0,1024.0,1023.0,1022.0,1022.0,1022.0,1023.0,1022.0,1024.0,1023.0,1024.0,1024.0,1022.0,1023.0,1022.0,1022.0,1023.0,1023.0,1024.0,1024.0,1024.0,1024.0,1023.0,1024.0,1024.0,1022.0,1023.0,1023.0,1025.0,1025.0,1025.0,1025.0,1024.0,1024.0,1025.0,1023.0,1023.0,1023.0,1025.0,1024.0,1025.0,1024.0,1023.0,1024.0,1023.0,1022.0,1023.0,1022.0,1024.0,1022.0,1024.0,1024.0,1023.0,1023.0,1021.0,1022.0,1023.0,1024.0,1023.0,1024.0,1024.0,1023.0,1023.0,1023.0,1023.0,1024.0,1023.0,1024.0,1023.0,1024.0,1023.0,1023.0,1026.0,1024.0,1026.0,1025.0,1024.0,1024.0,1023.0,1025.0,1024.0,1025.0,1024.0,1024.0,1024.0,1023.0,1025.0,1024.0,1025.0,1025.0,1025.0,1024.0,1026.0,1025.0,1028.0,1027.0,1026.0,1024.0,1028.0,1026.0,1030.0,1030.0,1028.0,1025.0,1031.0,1030.0,1034.0,1034.0,1029.0,1026.0,1035.0,1034.0,1036.0,1039.0,1031.0,1027.0,1036.0,1034.0,1034.0,1040.0,1033.0,1029.0,1040.0,1038.0,1035.0,1044.0,1035.0,1032.0,1043.0,1040.0,1034.0,1044.0,1035.0,1031.0,1037.0,1035.0,1031.0,1041.0,1032.0,1035.0,1037.0,1036.0,1031.0,1040.0,1031.0,1023.0,1024.0,1022.0,1023.0,1024.0,1022.0,1042.0,1046.0,1037.0,1034.0,1044.0,1035.0,1036.0,1041.0,1036.0,1034.0,1043.0,1034.0,1030.0,1033.0,1028.0,1029.0,1034.0,2029,2017,1906,	00:31:31.704,0.05517578125,0.0458984375,1.01806640625,-0.244140625,0.1220703125,0.06103515625,2.581787109375,-3.0816650390625,52.218017578125,447.0,-1586.0,-2570.0,0.897125244140625,0.032073974609375,-0.01422119140625,0.44036865234375,2.597967302593752,-3.0722603809430384,47.68574379557251,0.9138481195497048,0.03156099857541821,-0.015352777279766913,0.4045365372796241,1,	00:31:31.705,0.021484375,0.068359375,1.00537109375,-0.91552734375,-1.40380859375,-0.54931640625,3.9056396484375,-1.2579345703125,122.4261474609375,-405.0,-1284.0,-1935.0,-0.48089599609375,-0.026031494140625,-0.02459716796875,-0.87603759765625,3.906427306944488,-1.2595895692257313,123.24375536943084,-0.47465383208570733,-0.025863738112463636,-0.024764571460433937,-0.8794438712832013,1
1782117398.933272,0.461,1024.0,1023.0,1024.0,1023.0,1024.0,1023.0,1023.0,1023.0,1022.0,1023.0,1024.0,1023.0,1024.0,1024.0,1023.0,1023.0,1023.0,1024.0,1023.0,1023.0,1024.0,1023.0,1023.0,1022.0,1023.0,1024.0,1023.0,1024.0,1024.0,1023.0,1024.0,1023.0,1022.0,1023.0,1024.0,1023.0,1024.0,1024.0,1023.0,1024.0,1023.0,1023.0,1023.0,1023.0,1023.0,1024.0,1024.0,1023.0,1023.0,1023.0,1022.0,1023.0,1023.0,1024.0,1023.0,1024.0,1024.0,1024.0,1024.0,1023.0,1023.0,1023.0,1022.0,1024.0,1023.0,1024.0,1024.0,1023.0,1022.0,1022.0,1022.0,1023.0,1022.0,1023.0,1022.0,1024.0,1024.0,1023.0,1023.0,1022.0,1022.0,1024.0,1023.0,1024.0,1024.0,1024.0,1024.0,1023.0,1024.0,1024.0,1023.0,1023.0,1023.0,1025.0,1024.0,1026.0,1024.0,1024.0,1024.0,1025.0,1023.0,1024.0,1023.0,1025.0,1024.0,1024.0,1024.0,1024.0,1023.0,1023.0,1023.0,1023.0,1023.0,1023.0,1022.0,1024.0,1024.0,1023.0,1023.0,1021.0,1022.0,1023.0,1024.0,1023.0,1024.0,1024.0,1023.0,1024.0,1023.0,1022.0,1024.0,1024.0,1024.0,1024.0,1024.0,1024.0,1023.0,1025.0,1024.0,1025.0,1025.0,1024.0,1024.0,1023.0,1025.0,1024.0,1026.0,1025.0,1024.0,1025.0,1023.0,1025.0,1024.0,1025.0,1025.0,1025.0,1024.0,1026.0,1024.0,1028.0,1027.0,1026.0,1024.0,1028.0,1026.0,1031.0,1029.0,1027.0,1025.0,1031.0,1029.0,1034.0,1034.0,1029.0,1026.0,1034.0,1034.0,1036.0,1040.0,1031.0,1027.0,1035.0,1035.0,1033.0,1040.0,1033.0,1030.0,1040.0,1038.0,1035.0,1043.0,1035.0,1032.0,1042.0,1040.0,1034.0,1044.0,1034.0,1032.0,1037.0,1036.0,1031.0,1041.0,1032.0,1036.0,1038.0,1036.0,1031.0,1039.0,1031.0,1023.0,1024.0,1023.0,1023.0,1024.0,1021.0,1042.0,1046.0,1038.0,1034.0,1044.0,1035.0,1036.0,1042.0,1036.0,1035.0,1043.0,1033.0,1029.0,1033.0,1028.0,1029.0,1035.0,2029,2016,1906,	00:31:31.714,0.05517578125,0.0458984375,1.01806640625,-0.244140625,0.18310546875,0.06103515625,2.57080078125,-3.1695556640625,52.2235107421875,446.0,-1584.0,-2563.0,0.8970947265625,0.03228759765625,-0.01495361328125,0.44036865234375,2.547216381744134,-3.1484099430637844,47.68905835508468,0.9138278460463131,0.03142482340018922,-0.01613863573728812,0.4045623471124841,1,	00:31:31.715,0.02197265625,0.0673828125,1.00537109375,-0.91552734375,-1.40380859375,-0.48828125,3.8067626953125,-1.2579345703125,122.4261474609375,-404.0,-1282.0,-1937.0,-0.48095703125,-0.025634765625,-0.0238037109375,-0.87603759765625,3.8068611773782486,-1.2602269506508643,123.23991657970765,-0.47470539537198314,-0.02545700568060279,-0.02399693582321132,-0.8794491887184862,1
1782117398.946282,0.474,1023.0,1023.0,1023.0,1023.0,1023.0,1023.0,1024.0,1024.0,1022.0,1023.0,1023.0,1024.0,1024.0,1024.0,1023.0,1023.0,1022.0,1024.0,1023.0,1024.0,1024.0,1023.0,1023.0,1023.0,1023.0,1024.0,1024.0,1024.0,1024.0,1023.0,1023.0,1023.0,1023.0,1022.0,1024.0,1023.0,1024.0,1024.0,1023.0,1023.0,1023.0,1022.0,1023.0,1024.0,1022.0,1024.0,1024.0,1023.0,1023.0,1023.0,1022.0,1023.0,1023.0,1024.0,1023.0,1024.0,1024.0,1023.0,1023.0,1023.0,1022.0,1023.0,1022.0,1024.0,1023.0,1024.0,1024.0,1023.0,1023.0,1022.0,1022.0,1023.0,1023.0,1024.0,1023.0,1024.0,1024.0,1023.0,1023.0,1022.0,1022.0,1023.0,1023.0,1024.0,1024.0,1024.0,1024.0,1023.0,1023.0,1023.0,1022.0,1023.0,1024.0,1025.0,1024.0,1025.0,1025.0,1024.0,1025.0,1025.0,1023.0,1023.0,1022.0,1025.0,1024.0,1025.0,1024.0,1023.0,1024.0,1023.0,1023.0,1023.0,1022.0,1024.0,1022.0,1024.0,1023.0,1023.0,1023.0,1021.0,1022.0,1023.0,1024.0,1023.0,1025.0,1024.0,1023.0,1023.0,1022.0,1022.0,1024.0,1023.0,1024.0,1024.0,1023.0,1023.0,1023.0,1025.0,1024.0,1025.0,1025.0,1024.0,1024.0,1024.0,1025.0,1024.0,1026.0,1025.0,1024.0,1025.0,1023.0,1025.0,1024.0,1025.0,1025.0,1024.0,1024.0,1026.0,1024.0,1028.0,1027.0,1026.0,1024.0,1028.0,1027.0,1031.0,1030.0,1028.0,1025.0,1031.0,1029.0,1034.0,1033.0,1029.0,1026.0,1035.0,1034.0,1035.0,1040.0,1031.0,1026.0,1036.0,1034.0,1034.0,1040.0,1033.0,1029.0,1040.0,1038.0,1034.0,1044.0,1035.0,1033.0,1043.0,1040.0,1034.0,1045.0,1034.0,1032.0,1037.0,1036.0,1031.0,1041.0,1032.0,1035.0,1037.0,1035.0,1031.0,1039.0,1032.0,1023.0,1023.0,1022.0,1023.0,1024.0,1022.0,1041.0,1046.0,1038.0,1034.0,1044.0,1035.0,1036.0,1042.0,1036.0,1034.0,1043.0,1034.0,1030.0,1033.0,1028.0,1029.0,1034.0,2029,2016,1907,	00:31:31.724,0.05419921875,0.044921875,1.01806640625,-0.244140625,0.18310546875,0.06103515625,2.537841796875,-3.0816650390625,52.2235107421875,447.0,-1586.0,-2567.0,0.897125244140625,0.031707763671875,-0.014404296875,0.440399169921875,2.5268721256949065,-3.0568640855817475,47.69071550559292,0.9138544555112392,0.030940485830016212,-0.015479565701996977,0.40456532664643524,1,	00:31:31.725,0.02099609375,0.06787109375,1.00537109375,-0.91552734375,-1.40380859375,-0.54931640625,3.856201171875,-1.2030029296875,122.4151611328125,-405.0,-1281.0,-1935.0,-0.48101806640625,-0.025390625,-0.0244140625,-0.876007080078125,3.8563717071824257,-1.2033377201221476,123.23223950306505,-0.474770499589665,-0.025227326015045178,-0.02461120238995444,-0.8794036862888576,1
1782117398.953801,0.481,1023.0,1023.0,1023.0,1023.0,1023.0,1022.0,1023.0,1023.0,1022.0,1023.0,1023.0,1024.0,1024.0,1024.0,1023.0,1023.0,1023.0,1024.0,1023.0,1023.0,1024.0,1023.0,1023.0,1023.0,1023.0,1024.0,1023.0,1024.0,1024.0,1023.0,1024.0,1023.0,1022.0,1023.0,1024.0,1023.0,1024.0,1024.0,1023.0,1023.0,1023.0,1023.0,1023.0,1023.0,1024.0,1024.0,1023.0,1023.0,1023.0,1022.0,1023.0,1024.0,1023.0,1024.0,1023.0,1024.0,1024.0,1023.0,1024.0,1023.0,1022.0,1023.0,1023.0,1024.0,1023.0,1024.0,1024.0,1023.0,1023.0,1022.0,1022.0,1024.0,1023.0,1024.0,1023.0,1024.0,1024.0,1023.0,1023.0,1022.0,1022.0,1024.0,1023.0,1024.0,1023.0,1024.0,1024.0,1023.0,1023.0,1023.0,1023.0,1024.0,1024.0,1025.0,1025.0,1025.0,1025.0,1024.0,1024.0,1025.0,1023.0,1023.0,1023.0,1024.0,1024.0,1025.0,1024.0,1024.0,1024.0,1023.0,1023.0,1023.0,1022.0,1024.0,1022.0,1024.0,1024.0,1023.0,1023.0,1021.0,1022.0,1023.0,1024.0,1023.0,1024.0,1024.0,1023.0,1024.0,1022.0,1023.0,1024.0,1023.0,1024.0,1024.0,1023.0,1023.0,1023.0,1024.0,1024.0,1026.0,1025.0,1024.0,1024.0,1023.0,1024.0,1024.0,1025.0,1025.0,1024.0,1024.0,1022.0,1024.0,1024.0,1025.0,1025.0,1024.0,1023.0,1026.0,1025.0,1027.0,1028.0,1026.0,1024.0,1028.0,1027.0,1031.0,1030.0,1028.0,1025.0,1031.0,1030.0,1034.0,1033.0,1030.0,1026.0,1035.0,1034.0,1035.0,1039.0,1031.0,1026.0,1036.0,1035.0,1033.0,1040.0,1033.0,1029.0,1040.0,1038.0,1034.0,1044.0,1035.0,1032.0,1042.0,1040.0,1034.0,1045.0,1034.0,1031.0,1036.0,1035.0,1032.0,1042.0,1032.0,1035.0,1037.0,1036.0,1030.0,1040.0,1031.0,1023.0,1024.0,1022.0,1023.0,1024.0,1022.0,1042.0,1046.0,1038.0,1034.0,1044.0,1035.0,1036.0,1042.0,1036.0,1034.0,1042.0,1034.0,1029.0,1033.0,1028.0,1029.0,1034.0,2029,2016,1908,	00:31:31.735,0.0546875,0.04541015625,1.017578125,-0.244140625,0.18310546875,0.06103515625,2.61474609375,-3.0377197265625,52.218017578125,446.0,-1585.0,-2566.0,0.897125244140625,0.03216552734375,-0.013763427734375,0.44036865234375,2.603675285218066,-3.100893236262262,47.68714963342447,0.9138331357077747,0.03170751150230623,-0.01556070196760594,0.40455098362394615,1,	00:31:31.736,0.02099609375,0.06787109375,1.00537109375,-0.9765625,-1.40380859375,-0.54931640625,3.8946533203125,-1.1370849609375,122.40966796875,-403.0,-1285.0,-1933.0,-0.4810791015625,-0.025054931640625,-0.024993896484375,-0.875946044921875,3.89341856481256,-1.1380840892714341,123.22485413844745,-0.47483877583491485,-0.0248818586875599,-0.025164608752239744,-0.8793610023978766,1
1782117398.963066,0.491,1023.0,1024.0,1023.0,1023.0,1024.0,1022.0,1024.0,1024.0,1023.0,1023.0,1023.0,1023.0,1024.0,1024.0,1023.0,1023.0,1023.0,1023.0,1023.0,1023.0,1024.0,1023.0,1023.0,1023.0,1023.0,1024.0,1023.0,1024.0,1024.0,1023.0,1024.0,1022.0,1022.0,1023.0,1024.0,1023.0,1024.0,1024.0,1023.0,1023.0,1023.0,1022.0,1023.0,1024.0,1023.0,1024.0,1024.0,1023.0,1023.0,1022.0,1023.0,1023.0,1023.0,1024.0,1023.0,1024.0,1024.0,1023.0,1024.0,1023.0,1022.0,1023.0,1023.0,1023.0,1023.0,1024.0,1024.0,1023.0,1023.0,1022.0,1022.0,1022.0,1023.0,1024.0,1023.0,1024.0,1024.0,1023.0,1023.0,1023.0,1022.0,1023.0,1023.0,1024.0,1023.0,1024.0,1024.0,1023.0,1023.0,1023.0,1023.0,1023.0,1023.0,1025.0,1025.0,1025.0,1024.0,1024.0,1024.0,1025.0,1023.0,1024.0,1023.0,1024.0,1024.0,1025.0,1025.0,1024.0,1024.0,1023.0,1023.0,1023.0,1022.0,1024.0,1022.0,1024.0,1024.0,1023.0,1023.0,1021.0,1022.0,1023.0,1024.0,1024.0,1024.0,1024.0,1024.0,1023.0,1023.0,1023.0,1024.0,1023.0,1024.0,1024.0,1023.0,1023.0,1023.0,1024.0,1024.0,1025.0,1025.0,1024.0,1024.0,1023.0,1025.0,1024.0,1025.0,1025.0,1024.0,1024.0,1023.0,1024.0,1024.0,1025.0,1025.0,1024.0,1023.0,1026.0,1025.0,1028.0,1027.0,1026.0,1024.0,1028.0,1027.0,1031.0,1029.0,1028.0,1025.0,1031.0,1030.0,1034.0,1034.0,1030.0,1026.0,1034.0,1035.0,1035.0,1040.0,1031.0,1027.0,1036.0,1034.0,1033.0,1040.0,1032.0,1029.0,1041.0,1038.0,1034.0,1043.0,1035.0,1032.0,1042.0,1039.0,1034.0,1044.0,1034.0,1032.0,1037.0,1035.0,1032.0,1041.0,1032.0,1035.0,1038.0,1036.0,1031.0,1039.0,1031.0,1024.0,1024.0,1023.0,1023.0,1024.0,1022.0,1042.0,1046.0,1037.0,1034.0,1044.0,1035.0,1037.0,1042.0,1036.0,1035.0,1043.0,1034.0,1030.0,1032.0,1028.0,1029.0,1034.0,2029,2016,1908,	00:31:31.745,0.05419921875,0.044921875,1.017578125,-0.244140625,0.18310546875,0.06103515625,2.5213623046875,-3.043212890625,52.2235107421875,445.0,-1587.0,-2568.0,0.897125244140625,0.031463623046875,-0.01416015625,0.440399169921875,2.527045519885909,-3.0453970577650957,47.69181766720931,0.9138538453491274,0.030901639810083568,-0.015387160433687272,0.40457319892875854,1,	00:31:31.746,0.021484375,0.0693359375,1.00537109375,-0.91552734375,-1.40380859375,-0.48828125,3.93310546875,-1.23046875,122.4041748046875,-405.0,-1283.0,-1930.0,-0.481109619140625,-0.02593994140625,-0.02490234375,-0.87591552734375,3.932740875129928,-1.2294900452072168,123.21803657901472,-0.4748545325837561,-0.025747455741345248,-0.02508558692792418,-0.8793298327339927,1
1782117398.974450,0.502,1024.0,1023.0,1024.0,1023.0,1023.0,1023.0,1023.0,1023.0,1023.0,1023.0,1023.0,1023.0,1024.0,1024.0,1023.0,1023.0,1023.0,1024.0,1023.0,1024.0,1024.0,1023.0,1024.0,1023.0,1023.0,1024.0,1024.0,1024.0,1023.0,1023.0,1023.0,1023.0,1023.0,1023.0,1024.0,1023.0,1023.0,1024.0,1023.0,1024.0,1023.0,1022.0,1023.0,1024.0,1023.0,1024.0,1024.0,1023.0,1023.0,1023.0,1022.0,1023.0,1023.0,1024.0,1023.0,1024.0,1024.0,1024.0,1023.0,1023.0,1023.0,1023.0,1022.0,1024.0,1023.0,1024.0,1024.0,1023.0,1023.0,1022.0,1023.0,1023.0,1023.0,1024.0,1023.0,1024.0,1023.0,1023.0,1023.0,1022.0,1022.0,1023.0,1023.0,1024.0,1023.0,1024.0,1024.0,1024.0,1023.0,1023.0,1023.0,1023.0,1023.0,1025.0,1025.0,1025.0,1024.0,1024.0,1024.0,1025.0,1023.0,1024.0,1023.0,1024.0,1024.0,1025.0,1024.0,1024.0,1024.0,1024.0,1023.0,1023.0,1022.0,1023.0,1022.0,1024.0,1024.0,1023.0,1022.0,1020.0,1022.0,1023.0,1024.0,1023.0,1024.0,1024.0,1023.0,1024.0,1023.0,1023.0,1024.0,1023.0,1024.0,1024.0,1023.0,1023.0,1024.0,1025.0,1024.0,1026.0,1024.0,1024.0,1024.0,1023.0,1024.0,1024.0,1025.0,1025.0,1024.0,1024.0,1023.0,1024.0,1023.0,1025.0,1025.0,1024.0,1024.0,1025.0,1025.0,1028.0,1027.0,1026.0,1024.0,1027.0,1027.0,1031.0,1030.0,1028.0,1025.0,1031.0,1029.0,1035.0,1034.0,1029.0,1026.0,1034.0,1034.0,1036.0,1039.0,1031.0,1027.0,1035.0,1034.0,1033.0,1040.0,1033.0,1029.0,1040.0,1037.0,1034.0,1044.0,1036.0,1032.0,1043.0,1039.0,1034.0,1045.0,1035.0,1032.0,1037.0,1036.0,1031.0,1042.0,1033.0,1035.0,1037.0,1036.0,1032.0,1040.0,1032.0,1023.0,1023.0,1022.0,1024.0,1024.0,1022.0,1042.0,1046.0,1038.0,1034.0,1044.0,1035.0,1037.0,1042.0,1035.0,1034.0,1043.0,1034.0,1030.0,1032.0,1028.0,1029.0,1034.0,2028,2016,1908,	00:31:31.755,0.05517578125,0.0458984375,1.01806640625,-0.244140625,0.18310546875,0.06103515625,2.5872802734375,-3.1036376953125,52.2235107421875,449.0,-1587.0,-2568.0,0.897125244140625,0.032196044921875,-0.014404296875,0.440399169921875,2.589676158100779,-3.1079118933169996,47.6890159381095,0.91382833719029,0.03162083738957026,-0.015665611161351956,0.40456455778744765,1,	00:31:31.756,0.021484375,0.068359375,1.00390625,-0.9765625,-1.40380859375,-0.48828125,3.834228515625,-1.2249755859375,122.398681640625,-403.0,-1287.0,-1933.0,-0.481170654296875,-0.025482177734375,-0.024139404296875,-0.87591552734375,3.832924165585766,-1.2278470249734734,123.21413425258467,-0.4749072203482423,-0.025322041911505538,-0.024325579516832348,-0.879335085411533,1
1782117399.025541,0.553,1024.0,1023.0,1024.0,1022.0,1023.0,1022.0,1023.0,1023.0,1022.0,1023.0,1024.0,1023.0,1023.0,1023.0,1022.0,1024.0,1023.0,1023.0,1023.0,1024.0,1024.0,1023.0,1023.0,1023.0,1022.0,1024.0,1023.0,1024.0,1024.0,1023.0,1023.0,1023.0,1023.0,1023.0,1024.0,1024.0,1024.0,1024.0,1023.0,1023.0,1023.0,1023.0,1023.0,1023.0,1023.0,1024.0,1024.0,1023.0,1023.0,1022.0,1022.0,1023.0,1023.0,1024.0,1023.0,1024.0,1024.0,1023.0,1024.0,1023.0,1022.0,1023.0,1022.0,1024.0,1022.0,1024.0,1024.0,1023.0,1023.0,1022.0,1023.0,1023.0,1022.0,1024.0,1023.0,1024.0,1024.0,1023.0,1023.0,1022.0,1022.0,1023.0,1022.0,1024.0,1024.0,1024.0,1024.0,1024.0,1023.0,1023.0,1023.0,1023.0,1024.0,1025.0,1024.0,1025.0,1024.0,1024.0,1024.0,1025.0,1023.0,1023.0,1023.0,1024.0,1024.0,1025.0,1025.0,1024.0,1024.0,1023.0,1023.0,1023.0,1022.0,1024.0,1022.0,1024.0,1024.0,1023.0,1023.0,1021.0,1022.0,1023.0,1024.0,1023.0,1024.0,1024.0,1023.0,1023.0,1023.0,1023.0,1024.0,1023.0,1024.0,1024.0,1024.0,1023.0,1023.0,1024.0,1024.0,1025.0,1025.0,1024.0,1024.0,1023.0,1024.0,1024.0,1025.0,1025.0,1024.0,1024.0,1023.0,1025.0,1024.0,1026.0,1025.0,1024.0,1023.0,1025.0,1024.0,1028.0,1027.0,1025.0,1024.0,1028.0,1027.0,1031.0,1029.0,1028.0,1024.0,1031.0,1030.0,1035.0,1034.0,1030.0,1026.0,1034.0,1034.0,1035.0,1039.0,1031.0,1026.0,1036.0,1034.0,1033.0,1040.0,1032.0,1029.0,1040.0,1037.0,1035.0,1044.0,1035.0,1032.0,1042.0,1040.0,1034.0,1045.0,1035.0,1032.0,1037.0,1036.0,1032.0,1042.0,1032.0,1035.0,1038.0,1036.0,1032.0,1039.0,1031.0,1023.0,1024.0,1023.0,1023.0,1024.0,1022.0,1042.0,1046.0,1037.0,1034.0,1043.0,1035.0,1036.0,1041.0,1035.0,1035.0,1043.0,1034.0,1029.0,1033.0,1028.0,1029.0,1034.0,2028,2016,1904,	00:31:31.796,0.05419921875,0.04638671875,1.017578125,-0.30517578125,0.18310546875,0.06103515625,2.57080078125,-3.0596923828125,52.2235107421875,447.0,-1585.0,-2570.0,0.897125244140625,0.0318603515625,-0.01409912109375,0.440399169921875,2.615098072932691,-3.0190347100760664,47.688183335798705,0.913850349040317,0.031510545211372684,-0.014866935643416493,0.4045535802881333,1,	00:31:31.797,0.0205078125,0.068359375,1.005859375,-0.91552734375,-1.40380859375,-0.54931640625,3.878173828125,-1.2249755859375,122.3712158203125,-404.0,-1286.0,-1929.0,-0.481353759765625,-0.025665283203125,-0.0245361328125,-0.875823974609375,3.884420966783772,-1.1726628674277018,123.20644171121927,-0.47497157483598457,-0.025113839773869533,-0.024948061063699567,-0.8792888560642623,1
1782117399.026543,0.554,1023.0,1023.0,1024.0,1023.0,1023.0,1023.0,1023.0,1024.0,1023.0,1023.0,1024.0,1024.0,1023.0,1024.0,1023.0,1023.0,1023.0,1024.0,1023.0,1024.0,1024.0,1023.0,1023.0,1023.0,1023.0,1023.0,1023.0,1024.0,1024.0,1023.0,1023.0,1023.0,1022.0,1023.0,1024.0,1023.0,1024.0,1024.0,1023.0,1024.0,1023.0,1022.0,1023.0,1024.0,1023.0,1024.0,1023.0,1023.0,1023.0,1022.0,1022.0,1023.0,1023.0,1024.0,1023.0,1024.0,1024.0,1023.0,1023.0,1023.0,1022.0,1023.0,1023.0,1024.0,1023.0,1024.0,1024.0,1023.0,1023.0,1022.0,1022.0,1023.0,1023.0,1023.0,1022.0,1024.0,1024.0,1023.0,1023.0,1022.0,1022.0,1023.0,1023.0,1024.0,1024.0,1024.0,1024.0,1024.0,1024.0,1024.0,1023.0,1023.0,1023.0,1024.0,1024.0,1025.0,1025.0,1024.0,1024.0,1025.0,1024.0,1023.0,1023.0,1025.0,1024.0,1025.0,1024.0,1024.0,1024.0,1023.0,1023.0,1023.0,1022.0,1024.0,1022.0,1024.0,1024.0,1023.0,1023.0,1021.0,1022.0,1023.0,1024.0,1023.0,1024.0,1024.0,1023.0,1023.0,1023.0,1023.0,1024.0,1023.0,1024.0,1023.0,1023.0,1023.0,1023.0,1025.0,1024.0,1025.0,1025.0,1024.0,1024.0,1023.0,1024.0,1024.0,1025.0,1025.0,1024.0,1025.0,1024.0,1024.0,1024.0,1025.0,1025.0,1025.0,1023.0,1025.0,1025.0,1028.0,1027.0,1026.0,1024.0,1028.0,1026.0,1031.0,1029.0,1028.0,1025.0,1031.0,1029.0,1034.0,1034.0,1030.0,1026.0,1034.0,1034.0,1035.0,1039.0,1031.0,1026.0,1036.0,1035.0,1033.0,1040.0,1032.0,1029.0,1041.0,1038.0,1035.0,1044.0,1035.0,1032.0,1042.0,1040.0,1034.0,1045.0,1035.0,1032.0,1037.0,1036.0,1031.0,1043.0,1032.0,1035.0,1038.0,1035.0,1031.0,1040.0,1031.0,1023.0,1023.0,1022.0,1023.0,1024.0,1022.0,1042.0,1046.0,1037.0,1035.0,1044.0,1035.0,1036.0,1042.0,1036.0,1035.0,1043.0,1034.0,1030.0,1033.0,1028.0,1030.0,1034.0,2028,2016,1900,	00:31:31.806,0.05615234375,0.0458984375,1.01708984375,-0.244140625,0.244140625,0.06103515625,2.581787109375,-3.1475830078125,52.2235107421875,445.0,-1583.0,-2565.0,0.8970947265625,0.03228759765625,-0.014739990234375,0.4404296875,2.592357490402753,-3.105953580897718,47.68998975986173,0.9138247387968746,0.03163545836064409,-0.01564025055693979,0.40457252390597614,1,	00:31:31.807,0.021484375,0.068359375,1.00537109375,-0.9765625,-1.46484375,-0.54931640625,3.9605712890625,-1.2249755859375,122.36572265625,-405.0,-1286.0,-1930.0,-0.48138427734375,-0.026031494140625,-0.025146484375,-0.875762939453125,3.884835614195574,-1.2779895852722738,123.1997616016355,-0.47499066582126237,-0.02592487088933707,-0.02451259055610438,-0.8792672525212535,1
