Unix_Time_s,IMU1_RefTime,ax_g,ay_g,az_g,gx_dps,gy_dps,gz_dps,mx_uT,my_uT,mz_uT,temp_C,qw,qx,qy,qz
1782117376.967178,1880332,-0.951172,0.066895,-0.275391,11.219512,-3.414634,2.926829,-5.168750,39.431252,-3.762500,0.0,1.000000,0.000000,0.000000,0.000000
1782117376.975178,1880340,-0.944824,0.092773,-0.264648,6.524390,-2.439024,2.195122,-5.168750,39.431252,-3.762500,0.0,1.000000,0.000000,0.000000,0.000000
1782117376.985178,1880350,-0.943848,0.101074,-0.259277,1.402439,-1.585366,1.646341,-5.062500,39.531250,-3.606250,0.0,1.000000,0.000000,0.000000,0.000000
1782117376.995178,1880360,-0.941895,0.097168,-0.261719,-2.012195,-0.365854,1.402439,-5.062500,39.531250,-3.606250,0.0,1.000000,0.000000,0.000000,0.000000
1782117377.007178,1880372,-0.942871,0.083008,-0.270508,-2.987805,0.365854,1.402439,-5.100000,39.512501,-3.737500,0.0,1.000000,0.000000,0.000000,0.000000
1782117377.016178,1880381,-0.942383,0.072754,-0.279297,-3.109756,0.792683,1.768293,-5.100000,39.512501,-3.737500,0.0,1.000000,0.000000,0.000000,0.000000
1782117377.025178,1880390,-0.940918,0.053223,-0.291016,-3.597561,1.890244,2.073171,-5.125000,39.500000,-3.756250,0.0,1.000000,0.000000,0.000000,0.000000
1782117377.035178,1880400,-0.952637,0.034668,-0.303223,-3.841464,2.865854,2.317073,-5.125000,39.500000,-3.756250,0.0,1.000000,0.000000,0.000000,0.000000
1782117377.047178,1880412,-0.968750,0.020508,-0.305176,-3.048780,4.268293,2.926829,-5.087500,39.424999,-3.862500,0.0,1.000000,0.000000,0.000000,0.000000
1782117377.056178,1880421,-0.975098,0.002930,-0.298828,-2.560976,3.597561,2.682927,-5.087500,39.424999,-3.862500,0.0,1.000000,0.000000,0.000000,0.000000
1782117377.065178,1880430,-0.972656,-0.007324,-0.299805,-1.463415,3.719512,2.134146,-5.006250,39.462502,-3.912500,0.0,1.000000,0.000000,0.000000,0.000000
1782117377.075178,1880440,-0.974121,-0.010742,-0.292969,0.548781,3.475610,1.341463,-5.006250,39.462502,-3.912500,0.0,1.000000,0.000000,0.000000,0.000000
1782117377.087178,1880452,-0.964844,-0.010254,-0.284180,2.743902,3.109756,0.914634,-5.018750,39.443752,-3.931250,0.0,1.000000,0.000000,0.000000,0.000000
1782117377.095178,1880460,-0.966309,0.002930,-0.277832,4.512195,3.658537,1.036585,-5.018750,39.443752,-3.931250,0.0,1.000000,0.000000,0.000000,0.000000
1782117377.105178,1880470,-0.977539,0.014648,-0.268555,6.036585,3.658537,2.256098,-4.737500,39.781250,-3.881250,0.0,1.000000,0.000000,0.000000,0.000000
1782117377.115178,1880480,-0.988770,0.014160,-0.259277,7.560976,2.682927,3.353659,-4.737500,39.781250,-3.881250,0.0,1.000000,0.000000,0.000000,0.000000
1782117377.128178,1880493,-0.991211,0.015137,-0.260742,8.109756,0.731707,3.902439,-5.012500,39.493752,-3.981250,0.0,1.000000,0.000000,0.000000,0.000000
1782117377.135178,1880500,-0.985352,0.024414,-0.270508,9.024390,-1.219512,4.207317,-5.012500,39.493752,-3.981250,0.0,1.000000,0.000000,0.000000,0.000000
1782117377.145178,1880510,-0.990723,0.035645,-0.275879,10.975610,-2.682927,4.756098,-4.868750,39.593750,-3.900000,0.0,1.000000,0.000000,0.000000,0.000000
1782117377.155178,1880520,-0.990723,0.053223,-0.272461,13.109756,-4.573171,4.756098,-4.868750,39.593750,-3.900000,0.0,1.000000,0.000000,0.000000,0.000000
1782117377.168178,1880533,-0.978027,0.062500,-0.260254,14.939025,-5.731708,4.268293,-4.643750,39.762501,-3.856250,0.0,1.000000,0.000000,0.000000,0.000000
1782117377.175178,1880540,-0.961914,0.060059,-0.251953,15.548780,-5.548780,3.353659,-4.643750,39.762501,-3.856250,0.0,1.000000,0.000000,0.000000,0.000000
1782117377.185178,1880550,-0.951660,0.052734,-0.253906,13.902439,-4.085366,2.317073,-4.862500,39.562500,-3.706250,0.0,1.000000,0.000000,0.000000,0.000000
1782117377.195178,1880560,-0.950195,0.048828,-0.262695,10.121951,-1.890244,1.768293,-4.812500,39.518749,-3.587500,0.0,1.000000,0.000000,0.000000,0.000000
1782117377.207178,1880572,-0.955078,0.049316,-0.272949,5.731708,-0.182927,1.768293,-4.812500,39.518749,-3.587500,0.0,1.000000,0.000000,0.000000,0.000000
1782117377.216178,1880581,-0.956543,0.046875,-0.280273,2.256098,0.365854,1.585366,-4.600000,39.743752,-3.537500,0.0,1.000000,0.000000,0.000000,0.000000
1782117377.226178,1880591,-0.955566,0.043945,-0.287598,0.792683,0.670732,1.463415,-4.600000,39.743752,-3.537500,0.0,1.000000,0.000000,0.000000,0.000000
1782117377.235178,1880600,-0.962402,0.040039,-0.289551,0.914634,0.731707,1.707317,-4.756250,39.587502,-3.500000,0.0,1.000000,0.000000,0.000000,0.000000
1782117377.246178,1880611,-0.968262,0.030273,-0.296875,1.341463,0.731707,1.646341,-4.756250,39.587502,-3.500000,0.0,1.000000,0.000000,0.000000,0.000000
1782117377.256178,1880621,-0.973633,0.023926,-0.307617,2.134146,0.365854,1.219512,-4.468750,39.862499,-3.450000,0.0,1.000000,0.000000,0.000000,0.000000
1782117377.265178,1880630,-0.966797,0.020508,-0.309082,2.804878,0.365854,0.548781,-4.468750,39.862499,-3.450000,0.0,1.000000,0.000000,0.000000,0.000000
1782117377.275178,1880640,-0.957520,0.026367,-0.312500,2.256098,0.609756,-0.426829,-4.743750,39.549999,-3.512500,0.0,1.000000,0.000000,0.000000,0.000000
1782117377.285178,1880650,-0.945801,0.035156,-0.311523,1.829268,0.792683,-0.731707,-4.743750,39.549999,-3.512500,0.0,1.000000,0.000000,0.000000,0.000000
1782117377.295178,1880660,-0.937012,0.036621,-0.311523,2.500000,1.097561,-0.243902,-4.731250,39.562500,-3.543750,0.0,1.000000,0.000000,0.000000,0.000000
1782117377.305178,1880670,-0.943848,0.033691,-0.308594,4.268293,1.341463,0.670732,-4.731250,39.562500,-3.543750,0.0,1.000000,0.000000,0.000000,0.000000
1782117377.315178,1880680,-0.959473,0.033691,-0.300293,6.524390,0.731707,1.829268,-4.656250,39.650002,-3.500000,0.0,1.000000,0.000000,0.000000,0.000000
1782117377.325178,1880690,-0.973633,0.029297,-0.286621,9.207317,-0.914634,2.865854,-4.656250,39.650002,-3.500000,0.0,1.000000,0.000000,0.000000,0.000000
1782117377.335178,1880700,-0.983398,0.028809,-0.275879,11.036586,-2.682927,3.109756,-4.656250,39.656250,-3.412500,0.0,1.000000,0.000000,0.000000,0.000000
1782117377.345178,1880710,-0.981934,0.037598,-0.273438,11.463415,-3.963415,2.804878,-4.656250,39.656250,-3.412500,0.0,1.000000,0.000000,0.000000,0.000000
1782117377.355178,1880720,-0.971191,0.053711,-0.282715,9.085366,-4.390244,1.646341,-4.612500,39.562500,-3.312500,0.0,1.000000,0.000000,0.000000,0.000000
1782117377.365178,1880730,-0.953125,0.078125,-0.292969,4.756098,-4.146341,0.304878,-4.612500,39.562500,-3.312500,0.0,1.000000,0.000000,0.000000,0.000000
1782117377.375178,1880740,-0.950195,0.098633,-0.294922,0.670732,-3.475610,-0.365854,-4.650000,39.525002,-3.250000,0.0,1.000000,0.000000,0.000000,0.000000
1782117377.385178,1880750,-0.958496,0.111328,-0.282715,-2.621951,-3.170732,-0.121951,-4.650000,39.525002,-3.250000,0.0,1.000000,0.000000,0.000000,0.000000
1782117377.395178,1880760,-0.969727,0.109863,-0.257812,-5.487805,-3.902439,0.365854,-4.543750,39.681252,-3.237500,0.0,1.000000,0.000000,0.000000,0.000000
1782117377.405178,1880770,-0.970703,0.097168,-0.238281,-9.573171,-4.817073,0.182927,-4.543750,39.681252,-3.237500,0.0,1.000000,0.000000,0.000000,0.000000
1782117377.416178,1880781,-0.956543,0.077637,-0.239746,-14.634147,-4.207317,-0.365854,-4.712500,39.575001,-3.231250,0.0,1.000000,0.000000,0.000000,0.000000
1782117377.426178,1880791,-0.939941,0.048828,-0.257812,-18.597561,-2.134146,-0.609756,-4.712500,39.575001,-3.231250,0.0,1.000000,0.000000,0.000000,0.000000
1782117377.435178,1880800,-0.937988,0.008301,-0.286133,-19.695122,0.670732,-0.548781,-4.712500,39.568752,-3.243750,0.0,1.000000,0.000000,0.000000,0.000000
1782117377.445178,1880810,-0.958008,-0.031250,-0.311523,-17.439024,2.743902,-0.365854,-4.712500,39.568752,-3.243750,0.0,1.000000,0.000000,0.000000,0.000000
1782117377.455178,1880820,-0.977051,-0.056641,-0.321777,-12.987805,3.109756,-0.487805,-4.606250,39.712502,-3.400000,0.0,1.000000,0.000000,0.000000,0.000000
1782117377.465178,1880830,-0.976562,-0.064941,-0.317871,-8.170732,2.012195,-0.914634,-4.606250,39.712502,-3.400000,0.0,1.000000,0.000000,0.000000,0.000000
1782117377.475178,1880840,-0.968750,-0.056641,-0.306641,-4.085366,1.036585,-1.280488,-4.568750,39.806252,-3.393750,0.0,1.000000,0.000000,0.000000,0.000000
1782117377.485178,1880850,-0.965820,-0.043457,-0.304199,-1.158537,1.036585,-1.097561,-4.887500,39.487499,-3.487500,0.0,1.000000,0.000000,0.000000,0.000000
1782117377.495178,1880860,-0.963379,-0.018066,-0.308105,1.036585,1.585366,-0.609756,-4.887500,39.487499,-3.487500,0.0,1.000000,0.000000,0.000000,0.000000
1782117377.506178,1880871,-0.957031,0.017090,-0.310059,2.195122,2.134146,-0.182927,-4.818750,39.625000,-3.531250,0.0,1.000000,0.000000,0.000000,0.000000
1782117377.515178,1880880,-0.957031,0.017090,-0.310059,2.195122,2.134146,-0.182927,-4.818750,39.625000,-3.531250,0.0,1.000000,0.000000,0.000000,0.000000
1782117377.525178,1880890,-0.948730,0.047852,-0.307129,1.341463,2.439024,-0.060976,-4.900000,39.581249,-3.506250,0.0,1.000000,0.000000,0.000000,0.000000
1782117377.535178,1880900,-0.951660,0.074219,-0.305176,-5.121951,1.707317,-1.341463,-4.900000,39.581249,-3.506250,0.0,1.000000,0.000000,0.000000,0.000000
1782117377.545178,1880910,-0.951660,0.074219,-0.305176,-5.121951,1.707317,-1.341463,-4.856250,39.637501,-3.612500,0.0,1.000000,0.000000,0.000000,0.000000
1782117377.555178,1880920,-0.901367,0.072754,-0.347656,-6.158537,2.682927,-0.975610,-4.856250,39.637501,-3.612500,0.0,1.000000,0.000000,0.000000,0.000000
1782117377.565178,1880930,-0.916504,0.066406,-0.359863,-5.548780,3.963415,-1.036585,-4.950000,39.593750,-3.731250,0.0,1.000000,0.000000,0.000000,0.000000
1782117377.575178,1880940,-0.927734,0.056641,-0.373535,-3.780488,4.939024,-0.731707,-4.950000,39.593750,-3.731250,0.0,1.000000,0.000000,0.000000,0.000000
1782117377.585178,1880950,-0.951172,0.045898,-0.354492,-2.500000,4.146341,-1.280488,-4.881250,39.674999,-3.718750,0.0,1.000000,0.000000,0.000000,0.000000
1782117377.595178,1880960,-0.939453,0.037598,-0.332031,-2.134146,3.292683,-2.317073,-4.881250,39.674999,-3.718750,0.0,1.000000,0.000000,0.000000,0.000000
1782117377.605178,1880970,-0.930176,0.029297,-0.312012,-2.012195,4.207317,-2.926829,-5.006250,39.625000,-3.812500,0.0,1.000000,0.000000,0.000000,0.000000
1782117377.615178,1880980,-0.939941,0.018555,-0.302734,-2.560976,5.243903,-2.378049,-5.006250,39.625000,-3.812500,0.0,1.000000,0.000000,0.000000,0.000000
1782117377.626178,1880991,-0.956543,0.009277,-0.308105,-2.926829,5.243903,-1.158537,-4.987500,39.612499,-3.906250,0.0,1.000000,0.000000,0.000000,0.000000
1782117377.636178,1881001,-0.972168,0.006836,-0.318359,-2.134146,4.268293,0.182927,-4.987500,39.612499,-3.906250,0.0,1.000000,0.000000,0.000000,0.000000
1782117377.646178,1881011,-0.979492,0.016602,-0.324219,-1.158537,2.804878,0.792683,-5.068750,39.612499,-3.893750,0.0,1.000000,0.000000,0.000000,0.000000
1782117377.655178,1881020,-0.983398,0.033691,-0.322266,-0.487805,1.951220,0.426829,-5.068750,39.612499,-3.893750,0.0,1.000000,0.000000,0.000000,0.000000
1782117377.665178,1881030,-0.974121,0.047363,-0.305664,0.121951,1.036585,-0.548781,-5.056250,39.643749,-3.950000,0.0,1.000000,0.000000,0.000000,0.000000
1782117377.676178,1881041,-0.954102,0.052246,-0.292480,0.243902,0.853659,-1.402439,-5.056250,39.643749,-3.950000,0.0,1.000000,0.000000,0.000000,0.000000
1782117377.686178,1881051,-0.947754,0.046875,-0.293945,0.792683,1.707317,-1.646341,-5.143750,39.593750,-4.043750,0.0,1.000000,0.000000,0.000000,0.000000
1782117377.695178,1881060,-0.950684,0.039062,-0.291504,1.341463,2.195122,-1.219512,-5.143750,39.593750,-4.043750,0.0,1.000000,0.000000,0.000000,0.000000
1782117377.705178,1881070,-0.957031,0.026367,-0.292969,1.158537,2.378049,-0.609756,-5.106250,39.625000,-4.050000,0.0,1.000000,0.000000,0.000000,0.000000
1782117377.715178,1881080,-0.958008,0.016602,-0.297363,0.609756,1.646341,-0.304878,-5.106250,39.625000,-4.050000,0.0,1.000000,0.000000,0.000000,0.000000
1782117377.725178,1881090,-0.960449,0.003906,-0.303711,0.548781,1.524390,-0.121951,-5.218750,39.537502,-4.131250,0.0,1.000000,0.000000,0.000000,0.000000
1782117377.735178,1881100,-0.972656,0.004883,-0.308594,0.975610,1.158537,-0.060976,-5.218750,39.537502,-4.131250,0.0,1.000000,0.000000,0.000000,0.000000
1782117377.745178,1881110,-0.963379,0.012207,-0.298340,1.707317,0.000000,-0.182927,-5.187500,39.587502,-4.050000,0.0,1.000000,0.000000,0.000000,0.000000
1782117377.755178,1881120,-0.950195,0.017090,-0.291504,1.768293,-0.060976,-0.304878,-5.187500,39.587502,-4.050000,0.0,1.000000,0.000000,0.000000,0.000000
1782117377.765178,1881130,-0.955078,0.019043,-0.282715,1.646341,0.487805,-0.060976,-5.168750,39.575001,-4.050000,0.0,1.000000,0.000000,0.000000,0.000000
1782117377.775178,1881140,-0.959473,0.018066,-0.283203,0.975610,0.609756,0.243902,-5.068750,39.674999,-4.062500,0.0,1.000000,0.000000,0.000000,0.000000
1782117377.785178,1881150,-0.960449,0.019531,-0.289551,0.243902,0.487805,0.426829,-5.068750,39.674999,-4.062500,0.0,1.000000,0.000000,0.000000,0.000000
1782117377.795178,1881160,-0.961914,0.023926,-0.299316,0.304878,0.304878,0.670732,-5.212500,39.568752,-4.125000,0.0,1.000000,0.000000,0.000000,0.000000
1782117377.805178,1881170,-0.963379,0.024902,-0.307129,0.975610,0.243902,0.792683,-5.212500,39.568752,-4.125000,0.0,1.000000,0.000000,0.000000,0.000000
1782117377.815178,1881180,-0.965820,0.025879,-0.310547,1.585366,0.060976,0.670732,-5.125000,39.625000,-4.100000,0.0,1.000000,0.000000,0.000000,0.000000
1782117377.825178,1881190,-0.961426,0.026367,-0.305176,2.500000,-0.365854,0.487805,-5.125000,39.625000,-4.100000,0.0,1.000000,0.000000,0.000000,0.000000
1782117377.835178,1881200,-0.960449,0.026855,-0.300781,2.865854,-0.426829,0.365854,-5.200000,39.543751,-4.075000,0.0,1.000000,0.000000,0.000000,0.000000
1782117377.845178,1881210,-0.958008,0.024902,-0.301758,2.743902,-0.548781,0.548781,-5.200000,39.543751,-4.075000,0.0,1.000000,0.000000,0.000000,0.000000
1782117377.855178,1881220,-0.957031,0.022949,-0.307129,2.560976,-0.670732,0.792683,-5.093750,39.625000,-4.068750,0.0,1.000000,0.000000,0.000000,0.000000
1782117377.866178,1881231,-0.958984,0.020996,-0.315430,2.256098,-0.670732,0.975610,-5.093750,39.625000,-4.068750,0.0,1.000000,0.000000,0.000000,0.000000
1782117377.876178,1881241,-0.963867,0.027344,-0.317383,1.951220,-0.731707,0.853659,-5.081250,39.612499,-4.081250,0.0,1.000000,0.000000,0.000000,0.000000
1782117377.885178,1881250,-0.958496,0.034180,-0.310059,1.341463,-0.853659,0.426829,-5.081250,39.612499,-4.081250,0.0,1.000000,0.000000,0.000000,0.000000
1782117377.895178,1881260,-0.953613,0.034668,-0.303223,1.036585,-0.548781,0.121951,-5.062500,39.575001,-4.068750,0.0,1.000000,0.000000,0.000000,0.000000
1782117377.906178,1881271,-0.951172,0.035645,-0.303223,0.426829,-0.365854,0.121951,-5.062500,39.575001,-4.068750,0.0,1.000000,0.000000,0.000000,0.000000
1782117377.915178,1881280,-0.952148,0.032715,-0.305664,-0.487805,-0.121951,0.365854,-5.137500,39.531250,-4.056250,0.0,1.000000,0.000000,0.000000,0.000000
1782117377.925178,1881290,-0.955566,0.030762,-0.308105,-1.707317,-0.304878,0.487805,-5.137500,39.531250,-4.056250,0.0,1.000000,0.000000,0.000000,0.000000
1782117377.935178,1881300,-0.956055,0.030273,-0.310547,-2.804878,-0.426829,0.487805,-5.137500,39.587502,-4.081250,0.0,1.000000,0.000000,0.000000,0.000000
1782117377.945178,1881310,-0.959961,0.026855,-0.309570,-2.926829,-0.548781,0.487805,-5.137500,39.587502,-4.081250,0.0,1.000000,0.000000,0.000000,0.000000
1782117377.956178,1881321,-0.959961,0.021484,-0.311523,-2.560976,-0.426829,0.243902,-5.168750,39.518749,-4.106250,0.0,1.000000,0.000000,0.000000,0.000000
1782117377.966178,1881331,-0.964355,0.019531,-0.309570,-2.195122,-0.243902,0.000000,-5.168750,39.518749,-4.106250,0.0,1.000000,0.000000,0.000000,0.000000
1782117377.975178,1881340,-0.960449,0.018066,-0.300781,-1.524390,-0.670732,-0.304878,-5.175000,39.512501,-4.100000,0.0,1.000000,0.000000,0.000000,0.000000
1782117377.985178,1881350,-0.954102,0.015137,-0.293457,-0.914634,-0.853659,-0.426829,-5.175000,39.512501,-4.100000,0.0,1.000000,0.000000,0.000000,0.000000
1782117377.996178,1881361,-0.953613,0.015625,-0.293945,-0.365854,-0.914634,-0.121951,-5.237500,39.450001,-4.150000,0.0,1.000000,0.000000,0.000000,0.000000
1782117378.005178,1881370,-0.955078,0.016113,-0.296387,0.060976,-1.219512,0.365854,-5.237500,39.450001,-4.150000,0.0,1.000000,0.000000,0.000000,0.000000
1782117378.016178,1881381,-0.956543,0.017090,-0.298828,0.487805,-1.707317,0.670732,-5.268750,39.418751,-4.093750,0.0,1.000000,0.000000,0.000000,0.000000
1782117378.025178,1881390,-0.957520,0.016602,-0.301270,1.097561,-2.012195,0.853659,-5.268750,39.418751,-4.093750,0.0,1.000000,0.000000,0.000000,0.000000
1782117378.035178,1881400,-0.960449,0.016602,-0.302734,1.280488,-2.195122,0.792683,-5.193750,39.531250,-4.075000,0.0,1.000000,0.000000,0.000000,0.000000
1782117378.045178,1881410,-0.955078,0.016113,-0.302246,0.975610,-2.256098,0.365854,-5.193750,39.531250,-4.075000,0.0,1.000000,0.000000,0.000000,0.000000
1782117378.056178,1881421,-0.950684,0.018066,-0.302246,0.365854,-1.890244,0.000000,-5.287500,39.406250,-4.075000,0.0,1.000000,0.000000,0.000000,0.000000
1782117378.066178,1881431,-0.946777,0.025391,-0.303223,-0.548781,-1.402439,-0.243902,-5.275000,39.418751,-4.043750,0.0,1.000000,0.000000,0.000000,0.000000
1782117378.075178,1881440,-0.946289,0.035156,-0.305176,-1.890244,-0.975610,-0.304878,-5.275000,39.418751,-4.043750,0.0,1.000000,0.000000,0.000000,0.000000
1782117378.086178,1881451,-0.948242,0.041016,-0.308105,-3.597561,-0.487805,0.000000,-5.293750,39.412502,-4.087500,0.0,1.000000,0.000000,0.000000,0.000000
1782117378.096178,1881461,-0.951172,0.033203,-0.312500,-4.329268,-0.426829,0.426829,-5.293750,39.412502,-4.087500,0.0,1.000000,0.000000,0.000000,0.000000
1782117378.106178,1881471,-0.958008,0.024414,-0.312500,-4.024390,-0.365854,0.426829,-5.175000,39.537502,-4.037500,0.0,1.000000,0.000000,0.000000,0.000000
1782117378.115178,1881480,-0.966797,0.021484,-0.302734,-3.109756,-0.670732,0.426829,-5.175000,39.537502,-4.037500,0.0,1.000000,0.000000,0.000000,0.000000
1782117378.125178,1881490,-0.969727,0.017578,-0.288086,-1.707317,-1.707317,0.487805,-5.087500,39.631252,-4.056250,0.0,1.000000,0.000000,0.000000,0.000000
1782117378.135178,1881500,-0.967285,0.011719,-0.281250,0.304878,-2.378049,0.731707,-5.087500,39.631252,-4.056250,0.0,1.000000,0.000000,0.000000,0.000000
1782117378.145178,1881510,-0.969238,0.005371,-0.279785,2.134146,-2.621951,1.158537,-5.150000,39.531250,-4.012500,0.0,1.000000,0.000000,0.000000,0.000000
1782117378.155178,1881520,-0.969238,0.005859,-0.280762,2.926829,-3.048780,1.524390,-5.150000,39.531250,-4.012500,0.0,1.000000,0.000000,0.000000,0.000000
1782117378.165178,1881530,-0.967773,0.009766,-0.286133,2.865854,-3.414634,1.585366,-5.000000,39.706249,-3.943750,0.0,1.000000,0.000000,0.000000,0.000000
1782117378.175178,1881540,-0.962891,0.017578,-0.291992,2.500000,-3.536585,1.463415,-5.000000,39.706249,-3.943750,0.0,1.000000,0.000000,0.000000,0.000000
1782117378.185178,1881550,-0.959961,0.022949,-0.295898,2.012195,-3.292683,1.219512,-5.050000,39.575001,-3.875000,0.0,1.000000,0.000000,0.000000,0.000000
1782117378.195178,1881560,-0.957031,0.030273,-0.297363,1.463415,-2.987805,0.914634,-5.050000,39.575001,-3.875000,0.0,1.000000,0.000000,0.000000,0.000000
1782117378.205178,1881570,-0.952148,0.037109,-0.296875,0.731707,-2.439024,0.548781,-5.262500,39.406250,-3.906250,0.0,1.000000,0.000000,0.000000,0.000000
1782117378.216178,1881581,-0.947754,0.041992,-0.297363,-0.609756,-1.951220,0.182927,-5.262500,39.406250,-3.906250,0.0,1.000000,0.000000,0.000000,0.000000
1782117378.225178,1881590,-0.944336,0.045898,-0.298828,-2.500000,-1.036585,0.000000,-5.268750,39.418751,-3.843750,0.0,1.000000,0.000000,0.000000,0.000000
1782117378.235178,1881600,-0.946289,0.048340,-0.301270,-4.817073,-0.060976,0.000000,-5.268750,39.418751,-3.843750,0.0,1.000000,0.000000,0.000000,0.000000
1782117378.245178,1881610,-0.948730,0.046387,-0.303711,-6.463415,0.548781,-0.060976,-5.312500,39.393749,-3.906250,0.0,1.000000,0.000000,0.000000,0.000000
1782117378.256178,1881621,-0.956055,0.041504,-0.303711,-7.073171,0.975610,0.060976,-5.312500,39.393749,-3.906250,0.0,1.000000,0.000000,0.000000,0.000000
1782117378.265178,1881630,-0.966309,0.031738,-0.298340,-6.707317,0.975610,0.243902,-5.225000,39.437500,-3.925000,0.0,1.000000,0.000000,0.000000,0.000000
1782117378.275178,1881640,-0.975098,0.022461,-0.289062,-5.548780,0.426829,0.243902,-5.225000,39.437500,-3.925000,0.0,1.000000,0.000000,0.000000,0.000000
1782117378.285178,1881650,-0.975098,0.018066,-0.280762,-3.902439,-0.609756,0.365854,-5.312500,39.387501,-4.006250,0.0,1.000000,0.000000,0.000000,0.000000
1782117378.296178,1881661,-0.971680,0.013672,-0.274414,-2.012195,-1.280488,0.487805,-5.312500,39.387501,-4.006250,0.0,1.000000,0.000000,0.000000,0.000000
1782117378.306178,1881671,-0.969727,0.007812,-0.272949,-0.548781,-1.463415,0.731707,-5.275000,39.437500,-3.993750,0.0,1.000000,0.000000,0.000000,0.000000
1782117378.315178,1881680,-0.970703,0.005859,-0.277344,0.426829,-1.524390,0.975610,-5.275000,39.437500,-3.993750,0.0,1.000000,0.000000,0.000000,0.000000
1782117378.326178,1881691,-0.969727,0.010254,-0.284180,0.853659,-1.585366,1.097561,-5.425000,39.299999,-3.993750,0.0,1.000000,0.000000,0.000000,0.000000
1782117378.336178,1881701,-0.962891,0.013184,-0.290527,0.975610,-1.463415,0.975610,-5.425000,39.299999,-3.993750,0.0,1.000000,0.000000,0.000000,0.000000
1782117378.346178,1881711,-0.963379,0.016602,-0.293457,0.853659,-1.097561,0.609756,-5.325000,39.350002,-3.975000,0.0,1.000000,0.000000,0.000000,0.000000
1782117378.355178,1881720,-0.963379,0.024414,-0.290527,0.975610,-0.914634,0.365854,-5.325000,39.350002,-3.975000,0.0,1.000000,0.000000,0.000000,0.000000
1782117378.365178,1881730,-0.963379,0.024414,-0.290527,0.975610,-0.914634,0.365854,-5.375000,39.350002,-3.975000,0.0,1.000000,0.000000,0.000000,0.000000
1782117378.376178,1881741,-0.956055,0.033203,-0.283691,1.219512,-1.036585,0.487805,-5.287500,39.400002,-3.931250,0.0,1.000000,0.000000,0.000000,0.000000
1782117378.385178,1881750,-0.956055,0.033203,-0.283691,1.219512,-1.036585,0.487805,-5.287500,39.400002,-3.931250,0.0,1.000000,0.000000,0.000000,0.000000
1782117378.397178,1881762,-0.956543,0.033691,-0.286133,0.792683,-0.975610,0.853659,-5.368750,39.375000,-3.962500,0.0,1.000000,0.000000,0.000000,0.000000
1782117378.405178,1881770,-0.956055,0.033203,-0.291016,-0.365854,-0.792683,0.975610,-5.368750,39.375000,-3.962500,0.0,1.000000,0.000000,0.000000,0.000000
1782117378.415178,1881780,-0.953125,0.033691,-0.297852,-1.646341,-0.365854,0.914634,-5.318750,39.387501,-3.943750,0.0,1.000000,0.000000,0.000000,0.000000
1782117378.425178,1881790,-0.953125,0.029785,-0.303223,-2.195122,0.121951,0.792683,-5.318750,39.387501,-3.943750,0.0,1.000000,0.000000,0.000000,0.000000
1782117378.435178,1881800,-0.956055,0.029297,-0.303711,-2.012195,0.670732,0.792683,-5.125000,39.537502,-3.956250,0.0,1.000000,0.000000,0.000000,0.000000
1782117378.445178,1881810,-0.963379,0.026367,-0.301270,-1.707317,0.792683,0.792683,-5.125000,39.537502,-3.956250,0.0,1.000000,0.000000,0.000000,0.000000
1782117378.455178,1881820,-0.964355,0.023926,-0.294434,-0.609756,0.304878,0.731707,-5.337500,39.381252,-3.956250,0.0,1.000000,0.000000,0.000000,0.000000
1782117378.465178,1881830,-0.963867,0.020020,-0.284668,0.548781,0.060976,0.670732,-5.337500,39.381252,-3.956250,0.0,1.000000,0.000000,0.000000,0.000000
1782117378.475178,1881840,-0.965820,0.012695,-0.281738,1.768293,-0.243902,0.914634,-5.268750,39.450001,-3.993750,0.0,1.000000,0.000000,0.000000,0.000000
1782117378.485178,1881850,-0.967773,0.009766,-0.285156,2.439024,-0.914634,1.097561,-5.268750,39.450001,-3.993750,0.0,1.000000,0.000000,0.000000,0.000000
1782117378.495178,1881860,-0.967285,0.011719,-0.290039,3.109756,-1.158537,1.280488,-5.281250,39.437500,-3.868750,0.0,1.000000,0.000000,0.000000,0.000000
1782117378.505178,1881870,-0.964844,0.017578,-0.290527,3.536585,-1.280488,1.341463,-5.281250,39.437500,-3.868750,0.0,1.000000,0.000000,0.000000,0.000000
1782117378.516178,1881881,-0.961426,0.022461,-0.289551,3.719512,-1.280488,1.280488,-5.275000,39.406250,-3.875000,0.0,1.000000,0.000000,0.000000,0.000000
1782117378.526178,1881891,-0.960449,0.026855,-0.291016,3.780488,-1.219512,1.280488,-5.275000,39.406250,-3.875000,0.0,1.000000,0.000000,0.000000,0.000000
1782117378.536178,1881901,-0.958008,0.030762,-0.293457,3.841464,-0.914634,1.219512,-5.243750,39.400002,-3.806250,0.0,1.000000,0.000000,0.000000,0.000000
1782117378.545178,1881910,-0.958496,0.033203,-0.296387,3.475610,-0.670732,1.219512,-5.243750,39.400002,-3.806250,0.0,1.000000,0.000000,0.000000,0.000000
1782117378.555178,1881920,-0.960938,0.031738,-0.300781,2.743902,-0.487805,1.097561,-5.281250,39.381252,-3.812500,0.0,1.000000,0.000000,0.000000,0.000000
1782117378.565178,1881930,-0.960938,0.030762,-0.304199,2.195122,-0.487805,1.097561,-5.281250,39.381252,-3.812500,0.0,1.000000,0.000000,0.000000,0.000000
1782117378.575178,1881940,-0.957520,0.030273,-0.304199,1.707317,-0.487805,1.036585,-5.306250,39.262501,-3.818750,0.0,1.000000,0.000000,0.000000,0.000000
1782117378.585178,1881950,-0.956055,0.029785,-0.302246,1.341463,-0.487805,0.853659,-5.306250,39.262501,-3.818750,0.0,1.000000,0.000000,0.000000,0.000000
1782117378.595178,1881960,-0.954102,0.029785,-0.299805,1.402439,-0.609756,0.731707,-5.275000,39.293751,-3.812500,0.0,1.000000,0.000000,0.000000,0.000000
1782117378.605178,1881970,-0.957031,0.029297,-0.299316,1.585366,-0.731707,1.036585,-5.275000,39.293751,-3.812500,0.0,1.000000,0.000000,0.000000,0.000000
1782117378.615178,1881980,-0.958008,0.025879,-0.302246,1.890244,-0.853659,1.463415,-5.293750,39.337502,-3.850000,0.0,1.000000,0.000000,0.000000,0.000000
1782117378.625178,1881990,-0.955566,0.020020,-0.305176,2.134146,-1.036585,1.524390,-5.293750,39.337502,-3.850000,0.0,1.000000,0.000000,0.000000,0.000000
1782117378.635178,1882000,-0.957031,0.018066,-0.307129,2.560976,-1.158537,1.646341,-5.231250,39.356251,-3.812500,0.0,1.000000,0.000000,0.000000,0.000000
1782117378.645178,1882010,-0.957031,0.016113,-0.310059,3.170732,-1.402439,1.585366,-5.231250,39.356251,-3.812500,0.0,1.000000,0.000000,0.000000,0.000000
1782117378.656178,1882021,-0.959473,0.016113,-0.309082,3.780488,-1.219512,1.585366,-5.306250,39.293751,-3.831250,0.0,1.000000,0.000000,0.000000,0.000000
1782117378.665178,1882030,-0.959473,0.015625,-0.306152,4.329268,-1.280488,1.463415,-4.900000,39.693752,-3.693750,0.0,1.000000,0.000000,0.000000,0.000000
1782117378.675178,1882040,-0.958984,0.016113,-0.303711,4.329268,-1.158537,1.219512,-4.900000,39.693752,-3.693750,0.0,1.000000,0.000000,0.000000,0.000000
1782117378.685178,1882050,-0.961426,0.017578,-0.303711,4.329268,-1.097561,1.402439,-5.237500,39.356251,-3.700000,0.0,1.000000,0.000000,0.000000,0.000000
1782117378.697178,1882062,-0.971191,0.020508,-0.304199,4.146341,-1.036585,1.768293,-5.237500,39.356251,-3.700000,0.0,1.000000,0.000000,0.000000,0.000000
1782117378.705178,1882070,-0.976562,0.020508,-0.301758,3.902439,-1.402439,2.134146,-5.150000,39.325001,-3.662500,0.0,1.000000,0.000000,0.000000,0.000000
1782117378.715178,1882080,-0.979004,0.011719,-0.298828,4.390244,-2.317073,2.500000,-5.150000,39.325001,-3.662500,0.0,1.000000,0.000000,0.000000,0.000000
1782117378.725178,1882090,-0.976562,-0.007324,-0.302246,6.219512,-2.865854,2.804878,-5.168750,39.368752,-3.687500,0.0,1.000000,0.000000,0.000000,0.000000
1782117378.736178,1882101,-0.970215,-0.029297,-0.308105,9.024390,-2.743902,2.682927,-5.168750,39.368752,-3.687500,0.0,1.000000,0.000000,0.000000,0.000000
1782117378.745178,1882110,-0.972656,-0.034180,-0.315430,12.256098,-2.500000,2.317073,-5.031250,39.393749,-3.525000,0.0,1.000000,0.000000,0.000000,0.000000
1782117378.755178,1882120,-0.976562,-0.021973,-0.321777,14.573171,-2.682927,2.378049,-5.031250,39.393749,-3.525000,0.0,1.000000,0.000000,0.000000,0.000000
1782117378.765178,1882130,-0.973633,-0.001953,-0.333984,15.060976,-3.414634,2.439024,-5.056250,39.287502,-3.443750,0.0,1.000000,0.000000,0.000000,0.000000
1782117378.777178,1882142,-0.955566,0.022461,-0.342285,13.902439,-4.329268,2.682927,-5.056250,39.287502,-3.443750,0.0,1.000000,0.000000,0.000000,0.000000
1782117378.785178,1882150,-0.938965,0.043945,-0.349609,11.585366,-4.573171,2.865854,-4.968750,39.375000,-3.318750,0.0,1.000000,0.000000,0.000000,0.000000
1782117378.795178,1882160,-0.925781,0.054688,-0.349609,9.512196,-4.329268,2.987805,-4.968750,39.375000,-3.318750,0.0,1.000000,0.000000,0.000000,0.000000
1782117378.805178,1882170,-0.918945,0.049316,-0.337891,8.109756,-4.207317,3.048780,-4.881250,39.400002,-3.218750,0.0,1.000000,0.000000,0.000000,0.000000
1782117378.815178,1882180,-0.923340,0.028320,-0.326172,7.378049,-4.146341,3.231707,-4.881250,39.400002,-3.218750,0.0,1.000000,0.000000,0.000000,0.000000
1782117378.825178,1882190,-0.946777,0.008301,-0.319336,7.439024,-4.878049,3.475610,-4.762500,39.481251,-3.056250,0.0,1.000000,0.000000,0.000000,0.000000
1782117378.835178,1882200,-0.971191,-0.000488,-0.325684,8.170732,-6.951220,3.780488,-4.762500,39.481251,-3.056250,0.0,1.000000,0.000000,0.000000,0.000000
1782117378.845178,1882210,-0.971191,0.004395,-0.336914,8.841464,-10.609756,3.719512,-4.781250,39.406250,-2.962500,0.0,1.000000,0.000000,0.000000,0.000000
1782117378.856178,1882221,-0.937988,0.008301,-0.343262,7.195122,-12.987805,3.109756,-4.781250,39.406250,-2.962500,0.0,1.000000,0.000000,0.000000,0.000000
1782117378.865178,1882230,-0.915527,0.013672,-0.354004,4.085366,-12.560976,2.439024,-4.712500,39.456249,-2.756250,0.0,1.000000,0.000000,0.000000,0.000000
1782117378.875178,1882240,-0.908203,0.017090,-0.355469,1.646341,-11.341464,2.195122,-4.712500,39.456249,-2.756250,0.0,1.000000,0.000000,0.000000,0.000000
1782117378.885178,1882250,-0.906738,0.012207,-0.354980,0.853659,-10.304878,2.560976,-4.718750,39.362499,-2.612500,0.0,1.000000,0.000000,0.000000,0.000000
1782117378.896178,1882261,-0.910645,-0.003418,-0.350586,2.378049,-10.182927,3.536585,-4.718750,39.362499,-2.612500,0.0,1.000000,0.000000,0.000000,0.000000
1782117378.905178,1882270,-0.916992,-0.020508,-0.346680,4.451220,-11.219512,3.841464,-4.618750,39.356251,-2.475000,0.0,1.000000,0.000000,0.000000,0.000000
1782117378.915178,1882280,-0.929688,-0.029785,-0.342773,6.585366,-12.926829,3.902439,-4.618750,39.356251,-2.475000,0.0,1.000000,0.000000,0.000000,0.000000
1782117378.926178,1882291,-0.955078,-0.031738,-0.338867,9.756098,-15.670732,4.024390,-4.643750,39.268749,-2.287500,0.0,1.000000,0.000000,0.000000,0.000000
1782117378.937178,1882302,-1.004883,-0.005859,-0.336914,13.963415,-20.426830,4.939024,-4.468750,39.368752,-2.018750,0.0,1.000000,0.000000,0.000000,0.000000
1782117378.945178,1882310,-1.030273,0.042480,-0.333008,18.658537,-29.390245,6.402439,-4.468750,39.368752,-2.018750,0.0,1.000000,0.000000,0.000000,0.000000
1782117378.955178,1882320,-1.000977,0.061523,-0.306641,18.902439,-38.353661,6.341464,-4.468750,39.368752,-2.018750,0.0,1.000000,0.000000,0.000000,0.000000
1782117378.965178,1882330,-0.981445,0.068359,-0.298340,13.963415,-40.670734,5.365854,-4.125000,39.493752,-1.456250,0.0,1.000000,0.000000,0.000000,0.000000
1782117378.976178,1882341,-0.988770,0.075195,-0.297852,6.951220,-39.634148,4.207317,-4.362500,39.043751,-0.975000,0.0,1.000000,0.000000,0.000000,0.000000
1782117378.985178,1882350,-0.980957,0.080078,-0.280762,2.439024,-38.292683,2.804878,-4.362500,39.043751,-0.975000,0.0,1.000000,0.000000,0.000000,0.000000
1782117378.995178,1882360,-0.984375,0.071289,-0.221680,0.731707,-37.682926,1.036585,-4.337500,38.912502,-0.606250,0.0,1.000000,0.000000,0.000000,0.000000
1782117379.007178,1882372,-0.994629,0.045898,-0.178223,1.585366,-36.951221,0.792683,-4.337500,38.912502,-0.606250,0.0,1.000000,0.000000,0.000000,0.000000
1782117379.017178,1882382,-1.025391,0.025391,-0.156738,5.304878,-34.939026,2.804878,-4.068750,39.081249,-0.256250,0.0,1.000000,0.000000,0.000000,0.000000
1782117379.025178,1882390,-1.064453,0.007812,-0.154297,9.085366,-35.182926,5.609756,-4.068750,39.081249,-0.256250,0.0,1.000000,0.000000,0.000000,0.000000
1782117379.035178,1882400,-1.067871,-0.003906,-0.141113,10.121951,-38.963417,6.585366,-4.118750,38.706249,0.100000,0.0,1.000000,0.000000,0.000000,0.000000
1782117379.045178,1882410,-1.037598,-0.005859,-0.154785,6.829268,-41.341465,5.365854,-4.118750,38.706249,0.100000,0.0,1.000000,0.000000,0.000000,0.000000
1782117379.056178,1882421,-0.988770,0.004395,-0.184082,1.463415,-39.634148,2.926829,-4.400000,38.200001,0.450000,0.0,1.000000,0.000000,0.000000,0.000000
1782117379.065178,1882430,-0.946777,0.003418,-0.207031,-4.451220,-33.963417,-0.060976,-4.400000,38.200001,0.450000,0.0,1.000000,0.000000,0.000000,0.000000
1782117379.075178,1882440,-0.940918,0.005371,-0.231445,-9.573171,-25.609756,-2.804878,-4.587500,37.900002,0.693750,0.0,1.000000,0.000000,0.000000,0.000000
1782117379.085178,1882450,-0.957031,0.011719,-0.260742,-11.524390,-18.048780,-4.268293,-4.587500,37.900002,0.693750,0.0,1.000000,0.000000,0.000000,0.000000
1782117379.096178,1882461,-0.975098,0.028320,-0.254395,-9.634147,-14.695123,-4.756098,-4.562500,37.956249,0.906250,0.0,1.000000,0.000000,0.000000,0.000000
1782117379.105178,1882470,-0.979980,0.032227,-0.243164,-5.426829,-14.268293,-4.512195,-4.562500,37.956249,0.906250,0.0,1.000000,0.000000,0.000000,0.000000
1782117379.115178,1882480,-0.965820,0.027344,-0.226074,-1.280488,-13.902439,-4.695122,-4.925000,37.868752,0.993750,0.0,1.000000,0.000000,0.000000,0.000000
1782117379.125178,1882490,-0.949219,0.032715,-0.202148,1.829268,-12.560976,-4.451220,-4.925000,37.868752,0.993750,0.0,1.000000,0.000000,0.000000,0.000000
1782117379.138178,1882503,-0.927734,0.044922,-0.190430,3.109756,-10.487805,-4.085366,-5.081250,37.993752,1.037500,0.0,1.000000,0.000000,0.000000,0.000000
1782117379.145178,1882510,-0.915527,0.057617,-0.190430,4.146341,-6.768293,-2.987805,-5.081250,37.993752,1.037500,0.0,1.000000,0.000000,0.000000,0.000000
1782117379.155178,1882520,-0.924316,0.065918,-0.185059,5.426829,-2.378049,-1.402439,-5.056250,38.243752,1.137500,0.0,1.000000,0.000000,0.000000,0.000000
1782117379.166178,1882531,-0.938965,0.041504,-0.169922,6.890244,0.304878,0.365854,-5.056250,38.243752,1.137500,0.0,1.000000,0.000000,0.000000,0.000000
1782117379.177178,1882542,-0.964355,0.000488,-0.153809,9.939025,1.463415,1.463415,-5.206250,38.206249,1.087500,0.0,1.000000,0.000000,0.000000,0.000000
1782117379.186178,1882551,-0.990234,-0.045410,-0.148926,14.939025,1.280488,1.585366,-5.206250,38.206249,1.087500,0.0,1.000000,0.000000,0.000000,0.000000
1782117379.195178,1882560,-1.010742,-0.066895,-0.149414,21.341463,0.548781,1.158537,-5.162500,38.243752,0.962500,0.0,1.000000,0.000000,0.000000,0.000000
1782117379.205178,1882570,-1.027832,-0.071289,-0.148926,28.841465,-0.792683,0.182927,-5.162500,38.243752,0.962500,0.0,1.000000,0.000000,0.000000,0.000000
1782117379.215178,1882580,-1.027832,-0.071289,-0.148926,28.841465,-0.792683,0.182927,-5.206250,38.193752,0.993750,0.0,1.000000,0.000000,0.000000,0.000000
1782117379.225178,1882590,-1.039062,-0.056152,-0.143066,36.402439,-2.134146,-0.792683,-5.206250,38.193752,0.993750,0.0,1.000000,0.000000,0.000000,0.000000
1782117379.235178,1882600,-1.033691,-0.027832,-0.140137,42.865856,-3.658537,-0.975610,-4.787500,38.556252,1.218750,0.0,1.000000,0.000000,0.000000,0.000000
1782117379.245178,1882610,-1.015625,0.004883,-0.121094,47.317074,-5.000000,0.243902,-4.787500,38.556252,1.218750,0.0,1.000000,0.000000,0.000000,0.000000
1782117379.255178,1882620,-0.998047,0.041016,-0.097656,48.170734,-5.975610,1.341463,-4.787500,38.424999,1.443750,0.0,1.000000,0.000000,0.000000,0.000000
1782117379.265178,1882630,-0.976074,0.078125,-0.083008,45.121952,-6.097561,1.829268,-4.543750,38.625000,1.618750,0.0,1.000000,0.000000,0.000000,0.000000
1782117379.275178,1882640,-0.958008,0.108398,-0.075684,38.902439,-4.939024,1.524390,-4.543750,38.625000,1.618750,0.0,1.000000,0.000000,0.000000,0.000000
1782117379.285178,1882650,-0.941406,0.133789,-0.082520,31.158537,-2.621951,0.426829,-4.456250,38.643749,1.818750,0.0,1.000000,0.000000,0.000000,0.000000
1782117379.295178,1882660,-0.922852,0.147949,-0.085449,23.536587,1.341463,-0.731707,-4.456250,38.643749,1.818750,0.0,1.000000,0.000000,0.000000,0.000000
1782117379.305178,1882670,-0.923828,0.154785,-0.095215,16.463415,6.524390,-1.280488,-4.412500,38.762501,1.731250,0.0,1.000000,0.000000,0.000000,0.000000
1782117379.315178,1882680,-0.945312,0.149902,-0.106934,10.487805,12.073171,-1.036585,-4.412500,38.762501,1.731250,0.0,1.000000,0.000000,0.000000,0.000000
1782117379.325178,1882690,-0.966309,0.130371,-0.101074,6.280488,14.817074,-1.036585,-4.268750,38.931252,1.568750,0.0,1.000000,0.000000,0.000000,0.000000
1782117379.335178,1882700,-0.968262,0.112305,-0.084961,3.658537,16.036585,-2.439024,-4.268750,38.931252,1.568750,0.0,1.000000,0.000000,0.000000,0.000000
1782117379.345178,1882710,-0.954590,0.101074,-0.074707,0.609756,17.804878,-4.939024,-4.375000,38.968750,1.243750,0.0,1.000000,0.000000,0.000000,0.000000
1782117379.356178,1882721,-0.953125,0.097168,-0.061523,-3.414634,20.975611,-7.134147,-4.375000,38.968750,1.243750,0.0,1.000000,0.000000,0.000000,0.000000
1782117379.366178,1882731,-0.972656,0.089844,-0.045410,-7.378049,23.597561,-8.170732,-4.581250,38.712502,0.868750,0.0,1.000000,0.000000,0.000000,0.000000
1782117379.375178,1882740,-1.004395,0.065918,-0.024414,-9.451220,24.329269,-7.987805,-4.581250,38.712502,0.868750,0.0,1.000000,0.000000,0.000000,0.000000
1782117379.386178,1882751,-1.030762,0.035156,-0.001953,-9.756098,23.353659,-7.134147,-4.737500,38.656250,0.531250,0.0,1.000000,0.000000,0.000000,0.000000
1782117379.395178,1882760,-1.054199,0.004883,0.015137,-8.536586,22.012196,-5.914634,-4.737500,38.656250,0.531250,0.0,1.000000,0.000000,0.000000,0.000000
1782117379.405178,1882770,-1.075684,-0.014648,0.022461,-5.670732,19.207317,-5.060976,-4.787500,38.681252,0.281250,0.0,1.000000,0.000000,0.000000,0.000000
1782117379.415178,1882780,-1.078613,-0.015625,0.031738,-1.219512,15.548780,-4.024390,-4.787500,38.681252,0.281250,0.0,1.000000,0.000000,0.000000,0.000000
1782117379.425178,1882790,-1.071777,-0.001953,0.038086,3.048780,11.707317,-2.743902,-4.687500,38.831249,0.112500,0.0,1.000000,0.000000,0.000000,0.000000
1782117379.435178,1882800,-1.061523,0.021973,0.029297,5.365854,9.390244,-0.914634,-4.687500,38.831249,0.112500,0.0,1.000000,0.000000,0.000000,0.000000
1782117379.445178,1882810,-1.065430,0.048828,0.017090,6.463415,7.560976,1.768293,-4.731250,38.862499,0.056250,0.0,1.000000,0.000000,0.000000,0.000000
1782117379.456178,1882821,-1.074219,0.066895,0.015137,7.195122,5.243903,4.573171,-4.731250,38.862499,0.056250,0.0,1.000000,0.000000,0.000000,0.000000
1782117379.465178,1882830,-1.066895,0.077637,0.015137,7.500000,2.012195,6.097561,-4.650000,38.981251,0.018750,0.0,1.000000,0.000000,0.000000,0.000000
1782117379.475178,1882840,-1.047363,0.088379,0.010254,6.463415,0.548781,6.097561,-4.650000,38.981251,0.018750,0.0,1.000000,0.000000,0.000000,0.000000
1782117379.486178,1882851,-1.033203,0.103027,-0.004883,3.597561,0.853659,5.182927,-4.650000,39.018749,0.081250,0.0,1.000000,0.000000,0.000000,0.000000
1782117379.495178,1882860,-1.021484,0.111816,-0.029785,-0.487805,1.707317,4.024390,-4.650000,39.018749,0.081250,0.0,1.000000,0.000000,0.000000,0.000000
1782117379.505178,1882870,-1.005371,0.112305,-0.039551,-4.268293,2.560976,3.231707,-4.531250,38.950001,0.137500,0.0,1.000000,0.000000,0.000000,0.000000
1782117379.515178,1882880,-0.991699,0.104980,-0.034180,-7.804878,3.353659,2.378049,-4.531250,38.950001,0.137500,0.0,1.000000,0.000000,0.000000,0.000000
1782117379.525178,1882890,-0.984375,0.093262,-0.036621,-11.524390,4.695122,1.219512,-4.556250,38.812500,0.075000,0.0,1.000000,0.000000,0.000000,0.000000
1782117379.535178,1882900,-0.979980,0.088867,-0.041992,-15.548780,6.463415,0.000000,-4.556250,38.812500,0.075000,0.0,1.000000,0.000000,0.000000,0.000000
1782117379.546178,1882911,-0.994141,0.083984,-0.057617,-19.756098,8.414635,0.121951,-4.693750,38.756252,0.031250,0.0,1.000000,0.000000,0.000000,0.000000
1782117379.555178,1882920,-1.014648,0.073730,-0.075684,-23.292683,8.780488,1.280488,-4.581250,38.775002,-0.081250,0.0,1.000000,0.000000,0.000000,0.000000
1782117379.566178,1882931,-1.041504,0.055664,-0.083984,-24.695122,7.195122,2.134146,-4.581250,38.775002,-0.081250,0.0,1.000000,0.000000,0.000000,0.000000
1782117379.576178,1882941,-1.051758,0.040039,-0.086914,-24.268293,3.353659,2.195122,-4.700000,38.643749,-0.168750,0.0,1.000000,0.000000,0.000000,0.000000
1782117379.586178,1882951,-1.044434,0.026855,-0.089844,-23.902439,-0.182927,1.768293,-4.700000,38.643749,-0.168750,0.0,1.000000,0.000000,0.000000,0.000000
1782117379.596178,1882961,-1.026367,0.014648,-0.108887,-24.207317,-2.073171,1.219512,-4.425000,38.825001,-0.125000,0.0,1.000000,0.000000,0.000000,0.000000
1782117379.606178,1882971,-1.000977,0.003906,-0.126953,-23.963415,-3.414634,0.548781,-4.425000,38.825001,-0.125000,0.0,1.000000,0.000000,0.000000,0.000000
1782117379.616178,1882981,-0.970215,0.000488,-0.128418,-22.500000,-4.573171,0.060976,-4.581250,38.581249,-0.093750,0.0,1.000000,0.000000,0.000000,0.000000
1782117379.625178,1882990,-0.955078,0.010742,-0.128906,-20.914635,-3.170732,0.487805,-4.581250,38.581249,-0.093750,0.0,1.000000,0.000000,0.000000,0.000000
1782117379.635178,1883000,-0.973633,0.014648,-0.131348,-18.719513,-1.036585,2.500000,-4.525000,38.518749,0.050000,0.0,1.000000,0.000000,0.000000,0.000000
1782117379.645178,1883010,-1.017578,0.007324,-0.135254,-13.475610,-1.524390,5.548780,-4.525000,38.518749,0.050000,0.0,1.000000,0.000000,0.000000,0.000000
1782117379.655178,1883020,-1.047363,-0.006836,-0.109863,-6.890244,-6.158537,7.378049,-4.612500,38.412502,0.150000,0.0,1.000000,0.000000,0.000000,0.000000
1782117379.666178,1883031,-1.032715,-0.020996,-0.088379,-2.682927,-11.463415,6.951220,-4.612500,38.412502,0.150000,0.0,1.000000,0.000000,0.000000,0.000000
1782117379.675178,1883040,-0.978027,-0.023438,-0.101074,-2.682927,-14.085366,3.902439,-4.256250,38.687500,0.418750,0.0,1.000000,0.000000,0.000000,0.000000
1782117379.685178,1883050,-0.939941,0.001465,-0.127930,-6.097561,-13.292684,-0.731707,-4.256250,38.687500,0.418750,0.0,1.000000,0.000000,0.000000,0.000000
1782117379.695178,1883060,-0.933594,0.062500,-0.178223,-12.926829,-9.817074,-2.256098,-4.631250,38.343750,0.512500,0.0,1.000000,0.000000,0.000000,0.000000
1782117379.705178,1883070,-0.985352,0.116699,-0.247559,-17.926830,-4.207317,1.951220,-4.631250,38.343750,0.512500,0.0,1.000000,0.000000,0.000000,0.000000
1782117379.715178,1883080,-1.030762,0.134277,-0.273926,-16.524391,-2.073171,7.743903,-4.537500,38.424999,0.618750,0.0,1.000000,0.000000,0.000000,0.000000
1782117379.725178,1883090,-1.101074,0.131836,-0.272949,-12.804878,-1.158537,12.439025,-4.537500,38.424999,0.618750,0.0,1.000000,0.000000,0.000000,0.000000
1782117379.735178,1883100,-1.064941,0.099121,-0.252441,-9.939025,-4.695122,11.036586,-4.512500,38.456249,0.643750,0.0,1.000000,0.000000,0.000000,0.000000
1782117379.745178,1883110,-0.969727,0.090332,-0.248535,-15.304878,-2.317073,3.658537,-4.512500,38.456249,0.643750,0.0,1.000000,0.000000,0.000000,0.000000
1782117379.756178,1883121,-0.902344,0.086426,-0.270508,-27.682928,7.317073,-2.865854,-4.518750,38.662502,0.681250,0.0,1.000000,0.000000,0.000000,0.000000
1782117379.765178,1883130,-0.889160,0.053223,-0.295898,-42.804878,18.109756,-8.719512,-4.518750,38.662502,0.681250,0.0,1.000000,0.000000,0.000000,0.000000
1782117379.775178,1883140,-0.869629,0.002930,-0.352051,-54.573174,25.487806,-13.658537,-4.437500,38.968750,0.337500,0.0,1.000000,0.000000,0.000000,0.000000
1782117379.786178,1883151,-0.870117,-0.059570,-0.393066,-56.158539,34.024391,-15.731708,-4.437500,38.968750,0.337500,0.0,1.000000,0.000000,0.000000,0.000000
1782117379.795178,1883160,-0.903809,-0.132812,-0.406738,-48.780487,42.621952,-15.426829,-4.950000,38.650002,-0.350000,0.0,1.000000,0.000000,0.000000,0.000000
1782117379.805178,1883170,-0.977539,-0.203613,-0.403809,-39.939026,47.012196,-15.670732,-4.950000,38.650002,-0.350000,0.0,1.000000,0.000000,0.000000,0.000000
1782117379.815178,1883180,-1.027832,-0.218262,-0.405273,-33.048782,43.475613,-16.341463,-5.425000,38.568752,-1.037500,0.0,1.000000,0.000000,0.000000,0.000000
1782117379.825178,1883190,-0.992188,-0.155273,-0.399902,-27.195122,34.268295,-16.585365,-5.425000,38.568752,-1.037500,0.0,1.000000,0.000000,0.000000,0.000000
1782117379.835178,1883200,-0.944824,-0.045410,-0.403320,-23.353659,27.012196,-14.024390,-5.612500,38.737499,-1.518750,0.0,1.000000,0.000000,0.000000,0.000000
1782117379.846178,1883211,-0.909180,0.058594,-0.415039,-22.865854,20.060976,-8.963415,-5.975000,38.687500,-1.925000,0.0,1.000000,0.000000,0.000000,0.000000
1782117379.855178,1883220,-0.895020,0.114258,-0.436523,-21.707317,16.280489,-2.500000,-5.975000,38.687500,-1.925000,0.0,1.000000,0.000000,0.000000,0.000000
1782117379.865178,1883230,-0.900391,0.120117,-0.445801,-17.195122,13.292684,2.012195,-6.056250,38.856251,-2.168750,0.0,1.000000,0.000000,0.000000,0.000000
1782117379.875178,1883240,-0.921875,0.091309,-0.419434,-7.987805,10.487805,4.268293,-6.056250,38.856251,-2.168750,0.0,1.000000,0.000000,0.000000,0.000000
1782117379.885178,1883250,-0.911133,0.038574,-0.375000,3.109756,7.621952,5.000000,-6.037500,38.887501,-2.393750,0.0,1.000000,0.000000,0.000000,0.000000
1782117379.895178,1883260,-0.932129,-0.041504,-0.328613,10.426829,9.512196,3.841464,-6.037500,38.887501,-2.393750,0.0,1.000000,0.000000,0.000000,0.000000
1782117379.905178,1883270,-0.926270,-0.109375,-0.337402,12.500000,13.292684,2.134146,-5.975000,39.012501,-2.500000,0.0,1.000000,0.000000,0.000000,0.000000
1782117379.915178,1883280,-0.950195,-0.146973,-0.344238,8.658537,15.304878,-0.975610,-5.975000,39.012501,-2.500000,0.0,1.000000,0.000000,0.000000,0.000000
1782117379.925178,1883290,-0.957520,-0.129883,-0.370605,3.475610,17.073172,-2.743902,-5.787500,39.256252,-2.712500,0.0,1.000000,0.000000,0.000000,0.000000
1782117379.935178,1883300,-0.949219,-0.091797,-0.370117,-0.304878,15.975610,-3.231707,-5.787500,39.256252,-2.712500,0.0,1.000000,0.000000,0.000000,0.000000
1782117379.945178,1883310,-0.944824,-0.047363,-0.356934,-2.621951,15.243903,-3.597561,-6.056250,38.981251,-2.900000,0.0,1.000000,0.000000,0.000000,0.000000
1782117379.955178,1883320,-0.943848,0.004395,-0.340820,-3.719512,13.841464,-4.207317,-6.056250,38.981251,-2.900000,0.0,1.000000,0.000000,0.000000,0.000000
1782117379.965178,1883330,-0.923340,0.048828,-0.326660,-5.121951,12.378049,-4.695122,-6.006250,39.031250,-3.106250,0.0,1.000000,0.000000,0.000000,0.000000
1782117379.975178,1883340,-0.907227,0.062988,-0.327148,-6.463415,13.231708,-5.000000,-6.006250,39.031250,-3.106250,0.0,1.000000,0.000000,0.000000,0.000000
1782117379.986178,1883351,-0.911133,0.048340,-0.339844,-8.475610,14.268293,-4.512195,-6.168750,39.012501,-3.256250,0.0,1.000000,0.000000,0.000000,0.000000
1782117379.995178,1883360,-0.931152,0.007812,-0.358887,-9.451220,14.634147,-3.475610,-6.168750,39.012501,-3.256250,0.0,1.000000,0.000000,0.000000,0.000000
1782117380.006178,1883371,-0.955566,-0.023438,-0.367188,-8.414635,13.597561,-2.621951,-6.268750,38.968750,-3.500000,0.0,1.000000,0.000000,0.000000,0.000000
1782117380.015178,1883380,-0.964844,-0.033203,-0.364746,-5.792683,10.853659,-1.829268,-6.268750,38.968750,-3.500000,0.0,1.000000,0.000000,0.000000,0.000000
1782117380.026178,1883391,-0.966309,-0.043945,-0.355469,-2.865854,7.865854,-1.280488,-6.350000,39.018749,-3.750000,0.0,1.000000,0.000000,0.000000,0.000000
1782117380.036178,1883401,-0.971191,-0.050781,-0.350098,0.365854,6.036585,-0.609756,-6.350000,39.018749,-3.750000,0.0,1.000000,0.000000,0.000000,0.000000
1782117380.045178,1883410,-0.984375,-0.050293,-0.345215,4.329268,5.609756,0.365854,-6.437500,39.056252,-3.875000,0.0,1.000000,0.000000,0.000000,0.000000
1782117380.056178,1883421,-0.992676,-0.053223,-0.341309,8.231708,5.670732,1.280488,-6.437500,39.056252,-3.875000,0.0,1.000000,0.000000,0.000000,0.000000
1782117380.067178,1883432,-0.992676,-0.053223,-0.341309,8.231708,5.670732,1.280488,-6.443750,39.043751,-4.000000,0.0,1.000000,0.000000,0.000000,0.000000
1782117380.075178,1883440,-0.995605,-0.052734,-0.339844,11.158537,5.914634,1.463415,-6.443750,39.043751,-4.000000,0.0,1.000000,0.000000,0.000000,0.000000
1782117380.086178,1883451,-0.999023,-0.045410,-0.341797,13.414635,5.670732,1.585366,-6.362500,39.106251,-4.000000,0.0,1.000000,0.000000,0.000000,0.000000
1782117380.095178,1883460,-0.993652,-0.028320,-0.347656,14.512196,4.207317,1.402439,-6.362500,39.106251,-4.000000,0.0,1.000000,0.000000,0.000000,0.000000
1782117380.105178,1883470,-0.976562,-0.001953,-0.355469,14.451220,2.317073,0.975610,-6.350000,39.062500,-4.006250,0.0,1.000000,0.000000,0.000000,0.000000
1782117380.116178,1883481,-0.956055,0.026855,-0.362793,13.475610,1.158537,0.487805,-6.350000,39.062500,-4.006250,0.0,1.000000,0.000000,0.000000,0.000000
1782117380.125178,1883490,-0.941895,0.048828,-0.358398,12.378049,1.097561,0.000000,-6.275000,39.075001,-3.943750,0.0,1.000000,0.000000,0.000000,0.000000
1782117380.135178,1883500,-0.934570,0.057617,-0.358398,11.707317,1.036585,-0.304878,-6.275000,39.075001,-3.943750,0.0,1.000000,0.000000,0.000000,0.000000
1782117380.146178,1883511,-0.918945,0.054688,-0.360840,10.914635,0.975610,-0.304878,-6.206250,39.243752,-3.825000,0.0,1.000000,0.000000,0.000000,0.000000
1782117380.155178,1883520,-0.910645,0.046387,-0.365723,8.292683,1.707317,0.243902,-6.275000,39.174999,-3.818750,0.0,1.000000,0.000000,0.000000,0.000000
1782117380.165178,1883530,-0.915039,0.028809,-0.371094,5.304878,2.256098,1.097561,-6.275000,39.174999,-3.818750,0.0,1.000000,0.000000,0.000000,0.000000
1782117380.175178,1883540,-0.928711,0.006836,-0.371094,3.597561,2.439024,2.195122,-6.293750,39.075001,-3.800000,0.0,1.000000,0.000000,0.000000,0.000000
1782117380.185178,1883550,-0.936035,-0.011719,-0.370605,3.048780,1.707317,2.987805,-6.293750,39.075001,-3.800000,0.0,1.000000,0.000000,0.000000,0.000000
1782117380.196178,1883561,-0.934570,-0.017578,-0.368652,3.475610,0.975610,3.353659,-6.187500,39.193752,-3.856250,0.0,1.000000,0.000000,0.000000,0.000000
1782117380.206178,1883571,-0.935547,-0.010742,-0.362305,3.963415,0.121951,3.475610,-6.187500,39.193752,-3.856250,0.0,1.000000,0.000000,0.000000,0.000000
1782117380.215178,1883580,-0.929199,-0.001465,-0.355469,4.817073,-0.609756,3.719512,-6.181250,39.168751,-3.806250,0.0,1.000000,0.000000,0.000000,0.000000
1782117380.225178,1883590,-0.923340,0.009277,-0.345703,5.792683,-1.036585,3.841464,-6.181250,39.168751,-3.806250,0.0,1.000000,0.000000,0.000000,0.000000
1782117380.235178,1883600,-0.920898,0.017578,-0.333496,6.524390,-0.914634,4.329268,-6.006250,39.287502,-3.875000,0.0,1.000000,0.000000,0.000000,0.000000
1782117380.245178,1883610,-0.924805,0.016113,-0.323242,7.256098,-0.304878,4.817073,-6.006250,39.287502,-3.875000,0.0,1.000000,0.000000,0.000000,0.000000
1782117380.255178,1883620,-0.924805,0.007324,-0.311523,7.560976,1.280488,4.695122,-6.075000,39.174999,-3.862500,0.0,1.000000,0.000000,0.000000,0.000000
1782117380.265178,1883630,-0.931641,-0.002441,-0.299316,7.012195,3.414634,4.024390,-6.075000,39.174999,-3.862500,0.0,1.000000,0.000000,0.000000,0.000000
1782117380.275178,1883640,-0.939453,-0.013672,-0.293457,6.402439,5.304878,3.231707,-5.993750,39.206249,-3.912500,0.0,1.000000,0.000000,0.000000,0.000000
1782117380.285178,1883650,-0.943359,-0.020996,-0.287598,5.548780,6.707317,2.317073,-5.993750,39.206249,-3.912500,0.0,1.000000,0.000000,0.000000,0.000000
1782117380.295178,1883660,-0.947266,-0.027344,-0.280762,4.878049,7.500000,1.341463,-6.043750,39.200001,-4.050000,0.0,1.000000,0.000000,0.000000,0.000000
1782117380.306178,1883671,-0.958496,-0.023926,-0.274414,4.146341,8.109756,0.670732,-6.043750,39.200001,-4.050000,0.0,1.000000,0.000000,0.000000,0.000000
1782117380.315178,1883680,-0.968750,-0.010254,-0.266602,3.536585,8.048780,0.609756,-5.943750,39.306252,-4.068750,0.0,1.000000,0.000000,0.000000,0.000000
1782117380.325178,1883690,-0.979492,0.003906,-0.254883,3.597561,7.073171,1.219512,-5.943750,39.306252,-4.068750,0.0,1.000000,0.000000,0.000000,0.000000
1782117380.335178,1883700,-0.984375,0.013184,-0.247559,4.268293,6.097561,2.012195,-5.962500,39.268749,-4.100000,0.0,1.000000,0.000000,0.000000,0.000000
1782117380.345178,1883710,-0.993652,0.020020,-0.244141,4.573171,5.121951,2.621951,-5.962500,39.268749,-4.100000,0.0,1.000000,0.000000,0.000000,0.000000
1782117380.355178,1883720,-1.004395,0.023438,-0.247559,5.000000,3.841464,2.865854,-5.925000,39.243752,-4.212500,0.0,1.000000,0.000000,0.000000,0.000000
1782117380.365178,1883730,-1.006348,0.033203,-0.244629,5.548780,2.378049,2.865854,-5.925000,39.243752,-4.212500,0.0,1.000000,0.000000,0.000000,0.000000
1782117380.375178,1883740,-1.003906,0.047363,-0.236328,5.487805,0.670732,2.317073,-5.912500,39.256252,-4.256250,0.0,1.000000,0.000000,0.000000,0.000000
1782117380.385178,1883750,-0.996582,0.052246,-0.229004,4.573171,-0.914634,1.829268,-5.912500,39.256252,-4.256250,0.0,1.000000,0.000000,0.000000,0.000000
1782117380.395178,1883760,-0.991211,0.053223,-0.227051,2.865854,-1.646341,1.829268,-5.831250,39.393749,-4.131250,0.0,1.000000,0.000000,0.000000,0.000000
1782117380.405178,1883770,-0.987305,0.054199,-0.226562,0.182927,-2.195122,1.890244,-5.831250,39.393749,-4.131250,0.0,1.000000,0.000000,0.000000,0.000000
1782117380.415178,1883780,-0.982422,0.054199,-0.239746,-3.597561,-2.743902,1.829268,-5.887500,39.368752,-4.243750,0.0,1.000000,0.000000,0.000000,0.000000
1782117380.426178,1883791,-0.973145,0.049316,-0.264160,-6.646342,-2.865854,1.890244,-5.881250,39.462502,-4.168750,0.0,1.000000,0.000000,0.000000,0.000000
1782117380.435178,1883800,-0.971191,0.041992,-0.291992,-7.804878,-2.621951,2.012195,-5.881250,39.462502,-4.168750,0.0,1.000000,0.000000,0.000000,0.000000
1782117380.445178,1883810,-0.971191,0.037109,-0.308594,-7.560976,-2.439024,1.951220,-5.887500,39.350002,-4.218750,0.0,1.000000,0.000000,0.000000,0.000000
1782117380.455178,1883820,-0.955078,0.035645,-0.315430,-6.951220,-2.804878,1.219512,-5.887500,39.350002,-4.218750,0.0,1.000000,0.000000,0.000000,0.000000
1782117380.466178,1883831,-0.939941,0.036621,-0.312500,-5.914634,-2.378049,1.097561,-5.918750,39.343750,-4.225000,0.0,1.000000,0.000000,0.000000,0.000000
1782117380.475178,1883840,-0.937012,0.026855,-0.305664,-5.304878,-1.768293,1.768293,-5.918750,39.343750,-4.225000,0.0,1.000000,0.000000,0.000000,0.000000
1782117380.485178,1883850,-0.950195,0.009766,-0.306152,-4.573171,-1.341463,3.048780,-5.881250,39.362499,-4.200000,0.0,1.000000,0.000000,0.000000,0.000000
1782117380.496178,1883861,-0.969238,-0.010254,-0.300781,-2.865854,-1.219512,4.329268,-5.881250,39.362499,-4.200000,0.0,1.000000,0.000000,0.000000,0.000000
1782117380.506178,1883871,-0.979004,-0.029297,-0.291504,-0.243902,-1.951220,5.121951,-5.818750,39.362499,-4.231250,0.0,1.000000,0.000000,0.000000,0.000000
1782117380.515178,1883880,-0.979492,-0.041992,-0.282715,3.109756,-2.804878,5.426829,-5.818750,39.362499,-4.231250,0.0,1.000000,0.000000,0.000000,0.000000
1782117380.526178,1883891,-0.990234,-0.048340,-0.277832,6.890244,-3.597561,5.731708,-5.718750,39.412502,-4.137500,0.0,1.000000,0.000000,0.000000,0.000000
1782117380.535178,1883900,-0.986816,-0.040039,-0.270020,10.365854,-4.756098,5.487805,-5.718750,39.412502,-4.137500,0.0,1.000000,0.000000,0.000000,0.000000
1782117380.546178,1883911,-0.970215,-0.022461,-0.264648,12.134147,-4.939024,4.756098,-5.568750,39.475002,-3.993750,0.0,1.000000,0.000000,0.000000,0.000000
1782117380.556178,1883921,-0.963379,-0.002441,-0.260742,12.073171,-3.963415,4.146341,-5.568750,39.475002,-3.993750,0.0,1.000000,0.000000,0.000000,0.000000
1782117380.566178,1883931,-0.965332,0.021973,-0.258789,11.158537,-3.048780,3.902439,-5.525000,39.493752,-3.875000,0.0,1.000000,0.000000,0.000000,0.000000
1782117380.575178,1883940,-0.967773,0.040039,-0.259766,9.634147,-2.560976,3.841464,-5.525000,39.493752,-3.875000,0.0,1.000000,0.000000,0.000000,0.000000
1782117380.586178,1883951,-0.965820,0.055176,-0.263672,7.500000,-2.317073,3.658537,-5.525000,39.443752,-3.843750,0.0,1.000000,0.000000,0.000000,0.000000
1782117380.595178,1883960,-0.966797,0.062500,-0.269531,4.939024,-1.890244,3.292683,-5.525000,39.443752,-3.843750,0.0,1.000000,0.000000,0.000000,0.000000
1782117380.606178,1883971,-0.963379,0.060059,-0.276367,2.439024,-1.402439,2.804878,-5.456250,39.475002,-3.743750,0.0,1.000000,0.000000,0.000000,0.000000
1782117380.615178,1883980,-0.957520,0.056641,-0.285156,-0.121951,-0.914634,2.012195,-5.456250,39.475002,-3.743750,0.0,1.000000,0.000000,0.000000,0.000000
1782117380.625178,1883990,-0.950684,0.049805,-0.288574,-2.012195,-0.304878,1.219512,-5.431250,39.562500,-3.725000,0.0,1.000000,0.000000,0.000000,0.000000
1782117380.635178,1884000,-0.946289,0.042969,-0.292480,-2.804878,0.121951,0.975610,-5.431250,39.562500,-3.725000,0.0,1.000000,0.000000,0.000000,0.000000
1782117380.645178,1884010,-0.950684,0.036133,-0.297852,-3.292683,0.304878,1.463415,-5.412500,39.549999,-3.787500,0.0,1.000000,0.000000,0.000000,0.000000
1782117380.655178,1884020,-0.961426,0.029785,-0.302734,-3.841464,0.121951,2.500000,-5.412500,39.549999,-3.787500,0.0,1.000000,0.000000,0.000000,0.000000
1782117380.667178,1884032,-0.960938,0.020996,-0.310059,-4.634146,-0.304878,3.353659,-5.431250,39.512501,-3.756250,0.0,1.000000,0.000000,0.000000,0.000000
1782117380.675178,1884040,-0.954590,0.009277,-0.318359,-4.207317,-0.060976,3.780488,-5.431250,39.512501,-3.756250,0.0,1.000000,0.000000,0.000000,0.000000
1782117380.685178,1884050,-0.959473,-0.002930,-0.323242,-1.707317,0.487805,4.146341,-5.306250,39.637501,-3.725000,0.0,1.000000,0.000000,0.000000,0.000000
1782117380.695178,1884060,-0.965820,-0.012207,-0.318848,1.463415,0.304878,4.390244,-5.306250,39.637501,-3.725000,0.0,1.000000,0.000000,0.000000,0.000000
1782117380.705178,1884070,-0.966309,-0.014160,-0.312988,4.268293,-0.182927,4.024390,-5.400000,39.537502,-3.787500,0.0,1.000000,0.000000,0.000000,0.000000
1782117380.715178,1884080,-0.963379,-0.012695,-0.304688,6.341464,-0.792683,3.597561,-5.400000,39.537502,-3.787500,0.0,1.000000,0.000000,0.000000,0.000000
1782117380.725178,1884090,-0.961914,-0.006836,-0.297363,7.560976,-0.975610,3.109756,-5.081250,39.806252,-3.712500,0.0,1.000000,0.000000,0.000000,0.000000
1782117380.735178,1884100,-0.958008,0.007812,-0.291992,7.987805,-1.341463,2.682927,-5.081250,39.806252,-3.712500,0.0,1.000000,0.000000,0.000000,0.000000
1782117380.750178,1884115,-0.952637,0.025391,-0.290039,8.109756,-1.158537,2.743902,-5.312500,39.593750,-3.718750,0.0,1.000000,0.000000,0.000000,0.000000
1782117380.755178,1884120,-0.954102,0.041992,-0.291992,7.621952,-0.670732,2.804878,-5.131250,39.731251,-3.606250,0.0,1.000000,0.000000,0.000000,0.000000
1782117380.765178,1884130,-0.953613,0.056641,-0.293457,5.975610,-0.365854,2.926829,-5.131250,39.731251,-3.606250,0.0,1.000000,0.000000,0.000000,0.000000
1782117380.775178,1884140,-0.952148,0.069824,-0.293945,3.597561,-0.060976,2.621951,-5.187500,39.612499,-3.631250,0.0,1.000000,0.000000,0.000000,0.000000
1782117380.786178,1884151,-0.953125,0.077148,-0.292480,0.487805,0.487805,2.195122,-5.187500,39.612499,-3.631250,0.0,1.000000,0.000000,0.000000,0.000000
1782117380.795178,1884160,-0.955566,0.078125,-0.292480,-2.378049,0.914634,1.829268,-5.106250,39.712502,-3.643750,0.0,1.000000,0.000000,0.000000,0.000000
1782117380.805178,1884170,-0.958984,0.074219,-0.287598,-4.512195,1.524390,1.463415,-5.106250,39.712502,-3.643750,0.0,1.000000,0.000000,0.000000,0.000000
1782117380.815178,1884180,-0.955566,0.071289,-0.281738,-6.646342,1.768293,0.731707,-5.106250,39.718750,-3.668750,0.0,1.000000,0.000000,0.000000,0.000000
1782117380.827178,1884192,-0.952637,0.065430,-0.281250,-8.231708,2.500000,0.426829,-5.106250,39.718750,-3.668750,0.0,1.000000,0.000000,0.000000,0.000000
1782117380.836178,1884201,-0.954102,0.048340,-0.283691,-9.024390,3.292683,0.670732,-5.162500,39.631252,-3.806250,0.0,1.000000,0.000000,0.000000,0.000000
1782117380.845178,1884210,-0.957031,0.029297,-0.287598,-9.146341,3.536585,0.731707,-5.162500,39.631252,-3.806250,0.0,1.000000,0.000000,0.000000,0.000000
1782117380.855178,1884220,-0.967773,0.015137,-0.286133,-9.085366,3.597561,0.731707,-5.231250,39.587502,-3.956250,0.0,1.000000,0.000000,0.000000,0.000000
1782117380.866178,1884231,-0.976562,-0.002441,-0.282715,-7.865854,3.109756,0.975610,-5.231250,39.587502,-3.956250,0.0,1.000000,0.000000,0.000000,0.000000
1782117380.875178,1884240,-0.979492,-0.020020,-0.282227,-6.646342,2.682927,0.670732,-5.093750,39.718750,-3.931250,0.0,1.000000,0.000000,0.000000,0.000000
1782117380.886178,1884251,-0.976562,-0.024902,-0.276367,-5.365854,2.439024,0.243902,-5.093750,39.718750,-3.931250,0.0,1.000000,0.000000,0.000000,0.000000
1782117380.896178,1884261,-0.973633,-0.016113,-0.272949,-4.024390,2.500000,0.000000,-5.225000,39.631252,-4.000000,0.0,1.000000,0.000000,0.000000,0.000000
1782117380.909178,1884274,-0.970703,-0.012695,-0.272949,-2.195122,2.865854,0.060976,-5.225000,39.631252,-4.000000,0.0,1.000000,0.000000,0.000000,0.000000
1782117380.915178,1884280,-0.970703,-0.012695,-0.272949,-2.195122,2.865854,0.060976,-5.212500,39.662502,-4.018750,0.0,1.000000,0.000000,0.000000,0.000000
1782117380.925178,1884290,-0.971680,-0.010254,-0.279297,0.609756,2.865854,0.487805,-5.212500,39.662502,-4.018750,0.0,1.000000,0.000000,0.000000,0.000000
1782117380.935178,1884300,-0.976562,-0.000488,-0.283203,2.987805,2.317073,0.487805,-5.281250,39.600002,-4.100000,0.0,1.000000,0.000000,0.000000,0.000000
1782117380.946178,1884311,-0.976562,0.043945,-0.272461,3.170732,0.792683,0.121951,-5.281250,39.600002,-4.100000,0.0,1.000000,0.000000,0.000000,0.000000
1782117380.955178,1884320,-0.976562,0.043945,-0.272461,3.170732,0.792683,0.121951,-5.262500,39.618752,-4.137500,0.0,1.000000,0.000000,0.000000,0.000000
1782117380.965178,1884330,-0.966797,0.061035,-0.268066,2.195122,-0.121951,0.182927,-5.262500,39.618752,-4.137500,0.0,1.000000,0.000000,0.000000,0.000000
1782117380.975178,1884340,-0.957520,0.071777,-0.266113,1.097561,-0.304878,0.243902,-5.325000,39.549999,-4.162500,0.0,1.000000,0.000000,0.000000,0.000000
1782117380.989178,1884354,-0.965332,0.067383,-0.266602,-1.463415,1.097561,0.548781,-5.175000,39.700001,-4.131250,0.0,1.000000,0.000000,0.000000,0.000000
1782117380.995178,1884360,-0.965332,0.067383,-0.266602,-1.463415,1.097561,0.548781,-5.175000,39.700001,-4.131250,0.0,1.000000,0.000000,0.000000,0.000000
1782117381.005178,1884370,-0.969727,0.055176,-0.270020,-2.256098,0.914634,0.548781,-5.175000,39.700001,-4.131250,0.0,1.000000,0.000000,0.000000,0.000000
1782117381.015178,1884380,-0.970703,0.041504,-0.273438,-2.926829,0.304878,0.365854,-5.356250,39.593750,-4.106250,0.0,1.000000,0.000000,0.000000,0.000000
1782117381.028178,1884393,-0.967285,0.032227,-0.276855,-3.475610,-0.304878,0.304878,-4.881250,40.125000,-3.981250,0.0,1.000000,0.000000,0.000000,0.000000
1782117381.035178,1884400,-0.966309,0.022949,-0.283203,-3.475610,-0.792683,0.609756,-4.881250,40.125000,-3.981250,0.0,1.000000,0.000000,0.000000,0.000000
1782117381.046178,1884411,-0.964844,0.010254,-0.291992,-3.109756,-1.219512,1.036585,-5.356250,39.600002,-4.131250,0.0,1.000000,0.000000,0.000000,0.000000
1782117381.056178,1884421,-0.957031,0.002441,-0.302734,-2.439024,-1.341463,1.158537,-5.356250,39.600002,-4.131250,0.0,1.000000,0.000000,0.000000,0.000000
1782117381.066178,1884431,-0.953613,0.000000,-0.307129,-1.341463,-1.158537,1.219512,-5.368750,39.562500,-4.131250,0.0,1.000000,0.000000,0.000000,0.000000
1782117381.075178,1884440,-0.954590,0.002930,-0.308594,-0.182927,-1.036585,1.463415,-5.368750,39.562500,-4.131250,0.0,1.000000,0.000000,0.000000,0.000000
1782117381.085178,1884450,-0.954590,0.004883,-0.311035,0.731707,-1.158537,1.585366,-5.300000,39.593750,-4.106250,0.0,1.000000,0.000000,0.000000,0.000000
1782117381.095178,1884460,-0.953125,0.010254,-0.313477,1.219512,-0.731707,1.585366,-5.300000,39.593750,-4.106250,0.0,1.000000,0.000000,0.000000,0.000000
1782117381.105178,1884470,-0.956055,0.022949,-0.309082,1.646341,-0.487805,1.463415,-5.093750,39.781250,-4.056250,0.0,1.000000,0.000000,0.000000,0.000000
1782117381.116178,1884481,-0.950684,0.037598,-0.299805,2.317073,-0.792683,1.219512,-5.093750,39.781250,-4.056250,0.0,1.000000,0.000000,0.000000,0.000000
1782117381.125178,1884490,-0.947754,0.045410,-0.294922,3.170732,-0.609756,1.280488,-5.056250,39.843750,-3.993750,0.0,1.000000,0.000000,0.000000,0.000000
1782117381.135178,1884500,-0.947754,0.049805,-0.296875,3.414634,-0.243902,1.341463,-5.056250,39.843750,-3.993750,0.0,1.000000,0.000000,0.000000,0.000000
1782117381.147178,1884512,-0.946289,0.052246,-0.302246,2.865854,-0.121951,1.158537,-5.287500,39.681252,-4.043750,0.0,1.000000,0.000000,0.000000,0.000000
1782117381.155178,1884520,-0.948242,0.051758,-0.306641,1.524390,0.060976,1.097561,-5.287500,39.681252,-4.043750,0.0,1.000000,0.000000,0.000000,0.000000
1782117381.165178,1884530,-0.950195,0.048340,-0.311523,0.000000,0.121951,0.914634,-4.993750,39.981251,-3.975000,0.0,1.000000,0.000000,0.000000,0.000000
1782117381.175178,1884540,-0.954590,0.046387,-0.311523,-0.975610,0.243902,0.975610,-4.993750,39.981251,-3.975000,0.0,1.000000,0.000000,0.000000,0.000000
1782117381.187178,1884552,-0.959473,0.044922,-0.307129,-2.012195,0.243902,0.914634,-5.300000,39.625000,-4.037500,0.0,1.000000,0.000000,0.000000,0.000000
1782117381.195178,1884560,-0.958008,0.042969,-0.306641,-2.865854,0.000000,0.792683,-5.300000,39.625000,-4.037500,0.0,1.000000,0.000000,0.000000,0.000000
1782117381.205178,1884570,-0.952148,0.038574,-0.307617,-3.231707,0.182927,0.670732,-5.275000,39.681252,-4.075000,0.0,1.000000,0.000000,0.000000,0.000000
1782117381.215178,1884580,-0.949219,0.032715,-0.309570,-3.475610,0.792683,0.548781,-5.275000,39.681252,-4.075000,0.0,1.000000,0.000000,0.000000,0.000000
1782117381.228178,1884593,-0.955078,0.026367,-0.315430,-3.353659,1.158537,0.670732,-5.350000,39.562500,-4.100000,0.0,1.000000,0.000000,0.000000,0.000000
1782117381.236178,1884601,-0.958008,0.020996,-0.318359,-2.743902,1.036585,0.853659,-5.350000,39.562500,-4.100000,0.0,1.000000,0.000000,0.000000,0.000000
1782117381.245178,1884610,-0.959961,0.018555,-0.318359,-2.134146,0.731707,0.792683,-5.268750,39.674999,-4.162500,0.0,1.000000,0.000000,0.000000,0.000000
1782117381.255178,1884620,-0.958496,0.020508,-0.317383,-1.036585,0.365854,0.731707,-5.268750,39.674999,-4.162500,0.0,1.000000,0.000000,0.000000,0.000000
1782117381.268178,1884633,-0.956543,0.022949,-0.312988,0.000000,0.121951,0.670732,-5.356250,39.581249,-4.156250,0.0,1.000000,0.000000,0.000000,0.000000
1782117381.275178,1884640,-0.953125,0.025391,-0.310059,0.914634,0.000000,0.609756,-5.356250,39.581249,-4.156250,0.0,1.000000,0.000000,0.000000,0.000000
1782117381.286178,1884651,-0.952637,0.028320,-0.307129,1.707317,0.060976,0.731707,-5.312500,39.650002,-4.131250,0.0,1.000000,0.000000,0.000000,0.000000
1782117381.295178,1884660,-0.952148,0.029297,-0.310547,2.134146,-0.426829,1.036585,-5.312500,39.650002,-4.131250,0.0,1.000000,0.000000,0.000000,0.000000
1782117381.306178,1884671,-0.951660,0.033203,-0.313965,2.317073,-0.548781,1.341463,-5.356250,39.575001,-4.131250,0.0,1.000000,0.000000,0.000000,0.000000
1782117381.316178,1884681,-0.951660,0.036133,-0.315918,2.134146,-0.792683,1.524390,-5.318750,39.612499,-4.068750,0.0,1.000000,0.000000,0.000000,0.000000
1782117381.326178,1884691,-0.951172,0.036621,-0.315430,1.890244,-0.914634,1.402439,-5.318750,39.612499,-4.068750,0.0,1.000000,0.000000,0.000000,0.000000
1782117381.335178,1884700,-0.950195,0.036621,-0.313477,1.768293,-0.792683,1.341463,-5.337500,39.606251,-4.125000,0.0,1.000000,0.000000,0.000000,0.000000
1782117381.348178,1884713,-0.950195,0.033691,-0.312012,1.890244,-0.670732,1.341463,-5.337500,39.606251,-4.125000,0.0,1.000000,0.000000,0.000000,0.000000
1782117381.355178,1884720,-0.953125,0.031250,-0.314941,1.890244,-0.548781,1.280488,-5.262500,39.662502,-4.068750,0.0,1.000000,0.000000,0.000000,0.000000
1782117381.365178,1884730,-0.951172,0.029297,-0.317871,1.646341,-0.487805,1.097561,-5.262500,39.662502,-4.068750,0.0,1.000000,0.000000,0.000000,0.000000
1782117381.375178,1884740,-0.952148,0.034180,-0.318848,1.036585,-0.304878,0.975610,-5.306250,39.618752,-4.125000,0.0,1.000000,0.000000,0.000000,0.000000
1782117381.385178,1884750,-0.954102,0.036621,-0.316895,0.426829,-0.121951,1.036585,-5.306250,39.618752,-4.125000,0.0,1.000000,0.000000,0.000000,0.000000
1782117381.396178,1884761,-0.953125,0.034668,-0.316406,0.304878,-0.182927,1.036585,-5.012500,39.906250,-4.056250,0.0,1.000000,0.000000,0.000000,0.000000
1782117381.405178,1884770,-0.955078,0.031250,-0.310059,0.792683,-0.060976,0.975610,-5.012500,39.906250,-4.056250,0.0,1.000000,0.000000,0.000000,0.000000
1782117381.415178,1884780,-0.958008,0.027832,-0.305664,1.341463,-0.182927,1.097561,-5.212500,39.662502,-4.037500,0.0,1.000000,0.000000,0.000000,0.000000
1782117381.428178,1884793,-0.960449,0.022949,-0.302734,1.707317,-0.365854,1.097561,-5.212500,39.662502,-4.037500,0.0,1.000000,0.000000,0.000000,0.000000
1782117381.435178,1884800,-0.957520,0.019531,-0.299805,1.890244,-0.304878,0.975610,-5.231250,39.668751,-3.993750,0.0,1.000000,0.000000,0.000000,0.000000
1782117381.445178,1884810,-0.955566,0.020020,-0.299805,1.951220,-0.060976,0.853659,-5.231250,39.668751,-3.993750,0.0,1.000000,0.000000,0.000000,0.000000
1782117381.456178,1884821,-0.960938,0.020996,-0.297852,2.256098,0.121951,0.853659,-5.193750,39.668751,-4.025000,0.0,1.000000,0.000000,0.000000,0.000000
1782117381.468178,1884833,-0.967773,0.026367,-0.296387,2.317073,-0.060976,0.914634,-5.193750,39.668751,-4.025000,0.0,1.000000,0.000000,0.000000,0.000000
1782117381.476178,1884841,-0.963379,0.032227,-0.291504,2.256098,-0.426829,0.792683,-4.975000,39.931252,-3.943750,0.0,1.000000,0.000000,0.000000,0.000000
1782117381.486178,1884851,-0.957520,0.034668,-0.289551,2.134146,-0.304878,0.670732,-4.975000,39.931252,-3.943750,0.0,1.000000,0.000000,0.000000,0.000000
1782117381.495178,1884860,-0.957031,0.035156,-0.287598,1.890244,0.060976,0.792683,-5.200000,39.674999,-4.050000,0.0,1.000000,0.000000,0.000000,0.000000
1782117381.508178,1884873,-0.960938,0.035156,-0.287598,1.402439,0.060976,0.853659,-5.200000,39.674999,-4.050000,0.0,1.000000,0.000000,0.000000,0.000000
1782117381.515178,1884880,-0.962891,0.033203,-0.287598,0.731707,-0.121951,1.036585,-5.068750,39.806252,-3.975000,0.0,1.000000,0.000000,0.000000,0.000000
1782117381.525178,1884890,-0.964844,0.031250,-0.288086,0.182927,-0.487805,1.097561,-5.068750,39.806252,-3.975000,0.0,1.000000,0.000000,0.000000,0.000000
1782117381.535178,1884900,-0.967773,0.027832,-0.289062,-0.121951,-0.853659,1.097561,-5.262500,39.612499,-4.068750,0.0,1.000000,0.000000,0.000000,0.000000
1782117381.545178,1884910,-0.966309,0.029785,-0.287109,-0.060976,-1.341463,0.975610,-5.262500,39.612499,-4.068750,0.0,1.000000,0.000000,0.000000,0.000000
1782117381.555178,1884920,-0.959473,0.030762,-0.288574,0.121951,-1.585366,0.914634,-5.250000,39.587502,-3.975000,0.0,1.000000,0.000000,0.000000,0.000000
1782117381.565178,1884930,-0.958496,0.028320,-0.292480,0.304878,-1.219512,0.975610,-5.250000,39.587502,-3.975000,0.0,1.000000,0.000000,0.000000,0.000000
1782117381.575178,1884940,-0.959961,0.027344,-0.298340,0.426829,-1.097561,1.036585,-4.968750,39.875000,-4.031250,0.0,1.000000,0.000000,0.000000,0.000000
1782117381.585178,1884950,-0.960449,0.025879,-0.301270,0.548781,-1.280488,1.036585,-4.968750,39.875000,-4.031250,0.0,1.000000,0.000000,0.000000,0.000000
1782117381.595178,1884960,-0.961914,0.027344,-0.302734,0.487805,-1.280488,0.914634,-5.237500,39.568752,-3.968750,0.0,1.000000,0.000000,0.000000,0.000000
1782117381.605178,1884970,-0.960449,0.028320,-0.302734,0.548781,-1.402439,0.914634,-5.237500,39.568752,-3.968750,0.0,1.000000,0.000000,0.000000,0.000000
1782117381.615178,1884980,-0.956543,0.030762,-0.300781,0.670732,-1.585366,1.036585,-5.250000,39.631252,-3.918750,0.0,1.000000,0.000000,0.000000,0.000000
1782117381.625178,1884990,-0.954102,0.034180,-0.300293,0.487805,-1.524390,1.036585,-5.250000,39.631252,-3.918750,0.0,1.000000,0.000000,0.000000,0.000000
1782117381.635178,1885000,-0.955078,0.035645,-0.297363,0.243902,-1.341463,1.158537,-5.281250,39.562500,-3.881250,0.0,1.000000,0.000000,0.000000,0.000000
1782117381.645178,1885010,-0.957031,0.033691,-0.297852,0.060976,-1.219512,1.219512,-5.131250,39.668751,-3.962500,0.0,1.000000,0.000000,0.000000,0.000000
1782117381.655178,1885020,-0.960449,0.028320,-0.300781,-0.182927,-1.097561,1.280488,-5.131250,39.668751,-3.962500,0.0,1.000000,0.000000,0.000000,0.000000
1782117381.666178,1885031,-0.968262,0.028320,-0.304199,-0.182927,-1.036585,1.280488,-5.162500,39.668751,-3.900000,0.0,1.000000,0.000000,0.000000,0.000000
1782117381.675178,1885040,-0.970215,0.028320,-0.299316,0.060976,-1.402439,1.097561,-5.162500,39.668751,-3.900000,0.0,1.000000,0.000000,0.000000,0.000000
1782117381.685178,1885050,-0.965820,0.026367,-0.291992,0.426829,-1.829268,0.853659,-5.056250,39.756252,-3.900000,0.0,1.000000,0.000000,0.000000,0.000000
1782117381.696178,1885061,-0.960938,0.026367,-0.288086,0.487805,-1.829268,0.731707,-5.056250,39.756252,-3.900000,0.0,1.000000,0.000000,0.000000,0.000000
1782117381.706178,1885071,-0.958984,0.025879,-0.287598,0.182927,-1.829268,0.731707,-5.162500,39.625000,-3.893750,0.0,1.000000,0.000000,0.000000,0.000000
1782117381.716178,1885081,-0.959961,0.025391,-0.286621,0.000000,-1.768293,0.792683,-5.162500,39.625000,-3.893750,0.0,1.000000,0.000000,0.000000,0.000000
1782117381.725178,1885090,-0.960938,0.027344,-0.285156,0.121951,-1.951220,0.914634,-5.025000,39.818752,-3.806250,0.0,1.000000,0.000000,0.000000,0.000000
1782117381.736178,1885101,-0.960449,0.030762,-0.286621,0.182927,-2.134146,1.097561,-5.025000,39.818752,-3.806250,0.0,1.000000,0.000000,0.000000,0.000000
1782117381.745178,1885110,-0.960449,0.030762,-0.286621,0.182927,-2.134146,1.097561,-4.987500,39.806252,-3.775000,0.0,1.000000,0.000000,0.000000,0.000000
1782117381.755178,1885120,-0.960449,0.028809,-0.297363,-0.121951,-2.378049,1.219512,-4.987500,39.806252,-3.775000,0.0,1.000000,0.000000,0.000000,0.000000
1782117381.765178,1885130,-0.960449,0.028809,-0.297363,-0.121951,-2.378049,1.219512,-5.137500,39.643749,-3.837500,0.0,1.000000,0.000000,0.000000,0.000000
1782117381.775178,1885140,-0.958496,0.030762,-0.298340,-0.487805,-2.439024,1.036585,-5.137500,39.643749,-3.837500,0.0,1.000000,0.000000,0.000000,0.000000
1782117381.785178,1885150,-0.955566,0.031738,-0.298340,-0.731707,-2.500000,0.792683,-5.131250,39.687500,-3.818750,0.0,1.000000,0.000000,0.000000,0.000000
1782117381.795178,1885160,-0.955078,0.032227,-0.295410,-0.731707,-2.317073,0.792683,-5.131250,39.687500,-3.818750,0.0,1.000000,0.000000,0.000000,0.000000
1782117381.805178,1885170,-0.952148,0.029785,-0.293457,-0.487805,-2.256098,0.914634,-5.118750,39.674999,-3.756250,0.0,1.000000,0.000000,0.000000,0.000000
1782117381.815178,1885180,-0.954590,0.026367,-0.293457,-0.304878,-2.134146,1.097561,-5.118750,39.674999,-3.756250,0.0,1.000000,0.000000,0.000000,0.000000
1782117381.825178,1885190,-0.957031,0.022949,-0.291992,-0.365854,-2.073171,1.158537,-5.175000,39.637501,-3.693750,0.0,1.000000,0.000000,0.000000,0.000000
1782117381.837178,1885202,-0.958008,0.022461,-0.293945,-0.365854,-2.256098,1.402439,-5.175000,39.637501,-3.693750,0.0,1.000000,0.000000,0.000000,0.000000
1782117381.845178,1885210,-0.958008,0.022461,-0.293945,-0.365854,-2.256098,1.402439,-5.062500,39.706249,-3.731250,0.0,1.000000,0.000000,0.000000,0.000000
1782117381.855178,1885220,-0.959961,0.020996,-0.294922,-0.060976,-2.317073,1.524390,-5.062500,39.706249,-3.731250,0.0,1.000000,0.000000,0.000000,0.000000
1782117381.866178,1885231,-0.957031,0.022461,-0.294922,0.487805,-2.439024,1.402439,-5.112500,39.631252,-3.637500,0.0,1.000000,0.000000,0.000000,0.000000
1782117381.875178,1885240,-0.954590,0.023926,-0.294434,1.097561,-2.378049,1.402439,-5.112500,39.631252,-3.637500,0.0,1.000000,0.000000,0.000000,0.000000
1782117381.885178,1885250,-0.956055,0.024414,-0.295898,1.463415,-2.195122,1.524390,-5.075000,39.662502,-3.612500,0.0,1.000000,0.000000,0.000000,0.000000
1782117381.895178,1885260,-0.958496,0.025391,-0.297363,1.707317,-2.134146,1.585366,-5.075000,39.662502,-3.612500,0.0,1.000000,0.000000,0.000000,0.000000
1782117381.905178,1885270,-0.959961,0.027832,-0.301270,1.829268,-2.012195,1.646341,-5.150000,39.568752,-3.618750,0.0,1.000000,0.000000,0.000000,0.000000
1782117381.916178,1885281,-0.960938,0.031738,-0.299805,1.585366,-1.829268,1.524390,-5.150000,39.568752,-3.618750,0.0,1.000000,0.000000,0.000000,0.000000
1782117381.925178,1885290,-0.957520,0.034180,-0.297363,1.341463,-1.829268,1.402439,-5.112500,39.650002,-3.581250,0.0,1.000000,0.000000,0.000000,0.000000
1782117381.935178,1885300,-0.955078,0.038086,-0.295410,1.158537,-1.463415,1.219512,-5.156250,39.562500,-3.581250,0.0,1.000000,0.000000,0.000000,0.000000
1782117381.945178,1885310,-0.955566,0.041016,-0.293945,1.097561,-0.914634,1.219512,-5.156250,39.562500,-3.581250,0.0,1.000000,0.000000,0.000000,0.000000
1782117381.955178,1885320,-0.956055,0.041016,-0.293457,0.731707,-0.548781,1.158537,-5.031250,39.618752,-3.587500,0.0,1.000000,0.000000,0.000000,0.000000
1782117381.965178,1885330,-0.957031,0.039551,-0.295410,0.182927,-0.243902,1.097561,-5.031250,39.618752,-3.587500,0.0,1.000000,0.000000,0.000000,0.000000
1782117381.975178,1885340,-0.959473,0.036133,-0.297363,-0.182927,0.121951,0.975610,-5.075000,39.618752,-3.650000,0.0,1.000000,0.000000,0.000000,0.000000
1782117381.985178,1885350,-0.963379,0.035156,-0.292969,-0.304878,0.304878,0.731707,-5.075000,39.618752,-3.650000,0.0,1.000000,0.000000,0.000000,0.000000
1782117381.995178,1885360,-0.964844,0.035156,-0.288574,-0.365854,0.243902,0.426829,-5.081250,39.625000,-3.562500,0.0,1.000000,0.000000,0.000000,0.000000
1782117382.005178,1885370,-0.965820,0.035645,-0.281738,-0.487805,0.182927,0.365854,-5.081250,39.625000,-3.562500,0.0,1.000000,0.000000,0.000000,0.000000
1782117382.015178,1885380,-0.968262,0.037109,-0.276855,-0.426829,-0.060976,0.487805,-5.062500,39.650002,-3.593750,0.0,1.000000,0.000000,0.000000,0.000000
1782117382.025178,1885390,-0.971680,0.040039,-0.274902,-0.670732,-0.548781,0.670732,-5.062500,39.650002,-3.593750,0.0,1.000000,0.000000,0.000000,0.000000
1782117382.035178,1885400,-0.970215,0.039062,-0.277344,-0.609756,-1.097561,0.975610,-5.112500,39.637501,-3.600000,0.0,1.000000,0.000000,0.000000,0.000000
1782117382.045178,1885410,-0.970215,0.035645,-0.277344,-0.426829,-1.280488,1.097561,-5.112500,39.637501,-3.600000,0.0,1.000000,0.000000,0.000000,0.000000
1782117382.055178,1885420,-0.974121,0.033691,-0.277344,0.060976,-1.768293,1.158537,-5.062500,39.618752,-3.556250,0.0,1.000000,0.000000,0.000000,0.000000
1782117382.065178,1885430,-0.972168,0.034668,-0.272461,0.670732,-2.256098,1.158537,-5.062500,39.618752,-3.556250,0.0,1.000000,0.000000,0.000000,0.000000
1782117382.076178,1885441,-0.963379,0.032227,-0.270508,1.097561,-2.439024,0.975610,-5.106250,39.531250,-3.575000,0.0,1.000000,0.000000,0.000000,0.000000
1782117382.086178,1885451,-0.959473,0.029785,-0.273438,1.219512,-1.951220,0.853659,-5.106250,39.531250,-3.575000,0.0,1.000000,0.000000,0.000000,0.000000
1782117382.095178,1885460,-0.962891,0.032227,-0.277344,0.975610,-1.402439,0.731707,-5.062500,39.581249,-3.512500,0.0,1.000000,0.000000,0.000000,0.000000
1782117382.106178,1885471,-0.964355,0.033691,-0.280762,0.426829,-1.097561,0.731707,-5.062500,39.581249,-3.512500,0.0,1.000000,0.000000,0.000000,0.000000
1782117382.115178,1885480,-0.962402,0.032227,-0.284180,-0.060976,-1.036585,0.609756,-5.081250,39.562500,-3.487500,0.0,1.000000,0.000000,0.000000,0.000000
1782117382.125178,1885490,-0.962402,0.030762,-0.288086,-0.426829,-0.914634,0.426829,-5.081250,39.562500,-3.487500,0.0,1.000000,0.000000,0.000000,0.000000
1782117382.136178,1885501,-0.963867,0.031250,-0.289062,-0.792683,-0.914634,0.365854,-5.075000,39.531250,-3.525000,0.0,1.000000,0.000000,0.000000,0.000000
1782117382.145178,1885510,-0.964844,0.032715,-0.282715,-0.426829,-1.097561,0.426829,-5.075000,39.531250,-3.525000,0.0,1.000000,0.000000,0.000000,0.000000
1782117382.155178,1885520,-0.960449,0.030762,-0.279297,-0.060976,-1.280488,0.365854,-5.125000,39.500000,-3.475000,0.0,1.000000,0.000000,0.000000,0.000000
1782117382.166178,1885531,-0.958984,0.031250,-0.279297,0.365854,-1.036585,0.426829,-5.125000,39.500000,-3.475000,0.0,1.000000,0.000000,0.000000,0.000000
1782117382.175178,1885540,-0.959473,0.033203,-0.277832,0.731707,-0.853659,0.670732,-5.156250,39.506252,-3.468750,0.0,1.000000,0.000000,0.000000,0.000000
1782117382.185178,1885550,-0.963867,0.034180,-0.279297,0.914634,-0.853659,0.975610,-5.156250,39.506252,-3.468750,0.0,1.000000,0.000000,0.000000,0.000000
1782117382.196178,1885561,-0.966309,0.034668,-0.281250,1.036585,-0.975610,1.280488,-5.137500,39.481251,-3.481250,0.0,1.000000,0.000000,0.000000,0.000000
1782117382.205178,1885570,-0.966797,0.035645,-0.282715,1.036585,-0.975610,1.402439,-5.137500,39.481251,-3.481250,0.0,1.000000,0.000000,0.000000,0.000000
1782117382.215178,1885580,-0.969727,0.036133,-0.281250,1.036585,-0.975610,1.341463,-5.062500,39.575001,-3.425000,0.0,1.000000,0.000000,0.000000,0.000000
1782117382.225178,1885590,-0.970215,0.034668,-0.277344,1.219512,-1.341463,1.219512,-5.125000,39.500000,-3.475000,0.0,1.000000,0.000000,0.000000,0.000000
1782117382.235178,1885600,-0.965820,0.036621,-0.274902,1.463415,-1.585366,1.036585,-5.125000,39.500000,-3.475000,0.0,1.000000,0.000000,0.000000,0.000000
1782117382.246178,1885611,-0.963379,0.036133,-0.274902,1.585366,-1.585366,1.097561,-5.031250,39.556252,-3.418750,0.0,1.000000,0.000000,0.000000,0.000000
1782117382.255178,1885620,-0.961914,0.036621,-0.277832,1.402439,-1.463415,1.158537,-5.031250,39.556252,-3.418750,0.0,1.000000,0.000000,0.000000,0.000000
1782117382.265178,1885630,-0.960449,0.036133,-0.284180,0.670732,-1.280488,1.036585,-5.062500,39.525002,-3.362500,0.0,1.000000,0.000000,0.000000,0.000000
1782117382.275178,1885640,-0.958984,0.035156,-0.289062,0.060976,-1.036585,0.975610,-5.062500,39.525002,-3.362500,0.0,1.000000,0.000000,0.000000,0.000000
1782117382.285178,1885650,-0.963379,0.033691,-0.291504,-0.426829,-0.731707,0.853659,-4.537500,40.075001,-3.287500,0.0,1.000000,0.000000,0.000000,0.000000
1782117382.295178,1885660,-0.964355,0.035156,-0.288086,-0.853659,-0.792683,0.548781,-4.537500,40.075001,-3.287500,0.0,1.000000,0.000000,0.000000,0.000000
1782117382.306178,1885671,-0.963379,0.032715,-0.283691,-0.792683,-0.975610,0.243902,-4.881250,39.718750,-3.287500,0.0,1.000000,0.000000,0.000000,0.000000
1782117382.315178,1885680,-0.961426,0.033203,-0.279785,-0.548781,-0.853659,0.243902,-4.881250,39.718750,-3.287500,0.0,1.000000,0.000000,0.000000,0.000000
1782117382.325178,1885690,-0.961426,0.032227,-0.278320,-0.243902,-0.914634,0.487805,-5.037500,39.543751,-3.400000,0.0,1.000000,0.000000,0.000000,0.000000
1782117382.335178,1885700,-0.961426,0.031250,-0.279785,-0.060976,-1.036585,0.792683,-5.037500,39.543751,-3.400000,0.0,1.000000,0.000000,0.000000,0.000000
1782117382.345178,1885710,-0.965820,0.031250,-0.281250,0.060976,-1.219512,0.975610,-5.056250,39.593750,-3.387500,0.0,1.000000,0.000000,0.000000,0.000000
1782117382.356178,1885721,-0.965332,0.032227,-0.281250,0.243902,-1.524390,1.158537,-5.056250,39.593750,-3.387500,0.0,1.000000,0.000000,0.000000,0.000000
1782117382.365178,1885730,-0.964355,0.032227,-0.281738,0.487805,-1.768293,1.158537,-5.018750,39.606251,-3.337500,0.0,1.000000,0.000000,0.000000,0.000000
1782117382.376178,1885741,-0.961914,0.033691,-0.280762,0.548781,-1.707317,1.036585,-5.018750,39.606251,-3.337500,0.0,1.000000,0.000000,0.000000,0.000000
1782117382.385178,1885750,-0.962891,0.033203,-0.279785,0.609756,-1.463415,0.914634,-5.081250,39.537502,-3.300000,0.0,1.000000,0.000000,0.000000,0.000000
1782117382.396178,1885761,-0.963379,0.033691,-0.280273,0.609756,-1.280488,0.853659,-5.081250,39.537502,-3.300000,0.0,1.000000,0.000000,0.000000,0.000000
1782117382.405178,1885770,-0.962402,0.031250,-0.278809,0.609756,-1.219512,0.853659,-5.025000,39.549999,-3.300000,0.0,1.000000,0.000000,0.000000,0.000000
1782117382.415178,1885780,-0.964355,0.028320,-0.278809,0.487805,-1.036585,0.853659,-5.025000,39.549999,-3.300000,0.0,1.000000,0.000000,0.000000,0.000000
1782117382.425178,1885790,-0.966797,0.027832,-0.279785,0.243902,-1.158537,0.853659,-5.131250,39.512501,-3.300000,0.0,1.000000,0.000000,0.000000,0.000000
1782117382.438178,1885803,-0.965332,0.030273,-0.277832,0.121951,-1.463415,0.792683,-5.000000,39.525002,-3.218750,0.0,1.000000,0.000000,0.000000,0.000000
1782117382.445178,1885810,-0.963867,0.032227,-0.276855,0.304878,-1.646341,0.853659,-5.000000,39.525002,-3.218750,0.0,1.000000,0.000000,0.000000,0.000000
1782117382.455178,1885820,-0.963867,0.033203,-0.276367,0.609756,-1.768293,1.036585,-5.000000,39.525002,-3.218750,0.0,1.000000,0.000000,0.000000,0.000000
1782117382.465178,1885830,-0.962891,0.034668,-0.275391,0.975610,-1.707317,1.219512,-5.100000,39.493752,-3.231250,0.0,1.000000,0.000000,0.000000,0.000000
1782117382.477178,1885842,-0.963867,0.031738,-0.277344,1.158537,-1.707317,1.341463,-5.100000,39.493752,-3.231250,0.0,1.000000,0.000000,0.000000,0.000000
1782117382.485178,1885850,-0.966309,0.026855,-0.276367,1.341463,-1.768293,1.341463,-5.062500,39.543751,-3.243750,0.0,1.000000,0.000000,0.000000,0.000000
1782117382.495178,1885860,-0.968750,0.024902,-0.276367,1.341463,-1.768293,1.219512,-5.062500,39.543751,-3.243750,0.0,1.000000,0.000000,0.000000,0.000000
1782117382.506178,1885871,-0.968262,0.025879,-0.275879,1.341463,-2.012195,1.158537,-5.118750,39.412502,-3.237500,0.0,1.000000,0.000000,0.000000,0.000000
1782117382.517178,1885882,-0.964355,0.028809,-0.273438,1.280488,-2.195122,1.158537,-5.137500,39.424999,-3.143750,0.0,1.000000,0.000000,0.000000,0.000000
1782117382.525178,1885890,-0.961426,0.033203,-0.273438,1.341463,-2.195122,1.280488,-5.137500,39.424999,-3.143750,0.0,1.000000,0.000000,0.000000,0.000000
1782117382.535178,1885900,-0.963867,0.033691,-0.275879,1.402439,-2.134146,1.524390,-5.043750,39.500000,-3.162500,0.0,1.000000,0.000000,0.000000,0.000000
1782117382.546178,1885911,-0.963867,0.035156,-0.277344,1.158537,-2.317073,1.585366,-5.043750,39.500000,-3.162500,0.0,1.000000,0.000000,0.000000,0.000000
1782117382.557178,1885922,-0.959473,0.031738,-0.280762,0.914634,-2.439024,1.463415,-5.000000,39.468750,-3.168750,0.0,1.000000,0.000000,0.000000,0.000000
1782117382.565178,1885930,-0.959961,0.030762,-0.283691,0.792683,-2.256098,1.341463,-5.000000,39.468750,-3.168750,0.0,1.000000,0.000000,0.000000,0.000000
1782117382.575178,1885940,-0.964844,0.030273,-0.282227,0.914634,-2.073171,1.341463,-4.968750,39.500000,-3.050000,0.0,1.000000,0.000000,0.000000,0.000000
1782117382.585178,1885950,-0.966797,0.025879,-0.277344,1.219512,-2.439024,1.341463,-4.968750,39.500000,-3.050000,0.0,1.000000,0.000000,0.000000,0.000000
1782117382.598178,1885963,-0.968750,0.025879,-0.275391,1.402439,-2.621951,1.219512,-4.987500,39.487499,-3.031250,0.0,1.000000,0.000000,0.000000,0.000000
1782117382.605178,1885970,-0.968750,0.025879,-0.275391,1.402439,-2.621951,1.219512,-4.987500,39.487499,-3.031250,0.0,1.000000,0.000000,0.000000,0.000000
1782117382.615178,1885980,-0.969238,0.025391,-0.269043,1.890244,-3.048780,1.280488,-4.887500,39.543751,-2.993750,0.0,1.000000,0.000000,0.000000,0.000000
1782117382.625178,1885990,-0.969727,0.023926,-0.266113,2.621951,-3.231707,1.524390,-4.887500,39.543751,-2.993750,0.0,1.000000,0.000000,0.000000,0.000000
1782117382.637178,1886002,-0.973633,0.020996,-0.266602,4.146341,-3.719512,2.134146,-5.000000,39.456249,-2.962500,0.0,1.000000,0.000000,0.000000,0.000000
1782117382.645178,1886010,-0.973633,0.020996,-0.266602,4.146341,-3.719512,2.134146,-5.000000,39.456249,-2.962500,0.0,1.000000,0.000000,0.000000,0.000000
1782117382.656178,1886021,-0.973633,0.023926,-0.268066,4.756098,-4.024390,2.317073,-4.912500,39.500000,-2.875000,0.0,1.000000,0.000000,0.000000,0.000000
1782117382.666178,1886031,-0.971680,0.029297,-0.264648,5.365854,-4.268293,2.500000,-4.912500,39.500000,-2.875000,0.0,1.000000,0.000000,0.000000,0.000000
1782117382.677178,1886042,-0.966797,0.033203,-0.261230,6.341464,-4.390244,2.682927,-4.912500,39.475002,-2.812500,0.0,1.000000,0.000000,0.000000,0.000000
1782117382.685178,1886050,-0.966797,0.033203,-0.261230,6.341464,-4.390244,2.682927,-4.912500,39.475002,-2.812500,0.0,1.000000,0.000000,0.000000,0.000000
1782117382.695178,1886060,-0.969238,0.032715,-0.262695,6.341464,-4.146341,2.743902,-4.793750,39.525002,-2.737500,0.0,1.000000,0.000000,0.000000,0.000000
1782117382.705178,1886070,-0.973633,0.035156,-0.263672,6.036585,-4.146341,2.560976,-4.793750,39.525002,-2.737500,0.0,1.000000,0.000000,0.000000,0.000000
1782117382.718178,1886083,-0.975098,0.044434,-0.255371,5.609756,-4.756098,2.195122,-4.856250,39.431252,-2.681250,0.0,1.000000,0.000000,0.000000,0.000000
1782117382.725178,1886090,-0.975098,0.044434,-0.255371,5.609756,-4.756098,2.195122,-4.856250,39.431252,-2.681250,0.0,1.000000,0.000000,0.000000,0.000000
1782117382.735178,1886100,-0.971680,0.044922,-0.251465,5.304878,-5.060976,2.073171,-4.787500,39.456249,-2.537500,0.0,1.000000,0.000000,0.000000,0.000000
1782117382.745178,1886110,-0.970215,0.041504,-0.251465,4.573171,-4.817073,2.073171,-4.787500,39.456249,-2.537500,0.0,1.000000,0.000000,0.000000,0.000000
1782117382.757178,1886122,-0.972656,0.040039,-0.254883,3.597561,-4.878049,1.768293,-4.856250,39.337502,-2.468750,0.0,1.000000,0.000000,0.000000,0.000000
1782117382.766178,1886131,-0.972168,0.040527,-0.254883,3.475610,-4.756098,1.585366,-4.856250,39.337502,-2.468750,0.0,1.000000,0.000000,0.000000,0.000000
1782117382.775178,1886140,-0.971680,0.038086,-0.249512,4.024390,-4.878049,1.585366,-4.487500,39.674999,-2.306250,0.0,1.000000,0.000000,0.000000,0.000000
1782117382.785178,1886150,-0.972168,0.033691,-0.246582,4.268293,-5.060976,1.524390,-4.487500,39.674999,-2.306250,0.0,1.000000,0.000000,0.000000,0.000000
1782117382.797178,1886162,-0.971680,0.030273,-0.245605,4.573171,-5.060976,1.585366,-4.787500,39.350002,-2.331250,0.0,1.000000,0.000000,0.000000,0.000000
1782117382.805178,1886170,-0.975586,0.028809,-0.243652,4.817073,-5.182927,1.829268,-4.787500,39.350002,-2.331250,0.0,1.000000,0.000000,0.000000,0.000000
1782117382.815178,1886180,-0.975098,0.029297,-0.242676,5.060976,-5.487805,1.951220,-4.712500,39.412502,-2.187500,0.0,1.000000,0.000000,0.000000,0.000000
1782117382.826178,1886191,-0.971680,0.028809,-0.241211,5.670732,-5.609756,1.951220,-4.781250,39.299999,-2.112500,0.0,1.000000,0.000000,0.000000,0.000000
1782117382.835178,1886200,-0.971191,0.028320,-0.244141,6.036585,-5.304878,2.134146,-4.781250,39.299999,-2.112500,0.0,1.000000,0.000000,0.000000,0.000000
1782117382.846178,1886211,-0.967773,0.029297,-0.249023,6.158537,-5.060976,2.256098,-4.662500,39.368752,-2.037500,0.0,1.000000,0.000000,0.000000,0.000000
1782117382.855178,1886220,-0.963867,0.033691,-0.254883,5.731708,-4.451220,2.317073,-4.662500,39.368752,-2.037500,0.0,1.000000,0.000000,0.000000,0.000000
1782117382.866178,1886231,-0.960449,0.040527,-0.261230,4.939024,-3.597561,2.195122,-4.668750,39.325001,-1.987500,0.0,1.000000,0.000000,0.000000,0.000000
1782117382.875178,1886240,-0.956543,0.043945,-0.267578,3.963415,-2.743902,1.951220,-4.668750,39.325001,-1.987500,0.0,1.000000,0.000000,0.000000,0.000000
1782117382.885178,1886250,-0.957520,0.045410,-0.270508,2.926829,-1.768293,1.646341,-4.618750,39.418751,-1.868750,0.0,1.000000,0.000000,0.000000,0.000000
1782117382.896178,1886261,-0.959473,0.044434,-0.270020,2.012195,-1.036585,1.219512,-4.618750,39.418751,-1.868750,0.0,1.000000,0.000000,0.000000,0.000000
1782117382.905178,1886270,-0.958008,0.041992,-0.263672,1.585366,-0.487805,0.853659,-4.600000,39.343750,-1.881250,0.0,1.000000,0.000000,0.000000,0.000000
1782117382.919178,1886284,-0.960938,0.038574,-0.258301,1.219512,0.182927,0.670732,-4.600000,39.343750,-1.881250,0.0,1.000000,0.000000,0.000000,0.000000
1782117382.926178,1886291,-0.966309,0.036621,-0.257812,0.487805,0.670732,0.609756,-4.662500,39.362499,-1.906250,0.0,1.000000,0.000000,0.000000,0.000000
1782117382.935178,1886300,-0.968262,0.039062,-0.253906,-0.365854,0.853659,0.670732,-4.662500,39.362499,-1.906250,0.0,1.000000,0.000000,0.000000,0.000000
1782117382.945178,1886310,-0.967285,0.039062,-0.252441,-0.792683,1.036585,0.914634,-4.662500,39.318752,-1.881250,0.0,1.000000,0.000000,0.000000,0.000000
1782117382.955178,1886320,-0.968750,0.040527,-0.250977,-0.914634,1.219512,1.219512,-4.662500,39.318752,-1.881250,0.0,1.000000,0.000000,0.000000,0.000000
1782117382.965178,1886330,-0.968262,0.038574,-0.253418,-0.731707,1.341463,1.402439,-4.606250,39.343750,-1.975000,0.0,1.000000,0.000000,0.000000,0.000000
1782117382.975178,1886340,-0.968750,0.035645,-0.258789,-0.426829,1.524390,1.341463,-4.606250,39.343750,-1.975000,0.0,1.000000,0.000000,0.000000,0.000000
1782117382.985178,1886350,-0.971191,0.034180,-0.262695,0.000000,1.707317,1.219512,-4.612500,39.400002,-1.937500,0.0,1.000000,0.000000,0.000000,0.000000
1782117382.995178,1886360,-0.971680,0.033203,-0.262207,0.426829,1.829268,1.036585,-4.612500,39.400002,-1.937500,0.0,1.000000,0.000000,0.000000,0.000000
1782117383.006178,1886371,-0.970703,0.033203,-0.261230,0.792683,1.829268,0.792683,-4.643750,39.343750,-1.975000,0.0,1.000000,0.000000,0.000000,0.000000
1782117383.015178,1886380,-0.969727,0.034180,-0.260254,0.792683,2.012195,0.609756,-4.643750,39.343750,-1.975000,0.0,1.000000,0.000000,0.000000,0.000000
1782117383.025178,1886390,-0.966309,0.038086,-0.260742,0.365854,2.256098,0.304878,-4.606250,39.437500,-1.981250,0.0,1.000000,0.000000,0.000000,0.000000
1782117383.035178,1886400,-0.964355,0.040039,-0.261230,-0.243902,2.621951,0.243902,-4.606250,39.437500,-1.981250,0.0,1.000000,0.000000,0.000000,0.000000
1782117383.045178,1886410,-0.962402,0.041992,-0.261719,-1.036585,2.926829,0.182927,-4.737500,39.337502,-2.081250,0.0,1.000000,0.000000,0.000000,0.000000
1782117383.056178,1886421,-0.961914,0.045410,-0.263184,-2.012195,3.353659,0.243902,-4.737500,39.337502,-2.081250,0.0,1.000000,0.000000,0.000000,0.000000
1782117383.065178,1886430,-0.962891,0.048828,-0.266602,-2.926829,3.658537,0.243902,-4.781250,39.368752,-2.043750,0.0,1.000000,0.000000,0.000000,0.000000
1782117383.076178,1886441,-0.963867,0.049805,-0.267578,-3.536585,3.963415,0.365854,-4.781250,39.368752,-2.043750,0.0,1.000000,0.000000,0.000000,0.000000
1782117383.087178,1886452,-0.962402,0.046875,-0.271484,-3.719512,3.963415,0.304878,-4.687500,39.325001,-2.218750,0.0,1.000000,0.000000,0.000000,0.000000
1782117383.095178,1886460,-0.966309,0.042480,-0.273926,-3.475610,4.207317,0.182927,-4.687500,39.325001,-2.218750,0.0,1.000000,0.000000,0.000000,0.000000
1782117383.105178,1886470,-0.970703,0.040039,-0.270508,-3.048780,4.024390,0.121951,-4.700000,39.368752,-2.212500,0.0,1.000000,0.000000,0.000000,0.000000
1782117383.115178,1886480,-0.971680,0.039551,-0.263672,-2.134146,3.414634,0.121951,-4.787500,39.387501,-2.312500,0.0,1.000000,0.000000,0.000000,0.000000
1782117383.125178,1886490,-0.973633,0.037598,-0.255859,-1.402439,2.926829,0.365854,-4.787500,39.387501,-2.312500,0.0,1.000000,0.000000,0.000000,0.000000
1782117383.135178,1886500,-0.976562,0.033691,-0.253418,-0.975610,2.317073,0.487805,-4.650000,39.518749,-2.337500,0.0,1.000000,0.000000,0.000000,0.000000
1782117383.145178,1886510,-0.974609,0.032227,-0.252930,-0.853659,1.829268,0.548781,-4.650000,39.518749,-2.337500,0.0,1.000000,0.000000,0.000000,0.000000
1782117383.155178,1886520,-0.972656,0.029785,-0.255371,-0.670732,1.585366,0.487805,-4.668750,39.456249,-2.412500,0.0,1.000000,0.000000,0.000000,0.000000
1782117383.166178,1886531,-0.974121,0.029785,-0.259766,-0.548781,1.524390,0.426829,-4.668750,39.456249,-2.412500,0.0,1.000000,0.000000,0.000000,0.000000
1782117383.175178,1886540,-0.974609,0.032715,-0.263184,-0.426829,1.524390,0.426829,-4.375000,39.818752,-2.393750,0.0,1.000000,0.000000,0.000000,0.000000
1782117383.185178,1886550,-0.978516,0.039062,-0.261719,-0.365854,1.219512,0.487805,-4.375000,39.818752,-2.393750,0.0,1.000000,0.000000,0.000000,0.000000
1782117383.195178,1886560,-0.974121,0.044434,-0.261230,-0.487805,0.670732,0.487805,-4.675000,39.456249,-2.462500,0.0,1.000000,0.000000,0.000000,0.000000
1782117383.205178,1886570,-0.971191,0.046387,-0.259277,-0.365854,0.487805,0.426829,-4.675000,39.456249,-2.462500,0.0,1.000000,0.000000,0.000000,0.000000
1782117383.215178,1886580,-0.969238,0.047363,-0.258789,-0.426829,0.487805,0.487805,-4.425000,39.799999,-2.418750,0.0,1.000000,0.000000,0.000000,0.000000
1782117383.225178,1886590,-0.965820,0.047852,-0.259766,-0.670732,0.426829,0.548781,-4.425000,39.799999,-2.418750,0.0,1.000000,0.000000,0.000000,0.000000
1782117383.235178,1886600,-0.964355,0.042969,-0.260742,-1.036585,0.548781,0.670732,-4.731250,39.475002,-2.518750,0.0,1.000000,0.000000,0.000000,0.000000
1782117383.246178,1886611,-0.964844,0.039062,-0.263184,-1.585366,0.792683,0.609756,-4.731250,39.475002,-2.518750,0.0,1.000000,0.000000,0.000000,0.000000
1782117383.255178,1886620,-0.966309,0.035645,-0.269531,-2.012195,0.792683,0.548781,-4.400000,39.806252,-2.487500,0.0,1.000000,0.000000,0.000000,0.000000
1782117383.265178,1886630,-0.969238,0.032715,-0.274414,-2.012195,0.853659,0.426829,-4.400000,39.806252,-2.487500,0.0,1.000000,0.000000,0.000000,0.000000
1782117383.276178,1886641,-0.971191,0.031250,-0.270020,-1.585366,0.670732,0.426829,-4.631250,39.581249,-2.487500,0.0,1.000000,0.000000,0.000000,0.000000
1782117383.286178,1886651,-0.966309,0.030762,-0.264648,-1.219512,0.548781,0.121951,-4.631250,39.581249,-2.487500,0.0,1.000000,0.000000,0.000000,0.000000
1782117383.295178,1886660,-0.964844,0.028320,-0.262695,-1.158537,0.609756,0.000000,-4.750000,39.493752,-2.525000,0.0,1.000000,0.000000,0.000000,0.000000
1782117383.305178,1886670,-0.965820,0.026367,-0.264160,-0.853659,0.975610,0.243902,-4.750000,39.493752,-2.525000,0.0,1.000000,0.000000,0.000000,0.000000
1782117383.315178,1886680,-0.970215,0.028320,-0.268066,-0.365854,0.792683,0.426829,-4.781250,39.393749,-2.587500,0.0,1.000000,0.000000,0.000000,0.000000
1782117383.326178,1886691,-0.968750,0.030273,-0.268066,0.060976,0.487805,0.609756,-4.781250,39.393749,-2.587500,0.0,1.000000,0.000000,0.000000,0.000000
1782117383.335178,1886700,-0.969238,0.031250,-0.270020,0.304878,0.243902,0.731707,-4.750000,39.481251,-2.587500,0.0,1.000000,0.000000,0.000000,0.000000
1782117383.345178,1886710,-0.970215,0.035156,-0.270996,0.365854,0.121951,0.792683,-4.750000,39.481251,-2.587500,0.0,1.000000,0.000000,0.000000,0.000000
1782117383.355178,1886720,-0.971680,0.039062,-0.270508,0.609756,-0.182927,0.731707,-4.850000,39.393749,-2.637500,0.0,1.000000,0.000000,0.000000,0.000000
1782117383.365178,1886730,-0.969238,0.042480,-0.265137,0.914634,-0.426829,0.670732,-4.850000,39.393749,-2.637500,0.0,1.000000,0.000000,0.000000,0.000000
1782117383.375178,1886740,-0.965820,0.041504,-0.263672,0.914634,-0.365854,0.609756,-4.618750,39.612499,-2.562500,0.0,1.000000,0.000000,0.000000,0.000000
1782117383.385178,1886750,-0.964355,0.040039,-0.265625,0.792683,-0.243902,0.609756,-4.618750,39.612499,-2.562500,0.0,1.000000,0.000000,0.000000,0.000000
1782117383.395178,1886760,-0.965332,0.040039,-0.268066,0.365854,-0.060976,0.548781,-4.793750,39.424999,-2.612500,0.0,1.000000,0.000000,0.000000,0.000000
1782117383.405178,1886770,-0.964844,0.039062,-0.269043,-0.243902,0.000000,0.426829,-4.725000,39.512501,-2.562500,0.0,1.000000,0.000000,0.000000,0.000000
1782117383.415178,1886780,-0.964844,0.037109,-0.270508,-0.670732,0.000000,0.426829,-4.725000,39.512501,-2.562500,0.0,1.000000,0.000000,0.000000,0.000000
1782117383.425178,1886790,-0.967285,0.036133,-0.270996,-0.975610,0.060976,0.365854,-4.850000,39.437500,-2.643750,0.0,1.000000,0.000000,0.000000,0.000000
1782117383.435178,1886800,-0.967285,0.036133,-0.270996,-0.975610,0.060976,0.365854,-4.850000,39.437500,-2.643750,0.0,1.000000,0.000000,0.000000,0.000000
