Unix_Time_s,IMU1_RefTime,ax_g,ay_g,az_g,gx_dps,gy_dps,gz_dps,mx_uT,my_uT,mz_uT,temp_C,qw,qx,qy,qz
1782117376.967178,1876390,0.895508,-0.065430,-0.459473,-1.036585,5.243903,0.670732,16.837500,-36.137501,0.475000,0.0,1.000000,0.000000,0.000000,0.000000
1782117376.976178,1876399,0.883789,-0.058594,-0.461914,1.707317,4.573171,0.365854,16.837500,-36.137501,0.475000,0.0,1.000000,0.000000,0.000000,0.000000
1782117376.986178,1876409,0.881836,-0.040039,-0.449707,4.024390,3.780488,-0.304878,16.781250,-36.068752,0.450000,0.0,1.000000,0.000000,0.000000,0.000000
1782117376.996178,1876419,0.883789,-0.018066,-0.432617,4.939024,2.926829,-0.975610,16.781250,-36.068752,0.450000,0.0,1.000000,0.000000,0.000000,0.000000
1782117377.009178,1876432,0.891113,0.004883,-0.415527,4.329268,2.134146,-1.463415,16.843750,-36.125000,0.381250,0.0,1.000000,0.000000,0.000000,0.000000
1782117377.017178,1876440,0.895020,0.010254,-0.410156,2.804878,1.585366,-1.646341,16.843750,-36.125000,0.381250,0.0,1.000000,0.000000,0.000000,0.000000
1782117377.026178,1876449,0.896973,0.011230,-0.414551,1.341463,1.036585,-1.585366,16.906250,-36.100002,0.431250,0.0,1.000000,0.000000,0.000000,0.000000
1782117377.036178,1876459,0.903809,0.013672,-0.422363,0.426829,0.365854,-1.341463,16.906250,-36.100002,0.431250,0.0,1.000000,0.000000,0.000000,0.000000
1782117377.048178,1876471,0.906738,0.011719,-0.426270,-0.487805,-0.182927,-0.304878,16.900000,-35.975002,0.475000,0.0,1.000000,0.000000,0.000000,0.000000
1782117377.057178,1876480,0.906738,0.011719,-0.426270,-0.487805,-0.182927,-0.304878,16.900000,-35.975002,0.475000,0.0,1.000000,0.000000,0.000000,0.000000
1782117377.066178,1876489,0.905762,0.004883,-0.420898,-0.670732,-0.487805,0.304878,16.856251,-36.037502,0.462500,0.0,1.000000,0.000000,0.000000,0.000000
1782117377.077178,1876500,0.908203,-0.008301,-0.415039,-0.914634,-0.853659,0.731707,16.856251,-36.037502,0.462500,0.0,1.000000,0.000000,0.000000,0.000000
1782117377.089178,1876512,0.916992,-0.023438,-0.413086,-1.524390,-0.792683,0.731707,16.825001,-36.112499,0.475000,0.0,1.000000,0.000000,0.000000,0.000000
1782117377.096178,1876519,0.916992,-0.023438,-0.413086,-1.524390,-0.792683,0.731707,16.825001,-36.112499,0.475000,0.0,1.000000,0.000000,0.000000,0.000000
1782117377.106178,1876529,0.916992,-0.029297,-0.412109,-1.280488,-0.426829,0.487805,16.875000,-36.043751,0.500000,0.0,1.000000,0.000000,0.000000,0.000000
1782117377.117178,1876540,0.921875,-0.029297,-0.412598,-0.914634,0.000000,0.060976,16.875000,-36.043751,0.500000,0.0,1.000000,0.000000,0.000000,0.000000
1782117377.129178,1876552,0.923340,-0.027832,-0.409668,0.548781,1.341463,-0.426829,16.818750,-36.043751,0.437500,0.0,1.000000,0.000000,0.000000,0.000000
1782117377.136178,1876559,0.923340,-0.027832,-0.409668,0.548781,1.341463,-0.426829,16.818750,-36.043751,0.437500,0.0,1.000000,0.000000,0.000000,0.000000
1782117377.146178,1876569,0.918457,-0.021484,-0.409668,0.975610,1.707317,-0.426829,16.900000,-36.025002,0.443750,0.0,1.000000,0.000000,0.000000,0.000000
1782117377.156178,1876579,0.906250,-0.012695,-0.418945,0.609756,1.707317,-0.609756,16.900000,-36.025002,0.443750,0.0,1.000000,0.000000,0.000000,0.000000
1782117377.168178,1876591,0.909668,-0.016602,-0.422363,0.731707,1.341463,-0.609756,16.875000,-36.150002,0.550000,0.0,1.000000,0.000000,0.000000,0.000000
1782117377.176178,1876599,0.906738,-0.022461,-0.421875,0.731707,1.219512,-0.243902,16.875000,-36.150002,0.550000,0.0,1.000000,0.000000,0.000000,0.000000
1782117377.186178,1876609,0.897461,-0.027832,-0.416992,0.731707,1.158537,0.304878,17.100000,-35.687500,0.312500,0.0,1.000000,0.000000,0.000000,0.000000
1782117377.196178,1876619,0.888672,-0.028809,-0.415039,0.487805,0.487805,0.670732,17.100000,-35.687500,0.312500,0.0,1.000000,0.000000,0.000000,0.000000
1782117377.208178,1876631,0.890625,-0.024902,-0.417969,-0.487805,-0.182927,0.609756,16.875000,-36.125000,0.562500,0.0,1.000000,0.000000,0.000000,0.000000
1782117377.216178,1876639,0.889160,-0.018555,-0.422363,-2.073171,-0.670732,0.609756,16.875000,-36.125000,0.562500,0.0,1.000000,0.000000,0.000000,0.000000
1782117377.227178,1876650,0.890625,-0.012207,-0.426270,-3.841464,-1.585366,0.548781,16.893751,-36.056252,0.556250,0.0,1.000000,0.000000,0.000000,0.000000
1782117377.236178,1876659,0.898438,-0.006836,-0.424805,-5.121951,-2.439024,0.548781,16.893751,-36.056252,0.556250,0.0,1.000000,0.000000,0.000000,0.000000
1782117377.250178,1876673,0.902344,-0.002441,-0.423340,-6.097561,-2.865854,0.670732,16.793751,-36.174999,0.593750,0.0,1.000000,0.000000,0.000000,0.000000
1782117377.257178,1876680,0.900391,0.000488,-0.420410,-7.012195,-3.353659,0.792683,16.793751,-36.174999,0.593750,0.0,1.000000,0.000000,0.000000,0.000000
1782117377.267178,1876690,0.898926,-0.001953,-0.416504,-7.500000,-3.841464,0.914634,16.875000,-36.100002,0.562500,0.0,1.000000,0.000000,0.000000,0.000000
1782117377.276178,1876699,0.905762,-0.008789,-0.412598,-7.439024,-4.329268,0.792683,16.875000,-36.100002,0.562500,0.0,1.000000,0.000000,0.000000,0.000000
1782117377.289178,1876712,0.913574,-0.022461,-0.408691,-7.012195,-4.146341,0.609756,16.900000,-36.100002,0.550000,0.0,1.000000,0.000000,0.000000,0.000000
1782117377.296178,1876719,0.918945,-0.039551,-0.406738,-5.914634,-3.780488,0.365854,16.900000,-36.100002,0.550000,0.0,1.000000,0.000000,0.000000,0.000000
1782117377.306178,1876729,0.922363,-0.055176,-0.407715,-4.268293,-3.231707,0.121951,16.881250,-36.112499,0.506250,0.0,1.000000,0.000000,0.000000,0.000000
1782117377.316178,1876739,0.926270,-0.066406,-0.416016,-2.195122,-2.743902,-0.243902,16.881250,-36.112499,0.506250,0.0,1.000000,0.000000,0.000000,0.000000
1782117377.326178,1876749,0.927246,-0.065918,-0.427246,-0.243902,-2.195122,-0.792683,16.893751,-36.118752,0.525000,0.0,1.000000,0.000000,0.000000,0.000000
1782117377.336178,1876759,0.921387,-0.059082,-0.437500,1.158537,-1.463415,-1.036585,16.893751,-36.118752,0.525000,0.0,1.000000,0.000000,0.000000,0.000000
1782117377.346178,1876769,0.906738,-0.044922,-0.443848,2.134146,-1.158537,-1.341463,16.950001,-35.993752,0.425000,0.0,1.000000,0.000000,0.000000,0.000000
1782117377.356178,1876779,0.895996,-0.033203,-0.447266,2.804878,-1.280488,-1.341463,16.950001,-35.993752,0.425000,0.0,1.000000,0.000000,0.000000,0.000000
1782117377.368178,1876791,0.890625,-0.020508,-0.446289,3.414634,-1.524390,-1.280488,16.943750,-36.081249,0.450000,0.0,1.000000,0.000000,0.000000,0.000000
1782117377.376178,1876799,0.895020,-0.008301,-0.443848,3.780488,-2.134146,-1.402439,16.943750,-36.081249,0.450000,0.0,1.000000,0.000000,0.000000,0.000000
1782117377.386178,1876809,0.903320,0.004883,-0.440430,3.048780,-2.073171,-1.158537,17.018751,-35.831249,0.225000,0.0,1.000000,0.000000,0.000000,0.000000
1782117377.396178,1876819,0.902832,0.015625,-0.434570,1.524390,-1.646341,-0.853659,17.018751,-35.831249,0.225000,0.0,1.000000,0.000000,0.000000,0.000000
1782117377.407178,1876830,0.901367,0.023438,-0.426758,-0.365854,-1.585366,-0.487805,16.887501,-36.031250,0.393750,0.0,1.000000,0.000000,0.000000,0.000000
1782117377.417178,1876840,0.901367,0.031738,-0.421875,-3.048780,-1.646341,0.000000,16.887501,-36.031250,0.393750,0.0,1.000000,0.000000,0.000000,0.000000
1782117377.427178,1876850,0.898926,0.034668,-0.417480,-6.280488,-1.585366,0.548781,16.900000,-36.087502,0.325000,0.0,1.000000,0.000000,0.000000,0.000000
1782117377.436178,1876859,0.895020,0.026855,-0.411621,-9.024390,-1.646341,0.853659,16.900000,-36.087502,0.325000,0.0,1.000000,0.000000,0.000000,0.000000
1782117377.447178,1876870,0.895996,0.009277,-0.409180,-10.975610,-1.890244,1.036585,16.862501,-36.162502,0.506250,0.0,1.000000,0.000000,0.000000,0.000000
1782117377.457178,1876880,0.904297,-0.008789,-0.412598,-12.439025,-2.012195,1.219512,16.862501,-36.162502,0.506250,0.0,1.000000,0.000000,0.000000,0.000000
1782117377.467178,1876890,0.910645,-0.028809,-0.417480,-13.170732,-1.341463,1.585366,16.856251,-36.143749,0.525000,0.0,1.000000,0.000000,0.000000,0.000000
1782117377.476178,1876899,0.913574,-0.044434,-0.424805,-12.987805,-0.670732,1.890244,16.856251,-36.143749,0.525000,0.0,1.000000,0.000000,0.000000,0.000000
1782117377.486178,1876909,0.911621,-0.053223,-0.433594,-11.890244,-0.121951,2.256098,16.912500,-36.100002,0.612500,0.0,1.000000,0.000000,0.000000,0.000000
1782117377.496178,1876919,0.909180,-0.055176,-0.440918,-10.243902,0.426829,2.317073,16.912500,-36.100002,0.612500,0.0,1.000000,0.000000,0.000000,0.000000
1782117377.506178,1876929,0.904297,-0.053223,-0.442383,-8.231708,0.853659,2.195122,16.931250,-36.025002,0.625000,0.0,1.000000,0.000000,0.000000,0.000000
1782117377.516178,1876939,0.902344,-0.048828,-0.441895,-6.463415,1.219512,1.951220,16.931250,-36.025002,0.625000,0.0,1.000000,0.000000,0.000000,0.000000
1782117377.526178,1876949,0.899414,-0.043457,-0.445312,-5.060976,1.585366,1.585366,16.837500,-36.143749,0.725000,0.0,1.000000,0.000000,0.000000,0.000000
1782117377.537178,1876960,0.893555,-0.036133,-0.445801,-3.780488,2.012195,1.158537,16.837500,-36.143749,0.725000,0.0,1.000000,0.000000,0.000000,0.000000
1782117377.546178,1876969,0.889160,-0.025879,-0.446289,-2.621951,2.073171,0.670732,16.781250,-36.162502,0.775000,0.0,1.000000,0.000000,0.000000,0.000000
1782117377.556178,1876979,0.889648,-0.016602,-0.448730,-1.524390,1.829268,0.121951,16.781250,-36.162502,0.775000,0.0,1.000000,0.000000,0.000000,0.000000
1782117377.566178,1876989,0.893066,-0.005371,-0.449707,-0.731707,1.707317,-0.304878,16.781250,-36.168751,0.800000,0.0,1.000000,0.000000,0.000000,0.000000
1782117377.576178,1876999,0.886719,-0.000488,-0.448730,-0.182927,1.829268,-0.487805,16.781250,-36.168751,0.800000,0.0,1.000000,0.000000,0.000000,0.000000
1782117377.586178,1877009,0.878418,0.001953,-0.446777,0.000000,1.402439,-0.792683,16.800001,-36.162502,0.787500,0.0,1.000000,0.000000,0.000000,0.000000
1782117377.596178,1877019,0.874512,-0.002930,-0.447266,-0.121951,0.975610,-1.036585,16.800001,-36.162502,0.787500,0.0,1.000000,0.000000,0.000000,0.000000
1782117377.606178,1877029,0.875977,-0.012207,-0.450684,-0.182927,0.426829,-1.280488,16.781250,-36.193752,0.887500,0.0,1.000000,0.000000,0.000000,0.000000
1782117377.616178,1877039,0.881836,-0.025879,-0.455566,-0.060976,0.000000,-1.524390,16.781250,-36.193752,0.887500,0.0,1.000000,0.000000,0.000000,0.000000
1782117377.626178,1877049,0.880859,-0.034668,-0.466309,0.060976,-0.304878,-1.646341,16.850000,-36.131252,0.812500,0.0,1.000000,0.000000,0.000000,0.000000
1782117377.636178,1877059,0.877441,-0.032227,-0.479492,0.182927,-0.914634,-1.829268,16.850000,-36.131252,0.812500,0.0,1.000000,0.000000,0.000000,0.000000
1782117377.646178,1877069,0.876465,-0.031250,-0.483887,0.914634,-1.646341,-2.073171,16.856251,-36.137501,0.775000,0.0,1.000000,0.000000,0.000000,0.000000
1782117377.656178,1877079,0.874512,-0.031250,-0.481934,2.073171,-1.829268,-2.195122,16.856251,-36.137501,0.775000,0.0,1.000000,0.000000,0.000000,0.000000
1782117377.666178,1877089,0.877441,-0.030273,-0.477051,3.536585,-2.560976,-2.317073,16.812500,-36.137501,0.775000,0.0,1.000000,0.000000,0.000000,0.000000
1782117377.676178,1877099,0.889648,-0.022461,-0.463867,4.695122,-2.987805,-2.439024,16.812500,-36.137501,0.775000,0.0,1.000000,0.000000,0.000000,0.000000
1782117377.686178,1877109,0.900391,-0.013184,-0.450195,5.060976,-2.804878,-2.256098,16.806250,-36.168751,0.662500,0.0,1.000000,0.000000,0.000000,0.000000
1782117377.696178,1877119,0.907227,-0.000488,-0.438477,4.878049,-2.317073,-2.012195,16.806250,-36.168751,0.662500,0.0,1.000000,0.000000,0.000000,0.000000
1782117377.706178,1877129,0.908691,0.015137,-0.429199,4.207317,-1.768293,-1.951220,16.875000,-36.150002,0.687500,0.0,1.000000,0.000000,0.000000,0.000000
1782117377.716178,1877139,0.905273,0.028809,-0.423828,3.292683,-1.341463,-1.890244,16.875000,-36.150002,0.687500,0.0,1.000000,0.000000,0.000000,0.000000
1782117377.726178,1877149,0.901855,0.036621,-0.422852,1.646341,-1.097561,-1.890244,16.812500,-36.118752,0.600000,0.0,1.000000,0.000000,0.000000,0.000000
1782117377.736178,1877159,0.901855,0.033691,-0.424805,-0.121951,-1.280488,-1.890244,16.812500,-36.118752,0.600000,0.0,1.000000,0.000000,0.000000,0.000000
1782117377.747178,1877170,0.905762,0.021973,-0.429199,-1.707317,-1.463415,-1.829268,16.881250,-36.106251,0.543750,0.0,1.000000,0.000000,0.000000,0.000000
1782117377.756178,1877179,0.908691,0.009766,-0.433594,-2.743902,-1.036585,-1.585366,16.881250,-36.106251,0.543750,0.0,1.000000,0.000000,0.000000,0.000000
1782117377.766178,1877189,0.907227,-0.002441,-0.436035,-3.048780,-0.731707,-1.219512,16.868750,-36.131252,0.662500,0.0,1.000000,0.000000,0.000000,0.000000
1782117377.776178,1877199,0.906738,-0.008789,-0.435059,-3.048780,-0.548781,-0.914634,16.868750,-36.131252,0.662500,0.0,1.000000,0.000000,0.000000,0.000000
1782117377.786178,1877209,0.907715,-0.010742,-0.437988,-2.926829,-0.243902,-0.670732,16.862501,-36.056252,0.631250,0.0,1.000000,0.000000,0.000000,0.000000
1782117377.796178,1877219,0.907715,-0.012207,-0.440918,-2.682927,-0.121951,-0.731707,16.862501,-36.056252,0.631250,0.0,1.000000,0.000000,0.000000,0.000000
1782117377.806178,1877229,0.906738,-0.013184,-0.441406,-2.682927,0.182927,-0.609756,16.843750,-36.150002,0.712500,0.0,1.000000,0.000000,0.000000,0.000000
1782117377.816178,1877239,0.901855,-0.014648,-0.441895,-2.621951,0.365854,-0.487805,16.843750,-36.150002,0.712500,0.0,1.000000,0.000000,0.000000,0.000000
1782117377.826178,1877249,0.896973,-0.017090,-0.439453,-2.256098,0.243902,-0.487805,16.887501,-36.137501,0.656250,0.0,1.000000,0.000000,0.000000,0.000000
1782117377.836178,1877259,0.899414,-0.017090,-0.434570,-1.768293,0.121951,-0.487805,16.887501,-36.137501,0.656250,0.0,1.000000,0.000000,0.000000,0.000000
1782117377.846178,1877269,0.901367,-0.016602,-0.432617,-1.280488,0.182927,-0.670732,16.831251,-36.162502,0.731250,0.0,1.000000,0.000000,0.000000,0.000000
1782117377.856178,1877279,0.904297,-0.010254,-0.432129,-0.792683,0.243902,-0.792683,16.831251,-36.162502,0.731250,0.0,1.000000,0.000000,0.000000,0.000000
1782117377.867178,1877290,0.904785,-0.004395,-0.432617,-0.365854,0.365854,-0.914634,16.868750,-36.087502,0.731250,0.0,1.000000,0.000000,0.000000,0.000000
1782117377.877178,1877300,0.903320,-0.002441,-0.430664,0.060976,0.487805,-0.975610,16.868750,-36.087502,0.731250,0.0,1.000000,0.000000,0.000000,0.000000
1782117377.886178,1877309,0.902832,0.000488,-0.429199,0.243902,0.548781,-0.975610,16.868750,-36.181252,0.768750,0.0,1.000000,0.000000,0.000000,0.000000
1782117377.896178,1877319,0.903809,-0.000977,-0.427734,0.182927,0.609756,-1.097561,16.868750,-36.181252,0.768750,0.0,1.000000,0.000000,0.000000,0.000000
1782117377.906178,1877329,0.906738,-0.004395,-0.427246,0.182927,0.731707,-1.219512,16.887501,-36.093750,0.737500,0.0,1.000000,0.000000,0.000000,0.000000
1782117377.916178,1877339,0.906250,-0.007324,-0.429199,-0.182927,0.792683,-1.219512,16.887501,-36.093750,0.737500,0.0,1.000000,0.000000,0.000000,0.000000
1782117377.926178,1877349,0.904785,-0.009277,-0.432129,-0.426829,0.731707,-1.219512,16.906250,-36.125000,0.743750,0.0,1.000000,0.000000,0.000000,0.000000
1782117377.936178,1877359,0.898926,-0.014648,-0.435059,-0.365854,0.853659,-1.158537,16.906250,-36.125000,0.743750,0.0,1.000000,0.000000,0.000000,0.000000
1782117377.946178,1877369,0.895020,-0.012695,-0.437012,-0.243902,0.426829,-1.036585,16.943750,-36.056252,0.725000,0.0,1.000000,0.000000,0.000000,0.000000
1782117377.958178,1877381,0.897949,-0.009277,-0.438965,0.000000,0.182927,-1.097561,16.943750,-36.056252,0.725000,0.0,1.000000,0.000000,0.000000,0.000000
1782117377.967178,1877390,0.899414,-0.009277,-0.439453,0.182927,0.121951,-1.158537,16.900000,-36.012501,0.762500,0.0,1.000000,0.000000,0.000000,0.000000
1782117377.976178,1877399,0.900879,-0.009277,-0.438477,0.548781,0.304878,-1.280488,16.900000,-36.012501,0.762500,0.0,1.000000,0.000000,0.000000,0.000000
1782117377.986178,1877409,0.898926,-0.008301,-0.435059,0.853659,0.548781,-1.280488,17.093750,-35.837502,0.625000,0.0,1.000000,0.000000,0.000000,0.000000
1782117377.997178,1877420,0.895996,-0.005859,-0.433594,1.158537,0.548781,-1.402439,17.093750,-35.837502,0.625000,0.0,1.000000,0.000000,0.000000,0.000000
1782117378.006178,1877429,0.895996,-0.005371,-0.432617,1.463415,0.487805,-1.585366,16.918751,-36.100002,0.850000,0.0,1.000000,0.000000,0.000000,0.000000
1782117378.018178,1877441,0.897949,-0.002930,-0.434082,1.707317,0.487805,-1.890244,16.918751,-36.100002,0.850000,0.0,1.000000,0.000000,0.000000,0.000000
1782117378.029178,1877452,0.901855,-0.002441,-0.433105,2.134146,0.487805,-2.073171,16.968750,-36.031250,0.768750,0.0,1.000000,0.000000,0.000000,0.000000
1782117378.036178,1877459,0.901855,-0.002441,-0.433105,2.134146,0.487805,-2.073171,16.968750,-36.031250,0.768750,0.0,1.000000,0.000000,0.000000,0.000000
1782117378.046178,1877469,0.900879,-0.001953,-0.432617,2.317073,0.548781,-2.012195,17.062500,-35.881252,0.693750,0.0,1.000000,0.000000,0.000000,0.000000
1782117378.057178,1877480,0.897949,0.000488,-0.433105,2.195122,0.609756,-1.829268,17.062500,-35.881252,0.693750,0.0,1.000000,0.000000,0.000000,0.000000
1782117378.067178,1877490,0.900391,0.007812,-0.434082,1.402439,0.426829,-1.707317,16.981251,-35.975002,0.718750,0.0,1.000000,0.000000,0.000000,0.000000
1782117378.077178,1877500,0.900391,0.007812,-0.434082,1.402439,0.426829,-1.707317,16.981251,-35.975002,0.718750,0.0,1.000000,0.000000,0.000000,0.000000
1782117378.086178,1877509,0.910156,0.007324,-0.433594,0.548781,0.731707,-1.524390,17.000000,-36.000000,0.806250,0.0,1.000000,0.000000,0.000000,0.000000
1782117378.096178,1877519,0.904297,0.004395,-0.436523,0.000000,1.097561,-1.280488,17.000000,-36.000000,0.806250,0.0,1.000000,0.000000,0.000000,0.000000
1782117378.107178,1877530,0.896484,0.002441,-0.437500,0.060976,0.975610,-1.158537,16.981251,-35.981251,0.800000,0.0,1.000000,0.000000,0.000000,0.000000
1782117378.116178,1877539,0.896484,-0.000488,-0.435547,0.426829,0.792683,-1.097561,16.981251,-35.981251,0.800000,0.0,1.000000,0.000000,0.000000,0.000000
1782117378.126178,1877549,0.901367,-0.002441,-0.437012,0.853659,0.731707,-1.280488,17.062500,-36.056252,0.843750,0.0,1.000000,0.000000,0.000000,0.000000
1782117378.136178,1877559,0.904297,-0.006348,-0.435547,1.524390,0.975610,-1.524390,17.062500,-36.056252,0.843750,0.0,1.000000,0.000000,0.000000,0.000000
1782117378.146178,1877569,0.906250,-0.011719,-0.433105,2.256098,1.219512,-1.646341,17.112501,-35.924999,0.775000,0.0,1.000000,0.000000,0.000000,0.000000
1782117378.156178,1877579,0.904785,-0.013184,-0.428711,2.804878,1.280488,-1.646341,17.112501,-35.924999,0.775000,0.0,1.000000,0.000000,0.000000,0.000000
1782117378.166178,1877589,0.907715,-0.010742,-0.427246,3.048780,1.219512,-1.707317,17.031250,-36.037502,0.881250,0.0,1.000000,0.000000,0.000000,0.000000
1782117378.178178,1877601,0.908203,-0.006836,-0.427246,2.926829,1.402439,-1.646341,17.031250,-36.037502,0.881250,0.0,1.000000,0.000000,0.000000,0.000000
1782117378.186178,1877609,0.908203,-0.003906,-0.424805,2.621951,1.524390,-1.524390,17.143751,-35.918751,0.831250,0.0,1.000000,0.000000,0.000000,0.000000
1782117378.196178,1877619,0.908203,0.000488,-0.420410,2.256098,1.585366,-1.341463,17.143751,-35.918751,0.831250,0.0,1.000000,0.000000,0.000000,0.000000
1782117378.206178,1877629,0.909180,0.000488,-0.416504,1.890244,1.646341,-1.158537,17.025000,-36.068752,0.843750,0.0,1.000000,0.000000,0.000000,0.000000
1782117378.217178,1877640,0.910645,0.002441,-0.416016,1.463415,1.768293,-0.914634,17.025000,-36.068752,0.843750,0.0,1.000000,0.000000,0.000000,0.000000
1782117378.226178,1877649,0.909180,0.007324,-0.417480,0.914634,1.890244,-0.731707,17.068750,-35.931252,0.887500,0.0,1.000000,0.000000,0.000000,0.000000
1782117378.236178,1877659,0.907227,0.013184,-0.421875,0.182927,1.646341,-0.609756,17.068750,-35.931252,0.887500,0.0,1.000000,0.000000,0.000000,0.000000
1782117378.247178,1877670,0.907715,0.016113,-0.423340,-0.731707,1.524390,-0.548781,17.093750,-35.937500,0.881250,0.0,1.000000,0.000000,0.000000,0.000000
1782117378.256178,1877679,0.903809,0.008789,-0.424316,-1.341463,1.524390,-0.365854,17.093750,-35.937500,0.881250,0.0,1.000000,0.000000,0.000000,0.000000
1782117378.266178,1877689,0.897949,0.000000,-0.425293,-1.524390,1.341463,-0.304878,17.256250,-35.706249,0.768750,0.0,1.000000,0.000000,0.000000,0.000000
1782117378.277178,1877700,0.897949,-0.010254,-0.426758,-1.402439,0.975610,-0.304878,17.256250,-35.706249,0.768750,0.0,1.000000,0.000000,0.000000,0.000000
1782117378.286178,1877709,0.899902,-0.015625,-0.429688,-1.036585,0.853659,-0.487805,17.087500,-35.993752,1.025000,0.0,1.000000,0.000000,0.000000,0.000000
1782117378.297178,1877720,0.901855,-0.017578,-0.433594,-0.487805,0.853659,-0.792683,17.087500,-35.993752,1.025000,0.0,1.000000,0.000000,0.000000,0.000000
1782117378.307178,1877730,0.906738,-0.018066,-0.433594,0.365854,0.914634,-0.975610,17.131250,-35.887501,0.925000,0.0,1.000000,0.000000,0.000000,0.000000
1782117378.317178,1877740,0.910156,-0.017578,-0.430176,1.280488,1.158537,-0.975610,17.131250,-35.887501,0.925000,0.0,1.000000,0.000000,0.000000,0.000000
1782117378.326178,1877749,0.908203,-0.017090,-0.424805,1.646341,1.402439,-0.731707,17.100000,-35.956249,0.937500,0.0,1.000000,0.000000,0.000000,0.000000
1782117378.337178,1877760,0.902344,-0.012207,-0.425293,1.463415,1.036585,-0.548781,17.118750,-35.875000,0.956250,0.0,1.000000,0.000000,0.000000,0.000000
1782117378.348178,1877771,0.900391,-0.003906,-0.426270,1.219512,0.487805,-0.426829,17.118750,-35.875000,0.956250,0.0,1.000000,0.000000,0.000000,0.000000
1782117378.356178,1877779,0.906250,0.003906,-0.422852,1.219512,0.304878,-0.365854,17.118750,-35.875000,0.956250,0.0,1.000000,0.000000,0.000000,0.000000
1782117378.367178,1877790,0.909668,0.004883,-0.416992,1.036585,0.670732,-0.182927,17.081251,-35.900002,0.956250,0.0,1.000000,0.000000,0.000000,0.000000
1782117378.377178,1877800,0.909180,0.009766,-0.415527,0.365854,1.036585,0.182927,17.137501,-35.837502,0.975000,0.0,1.000000,0.000000,0.000000,0.000000
1782117378.386178,1877809,0.906738,0.015137,-0.417969,-0.426829,1.036585,0.304878,17.137501,-35.837502,0.975000,0.0,1.000000,0.000000,0.000000,0.000000
1782117378.396178,1877819,0.905762,0.018555,-0.421875,-1.158537,0.975610,0.243902,17.137501,-35.837502,0.975000,0.0,1.000000,0.000000,0.000000,0.000000
1782117378.406178,1877829,0.901367,0.015137,-0.426758,-1.829268,1.097561,0.365854,17.081251,-35.981251,1.025000,0.0,1.000000,0.000000,0.000000,0.000000
1782117378.416178,1877839,0.895020,0.012207,-0.427734,-2.317073,0.548781,0.304878,17.081251,-35.981251,1.025000,0.0,1.000000,0.000000,0.000000,0.000000
1782117378.426178,1877849,0.902344,0.006348,-0.428223,-2.926829,0.304878,0.670732,17.106251,-35.918751,1.056250,0.0,1.000000,0.000000,0.000000,0.000000
1782117378.436178,1877859,0.900391,0.000000,-0.428223,-3.292683,0.548781,0.792683,17.106251,-35.918751,1.056250,0.0,1.000000,0.000000,0.000000,0.000000
1782117378.446178,1877869,0.896484,-0.006836,-0.433105,-3.170732,0.243902,0.670732,17.031250,-36.000000,1.137500,0.0,1.000000,0.000000,0.000000,0.000000
1782117378.457178,1877880,0.897461,-0.012207,-0.436523,-2.743902,-0.121951,0.670732,17.068750,-35.962502,1.093750,0.0,1.000000,0.000000,0.000000,0.000000
1782117378.466178,1877889,0.898926,-0.011719,-0.437500,-2.134146,-0.304878,0.487805,17.068750,-35.962502,1.093750,0.0,1.000000,0.000000,0.000000,0.000000
1782117378.476178,1877899,0.900879,-0.012207,-0.434082,-1.646341,-0.365854,0.304878,16.993750,-35.993752,1.143750,0.0,1.000000,0.000000,0.000000,0.000000
1782117378.486178,1877909,0.904297,-0.011230,-0.431152,-1.219512,-0.426829,0.121951,16.993750,-35.993752,1.143750,0.0,1.000000,0.000000,0.000000,0.000000
1782117378.497178,1877920,0.908691,-0.011230,-0.427734,-0.975610,-0.426829,0.000000,17.050001,-35.906250,1.131250,0.0,1.000000,0.000000,0.000000,0.000000
1782117378.507178,1877930,0.912598,-0.011230,-0.422363,-0.731707,-0.182927,-0.060976,17.050001,-35.906250,1.131250,0.0,1.000000,0.000000,0.000000,0.000000
1782117378.517178,1877940,0.909668,-0.010742,-0.420898,-0.609756,0.304878,0.060976,17.031250,-35.962502,1.150000,0.0,1.000000,0.000000,0.000000,0.000000
1782117378.526178,1877949,0.905762,-0.005371,-0.421875,-0.548781,0.365854,0.243902,17.031250,-35.962502,1.150000,0.0,1.000000,0.000000,0.000000,0.000000
1782117378.537178,1877960,0.907715,0.002441,-0.425781,-0.853659,0.000000,0.365854,17.012501,-35.975002,1.150000,0.0,1.000000,0.000000,0.000000,0.000000
1782117378.546178,1877969,0.909668,0.010742,-0.427246,-1.158537,-0.121951,0.304878,17.012501,-35.975002,1.150000,0.0,1.000000,0.000000,0.000000,0.000000
1782117378.556178,1877979,0.908691,0.011230,-0.424805,-1.524390,0.121951,0.365854,16.962500,-35.975002,1.181250,0.0,1.000000,0.000000,0.000000,0.000000
1782117378.566178,1877989,0.901855,0.007812,-0.426758,-2.073171,0.243902,0.548781,16.962500,-35.975002,1.181250,0.0,1.000000,0.000000,0.000000,0.000000
1782117378.576178,1877999,0.898438,0.006348,-0.433105,-2.926829,-0.121951,0.792683,16.968750,-35.931252,1.206250,0.0,1.000000,0.000000,0.000000,0.000000
1782117378.586178,1878009,0.897949,0.010254,-0.440430,-3.597561,-0.487805,0.792683,16.968750,-35.931252,1.206250,0.0,1.000000,0.000000,0.000000,0.000000
1782117378.596178,1878019,0.898438,0.009277,-0.441895,-3.902439,-0.670732,0.609756,16.962500,-35.987499,1.225000,0.0,1.000000,0.000000,0.000000,0.000000
1782117378.606178,1878029,0.899414,0.004395,-0.442871,-3.902439,-0.548781,0.365854,16.962500,-35.987499,1.225000,0.0,1.000000,0.000000,0.000000,0.000000
1782117378.616178,1878039,0.901855,-0.001465,-0.443359,-3.902439,-0.243902,0.243902,16.993750,-35.981251,1.218750,0.0,1.000000,0.000000,0.000000,0.000000
1782117378.626178,1878049,0.899902,-0.002930,-0.441406,-3.780488,0.000000,0.182927,16.993750,-35.981251,1.218750,0.0,1.000000,0.000000,0.000000,0.000000
1782117378.636178,1878059,0.902344,-0.007812,-0.437012,-2.926829,-0.060976,0.000000,17.025000,-35.956249,1.187500,0.0,1.000000,0.000000,0.000000,0.000000
1782117378.646178,1878069,0.902344,-0.012207,-0.436035,-2.134146,0.609756,-0.121951,17.025000,-35.956249,1.187500,0.0,1.000000,0.000000,0.000000,0.000000
1782117378.657178,1878080,0.895508,-0.010742,-0.440918,-2.012195,0.365854,-0.060976,16.937500,-36.062500,1.275000,0.0,1.000000,0.000000,0.000000,0.000000
1782117378.666178,1878089,0.900391,-0.001465,-0.441895,-1.829268,0.060976,-0.243902,16.937500,-36.062500,1.275000,0.0,1.000000,0.000000,0.000000,0.000000
1782117378.676178,1878099,0.905762,0.000488,-0.436035,-1.219512,0.121951,-0.365854,17.125000,-35.837502,1.231250,0.0,1.000000,0.000000,0.000000,0.000000
1782117378.686178,1878109,0.904785,-0.006836,-0.432617,-0.853659,0.304878,-0.121951,17.125000,-35.837502,1.231250,0.0,1.000000,0.000000,0.000000,0.000000
1782117378.697178,1878120,0.900879,-0.004395,-0.437988,-1.280488,0.121951,0.304878,17.050001,-35.856251,1.262500,0.0,1.000000,0.000000,0.000000,0.000000
1782117378.706178,1878129,0.904785,0.006348,-0.438965,-1.646341,-0.060976,0.000000,17.050001,-35.856251,1.262500,0.0,1.000000,0.000000,0.000000,0.000000
1782117378.716178,1878139,0.919922,0.003418,-0.438477,-1.280488,0.121951,-0.548781,17.000000,-36.049999,1.362500,0.0,1.000000,0.000000,0.000000,0.000000
1782117378.727178,1878150,0.936035,-0.005371,-0.442383,-0.731707,0.914634,-0.731707,17.000000,-36.049999,1.362500,0.0,1.000000,0.000000,0.000000,0.000000
1782117378.737178,1878160,0.937012,-0.005859,-0.444336,-0.548781,2.317073,-0.548781,17.000000,-35.993752,1.337500,0.0,1.000000,0.000000,0.000000,0.000000
1782117378.747178,1878170,0.931152,-0.000488,-0.441406,0.182927,3.353659,-0.731707,17.000000,-35.993752,1.337500,0.0,1.000000,0.000000,0.000000,0.000000
1782117378.756178,1878179,0.925781,-0.002930,-0.440430,1.158537,4.146341,-1.036585,17.050001,-35.918751,1.418750,0.0,1.000000,0.000000,0.000000,0.000000
1782117378.767178,1878190,0.915039,-0.001465,-0.440918,1.524390,5.000000,-0.914634,17.050001,-35.918751,1.418750,0.0,1.000000,0.000000,0.000000,0.000000
1782117378.778178,1878201,0.904297,-0.001465,-0.449707,1.707317,5.670732,-0.914634,17.068750,-35.900002,1.556250,0.0,1.000000,0.000000,0.000000,0.000000
1782117378.786178,1878209,0.890625,-0.007324,-0.453613,2.500000,6.036585,-0.975610,17.068750,-35.900002,1.556250,0.0,1.000000,0.000000,0.000000,0.000000
1782117378.796178,1878219,0.883301,-0.012207,-0.458008,3.719512,5.914634,-0.731707,17.031250,-35.918751,1.550000,0.0,1.000000,0.000000,0.000000,0.000000
1782117378.806178,1878229,0.876953,-0.009277,-0.466309,4.756098,6.280488,-0.121951,17.031250,-35.918751,1.550000,0.0,1.000000,0.000000,0.000000,0.000000
1782117378.816178,1878239,0.858887,0.003906,-0.471191,5.304878,6.951220,0.426829,16.981251,-35.900002,1.587500,0.0,1.000000,0.000000,0.000000,0.000000
1782117378.826178,1878249,0.853516,0.023926,-0.473633,5.609756,6.524390,0.365854,16.981251,-35.900002,1.587500,0.0,1.000000,0.000000,0.000000,0.000000
1782117378.836178,1878259,0.855957,0.038574,-0.478516,4.756098,5.975610,0.426829,16.987501,-35.924999,1.662500,0.0,1.000000,0.000000,0.000000,0.000000
1782117378.846178,1878269,0.871094,0.048828,-0.484375,2.560976,5.060976,0.426829,16.987501,-35.924999,1.662500,0.0,1.000000,0.000000,0.000000,0.000000
1782117378.856178,1878279,0.881836,0.051270,-0.490234,-0.304878,5.914634,0.670732,16.975000,-35.943752,1.793750,0.0,1.000000,0.000000,0.000000,0.000000
1782117378.866178,1878289,0.862793,0.047852,-0.498047,-2.926829,7.621952,1.341463,16.975000,-35.943752,1.793750,0.0,1.000000,0.000000,0.000000,0.000000
1782117378.876178,1878299,0.841309,0.033691,-0.499023,-4.695122,7.987805,2.012195,17.012501,-35.837502,1.875000,0.0,1.000000,0.000000,0.000000,0.000000
1782117378.886178,1878309,0.848633,0.016602,-0.500488,-5.182927,7.134147,2.500000,17.012501,-35.837502,1.875000,0.0,1.000000,0.000000,0.000000,0.000000
1782117378.898178,1878321,0.873047,-0.017578,-0.498535,-1.890244,6.951220,2.987805,16.893751,-36.018749,2.118750,0.0,1.000000,0.000000,0.000000,0.000000
1782117378.907178,1878330,0.873047,-0.017578,-0.498535,-1.890244,6.951220,2.987805,16.893751,-36.018749,2.118750,0.0,1.000000,0.000000,0.000000,0.000000
1782117378.917178,1878340,0.867676,-0.023926,-0.487793,0.426829,7.195122,3.475610,16.918751,-35.937500,2.218750,0.0,1.000000,0.000000,0.000000,0.000000
1782117378.927178,1878350,0.868164,-0.041992,-0.474609,3.475610,5.731708,3.170732,16.918751,-35.937500,2.218750,0.0,1.000000,0.000000,0.000000,0.000000
1782117378.938178,1878361,0.961914,-0.085449,-0.472656,15.365854,3.353659,1.890244,17.012501,-35.575001,2.025000,0.0,1.000000,0.000000,0.000000,0.000000
1782117378.946178,1878369,0.961914,-0.085449,-0.472656,15.365854,3.353659,1.890244,17.012501,-35.575001,2.025000,0.0,1.000000,0.000000,0.000000,0.000000
1782117378.957178,1878380,1.003418,-0.091309,-0.478027,22.378050,8.780488,2.317073,16.800001,-35.956249,2.256250,0.0,1.000000,0.000000,0.000000,0.000000
1782117378.966178,1878389,1.022461,-0.070801,-0.480469,30.182928,20.853659,2.926829,16.800001,-35.956249,2.256250,0.0,1.000000,0.000000,0.000000,0.000000
1782117378.976178,1878399,0.981445,0.003906,-0.457031,37.621952,38.170734,1.829268,16.843750,-35.637501,2.281250,0.0,1.000000,0.000000,0.000000,0.000000
1782117378.986178,1878409,0.866699,0.062988,-0.417480,41.280487,50.670734,-0.426829,16.843750,-35.637501,2.281250,0.0,1.000000,0.000000,0.000000,0.000000
1782117378.996178,1878419,0.819824,0.069336,-0.390137,32.256100,36.280487,1.402439,16.718750,-35.906250,2.825000,0.0,1.000000,0.000000,0.000000,0.000000
1782117379.006178,1878429,0.884766,0.019531,-0.355469,24.695122,27.439026,2.378049,16.718750,-35.906250,2.825000,0.0,1.000000,0.000000,0.000000,0.000000
1782117379.017178,1878440,0.921387,-0.062988,-0.349121,16.768293,22.256098,3.780488,16.812500,-35.668751,2.993750,0.0,1.000000,0.000000,0.000000,0.000000
1782117379.026178,1878449,0.948730,-0.121094,-0.378418,10.243902,21.219513,4.573171,16.812500,-35.668751,2.993750,0.0,1.000000,0.000000,0.000000,0.000000
1782117379.036178,1878459,0.953613,-0.126465,-0.399414,6.036585,24.329269,5.365854,16.643751,-35.868752,3.412500,0.0,1.000000,0.000000,0.000000,0.000000
1782117379.046178,1878469,0.929199,-0.109863,-0.409180,3.414634,25.975611,5.914634,16.643751,-35.868752,3.412500,0.0,1.000000,0.000000,0.000000,0.000000
1782117379.059178,1878482,0.930176,-0.095215,-0.453613,0.853659,18.902439,4.695122,16.768751,-35.593750,3.531250,0.0,1.000000,0.000000,0.000000,0.000000
1782117379.066178,1878489,0.990723,-0.041016,-0.508301,-1.463415,11.524390,2.682927,16.768751,-35.593750,3.531250,0.0,1.000000,0.000000,0.000000,0.000000
1782117379.076178,1878499,0.943848,0.028809,-0.456055,-3.658537,19.573172,6.463415,16.575001,-35.887501,4.018750,0.0,1.000000,0.000000,0.000000,0.000000
1782117379.086178,1878509,0.844727,0.120605,-0.387695,-8.780488,22.743902,9.756098,16.575001,-35.887501,4.018750,0.0,1.000000,0.000000,0.000000,0.000000
1782117379.098178,1878521,0.801758,0.157227,-0.350586,-14.024390,13.658537,8.902439,16.431250,-35.843750,4.281250,0.0,1.000000,0.000000,0.000000,0.000000
1782117379.106178,1878529,0.844727,0.101562,-0.327148,-16.402439,4.085366,5.731708,16.431250,-35.843750,4.281250,0.0,1.000000,0.000000,0.000000,0.000000
1782117379.118178,1878541,0.895508,-0.007812,-0.303711,-17.439024,-0.060976,5.853659,16.200001,-36.100002,4.500000,0.0,1.000000,0.000000,0.000000,0.000000
1782117379.126178,1878549,0.933594,-0.097656,-0.292480,-16.585365,-2.560976,6.951220,16.200001,-36.100002,4.500000,0.0,1.000000,0.000000,0.000000,0.000000
1782117379.138178,1878561,0.970703,-0.136230,-0.288574,-12.621951,-1.280488,6.402439,16.131250,-35.962502,4.393750,0.0,1.000000,0.000000,0.000000,0.000000
1782117379.147178,1878570,0.990234,-0.146484,-0.306641,-6.097561,2.560976,4.329268,16.131250,-35.962502,4.393750,0.0,1.000000,0.000000,0.000000,0.000000
1782117379.156178,1878579,0.983887,-0.154297,-0.303711,0.426829,5.670732,3.231707,15.862500,-36.387501,4.662500,0.0,1.000000,0.000000,0.000000,0.000000
1782117379.167178,1878590,0.954590,-0.167969,-0.290527,6.707317,7.317073,3.536585,15.862500,-36.387501,4.662500,0.0,1.000000,0.000000,0.000000,0.000000
1782117379.178178,1878601,0.921875,-0.169922,-0.273926,12.865854,7.378049,3.475610,15.706250,-36.531250,4.787500,0.0,1.000000,0.000000,0.000000,0.000000
1782117379.186178,1878609,0.916016,-0.147949,-0.263672,18.536585,6.280488,2.134146,15.706250,-36.531250,4.787500,0.0,1.000000,0.000000,0.000000,0.000000
1782117379.196178,1878619,0.934570,-0.125488,-0.260254,22.682928,4.024390,0.121951,15.637500,-36.549999,4.768750,0.0,1.000000,0.000000,0.000000,0.000000
1782117379.206178,1878629,0.972656,-0.102539,-0.252441,24.939026,3.658537,-1.524390,15.637500,-36.549999,4.768750,0.0,1.000000,0.000000,0.000000,0.000000
1782117379.219178,1878642,0.990234,-0.078125,-0.242188,26.097561,5.121951,-2.378049,15.612500,-36.549999,4.600000,0.0,1.000000,0.000000,0.000000,0.000000
1782117379.226178,1878649,0.996094,-0.058594,-0.235840,26.341463,7.621952,-3.231707,15.612500,-36.549999,4.600000,0.0,1.000000,0.000000,0.000000,0.000000
1782117379.236178,1878659,0.983887,-0.043457,-0.231445,25.426830,9.207317,-4.451220,15.600000,-36.462502,4.481250,0.0,1.000000,0.000000,0.000000,0.000000
1782117379.246178,1878669,0.975586,-0.031250,-0.232422,24.573172,6.951220,-5.548780,15.600000,-36.462502,4.481250,0.0,1.000000,0.000000,0.000000,0.000000
1782117379.259178,1878682,0.972168,-0.030762,-0.231934,23.292683,5.792683,-6.219512,15.531250,-36.531250,4.425000,0.0,1.000000,0.000000,0.000000,0.000000
1782117379.266178,1878689,0.961426,-0.041504,-0.238770,21.402439,5.243903,-5.609756,15.531250,-36.531250,4.425000,0.0,1.000000,0.000000,0.000000,0.000000
1782117379.277178,1878700,0.944824,-0.043945,-0.242676,19.146341,4.207317,-3.719512,15.568750,-36.512501,4.362500,0.0,1.000000,0.000000,0.000000,0.000000
1782117379.286178,1878709,0.932129,-0.038574,-0.249512,17.012196,1.829268,-1.585366,15.568750,-36.512501,4.362500,0.0,1.000000,0.000000,0.000000,0.000000
1782117379.300178,1878723,0.934570,-0.027832,-0.246094,16.036585,-0.365854,-0.304878,15.525001,-36.450001,4.181250,0.0,1.000000,0.000000,0.000000,0.000000
1782117379.306178,1878729,0.941406,-0.013184,-0.239258,15.548780,-2.073171,0.000000,15.525001,-36.450001,4.181250,0.0,1.000000,0.000000,0.000000,0.000000
1782117379.316178,1878739,0.952637,-0.013184,-0.230957,15.365854,-4.390244,-0.548781,15.500000,-36.500000,4.031250,0.0,1.000000,0.000000,0.000000,0.000000
1782117379.326178,1878749,0.960938,-0.021973,-0.224121,14.817074,-6.646342,-1.036585,15.500000,-36.500000,4.031250,0.0,1.000000,0.000000,0.000000,0.000000
1782117379.338178,1878761,0.965332,-0.033203,-0.216797,13.475610,-7.682927,-1.097561,15.456250,-36.537502,3.893750,0.0,1.000000,0.000000,0.000000,0.000000
1782117379.346178,1878769,0.970215,-0.040039,-0.199219,12.134147,-8.780488,-1.097561,15.456250,-36.537502,3.893750,0.0,1.000000,0.000000,0.000000,0.000000
1782117379.356178,1878779,0.973145,-0.046387,-0.178711,10.731708,-10.243902,-1.097561,15.506250,-36.475002,3.650000,0.0,1.000000,0.000000,0.000000,0.000000
1782117379.366178,1878789,0.988770,-0.058594,-0.163574,9.573171,-10.975610,-2.073171,15.506250,-36.475002,3.650000,0.0,1.000000,0.000000,0.000000,0.000000
1782117379.378178,1878801,1.007812,-0.076172,-0.159180,9.451220,-10.975610,-3.902439,15.537500,-36.418751,3.418750,0.0,1.000000,0.000000,0.000000,0.000000
1782117379.386178,1878809,1.022949,-0.092773,-0.159668,10.548780,-10.487805,-6.097561,15.537500,-36.418751,3.418750,0.0,1.000000,0.000000,0.000000,0.000000
1782117379.396178,1878819,1.036133,-0.088867,-0.155273,12.743903,-9.207317,-8.414635,15.718750,-36.125000,3.112500,0.0,1.000000,0.000000,0.000000,0.000000
1782117379.406178,1878829,1.040039,-0.071289,-0.145020,14.695123,-7.743903,-10.060976,15.718750,-36.125000,3.112500,0.0,1.000000,0.000000,0.000000,0.000000
1782117379.417178,1878840,1.035156,-0.057617,-0.132324,15.914635,-6.402439,-10.060976,15.687500,-36.375000,3.100000,0.0,1.000000,0.000000,0.000000,0.000000
1782117379.426178,1878849,1.024414,-0.039062,-0.120117,16.097561,-5.121951,-9.390244,15.687500,-36.375000,3.100000,0.0,1.000000,0.000000,0.000000,0.000000
1782117379.436178,1878859,1.031738,-0.012207,-0.121582,15.121951,-4.756098,-8.963415,15.831250,-36.218750,2.850000,0.0,1.000000,0.000000,0.000000,0.000000
1782117379.446178,1878869,1.037598,-0.018555,-0.119141,13.475610,-4.268293,-9.268292,15.831250,-36.218750,2.850000,0.0,1.000000,0.000000,0.000000,0.000000
1782117379.460178,1878883,1.037109,-0.045410,-0.133789,11.341464,-2.195122,-8.963415,15.925000,-36.287502,2.693750,0.0,1.000000,0.000000,0.000000,0.000000
1782117379.466178,1878889,1.012695,-0.043945,-0.160645,8.719512,-0.792683,-7.682927,15.925000,-36.287502,2.693750,0.0,1.000000,0.000000,0.000000,0.000000
1782117379.476178,1878899,0.998047,0.000000,-0.175293,5.792683,-1.341463,-7.012195,16.068750,-36.118752,2.593750,0.0,1.000000,0.000000,0.000000,0.000000
1782117379.486178,1878909,1.005859,0.038574,-0.172363,2.804878,-1.890244,-7.012195,16.068750,-36.118752,2.593750,0.0,1.000000,0.000000,0.000000,0.000000
1782117379.498178,1878921,1.005859,0.051758,-0.184082,-0.853659,-1.646341,-6.829268,16.206251,-36.131252,2.581250,0.0,1.000000,0.000000,0.000000,0.000000
1782117379.506178,1878929,0.980957,0.032715,-0.198242,-5.548780,-2.195122,-5.853659,16.206251,-36.131252,2.581250,0.0,1.000000,0.000000,0.000000,0.000000
1782117379.516178,1878939,0.958984,0.014648,-0.205078,-10.670732,-3.414634,-4.024390,16.362501,-36.000000,2.518750,0.0,1.000000,0.000000,0.000000,0.000000
1782117379.526178,1878949,0.945312,0.013672,-0.211426,-16.646341,-3.841464,-2.195122,16.362501,-36.000000,2.518750,0.0,1.000000,0.000000,0.000000,0.000000
1782117379.536178,1878959,0.951172,0.012695,-0.225586,-22.073172,-4.878049,-1.768293,16.425001,-35.993752,2.612500,0.0,1.000000,0.000000,0.000000,0.000000
1782117379.546178,1878969,0.979980,-0.003906,-0.254883,-25.548780,-7.012195,-1.829268,16.425001,-35.993752,2.612500,0.0,1.000000,0.000000,0.000000,0.000000
1782117379.556178,1878979,1.001465,-0.023926,-0.281738,-26.585367,-7.926829,-1.097561,16.550001,-35.881252,2.643750,0.0,1.000000,0.000000,0.000000,0.000000
1782117379.566178,1878989,0.989746,-0.032227,-0.284180,-25.914635,-6.951220,-1.097561,16.550001,-35.881252,2.643750,0.0,1.000000,0.000000,0.000000,0.000000
1782117379.577178,1879000,0.961426,-0.038086,-0.273926,-25.121952,-5.853659,-0.060976,16.593750,-35.900002,2.756250,0.0,1.000000,0.000000,0.000000,0.000000
1782117379.587178,1879010,0.964355,-0.048828,-0.271484,-24.024391,-6.463415,1.646341,16.593750,-35.900002,2.756250,0.0,1.000000,0.000000,0.000000,0.000000
1782117379.596178,1879019,0.966797,-0.057617,-0.283691,-22.073172,-6.524390,0.609756,16.693750,-35.825001,2.862500,0.0,1.000000,0.000000,0.000000,0.000000
1782117379.606178,1879029,0.976074,-0.076172,-0.290527,-19.878050,-7.073171,-0.304878,16.693750,-35.825001,2.862500,0.0,1.000000,0.000000,0.000000,0.000000
1782117379.617178,1879040,0.976562,-0.088379,-0.291504,-17.500000,-5.182927,0.792683,16.687500,-35.850002,2.956250,0.0,1.000000,0.000000,0.000000,0.000000
1782117379.626178,1879049,0.944336,-0.085449,-0.291504,-15.060976,-2.926829,1.524390,16.687500,-35.850002,2.956250,0.0,1.000000,0.000000,0.000000,0.000000
1782117379.636178,1879059,0.910645,-0.071289,-0.290039,-13.353659,-3.597561,1.280488,16.718750,-35.799999,3.012500,0.0,1.000000,0.000000,0.000000,0.000000
1782117379.647178,1879070,0.932129,-0.052734,-0.290039,-14.085366,-6.219512,-0.609756,16.718750,-35.799999,3.012500,0.0,1.000000,0.000000,0.000000,0.000000
1782117379.657178,1879080,0.979980,-0.058105,-0.303223,-15.731708,-6.219512,-2.804878,16.793751,-35.812500,3.012500,0.0,1.000000,0.000000,0.000000,0.000000
1782117379.667178,1879090,0.996582,-0.068359,-0.286621,-16.341463,-4.329268,-3.109756,16.793751,-35.812500,3.012500,0.0,1.000000,0.000000,0.000000,0.000000
1782117379.677178,1879100,0.992188,-0.066406,-0.271973,-16.951220,-3.841464,-1.768293,16.962500,-35.543751,2.950000,0.0,1.000000,0.000000,0.000000,0.000000
1782117379.686178,1879109,0.974121,-0.051758,-0.281250,-19.146341,-5.121951,-0.487805,16.962500,-35.543751,2.950000,0.0,1.000000,0.000000,0.000000,0.000000
1782117379.696178,1879119,0.947266,-0.032715,-0.296387,-23.536587,-4.146341,0.609756,16.806250,-35.687500,3.106250,0.0,1.000000,0.000000,0.000000,0.000000
1782117379.707178,1879130,0.912598,0.005859,-0.329590,-29.085367,-3.048780,3.170732,16.806250,-35.687500,3.106250,0.0,1.000000,0.000000,0.000000,0.000000
1782117379.716178,1879139,0.890137,0.066406,-0.359375,-33.841465,-4.390244,5.548780,16.731251,-35.731251,3.156250,0.0,1.000000,0.000000,0.000000,0.000000
1782117379.726178,1879149,0.905762,0.124023,-0.365234,-36.280487,-5.914634,7.317073,16.731251,-35.731251,3.156250,0.0,1.000000,0.000000,0.000000,0.000000
1782117379.736178,1879159,0.906738,0.145996,-0.363281,-39.939026,-5.731708,7.500000,16.668751,-35.887501,3.300000,0.0,1.000000,0.000000,0.000000,0.000000
1782117379.746178,1879169,0.951660,0.125488,-0.347168,-43.719513,-9.756098,6.158537,16.668751,-35.887501,3.300000,0.0,1.000000,0.000000,0.000000,0.000000
1782117379.757178,1879180,0.994141,0.038574,-0.347656,-44.878048,-11.219512,5.975610,16.587500,-35.799999,3.387500,0.0,1.000000,0.000000,0.000000,0.000000
1782117379.766178,1879189,0.964355,-0.063965,-0.350586,-43.353661,-8.658537,8.048780,16.587500,-35.799999,3.387500,0.0,1.000000,0.000000,0.000000,0.000000
1782117379.776178,1879199,0.894531,-0.142090,-0.370117,-43.475613,-11.097561,13.292684,16.637501,-35.687500,3.512500,0.0,1.000000,0.000000,0.000000,0.000000
1782117379.787178,1879210,0.943848,-0.160645,-0.415039,-46.402439,-20.731709,19.756098,16.637501,-35.687500,3.512500,0.0,1.000000,0.000000,0.000000,0.000000
1782117379.796178,1879219,0.986328,-0.123535,-0.461426,-46.768295,-18.414635,19.512196,16.281250,-35.968750,3.618750,0.0,1.000000,0.000000,0.000000,0.000000
1782117379.806178,1879229,0.913574,-0.129883,-0.435547,-39.695122,-3.048780,17.195122,16.281250,-35.968750,3.618750,0.0,1.000000,0.000000,0.000000,0.000000
1782117379.816178,1879239,0.790527,-0.170410,-0.442871,-28.780489,0.243902,13.780488,16.050001,-36.062500,3.762500,0.0,1.000000,0.000000,0.000000,0.000000
1782117379.826178,1879249,0.791016,-0.182617,-0.518555,-18.475611,-9.451220,11.463415,16.050001,-36.062500,3.762500,0.0,1.000000,0.000000,0.000000,0.000000
1782117379.836178,1879259,0.884277,-0.111816,-0.567871,-10.975610,-11.341464,12.439025,15.868751,-36.193752,3.737500,0.0,1.000000,0.000000,0.000000,0.000000
1782117379.846178,1879269,0.907227,-0.003906,-0.584961,-1.219512,-4.817073,7.926829,15.868751,-36.193752,3.737500,0.0,1.000000,0.000000,0.000000,0.000000
1782117379.856178,1879279,0.867676,0.033691,-0.578125,10.914635,-1.585366,0.609756,15.668750,-36.250000,3.637500,0.0,1.000000,0.000000,0.000000,0.000000
1782117379.866178,1879289,0.833984,0.020020,-0.569336,20.914635,-4.878049,-2.439024,15.668750,-36.250000,3.637500,0.0,1.000000,0.000000,0.000000,0.000000
1782117379.876178,1879299,0.807129,0.032715,-0.564453,26.829269,-5.243903,-4.085366,15.650001,-36.281250,3.387500,0.0,1.000000,0.000000,0.000000,0.000000
1782117379.886178,1879309,0.797852,0.047363,-0.547852,29.634148,-5.121951,-5.060976,15.650001,-36.281250,3.387500,0.0,1.000000,0.000000,0.000000,0.000000
1782117379.896178,1879319,0.795410,0.073242,-0.544434,27.317074,-5.853659,-5.670732,15.831250,-35.987499,2.887500,0.0,1.000000,0.000000,0.000000,0.000000
1782117379.906178,1879329,0.837891,0.098633,-0.539551,16.829269,-11.463415,-5.975610,15.831250,-35.987499,2.887500,0.0,1.000000,0.000000,0.000000,0.000000
1782117379.916178,1879339,0.850586,0.104492,-0.533691,12.073171,-13.170732,-5.609756,15.731250,-36.150002,2.768750,0.0,1.000000,0.000000,0.000000,0.000000
1782117379.926178,1879349,0.873535,0.109863,-0.533691,7.621952,-16.036585,-5.365854,15.731250,-36.150002,2.768750,0.0,1.000000,0.000000,0.000000,0.000000
1782117379.936178,1879359,0.891113,0.099609,-0.523438,2.256098,-18.414635,-4.329268,15.756250,-36.174999,2.493750,0.0,1.000000,0.000000,0.000000,0.000000
1782117379.946178,1879369,0.885254,0.064941,-0.500000,-3.780488,-19.451220,-2.560976,15.756250,-36.174999,2.493750,0.0,1.000000,0.000000,0.000000,0.000000
1782117379.956178,1879379,0.877930,0.020996,-0.481934,-8.597561,-19.512196,-0.609756,15.887500,-36.025002,2.181250,0.0,1.000000,0.000000,0.000000,0.000000
1782117379.966178,1879389,0.867188,-0.009766,-0.470215,-10.426829,-19.085367,0.243902,15.887500,-36.025002,2.181250,0.0,1.000000,0.000000,0.000000,0.000000
1782117379.976178,1879399,0.876953,-0.024414,-0.459961,-10.304878,-17.865854,-0.304878,15.850000,-36.156250,2.037500,0.0,1.000000,0.000000,0.000000,0.000000
1782117379.987178,1879410,0.889160,-0.023926,-0.461914,-8.475610,-15.670732,-1.463415,15.893750,-36.037502,1.806250,0.0,1.000000,0.000000,0.000000,0.000000
1782117379.996178,1879419,0.894043,-0.024414,-0.463867,-4.756098,-13.536586,-3.353659,15.893750,-36.037502,1.806250,0.0,1.000000,0.000000,0.000000,0.000000
1782117380.006178,1879429,0.903809,-0.041504,-0.478027,-0.548781,-12.621951,-5.121951,15.881250,-36.087502,1.700000,0.0,1.000000,0.000000,0.000000,0.000000
1782117380.016178,1879439,0.910156,-0.065918,-0.497070,3.841464,-11.402439,-5.731708,15.881250,-36.087502,1.700000,0.0,1.000000,0.000000,0.000000,0.000000
1782117380.027178,1879450,0.904297,-0.071777,-0.512207,8.292683,-10.609756,-5.609756,16.043751,-36.012501,1.400000,0.0,1.000000,0.000000,0.000000,0.000000
1782117380.036178,1879459,0.900879,-0.057617,-0.519531,11.951220,-10.548780,-5.182927,16.043751,-36.012501,1.400000,0.0,1.000000,0.000000,0.000000,0.000000
1782117380.046178,1879469,0.898926,-0.027832,-0.521973,13.780488,-10.182927,-4.878049,16.068750,-36.056252,1.275000,0.0,1.000000,0.000000,0.000000,0.000000
1782117380.056178,1879479,0.893555,0.005859,-0.514160,14.085366,-9.512196,-4.695122,16.068750,-36.056252,1.275000,0.0,1.000000,0.000000,0.000000,0.000000
1782117380.066178,1879489,0.888672,0.021484,-0.497070,12.987805,-9.512196,-4.512195,16.143751,-35.900002,0.918750,0.0,1.000000,0.000000,0.000000,0.000000
1782117380.076178,1879499,0.891113,0.018555,-0.488281,11.158537,-9.634147,-4.268293,16.143751,-35.900002,0.918750,0.0,1.000000,0.000000,0.000000,0.000000
1782117380.087178,1879510,0.897949,0.002930,-0.487793,9.573171,-9.695122,-3.597561,16.118750,-35.968750,0.700000,0.0,1.000000,0.000000,0.000000,0.000000
1782117380.096178,1879519,0.902832,-0.004883,-0.498535,7.865854,-9.512196,-2.804878,16.118750,-35.968750,0.700000,0.0,1.000000,0.000000,0.000000,0.000000
1782117380.106178,1879529,0.897949,0.000977,-0.509277,6.280488,-8.902439,-2.195122,16.243750,-35.843750,0.475000,0.0,1.000000,0.000000,0.000000,0.000000
1782117380.117178,1879540,0.888184,0.009766,-0.509766,5.182927,-8.292683,-1.768293,16.243750,-35.843750,0.475000,0.0,1.000000,0.000000,0.000000,0.000000
1782117380.126178,1879549,0.897949,0.010254,-0.495605,4.390244,-8.231708,-1.463415,16.181250,-35.956249,0.418750,0.0,1.000000,0.000000,0.000000,0.000000
1782117380.136178,1879559,0.892578,0.004395,-0.486816,3.841464,-7.500000,-1.768293,16.181250,-35.956249,0.418750,0.0,1.000000,0.000000,0.000000,0.000000
1782117380.146178,1879569,0.893555,-0.004395,-0.488770,2.804878,-6.341464,-1.402439,16.237501,-35.856251,0.268750,0.0,1.000000,0.000000,0.000000,0.000000
1782117380.156178,1879579,0.891113,-0.007324,-0.490234,3.231707,-4.817073,-1.585366,16.237501,-35.856251,0.268750,0.0,1.000000,0.000000,0.000000,0.000000
1782117380.167178,1879590,0.877441,-0.009766,-0.488770,4.085366,-2.743902,-2.317073,16.175001,-35.918751,0.237500,0.0,1.000000,0.000000,0.000000,0.000000
1782117380.177178,1879600,0.875977,-0.008301,-0.481445,4.817073,-1.646341,-2.012195,16.175001,-35.918751,0.237500,0.0,1.000000,0.000000,0.000000,0.000000
1782117380.186178,1879609,0.861328,0.005859,-0.468750,4.756098,-0.792683,-1.829268,16.318750,-35.831249,0.100000,0.0,1.000000,0.000000,0.000000,0.000000
1782117380.197178,1879620,0.846191,0.014160,-0.460449,4.329268,-0.670732,-2.195122,16.318750,-35.831249,0.100000,0.0,1.000000,0.000000,0.000000,0.000000
1782117380.210178,1879633,0.841797,0.009766,-0.455566,4.085366,-0.853659,-2.560976,16.275000,-35.875000,0.181250,0.0,1.000000,0.000000,0.000000,0.000000
1782117380.216178,1879639,0.838379,0.007812,-0.455078,3.902439,-1.768293,-3.170732,16.275000,-35.875000,0.181250,0.0,1.000000,0.000000,0.000000,0.000000
1782117380.226178,1879649,0.847656,0.003906,-0.461426,3.536585,-2.804878,-3.841464,16.331251,-35.799999,0.050000,0.0,1.000000,0.000000,0.000000,0.000000
1782117380.236178,1879659,0.858887,-0.010742,-0.468750,3.292683,-3.536585,-3.597561,16.331251,-35.799999,0.050000,0.0,1.000000,0.000000,0.000000,0.000000
1782117380.247178,1879670,0.862793,-0.024902,-0.471680,3.109756,-3.719512,-2.743902,16.412500,-35.837502,0.006250,0.0,1.000000,0.000000,0.000000,0.000000
1782117380.256178,1879679,0.863281,-0.034180,-0.459961,3.536585,-3.902439,-2.317073,16.412500,-35.837502,0.006250,0.0,1.000000,0.000000,0.000000,0.000000
1782117380.267178,1879690,0.861328,-0.021973,-0.449219,3.170732,-4.878049,-1.890244,16.493750,-35.762501,-0.068750,0.0,1.000000,0.000000,0.000000,0.000000
1782117380.276178,1879699,0.870117,-0.012207,-0.437500,2.134146,-5.670732,-1.890244,16.493750,-35.762501,-0.068750,0.0,1.000000,0.000000,0.000000,0.000000
1782117380.286178,1879709,0.875977,-0.009766,-0.423340,0.975610,-6.219512,-2.256098,16.525000,-35.706249,-0.093750,0.0,1.000000,0.000000,0.000000,0.000000
1782117380.296178,1879719,0.891602,-0.017090,-0.406738,0.121951,-6.707317,-2.804878,16.525000,-35.706249,-0.093750,0.0,1.000000,0.000000,0.000000,0.000000
1782117380.306178,1879729,0.921875,-0.021973,-0.395020,-0.609756,-6.829268,-3.170732,16.618750,-35.743752,-0.193750,0.0,1.000000,0.000000,0.000000,0.000000
1782117380.316178,1879739,0.940918,-0.025879,-0.390137,-1.280488,-5.853659,-3.109756,16.618750,-35.743752,-0.193750,0.0,1.000000,0.000000,0.000000,0.000000
1782117380.326178,1879749,0.954590,-0.028809,-0.384277,-1.402439,-4.451220,-2.804878,16.650000,-35.750000,-0.262500,0.0,1.000000,0.000000,0.000000,0.000000
1782117380.336178,1879759,0.961914,-0.039062,-0.373535,-0.487805,-3.109756,-2.378049,16.650000,-35.750000,-0.262500,0.0,1.000000,0.000000,0.000000,0.000000
1782117380.347178,1879770,0.973633,-0.041504,-0.361816,0.975610,-2.439024,-1.768293,16.737501,-35.625000,-0.306250,0.0,1.000000,0.000000,0.000000,0.000000
1782117380.356178,1879779,0.985352,-0.031738,-0.358398,1.707317,-0.792683,-1.158537,16.737501,-35.625000,-0.306250,0.0,1.000000,0.000000,0.000000,0.000000
1782117380.366178,1879789,0.968262,-0.019043,-0.357910,1.951220,1.707317,-0.975610,16.756250,-35.762501,-0.306250,0.0,1.000000,0.000000,0.000000,0.000000
1782117380.376178,1879799,0.940918,-0.023438,-0.372070,1.463415,2.804878,-0.731707,16.756250,-35.762501,-0.306250,0.0,1.000000,0.000000,0.000000,0.000000
1782117380.387178,1879810,0.926270,-0.023438,-0.391602,0.426829,2.743902,-0.304878,16.750000,-35.725002,-0.262500,0.0,1.000000,0.000000,0.000000,0.000000
1782117380.396178,1879819,0.925293,-0.016113,-0.415527,-0.914634,3.048780,-0.060976,16.750000,-35.725002,-0.262500,0.0,1.000000,0.000000,0.000000,0.000000
1782117380.406178,1879829,0.916016,-0.006348,-0.436523,-2.621951,3.597561,0.548781,16.687500,-35.731251,-0.212500,0.0,1.000000,0.000000,0.000000,0.000000
1782117380.416178,1879839,0.908691,0.005371,-0.453125,-5.060976,3.475610,1.463415,16.687500,-35.731251,-0.212500,0.0,1.000000,0.000000,0.000000,0.000000
1782117380.427178,1879850,0.894043,0.023926,-0.458496,-8.170732,3.658537,2.256098,16.756250,-35.750000,-0.125000,0.0,1.000000,0.000000,0.000000,0.000000
1782117380.436178,1879859,0.877930,0.042480,-0.457520,-11.951220,3.170732,3.048780,16.756250,-35.750000,-0.125000,0.0,1.000000,0.000000,0.000000,0.000000
1782117380.446178,1879869,0.867676,0.049805,-0.457520,-15.914635,1.890244,3.719512,16.731251,-35.793751,0.012500,0.0,1.000000,0.000000,0.000000,0.000000
1782117380.456178,1879879,0.861816,0.041504,-0.453125,-18.719513,0.670732,3.658537,16.731251,-35.793751,0.012500,0.0,1.000000,0.000000,0.000000,0.000000
1782117380.467178,1879890,0.865234,0.017578,-0.456055,-18.719513,-0.487805,2.804878,16.693750,-35.893749,0.162500,0.0,1.000000,0.000000,0.000000,0.000000
1782117380.476178,1879899,0.881836,-0.012207,-0.457031,-16.524391,-0.975610,2.134146,16.693750,-35.893749,0.162500,0.0,1.000000,0.000000,0.000000,0.000000
1782117380.486178,1879909,0.894531,-0.041504,-0.451172,-13.170732,-0.304878,1.463415,16.756250,-35.918751,0.268750,0.0,1.000000,0.000000,0.000000,0.000000
1782117380.498178,1879921,0.898926,-0.061523,-0.440430,-9.756098,0.304878,1.280488,16.756250,-35.918751,0.268750,0.0,1.000000,0.000000,0.000000,0.000000
1782117380.507178,1879930,0.910156,-0.062988,-0.429688,-7.256098,0.182927,1.585366,16.768751,-35.956249,0.393750,0.0,1.000000,0.000000,0.000000,0.000000
1782117380.516178,1879939,0.923828,-0.052734,-0.419434,-6.097561,0.365854,1.768293,16.768751,-35.956249,0.393750,0.0,1.000000,0.000000,0.000000,0.000000
1782117380.527178,1879950,0.935547,-0.043457,-0.407715,-5.487805,1.097561,1.646341,16.656250,-36.006252,0.481250,0.0,1.000000,0.000000,0.000000,0.000000
1782117380.536178,1879959,0.941895,-0.033691,-0.395996,-5.243903,2.621951,1.646341,16.656250,-36.006252,0.481250,0.0,1.000000,0.000000,0.000000,0.000000
1782117380.547178,1879970,0.936523,-0.032227,-0.386230,-5.000000,3.780488,1.463415,16.693750,-36.000000,0.550000,0.0,1.000000,0.000000,0.000000,0.000000
1782117380.556178,1879979,0.936035,-0.028320,-0.389160,-4.390244,4.329268,1.219512,16.693750,-36.000000,0.550000,0.0,1.000000,0.000000,0.000000,0.000000
1782117380.567178,1879990,0.934082,-0.019043,-0.397461,-4.512195,5.060976,1.585366,16.812500,-35.787502,0.581250,0.0,1.000000,0.000000,0.000000,0.000000
1782117380.576178,1879999,0.927734,-0.007812,-0.405273,-5.060976,5.365854,2.073171,16.812500,-35.787502,0.581250,0.0,1.000000,0.000000,0.000000,0.000000
1782117380.587178,1880010,0.926758,0.002930,-0.414062,-6.463415,5.182927,3.109756,16.681250,-36.006252,0.781250,0.0,1.000000,0.000000,0.000000,0.000000
1782117380.596178,1880019,0.919434,0.020508,-0.419922,-8.963415,5.426829,4.024390,16.681250,-36.006252,0.781250,0.0,1.000000,0.000000,0.000000,0.000000
1782117380.607178,1880030,0.908691,0.036133,-0.420898,-12.256098,5.121951,5.000000,16.618750,-36.100002,0.956250,0.0,1.000000,0.000000,0.000000,0.000000
1782117380.617178,1880040,0.898926,0.042480,-0.423828,-15.731708,4.512195,5.609756,16.618750,-36.100002,0.956250,0.0,1.000000,0.000000,0.000000,0.000000
1782117380.629178,1880052,0.892090,0.045410,-0.425781,-18.719513,3.719512,5.792683,16.531250,-36.131252,1.112500,0.0,1.000000,0.000000,0.000000,0.000000
1782117380.637178,1880060,0.894043,0.046387,-0.421875,-20.853659,3.170732,5.731708,16.531250,-36.131252,1.112500,0.0,1.000000,0.000000,0.000000,0.000000
1782117380.647178,1880070,0.895020,0.035645,-0.421387,-22.073172,2.926829,5.426829,16.543751,-36.187500,1.343750,0.0,1.000000,0.000000,0.000000,0.000000
1782117380.657178,1880080,0.896484,0.019043,-0.423340,-22.500000,2.682927,5.243903,16.543751,-36.187500,1.343750,0.0,1.000000,0.000000,0.000000,0.000000
1782117380.670178,1880093,0.892578,-0.020508,-0.434570,-20.182928,1.402439,4.268293,16.468750,-36.174999,1.537500,0.0,1.000000,0.000000,0.000000,0.000000
1782117380.676178,1880099,0.892578,-0.020508,-0.434570,-20.182928,1.402439,4.268293,16.468750,-36.174999,1.537500,0.0,1.000000,0.000000,0.000000,0.000000
1782117380.686178,1880109,0.902344,-0.036621,-0.436035,-18.048780,0.914634,3.902439,16.493750,-36.212502,1.662500,0.0,1.000000,0.000000,0.000000,0.000000
1782117380.696178,1880119,0.912109,-0.049316,-0.436035,-15.243903,1.097561,3.414634,16.493750,-36.212502,1.662500,0.0,1.000000,0.000000,0.000000,0.000000
1782117380.707178,1880130,0.914551,-0.065430,-0.431152,-11.829268,1.707317,3.170732,16.387501,-36.343750,1.893750,0.0,1.000000,0.000000,0.000000,0.000000
1782117380.716178,1880139,0.911621,-0.074707,-0.421387,-7.865854,2.195122,2.743902,16.387501,-36.343750,1.893750,0.0,1.000000,0.000000,0.000000,0.000000
1782117380.726178,1880149,0.906250,-0.080078,-0.409668,-3.841464,2.560976,2.073171,16.575001,-36.049999,1.750000,0.0,1.000000,0.000000,0.000000,0.000000
1782117380.736178,1880159,0.905273,-0.077148,-0.403809,-0.914634,2.256098,1.219512,16.575001,-36.049999,1.750000,0.0,1.000000,0.000000,0.000000,0.000000
1782117380.751178,1880174,0.908691,-0.066895,-0.403809,1.097561,1.951220,0.487805,16.368750,-36.400002,2.006250,0.0,1.000000,0.000000,0.000000,0.000000
1782117380.756178,1880179,0.907227,-0.051758,-0.406250,2.804878,1.646341,-0.121951,16.368750,-36.400002,2.006250,0.0,1.000000,0.000000,0.000000,0.000000
1782117380.766178,1880189,0.908691,-0.035645,-0.409180,4.146341,0.853659,-0.609756,16.406250,-36.306252,1.906250,0.0,1.000000,0.000000,0.000000,0.000000
1782117380.776178,1880199,0.909180,-0.019531,-0.403320,4.695122,0.121951,-0.792683,16.406250,-36.306252,1.906250,0.0,1.000000,0.000000,0.000000,0.000000
1782117380.788178,1880211,0.907227,0.006836,-0.392090,3.841464,-0.975610,-0.731707,16.375000,-36.431252,1.925000,0.0,1.000000,0.000000,0.000000,0.000000
1782117380.796178,1880219,0.907227,0.006836,-0.392090,3.841464,-0.975610,-0.731707,16.375000,-36.431252,1.925000,0.0,1.000000,0.000000,0.000000,0.000000
1782117380.806178,1880229,0.908691,0.013672,-0.390625,2.865854,-1.646341,-0.853659,16.431250,-36.400002,1.900000,0.0,1.000000,0.000000,0.000000,0.000000
1782117380.816178,1880239,0.908691,0.014648,-0.390625,1.768293,-2.195122,-0.975610,16.431250,-36.400002,1.900000,0.0,1.000000,0.000000,0.000000,0.000000
1782117380.829178,1880252,0.908691,0.000488,-0.386230,0.975610,-3.109756,-1.036585,16.418751,-36.393749,1.875000,0.0,1.000000,0.000000,0.000000,0.000000
1782117380.837178,1880260,0.913574,-0.011719,-0.388184,1.097561,-3.597561,-1.219512,16.418751,-36.393749,1.875000,0.0,1.000000,0.000000,0.000000,0.000000
1782117380.846178,1880269,0.919922,-0.023438,-0.395508,1.707317,-3.658537,-1.646341,16.475000,-36.331249,1.775000,0.0,1.000000,0.000000,0.000000,0.000000
1782117380.856178,1880279,0.924316,-0.034180,-0.403320,2.804878,-3.597561,-1.890244,16.475000,-36.331249,1.775000,0.0,1.000000,0.000000,0.000000,0.000000
1782117380.868178,1880291,0.924316,-0.041504,-0.402832,4.268293,-3.109756,-2.073171,16.587500,-36.193752,1.606250,0.0,1.000000,0.000000,0.000000,0.000000
1782117380.877178,1880300,0.923340,-0.046387,-0.403320,5.792683,-2.439024,-2.012195,16.587500,-36.193752,1.606250,0.0,1.000000,0.000000,0.000000,0.000000
1782117380.887178,1880310,0.921875,-0.048828,-0.405762,7.500000,-2.134146,-2.256098,16.525000,-36.406250,1.700000,0.0,1.000000,0.000000,0.000000,0.000000
1782117380.896178,1880319,0.925293,-0.037598,-0.409180,8.963415,-1.768293,-2.560976,16.525000,-36.406250,1.700000,0.0,1.000000,0.000000,0.000000,0.000000
1782117380.909178,1880332,0.924316,-0.029785,-0.419922,9.390244,-1.707317,-2.439024,16.550001,-36.343750,1.575000,0.0,1.000000,0.000000,0.000000,0.000000
1782117380.916178,1880339,0.920898,-0.026855,-0.426758,10.426829,-1.341463,-2.621951,16.550001,-36.343750,1.575000,0.0,1.000000,0.000000,0.000000,0.000000
1782117380.926178,1880349,0.914062,-0.022461,-0.422363,11.524390,-1.463415,-2.682927,16.600000,-36.325001,1.512500,0.0,1.000000,0.000000,0.000000,0.000000
1782117380.936178,1880359,0.913574,-0.018066,-0.414551,11.829268,-1.707317,-2.317073,16.600000,-36.325001,1.512500,0.0,1.000000,0.000000,0.000000,0.000000
1782117380.947178,1880370,0.907715,-0.005371,-0.410645,11.036586,-1.585366,-1.768293,16.625000,-36.225002,1.343750,0.0,1.000000,0.000000,0.000000,0.000000
1782117380.956178,1880379,0.902344,0.003906,-0.414551,9.451220,-1.646341,-1.402439,16.625000,-36.225002,1.343750,0.0,1.000000,0.000000,0.000000,0.000000
1782117380.966178,1880389,0.897949,0.017578,-0.420410,7.682927,-1.890244,-1.097561,16.550001,-36.318752,1.231250,0.0,1.000000,0.000000,0.000000,0.000000
1782117380.976178,1880399,0.902344,0.025391,-0.425781,5.853659,-2.195122,-0.975610,16.550001,-36.318752,1.231250,0.0,1.000000,0.000000,0.000000,0.000000
1782117380.990178,1880413,0.911133,0.031250,-0.428711,4.146341,-2.073171,-0.853659,16.631250,-36.181252,1.112500,0.0,1.000000,0.000000,0.000000,0.000000
1782117380.996178,1880419,0.917969,0.027832,-0.425781,2.317073,-1.219512,-0.304878,16.631250,-36.181252,1.112500,0.0,1.000000,0.000000,0.000000,0.000000
1782117381.006178,1880429,0.910645,0.019043,-0.420898,0.243902,-0.304878,0.731707,16.606251,-36.250000,1.075000,0.0,1.000000,0.000000,0.000000,0.000000
1782117381.016178,1880439,0.902832,0.013672,-0.418945,-1.646341,-0.060976,1.646341,16.606251,-36.250000,1.075000,0.0,1.000000,0.000000,0.000000,0.000000
1782117381.027178,1880450,0.901367,0.013184,-0.418457,-3.231707,-0.365854,1.463415,16.543751,-36.356251,1.168750,0.0,1.000000,0.000000,0.000000,0.000000
1782117381.036178,1880459,0.905762,0.001953,-0.428711,-4.756098,-0.426829,1.768293,16.543751,-36.356251,1.168750,0.0,1.000000,0.000000,0.000000,0.000000
1782117381.047178,1880470,0.900391,-0.006836,-0.435547,-5.121951,-0.487805,1.829268,16.537500,-36.325001,1.225000,0.0,1.000000,0.000000,0.000000,0.000000
1782117381.057178,1880480,0.897461,-0.016113,-0.435059,-4.390244,-0.792683,1.585366,16.537500,-36.325001,1.225000,0.0,1.000000,0.000000,0.000000,0.000000
1782117381.069178,1880492,0.901367,-0.022461,-0.435547,-3.170732,-1.097561,1.341463,16.518751,-36.381252,1.243750,0.0,1.000000,0.000000,0.000000,0.000000
1782117381.076178,1880499,0.903320,-0.024902,-0.438477,-2.012195,-1.036585,0.975610,16.518751,-36.381252,1.243750,0.0,1.000000,0.000000,0.000000,0.000000
1782117381.087178,1880510,0.902344,-0.022949,-0.439941,-0.914634,-0.914634,0.731707,16.556250,-36.343750,1.187500,0.0,1.000000,0.000000,0.000000,0.000000
1782117381.096178,1880519,0.899414,-0.021484,-0.438965,0.000000,-0.792683,0.731707,16.556250,-36.343750,1.187500,0.0,1.000000,0.000000,0.000000,0.000000
1782117381.106178,1880529,0.897461,-0.016113,-0.432617,0.609756,-0.853659,0.670732,16.506250,-36.262501,1.237500,0.0,1.000000,0.000000,0.000000,0.000000
1782117381.116178,1880539,0.899902,-0.013672,-0.427734,0.548781,-1.036585,0.609756,16.506250,-36.262501,1.237500,0.0,1.000000,0.000000,0.000000,0.000000
1782117381.126178,1880549,0.898438,-0.015625,-0.430176,0.365854,-0.731707,0.609756,16.531250,-36.318752,1.156250,0.0,1.000000,0.000000,0.000000,0.000000
1782117381.136178,1880559,0.894531,-0.013672,-0.435547,0.243902,-0.975610,0.609756,16.531250,-36.318752,1.156250,0.0,1.000000,0.000000,0.000000,0.000000
1782117381.146178,1880569,0.895020,-0.013672,-0.433105,0.000000,-1.463415,0.426829,16.506250,-36.406250,1.218750,0.0,1.000000,0.000000,0.000000,0.000000
1782117381.156178,1880579,0.898926,-0.016113,-0.431152,-0.243902,-1.768293,0.304878,16.506250,-36.406250,1.218750,0.0,1.000000,0.000000,0.000000,0.000000
1782117381.166178,1880589,0.902344,-0.017090,-0.427734,-0.487805,-1.646341,0.365854,16.493750,-36.337502,1.150000,0.0,1.000000,0.000000,0.000000,0.000000
1782117381.176178,1880599,0.907227,-0.014648,-0.425781,-0.975610,-1.341463,0.426829,16.493750,-36.337502,1.150000,0.0,1.000000,0.000000,0.000000,0.000000
1782117381.186178,1880609,0.909180,-0.014648,-0.428223,-1.646341,-0.914634,0.487805,16.443750,-36.412502,1.175000,0.0,1.000000,0.000000,0.000000,0.000000
1782117381.196178,1880619,0.908203,-0.014160,-0.431152,-2.134146,-0.548781,0.487805,16.443750,-36.412502,1.175000,0.0,1.000000,0.000000,0.000000,0.000000
1782117381.206178,1880629,0.904785,-0.016113,-0.434082,-2.195122,-0.365854,0.426829,16.437500,-36.375000,1.206250,0.0,1.000000,0.000000,0.000000,0.000000
1782117381.216178,1880639,0.905273,-0.018066,-0.435547,-2.134146,-0.487805,0.365854,16.437500,-36.375000,1.206250,0.0,1.000000,0.000000,0.000000,0.000000
1782117381.226178,1880649,0.905762,-0.020996,-0.439941,-2.012195,-0.365854,0.304878,16.493750,-36.350002,1.131250,0.0,1.000000,0.000000,0.000000,0.000000
1782117381.237178,1880660,0.901855,-0.024902,-0.445801,-1.707317,0.000000,0.304878,16.493750,-36.350002,1.131250,0.0,1.000000,0.000000,0.000000,0.000000
1782117381.246178,1880669,0.896973,-0.027832,-0.450195,-1.280488,0.060976,0.426829,16.593750,-36.118752,1.068750,0.0,1.000000,0.000000,0.000000,0.000000
1782117381.256178,1880679,0.894043,-0.025879,-0.450684,-0.853659,0.000000,0.487805,16.593750,-36.118752,1.068750,0.0,1.000000,0.000000,0.000000,0.000000
1782117381.267178,1880690,0.894043,-0.017578,-0.448730,-0.548781,0.121951,0.487805,16.418751,-36.424999,1.206250,0.0,1.000000,0.000000,0.000000,0.000000
1782117381.277178,1880700,0.884766,-0.015137,-0.448242,-0.243902,0.548781,0.060976,16.418751,-36.424999,1.206250,0.0,1.000000,0.000000,0.000000,0.000000
1782117381.286178,1880709,0.889160,-0.016113,-0.448242,-0.121951,0.365854,0.182927,16.462500,-36.337502,1.193750,0.0,1.000000,0.000000,0.000000,0.000000
1782117381.296178,1880719,0.891113,-0.012207,-0.444824,-0.304878,0.243902,0.121951,16.462500,-36.337502,1.193750,0.0,1.000000,0.000000,0.000000,0.000000
1782117381.309178,1880732,0.893066,-0.009277,-0.444336,-0.792683,0.243902,0.000000,16.412500,-36.462502,1.175000,0.0,1.000000,0.000000,0.000000,0.000000
1782117381.318178,1880741,0.899414,-0.008789,-0.443359,-1.402439,0.426829,0.121951,16.412500,-36.462502,1.175000,0.0,1.000000,0.000000,0.000000,0.000000
1782117381.326178,1880749,0.895508,-0.010742,-0.440430,-1.707317,0.609756,-0.060976,16.487501,-36.331249,1.200000,0.0,1.000000,0.000000,0.000000,0.000000
1782117381.336178,1880759,0.894531,-0.014160,-0.440918,-1.768293,0.731707,-0.060976,16.487501,-36.331249,1.200000,0.0,1.000000,0.000000,0.000000,0.000000
1782117381.346178,1880769,0.897461,-0.014648,-0.439941,-1.524390,0.548781,0.000000,16.375000,-36.418751,1.212500,0.0,1.000000,0.000000,0.000000,0.000000
1782117381.356178,1880779,0.897949,-0.016113,-0.438965,-1.280488,0.487805,0.000000,16.375000,-36.418751,1.212500,0.0,1.000000,0.000000,0.000000,0.000000
1782117381.366178,1880789,0.895020,-0.016113,-0.436523,-1.158537,0.365854,-0.060976,16.412500,-36.406250,1.306250,0.0,1.000000,0.000000,0.000000,0.000000
1782117381.376178,1880799,0.897949,-0.018555,-0.436523,-1.036585,0.121951,-0.243902,16.412500,-36.406250,1.306250,0.0,1.000000,0.000000,0.000000,0.000000
1782117381.386178,1880809,0.901367,-0.018555,-0.437012,-0.975610,0.243902,-0.365854,16.387501,-36.462502,1.268750,0.0,1.000000,0.000000,0.000000,0.000000
1782117381.397178,1880820,0.900879,-0.017578,-0.438477,-0.853659,0.426829,-0.548781,16.443750,-36.387501,1.281250,0.0,1.000000,0.000000,0.000000,0.000000
1782117381.406178,1880829,0.899902,-0.021973,-0.437012,-0.243902,0.548781,-0.792683,16.443750,-36.387501,1.281250,0.0,1.000000,0.000000,0.000000,0.000000
1782117381.416178,1880839,0.901855,-0.023926,-0.437500,0.609756,0.426829,-0.853659,16.443750,-36.387501,1.281250,0.0,1.000000,0.000000,0.000000,0.000000
1782117381.427178,1880850,0.902832,-0.022949,-0.434082,1.158537,0.365854,-0.975610,16.368750,-36.525002,1.387500,0.0,1.000000,0.000000,0.000000,0.000000
1782117381.436178,1880859,0.903809,-0.020508,-0.435059,1.463415,0.304878,-1.036585,16.368750,-36.525002,1.387500,0.0,1.000000,0.000000,0.000000,0.000000
1782117381.446178,1880869,0.904297,-0.017578,-0.430176,1.829268,0.182927,-1.097561,16.450001,-36.368752,1.318750,0.0,1.000000,0.000000,0.000000,0.000000
1782117381.457178,1880880,0.903809,-0.017090,-0.425781,2.073171,0.182927,-1.219512,16.450001,-36.368752,1.318750,0.0,1.000000,0.000000,0.000000,0.000000
1782117381.467178,1880890,0.906250,-0.014160,-0.424316,2.073171,0.182927,-1.219512,16.393751,-36.456249,1.381250,0.0,1.000000,0.000000,0.000000,0.000000
1782117381.477178,1880900,0.909668,-0.009277,-0.422852,1.890244,0.426829,-1.219512,16.668751,-35.987499,1.087500,0.0,1.000000,0.000000,0.000000,0.000000
1782117381.487178,1880910,0.912109,-0.004395,-0.422852,1.524390,0.487805,-1.158537,16.668751,-35.987499,1.087500,0.0,1.000000,0.000000,0.000000,0.000000
1782117381.496178,1880919,0.910156,-0.000977,-0.422852,1.036585,0.670732,-0.914634,16.668751,-35.987499,1.087500,0.0,1.000000,0.000000,0.000000,0.000000
1782117381.506178,1880929,0.911621,-0.000977,-0.419922,0.487805,0.731707,-0.731707,16.443750,-36.424999,1.312500,0.0,1.000000,0.000000,0.000000,0.000000
1782117381.516178,1880939,0.910156,-0.002930,-0.416992,-0.060976,0.914634,-0.487805,16.443750,-36.424999,1.312500,0.0,1.000000,0.000000,0.000000,0.000000
1782117381.526178,1880949,0.908691,-0.004883,-0.417480,-0.731707,1.036585,-0.304878,16.437500,-36.343750,1.262500,0.0,1.000000,0.000000,0.000000,0.000000
1782117381.536178,1880959,0.908691,-0.007324,-0.418945,-1.219512,1.158537,-0.182927,16.437500,-36.343750,1.262500,0.0,1.000000,0.000000,0.000000,0.000000
1782117381.546178,1880969,0.907227,-0.010254,-0.419922,-1.585366,1.341463,-0.060976,16.568750,-36.200001,1.206250,0.0,1.000000,0.000000,0.000000,0.000000
1782117381.556178,1880979,0.907227,-0.014648,-0.422363,-1.829268,1.402439,-0.060976,16.568750,-36.200001,1.206250,0.0,1.000000,0.000000,0.000000,0.000000
1782117381.566178,1880989,0.909180,-0.014160,-0.425293,-1.829268,1.646341,0.000000,16.425001,-36.431252,1.381250,0.0,1.000000,0.000000,0.000000,0.000000
1782117381.576178,1880999,0.906250,-0.015625,-0.426270,-1.768293,1.829268,0.000000,16.500000,-36.243752,1.350000,0.0,1.000000,0.000000,0.000000,0.000000
1782117381.586178,1881009,0.904297,-0.015625,-0.426270,-1.585366,1.829268,0.000000,16.500000,-36.243752,1.350000,0.0,1.000000,0.000000,0.000000,0.000000
1782117381.596178,1881019,0.903320,-0.017090,-0.425781,-1.463415,1.646341,-0.060976,16.487501,-36.393749,1.456250,0.0,1.000000,0.000000,0.000000,0.000000
1782117381.606178,1881029,0.902344,-0.016113,-0.427734,-1.280488,1.402439,-0.060976,16.487501,-36.393749,1.456250,0.0,1.000000,0.000000,0.000000,0.000000
1782117381.616178,1881039,0.903809,-0.016113,-0.426270,-0.914634,1.219512,-0.121951,16.406250,-36.437500,1.556250,0.0,1.000000,0.000000,0.000000,0.000000
1782117381.626178,1881049,0.905762,-0.015137,-0.425293,-0.548781,1.219512,-0.182927,16.406250,-36.437500,1.556250,0.0,1.000000,0.000000,0.000000,0.000000
1782117381.637178,1881060,0.904785,-0.012207,-0.423828,-0.365854,1.341463,-0.243902,16.425001,-36.356251,1.500000,0.0,1.000000,0.000000,0.000000,0.000000
1782117381.646178,1881069,0.904297,-0.011719,-0.422852,-0.243902,1.402439,-0.304878,16.425001,-36.356251,1.500000,0.0,1.000000,0.000000,0.000000,0.000000
1782117381.656178,1881079,0.905273,-0.010254,-0.423340,-0.304878,1.341463,-0.426829,16.431250,-36.356251,1.518750,0.0,1.000000,0.000000,0.000000,0.000000
1782117381.666178,1881089,0.906250,-0.012207,-0.421387,-0.304878,1.280488,-0.365854,16.431250,-36.356251,1.518750,0.0,1.000000,0.000000,0.000000,0.000000
1782117381.676178,1881099,0.908691,-0.013184,-0.419922,-0.304878,1.402439,-0.426829,16.400000,-36.337502,1.537500,0.0,1.000000,0.000000,0.000000,0.000000
1782117381.686178,1881109,0.910645,-0.016602,-0.418457,-0.304878,1.341463,-0.365854,16.400000,-36.337502,1.537500,0.0,1.000000,0.000000,0.000000,0.000000
1782117381.696178,1881119,0.909668,-0.017090,-0.417969,-0.243902,1.463415,-0.243902,16.375000,-36.525002,1.631250,0.0,1.000000,0.000000,0.000000,0.000000
1782117381.707178,1881130,0.909668,-0.018066,-0.419922,-0.243902,1.524390,-0.121951,16.375000,-36.525002,1.631250,0.0,1.000000,0.000000,0.000000,0.000000
1782117381.718178,1881141,0.908691,-0.014648,-0.418945,-0.121951,1.707317,-0.060976,16.406250,-36.424999,1.687500,0.0,1.000000,0.000000,0.000000,0.000000
1782117381.726178,1881149,0.908691,-0.014648,-0.418945,-0.121951,1.707317,-0.060976,16.406250,-36.424999,1.687500,0.0,1.000000,0.000000,0.000000,0.000000
1782117381.736178,1881159,0.911133,-0.013184,-0.420898,-0.121951,1.768293,-0.121951,16.418751,-36.437500,1.675000,0.0,1.000000,0.000000,0.000000,0.000000
1782117381.746178,1881169,0.907227,-0.007812,-0.418945,-0.243902,2.134146,0.000000,16.418751,-36.437500,1.675000,0.0,1.000000,0.000000,0.000000,0.000000
1782117381.756178,1881179,0.906738,-0.005371,-0.420410,-0.487805,2.134146,0.000000,16.343750,-36.400002,1.675000,0.0,1.000000,0.000000,0.000000,0.000000
1782117381.766178,1881189,0.904785,-0.002930,-0.422852,-0.670732,2.073171,0.000000,16.343750,-36.400002,1.675000,0.0,1.000000,0.000000,0.000000,0.000000
1782117381.776178,1881199,0.904297,-0.000977,-0.423340,-0.792683,2.012195,0.060976,16.706251,-35.887501,1.468750,0.0,1.000000,0.000000,0.000000,0.000000
1782117381.786178,1881209,0.904785,-0.002441,-0.425293,-0.914634,1.951220,0.060976,16.706251,-35.887501,1.468750,0.0,1.000000,0.000000,0.000000,0.000000
1782117381.797178,1881220,0.904297,-0.004395,-0.423828,-0.975610,2.012195,0.000000,16.387501,-36.356251,1.768750,0.0,1.000000,0.000000,0.000000,0.000000
1782117381.806178,1881229,0.903320,-0.006348,-0.425293,-1.036585,1.890244,0.182927,16.387501,-36.356251,1.768750,0.0,1.000000,0.000000,0.000000,0.000000
1782117381.816178,1881239,0.901855,-0.006348,-0.425293,-1.097561,1.890244,0.243902,16.487501,-36.200001,1.687500,0.0,1.000000,0.000000,0.000000,0.000000
1782117381.826178,1881249,0.901367,-0.008301,-0.423340,-1.158537,1.829268,0.182927,16.487501,-36.200001,1.687500,0.0,1.000000,0.000000,0.000000,0.000000
1782117381.837178,1881260,0.902344,-0.009766,-0.422852,-1.341463,1.707317,0.121951,16.318750,-36.406250,1.918750,0.0,1.000000,0.000000,0.000000,0.000000
1782117381.846178,1881269,0.901367,-0.012695,-0.425293,-1.402439,1.768293,0.121951,16.318750,-36.406250,1.918750,0.0,1.000000,0.000000,0.000000,0.000000
1782117381.856178,1881279,0.902832,-0.013672,-0.421875,-1.646341,1.768293,0.121951,16.325001,-36.456249,1.893750,0.0,1.000000,0.000000,0.000000,0.000000
1782117381.867178,1881290,0.902344,-0.014648,-0.422363,-1.524390,1.707317,0.182927,16.325001,-36.456249,1.893750,0.0,1.000000,0.000000,0.000000,0.000000
1782117381.876178,1881299,0.904785,-0.014648,-0.420410,-1.158537,1.707317,0.182927,16.450001,-36.250000,1.793750,0.0,1.000000,0.000000,0.000000,0.000000
1782117381.886178,1881309,0.906738,-0.016113,-0.418457,-0.609756,1.707317,0.121951,16.450001,-36.250000,1.793750,0.0,1.000000,0.000000,0.000000,0.000000
1782117381.896178,1881319,0.908203,-0.016602,-0.416992,-0.182927,1.646341,0.121951,16.331251,-36.393749,1.981250,0.0,1.000000,0.000000,0.000000,0.000000
1782117381.906178,1881329,0.910645,-0.016602,-0.414062,0.121951,1.829268,0.000000,16.331251,-36.393749,1.981250,0.0,1.000000,0.000000,0.000000,0.000000
1782117381.917178,1881340,0.909668,-0.019043,-0.412109,0.365854,1.951220,0.000000,16.375000,-36.375000,1.912500,0.0,1.000000,0.000000,0.000000,0.000000
1782117381.926178,1881349,0.909668,-0.019531,-0.410645,0.609756,1.829268,-0.060976,16.375000,-36.375000,1.912500,0.0,1.000000,0.000000,0.000000,0.000000
1782117381.936178,1881359,0.911133,-0.017578,-0.411133,0.853659,1.585366,-0.182927,16.343750,-36.362499,1.987500,0.0,1.000000,0.000000,0.000000,0.000000
1782117381.946178,1881369,0.912109,-0.018555,-0.410156,1.036585,1.646341,-0.365854,16.343750,-36.362499,1.987500,0.0,1.000000,0.000000,0.000000,0.000000
1782117381.958178,1881381,0.912109,-0.018555,-0.412598,1.097561,1.402439,-0.609756,16.400000,-36.393749,1.968750,0.0,1.000000,0.000000,0.000000,0.000000
1782117381.966178,1881389,0.913086,-0.017578,-0.411621,1.463415,1.219512,-0.731707,16.400000,-36.393749,1.968750,0.0,1.000000,0.000000,0.000000,0.000000
1782117381.976178,1881399,0.907715,-0.018555,-0.413086,1.646341,1.219512,-0.853659,16.387501,-36.325001,2.018750,0.0,1.000000,0.000000,0.000000,0.000000
1782117381.986178,1881409,0.904785,-0.019043,-0.411621,1.890244,0.731707,-0.975610,16.387501,-36.325001,2.018750,0.0,1.000000,0.000000,0.000000,0.000000
1782117381.999178,1881422,0.907227,-0.018555,-0.410645,2.195122,0.182927,-1.097561,16.343750,-36.356251,2.043750,0.0,1.000000,0.000000,0.000000,0.000000
1782117382.006178,1881429,0.912109,-0.018555,-0.411133,2.378049,0.060976,-1.219512,16.343750,-36.356251,2.043750,0.0,1.000000,0.000000,0.000000,0.000000
1782117382.016178,1881439,0.914062,-0.019531,-0.409668,2.500000,0.243902,-1.280488,16.368750,-36.343750,2.056250,0.0,1.000000,0.000000,0.000000,0.000000
1782117382.026178,1881449,0.914062,-0.018066,-0.409668,2.439024,0.304878,-1.341463,16.368750,-36.343750,2.056250,0.0,1.000000,0.000000,0.000000,0.000000
1782117382.037178,1881460,0.916016,-0.018555,-0.406738,2.500000,0.365854,-1.341463,16.350000,-36.325001,1.975000,0.0,1.000000,0.000000,0.000000,0.000000
1782117382.046178,1881469,0.915039,-0.018555,-0.404785,2.743902,0.426829,-1.402439,16.350000,-36.325001,1.975000,0.0,1.000000,0.000000,0.000000,0.000000
1782117382.056178,1881479,0.916504,-0.020020,-0.405273,2.865854,0.487805,-1.524390,16.543751,-36.037502,1.918750,0.0,1.000000,0.000000,0.000000,0.000000
1782117382.066178,1881489,0.916992,-0.018555,-0.407227,2.987805,0.487805,-1.585366,16.543751,-36.037502,1.918750,0.0,1.000000,0.000000,0.000000,0.000000
1782117382.077178,1881500,0.916992,-0.014648,-0.409668,2.926829,0.609756,-1.524390,16.412500,-36.350002,2.006250,0.0,1.000000,0.000000,0.000000,0.000000
1782117382.087178,1881510,0.912109,-0.011230,-0.412109,2.682927,0.487805,-1.524390,16.412500,-36.350002,2.006250,0.0,1.000000,0.000000,0.000000,0.000000
1782117382.096178,1881519,0.912598,-0.007324,-0.412109,2.439024,0.182927,-1.402439,16.512501,-36.193752,1.875000,0.0,1.000000,0.000000,0.000000,0.000000
1782117382.106178,1881529,0.913574,-0.004883,-0.412109,2.012195,0.121951,-1.219512,16.512501,-36.193752,1.875000,0.0,1.000000,0.000000,0.000000,0.000000
1782117382.116178,1881539,0.909668,-0.002441,-0.411133,1.463415,0.121951,-1.036585,16.443750,-36.350002,1.975000,0.0,1.000000,0.000000,0.000000,0.000000
1782117382.126178,1881549,0.910645,-0.000977,-0.411133,0.914634,0.000000,-0.975610,16.443750,-36.350002,1.975000,0.0,1.000000,0.000000,0.000000,0.000000
1782117382.137178,1881560,0.911133,-0.002930,-0.411133,0.609756,0.060976,-0.975610,16.550001,-36.150002,1.887500,0.0,1.000000,0.000000,0.000000,0.000000
1782117382.146178,1881569,0.911621,-0.005371,-0.409180,0.487805,0.121951,-0.914634,16.550001,-36.150002,1.887500,0.0,1.000000,0.000000,0.000000,0.000000
1782117382.156178,1881579,0.912109,-0.008301,-0.409180,0.426829,0.121951,-0.853659,16.468750,-36.225002,1.912500,0.0,1.000000,0.000000,0.000000,0.000000
1782117382.167178,1881590,0.914551,-0.011719,-0.411621,0.487805,0.304878,-0.792683,16.468750,-36.225002,1.912500,0.0,1.000000,0.000000,0.000000,0.000000
1782117382.176178,1881599,0.912109,-0.016602,-0.412109,0.548781,0.426829,-0.731707,16.468750,-36.350002,2.006250,0.0,1.000000,0.000000,0.000000,0.000000
1782117382.186178,1881609,0.912109,-0.018555,-0.411133,0.609756,0.487805,-0.731707,16.468750,-36.350002,2.006250,0.0,1.000000,0.000000,0.000000,0.000000
1782117382.196178,1881619,0.913086,-0.020508,-0.410645,0.365854,0.487805,-0.731707,16.493750,-36.306252,2.031250,0.0,1.000000,0.000000,0.000000,0.000000
1782117382.206178,1881629,0.911621,-0.020508,-0.411133,0.365854,0.731707,-0.670732,16.493750,-36.306252,2.031250,0.0,1.000000,0.000000,0.000000,0.000000
1782117382.216178,1881639,0.910156,-0.018555,-0.411133,0.487805,0.731707,-0.670732,16.531250,-36.275002,2.037500,0.0,1.000000,0.000000,0.000000,0.000000
1782117382.226178,1881649,0.912109,-0.014648,-0.410645,0.609756,0.609756,-0.670732,16.531250,-36.275002,2.037500,0.0,1.000000,0.000000,0.000000,0.000000
1782117382.236178,1881659,0.913574,-0.014160,-0.408203,0.609756,0.548781,-0.609756,16.500000,-36.293751,2.000000,0.0,1.000000,0.000000,0.000000,0.000000
1782117382.247178,1881670,0.916504,-0.012207,-0.406738,0.609756,0.609756,-0.670732,16.500000,-36.293751,2.000000,0.0,1.000000,0.000000,0.000000,0.000000
1782117382.256178,1881679,0.917480,-0.011719,-0.404297,0.548781,0.670732,-0.609756,16.481251,-36.287502,2.018750,0.0,1.000000,0.000000,0.000000,0.000000
1782117382.266178,1881689,0.917480,-0.011230,-0.402832,0.487805,0.914634,-0.609756,16.481251,-36.287502,2.018750,0.0,1.000000,0.000000,0.000000,0.000000
1782117382.276178,1881699,0.916016,-0.012207,-0.404297,0.243902,1.036585,-0.609756,16.493750,-36.325001,2.050000,0.0,1.000000,0.000000,0.000000,0.000000
1782117382.286178,1881709,0.914551,-0.013184,-0.407715,-0.060976,1.036585,-0.548781,16.493750,-36.325001,2.050000,0.0,1.000000,0.000000,0.000000,0.000000
1782117382.296178,1881719,0.913086,-0.012207,-0.409668,-0.182927,0.914634,-0.548781,16.600000,-36.068752,1.981250,0.0,1.000000,0.000000,0.000000,0.000000
1782117382.307178,1881730,0.912598,-0.011719,-0.411621,-0.182927,0.731707,-0.609756,16.600000,-36.068752,1.981250,0.0,1.000000,0.000000,0.000000,0.000000
1782117382.316178,1881739,0.913574,-0.013184,-0.409180,-0.182927,0.731707,-0.609756,16.412500,-36.287502,2.125000,0.0,1.000000,0.000000,0.000000,0.000000
1782117382.326178,1881749,0.911133,-0.016602,-0.408691,-0.060976,0.853659,-0.548781,16.412500,-36.287502,2.125000,0.0,1.000000,0.000000,0.000000,0.000000
1782117382.336178,1881759,0.911133,-0.015625,-0.407227,0.121951,0.853659,-0.670732,16.556250,-36.306252,2.075000,0.0,1.000000,0.000000,0.000000,0.000000
1782117382.346178,1881769,0.912109,-0.016113,-0.410156,0.365854,0.975610,-0.792683,16.556250,-36.306252,2.075000,0.0,1.000000,0.000000,0.000000,0.000000
1782117382.356178,1881779,0.913574,-0.015625,-0.411133,0.609756,1.158537,-0.853659,16.487501,-36.318752,2.106250,0.0,1.000000,0.000000,0.000000,0.000000
1782117382.366178,1881789,0.913574,-0.015625,-0.411621,0.792683,1.341463,-0.853659,16.487501,-36.318752,2.106250,0.0,1.000000,0.000000,0.000000,0.000000
1782117382.376178,1881799,0.911133,-0.014648,-0.411621,0.914634,1.463415,-0.670732,16.531250,-36.287502,2.125000,0.0,1.000000,0.000000,0.000000,0.000000
1782117382.386178,1881809,0.909668,-0.012207,-0.412109,0.792683,1.402439,-0.548781,16.531250,-36.287502,2.125000,0.0,1.000000,0.000000,0.000000,0.000000
1782117382.397178,1881820,0.912598,-0.009277,-0.411133,0.609756,1.158537,-0.487805,16.531250,-36.206249,2.106250,0.0,1.000000,0.000000,0.000000,0.000000
1782117382.406178,1881829,0.913086,-0.007812,-0.410645,0.304878,1.158537,-0.365854,16.531250,-36.206249,2.106250,0.0,1.000000,0.000000,0.000000,0.000000
1782117382.416178,1881839,0.911621,-0.004883,-0.408203,-0.060976,1.158537,-0.243902,16.462500,-36.331249,2.206250,0.0,1.000000,0.000000,0.000000,0.000000
1782117382.426178,1881849,0.912109,-0.003906,-0.407227,-0.304878,1.097561,-0.243902,16.462500,-36.331249,2.206250,0.0,1.000000,0.000000,0.000000,0.000000
1782117382.436178,1881859,0.912109,-0.003906,-0.406250,-0.609756,1.219512,-0.304878,16.525000,-36.312500,2.243750,0.0,1.000000,0.000000,0.000000,0.000000
1782117382.446178,1881869,0.915039,-0.006348,-0.405762,-0.792683,1.341463,-0.304878,16.525000,-36.312500,2.243750,0.0,1.000000,0.000000,0.000000,0.000000
1782117382.457178,1881880,0.915527,-0.010254,-0.406738,-0.853659,1.402439,-0.243902,16.462500,-36.262501,2.231250,0.0,1.000000,0.000000,0.000000,0.000000
1782117382.466178,1881889,0.916504,-0.011719,-0.406738,-0.792683,1.524390,-0.243902,16.462500,-36.262501,2.231250,0.0,1.000000,0.000000,0.000000,0.000000
1782117382.476178,1881899,0.916016,-0.014160,-0.407715,-0.609756,1.524390,-0.243902,16.562500,-36.193752,2.225000,0.0,1.000000,0.000000,0.000000,0.000000
1782117382.486178,1881909,0.916504,-0.014648,-0.407227,-0.365854,1.646341,-0.243902,16.562500,-36.193752,2.225000,0.0,1.000000,0.000000,0.000000,0.000000
1782117382.497178,1881920,0.915039,-0.015137,-0.404785,-0.243902,1.768293,-0.060976,16.462500,-36.306252,2.312500,0.0,1.000000,0.000000,0.000000,0.000000
1782117382.507178,1881930,0.913086,-0.014160,-0.404785,-0.121951,1.829268,-0.060976,16.462500,-36.306252,2.312500,0.0,1.000000,0.000000,0.000000,0.000000
1782117382.517178,1881940,0.914062,-0.011719,-0.404297,-0.182927,1.951220,-0.060976,16.462500,-36.299999,2.337500,0.0,1.000000,0.000000,0.000000,0.000000
1782117382.527178,1881950,0.913086,-0.010742,-0.405762,-0.365854,2.012195,-0.121951,16.462500,-36.299999,2.337500,0.0,1.000000,0.000000,0.000000,0.000000
1782117382.536178,1881959,0.912598,-0.011719,-0.405273,-0.365854,2.012195,-0.121951,16.437500,-36.331249,2.375000,0.0,1.000000,0.000000,0.000000,0.000000
1782117382.547178,1881970,0.914551,-0.011230,-0.404297,-0.365854,1.951220,-0.121951,16.437500,-36.331249,2.375000,0.0,1.000000,0.000000,0.000000,0.000000
1782117382.556178,1881979,0.913574,-0.010254,-0.403809,-0.304878,1.951220,-0.182927,16.468750,-36.287502,2.425000,0.0,1.000000,0.000000,0.000000,0.000000
1782117382.566178,1881989,0.914551,-0.011230,-0.403809,-0.365854,1.951220,-0.243902,16.468750,-36.287502,2.425000,0.0,1.000000,0.000000,0.000000,0.000000
1782117382.576178,1881999,0.915527,-0.010254,-0.404785,-0.304878,2.073171,-0.304878,16.500000,-36.337502,2.487500,0.0,1.000000,0.000000,0.000000,0.000000
1782117382.586178,1882009,0.915527,-0.010742,-0.403809,-0.243902,2.134146,-0.304878,16.500000,-36.337502,2.487500,0.0,1.000000,0.000000,0.000000,0.000000
1782117382.596178,1882019,0.916016,-0.013184,-0.405762,0.000000,2.256098,-0.304878,16.487501,-36.362499,2.562500,0.0,1.000000,0.000000,0.000000,0.000000
1782117382.606178,1882029,0.914551,-0.014160,-0.408203,0.304878,2.317073,-0.426829,16.487501,-36.362499,2.562500,0.0,1.000000,0.000000,0.000000,0.000000
1782117382.616178,1882039,0.916016,-0.013672,-0.407227,0.670732,2.256098,-0.365854,16.475000,-36.262501,2.456250,0.0,1.000000,0.000000,0.000000,0.000000
1782117382.626178,1882049,0.916016,-0.013672,-0.403809,0.853659,2.317073,-0.365854,16.475000,-36.262501,2.456250,0.0,1.000000,0.000000,0.000000,0.000000
1782117382.636178,1882059,0.914551,-0.014160,-0.403320,0.914634,2.317073,-0.304878,16.481251,-36.312500,2.531250,0.0,1.000000,0.000000,0.000000,0.000000
1782117382.646178,1882069,0.915039,-0.014648,-0.401367,1.097561,2.500000,-0.304878,16.481251,-36.312500,2.531250,0.0,1.000000,0.000000,0.000000,0.000000
1782117382.657178,1882080,0.920898,-0.012207,-0.397949,1.524390,2.317073,-0.426829,16.475000,-36.318752,2.556250,0.0,1.000000,0.000000,0.000000,0.000000
1782117382.667178,1882090,0.922852,-0.012207,-0.398438,1.646341,2.621951,-0.426829,16.475000,-36.318752,2.556250,0.0,1.000000,0.000000,0.000000,0.000000
1782117382.677178,1882100,0.925781,-0.011719,-0.394043,1.768293,2.804878,-0.243902,16.393751,-36.293751,2.612500,0.0,1.000000,0.000000,0.000000,0.000000
1782117382.686178,1882109,0.926758,-0.009277,-0.386719,1.707317,3.353659,-0.121951,16.393751,-36.293751,2.612500,0.0,1.000000,0.000000,0.000000,0.000000
1782117382.696178,1882119,0.921387,-0.012695,-0.385254,1.585366,3.597561,0.000000,16.418751,-36.318752,2.631250,0.0,1.000000,0.000000,0.000000,0.000000
1782117382.706178,1882129,0.921875,-0.012207,-0.383789,1.341463,3.170732,0.121951,16.418751,-36.318752,2.631250,0.0,1.000000,0.000000,0.000000,0.000000
1782117382.716178,1882139,0.923828,-0.010254,-0.388184,0.731707,2.804878,0.243902,16.462500,-36.350002,2.700000,0.0,1.000000,0.000000,0.000000,0.000000
1782117382.726178,1882149,0.922363,-0.007324,-0.386719,0.365854,2.926829,0.304878,16.462500,-36.350002,2.700000,0.0,1.000000,0.000000,0.000000,0.000000
1782117382.736178,1882159,0.920410,-0.008301,-0.388672,0.121951,2.926829,0.365854,16.518751,-36.112499,2.625000,0.0,1.000000,0.000000,0.000000,0.000000
1782117382.746178,1882169,0.923828,-0.011719,-0.386230,-0.182927,2.865854,0.609756,16.518751,-36.112499,2.625000,0.0,1.000000,0.000000,0.000000,0.000000
1782117382.756178,1882179,0.925293,-0.011230,-0.384277,-0.487805,3.048780,0.914634,16.393751,-36.381252,2.812500,0.0,1.000000,0.000000,0.000000,0.000000
1782117382.766178,1882189,0.927246,-0.013184,-0.379883,-0.487805,2.987805,1.036585,16.393751,-36.381252,2.812500,0.0,1.000000,0.000000,0.000000,0.000000
1782117382.776178,1882199,0.927246,-0.014648,-0.378418,-0.731707,2.682927,1.158537,16.493750,-36.237499,2.787500,0.0,1.000000,0.000000,0.000000,0.000000
1782117382.786178,1882209,0.923828,-0.013672,-0.378906,-0.853659,2.682927,1.036585,16.493750,-36.237499,2.787500,0.0,1.000000,0.000000,0.000000,0.000000
1782117382.796178,1882219,0.918945,-0.015625,-0.379395,-0.548781,2.682927,0.792683,16.381250,-36.337502,2.925000,0.0,1.000000,0.000000,0.000000,0.000000
1782117382.806178,1882229,0.918457,-0.020508,-0.382812,-0.548781,2.195122,0.670732,16.381250,-36.337502,2.925000,0.0,1.000000,0.000000,0.000000,0.000000
1782117382.816178,1882239,0.921875,-0.022461,-0.383789,-0.304878,1.951220,0.426829,16.418751,-36.306252,2.912500,0.0,1.000000,0.000000,0.000000,0.000000
1782117382.826178,1882249,0.923828,-0.024414,-0.384277,-0.060976,2.012195,0.304878,16.418751,-36.306252,2.912500,0.0,1.000000,0.000000,0.000000,0.000000
1782117382.836178,1882259,0.922852,-0.027344,-0.386719,0.243902,2.195122,0.365854,16.343750,-36.387501,2.950000,0.0,1.000000,0.000000,0.000000,0.000000
1782117382.847178,1882270,0.920410,-0.021973,-0.390625,0.548781,2.073171,0.304878,16.343750,-36.387501,2.950000,0.0,1.000000,0.000000,0.000000,0.000000
1782117382.856178,1882279,0.921387,-0.014160,-0.390137,0.792683,1.951220,0.182927,16.462500,-36.125000,2.862500,0.0,1.000000,0.000000,0.000000,0.000000
1782117382.867178,1882290,0.922363,-0.007812,-0.386719,0.792683,1.951220,0.243902,16.462500,-36.125000,2.862500,0.0,1.000000,0.000000,0.000000,0.000000
1782117382.876178,1882299,0.919434,-0.004395,-0.384277,0.182927,2.073171,0.426829,16.287500,-36.381252,3.031250,0.0,1.000000,0.000000,0.000000,0.000000
1782117382.886178,1882309,0.910156,-0.003418,-0.385742,-0.609756,1.890244,0.731707,16.287500,-36.381252,3.031250,0.0,1.000000,0.000000,0.000000,0.000000
1782117382.896178,1882319,0.906738,-0.004395,-0.385742,-1.280488,1.158537,0.914634,16.400000,-36.299999,3.012500,0.0,1.000000,0.000000,0.000000,0.000000
1782117382.906178,1882329,0.909668,-0.006836,-0.385254,-1.646341,0.487805,0.914634,16.400000,-36.299999,3.012500,0.0,1.000000,0.000000,0.000000,0.000000
1782117382.917178,1882340,0.911621,-0.010742,-0.386719,-1.951220,-0.121951,0.853659,16.250000,-36.456249,3.062500,0.0,1.000000,0.000000,0.000000,0.000000
1782117382.927178,1882350,0.914551,-0.012695,-0.387207,-2.134146,-0.487805,0.853659,16.368750,-36.256252,3.018750,0.0,1.000000,0.000000,0.000000,0.000000
1782117382.936178,1882359,0.915527,-0.014160,-0.387207,-2.500000,-0.731707,0.670732,16.368750,-36.256252,3.018750,0.0,1.000000,0.000000,0.000000,0.000000
1782117382.947178,1882370,0.918457,-0.018555,-0.385742,-2.560976,-0.914634,0.548781,16.368750,-36.256252,3.018750,0.0,1.000000,0.000000,0.000000,0.000000
1782117382.956178,1882379,0.918945,-0.023926,-0.386230,-2.439024,-0.975610,0.304878,16.250000,-36.393749,3.125000,0.0,1.000000,0.000000,0.000000,0.000000
1782117382.966178,1882389,0.919434,-0.029297,-0.386719,-2.195122,-1.036585,0.121951,16.250000,-36.393749,3.125000,0.0,1.000000,0.000000,0.000000,0.000000
1782117382.976178,1882399,0.919922,-0.031250,-0.389160,-1.768293,-1.036585,0.000000,16.368750,-36.331249,3.037500,0.0,1.000000,0.000000,0.000000,0.000000
1782117382.986178,1882409,0.922852,-0.031250,-0.391113,-1.280488,-1.036585,-0.121951,16.368750,-36.331249,3.037500,0.0,1.000000,0.000000,0.000000,0.000000
1782117382.996178,1882419,0.923828,-0.029785,-0.390625,-0.487805,-1.097561,-0.243902,16.293751,-36.450001,3.131250,0.0,1.000000,0.000000,0.000000,0.000000
1782117383.007178,1882430,0.925781,-0.027832,-0.387207,0.121951,-1.219512,-0.243902,16.293751,-36.450001,3.131250,0.0,1.000000,0.000000,0.000000,0.000000
1782117383.016178,1882439,0.926270,-0.022461,-0.387207,0.487805,-1.158537,-0.121951,16.343750,-36.375000,3.056250,0.0,1.000000,0.000000,0.000000,0.000000
1782117383.026178,1882449,0.924316,-0.018555,-0.383301,0.548781,-0.975610,0.000000,16.343750,-36.375000,3.056250,0.0,1.000000,0.000000,0.000000,0.000000
1782117383.037178,1882460,0.919434,-0.014648,-0.384277,0.304878,-1.036585,0.121951,16.368750,-36.275002,2.937500,0.0,1.000000,0.000000,0.000000,0.000000
1782117383.046178,1882469,0.916992,-0.012207,-0.384277,0.060976,-1.097561,0.060976,16.368750,-36.275002,2.937500,0.0,1.000000,0.000000,0.000000,0.000000
1782117383.057178,1882480,0.914551,-0.012207,-0.385254,-0.243902,-1.402439,-0.060976,16.350000,-36.375000,3.000000,0.0,1.000000,0.000000,0.000000,0.000000
1782117383.066178,1882489,0.914551,-0.013184,-0.389648,-0.670732,-1.646341,-0.121951,16.350000,-36.375000,3.000000,0.0,1.000000,0.000000,0.000000,0.000000
1782117383.076178,1882499,0.917480,-0.014648,-0.392578,-0.914634,-1.829268,-0.243902,16.306250,-36.393749,3.062500,0.0,1.000000,0.000000,0.000000,0.000000
1782117383.087178,1882510,0.918945,-0.017090,-0.395508,-1.036585,-1.707317,-0.182927,16.293751,-36.412502,2.968750,0.0,1.000000,0.000000,0.000000,0.000000
1782117383.096178,1882519,0.918457,-0.020508,-0.396484,-0.975610,-1.707317,-0.060976,16.293751,-36.412502,2.968750,0.0,1.000000,0.000000,0.000000,0.000000
1782117383.106178,1882529,0.918457,-0.022461,-0.396484,-0.792683,-1.768293,-0.060976,16.293751,-36.412502,2.968750,0.0,1.000000,0.000000,0.000000,0.000000
1782117383.116178,1882539,0.921875,-0.022949,-0.395996,-0.426829,-1.707317,-0.304878,16.306250,-36.406250,2.975000,0.0,1.000000,0.000000,0.000000,0.000000
1782117383.126178,1882549,0.923340,-0.023438,-0.393555,-0.060976,-1.463415,-0.548781,16.306250,-36.406250,2.975000,0.0,1.000000,0.000000,0.000000,0.000000
1782117383.136178,1882559,0.925293,-0.025391,-0.390625,0.365854,-1.097561,-0.609756,16.343750,-36.318752,2.962500,0.0,1.000000,0.000000,0.000000,0.000000
1782117383.146178,1882569,0.922363,-0.026367,-0.390625,0.548781,-0.731707,-0.670732,16.275000,-36.437500,2.993750,0.0,1.000000,0.000000,0.000000,0.000000
1782117383.156178,1882579,0.919434,-0.023926,-0.388184,0.548781,-0.853659,-0.731707,16.275000,-36.437500,2.993750,0.0,1.000000,0.000000,0.000000,0.000000
1782117383.166178,1882589,0.919434,-0.024902,-0.386719,0.487805,-1.036585,-0.731707,16.318750,-36.400002,2.918750,0.0,1.000000,0.000000,0.000000,0.000000
1782117383.176178,1882599,0.920898,-0.023926,-0.388672,0.365854,-1.219512,-0.792683,16.318750,-36.400002,2.918750,0.0,1.000000,0.000000,0.000000,0.000000
1782117383.186178,1882609,0.923340,-0.021973,-0.390625,0.426829,-1.219512,-0.792683,16.331251,-36.393749,2.881250,0.0,1.000000,0.000000,0.000000,0.000000
1782117383.196178,1882619,0.924316,-0.020508,-0.390625,0.426829,-1.158537,-0.731707,16.331251,-36.393749,2.881250,0.0,1.000000,0.000000,0.000000,0.000000
1782117383.206178,1882629,0.923340,-0.019043,-0.389648,0.365854,-1.097561,-0.609756,16.318750,-36.412502,2.893750,0.0,1.000000,0.000000,0.000000,0.000000
1782117383.216178,1882639,0.925293,-0.015625,-0.389648,0.182927,-0.975610,-0.487805,16.318750,-36.412502,2.893750,0.0,1.000000,0.000000,0.000000,0.000000
1782117383.226178,1882649,0.924805,-0.013672,-0.387695,-0.060976,-0.914634,-0.426829,16.293751,-36.431252,2.931250,0.0,1.000000,0.000000,0.000000,0.000000
1782117383.236178,1882659,0.923340,-0.011719,-0.385742,-0.426829,-0.731707,-0.365854,16.293751,-36.431252,2.931250,0.0,1.000000,0.000000,0.000000,0.000000
1782117383.247178,1882670,0.920898,-0.012695,-0.385254,-0.792683,-0.548781,-0.426829,16.356251,-36.437500,2.893750,0.0,1.000000,0.000000,0.000000,0.000000
1782117383.256178,1882679,0.919922,-0.013184,-0.387207,-1.097561,-0.548781,-0.426829,16.356251,-36.437500,2.893750,0.0,1.000000,0.000000,0.000000,0.000000
1782117383.266178,1882689,0.919922,-0.016113,-0.391113,-1.402439,-0.609756,-0.426829,16.306250,-36.437500,2.937500,0.0,1.000000,0.000000,0.000000,0.000000
1782117383.276178,1882699,0.918945,-0.018066,-0.395020,-1.341463,-0.731707,-0.426829,16.306250,-36.437500,2.937500,0.0,1.000000,0.000000,0.000000,0.000000
1782117383.286178,1882709,0.917480,-0.020508,-0.396973,-1.097561,-0.731707,-0.426829,16.362501,-36.400002,2.862500,0.0,1.000000,0.000000,0.000000,0.000000
1782117383.296178,1882719,0.917969,-0.022461,-0.397949,-0.792683,-0.914634,-0.487805,16.362501,-36.400002,2.862500,0.0,1.000000,0.000000,0.000000,0.000000
1782117383.306178,1882729,0.917969,-0.023438,-0.398438,-0.487805,-0.853659,-0.548781,16.431250,-36.225002,2.775000,0.0,1.000000,0.000000,0.000000,0.000000
1782117383.316178,1882739,0.918457,-0.024414,-0.397461,-0.060976,-0.914634,-0.548781,16.431250,-36.225002,2.775000,0.0,1.000000,0.000000,0.000000,0.000000
1782117383.326178,1882749,0.920410,-0.023438,-0.396484,0.243902,-0.853659,-0.731707,16.381250,-36.337502,2.831250,0.0,1.000000,0.000000,0.000000,0.000000
1782117383.336178,1882759,0.920410,-0.021973,-0.394043,0.426829,-0.792683,-0.853659,16.381250,-36.337502,2.831250,0.0,1.000000,0.000000,0.000000,0.000000
1782117383.346178,1882769,0.918945,-0.019531,-0.392578,0.670732,-0.609756,-0.975610,16.387501,-36.337502,2.831250,0.0,1.000000,0.000000,0.000000,0.000000
1782117383.356178,1882779,0.919922,-0.020020,-0.394531,0.731707,-0.426829,-0.975610,16.387501,-36.337502,2.831250,0.0,1.000000,0.000000,0.000000,0.000000
1782117383.366178,1882789,0.920898,-0.016113,-0.395996,0.792683,-0.426829,-0.975610,16.375000,-36.412502,2.800000,0.0,1.000000,0.000000,0.000000,0.000000
1782117383.376178,1882799,0.919922,-0.014160,-0.395996,0.853659,-0.426829,-0.914634,16.375000,-36.412502,2.800000,0.0,1.000000,0.000000,0.000000,0.000000
1782117383.386178,1882809,0.919434,-0.012207,-0.394531,0.792683,-0.548781,-0.792683,16.406250,-36.350002,2.787500,0.0,1.000000,0.000000,0.000000,0.000000
1782117383.396178,1882819,0.918945,-0.011230,-0.394043,0.548781,-0.609756,-0.792683,16.406250,-36.350002,2.787500,0.0,1.000000,0.000000,0.000000,0.000000
1782117383.406178,1882829,0.918945,-0.010742,-0.393066,0.243902,-0.487805,-0.731707,16.350000,-36.318752,2.750000,0.0,1.000000,0.000000,0.000000,0.000000
1782117383.416178,1882839,0.920898,-0.010742,-0.391602,-0.121951,-0.243902,-0.670732,16.350000,-36.318752,2.750000,0.0,1.000000,0.000000,0.000000,0.000000
1782117383.426178,1882849,0.918945,-0.012695,-0.392090,-0.487805,-0.243902,-0.670732,16.418751,-36.331249,2.781250,0.0,1.000000,0.000000,0.000000,0.000000
1782117383.436178,1882859,0.918945,-0.015137,-0.391602,-0.670732,-0.121951,-0.670732,16.418751,-36.331249,2.781250,0.0,1.000000,0.000000,0.000000,0.000000
