Unix_Time_s,EMG_t_s,sample_idx,fs,gain,flags,emg_valid,ch1_raw_uV,ch1_filt_uV,ch1_env_uV,ch2_raw_uV,ch2_filt_uV,ch2_env_uV
1782117256.263959,0.000000,1702440,1000,12,0,1,49.627,2.613,3.294,556.655,-1.653,1.068
1782117256.264959,0.001000,1702441,1000,12,0,1,46.576,-1.845,3.304,559.105,0.886,1.068
1782117256.265960,0.002000,1702442,1000,12,0,1,46.264,-2.592,3.324,560.402,2.202,1.108
1782117256.266959,0.003000,1702443,1000,12,0,1,46.072,-2.499,3.298,559.033,0.819,1.113
1782117256.267959,0.004000,1702444,1000,12,0,1,47.225,-1.550,3.139,557.904,-0.680,1.105
1782117256.268960,0.005000,1702445,1000,12,0,1,50.155,1.521,3.072,555.622,-2.323,1.151
1782117256.269959,0.006000,1702446,1000,12,0,1,50.011,1.939,3.079,557.712,-1.158,1.163
1782117256.270959,0.007000,1702447,1000,12,0,1,46.936,-0.679,3.071,558.216,0.550,1.157
1782117256.271959,0.008000,1702448,1000,12,0,1,45.231,-1.993,3.061,559.514,0.678,1.161
1782117256.272959,0.009000,1702449,1000,12,0,1,46.144,-0.457,3.046,559.345,1.260,1.174
1782117256.273959,0.010000,1702450,1000,12,0,1,45.615,0.062,3.020,558.096,-0.513,1.175
1782117256.274959,0.011000,1702451,1000,12,0,1,46.960,1.049,3.020,556.127,-1.891,1.203
1782117256.275959,0.012000,1702452,1000,12,0,1,45.952,1.103,3.020,557.448,-1.049,1.212
1782117256.276959,0.013000,1702453,1000,12,0,1,45.783,0.001,3.001,558.024,0.383,1.211
1782117256.277959,0.014000,1702454,1000,12,0,1,45.495,0.160,2.980,558.601,0.588,1.206
1782117256.278960,0.015000,1702455,1000,12,0,1,44.558,-1.335,2.981,559.994,1.936,1.221
1782117256.279959,0.016000,1702456,1000,12,0,1,46.264,-0.439,2.977,558.697,1.077,1.230
1782117256.280959,0.017000,1702457,1000,12,0,1,47.393,0.456,2.960,557.664,-0.480,1.229
1782117256.281959,0.018000,1702458,1000,12,0,1,47.393,-0.558,2.940,557.472,-0.177,1.200
1782117256.282959,0.019000,1702459,1000,12,0,1,46.456,-1.762,2.950,559.249,0.968,1.174
1782117256.283959,0.020000,1702460,1000,12,0,1,47.825,-1.602,2.958,559.345,1.707,1.198
1782117256.284959,0.021000,1702461,1000,12,0,1,49.747,0.246,2.958,558.985,0.612,1.186
1782117256.285959,0.022000,1702462,1000,12,0,1,48.402,-1.168,2.929,558.192,0.161,1.185
1782117256.286959,0.023000,1702463,1000,12,0,1,50.756,-0.006,2.928,557.808,-0.610,1.180
1782117256.287959,0.024000,1702464,1000,12,0,1,52.149,2.119,2.933,558.336,-0.053,1.162
1782117256.288960,0.025000,1702465,1000,12,0,1,50.708,0.408,2.932,559.105,0.546,1.163
1782117256.289959,0.026000,1702466,1000,12,0,1,48.161,-1.408,2.936,559.393,0.672,1.129
1782117256.290959,0.027000,1702467,1000,12,0,1,50.708,0.517,2.937,559.538,0.582,1.132
1782117256.291960,0.028000,1702468,1000,12,0,1,49.338,1.232,2.907,557.856,-0.879,1.138
1782117256.292959,0.029000,1702469,1000,12,0,1,49.026,0.020,2.903,558.697,-0.716,1.138
1782117256.293959,0.030000,1702470,1000,12,0,1,49.675,1.823,2.904,557.472,-0.925,1.092
1782117256.294959,0.031000,1702471,1000,12,0,1,49.146,1.241,2.881,557.015,-1.952,1.122
1782117256.295959,0.032000,1702472,1000,12,0,1,50.275,2.019,2.893,557.424,-0.873,1.106
1782117256.296959,0.033000,1702473,1000,12,0,1,48.690,1.066,2.838,558.817,0.238,1.104
1782117256.297959,0.034000,1702474,1000,12,0,1,51.308,1.631,2.828,557.976,0.124,1.093
1782117256.298959,0.035000,1702475,1000,12,0,1,50.083,1.668,2.833,556.391,-1.520,1.114
1782117256.299959,0.036000,1702476,1000,12,0,1,52.245,0.750,2.835,558.385,0.154,1.097
1782117256.300959,0.037000,1702477,1000,12,0,1,55.344,3.960,2.844,557.928,0.738,1.102
1782117256.301960,0.038000,1702478,1000,12,0,1,53.926,1.062,2.705,559.153,0.787,1.101
1782117256.302959,0.039000,1702479,1000,12,0,1,53.350,-0.865,2.507,557.159,0.284,1.099
1782117256.303959,0.040000,1702480,1000,12,0,1,53.902,-0.987,2.355,557.376,-0.933,1.107
1782117256.304959,0.041000,1702481,1000,12,0,1,51.909,-3.126,2.311,557.400,0.338,1.084
1782117256.305959,0.042000,1702482,1000,12,0,1,51.909,-3.701,2.333,557.400,-0.389,1.054
1782117256.306959,0.043000,1702483,1000,12,0,1,52.365,-2.753,2.346,558.288,0.739,1.059
1782117256.307959,0.044000,1702484,1000,12,0,1,51.933,-2.771,2.367,558.865,1.096,1.053
1782117256.308959,0.045000,1702485,1000,12,0,1,50.539,-3.372,2.404,558.144,0.346,1.050
1782117256.309959,0.046000,1702486,1000,12,0,1,53.206,-0.813,2.366,555.166,-2.112,1.086
1782117256.310959,0.047000,1702487,1000,12,0,1,55.776,2.672,2.251,556.415,-1.768,1.112
1782117256.311960,0.048000,1702488,1000,12,0,1,55.272,2.423,1.968,557.976,0.802,1.111
1782117256.312959,0.049000,1702489,1000,12,0,1,54.599,1.678,1.777,557.352,-0.147,1.063
1782117256.313959,0.050000,1702490,1000,12,0,1,55.608,2.580,1.776,557.856,0.307,1.038
1782117256.314960,0.051000,1702491,1000,12,0,1,52.918,0.694,1.759,559.273,1.478,1.052
1782117256.315959,0.052000,1702492,1000,12,0,1,50.972,-1.739,1.738,557.063,-0.049,1.004
1782117256.316959,0.053000,1702493,1000,12,0,1,49.891,-2.126,1.728,557.784,-0.387,0.999
1782117256.317959,0.054000,1702494,1000,12,0,1,51.332,-1.237,1.723,557.424,0.382,0.996
1782117256.318959,0.055000,1702495,1000,12,0,1,53.230,0.733,1.713,558.457,0.421,0.942
1782117256.319959,0.056000,1702496,1000,12,0,1,55.560,1.968,1.714,558.288,1.110,0.941
1782117256.320959,0.057000,1702497,1000,12,0,1,55.127,1.241,1.720,556.391,-0.964,0.948
1782117256.321959,0.058000,1702498,1000,12,0,1,53.158,-1.658,1.713,556.991,-0.560,0.946
1782117256.322959,0.059000,1702499,1000,12,0,1,53.518,-2.154,1.738,557.712,0.633,0.933
1782117256.323959,0.060000,1702500,1000,12,0,1,54.167,-1.568,1.752,559.994,2.033,0.974
1782117256.324960,0.061000,1702501,1000,12,0,1,57.337,0.314,1.747,556.847,0.316,0.938
1782117256.325959,0.062000,1702502,1000,12,0,1,60.844,3.525,1.810,557.184,-1.235,0.942
1782117256.326959,0.063000,1702503,1000,12,0,1,62.670,4.186,1.904,556.511,-0.158,0.941
1782117256.327959,0.064000,1702504,1000,12,0,1,61.925,3.079,1.953,556.295,-1.498,0.961
1782117256.328959,0.065000,1702505,1000,12,0,1,60.652,1.054,1.950,557.496,0.311,0.922
1782117256.329959,0.066000,1702506,1000,12,0,1,59.811,0.274,1.949,557.976,0.548,0.913
1782117256.330959,0.067000,1702507,1000,12,0,1,57.722,-1.276,1.956,557.232,-0.097,0.910
1782117256.331959,0.068000,1702508,1000,12,0,1,56.761,-2.002,1.975,556.175,-1.071,0.922
1782117256.332959,0.069000,1702509,1000,12,0,1,56.232,-1.535,1.971,557.232,-0.436,0.914
1782117256.333959,0.070000,1702510,1000,12,0,1,57.505,-0.252,1.959,556.919,0.039,0.882
1782117256.334960,0.071000,1702511,1000,12,0,1,58.466,1.384,1.968,557.400,-0.226,0.878
1782117256.335959,0.072000,1702512,1000,12,0,1,58.082,0.852,1.965,556.991,0.184,0.878
1782117256.336959,0.073000,1702513,1000,12,0,1,61.277,2.924,2.008,553.749,-2.761,0.957
1782117256.337959,0.074000,1702514,1000,12,0,1,60.340,2.534,2.018,555.574,-1.464,0.979
1782117256.338959,0.075000,1702515,1000,12,0,1,62.478,2.012,2.037,557.616,1.501,0.999
1782117256.339959,0.076000,1702516,1000,12,0,1,62.646,2.585,2.060,557.784,1.328,1.012
1782117256.340959,0.077000,1702517,1000,12,0,1,64.664,1.725,2.073,558.192,1.654,1.036
1782117256.341959,0.078000,1702518,1000,12,0,1,64.471,1.618,2.078,557.832,1.232,1.043
1782117256.342959,0.079000,1702519,1000,12,0,1,63.655,-1.196,2.085,556.583,-0.013,1.038
1782117256.343959,0.080000,1702520,1000,12,0,1,61.637,-3.132,2.116,557.376,0.363,1.031
1782117256.344959,0.081000,1702521,1000,12,0,1,59.163,-5.936,2.269,558.505,1.576,1.018
1782117256.345959,0.082000,1702522,1000,12,0,1,61.901,-3.893,2.318,559.297,1.932,1.047
1782117256.346959,0.083000,1702523,1000,12,0,1,61.493,-2.607,2.342,558.697,1.288,1.062
1782117256.347960,0.084000,1702524,1000,12,0,1,61.637,-3.388,2.379,559.586,1.324,1.078
1782117256.348959,0.085000,1702525,1000,12,0,1,61.685,-1.759,2.381,557.544,-0.016,1.057
1782117256.349959,0.086000,1702526,1000,12,0,1,63.991,-0.223,2.379,556.463,-1.904,1.090
1782117256.350959,0.087000,1702527,1000,12,0,1,64.159,1.481,2.321,557.712,-0.404,1.087
1782117256.351959,0.088000,1702528,1000,12,0,1,60.100,-2.127,2.336,559.417,1.038,1.091
1782117256.352959,0.089000,1702529,1000,12,0,1,59.091,-2.874,2.368,556.991,-0.669,1.094
1782117256.353959,0.090000,1702530,1000,12,0,1,64.399,2.297,2.386,557.568,-1.176,1.099
1782117256.354959,0.091000,1702531,1000,12,0,1,70.236,7.830,2.593,556.775,-0.734,1.103
1782117256.355959,0.092000,1702532,1000,12,0,1,71.774,8.545,2.812,555.646,-2.272,1.147
1782117256.356959,0.093000,1702533,1000,12,0,1,70.597,5.761,2.902,556.006,-1.437,1.160
1782117256.357960,0.094000,1702534,1000,12,0,1,68.147,2.345,2.894,556.127,-0.958,1.158
1782117256.358959,0.095000,1702535,1000,12,0,1,67.594,0.221,2.855,558.264,0.711,1.161
1782117256.359959,0.096000,1702536,1000,12,0,1,66.153,-1.300,2.859,558.793,1.868,1.153
1782117256.360959,0.097000,1702537,1000,12,0,1,69.804,0.035,2.834,558.072,0.536,1.128
1782117256.361959,0.098000,1702538,1000,12,0,1,73.840,3.753,2.862,557.328,0.071,1.122
1782117256.362959,0.099000,1702539,1000,12,0,1,76.194,3.950,2.907,555.766,-1.427,1.140
1782117256.363959,0.100000,1702540,1000,12,0,1,75.617,2.482,2.905,556.727,-0.709,1.144
1782117256.364959,0.101000,1702541,1000,12,0,1,73.960,-0.642,2.905,557.232,0.318,1.125
1782117256.365959,0.102000,1702542,1000,12,0,1,74.200,-1.332,2.901,558.385,0.891,1.132
1782117256.366959,0.103000,1702543,1000,12,0,1,73.792,-1.729,2.895,559.153,1.820,1.160
1782117256.367959,0.104000,1702544,1000,12,0,1,73.095,-2.796,2.917,559.057,1.270,1.173
1782117256.368959,0.105000,1702545,1000,12,0,1,71.918,-3.311,2.952,557.039,-0.441,1.173
1782117256.369959,0.106000,1702546,1000,12,0,1,73.023,-2.513,2.961,558.336,-0.110,1.162
1782117256.370960,0.107000,1702547,1000,12,0,1,72.759,-1.517,2.963,557.640,0.227,1.155
1782117256.371959,0.108000,1702548,1000,12,0,1,71.942,-2.377,2.973,557.904,-0.485,1.154
1782117256.372959,0.109000,1702549,1000,12,0,1,72.230,-1.473,2.965,558.024,0.296,1.151
1782117256.373959,0.110000,1702550,1000,12,0,1,73.575,-0.143,2.956,557.496,-0.518,1.117
1782117256.374959,0.111000,1702551,1000,12,0,1,72.590,-0.471,2.957,557.760,-0.236,1.117
1782117256.375959,0.112000,1702552,1000,12,0,1,72.134,-1.420,2.921,556.151,-1.208,1.116
1782117256.376959,0.113000,1702553,1000,12,0,1,74.008,0.160,2.861,555.022,-2.503,1.171
1782117256.377959,0.114000,1702554,1000,12,0,1,73.311,-0.311,2.828,557.232,-0.192,1.152
1782117256.378959,0.115000,1702555,1000,12,0,1,72.182,-2.261,2.842,556.487,-0.109,1.151
1782117256.379959,0.116000,1702556,1000,12,0,1,73.695,-1.269,2.848,557.616,0.160,1.149
1782117256.380960,0.117000,1702557,1000,12,0,1,75.329,-0.167,2.842,557.808,1.122,1.159
1782117256.381959,0.118000,1702558,1000,12,0,1,76.049,-0.111,2.828,557.952,0.556,1.152
1782117256.382959,0.119000,1702559,1000,12,0,1,77.707,0.450,2.820,556.703,-0.091,1.151
1782117256.383959,0.120000,1702560,1000,12,0,1,78.307,0.636,2.821,557.015,-0.448,1.152
1782117256.384959,0.121000,1702561,1000,12,0,1,79.052,0.315,2.815,557.928,0.775,1.157
1782117256.385959,0.122000,1702562,1000,12,0,1,79.605,0.563,2.813,557.063,0.008,1.157
1782117256.386959,0.123000,1702563,1000,12,0,1,78.307,-0.859,2.786,558.096,0.387,1.090
1782117256.387959,0.124000,1702564,1000,12,0,1,73.551,-4.715,2.842,559.129,1.718,1.098
1782117256.388959,0.125000,1702565,1000,12,0,1,72.566,-5.758,2.942,557.856,0.259,1.078
1782117256.389959,0.126000,1702566,1000,12,0,1,76.530,-1.031,2.923,557.712,-0.173,1.061
1782117256.390960,0.127000,1702567,1000,12,0,1,77.803,1.325,2.919,558.745,0.727,1.040
1782117256.391959,0.128000,1702568,1000,12,0,1,78.452,1.634,2.919,557.352,-0.199,1.026
1782117256.392959,0.129000,1702569,1000,12,0,1,78.452,2.135,2.930,556.511,-1.422,1.046
1782117256.393960,0.130000,1702570,1000,12,0,1,80.421,3.096,2.929,557.736,-0.062,1.044
1782117256.394959,0.131000,1702571,1000,12,0,1,78.668,2.243,2.824,557.400,-0.013,1.020
1782117256.395959,0.132000,1702572,1000,12,0,1,73.647,-3.063,2.804,560.474,1.930,1.020
1782117256.396959,0.133000,1702573,1000,12,0,1,69.780,-6.293,2.918,558.817,1.617,1.029
1782117256.397959,0.134000,1702574,1000,12,0,1,70.597,-5.419,2.979,559.081,0.049,1.012
1782117256.398959,0.135000,1702575,1000,12,0,1,74.560,-1.209,2.973,557.712,0.117,1.012
1782117256.399959,0.136000,1702576,1000,12,0,1,75.641,0.247,2.973,558.433,-0.613,0.980
1782117256.400959,0.137000,1702577,1000,12,0,1,76.722,0.202,2.966,559.369,1.133,0.991
1782117256.401959,0.138000,1702578,1000,12,0,1,79.244,2.123,2.966,560.306,1.226,0.996
1782117256.402959,0.139000,1702579,1000,12,0,1,79.364,1.657,2.948,557.472,-0.745,0.997
1782117256.403960,0.140000,1702580,1000,12,0,1,75.881,-1.891,2.942,558.216,-1.249,0.998
1782117256.404959,0.141000,1702581,1000,12,0,1,78.091,-1.273,2.731,559.778,0.960,1.002
1782117256.405959,0.142000,1702582,1000,12,0,1,81.526,2.645,2.478,560.811,1.393,0.970
1782117256.406959,0.143000,1702583,1000,12,0,1,78.043,-0.393,2.341,558.793,-0.188,0.948
1782117256.407959,0.144000,1702584,1000,12,0,1,76.458,-2.669,2.348,557.880,-1.638,0.967
1782117256.408959,0.145000,1702585,1000,12,0,1,78.211,-0.238,2.348,559.177,-0.351,0.963
1782117256.409959,0.146000,1702586,1000,12,0,1,80.541,2.068,2.359,559.489,0.292,0.927
1782117256.410959,0.147000,1702587,1000,12,0,1,80.013,2.304,2.381,558.433,-0.896,0.932
1782117256.411959,0.148000,1702588,1000,12,0,1,77.899,0.184,2.321,557.352,-1.625,0.960
1782117256.412959,0.149000,1702589,1000,12,0,1,78.932,1.044,2.258,557.304,-1.743,0.971
1782117256.413960,0.150000,1702590,1000,12,0,1,80.757,3.085,2.273,557.256,-1.187,0.980
1782117256.414959,0.151000,1702591,1000,12,0,1,80.613,2.783,2.305,558.649,-0.174,0.979
1782117256.415959,0.152000,1702592,1000,12,0,1,80.109,1.805,2.311,560.811,2.089,1.015
1782117256.416960,0.153000,1702593,1000,12,0,1,78.860,0.386,2.299,556.703,-1.039,0.993
1782117256.417959,0.154000,1702594,1000,12,0,1,79.532,0.159,2.265,556.295,-2.664,1.046
1782117256.418959,0.155000,1702595,1000,12,0,1,80.277,0.710,2.218,555.910,-1.440,1.064
1782117256.419959,0.156000,1702596,1000,12,0,1,81.094,0.525,2.191,556.463,-1.564,1.087
1782117256.420959,0.157000,1702597,1000,12,0,1,80.974,0.001,2.180,557.304,0.118,1.087
1782117256.421959,0.158000,1702598,1000,12,0,1,82.247,0.002,2.154,557.015,-0.240,1.085
1782117256.422959,0.159000,1702599,1000,12,0,1,82.895,0.343,2.144,556.751,-0.372,1.085
1782117256.423959,0.160000,1702600,1000,12,0,1,81.238,-1.730,2.158,557.904,0.622,1.086
1782117256.424959,0.161000,1702601,1000,12,0,1,80.902,-2.651,2.190,558.192,1.060,1.096
1782117256.425959,0.162000,1702602,1000,12,0,1,82.991,-0.763,2.183,559.514,1.812,1.113
1782117256.426960,0.163000,1702603,1000,12,0,1,84.072,0.387,2.184,558.096,0.903,1.063
1782117256.427959,0.164000,1702604,1000,12,0,1,83.232,-0.350,2.184,558.024,-0.015,1.062
1782117256.428959,0.165000,1702605,1000,12,0,1,87.603,2.645,2.192,558.817,1.051,1.073
1782117256.429959,0.166000,1702606,1000,12,0,1,88.492,4.607,2.280,559.177,1.127,1.084
1782117256.430959,0.167000,1702607,1000,12,0,1,87.579,2.343,2.304,559.225,1.048,1.083
1782117256.431959,0.168000,1702608,1000,12,0,1,87.988,2.735,2.336,555.094,-2.108,1.120
1782117256.432959,0.169000,1702609,1000,12,0,1,87.123,1.676,2.347,557.184,-1.559,1.142
1782117256.433959,0.170000,1702610,1000,12,0,1,85.946,0.262,2.346,558.409,1.424,1.157
1782117256.434959,0.171000,1702611,1000,12,0,1,87.195,0.994,2.350,558.913,0.717,1.157
1782117256.435959,0.172000,1702612,1000,12,0,1,86.402,0.504,2.349,557.496,0.357,1.158
1782117256.436960,0.173000,1702613,1000,12,0,1,88.540,1.138,2.352,558.409,0.064,1.157
1782117256.437959,0.174000,1702614,1000,12,0,1,90.822,3.187,2.300,558.577,1.078,1.141
1782117256.438959,0.175000,1702615,1000,12,0,1,90.726,1.945,2.168,557.015,-0.751,1.145
1782117256.439960,0.176000,1702616,1000,12,0,1,91.351,1.173,2.170,555.982,-1.638,1.168
1782117256.440959,0.177000,1702617,1000,12,0,1,93.056,1.691,2.175,555.190,-1.964,1.196
1782117256.441959,0.178000,1702618,1000,12,0,1,92.384,0.206,2.163,557.976,0.106,1.196
1782117256.442959,0.179000,1702619,1000,12,0,1,90.942,-2.187,2.164,556.823,0.451,1.181
1782117256.443959,0.180000,1702620,1000,12,0,1,93.344,-1.150,2.125,558.457,0.250,1.181
1782117256.444959,0.181000,1702621,1000,12,0,1,93.512,-0.632,2.103,558.072,1.405,1.198
1782117256.445959,0.182000,1702622,1000,12,0,1,91.999,-2.974,2.101,556.943,-0.881,1.173
1782117256.446959,0.183000,1702623,1000,12,0,1,90.630,-3.933,1.983,558.264,0.656,1.154
1782117256.447959,0.184000,1702624,1000,12,0,1,92.792,-2.396,1.860,555.070,-1.588,1.176
1782117256.448959,0.185000,1702625,1000,12,0,1,96.395,1.469,1.863,557.952,-0.471,1.178
1782117256.449960,0.186000,1702626,1000,12,0,1,95.770,1.160,1.870,559.057,2.419,1.223
1782117256.450959,0.187000,1702627,1000,12,0,1,95.698,0.281,1.870,558.913,0.800,1.218
1782117256.451959,0.188000,1702628,1000,12,0,1,95.674,0.697,1.849,556.535,-0.303,1.206
1782117256.452959,0.189000,1702629,1000,12,0,1,96.371,0.723,1.837,556.031,-1.812,1.229
1782117256.453959,0.190000,1702630,1000,12,0,1,96.299,0.983,1.823,556.295,-0.559,1.219
1782117256.454959,0.191000,1702631,1000,12,0,1,94.906,-0.702,1.816,558.385,0.848,1.217
1782117256.455959,0.192000,1702632,1000,12,0,1,95.218,-0.784,1.781,557.904,1.204,1.213
1782117256.456959,0.193000,1702633,1000,12,0,1,94.665,-1.088,1.787,556.943,-0.285,1.213
1782117256.457959,0.194000,1702634,1000,12,0,1,97.860,0.575,1.748,556.919,-0.163,1.191
1782117256.458959,0.195000,1702635,1000,12,0,1,96.227,0.069,1.748,556.559,-0.301,1.191
1782117256.459960,0.196000,1702636,1000,12,0,1,97.140,-1.455,1.735,555.814,-1.030,1.199
1782117256.460959,0.197000,1702637,1000,12,0,1,97.692,-0.143,1.705,558.577,1.207,1.205
1782117256.461959,0.198000,1702638,1000,12,0,1,99.614,-0.217,1.705,556.583,0.347,1.183
1782117256.462959,0.199000,1702639,1000,12,0,1,99.229,-0.152,1.699,556.391,-1.083,1.168
1782117256.463959,0.200000,1702640,1000,12,0,1,97.860,-2.614,1.683,556.031,-0.408,1.157
1782117256.464959,0.201000,1702641,1000,12,0,1,97.308,-3.155,1.696,557.976,0.466,1.159
1782117256.465959,0.202000,1702642,1000,12,0,1,96.635,-3.598,1.752,558.865,1.981,1.155
1782117256.466959,0.203000,1702643,1000,12,0,1,96.323,-3.784,1.831,556.343,-0.577,1.148
1782117256.467959,0.204000,1702644,1000,12,0,1,96.875,-2.628,1.868,554.013,-2.873,1.158
1782117256.468959,0.205000,1702645,1000,12,0,1,94.689,-3.778,1.941,558.216,0.578,1.143
1782117256.469959,0.206000,1702646,1000,12,0,1,93.921,-4.120,2.025,557.352,1.275,1.136
1782117256.470959,0.207000,1702647,1000,12,0,1,93.152,-3.487,2.084,558.481,0.663,1.140
1782117256.471959,0.208000,1702648,1000,12,0,1,93.777,-2.370,2.111,557.712,1.226,1.152
1782117256.472960,0.209000,1702649,1000,12,0,1,93.657,-1.241,2.117,558.336,0.481,1.153
1782117256.473959,0.210000,1702650,1000,12,0,1,93.873,-0.767,2.106,558.048,1.043,1.159
1782117256.474959,0.211000,1702651,1000,12,0,1,93.801,-0.142,2.073,560.378,2.024,1.185
1782117256.475959,0.212000,1702652,1000,12,0,1,94.858,0.739,2.072,559.682,2.175,1.197
1782117256.476959,0.213000,1702653,1000,12,0,1,97.500,3.026,2.115,557.904,-0.379,1.191
1782117256.477959,0.214000,1702654,1000,12,0,1,97.236,2.857,2.153,557.592,-0.678,1.195
1782117256.478959,0.215000,1702655,1000,12,0,1,99.013,2.876,2.159,557.280,-0.716,1.190
1782117256.479959,0.216000,1702656,1000,12,0,1,100.863,4.430,2.152,556.631,-1.414,1.196
1782117256.480959,0.217000,1702657,1000,12,0,1,100.190,2.573,2.157,556.751,-1.009,1.195
1782117256.481959,0.218000,1702658,1000,12,0,1,98.605,0.362,2.122,556.175,-1.403,1.175
1782117256.482960,0.219000,1702659,1000,12,0,1,98.245,-0.807,2.112,554.565,-2.419,1.203
1782117256.483959,0.220000,1702660,1000,12,0,1,98.221,-0.938,2.116,557.208,-0.600,1.189
1782117256.484959,0.221000,1702661,1000,12,0,1,98.317,-1.081,2.117,557.952,1.291,1.199
1782117256.485959,0.222000,1702662,1000,12,0,1,97.332,-1.728,2.130,557.424,-0.064,1.198
1782117256.486959,0.223000,1702663,1000,12,0,1,97.908,-1.381,2.133,557.352,0.172,1.198
1782117256.487959,0.224000,1702664,1000,12,0,1,95.386,-2.490,2.114,556.535,-0.706,1.193
1782117256.488959,0.225000,1702665,1000,12,0,1,95.794,-2.627,2.129,557.784,0.144,1.188
1782117256.489959,0.226000,1702666,1000,12,0,1,95.867,-0.912,2.126,558.865,1.464,1.184
1782117256.490959,0.227000,1702667,1000,12,0,1,97.164,-0.016,2.113,558.288,0.662,1.154
1782117256.491959,0.228000,1702668,1000,12,0,1,95.122,-0.379,2.113,556.775,-0.652,1.158
1782117256.492959,0.229000,1702669,1000,12,0,1,97.019,0.281,2.091,557.376,-0.502,1.158
1782117256.493959,0.230000,1702670,1000,12,0,1,96.539,1.501,2.095,558.913,1.266,1.171
1782117256.494959,0.231000,1702671,1000,12,0,1,95.386,-0.473,2.094,558.865,1.176,1.166
1782117256.495960,0.232000,1702672,1000,12,0,1,92.912,-1.864,2.069,557.784,0.093,1.160
1782117256.496959,0.233000,1702673,1000,12,0,1,95.242,-0.690,1.995,557.472,-0.348,1.157
1782117256.497959,0.234000,1702674,1000,12,0,1,96.827,1.722,1.981,556.631,-0.794,1.141
1782117256.498959,0.235000,1702675,1000,12,0,1,95.939,0.292,1.970,556.919,-0.705,1.143
1782117256.499959,0.236000,1702676,1000,12,0,1,98.653,1.712,1.978,557.736,0.357,1.092
1782117256.500959,0.237000,1702677,1000,12,0,1,102.424,5.004,2.101,556.655,-0.416,1.088
1782117256.501959,0.238000,1702678,1000,12,0,1,100.743,2.742,2.134,557.400,-0.215,1.087
1782117256.502959,0.239000,1702679,1000,12,0,1,103.097,2.906,2.171,559.345,1.794,1.087
1782117256.503959,0.240000,1702680,1000,12,0,1,104.970,4.591,2.262,558.529,1.025,1.093
1782117256.504959,0.241000,1702681,1000,12,0,1,107.276,4.882,2.363,557.063,-0.736,1.092
1782117256.505960,0.242000,1702682,1000,12,0,1,104.250,2.345,2.383,557.784,-0.322,1.079
1782117256.506959,0.243000,1702683,1000,12,0,1,101.079,-2.111,2.397,557.736,-0.041,1.079
1782117256.507959,0.244000,1702684,1000,12,0,1,100.863,-1.983,2.412,556.343,-1.410,1.097
1782117256.508959,0.245000,1702685,1000,12,0,1,99.974,-2.206,2.432,556.055,-1.681,1.121
1782117256.509959,0.246000,1702686,1000,12,0,1,99.854,-2.204,2.443,558.072,0.176,1.112
1782117256.510959,0.247000,1702687,1000,12,0,1,100.022,-1.148,2.448,557.952,0.616,1.102
1782117256.511959,0.248000,1702688,1000,12,0,1,99.349,-1.509,2.458,557.976,0.084,1.101
1782117256.512959,0.249000,1702689,1000,12,0,1,100.551,-0.189,2.458,558.865,1.068,1.101
1782117256.513959,0.250000,1702690,1000,12,0,1,96.347,-2.776,2.461,557.976,0.337,1.101
1782117256.514959,0.251000,1702691,1000,12,0,1,97.092,-3.333,2.466,557.568,-0.358,1.100
1782117256.515960,0.252000,1702692,1000,12,0,1,100.118,0.794,2.415,559.610,1.419,1.082
1782117256.516959,0.253000,1702693,1000,12,0,1,101.511,1.475,2.365,558.673,1.041,1.089
1782117256.517959,0.254000,1702694,1000,12,0,1,101.031,0.877,2.338,556.703,-1.233,1.025
1782117256.518960,0.255000,1702695,1000,12,0,1,101.776,0.503,2.278,554.926,-2.428,1.078
1782117256.519959,0.256000,1702696,1000,12,0,1,104.538,2.310,2.226,556.151,-1.483,1.084
1782117256.520959,0.257000,1702697,1000,12,0,1,104.250,1.799,2.186,555.670,-0.832,1.086
1782117256.521959,0.258000,1702698,1000,12,0,1,106.532,1.906,2.176,556.679,-0.522,1.075
1782117256.522959,0.259000,1702699,1000,12,0,1,104.706,0.964,2.174,557.712,1.097,1.084
1782117256.523959,0.260000,1702700,1000,12,0,1,104.826,-1.121,2.177,558.505,1.334,1.090
1782117256.524959,0.261000,1702701,1000,12,0,1,102.400,-1.881,2.193,556.463,-0.129,1.052
1782117256.525959,0.262000,1702702,1000,12,0,1,104.322,-1.881,2.206,554.829,-2.148,1.051
1782117256.526959,0.263000,1702703,1000,12,0,1,104.322,0.095,2.165,555.430,-1.352,1.067
1782117256.527959,0.264000,1702704,1000,12,0,1,105.307,-0.207,2.127,556.031,-0.416,1.064
1782117256.528960,0.265000,1702705,1000,12,0,1,107.396,2.514,2.117,558.096,1.104,1.071
1782117256.529959,0.266000,1702706,1000,12,0,1,107.685,2.623,2.056,556.055,0.194,1.052
1782117256.530959,0.267000,1702707,1000,12,0,1,107.420,1.996,2.044,557.063,-0.333,1.043
1782117256.531959,0.268000,1702708,1000,12,0,1,108.285,2.602,2.076,556.751,0.802,1.031
1782117256.532959,0.269000,1702709,1000,12,0,1,107.276,1.494,2.083,557.832,0.517,0.975
1782117256.533959,0.270000,1702710,1000,12,0,1,107.517,1.075,2.085,557.304,1.127,0.984
1782117256.534959,0.271000,1702711,1000,12,0,1,106.556,0.202,2.079,557.880,0.602,0.971
1782117256.535959,0.272000,1702712,1000,12,0,1,104.922,-1.742,2.080,557.616,1.077,0.983
1782117256.536959,0.273000,1702713,1000,12,0,1,105.475,-1.743,2.085,556.319,-0.457,0.985
1782117256.537959,0.274000,1702714,1000,12,0,1,107.468,-0.041,2.055,556.487,-0.348,0.981
1782117256.538960,0.275000,1702715,1000,12,0,1,106.700,-0.926,2.025,555.646,-0.513,0.983
1782117256.539959,0.276000,1702716,1000,12,0,1,105.547,-2.670,2.056,557.784,0.638,0.965
1782117256.540959,0.277000,1702717,1000,12,0,1,106.916,-1.918,2.074,556.823,1.062,0.972
1782117256.541960,0.278000,1702718,1000,12,0,1,109.390,0.160,2.073,557.352,0.071,0.968
1782117256.542959,0.279000,1702719,1000,12,0,1,108.958,-0.350,2.074,557.736,1.391,0.985
1782117256.543959,0.280000,1702720,1000,12,0,1,109.150,-1.018,2.068,557.015,-0.032,0.969
1782117256.544959,0.281000,1702721,1000,12,0,1,108.862,-1.034,2.072,557.664,0.524,0.957
1782117256.545959,0.282000,1702722,1000,12,0,1,109.919,-0.616,2.057,557.256,0.230,0.958
1782117256.546959,0.283000,1702723,1000,12,0,1,110.015,0.041,2.055,556.919,-0.497,0.959
1782117256.547959,0.284000,1702724,1000,12,0,1,109.630,-0.546,2.042,556.223,-0.815,0.960
1782117256.548959,0.285000,1702725,1000,12,0,1,106.700,-2.365,2.068,555.094,-1.980,0.995
1782117256.549959,0.286000,1702726,1000,12,0,1,110.471,0.084,2.054,554.541,-2.120,1.038
1782117256.550959,0.287000,1702727,1000,12,0,1,113.906,4.703,2.040,554.926,-1.615,1.061
1782117256.551960,0.288000,1702728,1000,12,0,1,113.882,3.838,2.075,556.247,-0.086,1.060
1782117256.552959,0.289000,1702729,1000,12,0,1,111.648,1.665,2.047,556.727,0.595,1.033
1782117256.553959,0.290000,1702730,1000,12,0,1,112.104,1.050,1.947,558.072,1.509,1.045
1782117256.554959,0.291000,1702731,1000,12,0,1,113.738,2.459,1.854,557.544,1.392,1.058
1782117256.555959,0.292000,1702732,1000,12,0,1,115.876,3.530,1.891,557.496,0.667,1.061
1782117256.556959,0.293000,1702733,1000,12,0,1,117.749,4.272,1.963,559.417,2.358,1.113
1782117256.557959,0.294000,1702734,1000,12,0,1,118.014,3.466,2.003,559.201,2.211,1.138
1782117256.558959,0.295000,1702735,1000,12,0,1,117.917,1.810,1.995,557.808,0.418,1.115
1782117256.559959,0.296000,1702736,1000,12,0,1,119.287,1.870,1.989,557.664,0.094,1.115
1782117256.560959,0.297000,1702737,1000,12,0,1,120.512,1.833,1.999,557.904,0.289,1.112
1782117256.561960,0.298000,1702738,1000,12,0,1,123.682,3.162,2.037,555.934,-1.187,1.124
1782117256.562959,0.299000,1702739,1000,12,0,1,122.145,1.451,2.047,555.910,-1.695,1.140
1782117256.563959,0.300000,1702740,1000,12,0,1,120.896,-1.630,2.022,559.465,1.662,1.163
1782117256.564960,0.301000,1702741,1000,12,0,1,123.298,0.084,1.967,559.105,1.844,1.191
1782117256.565959,0.302000,1702742,1000,12,0,1,126.373,2.273,1.990,556.991,-0.855,1.180
1782117256.566959,0.303000,1702743,1000,12,0,1,125.004,0.872,1.983,558.216,-0.050,1.171
1782117256.567959,0.304000,1702744,1000,12,0,1,123.971,-1.241,1.986,558.120,0.288,1.158
1782117256.568959,0.305000,1702745,1000,12,0,1,123.058,-1.830,2.002,557.424,-0.818,1.112
1782117256.569959,0.306000,1702746,1000,12,0,1,123.586,-1.770,1.991,557.376,-0.729,1.097
1782117256.570959,0.307000,1702747,1000,12,0,1,123.586,-1.297,1.983,557.376,-0.760,1.096
1782117256.571959,0.308000,1702748,1000,12,0,1,124.091,-1.161,1.972,558.553,0.190,1.094
1782117256.572959,0.309000,1702749,1000,12,0,1,124.763,-0.468,1.968,555.862,-1.493,1.103
1782117256.573959,0.310000,1702750,1000,12,0,1,127.574,1.392,1.971,556.511,-1.937,1.121
1782117256.574960,0.311000,1702751,1000,12,0,1,128.126,1.872,1.971,556.247,-0.712,1.125
1782117256.575959,0.312000,1702752,1000,12,0,1,127.406,0.050,1.953,556.055,-1.522,1.105
1782117256.576959,0.313000,1702753,1000,12,0,1,128.535,0.120,1.953,555.958,-0.761,1.093
1782117256.577959,0.314000,1702754,1000,12,0,1,129.135,0.160,1.953,554.853,-1.657,1.117
1782117256.578959,0.315000,1702755,1000,12,0,1,127.358,-2.243,1.947,556.943,0.065,1.106
1782117256.579959,0.316000,1702756,1000,12,0,1,127.814,-2.829,1.952,557.135,1.205,1.118
1782117256.580959,0.317000,1702757,1000,12,0,1,129.015,-1.906,1.950,555.814,-0.546,1.120
1782117256.581959,0.318000,1702758,1000,12,0,1,129.399,-2.023,1.937,556.823,0.456,1.116
1782117256.582959,0.319000,1702759,1000,12,0,1,130.408,-1.652,1.939,556.847,0.722,1.118
1782117256.583959,0.320000,1702760,1000,12,0,1,131.849,-0.612,1.935,554.373,-1.363,1.124
1782117256.584960,0.321000,1702761,1000,12,0,1,129.616,-2.468,1.966,553.797,-2.143,1.161
1782117256.585959,0.322000,1702762,1000,12,0,1,128.246,-4.273,2.042,557.376,1.211,1.163
1782117256.586959,0.323000,1702763,1000,12,0,1,129.928,-2.346,2.054,558.336,2.686,1.222
1782117256.587959,0.324000,1702764,1000,12,0,1,129.784,-1.697,2.068,557.808,1.431,1.238
1782117256.588959,0.325000,1702765,1000,12,0,1,131.057,-0.889,2.068,558.625,1.887,1.264
1782117256.589959,0.326000,1702766,1000,12,0,1,134.900,2.845,2.073,556.463,0.140,1.261
1782117256.590959,0.327000,1702767,1000,12,0,1,134.444,2.726,2.091,556.295,-0.895,1.258
1782117256.591959,0.328000,1702768,1000,12,0,1,130.865,-1.086,2.096,557.280,0.574,1.261
1782117256.592959,0.329000,1702769,1000,12,0,1,134.900,1.317,2.104,556.463,-0.225,1.246
1782117256.593959,0.330000,1702770,1000,12,0,1,137.230,4.403,2.189,557.304,0.239,1.246
1782117256.594959,0.331000,1702771,1000,12,0,1,137.903,3.217,2.231,557.352,0.727,1.248
1782117256.595959,0.332000,1702772,1000,12,0,1,137.638,2.587,2.259,555.478,-1.075,1.257
1782117256.596959,0.333000,1702773,1000,12,0,1,135.308,-0.613,2.261,558.433,0.976,1.263
1782117256.597960,0.334000,1702774,1000,12,0,1,134.372,-2.341,2.284,556.943,0.976,1.265
1782117256.598959,0.335000,1702775,1000,12,0,1,136.846,-0.685,2.261,556.175,-1.105,1.244
1782117256.599959,0.336000,1702776,1000,12,0,1,141.194,2.534,2.289,558.745,1.725,1.231
1782117256.600959,0.337000,1702777,1000,12,0,1,140.809,2.011,2.209,557.808,1.095,1.220
1782117256.601959,0.338000,1702778,1000,12,0,1,142.875,1.530,2.152,556.703,-0.591,1.223
1782117256.602959,0.339000,1702779,1000,12,0,1,142.899,1.867,2.156,556.511,-0.475,1.222
1782117256.603959,0.340000,1702780,1000,12,0,1,142.947,-0.069,2.150,556.799,-0.468,1.205
1782117256.604959,0.341000,1702781,1000,12,0,1,141.554,-1.019,2.127,557.496,0.352,1.189
1782117256.605959,0.342000,1702782,1000,12,0,1,140.545,-2.934,2.109,554.109,-2.241,1.227
1782117256.606959,0.343000,1702783,1000,12,0,1,137.038,-5.128,2.147,554.829,-2.463,1.231
1782117256.607960,0.344000,1702784,1000,12,0,1,136.942,-5.715,2.241,556.151,-0.037,1.191
1782117256.608959,0.345000,1702785,1000,12,0,1,136.654,-4.256,2.306,556.199,-0.324,1.191
1782117256.609959,0.346000,1702786,1000,12,0,1,137.062,-3.758,2.352,554.733,-1.142,1.201
1782117256.610959,0.347000,1702787,1000,12,0,1,137.062,-2.635,2.367,554.733,-1.471,1.219
1782117256.611959,0.348000,1702788,1000,12,0,1,142.539,1.672,2.336,556.175,0.241,1.207
1782117256.612959,0.349000,1702789,1000,12,0,1,138.912,0.496,2.328,558.144,1.963,1.216
1782117256.613959,0.350000,1702790,1000,12,0,1,138.431,-2.463,2.343,555.814,0.341,1.194
1782117256.614959,0.351000,1702791,1000,12,0,1,141.338,1.388,2.351,556.511,-0.134,1.165
1782117256.615959,0.352000,1702792,1000,12,0,1,141.794,1.198,2.335,555.622,0.209,1.159
1782117256.616959,0.353000,1702793,1000,12,0,1,140.329,-0.545,2.333,557.135,0.467,1.161
1782117256.617959,0.354000,1702794,1000,12,0,1,140.425,-1.084,2.332,557.712,1.932,1.192
1782117256.618959,0.355000,1702795,1000,12,0,1,141.290,-0.668,2.319,556.439,0.226,1.187
1782117256.619959,0.356000,1702796,1000,12,0,1,142.106,-0.104,2.306,554.733,-1.168,1.194
1782117256.620960,0.357000,1702797,1000,12,0,1,147.319,3.158,2.341,554.950,-1.063,1.198
1782117256.621959,0.358000,1702798,1000,12,0,1,147.967,4.421,2.418,556.967,0.876,1.204
1782117256.622959,0.359000,1702799,1000,12,0,1,145.661,0.322,2.417,556.391,0.919,1.193
1782117256.623959,0.360000,1702800,1000,12,0,1,145.661,0.011,2.409,556.391,0.100,1.161
1782117256.624959,0.361000,1702801,1000,12,0,1,145.998,-0.078,2.395,558.264,2.001,1.191
1782117256.625959,0.362000,1702802,1000,12,0,1,146.478,0.192,2.395,559.081,2.394,1.219
1782117256.626959,0.363000,1702803,1000,12,0,1,145.637,-0.431,2.395,555.310,-0.732,1.219
1782117256.627959,0.364000,1702804,1000,12,0,1,143.644,-2.234,2.416,556.127,-1.383,1.212
1782117256.628959,0.365000,1702805,1000,12,0,1,142.707,-2.798,2.428,557.256,0.837,1.218
1782117256.629959,0.366000,1702806,1000,12,0,1,141.866,-2.896,2.429,555.886,-0.872,1.212
1782117256.630960,0.367000,1702807,1000,12,0,1,141.145,-2.995,2.451,557.256,0.077,1.210
1782117256.631959,0.368000,1702808,1000,12,0,1,140.977,-2.577,2.462,555.574,-0.577,1.211
1782117256.632959,0.369000,1702809,1000,12,0,1,141.169,-1.886,2.465,557.352,-0.278,1.207
1782117256.633959,0.370000,1702810,1000,12,0,1,142.298,-0.705,2.465,556.343,0.414,1.193
1782117256.634959,0.371000,1702811,1000,12,0,1,141.506,-0.908,2.444,555.622,-1.539,1.174
1782117256.635959,0.372000,1702812,1000,12,0,1,143.860,0.258,2.368,557.376,0.742,1.166
1782117256.636959,0.373000,1702813,1000,12,0,1,143.403,0.728,2.347,554.998,-0.980,1.111
1782117256.637959,0.374000,1702814,1000,12,0,1,143.620,-0.573,2.336,557.616,0.186,1.093
1782117256.638959,0.375000,1702815,1000,12,0,1,140.977,-2.068,2.351,558.216,2.246,1.107
1782117256.639959,0.376000,1702816,1000,12,0,1,144.556,-0.791,2.319,557.736,0.466,1.108
1782117256.640960,0.377000,1702817,1000,12,0,1,145.061,1.408,2.296,558.240,1.335,1.117
1782117256.641959,0.378000,1702818,1000,12,0,1,144.268,-0.946,2.294,558.385,0.952,1.122
1782117256.642959,0.379000,1702819,1000,12,0,1,145.469,0.391,2.287,557.159,-0.020,1.122
1782117256.643960,0.380000,1702820,1000,12,0,1,146.310,1.016,2.206,557.736,-0.095,1.121
1782117256.644959,0.381000,1702821,1000,12,0,1,143.980,-0.896,2.162,557.015,-0.219,1.117
1782117256.645959,0.382000,1702822,1000,12,0,1,141.914,-2.737,2.166,557.063,-0.723,1.111
1782117256.646959,0.383000,1702823,1000,12,0,1,140.713,-3.209,2.211,557.616,0.067,1.103
1782117256.647959,0.384000,1702824,1000,12,0,1,141.746,-1.586,2.198,558.577,0.690,1.099
1782117256.648959,0.385000,1702825,1000,12,0,1,143.524,0.704,2.198,557.568,-0.009,1.087
1782117256.649959,0.386000,1702826,1000,12,0,1,141.073,-0.369,2.169,558.601,0.218,1.060
1782117256.650959,0.387000,1702827,1000,12,0,1,141.362,-0.851,2.154,558.216,0.424,1.050
1782117256.651959,0.388000,1702828,1000,12,0,1,142.731,1.621,2.155,556.847,-1.251,1.062
1782117256.652959,0.389000,1702829,1000,12,0,1,142.467,1.099,2.144,557.111,-1.028,1.070
1782117256.653960,0.390000,1702830,1000,12,0,1,141.218,0.197,2.145,555.526,-1.800,1.098
1782117256.654959,0.391000,1702831,1000,12,0,1,142.082,0.374,2.140,554.373,-3.087,1.180
1782117256.655959,0.392000,1702832,1000,12,0,1,143.884,2.065,2.120,557.304,-0.155,1.137
1782117256.656959,0.393000,1702833,1000,12,0,1,148.328,4.932,2.111,557.159,0.577,1.086
1782117256.657959,0.394000,1702834,1000,12,0,1,151.594,7.307,2.207,556.463,-0.614,1.089
1782117256.658959,0.395000,1702835,1000,12,0,1,155.702,8.720,2.455,557.664,0.623,1.092
1782117256.659959,0.396000,1702836,1000,12,0,1,159.329,10.338,2.808,557.640,0.791,1.085
1782117256.660959,0.397000,1702837,1000,12,0,1,158.416,7.545,2.980,556.799,-0.188,1.066
1782117256.661959,0.398000,1702838,1000,12,0,1,158.248,4.694,3.044,557.784,0.510,1.067
1782117256.662959,0.399000,1702839,1000,12,0,1,157.672,3.232,3.078,559.153,1.775,1.061
1782117256.663960,0.400000,1702840,1000,12,0,1,155.462,-0.148,3.058,555.742,-0.854,1.067
1782117256.664959,0.401000,1702841,1000,12,0,1,156.134,-0.423,3.052,555.142,-2.409,1.120
1782117256.665959,0.402000,1702842,1000,12,0,1,158.921,1.743,3.057,556.751,-0.047,1.119
1782117256.666960,0.403000,1702843,1000,12,0,1,161.059,3.241,3.091,555.982,-0.581,1.120
1782117256.667959,0.404000,1702844,1000,12,0,1,157.984,0.398,3.087,557.063,0.051,1.086
1782117256.668959,0.405000,1702845,1000,12,0,1,156.351,-2.341,3.104,557.424,0.946,1.094
1782117256.669959,0.406000,1702846,1000,12,0,1,154.357,-3.309,3.139,557.232,0.304,1.082
1782117256.670959,0.407000,1702847,1000,12,0,1,152.483,-5.264,3.195,555.814,-0.556,1.075
1782117256.671959,0.408000,1702848,1000,12,0,1,148.760,-7.384,3.302,557.424,0.144,1.068
1782117256.672959,0.409000,1702849,1000,12,0,1,147.463,-8.516,3.515,557.640,1.246,1.074
1782117256.673959,0.410000,1702850,1000,12,0,1,156.351,-0.553,3.516,557.015,-0.010,1.074
1782117256.674959,0.411000,1702851,1000,12,0,1,164.998,8.001,3.693,556.655,-0.073,1.037
1782117256.675959,0.412000,1702852,1000,12,0,1,172.132,11.784,4.052,556.391,-0.422,0.981
1782117256.676960,0.413000,1702853,1000,12,0,1,166.800,6.553,4.156,558.336,1.084,0.988
1782117256.677959,0.414000,1702854,1000,12,0,1,163.437,-1.223,4.148,557.688,1.118,0.981
1782117256.678959,0.415000,1702855,1000,12,0,1,164.518,-0.318,4.129,557.256,-0.161,0.974
1782117256.679959,0.416000,1702856,1000,12,0,1,164.878,-1.466,4.114,556.943,0.077,0.967
1782117256.680959,0.417000,1702857,1000,12,0,1,163.124,-3.317,4.119,557.544,0.078,0.967
1782117256.681959,0.418000,1702858,1000,12,0,1,163.605,-3.825,4.138,559.393,1.880,0.999
1782117256.682959,0.419000,1702859,1000,12,0,1,161.395,-4.967,4.189,560.066,2.281,1.049
1782117256.683959,0.420000,1702860,1000,12,0,1,160.314,-6.260,4.280,558.192,0.417,1.049
1782117256.684959,0.421000,1702861,1000,12,0,1,162.956,-3.212,4.302,555.934,-1.928,1.062
1782117256.685959,0.422000,1702862,1000,12,0,1,160.242,-3.877,4.337,555.094,-2.594,1.119
1782117256.686960,0.423000,1702863,1000,12,0,1,160.290,-4.632,4.385,555.502,-1.843,1.140
1782117256.687959,0.424000,1702864,1000,12,0,1,165.238,1.221,4.388,556.415,-0.743,1.145
1782117256.688959,0.425000,1702865,1000,12,0,1,165.166,1.801,4.385,557.280,0.270,1.100
1782117256.689960,0.426000,1702866,1000,12,0,1,163.845,0.064,4.384,556.607,-0.162,1.099
1782117256.690959,0.427000,1702867,1000,12,0,1,162.884,-0.640,4.380,554.733,-1.766,1.111
1782117256.691959,0.428000,1702868,1000,12,0,1,161.275,-2.117,4.388,555.670,-1.146,1.115
1782117256.692959,0.429000,1702869,1000,12,0,1,161.083,-2.402,4.401,557.496,1.039,1.124
1782117256.693959,0.430000,1702870,1000,12,0,1,162.116,-1.380,4.403,556.535,0.316,1.125
1782117256.694959,0.431000,1702871,1000,12,0,1,162.164,-1.337,4.405,557.664,0.678,1.129
1782117256.695959,0.432000,1702872,1000,12,0,1,164.446,-0.096,4.388,558.048,1.542,1.145
1782117256.696959,0.433000,1702873,1000,12,0,1,165.935,1.242,4.368,556.631,-0.155,1.145
1782117256.697959,0.434000,1702874,1000,12,0,1,165.118,-0.343,4.363,555.790,-0.934,1.149
1782117256.698959,0.435000,1702875,1000,12,0,1,167.640,0.726,4.363,556.391,-0.409,1.150
1782117256.699960,0.436000,1702876,1000,12,0,1,170.162,2.839,4.381,558.144,1.213,1.162
1782117256.700959,0.437000,1702877,1000,12,0,1,170.643,2.218,4.391,556.991,0.591,1.164
1782117256.701959,0.438000,1702878,1000,12,0,1,167.208,-1.015,4.387,556.151,-0.796,1.156
1782117256.702959,0.439000,1702879,1000,12,0,1,168.865,-1.077,4.387,557.352,0.509,1.149
1782117256.703959,0.440000,1702880,1000,12,0,1,173.597,3.816,4.420,556.631,0.145,1.120
1782117256.704959,0.441000,1702881,1000,12,0,1,172.661,2.973,4.439,556.991,0.005,1.032
1782117256.705959,0.442000,1702882,1000,12,0,1,169.850,-0.345,4.430,556.895,0.401,1.033
1782117256.706959,0.443000,1702883,1000,12,0,1,167.832,-1.904,4.383,555.646,-0.904,1.038
1782117256.707959,0.444000,1702884,1000,12,0,1,167.712,-1.950,4.268,555.406,-1.050,1.045
1782117256.708959,0.445000,1702885,1000,12,0,1,169.850,0.478,4.087,557.784,0.971,1.050
1782117256.709960,0.446000,1702886,1000,12,0,1,170.955,1.775,3.825,559.105,2.477,1.101
1782117256.710959,0.447000,1702887,1000,12,0,1,171.123,1.629,3.680,558.913,1.798,1.130
1782117256.711959,0.448000,1702888,1000,12,0,1,171.700,1.662,3.627,558.505,1.094,1.138
1782117256.712959,0.449000,1702889,1000,12,0,1,169.130,-0.638,3.600,557.520,0.026,1.110
1782117256.713959,0.450000,1702890,1000,12,0,1,171.291,-0.352,3.600,558.457,0.339,1.105
1782117256.714959,0.451000,1702891,1000,12,0,1,171.171,0.441,3.600,558.817,0.985,1.060
1782117256.715959,0.452000,1702892,1000,12,0,1,171.772,-0.942,3.594,558.264,0.030,1.060
1782117256.716959,0.453000,1702893,1000,12,0,1,174.294,1.191,3.569,557.640,-0.496,1.059
1782117256.717959,0.454000,1702894,1000,12,0,1,174.630,0.648,3.569,559.369,0.576,1.062
1782117256.718959,0.455000,1702895,1000,12,0,1,172.709,-1.857,3.564,558.409,0.388,1.055
1782117256.719959,0.456000,1702896,1000,12,0,1,175.111,-0.926,3.535,559.033,-0.094,1.054
1782117256.720959,0.457000,1702897,1000,12,0,1,176.960,0.965,3.459,558.817,0.454,1.053
1782117256.721959,0.458000,1702898,1000,12,0,1,180.155,2.515,3.316,556.127,-2.223,1.099
1782117256.722960,0.459000,1702899,1000,12,0,1,179.338,2.086,3.104,556.223,-2.311,1.133
1782117256.723959,0.460000,1702900,1000,12,0,1,180.515,1.350,3.109,556.175,-1.458,1.152
1782117256.724959,0.461000,1702901,1000,12,0,1,181.092,2.346,2.915,555.622,-2.018,1.187
1782117256.725959,0.462000,1702902,1000,12,0,1,183.614,3.249,2.435,554.902,-1.995,1.218
1782117256.726959,0.463000,1702903,1000,12,0,1,183.518,3.576,2.308,553.725,-2.810,1.272
1782117256.727959,0.464000,1702904,1000,12,0,1,182.221,1.278,2.308,557.424,0.337,1.263
1782117256.728959,0.465000,1702905,1000,12,0,1,181.861,0.667,2.310,557.880,1.955,1.293
1782117256.729959,0.466000,1702906,1000,12,0,1,181.020,-0.160,2.301,556.439,-0.230,1.293
1782117256.730959,0.467000,1702907,1000,12,0,1,178.810,-2.370,2.277,557.159,0.453,1.295
1782117256.731959,0.468000,1702908,1000,12,0,1,180.756,-1.182,2.218,558.072,1.246,1.279
1782117256.732960,0.469000,1702909,1000,12,0,1,177.056,-3.297,2.155,557.544,0.715,1.242
1782117256.733959,0.470000,1702910,1000,12,0,1,175.975,-5.791,2.129,554.902,-1.556,1.260
1782117256.734959,0.471000,1702911,1000,12,0,1,177.705,-3.263,2.130,555.910,-1.267,1.243
1782117256.735959,0.472000,1702912,1000,12,0,1,177.681,-3.381,2.113,558.361,1.682,1.212
1782117256.736959,0.473000,1702913,1000,12,0,1,180.948,-1.300,2.018,556.751,0.377,1.184
1782117256.737959,0.474000,1702914,1000,12,0,1,186.376,3.359,2.066,553.989,-2.277,1.223
1782117256.738959,0.475000,1702915,1000,12,0,1,186.713,2.909,2.091,556.583,-0.288,1.223
1782117256.739959,0.476000,1702916,1000,12,0,1,189.739,3.353,2.144,555.694,0.365,1.224
1782117256.740959,0.477000,1702917,1000,12,0,1,191.253,4.295,2.226,556.583,-0.044,1.198
1782117256.741959,0.478000,1702918,1000,12,0,1,190.292,1.718,2.219,556.415,1.036,1.196
1782117256.742959,0.479000,1702919,1000,12,0,1,189.211,-0.089,2.193,556.031,-0.091,1.187
1782117256.743959,0.480000,1702920,1000,12,0,1,187.746,-1.782,2.199,555.718,0.153,1.186
1782117256.744959,0.481000,1702921,1000,12,0,1,189.355,-0.944,2.195,556.679,0.652,1.186
1782117256.745960,0.482000,1702922,1000,12,0,1,187.625,-1.277,2.202,556.295,0.724,1.170
1782117256.746959,0.483000,1702923,1000,12,0,1,187.625,-2.248,2.218,556.295,0.299,1.171
1782117256.747959,0.484000,1702924,1000,12,0,1,188.851,0.070,2.218,554.853,-0.625,1.167
1782117256.748959,0.485000,1702925,1000,12,0,1,192.261,2.437,2.242,555.838,-0.291,1.166
1782117256.749959,0.486000,1702926,1000,12,0,1,190.148,1.734,2.219,556.799,1.079,1.164
1782117256.750959,0.487000,1702927,1000,12,0,1,189.067,-0.935,2.201,557.256,1.132,1.171
1782117256.751959,0.488000,1702928,1000,12,0,1,187.337,-1.536,2.207,555.670,-0.137,1.166
1782117256.752959,0.489000,1702929,1000,12,0,1,186.376,-3.239,2.249,555.670,-0.673,1.168
1782117256.753959,0.490000,1702930,1000,12,0,1,188.634,-1.215,2.190,559.514,2.560,1.223
1782117256.754959,0.491000,1702931,1000,12,0,1,194.640,3.432,2.203,559.562,3.165,1.302
1782117256.755960,0.492000,1702932,1000,12,0,1,205.233,11.083,2.703,557.568,0.262,1.301
1782117256.756959,0.493000,1702933,1000,12,0,1,208.836,13.217,3.276,556.415,-0.682,1.298
1782117256.757959,0.494000,1702934,1000,12,0,1,207.635,7.941,3.452,555.742,-1.440,1.306
1782117256.758959,0.495000,1702935,1000,12,0,1,205.569,3.844,3.494,553.773,-2.576,1.349
1782117256.759959,0.496000,1702936,1000,12,0,1,201.774,-1.805,3.494,557.015,-0.347,1.303
1782117256.760959,0.497000,1702937,1000,12,0,1,199.420,-5.136,3.561,557.568,1.684,1.300
1782117256.761959,0.498000,1702938,1000,12,0,1,202.807,-3.042,3.580,555.550,-0.930,1.298
1782117256.762959,0.499000,1702939,1000,12,0,1,201.173,-3.294,3.609,557.712,0.802,1.303
1782117256.763959,0.500000,1702940,1000,12,0,1,199.516,-5.939,3.705,556.655,0.749,1.306
1782117256.764959,0.501000,1702941,1000,12,0,1,200.813,-3.851,3.744,557.135,-0.061,1.299
1782117256.765960,0.502000,1702942,1000,12,0,1,196.945,-6.001,3.837,557.448,1.114,1.308
1782117256.766959,0.503000,1702943,1000,12,0,1,195.480,-7.489,3.977,555.454,-1.187,1.317
1782117256.767959,0.504000,1702944,1000,12,0,1,193.679,-6.693,4.087,557.063,-0.088,1.315
1782117256.768960,0.505000,1702945,1000,12,0,1,191.541,-7.999,4.232,555.934,-0.226,1.314
1782117256.769959,0.506000,1702946,1000,12,0,1,190.796,-6.830,4.339,556.103,-1.076,1.323
1782117256.770959,0.507000,1702947,1000,12,0,1,190.268,-6.136,4.423,556.031,-0.245,1.322
1782117256.771959,0.508000,1702948,1000,12,0,1,194.327,-2.037,4.418,555.838,-0.954,1.291
1782117256.772959,0.509000,1702949,1000,12,0,1,194.351,-0.388,4.408,556.295,-0.188,1.249
1782117256.773959,0.510000,1702950,1000,12,0,1,197.042,0.353,4.405,556.319,-0.182,1.232
1782117256.774959,0.511000,1702951,1000,12,0,1,202.590,5.527,4.461,557.087,0.369,1.200
1782117256.775959,0.512000,1702952,1000,12,0,1,212.367,11.694,4.736,555.454,-0.561,1.169
1782117256.776959,0.513000,1702953,1000,12,0,1,214.192,12.716,5.040,555.382,-1.286,1.114
1782117256.777959,0.514000,1702954,1000,12,0,1,211.214,6.025,5.108,556.175,0.170,1.113
1782117256.778960,0.515000,1702955,1000,12,0,1,204.512,-1.104,5.110,556.031,-0.065,1.078
1782117256.779959,0.516000,1702956,1000,12,0,1,200.356,-6.752,5.198,555.526,-0.277,1.079
1782117256.780959,0.517000,1702957,1000,12,0,1,201.365,-5.522,5.246,555.502,-0.327,1.078
1782117256.781959,0.518000,1702958,1000,12,0,1,203.791,-2.633,5.257,554.013,-1.158,1.076
1782117256.782959,0.519000,1702959,1000,12,0,1,201.798,-3.461,5.259,554.853,-0.757,1.076
1782117256.783959,0.520000,1702960,1000,12,0,1,196.657,-7.220,5.294,556.463,1.292,1.069
1782117256.784959,0.521000,1702961,1000,12,0,1,196.513,-6.859,5.362,555.910,0.829,1.061
1782117256.785959,0.522000,1702962,1000,12,0,1,196.321,-4.317,5.376,554.037,-0.920,1.042
1782117256.786959,0.523000,1702963,1000,12,0,1,204.440,2.242,5.382,556.031,0.395,1.042
1782117256.787959,0.524000,1702964,1000,12,0,1,212.295,11.357,5.596,557.376,2.204,1.039
1782117256.788960,0.525000,1702965,1000,12,0,1,207.611,6.498,5.656,557.712,1.864,1.071
1782117256.789959,0.526000,1702966,1000,12,0,1,201.798,-0.530,5.637,557.496,1.524,1.091
1782117256.790959,0.527000,1702967,1000,12,0,1,200.741,-1.736,5.609,556.535,0.320,1.092
1782117256.791960,0.528000,1702968,1000,12,0,1,202.831,-0.170,5.604,553.532,-2.235,1.127
1782117256.792959,0.529000,1702969,1000,12,0,1,204.152,1.132,5.607,556.055,-0.788,1.133
1782117256.793959,0.530000,1702970,1000,12,0,1,205.233,0.996,5.603,556.055,0.671,1.137
1782117256.794959,0.531000,1702971,1000,12,0,1,207.346,2.079,5.609,557.376,0.574,1.136
1782117256.795959,0.532000,1702972,1000,12,0,1,208.668,2.193,5.614,558.433,2.289,1.177
1782117256.796959,0.533000,1702973,1000,12,0,1,210.301,2.250,5.614,557.736,1.036,1.185
1782117256.797959,0.534000,1702974,1000,12,0,1,211.334,2.145,5.623,556.127,-0.424,1.183
1782117256.798959,0.535000,1702975,1000,12,0,1,213.736,2.702,5.625,556.847,-0.168,1.183
1782117256.799959,0.536000,1702976,1000,12,0,1,212.991,1.720,5.625,556.199,-0.202,1.173
1782117256.800959,0.537000,1702977,1000,12,0,1,212.823,-0.076,5.623,555.574,-1.034,1.171
1782117256.801960,0.538000,1702978,1000,12,0,1,214.216,1.071,5.621,558.144,1.081,1.181
1782117256.802959,0.539000,1702979,1000,12,0,1,214.048,0.666,5.603,558.120,1.750,1.203
1782117256.803959,0.540000,1702980,1000,12,0,1,213.568,-0.060,5.601,556.991,-0.136,1.147
1782117256.804959,0.541000,1702981,1000,12,0,1,214.553,0.776,5.581,559.465,1.837,1.088
1782117256.805959,0.542000,1702982,1000,12,0,1,215.081,1.419,5.360,555.694,-0.677,1.091
1782117256.806959,0.543000,1702983,1000,12,0,1,212.367,-0.671,5.024,556.679,-1.642,1.112
1782117256.807959,0.544000,1702984,1000,12,0,1,213.280,-0.686,4.898,558.120,1.166,1.105
1782117256.808959,0.545000,1702985,1000,12,0,1,211.238,-1.061,4.870,556.343,-1.081,1.055
1782117256.809959,0.546000,1702986,1000,12,0,1,213.207,-0.928,4.865,557.568,-0.313,1.054
1782117256.810959,0.547000,1702987,1000,12,0,1,211.718,-0.525,4.811,556.775,-0.288,1.028
1782117256.811960,0.548000,1702988,1000,12,0,1,210.493,-3.384,4.816,557.880,-0.352,1.021
1782117256.812959,0.549000,1702989,1000,12,0,1,207.707,-4.767,4.840,556.751,-0.189,1.015
1782117256.813959,0.550000,1702990,1000,12,0,1,207.707,-5.893,4.839,557.232,-1.001,1.019
1782117256.814960,0.551000,1702991,1000,12,0,1,207.106,-5.293,4.867,556.247,-0.628,1.023
1782117256.815959,0.552000,1702992,1000,12,0,1,209.148,-4.267,4.830,556.871,-1.059,1.022
1782117256.816959,0.553000,1702993,1000,12,0,1,210.565,-2.283,4.723,557.232,0.237,1.009
1782117256.817959,0.554000,1702994,1000,12,0,1,214.096,-0.093,4.627,556.223,-0.938,1.017
1782117256.818959,0.555000,1702995,1000,12,0,1,219.717,4.482,4.532,557.015,-0.284,1.017
1782117256.819959,0.556000,1702996,1000,12,0,1,223.849,7.341,4.548,558.385,1.258,1.022
1782117256.820959,0.557000,1702997,1000,12,0,1,225.986,7.505,4.588,560.066,2.322,1.073
1782117256.821959,0.558000,1702998,1000,12,0,1,232.760,11.290,4.850,559.730,2.238,1.110
1782117256.822959,0.559000,1702999,1000,12,0,1,234.754,12.178,5.146,555.550,-1.813,1.139
1782117256.823959,0.560000,1703000,1000,12,0,1,230.695,6.217,5.221,554.493,-3.193,1.225
1782117256.824960,0.561000,1703001,1000,12,0,1,225.530,0.200,5.162,556.271,-0.997,1.232
1782117256.825959,0.562000,1703002,1000,12,0,1,220.558,-4.411,4.929,555.382,-1.110,1.239
1782117256.826959,0.563000,1703003,1000,12,0,1,219.237,-5.584,4.657,556.006,-1.012,1.234
1782117256.827959,0.564000,1703004,1000,12,0,1,219.861,-3.660,4.608,556.895,0.473,1.236
1782117256.828959,0.565000,1703005,1000,12,0,1,214.769,-6.757,4.703,556.223,-0.277,1.236
1782117256.829959,0.566000,1703006,1000,12,0,1,209.004,-11.288,4.874,557.015,0.240,1.236
1782117256.830959,0.567000,1703007,1000,12,0,1,208.043,-10.723,5.044,555.262,-0.729,1.240
1782117256.831959,0.568000,1703008,1000,12,0,1,209.676,-7.488,5.141,556.655,-0.441,1.230
1782117256.832959,0.569000,1703009,1000,12,0,1,222.888,3.532,5.142,558.673,2.195,1.264
1782117256.833959,0.570000,1703010,1000,12,0,1,236.916,16.638,5.562,556.895,0.369,1.252
1782117256.834960,0.571000,1703011,1000,12,0,1,239.630,16.273,5.940,557.928,0.520,1.249
1782117256.835959,0.572000,1703012,1000,12,0,1,238.838,11.164,6.116,559.345,2.231,1.282
1782117256.836959,0.573000,1703013,1000,12,0,1,240.231,8.736,6.232,558.264,0.893,1.287
1782117256.837959,0.574000,1703014,1000,12,0,1,243.666,8.425,6.138,556.055,-1.133,1.258
1782117256.838959,0.575000,1703015,1000,12,0,1,249.431,10.347,6.242,555.934,-1.523,1.249
1782117256.839959,0.576000,1703016,1000,12,0,1,247.581,6.780,6.315,556.247,-0.634,1.234
1782117256.840959,0.577000,1703017,1000,12,0,1,246.716,2.040,6.317,556.295,-0.558,1.235
1782117256.841959,0.578000,1703018,1000,12,0,1,246.524,1.134,6.319,554.685,-1.460,1.212
1782117256.842959,0.579000,1703019,1000,12,0,1,242.441,-3.533,6.337,554.781,-1.600,1.228
1782117256.843959,0.580000,1703020,1000,12,0,1,242.224,-4.671,6.370,555.862,-0.005,1.224
1782117256.844959,0.581000,1703021,1000,12,0,1,244.939,-1.483,6.366,557.424,1.295,1.235
1782117256.845959,0.582000,1703022,1000,12,0,1,240.351,-4.507,6.390,557.496,1.578,1.213
1782117256.846959,0.583000,1703023,1000,12,0,1,240.255,-5.569,6.431,555.430,-0.435,1.206
1782117256.847960,0.584000,1703024,1000,12,0,1,242.224,-2.091,6.431,554.853,-1.311,1.218
1782117256.848959,0.585000,1703025,1000,12,0,1,242.104,-2.230,6.427,555.910,-0.070,1.218
1782117256.849959,0.586000,1703026,1000,12,0,1,240.855,-3.192,6.438,556.583,0.558,1.220
1782117256.850959,0.587000,1703027,1000,12,0,1,239.006,-4.980,6.477,554.902,-0.670,1.215
1782117256.851959,0.588000,1703028,1000,12,0,1,236.219,-7.490,6.561,554.253,-1.678,1.229
1782117256.852959,0.589000,1703029,1000,12,0,1,234.466,-9.085,6.685,555.694,-0.052,1.203
1782117256.853959,0.590000,1703030,1000,12,0,1,234.057,-9.276,6.812,558.577,2.369,1.249
1782117256.854959,0.591000,1703031,1000,12,0,1,237.084,-6.690,6.877,558.433,2.557,1.274
1782117256.855959,0.592000,1703032,1000,12,0,1,242.513,-2.047,6.880,557.544,0.912,1.277
1782117256.856959,0.593000,1703033,1000,12,0,1,245.059,-0.072,6.879,558.264,1.372,1.271
1782117256.857960,0.594000,1703034,1000,12,0,1,247.605,0.442,6.879,558.505,1.519,1.278
1782117256.858959,0.595000,1703035,1000,12,0,1,246.500,-0.723,6.878,556.535,-0.294,1.270
1782117256.859959,0.596000,1703036,1000,12,0,1,245.467,-3.254,6.892,556.655,-0.654,1.272
1782117256.860959,0.597000,1703037,1000,12,0,1,244.987,-3.230,6.907,558.048,0.924,1.278
1782117256.861959,0.598000,1703038,1000,12,0,1,246.476,-2.170,6.897,554.950,-1.289,1.290
1782117256.862959,0.599000,1703039,1000,12,0,1,245.683,-1.525,6.868,555.094,-2.077,1.323
1782117256.863959,0.600000,1703040,1000,12,0,1,244.026,-2.732,6.828,555.550,-0.389,1.316
1782117256.864959,0.601000,1703041,1000,12,0,1,245.107,-0.834,6.788,556.775,0.089,1.314
1782117256.865959,0.602000,1703042,1000,12,0,1,247.869,2.668,6.771,558.457,2.063,1.337
1782117256.866959,0.603000,1703043,1000,12,0,1,247.389,3.178,6.779,559.562,2.517,1.383
1782117256.867959,0.604000,1703044,1000,12,0,1,248.758,3.928,6.801,558.649,1.570,1.395
1782117256.868959,0.605000,1703045,1000,12,0,1,248.758,4.532,6.802,558.649,0.728,1.398
1782117256.869959,0.606000,1703046,1000,12,0,1,248.182,3.097,6.736,558.409,0.519,1.389
1782117256.870960,0.607000,1703047,1000,12,0,1,250.391,4.222,6.679,557.784,-0.423,1.351
1782117256.871959,0.608000,1703048,1000,12,0,1,250.680,3.970,6.510,556.703,-1.410,1.328
1782117256.872959,0.609000,1703049,1000,12,0,1,252.553,3.378,6.296,555.454,-2.441,1.348
1782117256.873959,0.610000,1703050,1000,12,0,1,252.842,2.896,6.248,555.574,-2.299,1.311
1782117256.874959,0.611000,1703051,1000,12,0,1,253.154,0.628,6.248,556.871,-0.709,1.307
1782117256.875959,0.612000,1703052,1000,12,0,1,254.955,0.908,6.218,557.472,0.027,1.298
1782117256.876959,0.613000,1703053,1000,12,0,1,250.416,-3.877,6.192,558.601,0.927,1.297
1782117256.877959,0.614000,1703054,1000,12,0,1,250.584,-6.159,6.232,557.616,0.365,1.296
1782117256.878959,0.615000,1703055,1000,12,0,1,254.163,-2.335,6.167,555.574,-1.686,1.317
1782117256.879959,0.616000,1703056,1000,12,0,1,255.508,-1.695,5.961,554.349,-2.505,1.363
1782117256.880960,0.617000,1703057,1000,12,0,1,251.689,-4.596,5.802,557.256,-0.003,1.359
1782117256.881959,0.618000,1703058,1000,12,0,1,249.311,-7.174,5.794,556.991,0.934,1.364
1782117256.882959,0.619000,1703059,1000,12,0,1,249.070,-5.824,5.831,555.742,-0.889,1.335
1782117256.883959,0.620000,1703060,1000,12,0,1,253.634,-1.210,5.338,555.550,-0.632,1.337
1782117256.884959,0.621000,1703061,1000,12,0,1,256.997,3.565,4.842,556.031,-0.224,1.335
1782117256.885959,0.622000,1703062,1000,12,0,1,259.687,5.623,4.646,555.334,-0.463,1.299
1782117256.886959,0.623000,1703063,1000,12,0,1,256.925,3.993,4.515,557.256,0.751,1.297
1782117256.887959,0.624000,1703064,1000,12,0,1,257.333,2.756,4.372,556.967,1.209,1.298
1782117256.888959,0.625000,1703065,1000,12,0,1,259.928,5.537,4.194,557.784,0.942,1.287
1782117256.889959,0.626000,1703066,1000,12,0,1,259.159,4.249,4.126,557.232,0.989,1.292
1782117256.890960,0.627000,1703067,1000,12,0,1,259.856,3.261,4.142,558.433,1.039,1.298
1782117256.891959,0.628000,1703068,1000,12,0,1,260.432,3.267,4.165,556.391,0.039,1.281
1782117256.892959,0.629000,1703069,1000,12,0,1,258.198,-0.189,4.135,556.751,-0.879,1.267
1782117256.893960,0.630000,1703070,1000,12,0,1,257.478,-2.136,4.093,556.151,-0.346,1.268
1782117256.894959,0.631000,1703071,1000,12,0,1,258.703,-2.048,4.098,557.111,-0.292,1.255
1782117256.895959,0.632000,1703072,1000,12,0,1,258.198,-2.964,4.069,556.103,-0.244,1.236
1782117256.896959,0.633000,1703073,1000,12,0,1,262.090,-1.357,3.997,556.175,-0.825,1.240
1782117256.897959,0.634000,1703074,1000,12,0,1,265.500,1.753,3.994,554.950,-1.062,1.235
1782117256.898959,0.635000,1703075,1000,12,0,1,265.525,0.271,3.982,555.574,-0.909,1.242
1782117256.899959,0.636000,1703076,1000,12,0,1,264.492,-1.463,3.961,558.336,1.902,1.268
1782117256.900959,0.637000,1703077,1000,12,0,1,266.966,-0.381,3.899,558.937,2.716,1.322
1782117256.901959,0.638000,1703078,1000,12,0,1,265.164,-1.114,3.755,556.679,0.265,1.301
1782117256.902959,0.639000,1703079,1000,12,0,1,264.612,-2.743,3.550,556.991,0.098,1.301
1782117256.903960,0.640000,1703080,1000,12,0,1,266.437,-0.184,3.299,555.406,-0.739,1.261
1782117256.904959,0.641000,1703081,1000,12,0,1,267.494,1.053,3.164,558.120,0.662,1.212
1782117256.905959,0.642000,1703082,1000,12,0,1,267.374,1.229,3.155,557.472,1.387,1.221
1782117256.906959,0.643000,1703083,1000,12,0,1,265.260,-0.203,3.155,557.616,0.048,1.205
1782117256.907959,0.644000,1703084,1000,12,0,1,264.299,-1.271,3.160,558.385,1.314,1.200
1782117256.908959,0.645000,1703085,1000,12,0,1,263.579,-1.080,3.162,555.262,-1.523,1.219
1782117256.909959,0.646000,1703086,1000,12,0,1,261.201,-3.036,3.157,556.631,-1.306,1.229
1782117256.910959,0.647000,1703087,1000,12,0,1,257.814,-5.515,3.220,556.631,0.109,1.222
1782117256.911959,0.648000,1703088,1000,12,0,1,259.639,-4.295,3.262,556.463,-1.085,1.219
1782117256.912959,0.649000,1703089,1000,12,0,1,261.753,-1.323,3.261,558.529,1.261,1.196
1782117256.913960,0.650000,1703090,1000,12,0,1,261.681,-1.997,3.250,558.336,1.043,1.204
1782117256.914959,0.651000,1703091,1000,12,0,1,261.873,-2.296,3.264,557.376,-0.119,1.204
1782117256.915959,0.652000,1703092,1000,12,0,1,265.645,0.011,3.242,557.376,-0.216,1.168
1782117256.916960,0.653000,1703093,1000,12,0,1,270.377,3.608,3.251,556.511,-0.760,1.118
1782117256.917959,0.654000,1703094,1000,12,0,1,272.971,4.629,3.270,557.232,-0.379,1.097
1782117256.918959,0.655000,1703095,1000,12,0,1,273.067,3.204,3.238,557.496,0.350,1.093
1782117256.919959,0.656000,1703096,1000,12,0,1,270.136,-0.382,3.209,557.520,0.127,1.091
1782117256.920959,0.657000,1703097,1000,12,0,1,265.188,-5.354,3.242,558.336,0.866,1.096
1782117256.921959,0.658000,1703098,1000,12,0,1,263.723,-6.596,3.327,557.856,0.575,1.081
1782117256.922959,0.659000,1703099,1000,12,0,1,265.044,-4.133,3.344,557.135,-0.389,1.026
1782117256.923959,0.660000,1703100,1000,12,0,1,266.509,-1.604,3.326,557.592,0.033,0.973
1782117256.924959,0.661000,1703101,1000,12,0,1,262.666,-3.253,3.357,559.057,1.177,0.982
1782117256.925959,0.662000,1703102,1000,12,0,1,261.369,-4.212,3.407,556.487,-0.574,0.985
1782117256.926960,0.663000,1703103,1000,12,0,1,258.414,-4.145,3.413,555.862,-2.117,1.021
1782117256.927959,0.664000,1703104,1000,12,0,1,258.967,-3.454,3.336,558.024,0.397,1.022
1782117256.928959,0.665000,1703105,1000,12,0,1,264.924,3.397,3.354,558.385,0.799,1.000
1782117256.929959,0.666000,1703106,1000,12,0,1,269.968,8.248,3.543,557.688,-0.071,0.935
1782117256.930959,0.667000,1703107,1000,12,0,1,272.154,9.228,3.720,560.042,1.497,0.959
1782117256.931959,0.668000,1703108,1000,12,0,1,270.665,6.660,3.700,559.273,1.368,0.969
1782117256.932959,0.669000,1703109,1000,12,0,1,270.785,4.288,3.658,557.664,-0.957,0.970
1782117256.933959,0.670000,1703110,1000,12,0,1,278.784,9.224,3.880,557.952,-0.621,0.970
1782117256.934959,0.671000,1703111,1000,12,0,1,283.396,11.961,4.203,557.328,-0.896,0.978
1782117256.935959,0.672000,1703112,1000,12,0,1,285.077,9.708,4.349,558.457,-0.289,0.977
1782117256.936960,0.673000,1703113,1000,12,0,1,284.357,6.557,4.411,558.048,0.121,0.971
1782117256.937959,0.674000,1703114,1000,12,0,1,282.939,2.329,4.406,557.280,-1.095,0.968
1782117256.938959,0.675000,1703115,1000,12,0,1,283.756,1.081,4.339,556.247,-1.401,0.979
1782117256.939960,0.676000,1703116,1000,12,0,1,281.114,-1.792,4.304,557.448,-0.703,0.974
1782117256.940959,0.677000,1703117,1000,12,0,1,279.216,-4.926,4.336,557.832,0.469,0.966
1782117256.941959,0.678000,1703118,1000,12,0,1,280.105,-3.667,4.342,558.577,0.612,0.969
1782117256.942959,0.679000,1703119,1000,12,0,1,277.463,-5.144,4.403,557.208,-0.014,0.961
1782117256.943959,0.680000,1703120,1000,12,0,1,274.989,-6.977,4.502,558.481,0.206,0.961
1782117256.944959,0.681000,1703121,1000,12,0,1,275.829,-5.024,4.548,557.304,0.180,0.960
1782117256.945959,0.682000,1703122,1000,12,0,1,278.472,-1.540,4.534,557.159,-0.942,0.969
1782117256.946959,0.683000,1703123,1000,12,0,1,278.688,-0.229,4.530,557.424,-0.043,0.962
1782117256.947959,0.684000,1703124,1000,12,0,1,276.286,-2.102,4.533,556.463,-1.012,0.961
1782117256.948959,0.685000,1703125,1000,12,0,1,277.271,-1.502,4.538,556.703,-0.930,0.961
1782117256.949960,0.686000,1703126,1000,12,0,1,278.976,0.555,4.534,555.670,-1.193,0.938
1782117256.950959,0.687000,1703127,1000,12,0,1,276.622,-1.691,4.540,555.910,-1.468,0.880
1782117256.951959,0.688000,1703128,1000,12,0,1,277.511,-2.190,4.548,558.529,1.336,0.900
1782117256.952959,0.689000,1703129,1000,12,0,1,278.231,-1.264,4.535,557.496,0.742,0.906
1782117256.953959,0.690000,1703130,1000,12,0,1,281.258,-0.263,4.535,558.625,0.846,0.908
1782117256.954959,0.691000,1703131,1000,12,0,1,282.795,1.021,4.535,557.664,0.836,0.910
1782117256.955959,0.692000,1703132,1000,12,0,1,281.354,-1.751,4.538,558.120,0.166,0.889
1782117256.956959,0.693000,1703133,1000,12,0,1,282.267,-2.130,4.548,555.622,-0.884,0.898
1782117256.957959,0.694000,1703134,1000,12,0,1,283.300,-1.383,4.548,556.031,-1.660,0.909
1782117256.958959,0.695000,1703135,1000,12,0,1,285.197,-0.625,4.547,556.439,0.039,0.884
1782117256.959960,0.696000,1703136,1000,12,0,1,284.621,-0.682,4.527,557.472,0.380,0.866
1782117256.960959,0.697000,1703137,1000,12,0,1,282.291,-3.229,4.483,556.727,0.459,0.868
1782117256.961959,0.698000,1703138,1000,12,0,1,283.636,-1.810,4.449,557.087,0.170,0.855
1782117256.962959,0.699000,1703139,1000,12,0,1,287.167,2.021,4.454,557.135,0.660,0.841
1782117256.963959,0.700000,1703140,1000,12,0,1,289.233,4.306,4.487,559.538,2.165,0.883
1782117256.964959,0.701000,1703141,1000,12,0,1,287.864,3.256,4.499,560.787,3.495,1.012
1782117256.965959,0.702000,1703142,1000,12,0,1,289.401,3.729,4.530,557.856,0.590,1.015
1782117256.966959,0.703000,1703143,1000,12,0,1,287.696,3.183,4.523,557.256,-1.007,1.019
1782117256.967959,0.704000,1703144,1000,12,0,1,288.224,2.027,4.485,556.799,-0.634,1.021
1782117256.968959,0.705000,1703145,1000,12,0,1,289.641,3.789,4.494,555.766,-1.995,1.058
1782117256.969959,0.706000,1703146,1000,12,0,1,288.560,1.859,4.501,555.070,-2.047,1.097
1782117256.970959,0.707000,1703147,1000,12,0,1,286.951,-0.398,4.437,553.821,-2.946,1.167
1782117256.971959,0.708000,1703148,1000,12,0,1,286.879,-1.359,4.343,554.613,-1.996,1.198
1782117256.972960,0.709000,1703149,1000,12,0,1,289.353,-0.164,4.303,556.031,-0.146,1.197
1782117256.973959,0.710000,1703150,1000,12,0,1,285.918,-2.958,4.317,554.950,-0.692,1.201
1782117256.974959,0.711000,1703151,1000,12,0,1,284.717,-6.224,4.382,555.262,-0.706,1.194
1782117256.975959,0.712000,1703152,1000,12,0,1,287.023,-3.669,4.372,557.712,1.743,1.216
1782117256.976959,0.713000,1703153,1000,12,0,1,288.488,-2.901,4.352,556.415,1.063,1.188
1782117256.977959,0.714000,1703154,1000,12,0,1,287.047,-4.015,4.362,558.096,1.382,1.203
1782117256.978959,0.715000,1703155,1000,12,0,1,285.582,-5.719,4.410,558.745,2.820,1.262
1782117256.979959,0.716000,1703156,1000,12,0,1,283.852,-6.420,4.349,556.679,0.235,1.263
1782117256.980959,0.717000,1703157,1000,12,0,1,286.783,-3.711,4.182,556.415,-0.224,1.245
1782117256.981959,0.718000,1703158,1000,12,0,1,290.074,0.760,4.076,557.496,0.812,1.235
1782117256.982960,0.719000,1703159,1000,12,0,1,290.794,1.746,4.038,557.039,0.543,1.230
1782117256.983959,0.720000,1703160,1000,12,0,1,291.587,2.546,3.838,554.613,-1.539,1.246
1782117256.984959,0.721000,1703161,1000,12,0,1,292.115,3.413,3.479,555.670,-1.086,1.249
1782117256.985959,0.722000,1703162,1000,12,0,1,290.146,1.858,3.207,556.655,0.713,1.253
1782117256.986959,0.723000,1703163,1000,12,0,1,290.914,2.141,3.085,557.592,0.995,1.261
1782117256.987959,0.724000,1703164,1000,12,0,1,290.434,2.454,3.087,558.312,1.872,1.279
1782117256.988959,0.725000,1703165,1000,12,0,1,293.148,3.705,3.128,559.586,2.331,1.306
1782117256.989959,0.726000,1703166,1000,12,0,1,295.310,5.906,3.227,557.232,0.600,1.305
1782117256.990959,0.727000,1703167,1000,12,0,1,296.415,5.257,3.238,555.550,-1.869,1.329
1782117256.991959,0.728000,1703168,1000,12,0,1,293.461,2.039,3.209,557.111,-0.268,1.327
1782117256.992959,0.729000,1703169,1000,12,0,1,290.434,-2.442,3.144,556.031,-0.642,1.330
1782117256.993959,0.730000,1703170,1000,12,0,1,291.323,-2.439,3.005,556.535,-0.934,1.336
1782117256.994959,0.731000,1703171,1000,12,0,1,293.388,-0.934,2.923,556.583,-0.024,1.336
1782117256.995960,0.732000,1703172,1000,12,0,1,290.554,-3.621,2.960,556.607,-0.570,1.332
1782117256.996959,0.733000,1703173,1000,12,0,1,286.038,-8.202,3.179,555.454,-0.928,1.338
1782117256.997959,0.734000,1703174,1000,12,0,1,285.390,-8.716,3.396,557.184,-0.128,1.331
1782117256.998959,0.735000,1703175,1000,12,0,1,294.758,-0.438,3.390,556.823,0.629,1.327
1782117256.999959,0.736000,1703176,1000,12,0,1,296.127,2.993,3.416,555.862,-0.960,1.324
1782117257.000959,0.737000,1703177,1000,12,0,1,291.275,-2.758,3.430,555.958,-0.491,1.309
1782117257.001959,0.738000,1703178,1000,12,0,1,295.550,0.368,3.416,556.367,-0.103,1.295
1782117257.002959,0.739000,1703179,1000,12,0,1,296.751,3.282,3.443,556.943,0.451,1.293
1782117257.003959,0.740000,1703180,1000,12,0,1,292.524,-1.157,3.446,555.982,-0.098,1.287
1782117257.004959,0.741000,1703181,1000,12,0,1,295.670,1.253,3.448,556.223,-0.383,1.283
1782117257.005960,0.742000,1703182,1000,12,0,1,293.076,1.040,3.442,557.063,0.827,1.288
1782117257.006959,0.743000,1703183,1000,12,0,1,286.639,-5.266,3.509,555.670,-0.427,1.283
1782117257.007959,0.744000,1703184,1000,12,0,1,285.726,-5.241,3.581,556.151,-0.347,1.263
1782117257.008959,0.745000,1703185,1000,12,0,1,285.053,-4.055,3.625,558.168,1.637,1.284
1782117257.009959,0.746000,1703186,1000,12,0,1,288.248,-1.184,3.628,557.616,1.278,1.295
1782117257.010959,0.747000,1703187,1000,12,0,1,289.545,1.597,3.606,557.159,0.255,1.294
1782117257.011959,0.748000,1703188,1000,12,0,1,289.305,0.454,3.598,557.328,0.489,1.296
1782117257.012959,0.749000,1703189,1000,12,0,1,289.353,0.576,3.587,557.015,0.064,1.292
1782117257.013959,0.750000,1703190,1000,12,0,1,289.521,0.006,3.535,556.655,-0.303,1.256
1782117257.014959,0.751000,1703191,1000,12,0,1,289.017,-0.693,3.507,555.502,-1.174,1.167
1782117257.015960,0.752000,1703192,1000,12,0,1,288.680,-1.575,3.474,555.094,-1.611,1.186
1782117257.016959,0.753000,1703193,1000,12,0,1,287.840,-2.409,3.461,555.334,-1.004,1.186
1782117257.017959,0.754000,1703194,1000,12,0,1,288.656,-2.031,3.461,554.998,-1.052,1.192
1782117257.018960,0.755000,1703195,1000,12,0,1,287.744,-2.210,3.434,556.391,0.101,1.158
1782117257.019959,0.756000,1703196,1000,12,0,1,288.200,-2.110,3.437,553.532,-1.418,1.139
1782117257.020959,0.757000,1703197,1000,12,0,1,287.095,-1.903,3.447,554.853,-1.447,1.080
1782117257.021959,0.758000,1703198,1000,12,0,1,288.921,-0.562,3.442,557.280,2.040,1.081
1782117257.022959,0.759000,1703199,1000,12,0,1,291.347,2.867,3.466,558.168,2.198,1.125
1782117257.023959,0.760000,1703200,1000,12,0,1,293.629,4.770,3.506,556.631,1.050,1.131
1782117257.024959,0.761000,1703201,1000,12,0,1,297.928,8.330,3.593,558.697,1.712,1.152
1782117257.025959,0.762000,1703202,1000,12,0,1,298.553,8.987,3.775,558.024,1.971,1.159
1782117257.026959,0.763000,1703203,1000,12,0,1,301.652,9.537,3.988,557.015,-0.087,1.150
1782117257.027959,0.764000,1703204,1000,12,0,1,303.886,11.317,4.259,557.952,0.822,1.139
1782117257.028960,0.765000,1703205,1000,12,0,1,301.363,7.163,4.303,558.144,0.990,1.076
1782117257.029959,0.766000,1703206,1000,12,0,1,297.520,2.384,4.220,558.745,0.985,1.084
1782117257.030959,0.767000,1703207,1000,12,0,1,293.268,-2.262,4.199,557.880,0.543,1.086
1782117257.031959,0.768000,1703208,1000,12,0,1,291.419,-4.526,4.246,558.216,-0.026,1.080
1782117257.032959,0.769000,1703209,1000,12,0,1,293.725,-2.584,4.255,557.448,-0.020,1.078
1782117257.033959,0.770000,1703210,1000,12,0,1,296.199,-0.331,4.240,558.096,-0.317,1.056
1782117257.034959,0.771000,1703211,1000,12,0,1,295.911,-0.987,4.214,558.072,0.389,1.047
1782117257.035959,0.772000,1703212,1000,12,0,1,297.160,-1.098,4.209,558.336,-0.053,1.042
1782117257.036959,0.773000,1703213,1000,12,0,1,301.411,1.977,4.207,558.096,0.123,1.032
1782117257.037959,0.774000,1703214,1000,12,0,1,304.294,3.718,4.226,557.015,-1.077,1.009
1782117257.038960,0.775000,1703215,1000,12,0,1,299.850,-0.787,4.195,556.895,-1.220,0.970
1782117257.039959,0.776000,1703216,1000,12,0,1,299.562,-3.242,4.136,558.192,0.032,0.966
1782117257.040959,0.777000,1703217,1000,12,0,1,297.904,-3.347,4.096,559.393,1.087,0.942
1782117257.041960,0.778000,1703218,1000,12,0,1,298.841,-3.752,4.121,558.433,0.331,0.942
1782117257.042959,0.779000,1703219,1000,12,0,1,296.992,-3.410,4.134,558.336,-0.416,0.939
1782117257.043959,0.780000,1703220,1000,12,0,1,297.688,-3.632,4.152,557.640,-0.588,0.934
1782117257.044959,0.781000,1703221,1000,12,0,1,295.839,-3.031,4.172,557.592,-1.119,0.947
1782117257.045959,0.782000,1703222,1000,12,0,1,293.653,-5.038,4.201,557.376,-0.821,0.951
1782117257.046959,0.783000,1703223,1000,12,0,1,294.686,-2.912,4.059,557.448,-0.987,0.952
1782117257.047959,0.784000,1703224,1000,12,0,1,294.157,-1.913,3.876,555.574,-2.013,0.993
1782117257.048959,0.785000,1703225,1000,12,0,1,294.710,-1.438,3.881,557.736,-0.813,0.996
1782117257.049959,0.786000,1703226,1000,12,0,1,293.941,-0.701,3.859,559.345,1.705,1.016
1782117257.050959,0.787000,1703227,1000,12,0,1,292.284,-2.509,3.856,557.496,-0.254,1.014
1782117257.051960,0.788000,1703228,1000,12,0,1,293.004,-1.375,3.861,556.271,-1.538,1.037
1782117257.052959,0.789000,1703229,1000,12,0,1,293.629,-0.659,3.834,556.751,-0.870,1.042
1782117257.053959,0.790000,1703230,1000,12,0,1,293.268,-0.952,3.833,557.784,0.177,1.043
1782117257.054959,0.791000,1703231,1000,12,0,1,293.677,-0.998,3.831,558.625,1.114,1.053
1782117257.055959,0.792000,1703232,1000,12,0,1,295.646,0.486,3.829,556.895,-0.297,1.047
1782117257.056959,0.793000,1703233,1000,12,0,1,294.445,-0.425,3.756,556.103,-1.329,1.062
1782117257.057959,0.794000,1703234,1000,12,0,1,293.388,-2.223,3.696,557.232,-0.096,1.061
1782117257.058959,0.795000,1703235,1000,12,0,1,294.854,-0.809,3.653,557.448,0.419,1.038
1782117257.059959,0.796000,1703236,1000,12,0,1,295.334,-0.096,3.649,557.424,0.181,1.022
1782117257.060959,0.797000,1703237,1000,12,0,1,297.448,1.372,3.647,557.135,0.102,1.021
1782117257.061960,0.798000,1703238,1000,12,0,1,297.160,1.881,3.656,557.015,-0.191,1.019
1782117257.062959,0.799000,1703239,1000,12,0,1,295.574,0.030,3.655,557.760,0.509,1.022
1782117257.063959,0.800000,1703240,1000,12,0,1,294.301,-0.482,3.656,557.448,0.357,1.022
1782117257.064960,0.801000,1703241,1000,12,0,1,296.775,1.622,3.662,555.790,-1.145,1.022
1782117257.065959,0.802000,1703242,1000,12,0,1,295.598,2.113,3.667,554.469,-2.253,1.046
1782117257.066959,0.803000,1703243,1000,12,0,1,294.710,0.604,3.652,554.805,-1.718,1.064
1782117257.067959,0.804000,1703244,1000,12,0,1,293.052,0.317,3.641,556.631,0.218,1.054
1782117257.068959,0.805000,1703245,1000,12,0,1,292.260,-0.624,3.629,558.312,1.904,1.088
1782117257.069959,0.806000,1703246,1000,12,0,1,288.512,-2.633,3.636,558.264,1.822,1.100
1782117257.070959,0.807000,1703247,1000,12,0,1,288.152,-3.457,3.659,556.847,0.321,1.082
1782117257.071959,0.808000,1703248,1000,12,0,1,288.320,-1.836,3.667,557.063,0.145,1.043
1782117257.072959,0.809000,1703249,1000,12,0,1,291.899,0.721,3.646,558.336,1.397,1.015
1782117257.073959,0.810000,1703250,1000,12,0,1,294.902,3.959,3.627,558.072,1.171,1.017
1782117257.074960,0.811000,1703251,1000,12,0,1,295.334,3.368,3.463,558.216,0.851,0.995
1782117257.075959,0.812000,1703252,1000,12,0,1,294.037,1.332,3.227,558.817,1.371,0.975
1782117257.076959,0.813000,1703253,1000,12,0,1,296.199,1.933,2.944,561.267,2.932,1.059
1782117257.077959,0.814000,1703254,1000,12,0,1,299.922,4.631,2.556,560.018,2.212,1.098
1782117257.078959,0.815000,1703255,1000,12,0,1,298.121,2.729,2.378,556.535,-1.751,1.117
1782117257.079959,0.816000,1703256,1000,12,0,1,297.688,0.396,2.355,557.184,-1.479,1.128
1782117257.080959,0.817000,1703257,1000,12,0,1,296.079,-0.288,2.334,558.457,0.249,1.126
1782117257.081959,0.818000,1703258,1000,12,0,1,291.851,-4.463,2.331,556.127,-1.608,1.149
1782117257.082959,0.819000,1703259,1000,12,0,1,290.218,-5.249,2.419,556.367,-1.883,1.179
1782117257.083959,0.820000,1703260,1000,12,0,1,285.774,-7.211,2.625,557.496,-0.165,1.179
1782117257.084960,0.821000,1703261,1000,12,0,1,279.817,-11.079,3.054,558.625,0.612,1.181
1782117257.085959,0.822000,1703262,1000,12,0,1,278.616,-10.012,3.362,559.802,1.678,1.204
1782117257.086959,0.823000,1703263,1000,12,0,1,282.459,-4.210,3.403,559.321,1.105,1.214
1782117257.087959,0.824000,1703264,1000,12,0,1,295.526,8.092,3.552,558.216,-0.295,1.205
1782117257.088959,0.825000,1703265,1000,12,0,1,302.468,15.926,4.204,557.520,-0.951,1.200
1782117257.089959,0.826000,1703266,1000,12,0,1,299.226,10.872,4.453,559.922,0.720,1.205
1782117257.090959,0.827000,1703267,1000,12,0,1,294.710,4.870,4.481,559.297,0.957,1.202
1782117257.091959,0.828000,1703268,1000,12,0,1,290.986,0.437,4.450,558.649,-0.651,1.205
1782117257.092959,0.829000,1703269,1000,12,0,1,290.986,-0.681,4.425,557.352,-1.138,1.214
1782117257.093959,0.830000,1703270,1000,12,0,1,294.133,1.895,4.403,557.928,-1.244,1.224
1782117257.094959,0.831000,1703271,1000,12,0,1,295.046,2.257,4.394,558.481,-0.009,1.214
1782117257.095959,0.832000,1703272,1000,12,0,1,298.073,3.379,4.362,558.144,-0.485,1.210
1782117257.096959,0.833000,1703273,1000,12,0,1,296.607,2.156,4.353,556.607,-1.531,1.222
1782117257.097960,0.834000,1703274,1000,12,0,1,295.478,-0.830,4.346,558.697,-0.123,1.188
1782117257.098959,0.835000,1703275,1000,12,0,1,296.607,0.185,4.342,558.144,0.445,1.184
1782117257.099959,0.836000,1703276,1000,12,0,1,300.354,2.643,4.356,556.967,-1.268,1.173
1782117257.100959,0.837000,1703277,1000,12,0,1,299.490,2.420,4.355,558.817,0.467,1.174
1782117257.101959,0.838000,1703278,1000,12,0,1,297.088,-0.834,4.353,558.817,0.983,1.163
1782117257.102959,0.839000,1703279,1000,12,0,1,298.433,0.241,4.352,557.376,-0.760,1.161
1782117257.103959,0.840000,1703280,1000,12,0,1,296.487,-0.427,4.350,557.352,-0.691,1.165
1782117257.104959,0.841000,1703281,1000,12,0,1,297.520,-0.523,4.348,558.625,0.345,1.155
1782117257.105959,0.842000,1703282,1000,12,0,1,298.193,1.579,4.354,560.018,1.707,1.179
1782117257.106959,0.843000,1703283,1000,12,0,1,297.448,0.278,4.353,557.256,-0.536,1.167
1782117257.107960,0.844000,1703284,1000,12,0,1,297.952,0.994,4.344,557.616,-1.196,1.179
1782117257.108959,0.845000,1703285,1000,12,0,1,296.319,-0.312,4.343,557.952,0.069,1.177
1782117257.109959,0.846000,1703286,1000,12,0,1,294.878,-2.027,4.352,559.465,0.662,1.181
1782117257.110959,0.847000,1703287,1000,12,0,1,298.169,0.517,4.349,558.553,0.650,1.184
1782117257.111959,0.848000,1703288,1000,12,0,1,296.487,-0.183,4.341,557.544,-1.032,1.193
1782117257.112959,0.849000,1703289,1000,12,0,1,293.485,-4.152,4.380,558.216,-0.150,1.191
1782117257.113959,0.850000,1703290,1000,12,0,1,293.268,-4.230,4.420,560.907,2.007,1.223
1782117257.114959,0.851000,1703291,1000,12,0,1,294.109,-3.430,4.441,558.264,0.403,1.214
1782117257.115959,0.852000,1703292,1000,12,0,1,297.160,-1.012,4.433,558.433,-0.826,1.177
1782117257.116959,0.853000,1703293,1000,12,0,1,295.767,-1.489,4.437,557.544,-0.379,1.153
1782117257.117959,0.854000,1703294,1000,12,0,1,296.703,-2.160,4.448,558.457,-0.502,1.155
1782117257.118959,0.855000,1703295,1000,12,0,1,296.679,-0.951,4.449,557.904,0.043,1.123
1782117257.119959,0.856000,1703296,1000,12,0,1,296.968,-1.593,4.439,558.312,-0.315,1.094
1782117257.120960,0.857000,1703297,1000,12,0,1,297.352,-0.382,4.412,557.015,-0.684,1.097
1782117257.121959,0.858000,1703298,1000,12,0,1,294.926,-2.209,4.416,557.496,-0.859,1.104
1782117257.122959,0.859000,1703299,1000,12,0,1,295.598,-1.666,4.421,558.072,0.254,1.087
1782117257.123959,0.860000,1703300,1000,12,0,1,293.989,-1.301,4.389,557.328,-0.415,1.075
1782117257.124959,0.861000,1703301,1000,12,0,1,293.388,-2.099,4.373,557.424,-0.567,1.072
1782117257.125959,0.862000,1703302,1000,12,0,1,291.395,-1.900,4.377,556.823,-0.564,1.057
1782117257.126959,0.863000,1703303,1000,12,0,1,290.722,-2.538,4.384,556.943,-0.899,0.981
1782117257.127959,0.864000,1703304,1000,12,0,1,291.395,-0.444,4.335,553.701,-2.627,1.001
1782117257.128959,0.865000,1703305,1000,12,0,1,290.002,-1.003,4.320,556.511,-1.483,0.992
1782117257.129959,0.866000,1703306,1000,12,0,1,290.002,-0.874,4.321,558.697,2.389,1.027
1782117257.130960,0.867000,1703307,1000,12,0,1,293.413,2.403,4.335,558.793,1.393,1.045
1782117257.131959,0.868000,1703308,1000,12,0,1,294.686,3.738,4.321,557.352,0.587,1.023
1782117257.132959,0.869000,1703309,1000,12,0,1,294.085,2.391,4.270,557.496,-0.060,0.988
1782117257.133959,0.870000,1703310,1000,12,0,1,294.565,1.920,4.155,558.072,0.878,0.996
1782117257.134959,0.871000,1703311,1000,12,0,1,294.902,1.760,3.857,558.529,1.067,1.003
1782117257.135959,0.872000,1703312,1000,12,0,1,296.607,2.147,3.600,556.487,-0.476,0.977
1782117257.136959,0.873000,1703313,1000,12,0,1,300.042,4.527,3.608,557.880,0.065,0.965
1782117257.137959,0.874000,1703314,1000,12,0,1,300.042,3.941,3.467,558.144,1.160,0.978
1782117257.138959,0.875000,1703315,1000,12,0,1,296.559,-0.090,2.635,558.168,0.580,0.972
1782117257.139959,0.876000,1703316,1000,12,0,1,292.980,-3.662,2.202,556.895,-0.141,0.967
1782117257.140960,0.877000,1703317,1000,12,0,1,294.565,-2.414,2.119,556.799,-0.645,0.962
1782117257.141959,0.878000,1703318,1000,12,0,1,296.127,0.265,2.119,555.958,-0.838,0.964
1782117257.142959,0.879000,1703319,1000,12,0,1,292.860,-2.008,2.135,557.616,0.183,0.951
1782117257.143960,0.880000,1703320,1000,12,0,1,289.521,-4.589,2.216,559.009,1.929,0.974
1782117257.144959,0.881000,1703321,1000,12,0,1,287.023,-5.355,2.320,558.985,1.540,0.998
1782117257.145959,0.882000,1703322,1000,12,0,1,289.954,-2.186,2.291,557.184,-0.169,0.996
1782117257.146959,0.883000,1703323,1000,12,0,1,291.203,1.123,2.276,556.775,-0.946,0.981
1782117257.147959,0.884000,1703324,1000,12,0,1,291.491,1.082,2.278,557.015,-0.517,0.984
1782117257.148959,0.885000,1703325,1000,12,0,1,294.157,3.727,2.338,557.664,0.027,0.982
1782117257.149959,0.886000,1703326,1000,12,0,1,293.268,3.184,2.352,555.454,-1.503,0.988
1782117257.150959,0.887000,1703327,1000,12,0,1,293.292,1.873,2.342,556.343,-1.375,1.005
1782117257.151959,0.888000,1703328,1000,12,0,1,294.950,3.185,2.382,557.664,0.647,1.000
1782117257.152959,0.889000,1703329,1000,12,0,1,293.821,1.524,2.391,557.544,0.339,0.995
1782117257.153960,0.890000,1703330,1000,12,0,1,296.559,2.364,2.414,556.006,-0.843,0.997
1782117257.154959,0.891000,1703331,1000,12,0,1,302.276,6.790,2.597,555.238,-1.624,1.022
1782117257.155959,0.892000,1703332,1000,12,0,1,305.495,8.274,2.839,557.664,0.510,0.996
1782117257.156959,0.893000,1703333,1000,12,0,1,305.159,6.197,2.971,559.225,2.469,1.053
1782117257.157959,0.894000,1703334,1000,12,0,1,302.684,2.330,2.986,558.216,1.196,1.053
1782117257.158959,0.895000,1703335,1000,12,0,1,302.564,0.700,2.987,557.544,0.342,1.054
1782117257.159959,0.896000,1703336,1000,12,0,1,303.021,0.904,2.976,557.736,0.377,1.051
1782117257.160959,0.897000,1703337,1000,12,0,1,302.973,0.297,2.976,557.304,0.147,1.047
1782117257.161959,0.898000,1703338,1000,12,0,1,302.684,0.010,2.976,557.520,0.058,1.037
1782117257.162959,0.899000,1703339,1000,12,0,1,299.754,-2.253,2.934,556.919,-0.136,1.037
1782117257.163960,0.900000,1703340,1000,12,0,1,296.992,-4.601,2.946,558.312,0.537,1.000
1782117257.164959,0.901000,1703341,1000,12,0,1,299.129,-2.256,2.923,559.898,2.286,1.050
1782117257.165959,0.902000,1703342,1000,12,0,1,299.706,-0.343,2.920,559.129,1.280,1.059
1782117257.166960,0.903000,1703343,1000,12,0,1,301.291,0.565,2.913,557.111,-0.797,1.063
1782117257.167959,0.904000,1703344,1000,12,0,1,301.243,1.284,2.903,556.775,-1.378,1.079
1782117257.168959,0.905000,1703345,1000,12,0,1,301.483,0.492,2.901,558.697,0.359,1.080
1782117257.169959,0.906000,1703346,1000,12,0,1,304.006,2.372,2.911,558.793,0.818,1.085
1782117257.170959,0.907000,1703347,1000,12,0,1,305.879,3.322,2.948,560.066,1.138,1.093
1782117257.171959,0.908000,1703348,1000,12,0,1,305.207,1.651,2.941,559.538,1.163,1.098
1782117257.172959,0.909000,1703349,1000,12,0,1,305.855,0.682,2.933,557.063,-1.627,1.122
1782117257.173959,0.910000,1703350,1000,12,0,1,307.152,0.922,2.930,557.472,-1.435,1.138
1782117257.174959,0.911000,1703351,1000,12,0,1,307.705,0.347,2.916,557.304,-0.938,1.143
1782117257.175959,0.912000,1703352,1000,12,0,1,310.635,1.462,2.911,558.072,-0.622,1.144
1782117257.176960,0.913000,1703353,1000,12,0,1,308.882,0.003,2.888,556.103,-1.408,1.154
1782117257.177959,0.914000,1703354,1000,12,0,1,306.288,-3.962,2.942,559.225,0.103,1.093
1782117257.178959,0.915000,1703355,1000,12,0,1,307.849,-2.563,2.960,559.465,2.023,1.110
1782117257.179959,0.916000,1703356,1000,12,0,1,308.497,-1.534,2.966,559.057,0.198,1.058
1782117257.180959,0.917000,1703357,1000,12,0,1,310.563,-0.100,2.946,561.483,2.547,1.100
1782117257.181959,0.918000,1703358,1000,12,0,1,311.836,1.652,2.908,561.027,2.137,1.137
1782117257.182959,0.919000,1703359,1000,12,0,1,310.299,0.102,2.888,560.114,0.419,1.139
1782117257.183959,0.920000,1703360,1000,12,0,1,310.852,0.270,2.876,559.441,-0.028,1.132
1782117257.184959,0.921000,1703361,1000,12,0,1,311.236,1.099,2.869,558.312,-1.392,1.139
1782117257.185959,0.922000,1703362,1000,12,0,1,311.500,0.966,2.856,557.760,-1.654,1.161
1782117257.186960,0.923000,1703363,1000,12,0,1,309.867,-0.168,2.784,558.361,-1.186,1.173
1782117257.187959,0.924000,1703364,1000,12,0,1,308.810,-1.730,2.738,558.288,-0.748,1.166
1782117257.188959,0.925000,1703365,1000,12,0,1,306.936,-2.911,2.769,559.922,0.247,1.164
1782117257.189960,0.926000,1703366,1000,12,0,1,307.801,-2.832,2.749,558.577,-0.107,1.164
1782117257.190959,0.927000,1703367,1000,12,0,1,308.738,-1.427,2.736,555.454,-3.366,1.254
1782117257.191959,0.928000,1703368,1000,12,0,1,311.404,-0.060,2.735,556.511,-2.350,1.292
1782117257.192959,0.929000,1703369,1000,12,0,1,310.755,-0.332,2.721,559.538,0.939,1.299
1782117257.193959,0.930000,1703370,1000,12,0,1,310.803,-1.883,2.656,557.784,-0.038,1.270
1782117257.194959,0.931000,1703371,1000,12,0,1,310.611,-1.940,2.560,556.271,-2.001,1.282
1782117257.195959,0.932000,1703372,1000,12,0,1,314.695,0.254,2.542,556.895,-1.009,1.290
1782117257.196959,0.933000,1703373,1000,12,0,1,315.896,1.920,2.551,555.934,-1.336,1.297
1782117257.197959,0.934000,1703374,1000,12,0,1,315.175,-0.135,2.547,558.072,0.077,1.295
1782117257.198959,0.935000,1703375,1000,12,0,1,314.214,-1.106,2.497,558.216,1.306,1.308
1782117257.199960,0.936000,1703376,1000,12,0,1,315.872,-0.204,2.456,556.847,-0.604,1.294
1782117257.200959,0.937000,1703377,1000,12,0,1,315.223,-0.069,2.442,557.472,0.123,1.279
1782117257.201959,0.938000,1703378,1000,12,0,1,313.806,-1.575,2.410,555.526,-1.063,1.284
1782117257.202959,0.939000,1703379,1000,12,0,1,313.109,-1.698,2.412,555.478,-1.615,1.304
1782117257.203959,0.940000,1703380,1000,12,0,1,314.623,-0.005,2.389,557.712,1.018,1.306
1782117257.204959,0.941000,1703381,1000,12,0,1,317.289,2.723,2.221,558.385,1.713,1.309
1782117257.205959,0.942000,1703382,1000,12,0,1,319.547,4.772,2.005,558.361,1.477,1.323
1782117257.206959,0.943000,1703383,1000,12,0,1,317.938,3.112,1.856,556.006,-0.420,1.278
1782117257.207959,0.944000,1703384,1000,12,0,1,314.551,-0.576,1.829,556.463,-0.712,1.270
1782117257.208959,0.945000,1703385,1000,12,0,1,316.905,0.410,1.827,557.304,0.831,1.275
1782117257.209960,0.946000,1703386,1000,12,0,1,317.313,1.570,1.836,559.225,1.911,1.302
1782117257.210959,0.947000,1703387,1000,12,0,1,316.232,-0.863,1.839,557.904,1.420,1.317
1782117257.211959,0.948000,1703388,1000,12,0,1,313.806,-2.888,1.884,558.433,0.636,1.320
1782117257.212959,0.949000,1703389,1000,12,0,1,309.867,-6.904,2.098,556.775,0.142,1.320
1782117257.213959,0.950000,1703390,1000,12,0,1,308.497,-8.036,2.296,558.120,0.052,1.318
1782117257.214959,0.951000,1703391,1000,12,0,1,308.762,-6.958,2.477,558.721,1.611,1.298
1782117257.215959,0.952000,1703392,1000,12,0,1,311.068,-4.584,2.560,558.433,0.577,1.288
1782117257.216959,0.953000,1703393,1000,12,0,1,319.091,2.488,2.583,557.472,-0.073,1.283
1782117257.217959,0.954000,1703394,1000,12,0,1,322.333,6.093,2.717,557.616,-0.294,1.269
1782117257.218959,0.955000,1703395,1000,12,0,1,318.995,1.923,2.729,556.151,-1.156,1.278
1782117257.219959,0.956000,1703396,1000,12,0,1,314.166,-2.872,2.739,556.631,-1.110,1.283
1782117257.220959,0.957000,1703397,1000,12,0,1,310.371,-5.965,2.827,558.649,1.006,1.281
1782117257.221959,0.958000,1703398,1000,12,0,1,304.414,-9.560,3.125,557.184,0.164,1.270
1782117257.222960,0.959000,1703399,1000,12,0,1,305.663,-7.864,3.316,554.661,-2.568,1.301
1782117257.223959,0.960000,1703400,1000,12,0,1,317.649,4.425,3.372,556.415,-0.938,1.292
1782117257.224959,0.961000,1703401,1000,12,0,1,331.894,17.595,4.190,557.111,0.396,1.286
1782117257.225959,0.962000,1703402,1000,12,0,1,331.966,17.405,4.855,557.376,0.320,1.284
1782117257.226959,0.963000,1703403,1000,12,0,1,331.966,12.780,5.181,557.376,0.501,1.270
1782117257.227959,0.964000,1703404,1000,12,0,1,331.966,11.637,5.407,557.376,0.298,1.271
1782117257.228959,0.965000,1703405,1000,12,0,1,325.072,3.371,5.416,557.832,0.639,1.242
1782117257.229959,0.966000,1703406,1000,12,0,1,326.273,1.320,5.415,558.168,0.910,1.248
1782117257.230959,0.967000,1703407,1000,12,0,1,326.537,2.382,5.425,557.424,0.171,1.195
1782117257.231959,0.968000,1703408,1000,12,0,1,325.144,-1.224,5.423,558.168,0.474,1.158
1782117257.232960,0.969000,1703409,1000,12,0,1,322.021,-3.691,5.448,558.985,1.347,1.172
1782117257.233959,0.970000,1703410,1000,12,0,1,317.385,-8.691,5.585,557.304,-0.130,1.172
1782117257.234959,0.971000,1703411,1000,12,0,1,318.706,-7.628,5.686,557.664,-0.431,1.157
1782117257.235959,0.972000,1703412,1000,12,0,1,322.862,-3.077,5.701,557.736,0.254,1.134
1782117257.236959,0.973000,1703413,1000,12,0,1,324.423,-1.506,5.705,557.232,-0.555,1.124
1782117257.237959,0.974000,1703414,1000,12,0,1,322.886,-2.880,5.714,558.937,0.903,1.127
1782117257.238959,0.975000,1703415,1000,12,0,1,316.208,-8.349,5.820,557.952,0.513,1.128
1782117257.239959,0.976000,1703416,1000,12,0,1,311.524,-12.292,6.061,556.463,-1.386,1.145
1782117257.240959,0.977000,1703417,1000,12,0,1,313.037,-9.359,6.201,558.625,0.481,1.044
1782117257.241959,0.978000,1703418,1000,12,0,1,309.771,-9.204,6.336,558.721,1.122,1.002
1782117257.242959,0.979000,1703419,1000,12,0,1,303.717,-13.264,6.607,558.048,-0.086,0.993
1782117257.243959,0.980000,1703420,1000,12,0,1,305.687,-9.630,6.741,555.694,-1.696,1.022
1782117257.244959,0.981000,1703421,1000,12,0,1,312.413,-1.059,6.737,556.031,-2.019,1.023
1782117257.245960,0.982000,1703422,1000,12,0,1,326.273,11.252,6.922,559.898,1.847,1.046
1782117257.246959,0.983000,1703423,1000,12,0,1,335.929,20.432,7.496,559.754,2.149,1.073
1782117257.247959,0.984000,1703424,1000,12,0,1,337.875,19.035,7.965,556.559,-1.296,1.088
1782117257.248959,0.985000,1703425,1000,12,0,1,338.115,15.996,8.279,557.832,-0.694,1.077
1782117257.249959,0.986000,1703426,1000,12,0,1,339.244,13.700,8.502,558.433,0.602,1.077
1782117257.250959,0.987000,1703427,1000,12,0,1,338.427,10.428,8.629,556.175,-1.562,1.099
1782117257.251959,0.988000,1703428,1000,12,0,1,332.086,2.822,8.636,556.871,-1.283,1.104
1782117257.252959,0.989000,1703429,1000,12,0,1,326.657,-4.170,8.652,559.297,1.346,1.096
1782117257.253959,0.990000,1703430,1000,12,0,1,325.985,-5.013,8.681,558.961,1.160,1.099
1782117257.254959,0.991000,1703431,1000,12,0,1,324.231,-5.945,8.713,556.391,-1.253,1.087
1782117257.255960,0.992000,1703432,1000,12,0,1,325.000,-5.458,8.721,557.520,-0.784,1.072
1782117257.256959,0.993000,1703433,1000,12,0,1,327.186,-2.606,8.718,557.760,0.366,1.072
1782117257.257959,0.994000,1703434,1000,12,0,1,329.419,-0.668,8.718,556.031,-1.450,1.087
1782117257.258959,0.995000,1703435,1000,12,0,1,329.516,-0.297,8.718,556.343,-1.124,1.092
1782117257.259959,0.996000,1703436,1000,12,0,1,326.609,-3.042,8.726,556.895,-0.174,1.058
1782117257.260959,0.997000,1703437,1000,12,0,1,326.729,-3.480,8.739,557.280,0.124,1.039
1782117257.261959,0.998000,1703438,1000,12,0,1,331.341,0.805,8.730,558.721,1.391,1.054
1782117257.262959,0.999000,1703439,1000,12,0,1,327.978,-1.120,8.677,556.703,0.010,1.054
1782117257.263959,1.000000,1703440,1000,12,0,1,323.030,-6.714,8.654,557.400,-0.349,1.055
1782117257.264959,1.001000,1703441,1000,12,0,1,323.679,-5.602,8.635,557.232,0.460,1.032
1782117257.265960,1.002000,1703442,1000,12,0,1,319.739,-7.245,8.671,555.670,-1.417,1.048
1782117257.266959,1.003000,1703443,1000,12,0,1,319.811,-7.728,8.733,556.871,-0.352,1.049
1782117257.267959,1.004000,1703444,1000,12,0,1,320.460,-4.639,8.715,557.952,1.026,1.058
1782117257.268960,1.005000,1703445,1000,12,0,1,318.658,-5.828,8.749,558.553,1.206,1.059
1782117257.269959,1.006000,1703446,1000,12,0,1,317.721,-5.475,8.774,557.448,0.473,1.050
1782117257.270959,1.007000,1703447,1000,12,0,1,318.106,-4.174,8.753,557.712,-0.011,1.040
1782117257.271959,1.008000,1703448,1000,12,0,1,316.616,-4.080,8.668,556.055,-0.687,1.044
1782117257.272959,1.009000,1703449,1000,12,0,1,317.601,-2.840,8.605,559.898,1.343,0.997
1782117257.273959,1.010000,1703450,1000,12,0,1,316.761,-1.867,8.587,556.871,0.794,0.995
1782117257.274959,1.011000,1703451,1000,12,0,1,314.503,-3.426,8.232,557.063,-1.508,1.016
1782117257.275959,1.012000,1703452,1000,12,0,1,317.385,-0.458,7.856,558.024,1.160,1.028
1782117257.276959,1.013000,1703453,1000,12,0,1,325.384,7.224,7.713,558.457,0.525,1.028
1782117257.277959,1.014000,1703454,1000,12,0,1,326.729,9.048,7.644,558.264,0.831,1.034
1782117257.278960,1.015000,1703455,1000,12,0,1,324.808,5.694,7.671,557.544,-0.105,1.030
1782117257.279959,1.016000,1703456,1000,12,0,1,323.631,4.041,7.690,559.874,1.412,1.042
1782117257.280959,1.017000,1703457,1000,12,0,1,319.067,0.056,7.683,557.328,0.320,1.042
1782117257.281959,1.018000,1703458,1000,12,0,1,316.184,-3.132,7.694,557.784,-1.141,1.053
1782117257.282959,1.019000,1703459,1000,12,0,1,318.922,-0.122,7.676,559.538,1.766,1.065
1782117257.283959,1.020000,1703460,1000,12,0,1,319.811,1.664,7.580,560.018,1.227,1.079
1782117257.284959,1.021000,1703461,1000,12,0,1,321.757,2.807,7.514,559.778,1.230,1.091
1782117257.285959,1.022000,1703462,1000,12,0,1,317.505,0.298,7.501,558.553,-0.361,1.092
1782117257.286959,1.023000,1703463,1000,12,0,1,320.099,0.413,7.498,559.922,0.400,1.090
1782117257.287959,1.024000,1703464,1000,12,0,1,323.438,5.190,7.523,557.376,-0.998,1.092
1782117257.288960,1.025000,1703465,1000,12,0,1,322.333,3.090,7.443,557.424,-2.235,1.134
1782117257.289959,1.026000,1703466,1000,12,0,1,319.235,0.152,7.237,558.361,-0.196,1.118
1782117257.290959,1.027000,1703467,1000,12,0,1,315.704,-3.191,7.129,559.898,0.462,1.118
1782117257.291960,1.028000,1703468,1000,12,0,1,316.208,-2.957,7.022,559.345,0.683,1.110
1782117257.292959,1.029000,1703469,1000,12,0,1,319.115,0.531,6.767,556.823,-2.017,1.146
1782117257.293959,1.030000,1703470,1000,12,0,1,318.418,0.239,6.629,557.135,-1.849,1.151
1782117257.294959,1.031000,1703471,1000,12,0,1,314.743,-2.815,6.639,557.135,-1.062,1.125
1782117257.295959,1.032000,1703472,1000,12,0,1,309.723,-6.815,6.517,559.033,0.119,1.095
1782117257.296959,1.033000,1703473,1000,12,0,1,308.882,-6.911,5.923,559.465,1.369,1.069
1782117257.297959,1.034000,1703474,1000,12,0,1,307.969,-5.670,5.336,559.514,0.590,1.057
1782117257.298959,1.035000,1703475,1000,12,0,1,309.891,-3.399,4.857,557.904,-0.285,1.053
1782117257.299959,1.036000,1703476,1000,12,0,1,308.714,-2.198,4.465,557.304,-1.481,1.070
1782117257.300959,1.037000,1703477,1000,12,0,1,306.336,-4.078,4.253,559.129,0.457,1.049
1782117257.301960,1.038000,1703478,1000,12,0,1,314.479,3.097,4.257,558.793,0.510,1.036
1782117257.302959,1.039000,1703479,1000,12,0,1,319.787,9.708,4.434,558.721,-0.107,1.018
1782117257.303959,1.040000,1703480,1000,12,0,1,322.934,10.301,4.613,558.264,-0.086,1.005
1782117257.304959,1.041000,1703481,1000,12,0,1,319.331,7.416,4.656,557.880,-0.798,0.996
1782117257.305959,1.042000,1703482,1000,12,0,1,319.811,4.542,4.636,559.273,0.542,0.993
1782117257.306959,1.043000,1703483,1000,12,0,1,322.069,7.098,4.729,561.723,2.532,1.054
1782117257.307959,1.044000,1703484,1000,12,0,1,320.892,4.653,4.774,560.234,1.493,1.055
1782117257.308959,1.045000,1703485,1000,12,0,1,323.727,5.587,4.838,560.787,0.698,1.048
1782117257.309959,1.046000,1703486,1000,12,0,1,323.847,5.852,4.890,560.763,1.287,1.063
1782117257.310959,1.047000,1703487,1000,12,0,1,320.196,1.005,4.867,558.457,-1.261,1.078
1782117257.311960,1.048000,1703488,1000,12,0,1,317.745,-1.503,4.870,558.913,-1.159,1.072
1782117257.312959,1.049000,1703489,1000,12,0,1,319.619,-0.521,4.868,557.592,-1.454,1.092
1782117257.313959,1.050000,1703490,1000,12,0,1,321.733,1.978,4.783,558.721,-1.236,1.105
1782117257.314960,1.051000,1703491,1000,12,0,1,324.015,3.079,4.737,559.225,0.361,1.104
1782117257.315959,1.052000,1703492,1000,12,0,1,323.222,2.478,4.638,558.769,-0.612,1.089
1782117257.316959,1.053000,1703493,1000,12,0,1,326.297,3.227,4.530,557.904,-0.894,1.095
1782117257.317959,1.054000,1703494,1000,12,0,1,325.720,3.383,4.508,559.057,-0.292,1.086
1782117257.318959,1.055000,1703495,1000,12,0,1,324.543,0.249,4.432,560.234,1.233,1.087
1782117257.319959,1.056000,1703496,1000,12,0,1,325.816,1.083,4.367,560.739,1.340,1.101
1782117257.320959,1.057000,1703497,1000,12,0,1,325.696,0.489,4.327,559.826,0.502,1.104
1782117257.321959,1.058000,1703498,1000,12,0,1,324.351,-1.440,4.293,559.826,0.028,1.099
1782117257.322959,1.059000,1703499,1000,12,0,1,323.534,-2.434,4.288,559.538,-0.068,1.083
1782117257.323959,1.060000,1703500,1000,12,0,1,321.733,-4.075,4.319,559.033,-0.675,1.081
1782117257.324960,1.061000,1703501,1000,12,0,1,321.901,-4.027,4.329,558.913,-0.775,1.066
1782117257.325959,1.062000,1703502,1000,12,0,1,322.261,-3.166,4.352,558.312,-1.056,1.064
1782117257.326959,1.063000,1703503,1000,12,0,1,319.379,-5.069,4.291,558.336,-1.145,1.073
1782117257.327959,1.064000,1703504,1000,12,0,1,317.986,-6.358,4.193,558.024,-0.930,1.075
1782117257.328959,1.065000,1703505,1000,12,0,1,318.754,-4.522,4.164,559.538,0.074,1.075
1782117257.329959,1.066000,1703506,1000,12,0,1,318.442,-3.961,4.163,560.642,1.600,1.080
1782117257.330959,1.067000,1703507,1000,12,0,1,319.931,-2.291,4.175,561.075,1.493,1.100
1782117257.331959,1.068000,1703508,1000,12,0,1,323.006,1.004,4.154,559.994,0.668,1.092
1782117257.332959,1.069000,1703509,1000,12,0,1,324.375,2.431,4.168,561.171,0.912,1.071
1782117257.333959,1.070000,1703510,1000,12,0,1,323.871,1.671,4.168,561.099,1.382,1.074
1782117257.334960,1.071000,1703511,1000,12,0,1,322.045,-0.139,4.149,559.778,-0.369,1.061
1782117257.335959,1.072000,1703512,1000,12,0,1,319.979,-2.091,4.160,560.715,0.233,1.061
1782117257.336959,1.073000,1703513,1000,12,0,1,316.448,-4.613,4.210,559.562,-0.249,1.060
1782117257.337959,1.074000,1703514,1000,12,0,1,314.743,-5.861,4.228,558.192,-1.994,1.088
1782117257.338959,1.075000,1703515,1000,12,0,1,314.455,-4.787,4.259,558.144,-1.560,1.064
1782117257.339959,1.076000,1703516,1000,12,0,1,313.013,-4.927,4.316,559.153,-0.673,1.068
1782117257.340959,1.077000,1703517,1000,12,0,1,310.347,-6.107,4.378,559.177,-0.135,1.066
1782117257.341959,1.078000,1703518,1000,12,0,1,311.716,-4.227,4.399,558.264,-1.062,1.072
1782117257.342959,1.079000,1703519,1000,12,0,1,316.400,1.170,4.401,559.538,-0.055,1.033
1782117257.343959,1.080000,1703520,1000,12,0,1,329.876,12.083,4.721,559.033,0.097,1.000
1782117257.344959,1.081000,1703521,1000,12,0,1,331.461,14.944,5.158,556.895,-2.051,1.030
1782117257.345959,1.082000,1703522,1000,12,0,1,324.663,5.233,5.120,559.009,-0.408,1.032
1782117257.346959,1.083000,1703523,1000,12,0,1,321.685,1.367,5.030,560.715,1.824,1.046
1782117257.347960,1.084000,1703524,1000,12,0,1,320.075,-0.377,4.966,561.075,1.643,1.068
1782117257.348959,1.085000,1703525,1000,12,0,1,318.995,-1.581,4.948,559.297,0.230,1.068
1782117257.349959,1.086000,1703526,1000,12,0,1,320.172,-0.327,4.938,557.352,-1.927,1.082
1782117257.350959,1.087000,1703527,1000,12,0,1,320.772,0.474,4.905,557.232,-1.797,1.109
1782117257.351959,1.088000,1703528,1000,12,0,1,319.547,-0.333,4.885,557.712,-0.965,1.115
1782117257.352959,1.089000,1703529,1000,12,0,1,319.379,-0.784,4.690,556.967,-1.212,1.128
1782117257.353959,1.090000,1703530,1000,12,0,1,320.508,0.665,4.459,558.697,0.123,1.128
1782117257.354959,1.091000,1703531,1000,12,0,1,321.204,1.248,4.337,558.553,0.829,1.129
1782117257.355959,1.092000,1703532,1000,12,0,1,318.226,-0.895,4.291,559.177,0.687,1.130
1782117257.356959,1.093000,1703533,1000,12,0,1,313.470,-5.233,4.237,557.544,0.036,1.072
1782117257.357960,1.094000,1703534,1000,12,0,1,313.878,-4.654,4.237,557.952,-0.482,1.053
1782117257.358959,1.095000,1703535,1000,12,0,1,313.326,-3.425,4.191,559.778,1.746,1.078
1782117257.359959,1.096000,1703536,1000,12,0,1,315.680,-1.695,4.116,561.363,2.772,1.132
1782117257.360959,1.097000,1703537,1000,12,0,1,315.656,-0.047,4.113,560.330,1.868,1.149
1782117257.361959,1.098000,1703538,1000,12,0,1,313.974,-2.098,4.118,558.889,-0.040,1.137
1782117257.362959,1.099000,1703539,1000,12,0,1,315.031,-0.824,4.119,557.952,-0.908,1.126
1782117257.363959,1.100000,1703540,1000,12,0,1,313.662,-1.222,4.114,558.385,-0.571,1.115
1782117257.364959,1.101000,1703541,1000,12,0,1,310.852,-3.759,4.125,559.297,0.346,1.115
1782117257.365959,1.102000,1703542,1000,12,0,1,308.642,-4.808,4.166,558.673,0.030,1.111
1782117257.366959,1.103000,1703543,1000,12,0,1,316.376,1.399,4.145,556.703,-1.830,1.134
1782117257.367959,1.104000,1703544,1000,12,0,1,321.012,7.715,4.260,560.258,0.792,1.139
1782117257.368959,1.105000,1703545,1000,12,0,1,316.256,2.474,4.274,557.232,-0.193,1.126
1782117257.369959,1.106000,1703546,1000,12,0,1,309.771,-3.577,4.301,558.985,-0.822,1.116
1782117257.370960,1.107000,1703547,1000,12,0,1,306.456,-6.179,4.388,558.433,0.900,1.121
1782117257.371959,1.108000,1703548,1000,12,0,1,310.972,-1.613,4.390,558.841,-0.456,1.123
1782117257.372959,1.109000,1703549,1000,12,0,1,314.455,3.449,4.403,559.321,1.098,1.133
1782117257.373959,1.110000,1703550,1000,12,0,1,317.121,5.077,4.424,559.610,0.646,1.133
1782117257.374959,1.111000,1703551,1000,12,0,1,319.811,7.577,4.516,558.865,0.260,1.128
1782117257.375959,1.112000,1703552,1000,12,0,1,322.502,8.657,4.658,558.841,-0.076,1.118
1782117257.376959,1.113000,1703553,1000,12,0,1,321.276,7.119,4.711,556.775,-1.523,1.127
1782117257.377959,1.114000,1703554,1000,12,0,1,318.898,3.277,4.648,558.937,-0.235,1.120
1782117257.378959,1.115000,1703555,1000,12,0,1,317.818,1.694,4.610,559.706,1.395,1.137
1782117257.379959,1.116000,1703556,1000,12,0,1,313.542,-2.000,4.584,559.514,0.612,1.118
1782117257.380960,1.117000,1703557,1000,12,0,1,309.194,-6.254,4.657,561.147,1.796,1.127
1782117257.381959,1.118000,1703558,1000,12,0,1,309.362,-5.482,4.719,560.330,1.394,1.140
1782117257.382959,1.119000,1703559,1000,12,0,1,307.537,-5.536,4.772,559.369,-0.378,1.134
1782117257.383959,1.120000,1703560,1000,12,0,1,304.606,-7.483,4.882,560.234,0.576,1.120
1782117257.384959,1.121000,1703561,1000,12,0,1,301.676,-8.528,5.028,558.721,-0.677,1.123
1782117257.385959,1.122000,1703562,1000,12,0,1,299.610,-8.948,5.177,558.625,-1.173,1.135
1782117257.386959,1.123000,1703563,1000,12,0,1,299.994,-6.964,5.229,558.961,-0.434,1.136
1782117257.387959,1.124000,1703564,1000,12,0,1,299.274,-5.503,5.221,559.706,0.046,1.100
1782117257.388959,1.125000,1703565,1000,12,0,1,299.970,-4.000,5.208,558.673,-0.446,1.080
1782117257.389959,1.126000,1703566,1000,12,0,1,305.999,2.286,5.171,558.385,-1.118,1.087
1782117257.390960,1.127000,1703567,1000,12,0,1,313.182,9.192,5.262,556.895,-1.749,1.115
1782117257.391959,1.128000,1703568,1000,12,0,1,308.425,5.763,5.291,559.994,0.205,1.105
1782117257.392959,1.129000,1703569,1000,12,0,1,303.813,-0.606,5.289,558.793,0.725,1.110
1782117257.393960,1.130000,1703570,1000,12,0,1,301.171,-1.668,5.011,556.823,-2.213,1.153
1782117257.394959,1.131000,1703571,1000,12,0,1,302.132,-1.130,4.546,558.048,-0.609,1.119
1782117257.395959,1.132000,1703572,1000,12,0,1,307.080,4.216,4.525,558.937,0.470,1.119
1782117257.396959,1.133000,1703573,1000,12,0,1,307.056,5.029,4.577,557.688,-0.540,1.092
1782117257.397959,1.134000,1703574,1000,12,0,1,301.628,-0.117,4.576,557.424,-0.898,1.075
1782117257.398959,1.135000,1703575,1000,12,0,1,295.046,-5.380,4.634,556.151,-1.566,1.097
1782117257.399959,1.136000,1703576,1000,12,0,1,292.764,-6.830,4.733,557.712,-0.487,1.064
1782117257.400959,1.137000,1703577,1000,12,0,1,290.266,-6.409,4.819,560.186,2.210,1.080
1782117257.401959,1.138000,1703578,1000,12,0,1,284.549,-9.714,5.010,557.880,0.488,1.073
1782117257.402959,1.139000,1703579,1000,12,0,1,282.291,-9.854,5.199,558.865,0.126,1.060
1782117257.403960,1.140000,1703580,1000,12,0,1,276.886,-10.999,5.426,557.928,0.590,1.063
1782117257.404959,1.141000,1703581,1000,12,0,1,273.259,-12.495,5.704,556.319,-1.792,1.086
1782117257.405959,1.142000,1703582,1000,12,0,1,274.700,-7.928,5.812,557.616,-0.165,1.082
1782117257.406959,1.143000,1703583,1000,12,0,1,289.593,5.889,5.824,557.087,-0.186,1.083
1782117257.407959,1.144000,1703584,1000,12,0,1,300.595,18.370,6.343,558.288,0.384,1.082
1782117257.408959,1.145000,1703585,1000,12,0,1,301.411,16.799,6.756,559.634,2.124,1.095
1782117257.409959,1.146000,1703586,1000,12,0,1,300.403,13.526,7.018,557.424,0.056,1.023
1782117257.410959,1.147000,1703587,1000,12,0,1,302.228,12.722,7.245,557.784,-0.248,0.989
1782117257.411959,1.148000,1703588,1000,12,0,1,298.529,8.580,7.340,557.039,-0.118,0.989
1782117257.412959,1.149000,1703589,1000,12,0,1,292.788,1.587,7.342,558.601,0.436,0.982
1782117257.413960,1.150000,1703590,1000,12,0,1,288.464,-2.358,7.348,557.856,0.818,0.986
1782117257.414959,1.151000,1703591,1000,12,0,1,287.672,-2.720,7.339,559.177,0.757,0.990
1782117257.415959,1.152000,1703592,1000,12,0,1,291.155,1.080,7.309,559.081,1.592,1.016
1782117257.416960,1.153000,1703593,1000,12,0,1,297.088,7.018,7.373,558.937,0.484,0.985
1782117257.417959,1.154000,1703594,1000,12,0,1,299.922,9.570,7.416,557.616,-0.218,0.979
1782117257.418959,1.155000,1703595,1000,12,0,1,294.253,4.515,7.436,558.096,-0.451,0.980
1782117257.419959,1.156000,1703596,1000,12,0,1,292.884,1.210,7.420,557.784,-0.130,0.974
1782117257.420959,1.157000,1703597,1000,12,0,1,291.419,1.413,7.371,558.072,-0.277,0.966
1782117257.421959,1.158000,1703598,1000,12,0,1,290.362,-0.554,7.368,556.583,-1.066,0.976
1782117257.422959,1.159000,1703599,1000,12,0,1,288.728,-0.948,7.353,557.328,-0.909,0.972
1782117257.423959,1.160000,1703600,1000,12,0,1,290.266,-0.413,7.318,560.162,1.916,1.005
1782117257.424959,1.161000,1703601,1000,12,0,1,291.058,1.175,7.241,558.913,1.236,1.019
1782117257.425959,1.162000,1703602,1000,12,0,1,287.912,-1.916,7.142,558.024,-0.559,1.022
1782117257.426960,1.163000,1703603,1000,12,0,1,287.119,-3.287,7.086,559.465,1.028,1.010
1782117257.427959,1.164000,1703604,1000,12,0,1,283.708,-5.038,7.107,559.057,0.639,1.013
1782117257.428959,1.165000,1703605,1000,12,0,1,287.984,-2.838,7.114,557.135,-1.116,1.006
1782117257.429959,1.166000,1703606,1000,12,0,1,289.161,0.806,7.110,558.745,-0.220,1.003
1782117257.430959,1.167000,1703607,1000,12,0,1,291.875,0.963,7.056,558.673,0.622,0.974
1782117257.431959,1.168000,1703608,1000,12,0,1,292.187,2.751,7.024,559.105,0.156,0.954
1782117257.432959,1.169000,1703609,1000,12,0,1,289.185,-1.141,6.982,555.550,-1.891,0.990
1782117257.433959,1.170000,1703610,1000,12,0,1,289.545,-0.885,6.902,556.463,-2.421,1.044
1782117257.434959,1.171000,1703611,1000,12,0,1,291.034,1.069,6.798,557.736,0.328,1.041
1782117257.435959,1.172000,1703612,1000,12,0,1,290.530,0.822,6.680,559.033,0.737,1.033
1782117257.436960,1.173000,1703613,1000,12,0,1,289.689,0.458,6.607,558.985,1.249,1.046
1782117257.437959,1.174000,1703614,1000,12,0,1,292.620,2.711,6.572,556.103,-1.469,1.066
1782117257.438959,1.175000,1703615,1000,12,0,1,294.109,5.080,6.587,554.853,-2.879,1.140
1782117257.439960,1.176000,1703616,1000,12,0,1,290.914,1.837,6.585,556.703,-0.717,1.133
1782117257.440959,1.177000,1703617,1000,12,0,1,288.728,-0.358,6.455,557.520,0.375,1.107
1782117257.441959,1.178000,1703618,1000,12,0,1,285.918,-2.206,6.411,557.856,0.669,1.111
1782117257.442959,1.179000,1703619,1000,12,0,1,286.567,-1.863,6.416,557.256,0.160,1.106
1782117257.443959,1.180000,1703620,1000,12,0,1,286.471,-0.679,6.412,559.225,1.440,1.080
1782117257.444959,1.181000,1703621,1000,12,0,1,286.230,-1.289,6.413,559.225,1.931,1.111
1782117257.445959,1.182000,1703622,1000,12,0,1,282.675,-3.427,6.404,558.673,0.685,1.113
1782117257.446959,1.183000,1703623,1000,12,0,1,284.117,-3.249,6.380,558.865,0.851,1.117
1782117257.447959,1.184000,1703624,1000,12,0,1,286.927,0.548,6.381,559.538,1.192,1.123
1782117257.448959,1.185000,1703625,1000,12,0,1,287.503,0.576,6.336,559.273,0.936,1.109
1782117257.449960,1.186000,1703626,1000,12,0,1,284.501,-1.905,6.268,557.712,-0.545,1.109
1782117257.450959,1.187000,1703627,1000,12,0,1,287.431,-0.606,6.202,558.385,-0.386,1.066
1782117257.451959,1.188000,1703628,1000,12,0,1,288.368,1.568,6.052,558.096,0.040,1.063
1782117257.452959,1.189000,1703629,1000,12,0,1,284.765,-2.160,5.898,557.304,-1.068,1.074
1782117257.453959,1.190000,1703630,1000,12,0,1,282.363,-4.192,5.720,558.769,0.336,1.072
1782117257.454959,1.191000,1703631,1000,12,0,1,279.096,-5.668,5.499,557.087,-0.551,1.044
1782117257.455959,1.192000,1703632,1000,12,0,1,277.223,-6.625,5.464,555.766,-2.267,1.092
1782117257.456959,1.193000,1703633,1000,12,0,1,275.757,-5.578,5.457,558.048,0.026,1.092
1782117257.457959,1.194000,1703634,1000,12,0,1,279.024,-2.046,4.808,559.345,1.571,1.113
1782117257.458959,1.195000,1703635,1000,12,0,1,283.516,4.103,4.220,557.856,0.133,1.072
1782117257.459960,1.196000,1703636,1000,12,0,1,294.205,12.367,4.149,558.216,-0.104,1.072
1782117257.460959,1.197000,1703637,1000,12,0,1,299.274,17.748,4.503,557.592,-0.152,1.071
1782117257.461959,1.198000,1703638,1000,12,0,1,293.052,9.823,4.553,558.577,0.029,1.071
1782117257.462959,1.199000,1703639,1000,12,0,1,284.789,0.587,4.548,557.135,-0.407,1.071
1782117257.463959,1.200000,1703640,1000,12,0,1,281.090,-3.497,4.563,558.577,-0.246,1.065
1782117257.464959,1.201000,1703641,1000,12,0,1,278.616,-5.009,4.602,558.577,0.861,1.067
1782117257.465959,1.202000,1703642,1000,12,0,1,276.910,-5.935,4.675,559.321,0.490,1.045
1782117257.466959,1.203000,1703643,1000,12,0,1,280.033,-2.931,4.587,560.042,1.598,1.067
1782117257.467959,1.204000,1703644,1000,12,0,1,283.804,1.488,4.388,558.793,0.204,1.067
1782117257.468959,1.205000,1703645,1000,12,0,1,282.939,0.669,4.342,559.634,0.386,1.066
1782117257.469959,1.206000,1703646,1000,12,0,1,281.618,-1.060,4.342,559.009,0.497,1.069
1782117257.470959,1.207000,1703647,1000,12,0,1,280.249,-2.151,4.348,559.826,0.255,1.069
1782117257.471959,1.208000,1703648,1000,12,0,1,281.138,-1.595,4.353,558.625,0.176,1.058
1782117257.472960,1.209000,1703649,1000,12,0,1,278.928,-2.426,4.364,558.793,-0.752,1.056
1782117257.473959,1.210000,1703650,1000,12,0,1,277.535,-4.009,4.401,559.105,0.387,1.022
1782117257.474959,1.211000,1703651,1000,12,0,1,279.913,-1.016,4.400,557.304,-1.429,1.027
1782117257.475959,1.212000,1703652,1000,12,0,1,279.096,-0.487,4.392,558.000,-1.013,1.034
1782117257.476959,1.213000,1703653,1000,12,0,1,278.424,-1.197,4.371,556.703,-1.245,1.038
1782117257.477959,1.214000,1703654,1000,12,0,1,276.742,-1.282,4.316,558.336,-0.713,1.039
1782117257.478959,1.215000,1703655,1000,12,0,1,276.334,-1.563,4.303,558.433,0.657,1.032
1782117257.479959,1.216000,1703656,1000,12,0,1,276.046,-0.364,4.302,559.874,0.711,1.036
1782117257.480959,1.217000,1703657,1000,12,0,1,273.956,-1.563,4.305,560.667,2.140,1.076
1782117257.481959,1.218000,1703658,1000,12,0,1,277.030,1.189,4.291,559.898,0.655,1.079
1782117257.482960,1.219000,1703659,1000,12,0,1,276.022,2.167,4.299,559.658,0.249,1.046
1782117257.483959,1.220000,1703660,1000,12,0,1,272.947,-1.335,4.301,560.258,0.543,0.992
1782117257.484959,1.221000,1703661,1000,12,0,1,271.386,-1.854,4.306,559.514,-0.093,0.991
1782117257.485959,1.222000,1703662,1000,12,0,1,270.785,-2.082,4.315,559.105,-0.725,0.991
1782117257.486959,1.223000,1703663,1000,12,0,1,270.305,-1.723,4.321,559.538,-0.333,0.976
1782117257.487959,1.224000,1703664,1000,12,0,1,268.551,-2.637,4.320,557.832,-1.369,0.973
1782117257.488959,1.225000,1703665,1000,12,0,1,266.149,-4.216,4.302,558.481,-1.375,0.905
1782117257.489959,1.226000,1703666,1000,12,0,1,263.411,-5.595,4.366,558.985,0.047,0.899
1782117257.490959,1.227000,1703667,1000,12,0,1,261.369,-6.420,4.459,559.225,-0.146,0.898
1782117257.491959,1.228000,1703668,1000,12,0,1,264.059,-3.056,4.469,557.592,-0.896,0.902
1782117257.492959,1.229000,1703669,1000,12,0,1,263.819,-1.185,4.465,558.096,-1.059,0.914
1782117257.493959,1.230000,1703670,1000,12,0,1,264.900,-0.359,4.464,559.201,0.684,0.896
1782117257.494959,1.231000,1703671,1000,12,0,1,269.008,4.305,4.502,558.553,0.048,0.853
1782117257.495960,1.232000,1703672,1000,12,0,1,270.209,5.873,4.552,558.553,-0.140,0.848
1782117257.496959,1.233000,1703673,1000,12,0,1,265.044,1.609,4.534,559.730,0.968,0.851
1782117257.497959,1.234000,1703674,1000,12,0,1,265.044,0.662,4.535,556.967,-1.063,0.847
1782117257.498959,1.235000,1703675,1000,12,0,1,267.062,3.913,4.568,558.433,-0.824,0.845
1782117257.499959,1.236000,1703676,1000,12,0,1,265.885,3.139,4.581,559.177,1.007,0.853
1782117257.500959,1.237000,1703677,1000,12,0,1,261.609,-0.132,4.580,555.934,-2.158,0.905
1782117257.501959,1.238000,1703678,1000,12,0,1,260.336,-1.219,4.578,558.144,-0.890,0.913
1782117257.502959,1.239000,1703679,1000,12,0,1,259.111,-0.843,4.570,558.577,0.886,0.909
1782117257.503959,1.240000,1703680,1000,12,0,1,259.639,-0.093,4.531,557.424,-1.002,0.919
1782117257.504959,1.241000,1703681,1000,12,0,1,260.720,1.866,4.467,558.673,0.388,0.918
1782117257.505960,1.242000,1703682,1000,12,0,1,262.282,3.286,4.393,557.184,-0.514,0.863
1782117257.506959,1.243000,1703683,1000,12,0,1,263.363,4.295,4.364,556.511,-1.533,0.890
1782117257.507959,1.244000,1703684,1000,12,0,1,261.297,2.429,4.368,558.336,0.471,0.864
1782117257.508959,1.245000,1703685,1000,12,0,1,263.627,3.046,4.350,559.153,1.453,0.888
1782117257.509959,1.246000,1703686,1000,12,0,1,264.444,4.577,4.036,560.498,2.266,0.944
1782117257.510959,1.247000,1703687,1000,12,0,1,268.287,5.779,3.264,558.865,1.205,0.959
1782117257.511959,1.248000,1703688,1000,12,0,1,269.224,7.153,3.122,557.832,-0.544,0.962
1782117257.512959,1.249000,1703689,1000,12,0,1,269.776,5.203,3.207,559.153,0.872,0.968
1782117257.513959,1.250000,1703690,1000,12,0,1,269.968,5.077,3.249,558.649,0.659,0.972
1782117257.514959,1.251000,1703691,1000,12,0,1,268.119,2.307,3.187,558.913,0.383,0.966
1782117257.515960,1.252000,1703692,1000,12,0,1,265.861,-0.220,3.075,557.736,-0.122,0.963
1782117257.516959,1.253000,1703693,1000,12,0,1,262.642,-2.791,3.072,558.457,-0.259,0.937
1782117257.517959,1.254000,1703694,1000,12,0,1,263.795,-2.186,3.081,556.199,-1.137,0.951
1782117257.518960,1.255000,1703695,1000,12,0,1,262.258,-1.552,3.087,556.775,-1.773,0.982
1782117257.519959,1.256000,1703696,1000,12,0,1,259.880,-4.030,3.136,559.009,1.220,0.994
1782117257.520959,1.257000,1703697,1000,12,0,1,259.327,-3.115,3.152,559.105,1.055,1.005
1782117257.521959,1.258000,1703698,1000,12,0,1,257.694,-3.654,3.186,558.529,0.321,1.005
1782117257.522959,1.259000,1703699,1000,12,0,1,259.111,-1.955,3.179,558.072,-0.179,1.000
1782117257.523959,1.260000,1703700,1000,12,0,1,262.810,2.176,3.143,559.153,0.404,1.000
1782117257.524959,1.261000,1703701,1000,12,0,1,258.294,-0.728,3.142,557.111,-0.678,0.984
1782117257.525959,1.262000,1703702,1000,12,0,1,255.051,-4.769,3.213,556.343,-2.241,1.024
1782117257.526959,1.263000,1703703,1000,12,0,1,256.204,-2.731,3.231,557.976,-0.069,1.009
1782117257.527959,1.264000,1703704,1000,12,0,1,257.333,-1.260,3.231,558.433,0.432,1.006
1782117257.528960,1.265000,1703705,1000,12,0,1,255.460,-2.332,3.240,560.138,1.666,1.029
1782117257.529959,1.266000,1703706,1000,12,0,1,254.811,-3.122,3.270,557.712,0.210,1.024
1782117257.530959,1.267000,1703707,1000,12,0,1,252.337,-4.184,3.316,558.673,-0.298,0.979
1782117257.531959,1.268000,1703708,1000,12,0,1,253.754,-3.256,3.343,558.889,1.184,0.989
1782117257.532959,1.269000,1703709,1000,12,0,1,254.859,-0.642,3.330,559.033,0.337,0.990
1782117257.533959,1.270000,1703710,1000,12,0,1,253.562,-1.551,3.332,559.345,1.107,0.999
1782117257.534959,1.271000,1703711,1000,12,0,1,252.529,-1.872,3.333,558.649,0.192,0.999
1782117257.535959,1.272000,1703712,1000,12,0,1,253.874,-0.071,3.320,557.904,-0.522,0.997
1782117257.536959,1.273000,1703713,1000,12,0,1,248.830,-2.672,3.332,560.210,1.191,1.010
1782117257.537959,1.274000,1703714,1000,12,0,1,252.121,-0.876,3.313,558.481,0.405,0.993
1782117257.538960,1.275000,1703715,1000,12,0,1,261.801,9.580,3.530,557.472,-1.493,0.996
1782117257.539959,1.276000,1703716,1000,12,0,1,261.129,9.656,3.701,559.297,0.422,0.998
1782117257.540959,1.277000,1703717,1000,12,0,1,256.661,3.914,3.630,558.072,-0.223,0.998
1782117257.541960,1.278000,1703718,1000,12,0,1,255.292,2.547,3.622,558.385,-0.801,0.997
1782117257.542959,1.279000,1703719,1000,12,0,1,261.345,6.722,3.741,559.225,0.607,0.989
1782117257.543959,1.280000,1703720,1000,12,0,1,268.311,13.123,4.176,559.706,0.481,0.987
1782117257.544959,1.281000,1703721,1000,12,0,1,267.686,11.040,4.417,557.472,-0.948,0.996
1782117257.545959,1.282000,1703722,1000,12,0,1,261.777,3.907,4.373,558.144,-1.323,1.013
1782117257.546959,1.283000,1703723,1000,12,0,1,257.670,-1.452,4.372,559.225,0.578,1.007
1782117257.547959,1.284000,1703724,1000,12,0,1,260.312,0.002,4.371,558.793,-0.136,0.996
1782117257.548959,1.285000,1703725,1000,12,0,1,266.365,5.093,4.395,559.946,0.719,0.994
1782117257.549959,1.286000,1703726,1000,12,0,1,264.612,3.449,4.400,558.937,0.302,0.985
1782117257.550959,1.287000,1703727,1000,12,0,1,260.624,-2.048,4.409,559.658,0.074,0.936
1782117257.551960,1.288000,1703728,1000,12,0,1,257.526,-4.809,4.458,557.376,-0.796,0.935
1782117257.552959,1.289000,1703729,1000,12,0,1,257.622,-5.104,4.514,555.790,-3.099,1.025
1782117257.553959,1.290000,1703730,1000,12,0,1,258.727,-3.239,4.538,558.505,-0.056,1.015
1782117257.554959,1.291000,1703731,1000,12,0,1,259.423,-2.388,4.542,559.369,1.261,1.029
1782117257.555959,1.292000,1703732,1000,12,0,1,257.958,-3.046,4.539,558.312,0.086,1.027
1782117257.556959,1.293000,1703733,1000,12,0,1,256.637,-4.043,4.534,557.448,-0.654,1.008
1782117257.557959,1.294000,1703734,1000,12,0,1,256.012,-3.816,4.554,556.535,-1.383,1.024
1782117257.558959,1.295000,1703735,1000,12,0,1,256.036,-3.060,4.554,556.511,-1.251,1.019
1782117257.559959,1.296000,1703736,1000,12,0,1,256.108,-2.233,4.519,557.712,-0.056,0.967
1782117257.560959,1.297000,1703737,1000,12,0,1,254.883,-2.442,4.457,558.601,0.967,0.962
1782117257.561960,1.298000,1703738,1000,12,0,1,257.261,-0.476,4.342,557.592,0.076,0.959
1782117257.562959,1.299000,1703739,1000,12,0,1,257.766,1.338,4.283,557.712,-0.197,0.951
1782117257.563959,1.300000,1703740,1000,12,0,1,253.923,-2.205,4.234,558.529,0.711,0.952
1782117257.564960,1.301000,1703741,1000,12,0,1,251.689,-4.065,4.260,557.904,0.178,0.951
1782117257.565959,1.302000,1703742,1000,12,0,1,253.971,-1.654,4.267,557.736,-0.242,0.951
1782117257.566959,1.303000,1703743,1000,12,0,1,252.962,-1.193,4.252,557.135,-0.470,0.953
1782117257.567959,1.304000,1703744,1000,12,0,1,250.079,-3.888,4.276,556.103,-1.411,0.960
1782117257.568959,1.305000,1703745,1000,12,0,1,249.647,-3.712,4.302,558.072,0.241,0.928
1782117257.569959,1.306000,1703746,1000,12,0,1,252.433,-0.740,4.266,558.865,1.590,0.939
1782117257.570959,1.307000,1703747,1000,12,0,1,251.929,-0.069,4.243,558.024,0.495,0.929
1782117257.571959,1.308000,1703748,1000,12,0,1,252.169,-0.383,4.212,558.096,0.474,0.931
1782117257.572959,1.309000,1703749,1000,12,0,1,252.073,0.374,4.203,558.673,0.996,0.941
1782117257.573959,1.310000,1703750,1000,12,0,1,250.632,-0.846,4.193,557.736,0.301,0.940
1782117257.574960,1.311000,1703751,1000,12,0,1,248.638,-2.077,4.202,557.304,-0.364,0.937
1782117257.575959,1.312000,1703752,1000,12,0,1,249.743,-0.869,4.150,557.928,0.324,0.883
1782117257.576959,1.313000,1703753,1000,12,0,1,253.706,3.251,4.157,556.631,-0.503,0.886
1782117257.577959,1.314000,1703754,1000,12,0,1,254.907,4.944,4.212,554.853,-2.220,0.938
1782117257.578959,1.315000,1703755,1000,12,0,1,254.643,4.024,4.237,557.184,-0.250,0.908
1782117257.579959,1.316000,1703756,1000,12,0,1,253.202,2.888,4.234,557.352,0.816,0.915
1782117257.580959,1.317000,1703757,1000,12,0,1,251.304,0.792,4.194,558.192,0.698,0.919
1782117257.581959,1.318000,1703758,1000,12,0,1,251.304,0.869,4.170,557.664,0.852,0.912
1782117257.582959,1.319000,1703759,1000,12,0,1,252.193,1.845,4.178,557.184,-0.320,0.912
1782117257.583959,1.320000,1703760,1000,12,0,1,252.505,2.199,4.183,558.096,0.619,0.903
1782117257.584960,1.321000,1703761,1000,12,0,1,250.824,0.771,4.176,557.496,0.199,0.903
1782117257.585959,1.322000,1703762,1000,12,0,1,251.424,0.674,4.178,557.856,0.008,0.900
1782117257.586959,1.323000,1703763,1000,12,0,1,253.178,2.500,4.175,559.177,1.394,0.905
1782117257.587959,1.324000,1703764,1000,12,0,1,254.019,2.789,4.192,558.913,1.002,0.915
1782117257.588959,1.325000,1703765,1000,12,0,1,253.514,1.983,3.977,558.505,0.386,0.892
1782117257.589959,1.326000,1703766,1000,12,0,1,250.031,-1.307,3.740,561.723,2.617,0.963
1782117257.590959,1.327000,1703767,1000,12,0,1,249.046,-2.899,3.721,559.321,1.464,0.985
1782117257.591959,1.328000,1703768,1000,12,0,1,251.857,-0.036,3.704,558.312,-1.128,0.991
1782117257.592959,1.329000,1703769,1000,12,0,1,251.520,0.248,3.580,559.538,0.773,0.994
1782117257.593959,1.330000,1703770,1000,12,0,1,249.022,-2.243,3.078,558.505,-0.261,0.992
1782117257.594959,1.331000,1703771,1000,12,0,1,245.683,-4.636,2.732,558.865,-0.280,0.984
1782117257.595959,1.332000,1703772,1000,12,0,1,243.281,-6.219,2.817,560.018,1.026,0.977
1782117257.596959,1.333000,1703773,1000,12,0,1,244.771,-3.982,2.865,556.463,-1.790,1.006
1782117257.597960,1.334000,1703774,1000,12,0,1,247.365,-0.376,2.865,556.223,-2.799,1.080
1782117257.598959,1.335000,1703775,1000,12,0,1,242.705,-2.973,2.805,558.577,0.101,1.076
1782117257.599959,1.336000,1703776,1000,12,0,1,240.063,-5.665,2.876,558.697,0.400,1.076
1782117257.600959,1.337000,1703777,1000,12,0,1,244.266,-0.634,2.863,559.465,0.581,1.079
1782117257.601959,1.338000,1703778,1000,12,0,1,251.593,6.431,2.926,558.433,0.092,1.074
1782117257.602959,1.339000,1703779,1000,12,0,1,257.454,11.488,3.268,558.625,-0.615,0.984
1782117257.603959,1.340000,1703780,1000,12,0,1,255.196,8.865,3.470,557.376,-0.936,0.993
1782117257.604959,1.341000,1703781,1000,12,0,1,251.424,3.256,3.484,556.631,-2.250,1.027
1782117257.605959,1.342000,1703782,1000,12,0,1,249.431,1.054,3.461,556.847,-1.416,1.046
1782117257.606959,1.343000,1703783,1000,12,0,1,249.383,0.282,3.413,558.264,-0.295,1.043
1782117257.607960,1.344000,1703784,1000,12,0,1,246.884,-1.320,3.376,559.634,1.253,1.040
1782117257.608959,1.345000,1703785,1000,12,0,1,244.434,-3.951,3.394,558.985,0.688,1.029
1782117257.609959,1.346000,1703786,1000,12,0,1,242.705,-4.577,3.441,557.424,-0.904,1.037
1782117257.610959,1.347000,1703787,1000,12,0,1,245.755,-1.923,3.434,557.592,-0.765,1.034
1782117257.611959,1.348000,1703788,1000,12,0,1,250.007,2.891,3.458,558.577,0.344,1.035
1782117257.612959,1.349000,1703789,1000,12,0,1,253.634,5.606,3.543,559.538,1.291,1.051
1782117257.613959,1.350000,1703790,1000,12,0,1,254.691,6.143,3.634,558.961,0.855,1.053
1782117257.614959,1.351000,1703791,1000,12,0,1,253.130,3.744,3.627,558.361,0.080,1.053
1782117257.615959,1.352000,1703792,1000,12,0,1,253.634,2.900,3.643,556.343,-1.354,1.069
1782117257.616959,1.353000,1703793,1000,12,0,1,253.250,2.565,3.657,557.208,-1.031,1.077
1782117257.617959,1.354000,1703794,1000,12,0,1,252.193,0.633,3.617,557.232,-0.050,1.058
1782117257.618959,1.355000,1703795,1000,12,0,1,249.647,-1.359,3.583,556.943,-0.691,1.062
1782117257.619959,1.356000,1703796,1000,12,0,1,247.725,-3.500,3.616,556.703,-0.493,1.041
1782117257.620960,1.357000,1703797,1000,12,0,1,248.614,-2.261,3.630,557.496,0.007,1.038
1782117257.621959,1.358000,1703798,1000,12,0,1,247.437,-2.431,3.646,558.433,1.017,1.046
1782117257.622959,1.359000,1703799,1000,12,0,1,244.506,-4.773,3.707,558.385,0.875,1.044
1782117257.623959,1.360000,1703800,1000,12,0,1,243.882,-4.793,3.767,558.216,0.396,1.045
1782117257.624959,1.361000,1703801,1000,12,0,1,245.275,-2.715,3.775,558.096,0.269,1.044
1782117257.625959,1.362000,1703802,1000,12,0,1,244.771,-2.164,3.785,558.649,0.425,1.045
