Unix_Time_s,RelativeTime_s,P_1,P_2,P_3,P_4,P_5,P_6,P_7,P_8,P_9,P_10,P_11,P_12,P_13,P_14,P_15,P_16,P_17,P_18,P_19,P_20,P_21,P_22,P_23,P_24,P_25,P_26,P_27,P_28,P_29,P_30,P_31,P_32,P_33,P_34,P_35,P_36,P_37,P_38,P_39,P_40,P_41,P_42,P_43,P_44,P_45,P_46,P_47,P_48,P_49,P_50,P_51,P_52,P_53,P_54,P_55,P_56,P_57,P_58,P_59,P_60,P_61,P_62,P_63,P_64,P_65,P_66,P_67,P_68,P_69,P_70,P_71,P_72,P_73,P_74,P_75,P_76,P_77,P_78,P_79,P_80,P_81,P_82,P_83,P_84,P_85,P_86,P_87,P_88,P_89,P_90,P_91,P_92,P_93,P_94,P_95,P_96,P_97,P_98,P_99,P_100,P_101,P_102,P_103,P_104,P_105,P_106,P_107,P_108,P_109,P_110,P_111,P_112,P_113,P_114,P_115,P_116,P_117,P_118,P_119,P_120,P_121,P_122,P_123,P_124,P_125,P_126,P_127,P_128,P_129,P_130,P_131,P_132,P_133,P_134,P_135,P_136,P_137,P_138,P_139,P_140,P_141,P_142,P_143,P_144,P_145,P_146,P_147,P_148,P_149,P_150,P_151,P_152,P_153,P_154,P_155,P_156,P_157,P_158,P_159,P_160,P_161,P_162,P_163,P_164,P_165,P_166,P_167,P_168,P_169,P_170,P_171,P_172,P_173,P_174,P_175,P_176,P_177,P_178,P_179,P_180,P_181,P_182,P_183,P_184,P_185,P_186,P_187,P_188,P_189,P_190,P_191,P_192,P_193,P_194,P_195,P_196,P_197,P_198,P_199,P_200,P_201,P_202,P_203,P_204,P_205,P_206,P_207,P_208,P_209,P_210,P_211,P_212,P_213,P_214,P_215,P_216,P_217,P_218,P_219,P_220,P_221,P_222,P_223,P_224,P_225,P_226,P_227,P_228,P_229,P_230,P_231,P_232,P_233,Flex1,Flex2,Bat,IMU1_RefTime,IMU1_Ax,IMU1_Ay,IMU1_Az,IMU1_Wx,IMU1_Wy,IMU1_Wz,IMU1_Roll,IMU1_Pitch,IMU1_Yaw,IMU1_Hx,IMU1_Hy,IMU1_Hz,IMU1_Q0,IMU1_Q1,IMU1_Q2,IMU1_Q3,IMU2_RefTime,IMU2_Ax,IMU2_Ay,IMU2_Az,IMU2_Wx,IMU2_Wy,IMU2_Wz,IMU2_Roll,IMU2_Pitch,IMU2_Yaw,IMU2_Hx,IMU2_Hy,IMU2_Hz,IMU2_Q0,IMU2_Q1,IMU2_Q2,IMU2_Q3,IMU1_FusedRoll,IMU1_FusedPitch,IMU1_FusedYaw,IMU1_FusedQ0,IMU1_FusedQ1,IMU1_FusedQ2,IMU1_FusedQ3,IMU1_MagValid,IMU2_FusedRoll,IMU2_FusedPitch,IMU2_FusedYaw,IMU2_FusedQ0,IMU2_FusedQ1,IMU2_FusedQ2,IMU2_FusedQ3,IMU2_MagValid
1782117256.276917,0.013,1023.0,1023.0,1023.0,1023.0,1023.0,1024.0,1024.0,1023.0,1023.0,1023.0,1024.0,1023.0,1023.0,1024.0,1024.0,1024.0,1023.0,1024.0,1024.0,1024.0,1024.0,1023.0,1024.0,1023.0,1023.0,1024.0,1024.0,1024.0,1024.0,1023.0,1024.0,1024.0,1023.0,1022.0,1024.0,1023.0,1023.0,1024.0,1024.0,1024.0,1022.0,1022.0,1023.0,1024.0,1024.0,1024.0,1024.0,1024.0,1023.0,1024.0,1023.0,1023.0,1022.0,1024.0,1024.0,1024.0,1024.0,1023.0,1024.0,1024.0,1023.0,1023.0,1022.0,1024.0,1023.0,1024.0,1024.0,1023.0,1024.0,1022.0,1022.0,1023.0,1023.0,1024.0,1024.0,1024.0,1024.0,1024.0,1024.0,1024.0,1023.0,1023.0,1023.0,1024.0,1024.0,1024.0,1024.0,1024.0,1024.0,1024.0,1023.0,1024.0,1023.0,1024.0,1023.0,1024.0,1024.0,1024.0,1024.0,1023.0,1022.0,1024.0,1023.0,1024.0,1024.0,1024.0,1024.0,1023.0,1024.0,1023.0,1022.0,1023.0,1022.0,1023.0,1022.0,1023.0,1023.0,1023.0,1023.0,1021.0,1022.0,1023.0,1024.0,1023.0,1024.0,1024.0,1023.0,1024.0,1023.0,1023.0,1024.0,1023.0,1024.0,1024.0,1023.0,1024.0,1024.0,1025.0,1024.0,1024.0,1024.0,1024.0,1025.0,1023.0,1025.0,1024.0,1024.0,1024.0,1024.0,1024.0,1023.0,1026.0,1024.0,1025.0,1025.0,1024.0,1024.0,1027.0,1025.0,1028.0,1027.0,1025.0,1025.0,1032.0,1028.0,1031.0,1030.0,1026.0,1029.0,1040.0,1034.0,1035.0,1033.0,1027.0,1035.0,1050.0,1045.0,1040.0,1042.0,1028.0,1040.0,1059.0,1045.0,1038.0,1045.0,1031.0,1051.0,1064.0,1048.0,1040.0,1050.0,1035.0,1050.0,1059.0,1051.0,1039.0,1052.0,1036.0,1042.0,1050.0,1045.0,1034.0,1047.0,1034.0,1043.0,1053.0,1048.0,1034.0,1046.0,1035.0,1023.0,1024.0,1023.0,1023.0,1024.0,1022.0,1038.0,1048.0,1045.0,1034.0,1048.0,1038.0,1031.0,1035.0,1035.0,1030.0,1039.0,1032.0,1025.0,1027.0,1026.0,1025.0,1028.0,2073,1982,1910,	00:29:09.055,0.052734375,0.06689453125,1.0166015625,0.0,0.1220703125,0.06103515625,3.7353515625,-2.9168701171875,41.7425537109375,440.0,-1593.0,-2551.0,0.93328857421875,0.039520263671875,-0.01214599609375,0.35675048828125,3.737446573553963,-2.916407235529279,37.2430771808823,0.9465727393293843,0.03901394881252573,-0.01369327594414947,0.3198287903714055,1,	00:29:09.056,0.041015625,-0.0078125,1.00634765625,-1.3427734375,-1.46484375,-0.42724609375,-0.4119873046875,-2.39501953125,-156.236572265625,-446.0,-1130.0,-2000.0,0.205780029296875,-0.02117919921875,-0.00079345703125,-0.978363037109375,-0.4099647036410466,-2.3941087226993956,-155.7075292313035,0.210287193631575,-0.021175809688548347,-0.0008988429069301388,-0.9774098799173353,1
1782117256.285619,0.022,1023.0,1024.0,1023.0,1023.0,1024.0,1024.0,1023.0,1024.0,1024.0,1023.0,1024.0,1024.0,1024.0,1024.0,1024.0,1025.0,1023.0,1023.0,1023.0,1024.0,1024.0,1023.0,1024.0,1023.0,1023.0,1024.0,1023.0,1024.0,1024.0,1023.0,1024.0,1023.0,1022.0,1023.0,1024.0,1023.0,1024.0,1024.0,1023.0,1024.0,1022.0,1022.0,1023.0,1023.0,1023.0,1024.0,1024.0,1023.0,1024.0,1023.0,1022.0,1023.0,1023.0,1024.0,1023.0,1024.0,1023.0,1024.0,1024.0,1024.0,1022.0,1023.0,1023.0,1024.0,1023.0,1024.0,1024.0,1023.0,1023.0,1022.0,1022.0,1023.0,1023.0,1024.0,1024.0,1024.0,1024.0,1024.0,1024.0,1024.0,1023.0,1023.0,1023.0,1024.0,1024.0,1024.0,1024.0,1024.0,1024.0,1024.0,1023.0,1023.0,1023.0,1024.0,1023.0,1024.0,1024.0,1024.0,1024.0,1023.0,1022.0,1023.0,1022.0,1024.0,1023.0,1024.0,1024.0,1024.0,1024.0,1023.0,1022.0,1023.0,1023.0,1023.0,1022.0,1023.0,1023.0,1023.0,1023.0,1021.0,1022.0,1023.0,1024.0,1023.0,1024.0,1024.0,1023.0,1024.0,1023.0,1023.0,1024.0,1022.0,1024.0,1024.0,1023.0,1023.0,1023.0,1025.0,1023.0,1025.0,1024.0,1024.0,1025.0,1023.0,1024.0,1024.0,1024.0,1024.0,1024.0,1024.0,1023.0,1025.0,1024.0,1025.0,1025.0,1024.0,1024.0,1027.0,1025.0,1028.0,1027.0,1025.0,1026.0,1032.0,1028.0,1032.0,1029.0,1025.0,1029.0,1040.0,1034.0,1036.0,1033.0,1026.0,1035.0,1050.0,1045.0,1040.0,1042.0,1029.0,1040.0,1059.0,1044.0,1038.0,1045.0,1031.0,1051.0,1065.0,1048.0,1040.0,1050.0,1034.0,1049.0,1060.0,1050.0,1040.0,1051.0,1035.0,1042.0,1050.0,1045.0,1034.0,1046.0,1034.0,1043.0,1053.0,1049.0,1034.0,1046.0,1034.0,1023.0,1023.0,1023.0,1023.0,1024.0,1022.0,1038.0,1048.0,1045.0,1035.0,1048.0,1037.0,1031.0,1035.0,1035.0,1030.0,1038.0,1031.0,1026.0,1026.0,1026.0,1025.0,1028.0,2073,1982,1910,	00:29:09.065,0.05322265625,0.0673828125,1.01806640625,0.0,0.1220703125,0.1220703125,3.790283203125,-2.98828125,41.7425537109375,439.0,-1596.0,-2553.0,0.933258056640625,0.040191650390625,-0.0125732421875,0.35675048828125,3.7901682649450077,-2.9899116038613744,37.241656898460775,0.9465362274354681,0.03965339768597685,-0.014154124225900342,0.3198381449602086,1,	00:29:09.066,0.0400390625,-0.00830078125,1.0068359375,-1.3427734375,-1.46484375,-0.42724609375,-0.4669189453125,-2.3291015625,-156.2420654296875,-446.0,-1127.0,-2001.0,0.20574951171875,-0.020721435546875,-0.000213623046875,-0.9783935546875,-0.46637581860795074,-2.327945134248165,-155.709930260575,0.21026106352956392,-0.02071500741530038,-0.0002957426476944112,-0.9774257445798566,1
1782117256.296988,0.033,1023.0,1024.0,1023.0,1023.0,1024.0,1024.0,1023.0,1023.0,1024.0,1023.0,1024.0,1024.0,1024.0,1024.0,1024.0,1025.0,1022.0,1024.0,1023.0,1024.0,1024.0,1023.0,1024.0,1023.0,1023.0,1024.0,1023.0,1024.0,1024.0,1024.0,1024.0,1023.0,1022.0,1022.0,1024.0,1023.0,1023.0,1023.0,1023.0,1023.0,1023.0,1022.0,1023.0,1024.0,1024.0,1024.0,1024.0,1024.0,1024.0,1024.0,1022.0,1023.0,1024.0,1024.0,1024.0,1024.0,1024.0,1024.0,1024.0,1023.0,1022.0,1024.0,1023.0,1024.0,1023.0,1024.0,1023.0,1023.0,1024.0,1022.0,1022.0,1024.0,1023.0,1024.0,1023.0,1024.0,1024.0,1023.0,1025.0,1024.0,1023.0,1023.0,1023.0,1024.0,1024.0,1024.0,1024.0,1024.0,1024.0,1023.0,1022.0,1023.0,1022.0,1024.0,1023.0,1024.0,1024.0,1023.0,1024.0,1023.0,1023.0,1023.0,1023.0,1024.0,1023.0,1024.0,1024.0,1023.0,1025.0,1023.0,1022.0,1024.0,1023.0,1024.0,1022.0,1023.0,1024.0,1023.0,1023.0,1021.0,1022.0,1023.0,1024.0,1023.0,1024.0,1024.0,1023.0,1024.0,1023.0,1023.0,1024.0,1023.0,1024.0,1024.0,1023.0,1023.0,1023.0,1024.0,1024.0,1024.0,1024.0,1024.0,1025.0,1023.0,1024.0,1024.0,1024.0,1024.0,1023.0,1024.0,1023.0,1025.0,1024.0,1025.0,1025.0,1024.0,1024.0,1027.0,1025.0,1028.0,1027.0,1025.0,1026.0,1031.0,1028.0,1031.0,1030.0,1025.0,1029.0,1040.0,1034.0,1036.0,1034.0,1026.0,1034.0,1050.0,1046.0,1040.0,1043.0,1029.0,1040.0,1059.0,1044.0,1037.0,1045.0,1031.0,1052.0,1065.0,1048.0,1040.0,1050.0,1035.0,1049.0,1060.0,1050.0,1039.0,1052.0,1036.0,1042.0,1050.0,1045.0,1033.0,1046.0,1033.0,1043.0,1052.0,1048.0,1034.0,1046.0,1034.0,1023.0,1024.0,1023.0,1022.0,1024.0,1022.0,1038.0,1048.0,1045.0,1035.0,1049.0,1038.0,1030.0,1035.0,1035.0,1031.0,1039.0,1032.0,1026.0,1026.0,1026.0,1025.0,1028.0,2073,1982,1910,	00:29:09.075,0.05224609375,0.0673828125,1.01708984375,0.0,0.1220703125,0.06103515625,3.790283203125,-2.8948974609375,41.7425537109375,439.0,-1595.0,-2554.0,0.93328857421875,0.039886474609375,-0.0118408203125,0.35675048828125,3.790416212752628,-2.8971802355437313,37.24233296386684,0.9465624832760529,0.039398011221314935,-0.013386780218692879,0.3198250397974709,1,	00:29:09.076,0.0400390625,-0.0078125,1.0078125,-1.28173828125,-1.52587890625,-0.42724609375,-0.4449462890625,-2.2576904296875,-156.24755859375,-445.0,-1128.0,-2000.0,0.2056884765625,-0.02008056640625,-0.000274658203125,-0.9783935546875,-0.44354807226389487,-2.2587752660137066,-155.71550921213182,0.2102224237514747,-0.020083160248131195,-0.00036246418284417074,-0.9774472199797897,1
1782117256.308503,0.045,1023.0,1024.0,1023.0,1023.0,1023.0,1023.0,1024.0,1024.0,1024.0,1023.0,1024.0,1024.0,1024.0,1024.0,1024.0,1024.0,1023.0,1024.0,1023.0,1024.0,1024.0,1024.0,1024.0,1024.0,1023.0,1024.0,1024.0,1024.0,1023.0,1023.0,1024.0,1024.0,1023.0,1023.0,1024.0,1023.0,1023.0,1024.0,1023.0,1023.0,1023.0,1022.0,1023.0,1024.0,1024.0,1024.0,1024.0,1023.0,1024.0,1024.0,1022.0,1023.0,1023.0,1024.0,1023.0,1024.0,1024.0,1023.0,1024.0,1024.0,1023.0,1023.0,1023.0,1024.0,1023.0,1024.0,1024.0,1023.0,1024.0,1023.0,1022.0,1023.0,1023.0,1024.0,1023.0,1024.0,1024.0,1024.0,1024.0,1024.0,1022.0,1023.0,1023.0,1024.0,1023.0,1024.0,1024.0,1024.0,1024.0,1023.0,1022.0,1023.0,1022.0,1024.0,1023.0,1024.0,1024.0,1023.0,1024.0,1024.0,1022.0,1023.0,1022.0,1024.0,1023.0,1024.0,1024.0,1023.0,1024.0,1023.0,1022.0,1023.0,1023.0,1023.0,1022.0,1024.0,1024.0,1023.0,1023.0,1021.0,1022.0,1023.0,1024.0,1023.0,1024.0,1024.0,1024.0,1024.0,1023.0,1023.0,1024.0,1023.0,1024.0,1024.0,1023.0,1024.0,1023.0,1025.0,1024.0,1024.0,1024.0,1024.0,1025.0,1024.0,1024.0,1024.0,1025.0,1024.0,1024.0,1025.0,1024.0,1025.0,1024.0,1025.0,1025.0,1024.0,1024.0,1026.0,1025.0,1028.0,1027.0,1025.0,1026.0,1032.0,1028.0,1032.0,1030.0,1026.0,1029.0,1041.0,1034.0,1036.0,1033.0,1026.0,1035.0,1051.0,1045.0,1040.0,1043.0,1029.0,1040.0,1058.0,1045.0,1037.0,1045.0,1032.0,1051.0,1065.0,1048.0,1040.0,1050.0,1035.0,1049.0,1059.0,1050.0,1039.0,1051.0,1036.0,1042.0,1050.0,1045.0,1033.0,1045.0,1034.0,1043.0,1053.0,1048.0,1034.0,1046.0,1035.0,1023.0,1024.0,1023.0,1023.0,1024.0,1022.0,1038.0,1048.0,1045.0,1034.0,1048.0,1038.0,1031.0,1035.0,1035.0,1030.0,1038.0,1031.0,1025.0,1027.0,1027.0,1025.0,1028.0,2073,1982,1910,	00:29:09.086,0.05322265625,0.06689453125,1.017578125,-0.06103515625,0.18310546875,0.06103515625,3.7628173828125,-2.9827880859375,41.7425537109375,438.0,-1595.0,-2553.0,0.933258056640625,0.0399169921875,-0.012603759765625,0.356781005859375,3.7615467247256844,-2.9825875378067974,37.244511890612806,0.9465403803167746,0.039396994719343256,-0.014172495192930144,0.31985672670254484,1,	00:29:09.087,0.041015625,-0.00830078125,1.0068359375,-1.28173828125,-1.46484375,-0.48828125,-0.4888916015625,-2.3565673828125,-156.24755859375,-444.0,-1129.0,-2000.0,0.205657958984375,-0.021026611328125,-6.103515625e-05,-0.9783935546875,-0.48944142906068366,-2.3588167237452105,-155.71893095454476,0.2101778329544139,-0.02102065487919875,-0.0001540400517838116,-0.9774371523912413,1
1782117256.317195,0.053,1023.0,1023.0,1024.0,1023.0,1024.0,1023.0,1024.0,1024.0,1023.0,1023.0,1024.0,1024.0,1024.0,1024.0,1024.0,1025.0,1023.0,1024.0,1023.0,1024.0,1024.0,1023.0,1024.0,1023.0,1023.0,1024.0,1023.0,1024.0,1024.0,1023.0,1024.0,1023.0,1023.0,1023.0,1024.0,1023.0,1023.0,1024.0,1023.0,1023.0,1023.0,1022.0,1023.0,1024.0,1024.0,1024.0,1024.0,1024.0,1024.0,1023.0,1023.0,1024.0,1023.0,1024.0,1023.0,1024.0,1023.0,1023.0,1024.0,1024.0,1023.0,1023.0,1022.0,1024.0,1023.0,1024.0,1023.0,1023.0,1024.0,1022.0,1022.0,1023.0,1024.0,1024.0,1023.0,1024.0,1024.0,1024.0,1024.0,1024.0,1023.0,1023.0,1023.0,1024.0,1024.0,1024.0,1024.0,1024.0,1024.0,1023.0,1023.0,1024.0,1023.0,1024.0,1023.0,1024.0,1024.0,1023.0,1024.0,1023.0,1022.0,1024.0,1023.0,1024.0,1023.0,1024.0,1024.0,1024.0,1024.0,1023.0,1023.0,1024.0,1023.0,1023.0,1022.0,1024.0,1023.0,1023.0,1023.0,1022.0,1022.0,1023.0,1024.0,1023.0,1024.0,1024.0,1023.0,1024.0,1023.0,1023.0,1023.0,1022.0,1024.0,1023.0,1023.0,1023.0,1023.0,1025.0,1024.0,1024.0,1024.0,1024.0,1024.0,1024.0,1025.0,1023.0,1024.0,1024.0,1024.0,1024.0,1024.0,1025.0,1024.0,1025.0,1025.0,1024.0,1024.0,1027.0,1025.0,1028.0,1027.0,1025.0,1026.0,1032.0,1028.0,1032.0,1030.0,1026.0,1029.0,1040.0,1034.0,1035.0,1034.0,1027.0,1035.0,1050.0,1045.0,1040.0,1042.0,1028.0,1040.0,1058.0,1044.0,1038.0,1044.0,1031.0,1051.0,1065.0,1048.0,1041.0,1049.0,1035.0,1049.0,1059.0,1050.0,1039.0,1051.0,1035.0,1043.0,1050.0,1044.0,1033.0,1046.0,1034.0,1043.0,1053.0,1047.0,1034.0,1046.0,1035.0,1023.0,1023.0,1023.0,1022.0,1024.0,1021.0,1038.0,1048.0,1045.0,1034.0,1048.0,1038.0,1030.0,1035.0,1035.0,1030.0,1039.0,1031.0,1025.0,1026.0,1026.0,1025.0,1028.0,2073,1982,1909,	00:29:09.096,0.05126953125,0.06640625,1.017578125,-0.06103515625,0.18310546875,0.06103515625,3.7353515625,-2.8948974609375,41.748046875,439.0,-1595.0,-2552.0,0.93328857421875,0.039459228515625,-0.011962890625,0.356781005859375,3.7373740369058597,-2.8923959484920396,37.24644710840521,0.9465705689386992,0.03894705888887811,-0.013493878724948932,0.31985184048232423,1,	00:29:09.097,0.0400390625,-0.00830078125,1.0078125,-1.28173828125,-1.52587890625,-0.42724609375,-0.4833984375,-2.28515625,-156.2530517578125,-446.0,-1129.0,-2001.0,0.20562744140625,-0.0203857421875,3.0517578125e-05,-0.978424072265625,-0.48332699626903686,-2.2844557179676825,-155.7238447837891,0.21014247989037024,-0.020375181710048824,-6.882093587907387e-05,-0.9774584315353193,1
1782117256.327632,0.064,1023.0,1023.0,1023.0,1023.0,1024.0,1023.0,1023.0,1024.0,1023.0,1023.0,1024.0,1024.0,1024.0,1024.0,1023.0,1024.0,1023.0,1024.0,1023.0,1024.0,1024.0,1024.0,1024.0,1023.0,1023.0,1024.0,1023.0,1024.0,1024.0,1023.0,1024.0,1023.0,1022.0,1022.0,1023.0,1023.0,1024.0,1024.0,1023.0,1024.0,1023.0,1022.0,1023.0,1024.0,1023.0,1024.0,1024.0,1024.0,1024.0,1023.0,1022.0,1023.0,1023.0,1024.0,1024.0,1024.0,1024.0,1024.0,1024.0,1024.0,1023.0,1023.0,1023.0,1024.0,1023.0,1024.0,1024.0,1023.0,1024.0,1022.0,1022.0,1023.0,1023.0,1024.0,1023.0,1024.0,1024.0,1024.0,1024.0,1024.0,1023.0,1023.0,1023.0,1024.0,1024.0,1024.0,1024.0,1024.0,1024.0,1024.0,1023.0,1023.0,1023.0,1024.0,1023.0,1024.0,1024.0,1023.0,1024.0,1023.0,1022.0,1023.0,1023.0,1024.0,1022.0,1024.0,1024.0,1024.0,1024.0,1022.0,1023.0,1024.0,1022.0,1023.0,1022.0,1023.0,1023.0,1023.0,1023.0,1021.0,1022.0,1023.0,1024.0,1023.0,1024.0,1024.0,1024.0,1024.0,1023.0,1023.0,1024.0,1023.0,1024.0,1024.0,1023.0,1024.0,1023.0,1025.0,1024.0,1024.0,1025.0,1024.0,1024.0,1023.0,1025.0,1024.0,1024.0,1025.0,1024.0,1024.0,1023.0,1025.0,1024.0,1025.0,1025.0,1024.0,1024.0,1027.0,1025.0,1028.0,1027.0,1025.0,1025.0,1031.0,1028.0,1032.0,1030.0,1025.0,1029.0,1040.0,1034.0,1035.0,1034.0,1027.0,1035.0,1050.0,1045.0,1040.0,1042.0,1029.0,1040.0,1058.0,1044.0,1038.0,1044.0,1031.0,1051.0,1064.0,1047.0,1040.0,1050.0,1035.0,1049.0,1059.0,1050.0,1039.0,1051.0,1036.0,1042.0,1050.0,1044.0,1033.0,1046.0,1034.0,1043.0,1053.0,1047.0,1034.0,1046.0,1034.0,1023.0,1024.0,1024.0,1023.0,1024.0,1022.0,1038.0,1048.0,1044.0,1034.0,1048.0,1037.0,1031.0,1036.0,1035.0,1030.0,1039.0,1031.0,1025.0,1026.0,1027.0,1024.0,1027.0,2072,1982,1910,	00:29:09.106,0.05224609375,0.06640625,1.01708984375,-0.06103515625,0.1220703125,0.06103515625,3.7353515625,-2.9827880859375,41.748046875,438.0,-1596.0,-2554.0,0.933258056640625,0.039703369140625,-0.0126953125,0.356781005859375,3.73278455151027,-2.982699397355379,37.24733922990108,0.9465423127432426,0.03916007672197877,-0.014252736236075196,0.3198765356939878,1,	00:29:09.107,0.0400390625,-0.00830078125,1.00732421875,-1.3427734375,-1.52587890625,-0.48828125,-0.4229736328125,-2.2467041015625,-156.258544921875,-447.0,-1127.0,-2002.0,0.20556640625,-0.019927978515625,-0.00042724609375,-0.97845458984375,-0.42305175565814573,-2.2449759788714396,-155.73151216071955,0.21009043993255758,-0.019927927876552207,-0.0005091785581811334,-0.9774787084518451,1
1782117256.339048,0.075,1023.0,1024.0,1023.0,1023.0,1023.0,1023.0,1024.0,1024.0,1023.0,1023.0,1024.0,1024.0,1024.0,1024.0,1024.0,1025.0,1023.0,1024.0,1024.0,1024.0,1024.0,1023.0,1024.0,1024.0,1023.0,1024.0,1024.0,1023.0,1024.0,1023.0,1024.0,1023.0,1022.0,1023.0,1024.0,1023.0,1023.0,1023.0,1024.0,1023.0,1023.0,1022.0,1023.0,1024.0,1023.0,1024.0,1024.0,1023.0,1024.0,1024.0,1022.0,1024.0,1023.0,1024.0,1023.0,1024.0,1024.0,1023.0,1024.0,1023.0,1022.0,1023.0,1023.0,1024.0,1023.0,1024.0,1024.0,1023.0,1024.0,1023.0,1022.0,1023.0,1023.0,1024.0,1023.0,1024.0,1024.0,1023.0,1024.0,1024.0,1023.0,1023.0,1023.0,1024.0,1024.0,1024.0,1024.0,1023.0,1024.0,1024.0,1022.0,1023.0,1023.0,1024.0,1023.0,1024.0,1024.0,1024.0,1024.0,1023.0,1022.0,1023.0,1023.0,1024.0,1024.0,1024.0,1024.0,1023.0,1024.0,1022.0,1022.0,1023.0,1022.0,1023.0,1022.0,1023.0,1023.0,1022.0,1023.0,1021.0,1022.0,1023.0,1024.0,1024.0,1024.0,1023.0,1023.0,1024.0,1024.0,1023.0,1024.0,1024.0,1023.0,1023.0,1023.0,1023.0,1024.0,1025.0,1024.0,1024.0,1024.0,1024.0,1025.0,1024.0,1025.0,1024.0,1024.0,1024.0,1024.0,1025.0,1024.0,1025.0,1024.0,1025.0,1026.0,1024.0,1024.0,1027.0,1025.0,1028.0,1027.0,1025.0,1025.0,1031.0,1028.0,1031.0,1029.0,1026.0,1029.0,1040.0,1034.0,1035.0,1033.0,1026.0,1035.0,1051.0,1045.0,1040.0,1042.0,1028.0,1040.0,1058.0,1044.0,1037.0,1045.0,1031.0,1051.0,1065.0,1047.0,1041.0,1050.0,1034.0,1049.0,1059.0,1050.0,1038.0,1051.0,1035.0,1042.0,1050.0,1044.0,1033.0,1045.0,1033.0,1044.0,1053.0,1048.0,1034.0,1046.0,1034.0,1023.0,1024.0,1023.0,1023.0,1024.0,1021.0,1038.0,1047.0,1044.0,1034.0,1048.0,1037.0,1030.0,1035.0,1035.0,1030.0,1039.0,1031.0,1026.0,1026.0,1027.0,1025.0,1028.0,2073,1982,1910,	00:29:09.116,0.05224609375,0.06689453125,1.01806640625,-0.06103515625,0.1220703125,0.06103515625,3.7738037109375,-2.900390625,41.748046875,440.0,-1594.0,-2553.0,0.933258056640625,0.039764404296875,-0.01190185546875,0.356781005859375,3.7743525349775395,-2.9001290232109556,37.24586202081704,0.9465572599024725,0.039273923566002705,-0.01345477604178091,0.31985290627930896,1,	00:29:09.118,0.041015625,-0.0087890625,1.0087890625,-1.28173828125,-1.52587890625,-0.48828125,-0.4998779296875,-2.3291015625,-156.2640380859375,-443.0,-1130.0,-1997.0,0.205535888671875,-0.020782470703125,6.103515625e-05,-0.978424072265625,-0.4975465108716034,-2.3278922601833654,-155.733808471512,0.21005174754995265,-0.020771755711050298,-2.544214117639238e-05,-0.9774695887180271,1
1782117256.347377,0.083,1023.0,1023.0,1023.0,1023.0,1023.0,1024.0,1023.0,1023.0,1023.0,1023.0,1024.0,1024.0,1024.0,1024.0,1024.0,1024.0,1023.0,1024.0,1023.0,1023.0,1024.0,1023.0,1024.0,1024.0,1023.0,1024.0,1024.0,1024.0,1024.0,1024.0,1024.0,1023.0,1023.0,1023.0,1024.0,1023.0,1023.0,1023.0,1024.0,1023.0,1023.0,1022.0,1023.0,1024.0,1024.0,1024.0,1024.0,1023.0,1023.0,1023.0,1022.0,1023.0,1023.0,1024.0,1024.0,1024.0,1024.0,1024.0,1024.0,1024.0,1022.0,1023.0,1023.0,1024.0,1022.0,1023.0,1023.0,1024.0,1023.0,1022.0,1023.0,1023.0,1023.0,1024.0,1024.0,1024.0,1024.0,1023.0,1024.0,1024.0,1023.0,1024.0,1023.0,1024.0,1024.0,1024.0,1024.0,1023.0,1024.0,1023.0,1022.0,1023.0,1023.0,1024.0,1023.0,1024.0,1024.0,1024.0,1024.0,1023.0,1023.0,1023.0,1023.0,1024.0,1023.0,1024.0,1024.0,1023.0,1024.0,1023.0,1022.0,1023.0,1022.0,1023.0,1022.0,1023.0,1024.0,1023.0,1023.0,1021.0,1022.0,1023.0,1024.0,1023.0,1024.0,1024.0,1023.0,1024.0,1023.0,1023.0,1024.0,1023.0,1024.0,1024.0,1023.0,1024.0,1024.0,1025.0,1024.0,1024.0,1025.0,1023.0,1025.0,1023.0,1024.0,1024.0,1025.0,1025.0,1024.0,1024.0,1023.0,1025.0,1024.0,1025.0,1025.0,1024.0,1024.0,1027.0,1025.0,1028.0,1027.0,1025.0,1025.0,1032.0,1028.0,1031.0,1029.0,1025.0,1029.0,1040.0,1034.0,1036.0,1034.0,1026.0,1035.0,1050.0,1045.0,1040.0,1043.0,1029.0,1040.0,1058.0,1044.0,1038.0,1044.0,1031.0,1051.0,1064.0,1048.0,1040.0,1050.0,1034.0,1049.0,1059.0,1049.0,1038.0,1051.0,1036.0,1042.0,1050.0,1045.0,1033.0,1046.0,1033.0,1043.0,1053.0,1048.0,1034.0,1046.0,1034.0,1023.0,1024.0,1023.0,1023.0,1024.0,1021.0,1037.0,1048.0,1045.0,1034.0,1048.0,1037.0,1031.0,1035.0,1035.0,1030.0,1039.0,1031.0,1026.0,1026.0,1026.0,1024.0,1028.0,2073,1982,1910,	00:29:09.127,0.0517578125,0.0673828125,1.0166015625,0.0,0.1220703125,0.1220703125,3.856201171875,-2.9388427734375,41.7425537109375,438.0,-1597.0,-2554.0,0.9332275390625,0.040557861328125,-0.011932373046875,0.35675048828125,3.857613706110863,-2.9367142144512783,37.242919521453956,0.9465255567747755,0.04006292945952842,-0.013525766458464936,0.31984587803664655,1,	00:29:09.128,0.04052734375,-0.00927734375,1.00732421875,-1.40380859375,-1.5869140625,-0.48828125,-0.582275390625,-2.28515625,-156.2640380859375,-445.0,-1129.0,-2004.0,0.20550537109375,-0.02056884765625,0.000885009765625,-0.97845458984375,-0.583037518879412,-2.286563031123616,-155.73567797800993,0.2100235651188028,-0.02057592104353614,0.0007799601217173388,-0.977479475605604,1
1782117256.358113,0.094,1023.0,1023.0,1023.0,1023.0,1023.0,1024.0,1023.0,1024.0,1023.0,1023.0,1024.0,1024.0,1024.0,1024.0,1024.0,1024.0,1023.0,1024.0,1023.0,1024.0,1024.0,1023.0,1024.0,1023.0,1023.0,1024.0,1023.0,1024.0,1024.0,1023.0,1024.0,1023.0,1022.0,1023.0,1024.0,1023.0,1023.0,1023.0,1023.0,1024.0,1023.0,1023.0,1023.0,1024.0,1023.0,1024.0,1023.0,1023.0,1024.0,1023.0,1022.0,1023.0,1023.0,1024.0,1023.0,1023.0,1024.0,1024.0,1024.0,1024.0,1023.0,1023.0,1023.0,1024.0,1023.0,1023.0,1024.0,1023.0,1023.0,1022.0,1022.0,1023.0,1023.0,1024.0,1023.0,1024.0,1024.0,1023.0,1024.0,1024.0,1022.0,1024.0,1023.0,1024.0,1024.0,1024.0,1024.0,1024.0,1024.0,1024.0,1023.0,1023.0,1023.0,1024.0,1023.0,1024.0,1024.0,1024.0,1024.0,1023.0,1022.0,1023.0,1023.0,1024.0,1023.0,1024.0,1024.0,1024.0,1024.0,1023.0,1023.0,1023.0,1022.0,1024.0,1022.0,1023.0,1023.0,1022.0,1023.0,1021.0,1022.0,1023.0,1024.0,1023.0,1024.0,1023.0,1023.0,1023.0,1023.0,1023.0,1024.0,1023.0,1024.0,1024.0,1023.0,1024.0,1024.0,1025.0,1024.0,1025.0,1024.0,1023.0,1024.0,1023.0,1024.0,1024.0,1024.0,1024.0,1024.0,1024.0,1024.0,1025.0,1024.0,1025.0,1026.0,1024.0,1024.0,1027.0,1026.0,1028.0,1027.0,1025.0,1025.0,1031.0,1028.0,1031.0,1029.0,1026.0,1029.0,1040.0,1034.0,1036.0,1034.0,1026.0,1035.0,1050.0,1045.0,1040.0,1042.0,1029.0,1040.0,1058.0,1044.0,1037.0,1045.0,1031.0,1052.0,1063.0,1047.0,1039.0,1050.0,1034.0,1049.0,1058.0,1050.0,1038.0,1051.0,1036.0,1042.0,1049.0,1045.0,1033.0,1046.0,1033.0,1043.0,1052.0,1048.0,1034.0,1046.0,1034.0,1023.0,1023.0,1023.0,1023.0,1024.0,1021.0,1038.0,1048.0,1044.0,1034.0,1048.0,1037.0,1031.0,1034.0,1035.0,1030.0,1039.0,1030.0,1026.0,1026.0,1026.0,1025.0,1028.0,2073,1982,1909,	00:29:09.137,0.0517578125,0.06689453125,1.0166015625,-0.06103515625,0.18310546875,0.06103515625,3.768310546875,-2.9058837890625,41.748046875,439.0,-1596.0,-2556.0,0.933258056640625,0.039764404296875,-0.011993408203125,0.356781005859375,3.769474785575295,-2.908137910752683,37.24811315303567,0.9465502358925033,0.03925614224974514,-0.013533812647667728,0.3198725404637475,1,	00:29:09.138,0.0400390625,-0.00830078125,1.0068359375,-1.3427734375,-1.64794921875,-0.48828125,-0.50537109375,-2.296142578125,-156.2750244140625,-445.0,-1127.0,-1998.0,0.2054443359375,-0.0205078125,0.00018310546875,-0.97845458984375,-0.5048629362213897,-2.2953696064790563,-155.74404985254617,0.2099654857757647,-0.020507748893175682,9.846488269413916e-05,-0.977493691704938,1
1782117256.369201,0.105,1024.0,1023.0,1023.0,1023.0,1023.0,1023.0,1023.0,1024.0,1023.0,1024.0,1024.0,1024.0,1024.0,1024.0,1024.0,1024.0,1023.0,1024.0,1023.0,1024.0,1023.0,1024.0,1024.0,1023.0,1023.0,1024.0,1023.0,1024.0,1023.0,1023.0,1024.0,1024.0,1023.0,1023.0,1023.0,1023.0,1024.0,1024.0,1023.0,1023.0,1023.0,1022.0,1023.0,1024.0,1024.0,1023.0,1024.0,1023.0,1024.0,1024.0,1022.0,1023.0,1023.0,1023.0,1024.0,1024.0,1024.0,1023.0,1024.0,1024.0,1022.0,1023.0,1022.0,1024.0,1023.0,1024.0,1024.0,1023.0,1024.0,1023.0,1022.0,1023.0,1023.0,1024.0,1024.0,1024.0,1024.0,1024.0,1024.0,1024.0,1023.0,1023.0,1023.0,1024.0,1024.0,1024.0,1024.0,1024.0,1024.0,1023.0,1023.0,1023.0,1023.0,1024.0,1023.0,1024.0,1024.0,1023.0,1024.0,1024.0,1022.0,1023.0,1023.0,1024.0,1024.0,1024.0,1024.0,1023.0,1024.0,1023.0,1022.0,1023.0,1022.0,1024.0,1022.0,1024.0,1024.0,1023.0,1023.0,1021.0,1022.0,1023.0,1024.0,1023.0,1024.0,1024.0,1023.0,1023.0,1023.0,1023.0,1024.0,1023.0,1024.0,1024.0,1023.0,1024.0,1023.0,1024.0,1024.0,1025.0,1024.0,1023.0,1025.0,1023.0,1024.0,1024.0,1024.0,1024.0,1024.0,1024.0,1024.0,1025.0,1024.0,1026.0,1025.0,1024.0,1025.0,1027.0,1025.0,1028.0,1027.0,1025.0,1025.0,1031.0,1028.0,1031.0,1029.0,1025.0,1029.0,1040.0,1034.0,1035.0,1033.0,1027.0,1035.0,1050.0,1045.0,1040.0,1042.0,1029.0,1040.0,1058.0,1044.0,1037.0,1044.0,1031.0,1051.0,1063.0,1047.0,1039.0,1049.0,1034.0,1049.0,1059.0,1050.0,1037.0,1051.0,1036.0,1042.0,1050.0,1044.0,1033.0,1046.0,1034.0,1043.0,1053.0,1047.0,1033.0,1046.0,1034.0,1023.0,1024.0,1023.0,1023.0,1024.0,1022.0,1038.0,1047.0,1044.0,1034.0,1047.0,1037.0,1031.0,1034.0,1034.0,1030.0,1038.0,1031.0,1025.0,1026.0,1026.0,1025.0,1028.0,2073,1982,1910,	00:29:09.147,0.05224609375,0.06640625,1.01708984375,0.0,0.1220703125,0.0,3.6968994140625,-2.9608154296875,41.7535400390625,439.0,-1597.0,-2552.0,0.933258056640625,0.039337158203125,-0.012664794921875,0.3568115234375,3.6969054451214283,-2.963032669592997,37.2519098130411,0.9465477525323494,0.038809648919911795,-0.014188798046703774,0.31990598827883987,1,	00:29:09.148,0.041015625,-0.009765625,1.005859375,-1.40380859375,-1.5869140625,-0.48828125,-0.59326171875,-2.3675537109375,-156.2750244140625,-445.0,-1128.0,-2000.0,0.205413818359375,-0.021270751953125,0.00079345703125,-0.97845458984375,-0.5913514808782603,-2.367203332381284,-155.74583281700376,0.2099288974327481,-0.02127893205348798,0.0007048264031654796,-0.9774848174233066,1
1782117256.379661,0.116,1023.0,1023.0,1023.0,1023.0,1023.0,1024.0,1023.0,1024.0,1023.0,1023.0,1024.0,1024.0,1024.0,1024.0,1024.0,1025.0,1023.0,1024.0,1023.0,1024.0,1024.0,1024.0,1024.0,1024.0,1023.0,1024.0,1023.0,1024.0,1024.0,1024.0,1023.0,1023.0,1022.0,1023.0,1024.0,1023.0,1024.0,1024.0,1022.0,1023.0,1022.0,1022.0,1023.0,1024.0,1024.0,1023.0,1024.0,1023.0,1024.0,1024.0,1022.0,1023.0,1023.0,1024.0,1023.0,1024.0,1024.0,1023.0,1024.0,1024.0,1023.0,1024.0,1023.0,1024.0,1023.0,1024.0,1024.0,1023.0,1024.0,1023.0,1023.0,1023.0,1023.0,1024.0,1023.0,1024.0,1024.0,1023.0,1024.0,1024.0,1022.0,1023.0,1023.0,1024.0,1023.0,1024.0,1024.0,1023.0,1024.0,1024.0,1023.0,1024.0,1022.0,1024.0,1023.0,1024.0,1024.0,1023.0,1024.0,1023.0,1023.0,1023.0,1023.0,1024.0,1024.0,1024.0,1024.0,1024.0,1024.0,1023.0,1023.0,1024.0,1022.0,1024.0,1023.0,1023.0,1023.0,1023.0,1023.0,1021.0,1022.0,1023.0,1023.0,1023.0,1023.0,1023.0,1023.0,1024.0,1024.0,1023.0,1024.0,1023.0,1024.0,1024.0,1023.0,1023.0,1024.0,1025.0,1024.0,1024.0,1025.0,1023.0,1024.0,1024.0,1025.0,1024.0,1024.0,1025.0,1024.0,1024.0,1023.0,1025.0,1024.0,1026.0,1025.0,1024.0,1024.0,1026.0,1026.0,1028.0,1028.0,1025.0,1025.0,1031.0,1028.0,1032.0,1030.0,1025.0,1029.0,1040.0,1034.0,1036.0,1033.0,1026.0,1035.0,1050.0,1045.0,1040.0,1043.0,1029.0,1040.0,1057.0,1043.0,1037.0,1045.0,1031.0,1051.0,1063.0,1047.0,1039.0,1050.0,1035.0,1049.0,1058.0,1050.0,1037.0,1051.0,1036.0,1042.0,1049.0,1044.0,1032.0,1046.0,1034.0,1043.0,1052.0,1047.0,1033.0,1046.0,1034.0,1023.0,1024.0,1023.0,1022.0,1024.0,1021.0,1038.0,1048.0,1045.0,1034.0,1048.0,1037.0,1030.0,1034.0,1035.0,1030.0,1039.0,1031.0,1026.0,1025.0,1026.0,1024.0,1028.0,2073,1982,1910,	00:29:09.158,0.0517578125,0.06689453125,1.017578125,0.0,0.1220703125,0.06103515625,3.7628173828125,-2.900390625,41.748046875,439.0,-1596.0,-2552.0,0.933258056640625,0.039703369140625,-0.011932373046875,0.356781005859375,3.76520960920702,-2.900664485183295,37.24910304857481,0.9465511825810773,0.039200269015610606,-0.013483612976527897,0.3198787111462205,1,	00:29:09.159,0.04052734375,-0.0078125,1.00634765625,-1.40380859375,-1.5869140625,-0.48828125,-0.5218505859375,-2.3455810546875,-156.2860107421875,-446.0,-1130.0,-2002.0,0.205352783203125,-0.02099609375,0.000244140625,-0.97845458984375,-0.5205480233744579,-2.3478224622106265,-155.75403997590473,0.20987347783008856,-0.020983892315620565,0.00013790259509403467,-0.9775033404289031,1
1782117256.389404,0.125,1023.0,1023.0,1023.0,1023.0,1023.0,1024.0,1023.0,1024.0,1023.0,1024.0,1024.0,1024.0,1024.0,1023.0,1024.0,1024.0,1023.0,1024.0,1023.0,1024.0,1024.0,1023.0,1024.0,1024.0,1023.0,1024.0,1023.0,1024.0,1024.0,1023.0,1024.0,1023.0,1022.0,1023.0,1023.0,1023.0,1024.0,1024.0,1023.0,1024.0,1023.0,1022.0,1023.0,1024.0,1023.0,1024.0,1024.0,1024.0,1024.0,1024.0,1022.0,1023.0,1023.0,1024.0,1023.0,1023.0,1024.0,1024.0,1024.0,1024.0,1022.0,1023.0,1022.0,1024.0,1023.0,1024.0,1023.0,1023.0,1024.0,1023.0,1022.0,1023.0,1023.0,1024.0,1024.0,1024.0,1024.0,1024.0,1024.0,1024.0,1023.0,1023.0,1023.0,1024.0,1023.0,1024.0,1024.0,1024.0,1024.0,1024.0,1023.0,1023.0,1023.0,1024.0,1024.0,1024.0,1024.0,1023.0,1024.0,1023.0,1023.0,1023.0,1023.0,1024.0,1023.0,1024.0,1024.0,1024.0,1024.0,1023.0,1022.0,1024.0,1022.0,1023.0,1022.0,1022.0,1023.0,1023.0,1023.0,1021.0,1022.0,1023.0,1024.0,1023.0,1024.0,1023.0,1023.0,1024.0,1023.0,1023.0,1024.0,1023.0,1024.0,1024.0,1023.0,1024.0,1024.0,1025.0,1024.0,1024.0,1024.0,1024.0,1024.0,1023.0,1024.0,1024.0,1024.0,1024.0,1023.0,1025.0,1024.0,1025.0,1024.0,1025.0,1026.0,1024.0,1024.0,1027.0,1025.0,1028.0,1027.0,1026.0,1026.0,1032.0,1028.0,1032.0,1030.0,1026.0,1029.0,1039.0,1034.0,1035.0,1033.0,1027.0,1034.0,1049.0,1045.0,1039.0,1042.0,1029.0,1040.0,1057.0,1044.0,1036.0,1045.0,1031.0,1051.0,1063.0,1047.0,1038.0,1050.0,1034.0,1048.0,1059.0,1049.0,1037.0,1051.0,1035.0,1041.0,1048.0,1044.0,1033.0,1047.0,1034.0,1043.0,1052.0,1047.0,1033.0,1046.0,1034.0,1023.0,1024.0,1024.0,1023.0,1024.0,1022.0,1037.0,1048.0,1045.0,1034.0,1048.0,1037.0,1030.0,1034.0,1035.0,1030.0,1038.0,1031.0,1026.0,1025.0,1026.0,1024.0,1028.0,2073,1982,1909,	00:29:09.168,0.05224609375,0.06689453125,1.017578125,0.0,0.1220703125,0.06103515625,3.7518310546875,-2.98828125,41.748046875,438.0,-1599.0,-2552.0,0.9332275390625,0.039886474609375,-0.0126953125,0.3568115234375,3.7537278030272083,-2.9903600884039596,37.250381344891295,0.9465242985105607,0.039354725260279236,-0.014256543473759192,0.31990578128092567,1,	00:29:09.169,0.041015625,-0.0087890625,1.00634765625,-1.3427734375,-1.52587890625,-0.48828125,-0.4559326171875,-2.3126220703125,-156.29150390625,-447.0,-1127.0,-1999.0,0.205291748046875,-0.02056884765625,-0.000213623046875,-0.978485107421875,-0.4584838437274293,-2.310817466855923,-155.76185266536106,0.20982080791407018,-0.020554586629432645,-0.00032229391702909017,-0.9775237253700858,1
1782117256.399823,0.136,1024.0,1023.0,1023.0,1023.0,1024.0,1023.0,1023.0,1023.0,1023.0,1023.0,1024.0,1024.0,1024.0,1024.0,1024.0,1024.0,1023.0,1024.0,1024.0,1023.0,1024.0,1023.0,1024.0,1024.0,1023.0,1024.0,1024.0,1024.0,1024.0,1023.0,1024.0,1023.0,1022.0,1023.0,1023.0,1023.0,1023.0,1023.0,1023.0,1023.0,1023.0,1022.0,1023.0,1024.0,1023.0,1024.0,1024.0,1023.0,1024.0,1023.0,1022.0,1023.0,1023.0,1024.0,1024.0,1024.0,1024.0,1024.0,1024.0,1023.0,1023.0,1023.0,1023.0,1023.0,1023.0,1024.0,1024.0,1023.0,1024.0,1023.0,1022.0,1023.0,1024.0,1024.0,1024.0,1024.0,1024.0,1024.0,1024.0,1024.0,1023.0,1024.0,1023.0,1024.0,1023.0,1024.0,1024.0,1023.0,1024.0,1023.0,1023.0,1024.0,1023.0,1024.0,1023.0,1024.0,1024.0,1024.0,1024.0,1023.0,1022.0,1023.0,1023.0,1024.0,1023.0,1024.0,1024.0,1024.0,1024.0,1023.0,1023.0,1023.0,1023.0,1024.0,1022.0,1023.0,1024.0,1023.0,1023.0,1021.0,1022.0,1023.0,1024.0,1023.0,1023.0,1024.0,1023.0,1024.0,1023.0,1023.0,1024.0,1023.0,1024.0,1023.0,1024.0,1024.0,1024.0,1025.0,1024.0,1024.0,1024.0,1023.0,1025.0,1023.0,1025.0,1024.0,1024.0,1024.0,1024.0,1024.0,1024.0,1025.0,1024.0,1025.0,1026.0,1024.0,1024.0,1027.0,1026.0,1027.0,1027.0,1025.0,1026.0,1031.0,1028.0,1031.0,1030.0,1026.0,1029.0,1040.0,1034.0,1035.0,1033.0,1026.0,1035.0,1049.0,1045.0,1039.0,1043.0,1028.0,1040.0,1058.0,1044.0,1036.0,1045.0,1032.0,1051.0,1062.0,1047.0,1038.0,1050.0,1034.0,1048.0,1057.0,1049.0,1037.0,1051.0,1036.0,1042.0,1049.0,1044.0,1032.0,1047.0,1034.0,1044.0,1052.0,1047.0,1033.0,1046.0,1035.0,1023.0,1023.0,1023.0,1022.0,1024.0,1022.0,1037.0,1048.0,1045.0,1033.0,1048.0,1037.0,1030.0,1034.0,1035.0,1029.0,1038.0,1031.0,1024.0,1025.0,1026.0,1024.0,1027.0,2073,1982,1909,	00:29:09.178,0.05224609375,0.06689453125,1.01806640625,0.0,0.18310546875,0.1220703125,3.7628173828125,-2.8948974609375,41.7535400390625,441.0,-1594.0,-2555.0,0.933258056640625,0.0396728515625,-0.01190185546875,0.3568115234375,3.762369689256997,-2.8974456284622967,37.251273699805964,0.9465470617232895,0.03916812459058249,-0.013464195183172094,0.3198956601880267,1,	00:29:09.179,0.04052734375,-0.00927734375,1.0068359375,-1.3427734375,-1.52587890625,-0.42724609375,-0.5657958984375,-2.318115234375,-156.29150390625,-445.0,-1130.0,-2001.0,0.205291748046875,-0.02081298828125,0.000640869140625,-0.978485107421875,-0.5631634432148134,-2.3183727632658453,-155.7623132843753,0.2097974181003705,-0.02081069516959716,0.0005569139393944074,-0.9775232212954538,1
1782117256.410234,0.146,1023.0,1024.0,1023.0,1023.0,1023.0,1023.0,1024.0,1024.0,1023.0,1023.0,1024.0,1024.0,1024.0,1024.0,1024.0,1024.0,1023.0,1024.0,1024.0,1024.0,1023.0,1023.0,1024.0,1024.0,1023.0,1024.0,1023.0,1023.0,1024.0,1023.0,1023.0,1023.0,1022.0,1023.0,1024.0,1023.0,1024.0,1024.0,1023.0,1024.0,1022.0,1022.0,1023.0,1023.0,1024.0,1024.0,1024.0,1024.0,1024.0,1023.0,1023.0,1023.0,1023.0,1024.0,1024.0,1024.0,1024.0,1023.0,1024.0,1024.0,1022.0,1023.0,1023.0,1024.0,1023.0,1024.0,1023.0,1023.0,1024.0,1022.0,1022.0,1023.0,1023.0,1024.0,1024.0,1024.0,1024.0,1024.0,1024.0,1024.0,1023.0,1023.0,1023.0,1024.0,1023.0,1024.0,1024.0,1024.0,1024.0,1024.0,1022.0,1023.0,1023.0,1024.0,1023.0,1024.0,1024.0,1023.0,1024.0,1022.0,1022.0,1023.0,1023.0,1024.0,1023.0,1024.0,1024.0,1023.0,1024.0,1023.0,1022.0,1023.0,1023.0,1023.0,1023.0,1024.0,1024.0,1023.0,1024.0,1022.0,1022.0,1023.0,1024.0,1023.0,1024.0,1024.0,1023.0,1024.0,1023.0,1023.0,1024.0,1023.0,1024.0,1024.0,1023.0,1024.0,1023.0,1024.0,1024.0,1024.0,1025.0,1023.0,1024.0,1023.0,1025.0,1024.0,1024.0,1024.0,1024.0,1024.0,1024.0,1025.0,1024.0,1025.0,1026.0,1024.0,1024.0,1026.0,1025.0,1028.0,1027.0,1025.0,1025.0,1031.0,1028.0,1031.0,1030.0,1025.0,1029.0,1040.0,1034.0,1036.0,1033.0,1026.0,1034.0,1050.0,1045.0,1039.0,1043.0,1029.0,1040.0,1057.0,1044.0,1035.0,1045.0,1031.0,1051.0,1062.0,1047.0,1037.0,1050.0,1034.0,1049.0,1057.0,1049.0,1037.0,1051.0,1036.0,1041.0,1049.0,1044.0,1033.0,1046.0,1034.0,1043.0,1052.0,1047.0,1033.0,1046.0,1034.0,1023.0,1023.0,1023.0,1023.0,1024.0,1021.0,1038.0,1048.0,1044.0,1034.0,1048.0,1036.0,1031.0,1034.0,1034.0,1029.0,1038.0,1030.0,1025.0,1025.0,1026.0,1024.0,1028.0,2073,1983,1910,	00:29:09.188,0.05224609375,0.06689453125,1.017578125,-0.06103515625,0.1220703125,0.06103515625,3.75732421875,-2.98828125,41.7535400390625,440.0,-1597.0,-2549.0,0.9332275390625,0.0399169921875,-0.012664794921875,0.356842041015625,3.758581507857469,-2.987777409057667,37.25212554706496,0.9465185540419466,0.039387859656421775,-0.014221048657034024,0.31992027935272105,1,	00:29:09.189,0.04052734375,-0.00927734375,1.0068359375,-1.28173828125,-1.5869140625,-0.48828125,-0.4888916015625,-2.3016357421875,-156.302490234375,-445.0,-1129.0,-2000.0,0.205230712890625,-0.020538330078125,6.103515625e-05,-0.978485107421875,-0.49009403133265883,-2.301609924876427,-155.77049974482568,0.20974204066911573,-0.020533925618991897,-3.4221196186056255e-05,-0.9775411158122908,1
1782117256.419454,0.155,1023.0,1024.0,1023.0,1023.0,1024.0,1024.0,1024.0,1024.0,1023.0,1023.0,1024.0,1024.0,1024.0,1024.0,1024.0,1024.0,1023.0,1023.0,1023.0,1024.0,1024.0,1023.0,1024.0,1023.0,1023.0,1024.0,1023.0,1024.0,1024.0,1024.0,1024.0,1023.0,1023.0,1023.0,1023.0,1023.0,1023.0,1023.0,1023.0,1023.0,1023.0,1022.0,1023.0,1023.0,1024.0,1023.0,1024.0,1024.0,1024.0,1023.0,1023.0,1023.0,1023.0,1024.0,1024.0,1024.0,1024.0,1023.0,1025.0,1024.0,1023.0,1023.0,1023.0,1024.0,1023.0,1024.0,1024.0,1023.0,1024.0,1023.0,1022.0,1023.0,1023.0,1024.0,1024.0,1024.0,1024.0,1024.0,1024.0,1024.0,1023.0,1024.0,1023.0,1024.0,1024.0,1024.0,1024.0,1023.0,1024.0,1024.0,1022.0,1023.0,1023.0,1024.0,1023.0,1024.0,1024.0,1023.0,1024.0,1023.0,1023.0,1023.0,1023.0,1024.0,1024.0,1024.0,1024.0,1024.0,1024.0,1023.0,1023.0,1023.0,1022.0,1023.0,1023.0,1023.0,1023.0,1023.0,1024.0,1021.0,1022.0,1023.0,1024.0,1023.0,1023.0,1024.0,1023.0,1023.0,1022.0,1023.0,1024.0,1023.0,1024.0,1024.0,1023.0,1024.0,1024.0,1024.0,1024.0,1024.0,1024.0,1024.0,1024.0,1024.0,1025.0,1024.0,1024.0,1024.0,1024.0,1025.0,1023.0,1025.0,1024.0,1025.0,1025.0,1024.0,1024.0,1027.0,1025.0,1028.0,1027.0,1025.0,1025.0,1031.0,1028.0,1031.0,1030.0,1026.0,1028.0,1040.0,1035.0,1035.0,1033.0,1027.0,1035.0,1050.0,1045.0,1039.0,1043.0,1029.0,1040.0,1057.0,1044.0,1036.0,1045.0,1031.0,1050.0,1062.0,1048.0,1038.0,1050.0,1034.0,1048.0,1058.0,1050.0,1037.0,1051.0,1035.0,1042.0,1049.0,1045.0,1033.0,1047.0,1034.0,1042.0,1052.0,1048.0,1032.0,1046.0,1034.0,1023.0,1024.0,1023.0,1023.0,1024.0,1022.0,1037.0,1047.0,1044.0,1033.0,1047.0,1036.0,1030.0,1034.0,1035.0,1029.0,1039.0,1030.0,1025.0,1026.0,1026.0,1024.0,1027.0,2073,1983,1910,	00:29:09.199,0.0517578125,0.06689453125,1.01806640625,-0.06103515625,0.18310546875,0.06103515625,3.75732421875,-2.8948974609375,41.7535400390625,439.0,-1595.0,-2554.0,0.933258056640625,0.039642333984375,-0.01190185546875,0.3568115234375,3.758779726799108,-2.8944380309549973,37.252811669933486,0.9465448978092336,0.03913029651901016,-0.013448834556464827,0.3199073384196036,1,	00:29:09.200,0.04052734375,-0.00830078125,1.0078125,-1.3427734375,-1.52587890625,-0.48828125,-0.4119873046875,-2.3236083984375,-156.3079833984375,-447.0,-1127.0,-1999.0,0.205169677734375,-0.02056884765625,-0.000640869140625,-0.978515625,-0.4117553898080294,-2.322526012256374,-155.778947665832,0.20968254876256345,-0.020569010701824195,-0.0007392966609651675,-0.9775528619893814,1
1782117256.429285,0.165,1023.0,1023.0,1023.0,1023.0,1023.0,1024.0,1024.0,1024.0,1023.0,1023.0,1024.0,1023.0,1023.0,1024.0,1024.0,1025.0,1023.0,1024.0,1024.0,1024.0,1024.0,1024.0,1024.0,1024.0,1023.0,1024.0,1024.0,1024.0,1024.0,1023.0,1024.0,1023.0,1022.0,1023.0,1024.0,1023.0,1023.0,1024.0,1023.0,1023.0,1023.0,1022.0,1023.0,1024.0,1023.0,1024.0,1024.0,1023.0,1024.0,1024.0,1022.0,1024.0,1023.0,1024.0,1023.0,1024.0,1024.0,1023.0,1024.0,1024.0,1023.0,1024.0,1022.0,1024.0,1023.0,1024.0,1024.0,1023.0,1024.0,1022.0,1022.0,1023.0,1023.0,1024.0,1024.0,1024.0,1024.0,1024.0,1024.0,1024.0,1023.0,1023.0,1023.0,1024.0,1024.0,1024.0,1024.0,1024.0,1024.0,1024.0,1023.0,1023.0,1023.0,1024.0,1023.0,1024.0,1024.0,1023.0,1024.0,1023.0,1023.0,1023.0,1023.0,1024.0,1024.0,1024.0,1024.0,1024.0,1024.0,1023.0,1022.0,1023.0,1023.0,1024.0,1022.0,1023.0,1023.0,1023.0,1023.0,1021.0,1022.0,1024.0,1024.0,1023.0,1024.0,1024.0,1024.0,1024.0,1023.0,1023.0,1024.0,1023.0,1024.0,1024.0,1023.0,1024.0,1023.0,1025.0,1024.0,1024.0,1025.0,1023.0,1025.0,1024.0,1024.0,1024.0,1024.0,1024.0,1023.0,1024.0,1024.0,1025.0,1024.0,1025.0,1025.0,1024.0,1024.0,1026.0,1025.0,1027.0,1027.0,1025.0,1026.0,1031.0,1029.0,1031.0,1029.0,1025.0,1029.0,1039.0,1034.0,1035.0,1034.0,1026.0,1034.0,1049.0,1045.0,1039.0,1043.0,1028.0,1040.0,1057.0,1043.0,1036.0,1044.0,1030.0,1051.0,1063.0,1048.0,1038.0,1050.0,1034.0,1048.0,1058.0,1050.0,1037.0,1051.0,1035.0,1042.0,1049.0,1045.0,1033.0,1046.0,1033.0,1043.0,1052.0,1048.0,1033.0,1046.0,1034.0,1023.0,1024.0,1023.0,1023.0,1024.0,1022.0,1037.0,1047.0,1045.0,1034.0,1048.0,1036.0,1031.0,1035.0,1035.0,1030.0,1039.0,1030.0,1025.0,1026.0,1026.0,1024.0,1028.0,2073,1983,1910,	00:29:09.209,0.0517578125,0.0673828125,1.01708984375,-0.06103515625,0.18310546875,0.1220703125,3.84521484375,-2.9278564453125,41.748046875,439.0,-1595.0,-2554.0,0.9332275390625,0.0404052734375,-0.01190185546875,0.3568115234375,3.8432816068653475,-2.92605759061589,37.249826879886406,0.9465145272480623,0.03991576529551072,-0.013475288624730875,0.3198990434273465,1,	00:29:09.210,0.041015625,-0.0087890625,1.0078125,-1.28173828125,-1.46484375,-0.48828125,-0.516357421875,-2.3455810546875,-156.3079833984375,-446.0,-1129.0,-2000.0,0.20513916015625,-0.020965576171875,0.000213623046875,-0.978515625,-0.5157524663359971,-2.3454291043317554,-155.78000531953867,0.20965303918743972,-0.020954670446254504,0.00010613025889914862,-0.977551274196053,1
1782117256.441737,0.178,1023.0,1023.0,1023.0,1023.0,1024.0,1024.0,1023.0,1024.0,1023.0,1023.0,1024.0,1024.0,1024.0,1024.0,1024.0,1024.0,1023.0,1024.0,1023.0,1024.0,1024.0,1023.0,1024.0,1023.0,1023.0,1024.0,1023.0,1024.0,1024.0,1023.0,1024.0,1023.0,1022.0,1023.0,1024.0,1023.0,1024.0,1023.0,1023.0,1023.0,1022.0,1022.0,1023.0,1024.0,1023.0,1024.0,1024.0,1023.0,1024.0,1024.0,1022.0,1023.0,1023.0,1024.0,1023.0,1024.0,1024.0,1023.0,1024.0,1024.0,1022.0,1024.0,1023.0,1024.0,1023.0,1023.0,1024.0,1023.0,1024.0,1023.0,1022.0,1023.0,1023.0,1024.0,1024.0,1024.0,1024.0,1024.0,1024.0,1024.0,1023.0,1024.0,1023.0,1024.0,1024.0,1024.0,1024.0,1023.0,1024.0,1023.0,1022.0,1023.0,1023.0,1024.0,1023.0,1024.0,1024.0,1023.0,1024.0,1023.0,1022.0,1023.0,1023.0,1024.0,1023.0,1024.0,1024.0,1024.0,1024.0,1023.0,1022.0,1023.0,1022.0,1023.0,1023.0,1023.0,1024.0,1022.0,1023.0,1021.0,1022.0,1023.0,1024.0,1024.0,1024.0,1024.0,1023.0,1023.0,1023.0,1023.0,1024.0,1023.0,1024.0,1024.0,1023.0,1024.0,1024.0,1024.0,1024.0,1024.0,1024.0,1024.0,1024.0,1023.0,1024.0,1024.0,1024.0,1025.0,1024.0,1024.0,1024.0,1025.0,1024.0,1025.0,1025.0,1024.0,1024.0,1026.0,1025.0,1028.0,1027.0,1025.0,1025.0,1031.0,1028.0,1031.0,1030.0,1026.0,1029.0,1040.0,1034.0,1035.0,1034.0,1027.0,1035.0,1050.0,1045.0,1039.0,1042.0,1029.0,1039.0,1057.0,1044.0,1036.0,1044.0,1031.0,1050.0,1062.0,1047.0,1038.0,1050.0,1034.0,1048.0,1058.0,1049.0,1037.0,1051.0,1036.0,1041.0,1049.0,1043.0,1032.0,1046.0,1034.0,1043.0,1052.0,1048.0,1033.0,1046.0,1034.0,1023.0,1024.0,1024.0,1023.0,1024.0,1022.0,1038.0,1047.0,1045.0,1034.0,1047.0,1036.0,1030.0,1034.0,1035.0,1029.0,1038.0,1030.0,1025.0,1026.0,1027.0,1024.0,1028.0,2072,1983,1910,	00:29:09.219,0.052734375,0.0673828125,1.017578125,-0.1220703125,0.18310546875,0.06103515625,3.7628173828125,-2.9718017578125,41.7535400390625,440.0,-1595.0,-2552.0,0.9332275390625,0.0399169921875,-0.01251220703125,0.356842041015625,3.7641524555136714,-2.972738010391078,37.254566848787654,0.9465144308591555,0.03939240032690985,-0.014080360196567469,0.31993814156581607,1,	00:29:09.220,0.04052734375,-0.0087890625,1.00732421875,-1.220703125,-1.46484375,-0.42724609375,-0.494384765625,-2.274169921875,-156.3134765625,-446.0,-1127.0,-2000.0,0.205108642578125,-0.02032470703125,0.000152587890625,-0.978546142578125,-0.4951743944987597,-2.2745120188704564,-155.78547140916172,0.2096153993874465,-0.02031206170447118,6.140987371767412e-05,-0.9775729132488187,1
1782117256.452154,0.188,1023.0,1023.0,1023.0,1023.0,1023.0,1023.0,1024.0,1024.0,1023.0,1023.0,1024.0,1024.0,1024.0,1024.0,1024.0,1025.0,1023.0,1024.0,1024.0,1024.0,1024.0,1024.0,1024.0,1023.0,1023.0,1024.0,1024.0,1024.0,1024.0,1024.0,1024.0,1023.0,1022.0,1022.0,1023.0,1023.0,1023.0,1023.0,1023.0,1024.0,1023.0,1023.0,1023.0,1024.0,1024.0,1023.0,1024.0,1023.0,1024.0,1024.0,1022.0,1023.0,1023.0,1024.0,1024.0,1024.0,1024.0,1023.0,1024.0,1024.0,1022.0,1023.0,1023.0,1024.0,1023.0,1024.0,1024.0,1023.0,1023.0,1022.0,1022.0,1023.0,1023.0,1024.0,1023.0,1024.0,1024.0,1024.0,1024.0,1024.0,1023.0,1023.0,1023.0,1024.0,1024.0,1024.0,1024.0,1024.0,1025.0,1024.0,1022.0,1023.0,1023.0,1024.0,1024.0,1024.0,1024.0,1023.0,1024.0,1023.0,1022.0,1023.0,1023.0,1024.0,1023.0,1023.0,1024.0,1023.0,1024.0,1023.0,1023.0,1023.0,1022.0,1023.0,1023.0,1023.0,1023.0,1023.0,1023.0,1021.0,1022.0,1023.0,1024.0,1024.0,1024.0,1024.0,1023.0,1024.0,1023.0,1023.0,1024.0,1023.0,1024.0,1023.0,1023.0,1024.0,1024.0,1025.0,1024.0,1024.0,1025.0,1024.0,1024.0,1023.0,1025.0,1024.0,1024.0,1024.0,1024.0,1024.0,1024.0,1025.0,1024.0,1025.0,1025.0,1025.0,1024.0,1027.0,1025.0,1027.0,1027.0,1025.0,1026.0,1031.0,1028.0,1031.0,1029.0,1026.0,1029.0,1040.0,1034.0,1035.0,1034.0,1027.0,1034.0,1049.0,1045.0,1039.0,1042.0,1029.0,1039.0,1057.0,1043.0,1036.0,1044.0,1031.0,1051.0,1063.0,1047.0,1038.0,1050.0,1034.0,1049.0,1058.0,1049.0,1037.0,1052.0,1036.0,1042.0,1049.0,1044.0,1032.0,1046.0,1034.0,1043.0,1052.0,1047.0,1033.0,1046.0,1034.0,1023.0,1024.0,1023.0,1023.0,1024.0,1021.0,1037.0,1047.0,1045.0,1034.0,1047.0,1036.0,1031.0,1034.0,1035.0,1029.0,1038.0,1031.0,1025.0,1026.0,1026.0,1024.0,1027.0,2072,1983,1909,	00:29:09.230,0.05224609375,0.06689453125,1.017578125,0.0,0.18310546875,0.06103515625,3.75732421875,-2.87841796875,41.7535400390625,438.0,-1596.0,-2552.0,0.933258056640625,0.039581298828125,-0.01177978515625,0.356842041015625,3.757249324569503,-2.8796767803584453,37.25564754648974,0.9465419249561313,0.03907697762815223,-0.013330141309491674,0.31992761908353456,1,	00:29:09.231,0.04052734375,-0.0087890625,1.00634765625,-1.28173828125,-1.46484375,-0.42724609375,-0.5218505859375,-2.3785400390625,-156.3189697265625,-445.0,-1131.0,-1999.0,0.205047607421875,-0.021270751953125,0.000213623046875,-0.978515625,-0.5227539550671398,-2.379569167612396,-155.78900256121395,0.20957238804643588,-0.02125869946420506,0.00010501172774403095,-0.9775620035773394,1
1782117256.460504,0.197,1023.0,1024.0,1023.0,1023.0,1023.0,1024.0,1024.0,1024.0,1024.0,1023.0,1024.0,1024.0,1024.0,1024.0,1024.0,1025.0,1023.0,1024.0,1023.0,1024.0,1024.0,1023.0,1024.0,1023.0,1023.0,1024.0,1023.0,1024.0,1023.0,1024.0,1024.0,1023.0,1023.0,1023.0,1024.0,1023.0,1023.0,1023.0,1023.0,1024.0,1023.0,1022.0,1023.0,1024.0,1024.0,1024.0,1023.0,1024.0,1024.0,1023.0,1022.0,1023.0,1023.0,1024.0,1024.0,1024.0,1024.0,1023.0,1024.0,1023.0,1022.0,1023.0,1022.0,1024.0,1023.0,1024.0,1023.0,1022.0,1024.0,1022.0,1023.0,1023.0,1023.0,1024.0,1024.0,1024.0,1024.0,1024.0,1024.0,1024.0,1023.0,1023.0,1023.0,1024.0,1024.0,1024.0,1024.0,1024.0,1024.0,1024.0,1023.0,1023.0,1023.0,1024.0,1023.0,1023.0,1024.0,1023.0,1024.0,1023.0,1023.0,1023.0,1023.0,1024.0,1024.0,1024.0,1024.0,1023.0,1024.0,1024.0,1022.0,1023.0,1023.0,1024.0,1023.0,1023.0,1023.0,1023.0,1023.0,1021.0,1022.0,1023.0,1024.0,1023.0,1024.0,1024.0,1023.0,1024.0,1023.0,1023.0,1024.0,1023.0,1024.0,1024.0,1023.0,1024.0,1024.0,1025.0,1024.0,1024.0,1024.0,1024.0,1024.0,1024.0,1024.0,1024.0,1024.0,1025.0,1024.0,1024.0,1024.0,1025.0,1024.0,1025.0,1025.0,1024.0,1024.0,1027.0,1024.0,1028.0,1027.0,1025.0,1025.0,1031.0,1028.0,1031.0,1030.0,1026.0,1029.0,1040.0,1034.0,1035.0,1033.0,1026.0,1035.0,1050.0,1045.0,1039.0,1043.0,1029.0,1039.0,1057.0,1043.0,1036.0,1044.0,1031.0,1050.0,1063.0,1047.0,1039.0,1049.0,1034.0,1048.0,1058.0,1049.0,1037.0,1051.0,1036.0,1042.0,1049.0,1044.0,1032.0,1046.0,1033.0,1043.0,1052.0,1047.0,1033.0,1046.0,1034.0,1023.0,1024.0,1023.0,1022.0,1024.0,1021.0,1037.0,1047.0,1045.0,1034.0,1048.0,1036.0,1030.0,1034.0,1034.0,1029.0,1038.0,1031.0,1025.0,1025.0,1026.0,1024.0,1027.0,2072,1983,1909,	00:29:09.240,0.05224609375,0.0673828125,1.017578125,-0.1220703125,0.1220703125,0.06103515625,3.80126953125,-2.955322265625,41.7535400390625,439.0,-1597.0,-2552.0,0.9332275390625,0.040191650390625,-0.01226806640625,0.356842041015625,3.8023988303644427,-2.9572790121564845,37.25397555445175,0.9465076159716507,0.039665295494330774,-0.013846018470759497,0.3199348136941597,1,	00:29:09.241,0.0400390625,-0.009765625,1.00732421875,-1.220703125,-1.40380859375,-0.48828125,-0.560302734375,-2.30712890625,-156.324462890625,-445.0,-1127.0,-2001.0,0.20501708984375,-0.02069091796875,0.00067138671875,-0.978546142578125,-0.5623645606807858,-2.3062877825887877,-155.79264067664448,0.209539800165336,-0.020705993739554722,0.0005777250721717452,-0.9775806873111138,1
1782117256.471061,0.207,1022.0,1023.0,1023.0,1023.0,1024.0,1023.0,1023.0,1023.0,1023.0,1024.0,1024.0,1024.0,1024.0,1024.0,1024.0,1025.0,1023.0,1024.0,1023.0,1024.0,1024.0,1024.0,1024.0,1024.0,1023.0,1024.0,1023.0,1023.0,1024.0,1023.0,1024.0,1024.0,1022.0,1023.0,1024.0,1023.0,1023.0,1024.0,1023.0,1024.0,1023.0,1023.0,1023.0,1024.0,1023.0,1024.0,1024.0,1023.0,1024.0,1023.0,1023.0,1023.0,1023.0,1024.0,1024.0,1024.0,1024.0,1024.0,1024.0,1023.0,1022.0,1023.0,1022.0,1024.0,1023.0,1024.0,1024.0,1023.0,1024.0,1022.0,1022.0,1023.0,1023.0,1024.0,1024.0,1024.0,1024.0,1024.0,1024.0,1024.0,1022.0,1023.0,1023.0,1024.0,1023.0,1024.0,1024.0,1024.0,1024.0,1024.0,1023.0,1024.0,1023.0,1024.0,1023.0,1024.0,1024.0,1023.0,1024.0,1023.0,1022.0,1024.0,1023.0,1024.0,1023.0,1024.0,1024.0,1024.0,1024.0,1024.0,1023.0,1023.0,1023.0,1024.0,1023.0,1024.0,1023.0,1023.0,1023.0,1021.0,1022.0,1023.0,1024.0,1023.0,1024.0,1024.0,1023.0,1024.0,1023.0,1023.0,1024.0,1023.0,1024.0,1024.0,1024.0,1024.0,1024.0,1024.0,1024.0,1025.0,1024.0,1024.0,1024.0,1023.0,1024.0,1024.0,1024.0,1024.0,1023.0,1024.0,1024.0,1025.0,1024.0,1025.0,1025.0,1024.0,1024.0,1027.0,1025.0,1028.0,1027.0,1025.0,1025.0,1030.0,1028.0,1032.0,1030.0,1026.0,1029.0,1039.0,1034.0,1035.0,1034.0,1027.0,1035.0,1050.0,1044.0,1039.0,1043.0,1029.0,1040.0,1058.0,1044.0,1036.0,1044.0,1032.0,1051.0,1063.0,1047.0,1038.0,1049.0,1035.0,1049.0,1057.0,1048.0,1037.0,1051.0,1035.0,1042.0,1050.0,1044.0,1032.0,1045.0,1033.0,1043.0,1052.0,1047.0,1033.0,1046.0,1034.0,1023.0,1024.0,1023.0,1022.0,1024.0,1021.0,1038.0,1047.0,1044.0,1033.0,1047.0,1036.0,1030.0,1035.0,1034.0,1030.0,1038.0,1030.0,1025.0,1025.0,1026.0,1024.0,1027.0,2072,1983,1909,	00:29:09.250,0.052734375,0.06787109375,1.017578125,-0.1220703125,0.18310546875,0.06103515625,3.88916015625,-2.9718017578125,41.748046875,439.0,-1596.0,-2556.0,0.933197021484375,0.04095458984375,-0.01214599609375,0.356842041015625,3.8908062988738386,-2.973853818854104,37.25006816831918,0.9464825291015496,0.04044108364279614,-0.013737544958050513,0.319916583999417,1,	00:29:09.251,0.041015625,-0.00927734375,1.00732421875,-1.220703125,-1.46484375,-0.54931640625,-0.4998779296875,-2.373046875,-156.3299560546875,-447.0,-1126.0,-2005.0,0.2049560546875,-0.02117919921875,3.0517578125e-05,-0.978546142578125,-0.5002127128776827,-2.374969159439919,-155.80101492600494,0.20947443493664536,-0.02117824192070822,-7.664381622338798e-05,-0.9775847468648673,1
1782117256.481420,0.217,1023.0,1024.0,1023.0,1023.0,1024.0,1024.0,1023.0,1024.0,1023.0,1023.0,1024.0,1024.0,1023.0,1024.0,1024.0,1025.0,1023.0,1024.0,1023.0,1023.0,1024.0,1024.0,1024.0,1024.0,1023.0,1024.0,1023.0,1023.0,1024.0,1024.0,1024.0,1023.0,1022.0,1022.0,1024.0,1023.0,1024.0,1023.0,1023.0,1024.0,1023.0,1022.0,1023.0,1023.0,1023.0,1024.0,1024.0,1023.0,1024.0,1023.0,1023.0,1023.0,1024.0,1024.0,1024.0,1024.0,1024.0,1023.0,1024.0,1024.0,1022.0,1023.0,1022.0,1024.0,1023.0,1024.0,1024.0,1023.0,1024.0,1023.0,1022.0,1023.0,1023.0,1024.0,1023.0,1024.0,1024.0,1023.0,1024.0,1024.0,1023.0,1023.0,1023.0,1024.0,1023.0,1024.0,1024.0,1024.0,1024.0,1023.0,1022.0,1023.0,1022.0,1024.0,1023.0,1024.0,1024.0,1023.0,1024.0,1023.0,1022.0,1023.0,1023.0,1024.0,1023.0,1024.0,1024.0,1023.0,1024.0,1023.0,1022.0,1023.0,1023.0,1023.0,1023.0,1023.0,1023.0,1022.0,1023.0,1021.0,1022.0,1023.0,1024.0,1023.0,1024.0,1024.0,1023.0,1024.0,1023.0,1023.0,1024.0,1024.0,1024.0,1024.0,1023.0,1024.0,1023.0,1024.0,1024.0,1025.0,1025.0,1023.0,1024.0,1023.0,1025.0,1024.0,1024.0,1024.0,1024.0,1024.0,1024.0,1025.0,1025.0,1025.0,1026.0,1024.0,1024.0,1027.0,1025.0,1028.0,1027.0,1025.0,1026.0,1031.0,1028.0,1031.0,1029.0,1026.0,1029.0,1039.0,1034.0,1035.0,1033.0,1027.0,1035.0,1050.0,1045.0,1040.0,1042.0,1028.0,1040.0,1057.0,1044.0,1036.0,1044.0,1031.0,1050.0,1063.0,1047.0,1039.0,1050.0,1035.0,1049.0,1058.0,1048.0,1037.0,1051.0,1036.0,1042.0,1049.0,1044.0,1032.0,1046.0,1034.0,1044.0,1053.0,1047.0,1033.0,1046.0,1034.0,1023.0,1023.0,1024.0,1023.0,1024.0,1022.0,1037.0,1047.0,1044.0,1034.0,1048.0,1036.0,1030.0,1034.0,1034.0,1029.0,1038.0,1030.0,1025.0,1025.0,1026.0,1024.0,1027.0,2072,1983,1910,	00:29:09.260,0.0517578125,0.06689453125,1.017578125,-0.1220703125,0.1220703125,0.1220703125,3.8067626953125,-2.9278564453125,41.7535400390625,440.0,-1594.0,-2554.0,0.9332275390625,0.040130615234375,-0.01202392578125,0.35687255859375,3.808618465707034,-2.9300736368032743,37.25553645713888,0.9465093981728705,0.03964128217629829,-0.013603271626434143,0.319942930721882,1,	00:29:09.261,0.04052734375,-0.0087890625,1.005859375,-1.0986328125,-1.46484375,-0.54931640625,-0.5108642578125,-2.296142578125,-156.33544921875,-445.0,-1127.0,-2001.0,0.204925537109375,-0.020538330078125,0.000244140625,-0.97857666015625,-0.5115440424689757,-2.298069876922097,-155.80636888121714,0.20943246054457323,-0.020542938793252488,0.00016167656640550141,-0.9776072861822739,1
1782117256.493920,0.230,1023.0,1023.0,1023.0,1023.0,1023.0,1024.0,1023.0,1023.0,1023.0,1023.0,1024.0,1024.0,1023.0,1024.0,1024.0,1024.0,1023.0,1024.0,1023.0,1024.0,1024.0,1024.0,1024.0,1024.0,1024.0,1024.0,1023.0,1024.0,1024.0,1023.0,1024.0,1023.0,1022.0,1023.0,1024.0,1023.0,1023.0,1024.0,1023.0,1024.0,1023.0,1023.0,1024.0,1024.0,1023.0,1024.0,1024.0,1023.0,1024.0,1024.0,1023.0,1023.0,1023.0,1024.0,1023.0,1024.0,1024.0,1024.0,1024.0,1024.0,1023.0,1023.0,1023.0,1024.0,1023.0,1024.0,1024.0,1024.0,1023.0,1023.0,1023.0,1023.0,1023.0,1024.0,1024.0,1024.0,1024.0,1023.0,1024.0,1024.0,1022.0,1023.0,1023.0,1024.0,1024.0,1024.0,1024.0,1024.0,1024.0,1024.0,1022.0,1024.0,1023.0,1024.0,1023.0,1024.0,1024.0,1023.0,1024.0,1023.0,1023.0,1023.0,1023.0,1024.0,1024.0,1024.0,1024.0,1023.0,1024.0,1023.0,1022.0,1023.0,1022.0,1023.0,1023.0,1023.0,1023.0,1023.0,1023.0,1021.0,1022.0,1024.0,1024.0,1023.0,1024.0,1024.0,1023.0,1023.0,1023.0,1023.0,1024.0,1023.0,1023.0,1024.0,1023.0,1023.0,1023.0,1024.0,1024.0,1024.0,1024.0,1024.0,1024.0,1024.0,1025.0,1024.0,1024.0,1025.0,1023.0,1025.0,1024.0,1025.0,1024.0,1025.0,1026.0,1024.0,1024.0,1027.0,1026.0,1028.0,1028.0,1025.0,1026.0,1031.0,1028.0,1031.0,1030.0,1025.0,1029.0,1040.0,1034.0,1035.0,1034.0,1027.0,1035.0,1050.0,1045.0,1039.0,1043.0,1029.0,1040.0,1057.0,1044.0,1037.0,1044.0,1031.0,1051.0,1063.0,1047.0,1039.0,1050.0,1034.0,1048.0,1058.0,1049.0,1037.0,1051.0,1036.0,1042.0,1049.0,1044.0,1033.0,1046.0,1033.0,1043.0,1052.0,1047.0,1033.0,1045.0,1034.0,1024.0,1024.0,1023.0,1022.0,1024.0,1021.0,1037.0,1047.0,1044.0,1033.0,1047.0,1036.0,1030.0,1034.0,1035.0,1030.0,1038.0,1031.0,1025.0,1025.0,1026.0,1024.0,1027.0,2072,1983,1910,	00:29:09.270,0.0517578125,0.0673828125,1.017578125,-0.1220703125,0.18310546875,0.06103515625,3.7518310546875,-2.8564453125,41.759033203125,440.0,-1596.0,-2551.0,0.933258056640625,0.0394287109375,-0.011627197265625,0.35687255859375,3.749614905040125,-2.857409731893143,37.25918250386474,0.9465412932523808,0.03895245728212364,-0.013166222502117018,0.3199514601073411,1,	00:29:09.271,0.04052734375,-0.00927734375,1.00537109375,-1.0986328125,-1.46484375,-0.54931640625,-0.5987548828125,-2.362060546875,-156.33544921875,-446.0,-1128.0,-1999.0,0.204864501953125,-0.021240234375,0.00091552734375,-0.978546142578125,-0.6010789582899916,-2.3597068822990934,-155.8085288285019,0.20939286987777142,-0.021232367733933222,0.0008131673309381524,-0.9776007116219044,1
1782117256.503241,0.239,1023.0,1023.0,1023.0,1023.0,1023.0,1024.0,1024.0,1023.0,1023.0,1023.0,1024.0,1024.0,1024.0,1024.0,1024.0,1024.0,1023.0,1024.0,1024.0,1024.0,1024.0,1024.0,1024.0,1023.0,1023.0,1024.0,1023.0,1024.0,1024.0,1024.0,1024.0,1023.0,1022.0,1023.0,1023.0,1023.0,1023.0,1023.0,1023.0,1024.0,1023.0,1023.0,1023.0,1024.0,1024.0,1024.0,1024.0,1023.0,1024.0,1023.0,1022.0,1023.0,1023.0,1024.0,1023.0,1024.0,1024.0,1024.0,1024.0,1024.0,1023.0,1023.0,1023.0,1024.0,1023.0,1024.0,1024.0,1023.0,1024.0,1023.0,1022.0,1023.0,1023.0,1023.0,1024.0,1024.0,1024.0,1024.0,1024.0,1024.0,1023.0,1023.0,1023.0,1024.0,1024.0,1024.0,1024.0,1024.0,1024.0,1024.0,1023.0,1024.0,1023.0,1024.0,1024.0,1024.0,1024.0,1023.0,1024.0,1023.0,1022.0,1023.0,1023.0,1024.0,1024.0,1024.0,1024.0,1024.0,1024.0,1023.0,1023.0,1023.0,1023.0,1023.0,1023.0,1024.0,1024.0,1022.0,1023.0,1021.0,1022.0,1023.0,1024.0,1024.0,1024.0,1023.0,1023.0,1024.0,1023.0,1023.0,1024.0,1023.0,1024.0,1023.0,1023.0,1024.0,1024.0,1024.0,1024.0,1025.0,1024.0,1024.0,1024.0,1024.0,1025.0,1024.0,1025.0,1024.0,1024.0,1024.0,1024.0,1025.0,1025.0,1025.0,1026.0,1024.0,1024.0,1027.0,1025.0,1028.0,1028.0,1025.0,1026.0,1031.0,1028.0,1031.0,1030.0,1025.0,1028.0,1040.0,1033.0,1035.0,1034.0,1027.0,1034.0,1049.0,1046.0,1040.0,1043.0,1028.0,1040.0,1057.0,1044.0,1037.0,1044.0,1031.0,1051.0,1063.0,1048.0,1039.0,1049.0,1034.0,1049.0,1058.0,1050.0,1038.0,1051.0,1035.0,1042.0,1050.0,1044.0,1033.0,1046.0,1033.0,1042.0,1052.0,1048.0,1033.0,1046.0,1034.0,1023.0,1024.0,1023.0,1023.0,1024.0,1022.0,1037.0,1048.0,1045.0,1034.0,1047.0,1037.0,1030.0,1034.0,1035.0,1029.0,1038.0,1030.0,1025.0,1025.0,1026.0,1024.0,1027.0,2072,1983,1909,	00:29:09.280,0.0517578125,0.0673828125,1.017578125,-0.1220703125,0.1220703125,0.1220703125,3.8067626953125,-2.9278564453125,41.759033203125,439.0,-1596.0,-2550.0,0.9332275390625,0.04010009765625,-0.01202392578125,0.35687255859375,3.8058981319409844,-2.927292780334763,37.25757784776833,0.9465054838684238,0.03961132947606366,-0.013587178565564332,0.31995890386542936,1,	00:29:09.282,0.0400390625,-0.009765625,1.00634765625,-1.03759765625,-1.46484375,-0.48828125,-0.5657958984375,-2.296142578125,-156.346435546875,-446.0,-1128.0,-1998.0,0.204833984375,-0.020599365234375,0.000732421875,-0.97857666015625,-0.566870898409084,-2.2942614588737182,-155.8150699993673,0.20934858600687506,-0.02061151630605446,0.0006422144385964979,-0.977623609827986,1
1782117256.512049,0.248,1023.0,1024.0,1023.0,1023.0,1023.0,1024.0,1024.0,1023.0,1023.0,1023.0,1024.0,1024.0,1024.0,1024.0,1024.0,1024.0,1023.0,1024.0,1024.0,1024.0,1023.0,1023.0,1024.0,1024.0,1023.0,1024.0,1023.0,1024.0,1024.0,1024.0,1024.0,1023.0,1023.0,1023.0,1023.0,1023.0,1024.0,1024.0,1024.0,1024.0,1023.0,1022.0,1023.0,1023.0,1023.0,1024.0,1024.0,1023.0,1024.0,1023.0,1022.0,1023.0,1023.0,1024.0,1024.0,1024.0,1024.0,1023.0,1024.0,1024.0,1023.0,1023.0,1022.0,1024.0,1023.0,1024.0,1024.0,1024.0,1024.0,1022.0,1022.0,1023.0,1023.0,1024.0,1024.0,1024.0,1024.0,1023.0,1024.0,1023.0,1023.0,1023.0,1024.0,1024.0,1024.0,1024.0,1024.0,1024.0,1024.0,1023.0,1023.0,1024.0,1023.0,1024.0,1023.0,1024.0,1024.0,1023.0,1024.0,1022.0,1022.0,1023.0,1023.0,1024.0,1024.0,1024.0,1024.0,1023.0,1024.0,1023.0,1022.0,1023.0,1023.0,1023.0,1022.0,1023.0,1024.0,1023.0,1023.0,1021.0,1023.0,1023.0,1023.0,1023.0,1023.0,1024.0,1023.0,1024.0,1023.0,1023.0,1024.0,1023.0,1024.0,1024.0,1023.0,1024.0,1023.0,1024.0,1024.0,1025.0,1024.0,1024.0,1024.0,1023.0,1024.0,1024.0,1025.0,1024.0,1024.0,1024.0,1024.0,1025.0,1024.0,1026.0,1026.0,1024.0,1024.0,1026.0,1025.0,1028.0,1028.0,1025.0,1025.0,1031.0,1029.0,1031.0,1030.0,1026.0,1029.0,1039.0,1034.0,1035.0,1034.0,1027.0,1035.0,1049.0,1045.0,1040.0,1042.0,1029.0,1040.0,1057.0,1044.0,1037.0,1044.0,1030.0,1051.0,1063.0,1047.0,1039.0,1049.0,1033.0,1049.0,1057.0,1049.0,1038.0,1051.0,1035.0,1042.0,1050.0,1044.0,1033.0,1046.0,1034.0,1043.0,1052.0,1047.0,1033.0,1046.0,1034.0,1023.0,1023.0,1023.0,1023.0,1024.0,1021.0,1037.0,1048.0,1045.0,1034.0,1048.0,1037.0,1031.0,1035.0,1035.0,1029.0,1038.0,1030.0,1025.0,1026.0,1026.0,1024.0,1027.0,2072,1984,1909,	00:29:09.291,0.05224609375,0.06787109375,1.01708984375,-0.1220703125,0.1220703125,0.1220703125,3.8836669921875,-2.9718017578125,41.7535400390625,439.0,-1595.0,-2554.0,0.93316650390625,0.0408935546875,-0.01214599609375,0.35687255859375,3.883916124442848,-2.971684072207062,37.25479830883351,0.9464724226983953,0.040378714508693424,-0.013737182200424112,0.31995437535881277,1,	00:29:09.292,0.04248046875,-0.00927734375,1.00634765625,-1.03759765625,-1.40380859375,-0.48828125,-0.54931640625,-2.39501953125,-156.3519287109375,-445.0,-1126.0,-2000.0,0.20477294921875,-0.021453857421875,0.000396728515625,-0.97857666015625,-0.5495233425777425,-2.3957332827862734,-155.8209349077263,0.20929372154520973,-0.021445458302357796,0.00030976433958475227,-0.9776175809006362,1
1782117256.522496,0.259,1023.0,1024.0,1024.0,1023.0,1023.0,1024.0,1023.0,1023.0,1023.0,1023.0,1024.0,1024.0,1023.0,1024.0,1024.0,1024.0,1023.0,1024.0,1024.0,1023.0,1024.0,1024.0,1024.0,1024.0,1023.0,1023.0,1024.0,1024.0,1024.0,1023.0,1024.0,1023.0,1022.0,1022.0,1023.0,1023.0,1024.0,1023.0,1024.0,1024.0,1022.0,1022.0,1023.0,1024.0,1023.0,1024.0,1024.0,1023.0,1024.0,1023.0,1022.0,1023.0,1024.0,1024.0,1024.0,1024.0,1024.0,1023.0,1024.0,1023.0,1022.0,1024.0,1023.0,1024.0,1023.0,1024.0,1024.0,1024.0,1024.0,1022.0,1022.0,1023.0,1023.0,1024.0,1024.0,1024.0,1024.0,1024.0,1024.0,1023.0,1022.0,1023.0,1023.0,1024.0,1024.0,1024.0,1024.0,1024.0,1024.0,1024.0,1022.0,1024.0,1022.0,1024.0,1023.0,1024.0,1024.0,1024.0,1024.0,1022.0,1023.0,1023.0,1022.0,1024.0,1024.0,1024.0,1024.0,1023.0,1024.0,1023.0,1023.0,1023.0,1022.0,1024.0,1022.0,1023.0,1024.0,1023.0,1023.0,1021.0,1022.0,1023.0,1024.0,1023.0,1024.0,1023.0,1023.0,1024.0,1023.0,1023.0,1024.0,1023.0,1024.0,1024.0,1023.0,1023.0,1024.0,1024.0,1024.0,1024.0,1025.0,1024.0,1024.0,1023.0,1025.0,1024.0,1024.0,1024.0,1023.0,1024.0,1024.0,1025.0,1024.0,1025.0,1025.0,1024.0,1024.0,1026.0,1025.0,1028.0,1028.0,1025.0,1026.0,1031.0,1028.0,1031.0,1030.0,1025.0,1029.0,1039.0,1033.0,1036.0,1033.0,1027.0,1035.0,1050.0,1045.0,1039.0,1042.0,1029.0,1040.0,1057.0,1043.0,1037.0,1044.0,1031.0,1051.0,1063.0,1048.0,1039.0,1049.0,1034.0,1049.0,1058.0,1050.0,1038.0,1051.0,1035.0,1043.0,1049.0,1044.0,1033.0,1047.0,1033.0,1043.0,1052.0,1048.0,1033.0,1046.0,1034.0,1023.0,1024.0,1023.0,1022.0,1024.0,1022.0,1037.0,1047.0,1044.0,1034.0,1048.0,1036.0,1030.0,1035.0,1035.0,1029.0,1038.0,1031.0,1025.0,1025.0,1026.0,1024.0,1027.0,2072,1984,1909,	00:29:09.301,0.05224609375,0.06689453125,1.017578125,-0.18310546875,0.1220703125,0.06103515625,3.7957763671875,-2.9443359375,41.759033203125,439.0,-1594.0,-2554.0,0.933197021484375,0.040069580078125,-0.012176513671875,0.356903076171875,3.794809003233042,-2.9429252685964307,37.25999132181371,0.9464978222755341,0.039563453965287425,-0.013746503569419099,0.3199806856321547,1,	00:29:09.302,0.04150390625,-0.0087890625,1.00732421875,-1.03759765625,-1.3427734375,-0.48828125,-0.4833984375,-2.3565673828125,-156.357421875,-447.0,-1128.0,-1998.0,0.2047119140625,-0.02099609375,-6.103515625e-05,-0.978607177734375,-0.4858152112976239,-2.35493093622648,-155.82875883594946,0.20924188403594815,-0.02098102110203587,-0.00015772911508483094,-0.9776387910880628,1
1782117256.533914,0.270,1023.0,1023.0,1023.0,1023.0,1023.0,1024.0,1023.0,1024.0,1023.0,1023.0,1024.0,1024.0,1024.0,1024.0,1024.0,1025.0,1023.0,1024.0,1023.0,1024.0,1024.0,1023.0,1024.0,1024.0,1023.0,1024.0,1023.0,1023.0,1024.0,1023.0,1024.0,1023.0,1022.0,1023.0,1024.0,1023.0,1023.0,1024.0,1023.0,1023.0,1023.0,1022.0,1023.0,1024.0,1024.0,1024.0,1024.0,1023.0,1024.0,1023.0,1022.0,1023.0,1023.0,1024.0,1023.0,1024.0,1024.0,1024.0,1024.0,1023.0,1023.0,1023.0,1023.0,1024.0,1023.0,1024.0,1024.0,1023.0,1024.0,1023.0,1022.0,1023.0,1023.0,1024.0,1024.0,1024.0,1024.0,1023.0,1024.0,1024.0,1022.0,1024.0,1024.0,1024.0,1024.0,1024.0,1024.0,1024.0,1024.0,1024.0,1022.0,1023.0,1023.0,1024.0,1023.0,1023.0,1024.0,1024.0,1024.0,1023.0,1022.0,1023.0,1023.0,1024.0,1024.0,1024.0,1024.0,1024.0,1024.0,1023.0,1023.0,1023.0,1022.0,1023.0,1022.0,1023.0,1023.0,1023.0,1023.0,1021.0,1022.0,1023.0,1024.0,1023.0,1023.0,1024.0,1024.0,1024.0,1023.0,1023.0,1024.0,1023.0,1024.0,1024.0,1023.0,1024.0,1024.0,1024.0,1024.0,1024.0,1024.0,1024.0,1024.0,1024.0,1024.0,1024.0,1025.0,1025.0,1024.0,1024.0,1024.0,1025.0,1024.0,1025.0,1025.0,1024.0,1024.0,1026.0,1025.0,1027.0,1027.0,1025.0,1026.0,1031.0,1028.0,1030.0,1030.0,1025.0,1029.0,1039.0,1034.0,1034.0,1034.0,1026.0,1035.0,1049.0,1045.0,1039.0,1043.0,1029.0,1040.0,1056.0,1044.0,1036.0,1045.0,1031.0,1051.0,1063.0,1047.0,1039.0,1049.0,1034.0,1048.0,1058.0,1049.0,1038.0,1050.0,1035.0,1042.0,1049.0,1044.0,1033.0,1046.0,1033.0,1043.0,1052.0,1048.0,1033.0,1046.0,1035.0,1023.0,1023.0,1024.0,1023.0,1024.0,1021.0,1037.0,1047.0,1045.0,1034.0,1048.0,1037.0,1030.0,1034.0,1034.0,1029.0,1038.0,1031.0,1025.0,1025.0,1026.0,1024.0,1027.0,2072,1984,1909,	00:29:09.311,0.05224609375,0.06787109375,1.01708984375,-0.18310546875,0.1220703125,0.06103515625,3.878173828125,-2.911376953125,41.759033203125,439.0,-1596.0,-2554.0,0.933197021484375,0.0406494140625,-0.01165771484375,0.35687255859375,3.8784841914685892,-2.9087419450040044,37.25631513322044,0.946489381656554,0.040159189600701015,-0.013231633882229891,0.31995314308006995,1,	00:29:09.312,0.04052734375,-0.00830078125,1.0068359375,-1.03759765625,-1.3427734375,-0.42724609375,-0.472412109375,-2.2796630859375,-156.3629150390625,-445.0,-1126.0,-2001.0,0.204681396484375,-0.02032470703125,-3.0517578125e-05,-0.978607177734375,-0.4722080357562979,-2.279943278784301,-155.83389049557618,0.20920599932911657,-0.020316441617690136,-0.0001358730215021869,-0.9776605103936759,1
1782117256.542676,0.279,1023.0,1023.0,1023.0,1023.0,1024.0,1023.0,1023.0,1023.0,1024.0,1023.0,1023.0,1024.0,1024.0,1024.0,1024.0,1024.0,1023.0,1024.0,1023.0,1024.0,1024.0,1023.0,1024.0,1023.0,1023.0,1024.0,1024.0,1024.0,1024.0,1024.0,1024.0,1023.0,1023.0,1023.0,1023.0,1023.0,1024.0,1023.0,1023.0,1024.0,1023.0,1023.0,1024.0,1024.0,1024.0,1024.0,1024.0,1023.0,1024.0,1023.0,1023.0,1023.0,1023.0,1024.0,1023.0,1024.0,1024.0,1023.0,1024.0,1024.0,1023.0,1023.0,1023.0,1024.0,1023.0,1024.0,1024.0,1023.0,1024.0,1022.0,1022.0,1024.0,1023.0,1024.0,1024.0,1023.0,1024.0,1024.0,1024.0,1023.0,1023.0,1023.0,1023.0,1024.0,1024.0,1024.0,1024.0,1024.0,1024.0,1023.0,1022.0,1023.0,1023.0,1024.0,1023.0,1024.0,1024.0,1024.0,1024.0,1024.0,1022.0,1023.0,1023.0,1024.0,1023.0,1024.0,1024.0,1024.0,1024.0,1024.0,1022.0,1023.0,1023.0,1023.0,1022.0,1023.0,1023.0,1023.0,1023.0,1021.0,1021.0,1022.0,1024.0,1023.0,1024.0,1024.0,1023.0,1024.0,1023.0,1023.0,1023.0,1024.0,1024.0,1024.0,1023.0,1023.0,1024.0,1024.0,1024.0,1024.0,1024.0,1023.0,1024.0,1024.0,1024.0,1024.0,1024.0,1025.0,1024.0,1024.0,1024.0,1025.0,1024.0,1025.0,1025.0,1024.0,1024.0,1026.0,1025.0,1028.0,1028.0,1025.0,1026.0,1030.0,1028.0,1031.0,1029.0,1025.0,1029.0,1039.0,1034.0,1035.0,1034.0,1026.0,1035.0,1049.0,1044.0,1040.0,1043.0,1029.0,1040.0,1057.0,1044.0,1036.0,1045.0,1031.0,1051.0,1063.0,1047.0,1039.0,1050.0,1034.0,1049.0,1058.0,1049.0,1037.0,1051.0,1035.0,1042.0,1050.0,1045.0,1032.0,1047.0,1033.0,1044.0,1052.0,1047.0,1033.0,1047.0,1034.0,1023.0,1024.0,1023.0,1022.0,1024.0,1021.0,1037.0,1047.0,1045.0,1033.0,1048.0,1037.0,1030.0,1034.0,1034.0,1030.0,1039.0,1030.0,1025.0,1025.0,1026.0,1024.0,1027.0,2072,1984,1910,	00:29:09.322,0.05224609375,0.0673828125,1.01708984375,-0.244140625,0.18310546875,0.1220703125,3.790283203125,-2.933349609375,41.7645263671875,438.0,-1597.0,-2553.0,0.933197021484375,0.03997802734375,-0.012115478515625,0.356903076171875,3.7878996121735966,-2.9324112549250043,37.26214675606522,0.9464973830428286,0.03947742992173118,-0.013678161313260903,0.31999553797348534,1,	00:29:09.323,0.04052734375,-0.00927734375,1.00537109375,-0.9765625,-1.3427734375,-0.48828125,-0.5657958984375,-2.3345947265625,-156.3629150390625,-446.0,-1128.0,-2004.0,0.20465087890625,-0.02093505859375,0.000640869140625,-0.978607177734375,-0.5637421009967095,-2.334544225251831,-155.83536210197505,0.2091728491271954,-0.020949355604224215,0.0005455702820097843,-0.9776541034746628,1
1782117256.553108,0.289,1023.0,1023.0,1022.0,1023.0,1023.0,1024.0,1023.0,1024.0,1023.0,1023.0,1024.0,1024.0,1024.0,1024.0,1024.0,1024.0,1023.0,1024.0,1023.0,1024.0,1024.0,1024.0,1024.0,1023.0,1023.0,1024.0,1023.0,1024.0,1024.0,1024.0,1024.0,1023.0,1023.0,1023.0,1024.0,1023.0,1024.0,1023.0,1023.0,1023.0,1023.0,1022.0,1023.0,1024.0,1024.0,1024.0,1024.0,1023.0,1024.0,1023.0,1023.0,1023.0,1023.0,1024.0,1023.0,1024.0,1024.0,1023.0,1024.0,1024.0,1022.0,1023.0,1023.0,1024.0,1023.0,1024.0,1024.0,1023.0,1024.0,1022.0,1023.0,1023.0,1023.0,1024.0,1024.0,1024.0,1024.0,1023.0,1024.0,1023.0,1022.0,1023.0,1022.0,1024.0,1023.0,1024.0,1024.0,1024.0,1024.0,1023.0,1023.0,1023.0,1023.0,1024.0,1024.0,1024.0,1024.0,1024.0,1024.0,1023.0,1022.0,1023.0,1023.0,1024.0,1023.0,1024.0,1024.0,1024.0,1024.0,1023.0,1022.0,1024.0,1022.0,1023.0,1022.0,1023.0,1023.0,1022.0,1023.0,1021.0,1022.0,1023.0,1024.0,1023.0,1023.0,1023.0,1024.0,1023.0,1023.0,1023.0,1024.0,1023.0,1023.0,1024.0,1024.0,1023.0,1024.0,1024.0,1024.0,1024.0,1024.0,1024.0,1024.0,1024.0,1024.0,1024.0,1024.0,1024.0,1024.0,1024.0,1024.0,1025.0,1024.0,1025.0,1025.0,1024.0,1024.0,1026.0,1025.0,1028.0,1027.0,1025.0,1026.0,1030.0,1028.0,1031.0,1030.0,1026.0,1029.0,1040.0,1034.0,1035.0,1034.0,1027.0,1035.0,1050.0,1045.0,1040.0,1042.0,1029.0,1040.0,1057.0,1044.0,1036.0,1045.0,1031.0,1052.0,1062.0,1047.0,1038.0,1049.0,1035.0,1049.0,1057.0,1049.0,1038.0,1051.0,1035.0,1042.0,1049.0,1044.0,1033.0,1046.0,1033.0,1044.0,1052.0,1048.0,1033.0,1047.0,1034.0,1023.0,1024.0,1024.0,1023.0,1024.0,1022.0,1037.0,1047.0,1045.0,1034.0,1048.0,1036.0,1030.0,1034.0,1035.0,1029.0,1039.0,1031.0,1025.0,1025.0,1026.0,1024.0,1027.0,2072,1984,1909,	00:29:09.332,0.0517578125,0.0673828125,1.0166015625,-0.244140625,0.18310546875,0.1220703125,3.80126953125,-2.8399658203125,41.7645263671875,440.0,-1598.0,-2552.0,0.9332275390625,0.039794921875,-0.011322021484375,0.356903076171875,3.801245102373299,-2.8404368834692324,37.26268711522996,0.9465189170175361,0.03933216033890219,-0.012880587687714025,0.31998282977660647,1,	00:29:09.333,0.041015625,-0.0087890625,1.00537109375,-0.79345703125,-1.28173828125,-0.48828125,-0.4779052734375,-2.35107421875,-156.3739013671875,-446.0,-1129.0,-2000.0,0.20458984375,-0.02093505859375,-9.1552734375e-05,-0.9786376953125,-0.47976234950575175,-2.3496495311885868,-155.84386977484328,0.20911445767325104,-0.020924938112962362,-0.00019695828345413897,-0.9776672500214096,1
1782117256.562353,0.298,1023.0,1024.0,1023.0,1023.0,1023.0,1024.0,1023.0,1024.0,1024.0,1024.0,1024.0,1024.0,1024.0,1024.0,1024.0,1025.0,1023.0,1024.0,1023.0,1024.0,1024.0,1024.0,1024.0,1023.0,1022.0,1024.0,1024.0,1024.0,1024.0,1023.0,1024.0,1023.0,1023.0,1023.0,1024.0,1023.0,1023.0,1024.0,1023.0,1024.0,1022.0,1023.0,1024.0,1024.0,1024.0,1024.0,1024.0,1024.0,1024.0,1024.0,1022.0,1023.0,1023.0,1024.0,1023.0,1024.0,1024.0,1024.0,1024.0,1023.0,1022.0,1023.0,1023.0,1023.0,1023.0,1024.0,1024.0,1023.0,1024.0,1023.0,1022.0,1023.0,1023.0,1024.0,1024.0,1024.0,1024.0,1024.0,1024.0,1023.0,1022.0,1023.0,1023.0,1024.0,1024.0,1024.0,1024.0,1024.0,1024.0,1024.0,1023.0,1023.0,1023.0,1024.0,1023.0,1024.0,1024.0,1024.0,1024.0,1023.0,1022.0,1023.0,1023.0,1024.0,1023.0,1024.0,1024.0,1024.0,1024.0,1023.0,1022.0,1023.0,1022.0,1023.0,1023.0,1023.0,1024.0,1023.0,1023.0,1021.0,1022.0,1023.0,1024.0,1023.0,1023.0,1024.0,1023.0,1024.0,1023.0,1023.0,1024.0,1023.0,1023.0,1023.0,1023.0,1024.0,1023.0,1024.0,1024.0,1024.0,1025.0,1024.0,1025.0,1023.0,1024.0,1023.0,1024.0,1024.0,1024.0,1024.0,1023.0,1025.0,1024.0,1025.0,1025.0,1024.0,1025.0,1027.0,1026.0,1028.0,1027.0,1025.0,1025.0,1031.0,1028.0,1032.0,1030.0,1026.0,1029.0,1039.0,1033.0,1035.0,1034.0,1026.0,1035.0,1048.0,1045.0,1040.0,1042.0,1029.0,1040.0,1057.0,1044.0,1037.0,1045.0,1031.0,1052.0,1063.0,1047.0,1039.0,1049.0,1034.0,1049.0,1058.0,1050.0,1038.0,1050.0,1036.0,1042.0,1049.0,1045.0,1032.0,1046.0,1033.0,1044.0,1052.0,1048.0,1032.0,1047.0,1034.0,1023.0,1024.0,1024.0,1022.0,1024.0,1022.0,1037.0,1047.0,1045.0,1034.0,1048.0,1037.0,1030.0,1035.0,1035.0,1029.0,1039.0,1030.0,1025.0,1026.0,1026.0,1024.0,1026.0,2072,1984,1909,	00:29:09.342,0.0517578125,0.06787109375,1.017578125,-0.244140625,0.18310546875,0.1220703125,3.8177490234375,-2.9278564453125,41.7645263671875,439.0,-1596.0,-2555.0,0.933197021484375,0.04022216796875,-0.011993408203125,0.35693359375,3.8188927641483055,-2.9279371114426644,37.263015850985276,0.9464856050458255,0.039721095817364806,-0.01355433539926075,0.3200054905466301,1,	00:29:09.343,0.0390625,-0.0087890625,1.00830078125,-0.79345703125,-1.40380859375,-0.54931640625,-0.4998779296875,-2.274169921875,-156.37939453125,-445.0,-1126.0,-2001.0,0.204559326171875,-0.02032470703125,0.000213623046875,-0.9786376953125,-0.5010578510811518,-2.2731393307946806,-155.8487073003777,0.2090749641265996,-0.02031104798809467,0.00012532265460985542,-0.9776886544290665,1
1782117256.575503,0.312,1023.0,1023.0,1023.0,1023.0,1024.0,1024.0,1023.0,1024.0,1023.0,1023.0,1024.0,1024.0,1024.0,1024.0,1024.0,1025.0,1023.0,1024.0,1023.0,1024.0,1023.0,1024.0,1024.0,1024.0,1022.0,1023.0,1024.0,1024.0,1024.0,1024.0,1024.0,1023.0,1023.0,1023.0,1024.0,1023.0,1023.0,1024.0,1024.0,1024.0,1023.0,1023.0,1023.0,1024.0,1024.0,1024.0,1023.0,1024.0,1024.0,1023.0,1023.0,1023.0,1024.0,1024.0,1023.0,1024.0,1024.0,1024.0,1024.0,1023.0,1022.0,1023.0,1023.0,1024.0,1023.0,1024.0,1024.0,1024.0,1024.0,1022.0,1023.0,1024.0,1023.0,1024.0,1023.0,1024.0,1024.0,1024.0,1024.0,1024.0,1023.0,1023.0,1023.0,1024.0,1023.0,1024.0,1024.0,1023.0,1024.0,1023.0,1023.0,1024.0,1023.0,1024.0,1023.0,1024.0,1024.0,1023.0,1024.0,1023.0,1023.0,1023.0,1023.0,1024.0,1023.0,1024.0,1024.0,1024.0,1023.0,1023.0,1023.0,1023.0,1022.0,1023.0,1023.0,1023.0,1023.0,1023.0,1023.0,1021.0,1022.0,1023.0,1024.0,1023.0,1024.0,1024.0,1023.0,1024.0,1022.0,1023.0,1024.0,1023.0,1023.0,1024.0,1023.0,1023.0,1024.0,1024.0,1024.0,1024.0,1025.0,1023.0,1024.0,1024.0,1024.0,1024.0,1025.0,1024.0,1024.0,1024.0,1024.0,1025.0,1024.0,1025.0,1025.0,1024.0,1024.0,1026.0,1025.0,1028.0,1028.0,1026.0,1026.0,1030.0,1028.0,1031.0,1030.0,1026.0,1029.0,1039.0,1034.0,1035.0,1034.0,1027.0,1034.0,1048.0,1045.0,1040.0,1043.0,1029.0,1040.0,1057.0,1044.0,1037.0,1045.0,1031.0,1051.0,1063.0,1047.0,1040.0,1049.0,1034.0,1049.0,1058.0,1049.0,1037.0,1051.0,1035.0,1042.0,1050.0,1045.0,1033.0,1047.0,1034.0,1044.0,1052.0,1048.0,1033.0,1047.0,1034.0,1023.0,1024.0,1023.0,1023.0,1024.0,1022.0,1038.0,1047.0,1045.0,1034.0,1049.0,1036.0,1030.0,1034.0,1035.0,1030.0,1038.0,1030.0,1025.0,1025.0,1026.0,1024.0,1027.0,2072,1984,1909,	00:29:09.352,0.05224609375,0.068359375,1.017578125,-0.18310546875,0.1220703125,0.1220703125,3.9056396484375,-2.9443359375,41.759033203125,438.0,-1595.0,-2553.0,0.93316650390625,0.040985107421875,-0.0118408203125,0.356903076171875,3.906899208213021,-2.943961115210183,37.25971219573268,0.9464591307972277,0.04049211698377497,-0.013442160202755897,0.31999189133759637,1,	00:29:09.353,0.041015625,-0.0087890625,1.00830078125,-0.91552734375,-1.40380859375,-0.48828125,-0.50537109375,-2.3785400390625,-156.3848876953125,-446.0,-1128.0,-2002.0,0.204498291015625,-0.021209716796875,9.1552734375e-05,-0.9786376953125,-0.5073461979707019,-2.3787797411458707,-155.85357117576308,0.20902444666781286,-0.02122379708294251,-1.3025421316326893e-05,-0.9776800759772776,1
1782117256.584212,0.320,1022.0,1024.0,1023.0,1023.0,1023.0,1024.0,1024.0,1024.0,1024.0,1023.0,1024.0,1024.0,1024.0,1024.0,1024.0,1025.0,1023.0,1024.0,1023.0,1024.0,1024.0,1024.0,1024.0,1024.0,1023.0,1024.0,1024.0,1023.0,1023.0,1024.0,1024.0,1023.0,1022.0,1023.0,1023.0,1023.0,1023.0,1023.0,1023.0,1024.0,1023.0,1022.0,1023.0,1023.0,1023.0,1023.0,1024.0,1024.0,1024.0,1024.0,1022.0,1023.0,1023.0,1024.0,1024.0,1024.0,1024.0,1023.0,1024.0,1023.0,1022.0,1023.0,1023.0,1024.0,1023.0,1024.0,1024.0,1023.0,1023.0,1023.0,1022.0,1023.0,1023.0,1024.0,1023.0,1024.0,1024.0,1024.0,1024.0,1023.0,1022.0,1023.0,1024.0,1024.0,1024.0,1024.0,1024.0,1024.0,1024.0,1024.0,1022.0,1024.0,1023.0,1024.0,1024.0,1024.0,1024.0,1024.0,1024.0,1023.0,1022.0,1023.0,1023.0,1024.0,1023.0,1024.0,1024.0,1024.0,1024.0,1023.0,1023.0,1023.0,1022.0,1024.0,1023.0,1023.0,1023.0,1023.0,1023.0,1021.0,1022.0,1023.0,1024.0,1023.0,1024.0,1024.0,1024.0,1023.0,1022.0,1023.0,1024.0,1023.0,1023.0,1024.0,1023.0,1024.0,1024.0,1024.0,1024.0,1024.0,1025.0,1024.0,1025.0,1023.0,1024.0,1024.0,1025.0,1024.0,1024.0,1025.0,1024.0,1025.0,1024.0,1025.0,1025.0,1024.0,1024.0,1026.0,1026.0,1028.0,1028.0,1025.0,1025.0,1030.0,1029.0,1030.0,1030.0,1026.0,1029.0,1039.0,1033.0,1035.0,1034.0,1026.0,1035.0,1049.0,1045.0,1039.0,1043.0,1029.0,1040.0,1057.0,1044.0,1037.0,1045.0,1031.0,1052.0,1063.0,1047.0,1040.0,1049.0,1034.0,1048.0,1058.0,1050.0,1038.0,1051.0,1035.0,1042.0,1049.0,1044.0,1033.0,1047.0,1033.0,1044.0,1053.0,1048.0,1033.0,1047.0,1034.0,1023.0,1023.0,1024.0,1022.0,1024.0,1022.0,1037.0,1047.0,1045.0,1034.0,1047.0,1036.0,1031.0,1034.0,1036.0,1030.0,1038.0,1031.0,1025.0,1026.0,1026.0,1024.0,1027.0,2072,1984,1909,	00:29:09.362,0.05224609375,0.0673828125,1.01708984375,-0.244140625,0.18310546875,0.06103515625,3.812255859375,-2.933349609375,41.7645263671875,439.0,-1596.0,-2552.0,0.933197021484375,0.040191650390625,-0.012054443359375,0.35693359375,3.8131807315370296,-2.9345170262643654,37.265125160812566,0.946479692224193,0.039692449492080915,-0.013623935073811362,0.3200235773402015,1,	00:29:09.364,0.04052734375,-0.01025390625,1.00732421875,-0.91552734375,-1.40380859375,-0.48828125,-0.582275390625,-2.3291015625,-156.3848876953125,-446.0,-1127.0,-2002.0,0.2044677734375,-0.02093505859375,0.000823974609375,-0.9786376953125,-0.5815220076469835,-2.3284123998220143,-155.85565934416385,0.20899691724078048,-0.020929372330675895,0.0007121727691617215,-0.9776920490459361,1
1782117256.593621,0.330,1023.0,1023.0,1023.0,1023.0,1024.0,1024.0,1023.0,1024.0,1024.0,1023.0,1024.0,1024.0,1024.0,1024.0,1024.0,1024.0,1023.0,1024.0,1024.0,1024.0,1024.0,1023.0,1024.0,1023.0,1023.0,1024.0,1024.0,1024.0,1024.0,1024.0,1024.0,1023.0,1022.0,1022.0,1024.0,1024.0,1024.0,1024.0,1023.0,1024.0,1023.0,1023.0,1022.0,1024.0,1023.0,1023.0,1024.0,1024.0,1024.0,1023.0,1023.0,1023.0,1023.0,1024.0,1024.0,1024.0,1024.0,1024.0,1024.0,1023.0,1022.0,1024.0,1022.0,1024.0,1023.0,1024.0,1024.0,1023.0,1024.0,1022.0,1022.0,1023.0,1022.0,1024.0,1024.0,1024.0,1024.0,1024.0,1024.0,1023.0,1022.0,1023.0,1023.0,1024.0,1024.0,1024.0,1023.0,1024.0,1024.0,1024.0,1023.0,1024.0,1023.0,1024.0,1024.0,1024.0,1024.0,1023.0,1024.0,1023.0,1022.0,1024.0,1023.0,1024.0,1024.0,1024.0,1024.0,1024.0,1024.0,1024.0,1022.0,1023.0,1023.0,1023.0,1022.0,1023.0,1023.0,1023.0,1023.0,1021.0,1022.0,1023.0,1024.0,1023.0,1024.0,1024.0,1023.0,1023.0,1023.0,1023.0,1024.0,1023.0,1023.0,1023.0,1023.0,1023.0,1024.0,1025.0,1024.0,1024.0,1024.0,1024.0,1024.0,1023.0,1024.0,1024.0,1024.0,1025.0,1024.0,1024.0,1024.0,1025.0,1024.0,1025.0,1026.0,1024.0,1024.0,1027.0,1026.0,1028.0,1027.0,1025.0,1026.0,1030.0,1028.0,1030.0,1030.0,1026.0,1029.0,1039.0,1034.0,1035.0,1034.0,1026.0,1035.0,1049.0,1045.0,1040.0,1043.0,1029.0,1040.0,1057.0,1044.0,1037.0,1044.0,1031.0,1052.0,1063.0,1047.0,1040.0,1050.0,1035.0,1049.0,1058.0,1050.0,1037.0,1051.0,1035.0,1042.0,1049.0,1045.0,1033.0,1047.0,1033.0,1043.0,1052.0,1048.0,1033.0,1047.0,1034.0,1023.0,1023.0,1024.0,1023.0,1024.0,1022.0,1037.0,1047.0,1046.0,1034.0,1048.0,1036.0,1030.0,1034.0,1035.0,1030.0,1039.0,1031.0,1025.0,1025.0,1026.0,1024.0,1027.0,2072,1984,1910,	00:29:09.373,0.052734375,0.06787109375,1.017578125,-0.1220703125,0.18310546875,0.1220703125,3.8232421875,-3.021240234375,41.7645263671875,439.0,-1594.0,-2554.0,0.93316650390625,0.04052734375,-0.01275634765625,0.356964111328125,3.8215835246092538,-3.023774097058181,37.26596390974898,0.9464469654548396,0.04000995746954998,-0.014337821028654265,0.3200496395448068,1,	00:29:09.374,0.04150390625,-0.00927734375,1.00830078125,-0.9765625,-1.40380859375,-0.42724609375,-0.5108642578125,-2.384033203125,-156.390380859375,-446.0,-1129.0,-1999.0,0.20440673828125,-0.021270751953125,9.1552734375e-05,-0.9786376953125,-0.5099250041159467,-2.385175192421929,-155.863126641428,0.2089419569368848,-0.021283064141199792,-9.245385145144351e-07,-0.977696420066726,1
1782117256.604634,0.341,1023.0,1023.0,1023.0,1023.0,1023.0,1023.0,1023.0,1024.0,1023.0,1023.0,1024.0,1024.0,1024.0,1024.0,1024.0,1025.0,1023.0,1024.0,1024.0,1023.0,1024.0,1023.0,1024.0,1024.0,1023.0,1024.0,1023.0,1023.0,1024.0,1023.0,1024.0,1023.0,1022.0,1023.0,1023.0,1023.0,1024.0,1024.0,1023.0,1024.0,1023.0,1022.0,1023.0,1024.0,1024.0,1023.0,1024.0,1023.0,1024.0,1024.0,1022.0,1023.0,1022.0,1024.0,1023.0,1024.0,1024.0,1023.0,1024.0,1024.0,1022.0,1023.0,1023.0,1024.0,1023.0,1024.0,1024.0,1024.0,1024.0,1023.0,1023.0,1023.0,1023.0,1023.0,1024.0,1023.0,1024.0,1024.0,1024.0,1023.0,1023.0,1024.0,1023.0,1024.0,1024.0,1024.0,1024.0,1023.0,1024.0,1024.0,1023.0,1023.0,1023.0,1024.0,1024.0,1024.0,1024.0,1023.0,1024.0,1023.0,1022.0,1023.0,1023.0,1024.0,1024.0,1024.0,1024.0,1024.0,1024.0,1023.0,1022.0,1023.0,1023.0,1024.0,1023.0,1024.0,1024.0,1023.0,1023.0,1021.0,1022.0,1023.0,1024.0,1023.0,1023.0,1023.0,1024.0,1023.0,1023.0,1023.0,1024.0,1024.0,1024.0,1024.0,1023.0,1024.0,1023.0,1024.0,1024.0,1025.0,1024.0,1024.0,1024.0,1024.0,1024.0,1024.0,1024.0,1025.0,1024.0,1024.0,1024.0,1025.0,1024.0,1025.0,1026.0,1024.0,1024.0,1026.0,1025.0,1027.0,1028.0,1025.0,1026.0,1030.0,1028.0,1031.0,1030.0,1026.0,1029.0,1038.0,1034.0,1035.0,1034.0,1027.0,1035.0,1048.0,1045.0,1040.0,1043.0,1029.0,1040.0,1057.0,1044.0,1038.0,1045.0,1031.0,1051.0,1063.0,1048.0,1040.0,1050.0,1035.0,1049.0,1057.0,1049.0,1038.0,1051.0,1036.0,1042.0,1049.0,1045.0,1033.0,1047.0,1034.0,1044.0,1053.0,1048.0,1033.0,1047.0,1035.0,1023.0,1024.0,1024.0,1023.0,1024.0,1021.0,1037.0,1047.0,1045.0,1034.0,1048.0,1037.0,1030.0,1034.0,1034.0,1029.0,1039.0,1030.0,1025.0,1025.0,1026.0,1024.0,1027.0,2072,1984,1909,	00:29:09.383,0.05224609375,0.06689453125,1.017578125,-0.18310546875,0.18310546875,0.1220703125,3.768310546875,-2.9443359375,41.77001953125,438.0,-1597.0,-2551.0,0.933197021484375,0.039886474609375,-0.012298583984375,0.356964111328125,3.7690716482376656,-2.945895352763873,37.269939943440235,0.9464779980469524,0.03936032243959947,-0.013839500368401564,0.32006035752657175,1,	00:29:09.384,0.041015625,-0.01025390625,1.0068359375,-0.9765625,-1.46484375,-0.48828125,-0.59326171875,-2.3455810546875,-156.3958740234375,-444.0,-1130.0,-1997.0,0.20440673828125,-0.0211181640625,0.000885009765625,-0.978668212890625,-0.5941400692478117,-2.3465843377913584,-155.86480480897717,0.20891510175310876,-0.0211073579198242,0.0007883392225049049,-0.9777056500922979,1
1782117256.613754,0.350,1023.0,1024.0,1023.0,1023.0,1023.0,1024.0,1023.0,1024.0,1023.0,1023.0,1024.0,1024.0,1024.0,1024.0,1024.0,1025.0,1023.0,1024.0,1024.0,1024.0,1023.0,1024.0,1024.0,1023.0,1023.0,1024.0,1023.0,1023.0,1024.0,1023.0,1024.0,1023.0,1022.0,1023.0,1023.0,1023.0,1024.0,1024.0,1023.0,1024.0,1023.0,1022.0,1023.0,1024.0,1024.0,1023.0,1024.0,1023.0,1024.0,1023.0,1022.0,1023.0,1023.0,1024.0,1023.0,1024.0,1023.0,1023.0,1024.0,1024.0,1023.0,1023.0,1022.0,1023.0,1023.0,1024.0,1024.0,1023.0,1024.0,1022.0,1022.0,1023.0,1022.0,1024.0,1024.0,1024.0,1024.0,1023.0,1024.0,1023.0,1022.0,1023.0,1023.0,1024.0,1024.0,1024.0,1024.0,1024.0,1024.0,1023.0,1022.0,1023.0,1023.0,1024.0,1024.0,1024.0,1024.0,1023.0,1024.0,1023.0,1022.0,1023.0,1023.0,1024.0,1023.0,1024.0,1024.0,1024.0,1024.0,1023.0,1023.0,1023.0,1022.0,1023.0,1023.0,1023.0,1023.0,1023.0,1023.0,1021.0,1022.0,1023.0,1024.0,1023.0,1023.0,1024.0,1023.0,1024.0,1022.0,1023.0,1024.0,1023.0,1024.0,1024.0,1023.0,1024.0,1023.0,1024.0,1024.0,1024.0,1025.0,1024.0,1024.0,1023.0,1024.0,1024.0,1024.0,1025.0,1024.0,1024.0,1024.0,1025.0,1024.0,1025.0,1026.0,1024.0,1024.0,1027.0,1025.0,1028.0,1028.0,1026.0,1026.0,1031.0,1028.0,1031.0,1030.0,1026.0,1029.0,1039.0,1034.0,1035.0,1034.0,1026.0,1035.0,1049.0,1045.0,1039.0,1043.0,1028.0,1040.0,1057.0,1044.0,1037.0,1044.0,1031.0,1052.0,1063.0,1047.0,1040.0,1050.0,1034.0,1048.0,1058.0,1050.0,1037.0,1051.0,1035.0,1042.0,1049.0,1045.0,1033.0,1047.0,1033.0,1043.0,1052.0,1048.0,1034.0,1047.0,1034.0,1023.0,1024.0,1024.0,1023.0,1024.0,1022.0,1038.0,1047.0,1045.0,1034.0,1048.0,1037.0,1030.0,1034.0,1035.0,1029.0,1039.0,1031.0,1025.0,1025.0,1026.0,1024.0,1028.0,2072,1984,1909,	00:29:09.393,0.05224609375,0.06787109375,1.01708984375,-0.18310546875,0.18310546875,0.06103515625,3.856201171875,-2.92236328125,41.7645263671875,440.0,-1597.0,-2552.0,0.93316650390625,0.040496826171875,-0.011810302734375,0.35693359375,3.8562758834284008,-2.922483087798124,37.26611035818588,0.9464656163969644,0.04001507348822104,-0.01340378509987526,0.32003432537314275,1,	00:29:09.394,0.0400390625,-0.00830078125,1.0078125,-0.9765625,-1.46484375,-0.54931640625,-0.5218505859375,-2.3126220703125,-156.4013671875,-448.0,-1130.0,-2000.0,0.204345703125,-0.020721435546875,0.000335693359375,-0.978668212890625,-0.5245609647227276,-2.3149585030817716,-155.87337095567227,0.20885720002312694,-0.020710658912137806,0.0002539441016278676,-0.9777267890971986,1
1782117256.625209,0.361,1023.0,1023.0,1023.0,1023.0,1023.0,1023.0,1024.0,1023.0,1023.0,1023.0,1024.0,1024.0,1024.0,1024.0,1023.0,1025.0,1023.0,1024.0,1023.0,1024.0,1024.0,1024.0,1024.0,1024.0,1023.0,1024.0,1023.0,1023.0,1024.0,1023.0,1024.0,1024.0,1022.0,1023.0,1024.0,1023.0,1024.0,1024.0,1023.0,1023.0,1023.0,1023.0,1023.0,1023.0,1023.0,1023.0,1024.0,1023.0,1024.0,1023.0,1023.0,1023.0,1023.0,1024.0,1023.0,1024.0,1024.0,1023.0,1024.0,1023.0,1022.0,1024.0,1023.0,1024.0,1023.0,1023.0,1024.0,1023.0,1024.0,1022.0,1023.0,1023.0,1023.0,1024.0,1023.0,1024.0,1024.0,1024.0,1024.0,1023.0,1023.0,1024.0,1023.0,1024.0,1024.0,1024.0,1025.0,1024.0,1024.0,1023.0,1023.0,1023.0,1023.0,1024.0,1024.0,1024.0,1024.0,1023.0,1024.0,1023.0,1023.0,1023.0,1023.0,1024.0,1023.0,1024.0,1024.0,1023.0,1024.0,1023.0,1023.0,1023.0,1023.0,1023.0,1022.0,1023.0,1023.0,1023.0,1023.0,1021.0,1022.0,1023.0,1024.0,1023.0,1023.0,1024.0,1024.0,1024.0,1022.0,1023.0,1024.0,1023.0,1024.0,1023.0,1023.0,1023.0,1023.0,1024.0,1024.0,1024.0,1024.0,1024.0,1024.0,1024.0,1025.0,1024.0,1025.0,1025.0,1024.0,1024.0,1023.0,1025.0,1024.0,1025.0,1025.0,1024.0,1024.0,1026.0,1025.0,1028.0,1028.0,1025.0,1026.0,1031.0,1028.0,1031.0,1030.0,1026.0,1029.0,1039.0,1034.0,1035.0,1033.0,1027.0,1035.0,1049.0,1045.0,1040.0,1043.0,1029.0,1040.0,1057.0,1044.0,1037.0,1044.0,1031.0,1052.0,1063.0,1047.0,1039.0,1049.0,1034.0,1049.0,1058.0,1050.0,1037.0,1051.0,1035.0,1042.0,1049.0,1044.0,1033.0,1047.0,1033.0,1043.0,1052.0,1048.0,1034.0,1047.0,1034.0,1023.0,1024.0,1023.0,1023.0,1024.0,1021.0,1038.0,1047.0,1045.0,1034.0,1049.0,1036.0,1031.0,1034.0,1035.0,1030.0,1039.0,1031.0,1025.0,1026.0,1026.0,1024.0,1027.0,2072,1984,1910,	00:29:09.403,0.0517578125,0.0673828125,1.01708984375,-0.18310546875,0.18310546875,0.1220703125,3.7628173828125,-2.900390625,41.77001953125,440.0,-1596.0,-2550.0,0.933197021484375,0.039703369140625,-0.01190185546875,0.35699462890625,3.7653417017641315,-2.8995606640778204,37.271974518631254,0.9464876055001892,0.039200982561362584,-0.01346629742184303,0.32006742170125424,1,	00:29:09.404,0.04150390625,-0.009765625,1.0068359375,-0.9765625,-1.40380859375,-0.48828125,-0.5877685546875,-2.406005859375,-156.4068603515625,-446.0,-1130.0,-1997.0,0.20428466796875,-0.021575927734375,0.000701904296875,-0.978668212890625,-0.5859362468214233,-2.4046190027186434,-155.87598836962343,0.2088164664689498,-0.021587473564977873,0.0006145410965038555,-0.9777163630909241,1
1782117256.635638,0.372,1023.0,1023.0,1023.0,1023.0,1024.0,1024.0,1023.0,1023.0,1023.0,1024.0,1024.0,1024.0,1024.0,1024.0,1024.0,1024.0,1023.0,1024.0,1023.0,1023.0,1024.0,1023.0,1024.0,1024.0,1023.0,1024.0,1023.0,1024.0,1024.0,1023.0,1024.0,1023.0,1023.0,1023.0,1023.0,1023.0,1023.0,1024.0,1023.0,1024.0,1023.0,1022.0,1023.0,1024.0,1023.0,1024.0,1024.0,1023.0,1024.0,1023.0,1023.0,1023.0,1023.0,1024.0,1024.0,1024.0,1024.0,1023.0,1024.0,1024.0,1023.0,1023.0,1022.0,1024.0,1024.0,1023.0,1024.0,1023.0,1024.0,1023.0,1022.0,1024.0,1023.0,1024.0,1023.0,1024.0,1024.0,1023.0,1024.0,1023.0,1022.0,1023.0,1023.0,1024.0,1024.0,1024.0,1024.0,1024.0,1024.0,1024.0,1022.0,1023.0,1023.0,1024.0,1023.0,1024.0,1024.0,1023.0,1024.0,1024.0,1022.0,1023.0,1023.0,1024.0,1023.0,1024.0,1024.0,1023.0,1024.0,1023.0,1023.0,1023.0,1023.0,1023.0,1022.0,1023.0,1023.0,1023.0,1023.0,1021.0,1022.0,1023.0,1024.0,1023.0,1024.0,1024.0,1023.0,1023.0,1023.0,1023.0,1024.0,1023.0,1024.0,1024.0,1023.0,1024.0,1023.0,1025.0,1024.0,1025.0,1025.0,1024.0,1025.0,1023.0,1025.0,1024.0,1025.0,1025.0,1024.0,1025.0,1024.0,1025.0,1024.0,1025.0,1025.0,1024.0,1024.0,1026.0,1025.0,1028.0,1027.0,1025.0,1026.0,1030.0,1028.0,1031.0,1030.0,1026.0,1029.0,1039.0,1034.0,1035.0,1034.0,1027.0,1035.0,1050.0,1045.0,1039.0,1043.0,1029.0,1040.0,1057.0,1045.0,1037.0,1045.0,1031.0,1051.0,1064.0,1048.0,1039.0,1050.0,1035.0,1049.0,1058.0,1050.0,1038.0,1051.0,1035.0,1042.0,1050.0,1044.0,1032.0,1046.0,1034.0,1043.0,1053.0,1048.0,1033.0,1047.0,1034.0,1023.0,1024.0,1023.0,1023.0,1024.0,1022.0,1037.0,1047.0,1045.0,1034.0,1048.0,1037.0,1031.0,1034.0,1035.0,1030.0,1039.0,1030.0,1025.0,1025.0,1026.0,1024.0,1028.0,2072,1984,1910,	00:29:09.414,0.052734375,0.06787109375,1.01708984375,-0.18310546875,0.18310546875,0.06103515625,3.8232421875,-2.96630859375,41.77001953125,439.0,-1595.0,-2553.0,0.93316650390625,0.040374755859375,-0.012298583984375,0.35699462890625,3.8225320285685984,-2.9675553075037566,37.26968331914346,0.9464536169991444,0.03986203811149159,-0.013869272358382916,0.3200690739060614,1,	00:29:09.415,0.041015625,-0.00927734375,1.0068359375,-1.03759765625,-1.40380859375,-0.48828125,-0.538330078125,-2.3455810546875,-156.412353515625,-445.0,-1130.0,-2002.0,0.204254150390625,-0.02099609375,0.00042724609375,-0.97869873046875,-0.5385954388668575,-2.3473689638448567,-155.8831213035708,0.20876896685716528,-0.021012734391506412,0.0003163541676337666,-0.9777391694060459,1
1782117256.646079,0.382,1023.0,1023.0,1023.0,1023.0,1024.0,1023.0,1023.0,1024.0,1023.0,1023.0,1024.0,1024.0,1024.0,1024.0,1024.0,1025.0,1023.0,1023.0,1024.0,1024.0,1024.0,1023.0,1024.0,1024.0,1023.0,1024.0,1023.0,1024.0,1023.0,1023.0,1024.0,1023.0,1022.0,1023.0,1023.0,1023.0,1024.0,1024.0,1023.0,1024.0,1022.0,1022.0,1023.0,1024.0,1024.0,1024.0,1024.0,1023.0,1024.0,1023.0,1023.0,1023.0,1023.0,1024.0,1023.0,1024.0,1024.0,1024.0,1024.0,1023.0,1023.0,1023.0,1023.0,1024.0,1024.0,1024.0,1024.0,1023.0,1024.0,1023.0,1022.0,1023.0,1023.0,1024.0,1023.0,1024.0,1024.0,1023.0,1024.0,1024.0,1023.0,1024.0,1023.0,1024.0,1023.0,1024.0,1024.0,1024.0,1024.0,1024.0,1023.0,1023.0,1023.0,1024.0,1023.0,1023.0,1024.0,1023.0,1024.0,1023.0,1023.0,1023.0,1023.0,1024.0,1024.0,1024.0,1024.0,1023.0,1024.0,1023.0,1023.0,1023.0,1023.0,1023.0,1023.0,1023.0,1023.0,1023.0,1023.0,1021.0,1022.0,1023.0,1024.0,1023.0,1024.0,1024.0,1023.0,1023.0,1023.0,1023.0,1024.0,1024.0,1023.0,1023.0,1023.0,1024.0,1024.0,1024.0,1024.0,1024.0,1024.0,1024.0,1024.0,1024.0,1024.0,1024.0,1024.0,1024.0,1024.0,1025.0,1024.0,1025.0,1024.0,1025.0,1025.0,1024.0,1024.0,1026.0,1025.0,1028.0,1027.0,1025.0,1025.0,1030.0,1028.0,1031.0,1030.0,1026.0,1029.0,1040.0,1034.0,1034.0,1034.0,1027.0,1035.0,1050.0,1045.0,1039.0,1043.0,1029.0,1040.0,1058.0,1043.0,1037.0,1045.0,1031.0,1051.0,1064.0,1048.0,1040.0,1050.0,1034.0,1049.0,1058.0,1049.0,1037.0,1051.0,1036.0,1042.0,1050.0,1045.0,1032.0,1047.0,1033.0,1043.0,1052.0,1048.0,1033.0,1047.0,1035.0,1023.0,1023.0,1023.0,1023.0,1024.0,1022.0,1038.0,1047.0,1044.0,1034.0,1049.0,1037.0,1030.0,1034.0,1035.0,1029.0,1039.0,1031.0,1025.0,1025.0,1026.0,1024.0,1028.0,2072,1984,1909,	00:29:09.424,0.05224609375,0.0673828125,1.017578125,-0.1220703125,0.18310546875,0.06103515625,3.75732421875,-2.900390625,41.7755126953125,439.0,-1594.0,-2554.0,0.933197021484375,0.039642333984375,-0.011962890625,0.35699462890625,3.757362609047515,-2.9004009618884843,37.27368596103738,0.9464852999193132,0.03913761492059599,-0.013494943872548643,0.32008078765344805,1,	00:29:09.425,0.04150390625,-0.009765625,1.0068359375,-1.0986328125,-1.40380859375,-0.42724609375,-0.6207275390625,-2.4169921875,-156.412353515625,-446.0,-1131.0,-2000.0,0.2042236328125,-0.021759033203125,0.001007080078125,-0.97869873046875,-0.6223413351181256,-2.4169915459423335,-155.88422710770482,0.20873825496046067,-0.021759306862914368,0.0009041510135326596,-0.9777290299422697,1
1782117256.654814,0.391,1023.0,1023.0,1023.0,1023.0,1023.0,1024.0,1023.0,1024.0,1024.0,1023.0,1024.0,1024.0,1024.0,1024.0,1024.0,1025.0,1023.0,1024.0,1024.0,1024.0,1024.0,1024.0,1024.0,1024.0,1023.0,1024.0,1023.0,1024.0,1024.0,1023.0,1024.0,1023.0,1022.0,1023.0,1023.0,1023.0,1023.0,1024.0,1023.0,1023.0,1022.0,1023.0,1023.0,1024.0,1024.0,1024.0,1024.0,1024.0,1024.0,1024.0,1022.0,1023.0,1023.0,1024.0,1023.0,1024.0,1024.0,1024.0,1024.0,1024.0,1023.0,1023.0,1023.0,1023.0,1023.0,1024.0,1024.0,1023.0,1024.0,1022.0,1022.0,1023.0,1023.0,1024.0,1024.0,1024.0,1024.0,1024.0,1024.0,1023.0,1022.0,1023.0,1023.0,1024.0,1024.0,1024.0,1024.0,1023.0,1024.0,1023.0,1023.0,1023.0,1023.0,1024.0,1024.0,1024.0,1024.0,1024.0,1024.0,1023.0,1022.0,1023.0,1023.0,1024.0,1024.0,1024.0,1024.0,1023.0,1024.0,1023.0,1023.0,1024.0,1023.0,1023.0,1022.0,1024.0,1023.0,1023.0,1023.0,1021.0,1022.0,1023.0,1024.0,1023.0,1024.0,1024.0,1023.0,1024.0,1023.0,1023.0,1024.0,1023.0,1024.0,1024.0,1023.0,1023.0,1023.0,1024.0,1024.0,1024.0,1025.0,1023.0,1024.0,1024.0,1024.0,1024.0,1025.0,1025.0,1024.0,1024.0,1024.0,1025.0,1024.0,1025.0,1025.0,1024.0,1024.0,1026.0,1025.0,1028.0,1028.0,1025.0,1025.0,1031.0,1028.0,1031.0,1029.0,1026.0,1029.0,1039.0,1034.0,1035.0,1034.0,1027.0,1035.0,1049.0,1045.0,1040.0,1043.0,1029.0,1040.0,1058.0,1044.0,1037.0,1045.0,1030.0,1051.0,1064.0,1047.0,1040.0,1051.0,1034.0,1049.0,1058.0,1049.0,1037.0,1052.0,1035.0,1042.0,1049.0,1045.0,1033.0,1047.0,1033.0,1044.0,1053.0,1048.0,1033.0,1047.0,1034.0,1023.0,1023.0,1023.0,1022.0,1024.0,1022.0,1037.0,1047.0,1045.0,1034.0,1048.0,1037.0,1030.0,1034.0,1035.0,1029.0,1039.0,1031.0,1025.0,1026.0,1026.0,1024.0,1027.0,2072,1984,1909,	00:29:09.434,0.05322265625,0.068359375,1.01708984375,-0.06103515625,0.1220703125,0.06103515625,3.8232421875,-2.96630859375,41.77001953125,439.0,-1594.0,-2553.0,0.93316650390625,0.04034423828125,-0.01226806640625,0.35699462890625,3.8211448573637234,-2.964082250086661,37.27108040810798,0.9464512627384691,0.039841098614680645,-0.013843959174375564,0.3200797383720359,1,	00:29:09.435,0.041015625,-0.0107421875,1.00732421875,-1.15966796875,-1.40380859375,-0.48828125,-0.6207275390625,-2.340087890625,-156.4178466796875,-446.0,-1128.0,-2000.0,0.204193115234375,-0.021087646484375,0.001129150390625,-0.97869873046875,-0.6216773349899481,-2.3402881369790713,-155.8894697397165,0.2087001013266509,-0.021103620829903875,0.0010393225148538263,-0.9777514125291885,1
1782117256.665947,0.402,1023.0,1023.0,1023.0,1023.0,1023.0,1023.0,1023.0,1024.0,1024.0,1023.0,1024.0,1024.0,1024.0,1024.0,1024.0,1024.0,1023.0,1024.0,1024.0,1023.0,1024.0,1023.0,1024.0,1023.0,1023.0,1024.0,1024.0,1024.0,1023.0,1024.0,1024.0,1023.0,1022.0,1023.0,1024.0,1023.0,1023.0,1024.0,1024.0,1024.0,1023.0,1022.0,1023.0,1024.0,1023.0,1024.0,1024.0,1023.0,1024.0,1024.0,1022.0,1023.0,1023.0,1024.0,1024.0,1024.0,1024.0,1023.0,1024.0,1024.0,1023.0,1023.0,1023.0,1024.0,1023.0,1024.0,1023.0,1023.0,1024.0,1023.0,1022.0,1023.0,1023.0,1024.0,1024.0,1024.0,1024.0,1023.0,1023.0,1023.0,1023.0,1024.0,1023.0,1024.0,1024.0,1024.0,1024.0,1023.0,1024.0,1024.0,1022.0,1023.0,1023.0,1024.0,1023.0,1024.0,1024.0,1023.0,1024.0,1023.0,1022.0,1023.0,1023.0,1024.0,1024.0,1024.0,1024.0,1023.0,1024.0,1023.0,1022.0,1023.0,1023.0,1023.0,1022.0,1023.0,1023.0,1023.0,1023.0,1021.0,1022.0,1023.0,1024.0,1023.0,1024.0,1024.0,1023.0,1023.0,1023.0,1023.0,1023.0,1023.0,1023.0,1024.0,1023.0,1023.0,1023.0,1025.0,1024.0,1024.0,1024.0,1024.0,1024.0,1023.0,1024.0,1024.0,1024.0,1025.0,1024.0,1024.0,1023.0,1025.0,1024.0,1025.0,1025.0,1024.0,1024.0,1026.0,1026.0,1028.0,1028.0,1025.0,1026.0,1031.0,1028.0,1032.0,1031.0,1026.0,1029.0,1039.0,1034.0,1035.0,1034.0,1027.0,1035.0,1049.0,1045.0,1039.0,1043.0,1029.0,1040.0,1057.0,1044.0,1037.0,1045.0,1031.0,1051.0,1064.0,1047.0,1040.0,1050.0,1034.0,1049.0,1058.0,1049.0,1037.0,1051.0,1035.0,1042.0,1050.0,1045.0,1033.0,1046.0,1033.0,1044.0,1053.0,1048.0,1033.0,1047.0,1034.0,1023.0,1024.0,1023.0,1023.0,1024.0,1021.0,1037.0,1047.0,1045.0,1034.0,1048.0,1037.0,1031.0,1034.0,1034.0,1030.0,1038.0,1030.0,1025.0,1025.0,1026.0,1024.0,1028.0,2072,1984,1909,	00:29:09.445,0.0517578125,0.06787109375,1.01708984375,-0.06103515625,0.18310546875,0.1220703125,3.8177490234375,-2.8729248046875,41.7755126953125,441.0,-1596.0,-2552.0,0.93316650390625,0.040008544921875,-0.01153564453125,0.35699462890625,3.8150215068273656,-2.8709615194877527,37.27269879545219,0.946477102791764,0.03953191496921596,-0.013090935120522776,0.3200733494176696,1,	00:29:09.446,0.04150390625,-0.0087890625,1.00732421875,-1.220703125,-1.40380859375,-0.42724609375,-0.5438232421875,-2.3675537109375,-156.4288330078125,-445.0,-1126.0,-2003.0,0.204132080078125,-0.021209716796875,0.00042724609375,-0.978729248046875,-0.5430628725624614,-2.3685113068578345,-155.89731420019314,0.20864539914551408,-0.02120122083356092,0.00031854481200698767,-0.9777614761176564,1
1782117256.676384,0.412,1024.0,1023.0,1023.0,1023.0,1024.0,1024.0,1023.0,1024.0,1023.0,1023.0,1024.0,1024.0,1024.0,1024.0,1024.0,1025.0,1023.0,1024.0,1023.0,1024.0,1024.0,1023.0,1024.0,1024.0,1023.0,1024.0,1023.0,1024.0,1023.0,1023.0,1024.0,1024.0,1023.0,1023.0,1024.0,1023.0,1023.0,1023.0,1023.0,1023.0,1022.0,1022.0,1023.0,1024.0,1024.0,1023.0,1024.0,1023.0,1024.0,1024.0,1022.0,1023.0,1023.0,1024.0,1024.0,1024.0,1024.0,1024.0,1024.0,1023.0,1022.0,1023.0,1023.0,1024.0,1022.0,1024.0,1024.0,1023.0,1024.0,1022.0,1022.0,1023.0,1023.0,1024.0,1024.0,1024.0,1024.0,1024.0,1024.0,1024.0,1022.0,1023.0,1023.0,1024.0,1024.0,1024.0,1025.0,1023.0,1024.0,1024.0,1022.0,1023.0,1023.0,1024.0,1024.0,1024.0,1024.0,1024.0,1024.0,1023.0,1023.0,1023.0,1023.0,1024.0,1023.0,1024.0,1024.0,1024.0,1024.0,1023.0,1022.0,1023.0,1023.0,1023.0,1022.0,1023.0,1023.0,1023.0,1023.0,1021.0,1022.0,1023.0,1024.0,1023.0,1024.0,1024.0,1023.0,1024.0,1023.0,1023.0,1024.0,1023.0,1023.0,1024.0,1023.0,1023.0,1024.0,1025.0,1024.0,1024.0,1025.0,1024.0,1024.0,1023.0,1025.0,1023.0,1024.0,1024.0,1024.0,1024.0,1024.0,1025.0,1024.0,1025.0,1026.0,1024.0,1024.0,1027.0,1025.0,1028.0,1027.0,1024.0,1026.0,1031.0,1028.0,1031.0,1030.0,1026.0,1029.0,1040.0,1034.0,1035.0,1034.0,1027.0,1035.0,1050.0,1045.0,1040.0,1043.0,1029.0,1040.0,1058.0,1044.0,1037.0,1045.0,1031.0,1051.0,1064.0,1047.0,1039.0,1050.0,1035.0,1049.0,1058.0,1049.0,1038.0,1051.0,1035.0,1042.0,1050.0,1045.0,1033.0,1047.0,1033.0,1044.0,1052.0,1048.0,1033.0,1047.0,1034.0,1023.0,1023.0,1023.0,1022.0,1024.0,1022.0,1038.0,1047.0,1044.0,1034.0,1048.0,1037.0,1031.0,1034.0,1034.0,1030.0,1039.0,1030.0,1025.0,1026.0,1026.0,1024.0,1028.0,2071,1984,1909,	00:29:09.455,0.05224609375,0.0673828125,1.01708984375,-0.06103515625,0.18310546875,0.06103515625,3.779296875,-2.955322265625,41.7755126953125,440.0,-1596.0,-2553.0,0.93316650390625,0.040008544921875,-0.0123291015625,0.357025146484375,3.7810361596303976,-2.954561875472634,37.27512510338802,0.9464567589053101,0.03948385647540579,-0.01387591864122785,0.32010636901215694,1,	00:29:09.456,0.0400390625,-0.009765625,1.005859375,-1.220703125,-1.40380859375,-0.42724609375,-0.5657958984375,-2.2906494140625,-156.4288330078125,-446.0,-1130.0,-2001.0,0.2041015625,-0.020599365234375,0.000762939453125,-0.978729248046875,-0.5685134304991282,-2.291971341626614,-155.90091970086246,0.2086159962624983,-0.02059447949222845,0.0006758443726297476,-0.9777805360878449,1
1782117256.686700,0.423,1023.0,1024.0,1023.0,1023.0,1023.0,1024.0,1023.0,1023.0,1023.0,1023.0,1024.0,1024.0,1024.0,1024.0,1024.0,1025.0,1023.0,1024.0,1024.0,1023.0,1024.0,1024.0,1024.0,1024.0,1023.0,1024.0,1024.0,1024.0,1024.0,1024.0,1024.0,1023.0,1022.0,1023.0,1024.0,1023.0,1024.0,1023.0,1023.0,1024.0,1023.0,1022.0,1023.0,1024.0,1023.0,1024.0,1024.0,1024.0,1024.0,1023.0,1023.0,1023.0,1024.0,1024.0,1023.0,1023.0,1024.0,1023.0,1024.0,1023.0,1023.0,1023.0,1023.0,1024.0,1023.0,1024.0,1024.0,1023.0,1023.0,1023.0,1022.0,1023.0,1023.0,1024.0,1023.0,1024.0,1024.0,1024.0,1024.0,1024.0,1022.0,1023.0,1023.0,1024.0,1023.0,1024.0,1024.0,1024.0,1024.0,1023.0,1023.0,1023.0,1023.0,1024.0,1023.0,1024.0,1024.0,1023.0,1024.0,1022.0,1022.0,1023.0,1023.0,1024.0,1024.0,1024.0,1024.0,1023.0,1024.0,1023.0,1023.0,1023.0,1023.0,1023.0,1023.0,1023.0,1023.0,1023.0,1024.0,1021.0,1022.0,1023.0,1023.0,1023.0,1023.0,1024.0,1023.0,1024.0,1023.0,1023.0,1024.0,1023.0,1024.0,1024.0,1023.0,1023.0,1024.0,1024.0,1024.0,1024.0,1024.0,1023.0,1024.0,1023.0,1025.0,1024.0,1024.0,1025.0,1023.0,1024.0,1023.0,1025.0,1024.0,1025.0,1026.0,1024.0,1024.0,1026.0,1025.0,1028.0,1028.0,1025.0,1026.0,1031.0,1028.0,1031.0,1030.0,1026.0,1029.0,1039.0,1034.0,1036.0,1034.0,1027.0,1035.0,1049.0,1045.0,1039.0,1043.0,1029.0,1040.0,1058.0,1043.0,1037.0,1044.0,1031.0,1052.0,1064.0,1047.0,1039.0,1050.0,1034.0,1049.0,1058.0,1050.0,1037.0,1051.0,1036.0,1042.0,1049.0,1045.0,1033.0,1047.0,1033.0,1044.0,1052.0,1048.0,1033.0,1047.0,1034.0,1023.0,1024.0,1023.0,1023.0,1024.0,1022.0,1038.0,1047.0,1045.0,1033.0,1048.0,1037.0,1030.0,1033.0,1035.0,1030.0,1038.0,1030.0,1025.0,1025.0,1026.0,1024.0,1027.0,2072,1984,1910,	00:29:09.465,0.0517578125,0.068359375,1.017578125,-0.06103515625,0.1220703125,0.06103515625,3.8507080078125,-2.8948974609375,41.77001953125,438.0,-1595.0,-2552.0,0.93316650390625,0.0404052734375,-0.011627197265625,0.35699462890625,3.8522733733983796,-2.896403982568612,37.27214649355964,0.9464580695296256,0.03991024441463109,-0.013197336229755587,0.3200783112450098,1,	00:29:09.466,0.041015625,-0.00927734375,1.00732421875,-1.220703125,-1.46484375,-0.48828125,-0.516357421875,-2.373046875,-156.4398193359375,-446.0,-1128.0,-2001.0,0.20404052734375,-0.02117919921875,0.00018310546875,-0.978729248046875,-0.5146804561346747,-2.3704732328497684,-155.90833095766138,0.20855649255189004,-0.02116627472655322,7.482909649756685e-05,-0.9777812498863229,1
1782117256.700230,0.436,1023.0,1023.0,1023.0,1023.0,1023.0,1024.0,1023.0,1023.0,1024.0,1023.0,1024.0,1024.0,1024.0,1024.0,1023.0,1025.0,1023.0,1024.0,1023.0,1023.0,1024.0,1023.0,1024.0,1023.0,1023.0,1024.0,1023.0,1024.0,1024.0,1023.0,1024.0,1023.0,1022.0,1023.0,1024.0,1023.0,1024.0,1024.0,1023.0,1024.0,1022.0,1022.0,1023.0,1024.0,1023.0,1023.0,1024.0,1023.0,1023.0,1024.0,1023.0,1023.0,1023.0,1024.0,1023.0,1024.0,1024.0,1024.0,1024.0,1024.0,1023.0,1023.0,1023.0,1024.0,1023.0,1024.0,1023.0,1023.0,1024.0,1023.0,1022.0,1023.0,1023.0,1023.0,1023.0,1024.0,1024.0,1023.0,1024.0,1024.0,1023.0,1023.0,1023.0,1024.0,1023.0,1024.0,1024.0,1023.0,1024.0,1023.0,1023.0,1023.0,1023.0,1024.0,1024.0,1024.0,1024.0,1023.0,1024.0,1023.0,1022.0,1023.0,1023.0,1024.0,1023.0,1024.0,1024.0,1024.0,1024.0,1023.0,1022.0,1023.0,1023.0,1024.0,1022.0,1023.0,1023.0,1022.0,1023.0,1021.0,1022.0,1023.0,1024.0,1023.0,1023.0,1024.0,1023.0,1023.0,1022.0,1023.0,1024.0,1023.0,1024.0,1024.0,1024.0,1023.0,1023.0,1024.0,1024.0,1024.0,1024.0,1023.0,1024.0,1024.0,1025.0,1024.0,1024.0,1024.0,1024.0,1024.0,1024.0,1025.0,1024.0,1025.0,1026.0,1024.0,1024.0,1027.0,1025.0,1028.0,1028.0,1026.0,1026.0,1031.0,1028.0,1031.0,1030.0,1026.0,1029.0,1039.0,1034.0,1035.0,1034.0,1027.0,1034.0,1049.0,1045.0,1039.0,1043.0,1028.0,1040.0,1057.0,1044.0,1037.0,1045.0,1031.0,1051.0,1063.0,1047.0,1039.0,1050.0,1034.0,1049.0,1058.0,1049.0,1037.0,1052.0,1035.0,1042.0,1049.0,1045.0,1032.0,1047.0,1033.0,1043.0,1052.0,1047.0,1033.0,1047.0,1034.0,1023.0,1024.0,1023.0,1022.0,1024.0,1022.0,1038.0,1047.0,1045.0,1034.0,1048.0,1037.0,1031.0,1034.0,1034.0,1030.0,1039.0,1030.0,1025.0,1025.0,1026.0,1024.0,1027.0,2072,1984,1910,	00:29:09.475,0.05322265625,0.0673828125,1.017578125,-0.18310546875,0.18310546875,0.06103515625,3.7957763671875,-2.9718017578125,41.7755126953125,440.0,-1595.0,-2551.0,0.933135986328125,0.040191650390625,-0.01239013671875,0.357025146484375,3.7978225947081885,-2.969759059921333,37.2755712477485,0.9464450682590604,0.039664794018492495,-0.013954462958548807,0.3201151509177775,1,	00:29:09.476,0.041015625,-0.00927734375,1.00830078125,-1.220703125,-1.52587890625,-0.48828125,-0.5548095703125,-2.296142578125,-156.4398193359375,-444.0,-1130.0,-2001.0,0.204010009765625,-0.0206298828125,0.000640869140625,-0.978759765625,-0.5532687678070758,-2.2980961553059704,-155.91200580352665,0.20852366264844238,-0.020618933603097078,0.0005365997450507971,-0.9777998024920354,1
1782117256.706952,0.443,1023.0,1024.0,1023.0,1023.0,1024.0,1023.0,1024.0,1024.0,1023.0,1023.0,1024.0,1024.0,1024.0,1024.0,1024.0,1025.0,1023.0,1024.0,1024.0,1024.0,1024.0,1024.0,1024.0,1023.0,1022.0,1024.0,1023.0,1024.0,1024.0,1023.0,1024.0,1023.0,1022.0,1023.0,1023.0,1023.0,1023.0,1024.0,1023.0,1023.0,1022.0,1023.0,1023.0,1024.0,1024.0,1024.0,1024.0,1024.0,1024.0,1023.0,1023.0,1023.0,1024.0,1024.0,1023.0,1024.0,1024.0,1024.0,1024.0,1023.0,1022.0,1024.0,1022.0,1024.0,1023.0,1024.0,1024.0,1023.0,1024.0,1022.0,1022.0,1023.0,1023.0,1024.0,1024.0,1024.0,1024.0,1024.0,1024.0,1023.0,1023.0,1023.0,1023.0,1024.0,1024.0,1024.0,1024.0,1023.0,1024.0,1024.0,1022.0,1023.0,1023.0,1024.0,1023.0,1024.0,1024.0,1023.0,1024.0,1022.0,1023.0,1023.0,1023.0,1024.0,1023.0,1024.0,1024.0,1024.0,1024.0,1023.0,1022.0,1023.0,1023.0,1023.0,1022.0,1024.0,1023.0,1023.0,1023.0,1021.0,1022.0,1023.0,1024.0,1023.0,1024.0,1024.0,1023.0,1024.0,1023.0,1022.0,1023.0,1023.0,1023.0,1024.0,1023.0,1024.0,1023.0,1025.0,1024.0,1024.0,1025.0,1024.0,1025.0,1023.0,1025.0,1024.0,1024.0,1024.0,1024.0,1024.0,1023.0,1025.0,1024.0,1025.0,1025.0,1024.0,1024.0,1026.0,1025.0,1028.0,1028.0,1025.0,1025.0,1030.0,1028.0,1031.0,1030.0,1025.0,1029.0,1039.0,1034.0,1036.0,1034.0,1027.0,1035.0,1049.0,1045.0,1039.0,1043.0,1029.0,1040.0,1058.0,1044.0,1037.0,1045.0,1031.0,1051.0,1063.0,1047.0,1040.0,1050.0,1034.0,1049.0,1057.0,1049.0,1037.0,1051.0,1035.0,1042.0,1049.0,1044.0,1033.0,1047.0,1033.0,1044.0,1052.0,1047.0,1033.0,1047.0,1034.0,1023.0,1024.0,1023.0,1023.0,1024.0,1022.0,1038.0,1047.0,1045.0,1034.0,1048.0,1037.0,1030.0,1034.0,1035.0,1029.0,1039.0,1030.0,1025.0,1025.0,1026.0,1024.0,1028.0,2072,1984,1908,	00:29:09.486,0.0517578125,0.06591796875,1.0185546875,-0.1220703125,0.244140625,0.06103515625,3.724365234375,-2.9168701171875,41.781005859375,441.0,-1597.0,-2551.0,0.93316650390625,0.039398193359375,-0.012176513671875,0.3570556640625,3.7217872756731962,-2.914734356113481,37.28018057957549,0.9464749592597436,0.038884391483476326,-0.013710565393569497,0.3201330598201557,1,	00:29:09.487,0.04150390625,-0.0107421875,1.005859375,-1.220703125,-1.46484375,-0.54931640625,-0.626220703125,-2.3785400390625,-156.4453125,-446.0,-1127.0,-1999.0,0.203948974609375,-0.021453857421875,0.0010986328125,-0.978729248046875,-0.6268473588215002,-2.3806636164402577,-155.91483890322547,0.20847928299284513,-0.021457298263307997,0.0010145754653507143,-0.9777908485717454,1
1782117256.717367,0.453,1024.0,1024.0,1023.0,1023.0,1024.0,1024.0,1023.0,1024.0,1024.0,1023.0,1024.0,1024.0,1024.0,1024.0,1024.0,1025.0,1023.0,1024.0,1023.0,1024.0,1024.0,1023.0,1024.0,1023.0,1023.0,1024.0,1023.0,1024.0,1024.0,1023.0,1024.0,1023.0,1022.0,1023.0,1024.0,1023.0,1023.0,1024.0,1023.0,1024.0,1023.0,1022.0,1023.0,1024.0,1023.0,1024.0,1024.0,1023.0,1024.0,1024.0,1023.0,1024.0,1024.0,1024.0,1023.0,1024.0,1024.0,1024.0,1024.0,1023.0,1022.0,1023.0,1023.0,1024.0,1023.0,1023.0,1024.0,1023.0,1023.0,1022.0,1022.0,1023.0,1023.0,1024.0,1024.0,1024.0,1024.0,1024.0,1024.0,1023.0,1022.0,1023.0,1023.0,1024.0,1024.0,1024.0,1024.0,1024.0,1024.0,1023.0,1022.0,1023.0,1022.0,1024.0,1024.0,1024.0,1024.0,1023.0,1024.0,1023.0,1023.0,1023.0,1023.0,1024.0,1023.0,1024.0,1024.0,1023.0,1024.0,1023.0,1023.0,1023.0,1022.0,1023.0,1023.0,1024.0,1023.0,1023.0,1023.0,1021.0,1022.0,1023.0,1024.0,1024.0,1024.0,1024.0,1023.0,1024.0,1022.0,1023.0,1024.0,1023.0,1023.0,1023.0,1023.0,1023.0,1023.0,1024.0,1024.0,1025.0,1024.0,1024.0,1025.0,1023.0,1024.0,1024.0,1025.0,1024.0,1024.0,1025.0,1023.0,1025.0,1024.0,1025.0,1026.0,1024.0,1024.0,1026.0,1025.0,1028.0,1027.0,1025.0,1026.0,1030.0,1028.0,1031.0,1030.0,1025.0,1029.0,1039.0,1034.0,1035.0,1034.0,1027.0,1035.0,1049.0,1044.0,1040.0,1043.0,1029.0,1040.0,1058.0,1044.0,1037.0,1045.0,1031.0,1051.0,1064.0,1047.0,1039.0,1049.0,1035.0,1048.0,1058.0,1049.0,1037.0,1051.0,1036.0,1042.0,1049.0,1045.0,1033.0,1046.0,1034.0,1044.0,1052.0,1047.0,1033.0,1046.0,1034.0,1023.0,1024.0,1023.0,1023.0,1024.0,1022.0,1037.0,1047.0,1045.0,1034.0,1047.0,1037.0,1030.0,1034.0,1035.0,1030.0,1038.0,1031.0,1025.0,1025.0,1025.0,1024.0,1027.0,2073,1984,1908,	00:29:09.496,0.052734375,0.06787109375,1.01708984375,-0.1220703125,0.18310546875,0.06103515625,3.80126953125,-2.955322265625,41.7755126953125,440.0,-1596.0,-2554.0,0.933135986328125,0.0401611328125,-0.012237548828125,0.357025146484375,3.8027637213549412,-2.952996150053157,37.27670080669013,0.9464453319714267,0.039659150355171875,-0.013801738778095969,0.32012169153199105,1,	00:29:09.497,0.04052734375,-0.009765625,1.0068359375,-1.03759765625,-1.46484375,-0.48828125,-0.5767822265625,-2.3291015625,-156.4508056640625,-444.0,-1128.0,-2001.0,0.20391845703125,-0.020904541015625,0.000762939453125,-0.978759765625,-0.5742854197349831,-2.328561833897697,-155.92214771104173,0.2084309145190424,-0.020917068051017854,0.0006622942135637733,-0.9778131679944178,1
1782117256.727095,0.463,1023.0,1024.0,1023.0,1023.0,1024.0,1024.0,1023.0,1024.0,1024.0,1023.0,1024.0,1024.0,1024.0,1024.0,1024.0,1024.0,1023.0,1024.0,1023.0,1024.0,1024.0,1023.0,1025.0,1023.0,1023.0,1024.0,1024.0,1024.0,1023.0,1023.0,1024.0,1023.0,1023.0,1023.0,1023.0,1023.0,1023.0,1024.0,1023.0,1023.0,1022.0,1022.0,1023.0,1024.0,1023.0,1023.0,1023.0,1024.0,1024.0,1023.0,1022.0,1023.0,1023.0,1024.0,1023.0,1024.0,1024.0,1024.0,1024.0,1023.0,1022.0,1023.0,1023.0,1024.0,1023.0,1024.0,1024.0,1023.0,1024.0,1022.0,1022.0,1023.0,1024.0,1024.0,1024.0,1024.0,1024.0,1024.0,1024.0,1024.0,1023.0,1023.0,1023.0,1024.0,1023.0,1024.0,1024.0,1024.0,1024.0,1023.0,1023.0,1024.0,1023.0,1024.0,1023.0,1024.0,1024.0,1023.0,1024.0,1023.0,1023.0,1023.0,1023.0,1024.0,1023.0,1024.0,1024.0,1024.0,1024.0,1023.0,1022.0,1023.0,1023.0,1024.0,1023.0,1023.0,1024.0,1023.0,1024.0,1021.0,1022.0,1023.0,1023.0,1023.0,1024.0,1024.0,1023.0,1024.0,1023.0,1023.0,1024.0,1023.0,1024.0,1024.0,1023.0,1023.0,1024.0,1025.0,1024.0,1024.0,1024.0,1023.0,1024.0,1023.0,1025.0,1024.0,1024.0,1024.0,1024.0,1024.0,1023.0,1025.0,1024.0,1025.0,1025.0,1024.0,1024.0,1027.0,1025.0,1028.0,1027.0,1025.0,1026.0,1031.0,1028.0,1030.0,1030.0,1025.0,1029.0,1040.0,1034.0,1035.0,1033.0,1027.0,1035.0,1049.0,1045.0,1039.0,1043.0,1028.0,1040.0,1058.0,1044.0,1037.0,1045.0,1031.0,1051.0,1063.0,1047.0,1039.0,1049.0,1034.0,1049.0,1057.0,1048.0,1038.0,1051.0,1035.0,1042.0,1049.0,1045.0,1033.0,1046.0,1033.0,1044.0,1052.0,1048.0,1033.0,1046.0,1034.0,1023.0,1023.0,1023.0,1023.0,1024.0,1022.0,1037.0,1047.0,1044.0,1035.0,1048.0,1036.0,1030.0,1034.0,1035.0,1030.0,1038.0,1031.0,1025.0,1025.0,1026.0,1025.0,1027.0,2073,1984,1909,	00:29:09.506,0.05224609375,0.068359375,1.01708984375,-0.06103515625,0.1220703125,0.06103515625,3.8836669921875,-2.9168701171875,41.7755126953125,438.0,-1597.0,-2550.0,0.933135986328125,0.040740966796875,-0.01165771484375,0.35699462890625,3.8857760510512596,-2.914268221954312,37.27310989045175,0.9464382384516214,0.040236711825283024,-0.013251048737585334,0.3200938573691084,1,	00:29:09.507,0.04052734375,-0.01025390625,1.0068359375,-1.15966796875,-1.46484375,-0.48828125,-0.6207275390625,-2.2576904296875,-156.456298828125,-446.0,-1129.0,-1998.0,0.203887939453125,-0.0203857421875,0.00128173828125,-0.978790283203125,-0.6189520640122386,-2.2578779758165917,-155.9255635890362,0.2083994294950146,-0.020395152831551005,0.0011727381592961357,-0.9778304250801055,1
1782117256.737562,0.474,1023.0,1023.0,1023.0,1023.0,1023.0,1023.0,1023.0,1024.0,1024.0,1023.0,1024.0,1024.0,1024.0,1024.0,1024.0,1025.0,1023.0,1024.0,1023.0,1024.0,1024.0,1023.0,1024.0,1023.0,1023.0,1024.0,1023.0,1024.0,1024.0,1023.0,1024.0,1023.0,1023.0,1023.0,1024.0,1023.0,1024.0,1024.0,1024.0,1023.0,1022.0,1023.0,1023.0,1023.0,1023.0,1024.0,1024.0,1023.0,1024.0,1023.0,1023.0,1023.0,1023.0,1024.0,1023.0,1024.0,1024.0,1024.0,1024.0,1024.0,1022.0,1024.0,1023.0,1024.0,1023.0,1024.0,1024.0,1023.0,1024.0,1022.0,1022.0,1023.0,1023.0,1024.0,1024.0,1024.0,1024.0,1024.0,1024.0,1024.0,1023.0,1024.0,1023.0,1024.0,1024.0,1024.0,1024.0,1023.0,1024.0,1024.0,1023.0,1023.0,1023.0,1024.0,1024.0,1024.0,1024.0,1024.0,1024.0,1023.0,1022.0,1023.0,1023.0,1024.0,1023.0,1024.0,1024.0,1023.0,1024.0,1022.0,1022.0,1023.0,1022.0,1024.0,1022.0,1024.0,1024.0,1023.0,1023.0,1021.0,1022.0,1023.0,1023.0,1022.0,1024.0,1024.0,1023.0,1024.0,1023.0,1023.0,1023.0,1024.0,1024.0,1023.0,1023.0,1023.0,1023.0,1025.0,1024.0,1024.0,1025.0,1024.0,1024.0,1023.0,1024.0,1023.0,1024.0,1025.0,1024.0,1024.0,1024.0,1025.0,1024.0,1025.0,1026.0,1024.0,1024.0,1026.0,1026.0,1027.0,1028.0,1025.0,1026.0,1030.0,1028.0,1031.0,1030.0,1026.0,1029.0,1040.0,1034.0,1035.0,1034.0,1027.0,1035.0,1049.0,1044.0,1040.0,1043.0,1029.0,1041.0,1058.0,1044.0,1037.0,1045.0,1031.0,1051.0,1063.0,1048.0,1040.0,1050.0,1034.0,1048.0,1057.0,1048.0,1038.0,1051.0,1036.0,1042.0,1050.0,1044.0,1034.0,1046.0,1033.0,1043.0,1052.0,1048.0,1033.0,1045.0,1034.0,1022.0,1023.0,1024.0,1023.0,1024.0,1021.0,1037.0,1046.0,1044.0,1034.0,1048.0,1037.0,1030.0,1034.0,1035.0,1030.0,1038.0,1031.0,1025.0,1026.0,1026.0,1024.0,1027.0,2073,1984,1910,	00:29:09.517,0.05224609375,0.068359375,1.017578125,-0.06103515625,0.18310546875,0.06103515625,3.80126953125,-2.9498291015625,41.781005859375,438.0,-1596.0,-2550.0,0.933135986328125,0.040130615234375,-0.01220703125,0.3570556640625,3.800921176814109,-2.948777954011166,37.27815065311669,0.9464432068369236,0.03963238216564254,-0.013771525190228737,0.32013259067150873,1,	00:29:09.518,0.041015625,-0.0087890625,1.0068359375,-1.220703125,-1.52587890625,-0.54931640625,-0.5548095703125,-2.3236083984375,-156.4617919921875,-445.0,-1128.0,-1999.0,0.203826904296875,-0.02081298828125,0.000579833984375,-0.978790283203125,-0.5533330272118021,-2.322064802538993,-155.93399026422222,0.2083341891556832,-0.020823468952904368,0.0004974874033526966,-0.9778358764516134,1
1782117256.747957,0.484,1022.0,1024.0,1024.0,1023.0,1024.0,1023.0,1023.0,1024.0,1023.0,1023.0,1024.0,1024.0,1024.0,1024.0,1024.0,1025.0,1023.0,1024.0,1024.0,1024.0,1024.0,1024.0,1024.0,1023.0,1023.0,1024.0,1023.0,1024.0,1024.0,1023.0,1024.0,1023.0,1023.0,1023.0,1024.0,1023.0,1023.0,1024.0,1023.0,1023.0,1022.0,1022.0,1023.0,1024.0,1023.0,1023.0,1024.0,1024.0,1024.0,1023.0,1023.0,1023.0,1023.0,1024.0,1023.0,1024.0,1024.0,1023.0,1024.0,1023.0,1022.0,1023.0,1023.0,1024.0,1022.0,1024.0,1024.0,1023.0,1024.0,1023.0,1022.0,1023.0,1023.0,1024.0,1024.0,1024.0,1024.0,1024.0,1024.0,1024.0,1023.0,1024.0,1023.0,1024.0,1024.0,1024.0,1024.0,1024.0,1024.0,1023.0,1023.0,1023.0,1023.0,1024.0,1023.0,1024.0,1024.0,1023.0,1024.0,1024.0,1022.0,1023.0,1023.0,1023.0,1023.0,1024.0,1024.0,1023.0,1024.0,1023.0,1022.0,1023.0,1023.0,1023.0,1022.0,1024.0,1023.0,1023.0,1023.0,1021.0,1022.0,1023.0,1024.0,1023.0,1024.0,1024.0,1023.0,1023.0,1023.0,1023.0,1023.0,1022.0,1024.0,1024.0,1023.0,1024.0,1024.0,1025.0,1024.0,1024.0,1024.0,1023.0,1024.0,1023.0,1025.0,1024.0,1024.0,1025.0,1024.0,1024.0,1024.0,1025.0,1024.0,1025.0,1025.0,1024.0,1024.0,1026.0,1025.0,1028.0,1028.0,1024.0,1025.0,1031.0,1028.0,1031.0,1030.0,1026.0,1029.0,1039.0,1034.0,1035.0,1034.0,1027.0,1034.0,1050.0,1044.0,1039.0,1043.0,1029.0,1040.0,1058.0,1044.0,1037.0,1045.0,1031.0,1051.0,1063.0,1047.0,1039.0,1050.0,1035.0,1049.0,1058.0,1049.0,1037.0,1051.0,1035.0,1042.0,1050.0,1044.0,1033.0,1046.0,1033.0,1043.0,1052.0,1047.0,1033.0,1047.0,1034.0,1023.0,1023.0,1023.0,1022.0,1024.0,1022.0,1037.0,1047.0,1044.0,1034.0,1048.0,1036.0,1030.0,1034.0,1035.0,1030.0,1039.0,1030.0,1025.0,1025.0,1027.0,1025.0,1027.0,2073,1985,1909,	00:29:09.527,0.052734375,0.0673828125,1.017578125,-0.06103515625,0.18310546875,0.0,3.7353515625,-3.01025390625,41.781005859375,440.0,-1596.0,-2554.0,0.933135986328125,0.039764404296875,-0.012908935546875,0.357086181640625,3.732678216424219,-3.008930847629127,37.281786885507344,0.9464380983327153,0.03923640141518727,-0.014458037775718517,0.32016620054592854,1,	00:29:09.528,0.04150390625,-0.00927734375,1.00830078125,-1.28173828125,-1.52587890625,-0.48828125,-0.5108642578125,-2.4114990234375,-156.4727783203125,-446.0,-1130.0,-2000.0,0.203765869140625,-0.021514892578125,6.103515625e-05,-0.978790283203125,-0.5109851146340703,-2.4107246814211174,-155.94098933683998,0.20827544199187245,-0.02150299763881022,-2.3895217872559577e-05,-0.9778338104118993,1
1782117256.758694,0.495,1023.0,1024.0,1023.0,1023.0,1023.0,1023.0,1023.0,1023.0,1023.0,1023.0,1024.0,1024.0,1024.0,1024.0,1024.0,1025.0,1023.0,1024.0,1023.0,1024.0,1024.0,1023.0,1024.0,1023.0,1023.0,1024.0,1023.0,1024.0,1023.0,1022.0,1024.0,1023.0,1022.0,1023.0,1024.0,1023.0,1023.0,1024.0,1023.0,1024.0,1022.0,1022.0,1023.0,1024.0,1024.0,1024.0,1024.0,1024.0,1024.0,1023.0,1022.0,1023.0,1023.0,1024.0,1024.0,1024.0,1024.0,1024.0,1024.0,1023.0,1022.0,1023.0,1022.0,1024.0,1023.0,1024.0,1023.0,1023.0,1024.0,1022.0,1022.0,1023.0,1022.0,1024.0,1024.0,1024.0,1024.0,1024.0,1024.0,1024.0,1022.0,1023.0,1023.0,1024.0,1024.0,1024.0,1024.0,1024.0,1024.0,1023.0,1023.0,1023.0,1023.0,1024.0,1024.0,1024.0,1024.0,1023.0,1024.0,1023.0,1022.0,1023.0,1023.0,1024.0,1023.0,1024.0,1024.0,1024.0,1024.0,1023.0,1022.0,1024.0,1023.0,1023.0,1023.0,1023.0,1024.0,1023.0,1023.0,1021.0,1022.0,1023.0,1023.0,1023.0,1024.0,1024.0,1023.0,1024.0,1023.0,1023.0,1024.0,1023.0,1024.0,1024.0,1023.0,1024.0,1023.0,1025.0,1024.0,1025.0,1025.0,1023.0,1024.0,1023.0,1024.0,1023.0,1024.0,1024.0,1024.0,1025.0,1024.0,1025.0,1024.0,1025.0,1025.0,1025.0,1024.0,1026.0,1025.0,1028.0,1027.0,1025.0,1026.0,1031.0,1028.0,1031.0,1030.0,1026.0,1029.0,1040.0,1033.0,1035.0,1034.0,1027.0,1035.0,1050.0,1044.0,1039.0,1043.0,1029.0,1040.0,1058.0,1044.0,1036.0,1045.0,1031.0,1051.0,1063.0,1047.0,1040.0,1050.0,1035.0,1048.0,1058.0,1049.0,1037.0,1051.0,1036.0,1041.0,1049.0,1045.0,1033.0,1046.0,1033.0,1043.0,1053.0,1047.0,1034.0,1046.0,1034.0,1023.0,1024.0,1023.0,1023.0,1024.0,1022.0,1037.0,1047.0,1045.0,1034.0,1048.0,1036.0,1030.0,1034.0,1035.0,1030.0,1038.0,1031.0,1026.0,1025.0,1026.0,1024.0,1027.0,2073,1985,1910,	00:29:09.537,0.052734375,0.068359375,1.0166015625,-0.06103515625,0.18310546875,0.06103515625,3.8177490234375,-2.9718017578125,41.7755126953125,439.0,-1596.0,-2553.0,0.933135986328125,0.04034423828125,-0.012359619140625,0.3570556640625,3.817058136520928,-2.972801794209015,37.27807940968991,0.9464304553264329,0.0398324267954885,-0.01392500111776738,0.32013882199766575,1,	00:29:09.538,0.0419921875,-0.009765625,1.00732421875,-1.3427734375,-1.52587890625,-0.48828125,-0.604248046875,-2.384033203125,-156.4727783203125,-446.0,-1130.0,-2003.0,0.2037353515625,-0.02142333984375,0.00091552734375,-0.978790283203125,-0.6051322712419649,-2.3828244603211104,-155.94235935028965,0.2082483328785127,-0.021436029502859173,0.0008304969186053851,-0.977840702142911,1
