Unix_Time_s,EMG_t_s,sample_idx,fs,gain,flags,emg_valid,ch1_raw_uV,ch1_filt_uV,ch1_env_uV,ch2_raw_uV,ch2_filt_uV,ch2_env_uV
1782117417.438512,0.000000,1863000,1000,12,0,1,753.360,6.648,14.875,377.173,-12.077,15.724
1782117417.439512,0.001000,1863001,1000,12,0,1,754.681,4.848,14.637,373.353,-12.367,15.725
1782117417.440512,0.002000,1863002,1000,12,0,1,754.754,3.932,14.645,368.405,-14.767,15.802
1782117417.441512,0.003000,1863003,1000,12,0,1,750.598,-2.027,14.442,372.753,-8.830,15.847
1782117417.442512,0.004000,1863004,1000,12,0,1,752.952,-2.612,14.357,374.218,-3.804,15.814
1782117417.443512,0.005000,1863005,1000,12,0,1,751.991,-3.178,14.363,373.281,-3.769,15.787
1782117417.444512,0.006000,1863006,1000,12,0,1,746.226,-10.084,14.424,379.382,2.328,15.726
1782117417.445512,0.007000,1863007,1000,12,0,1,740.990,-14.423,14.546,383.226,7.498,15.761
1782117417.446512,0.008000,1863008,1000,12,0,1,736.570,-17.269,14.748,383.202,6.646,15.699
1782117417.447512,0.009000,1863009,1000,12,0,1,735.993,-15.869,14.866,381.088,4.899,15.439
1782117417.448512,0.010000,1863010,1000,12,0,1,736.498,-12.326,14.859,379.382,2.698,15.055
1782117417.449512,0.011000,1863011,1000,12,0,1,735.105,-10.729,14.879,354.257,-15.238,14.885
1782117417.450512,0.012000,1863012,1000,12,0,1,731.862,-10.488,14.935,360.406,-15.090,14.852
1782117417.451512,0.013000,1863013,1000,12,0,1,727.250,-11.306,15.016,376.140,8.296,14.761
1782117417.452512,0.014000,1863014,1000,12,0,1,738.828,0.067,15.016,388.847,16.885,14.823
1782117417.453512,0.015000,1863015,1000,12,0,1,752.424,16.287,15.192,400.641,27.634,15.295
1782117417.454512,0.016000,1863016,1000,12,0,1,749.253,13.961,15.310,400.208,24.474,15.674
1782117417.455512,0.017000,1863017,1000,12,0,1,739.188,3.570,15.269,394.419,14.775,15.762
1782117417.456512,0.018000,1863018,1000,12,0,1,731.405,-3.253,15.226,394.203,11.789,15.697
1782117417.457512,0.019000,1863019,1000,12,0,1,744.473,6.452,15.239,393.843,9.310,15.714
1782117417.458512,0.020000,1863020,1000,12,0,1,756.315,19.689,15.477,394.996,8.393,15.759
1782117417.459512,0.021000,1863021,1000,12,0,1,763.209,21.168,15.645,398.215,8.963,15.801
1782117417.460512,0.022000,1863022,1000,12,0,1,765.395,20.558,15.733,397.854,7.648,15.770
1782117417.461512,0.023000,1863023,1000,12,0,1,770.535,18.861,15.762,401.001,6.852,15.752
1782117417.462512,0.024000,1863024,1000,12,0,1,775.363,19.546,15.926,400.881,6.547,15.729
1782117417.463512,0.025000,1863025,1000,12,0,1,775.339,14.489,16.046,398.455,1.249,15.688
1782117417.464512,0.026000,1863026,1000,12,0,1,768.325,4.443,15.951,402.803,3.391,15.693
1782117417.465512,0.027000,1863027,1000,12,0,1,763.569,-3.528,15.957,406.574,5.777,15.674
1782117417.466512,0.028000,1863028,1000,12,0,1,761.720,-6.238,15.611,415.149,9.985,15.488
1782117417.467512,0.029000,1863029,1000,12,0,1,757.492,-9.731,15.207,420.986,13.835,15.136
1782117417.468512,0.030000,1863030,1000,12,0,1,752.159,-14.114,15.225,427.664,14.645,14.811
1782117417.469512,0.031000,1863031,1000,12,0,1,750.430,-13.939,15.338,431.411,15.282,14.857
1782117417.470512,0.032000,1863032,1000,12,0,1,752.279,-10.281,15.358,428.481,8.237,14.697
1782117417.471512,0.033000,1863033,1000,12,0,1,764.314,1.334,15.302,430.547,5.523,14.281
1782117417.472512,0.034000,1863034,1000,12,0,1,771.184,9.720,15.009,423.773,-1.021,14.062
1782117417.473512,0.035000,1863035,1000,12,0,1,762.104,1.372,14.400,415.654,-11.966,14.027
1782117417.474512,0.036000,1863036,1000,12,0,1,765.659,0.882,14.007,397.278,-25.201,14.458
1782117417.475512,0.037000,1863037,1000,12,0,1,783.338,16.796,14.014,381.737,-39.168,15.483
1782117417.476512,0.038000,1863038,1000,12,0,1,793.835,24.055,14.321,371.095,-41.788,16.558
1782117417.477512,0.039000,1863039,1000,12,0,1,784.972,13.058,14.234,375.299,-34.246,17.114
1782117417.478512,0.040000,1863040,1000,12,0,1,780.288,2.193,13.744,385.220,-17.877,16.764
1782117417.479512,0.041000,1863041,1000,12,0,1,771.160,-5.692,13.291,368.189,-25.758,16.020
1782117417.480512,0.042000,1863042,1000,12,0,1,747.619,-27.437,13.750,366.988,-28.272,15.573
1782117417.481512,0.043000,1863043,1000,12,0,1,740.509,-34.566,14.516,390.072,-1.110,15.401
1782117417.482512,0.044000,1863044,1000,12,0,1,748.076,-22.570,14.503,389.111,2.927,15.406
1782117417.483512,0.045000,1863045,1000,12,0,1,755.546,-12.922,14.162,396.725,4.965,15.400
1782117417.484512,0.046000,1863046,1000,12,0,1,759.966,-6.528,13.682,404.340,14.984,15.483
1782117417.485512,0.047000,1863047,1000,12,0,1,762.800,-3.446,13.286,413.876,18.208,15.677
1782117417.486512,0.048000,1863048,1000,12,0,1,765.539,-0.402,13.222,423.412,25.632,16.090
1782117417.487512,0.049000,1863049,1000,12,0,1,767.533,1.485,13.201,429.442,25.799,16.427
1782117417.488512,0.050000,1863050,1000,12,0,1,765.827,0.383,13.167,434.822,26.016,16.747
1782117417.489512,0.051000,1863051,1000,12,0,1,759.510,-4.754,13.167,424.974,14.814,16.787
1782117417.490512,0.052000,1863052,1000,12,0,1,757.516,-6.380,13.186,422.115,5.495,16.674
1782117417.491512,0.053000,1863053,1000,12,0,1,765.227,1.592,13.185,414.861,1.314,16.628
1782117417.492512,0.054000,1863054,1000,12,0,1,771.688,8.907,13.240,404.700,-10.437,16.685
1782117417.493512,0.055000,1863055,1000,12,0,1,782.497,16.420,13.434,391.393,-18.381,16.878
1782117417.494512,0.056000,1863056,1000,12,0,1,790.616,22.974,13.748,381.881,-25.335,17.251
1782117417.495512,0.057000,1863057,1000,12,0,1,787.974,17.450,13.818,382.193,-20.136,17.452
1782117417.496512,0.058000,1863058,1000,12,0,1,774.979,3.398,13.609,389.279,-9.762,17.482
1782117417.497512,0.059000,1863059,1000,12,0,1,762.056,-10.271,13.501,394.443,-1.719,17.470
1782117417.498512,0.060000,1863060,1000,12,0,1,759.173,-12.893,13.511,394.107,-0.396,17.465
1782117417.499512,0.061000,1863061,1000,12,0,1,763.617,-7.284,13.465,392.906,-1.633,17.334
1782117417.500512,0.062000,1863062,1000,12,0,1,763.881,-5.311,13.404,391.609,-2.090,17.204
1782117417.501512,0.063000,1863063,1000,12,0,1,760.615,-7.875,13.355,390.504,-3.592,17.172
1782117417.502512,0.064000,1863064,1000,12,0,1,757.924,-9.597,13.424,384.043,-8.051,17.043
1782117417.503512,0.065000,1863065,1000,12,0,1,754.153,-11.435,13.324,374.098,-16.769,16.757
1782117417.504512,0.066000,1863066,1000,12,0,1,753.649,-11.110,13.270,385.844,-7.244,16.428
1782117417.505512,0.067000,1863067,1000,12,0,1,755.762,-7.171,13.299,391.105,2.547,16.299
1782117417.506512,0.068000,1863068,1000,12,0,1,757.324,-4.549,13.306,394.972,2.815,16.218
1782117417.507512,0.069000,1863069,1000,12,0,1,759.029,-2.063,13.278,396.293,5.973,16.187
1782117417.508512,0.070000,1863070,1000,12,0,1,763.977,2.521,12.988,396.677,4.295,16.154
1782117417.509512,0.071000,1863071,1000,12,0,1,770.727,8.694,12.698,395.813,4.434,16.117
1782117417.510512,0.072000,1863072,1000,12,0,1,765.515,4.967,12.381,397.686,5.381,16.098
1782117417.511512,0.073000,1863073,1000,12,0,1,758.957,-2.819,12.096,396.846,5.968,16.091
1782117417.512512,0.074000,1863074,1000,12,0,1,758.068,-2.519,11.782,398.455,6.891,16.094
1782117417.513512,0.075000,1863075,1000,12,0,1,763.209,2.362,11.607,400.256,9.420,16.148
1782117417.514512,0.076000,1863076,1000,12,0,1,767.725,7.698,11.641,402.250,10.909,16.215
1782117417.515512,0.077000,1863077,1000,12,0,1,766.235,6.303,11.664,403.884,11.895,16.281
1782117417.516512,0.078000,1863078,1000,12,0,1,759.798,0.360,11.631,405.709,12.580,16.317
1782117417.517512,0.079000,1863079,1000,12,0,1,754.345,-4.511,11.567,407.054,12.122,16.290
1782117417.518512,0.080000,1863080,1000,12,0,1,757.324,-1.756,11.396,406.958,10.447,16.225
1782117417.519512,0.081000,1863081,1000,12,0,1,765.347,6.419,11.261,402.418,4.497,16.093
1782117417.520512,0.082000,1863082,1000,12,0,1,769.358,9.811,11.253,406.093,4.449,16.063
1782117417.521512,0.083000,1863083,1000,12,0,1,766.235,6.014,11.283,408.808,6.368,16.070
1782117417.522512,0.084000,1863084,1000,12,0,1,763.281,1.313,11.201,405.733,0.876,16.069
1782117417.523512,0.085000,1863085,1000,12,0,1,760.879,-1.120,11.200,411.330,2.273,15.983
1782117417.524512,0.086000,1863086,1000,12,0,1,756.819,-5.072,11.222,411.402,2.409,15.585
1782117417.525512,0.087000,1863087,1000,12,0,1,753.721,-7.667,11.022,411.810,-1.524,14.569
1782117417.526512,0.088000,1863088,1000,12,0,1,759.077,-3.094,10.493,414.981,0.712,13.316
1782117417.527512,0.089000,1863089,1000,12,0,1,762.921,2.020,10.333,411.090,-3.856,12.416
1782117417.528512,0.090000,1863090,1000,12,0,1,764.986,2.813,10.336,405.757,-9.696,12.233
1782117417.529512,0.091000,1863091,1000,12,0,1,758.285,-1.896,10.308,397.734,-15.252,11.876
1782117417.530512,0.092000,1863092,1000,12,0,1,752.063,-8.659,9.628,410.537,-5.664,11.211
1782117417.531512,0.093000,1863093,1000,12,0,1,755.234,-4.659,8.321,412.411,2.599,11.216
1782117417.532512,0.094000,1863094,1000,12,0,1,756.267,-1.328,7.686,410.609,-2.426,11.214
1782117417.533512,0.095000,1863095,1000,12,0,1,752.784,-3.751,7.485,404.796,-3.762,11.205
1782117417.534512,0.096000,1863096,1000,12,0,1,748.580,-5.941,7.475,408.015,-3.059,11.011
1782117417.535512,0.097000,1863097,1000,12,0,1,746.899,-6.288,7.512,414.261,5.655,10.735
1782117417.536512,0.098000,1863098,1000,12,0,1,740.533,-8.688,7.612,416.903,7.250,10.157
1782117417.537512,0.099000,1863099,1000,12,0,1,737.339,-10.738,7.759,424.421,11.963,9.629
1782117417.538512,0.100000,1863100,1000,12,0,1,732.799,-10.532,7.900,433.837,18.924,9.292
1782117417.539512,0.101000,1863101,1000,12,0,1,735.657,-7.372,7.940,438.113,18.799,9.435
1782117417.540512,0.102000,1863102,1000,12,0,1,755.955,11.926,8.067,433.117,11.275,9.537
1782117417.541512,0.103000,1863103,1000,12,0,1,766.644,23.393,8.716,430.715,3.341,9.547
1782117417.542512,0.104000,1863104,1000,12,0,1,765.659,18.410,9.009,443.734,11.196,9.564
1782117417.543512,0.105000,1863105,1000,12,0,1,774.739,21.765,9.233,442.124,9.078,9.293
1782117417.544512,0.106000,1863106,1000,12,0,1,773.249,19.381,9.067,430.667,-6.457,8.623
1782117417.545512,0.107000,1863107,1000,12,0,1,747.019,-6.468,8.772,415.438,-20.285,8.630
1782117417.546512,0.108000,1863108,1000,12,0,1,733.063,-22.533,9.321,402.851,-31.506,9.614
1782117417.547512,0.109000,1863109,1000,12,0,1,744.641,-9.758,9.310,398.071,-32.230,10.637
1782117417.548512,0.110000,1863110,1000,12,0,1,754.994,3.142,9.140,401.457,-25.024,11.210
1782117417.549512,0.111000,1863111,1000,12,0,1,765.251,11.100,9.216,403.475,-18.007,11.493
1782117417.550512,0.112000,1863112,1000,12,0,1,783.578,25.596,9.873,400.040,-17.036,11.739
1782117417.551512,0.113000,1863113,1000,12,0,1,788.887,28.924,10.629,395.572,-17.582,11.989
1782117417.552512,0.114000,1863114,1000,12,0,1,772.721,10.598,10.648,399.656,-10.836,12.033
1782117417.553512,0.115000,1863115,1000,12,0,1,764.122,-2.184,10.529,407.607,-0.137,11.797
1782117417.554512,0.116000,1863116,1000,12,0,1,775.700,6.824,10.456,406.045,1.500,11.754
1782117417.555512,0.117000,1863117,1000,12,0,1,789.103,18.391,10.726,400.112,-3.478,11.759
1782117417.556512,0.118000,1863118,1000,12,0,1,779.591,9.233,10.786,399.368,-2.927,11.760
1782117417.557512,0.119000,1863119,1000,12,0,1,769.694,-4.871,10.804,402.178,0.922,11.730
1782117417.558512,0.120000,1863120,1000,12,0,1,770.631,-4.296,10.816,403.259,3.086,11.722
1782117417.559512,0.121000,1863121,1000,12,0,1,773.874,-1.819,10.749,402.779,2.650,11.711
1782117417.560512,0.122000,1863122,1000,12,0,1,776.180,-0.401,10.726,397.614,-1.152,11.688
1782117417.561512,0.123000,1863123,1000,12,0,1,770.992,-5.023,10.742,401.241,0.456,11.658
1782117417.562512,0.124000,1863124,1000,12,0,1,765.154,-11.819,10.865,404.628,5.514,11.643
1782117417.563512,0.125000,1863125,1000,12,0,1,761.431,-14.064,11.041,409.264,7.603,11.616
1782117417.564512,0.126000,1863126,1000,12,0,1,763.233,-12.453,11.127,411.522,9.937,11.599
1782117417.565512,0.127000,1863127,1000,12,0,1,764.194,-9.324,11.170,411.858,8.159,11.534
1782117417.566512,0.128000,1863128,1000,12,0,1,763.977,-9.374,11.248,415.293,9.770,11.479
1782117417.567512,0.129000,1863129,1000,12,0,1,768.517,-4.838,11.251,416.807,10.466,11.447
1782117417.568512,0.130000,1863130,1000,12,0,1,775.219,1.601,11.250,413.204,5.920,11.382
1782117417.569512,0.131000,1863131,1000,12,0,1,782.161,6.990,11.257,403.187,-2.776,11.371
1782117417.570512,0.132000,1863132,1000,12,0,1,776.492,2.586,11.177,393.939,-11.113,11.462
1782117417.571512,0.133000,1863133,1000,12,0,1,768.806,-6.768,11.186,403.619,-2.162,11.430
1782117417.572512,0.134000,1863134,1000,12,0,1,768.806,-6.037,11.217,411.931,9.043,11.501
1782117417.573512,0.135000,1863135,1000,12,0,1,763.593,-8.395,11.278,415.053,10.401,11.590
1782117417.574512,0.136000,1863136,1000,12,0,1,759.365,-11.696,11.376,417.647,12.069,11.710
1782117417.575512,0.137000,1863137,1000,12,0,1,758.837,-9.350,11.402,419.881,12.065,11.832
1782117417.576512,0.138000,1863138,1000,12,0,1,756.819,-8.776,11.461,430.210,17.861,12.098
1782117417.577512,0.139000,1863139,1000,12,0,1,755.138,-8.170,11.515,438.401,23.271,12.526
1782117417.578512,0.140000,1863140,1000,12,0,1,753.216,-7.492,11.557,447.481,25.052,12.945
1782117417.579512,0.141000,1863141,1000,12,0,1,760.927,-0.282,11.554,448.682,22.706,13.162
1782117417.580512,0.142000,1863142,1000,12,0,1,763.329,5.034,11.511,445.535,12.857,13.263
1782117417.581512,0.143000,1863143,1000,12,0,1,770.007,8.100,11.549,433.069,-0.629,13.258
1782117417.582512,0.144000,1863144,1000,12,0,1,784.059,20.129,11.893,415.750,-19.299,13.531
1782117417.583512,0.145000,1863145,1000,12,0,1,795.348,26.973,12.479,393.411,-36.878,14.492
1782117417.584512,0.146000,1863146,1000,12,0,1,801.330,27.581,13.047,382.914,-44.284,15.781
1782117417.585512,0.147000,1863147,1000,12,0,1,803.371,23.921,13.449,381.160,-38.210,16.662
1782117417.586512,0.148000,1863148,1000,12,0,1,796.982,13.628,13.531,384.043,-29.785,17.155
1782117417.587512,0.149000,1863149,1000,12,0,1,776.324,-7.235,13.484,396.605,-13.743,17.182
1782117417.588512,0.150000,1863150,1000,12,0,1,749.949,-31.690,14.131,407.631,0.979,16.973
1782117417.589512,0.151000,1863151,1000,12,0,1,740.605,-38.028,15.084,411.330,5.190,16.779
1782117417.590512,0.152000,1863152,1000,12,0,1,749.397,-24.489,15.384,411.258,5.618,16.722
1782117417.591512,0.153000,1863153,1000,12,0,1,758.525,-10.307,15.095,411.426,4.870,16.730
1782117417.592512,0.154000,1863154,1000,12,0,1,759.173,-6.239,14.895,413.708,6.698,16.682
1782117417.593512,0.155000,1863155,1000,12,0,1,753.601,-8.700,14.625,421.659,12.111,16.720
1782117417.594512,0.156000,1863156,1000,12,0,1,752.472,-8.384,14.415,423.148,13.570,16.805
1782117417.595512,0.157000,1863157,1000,12,0,1,758.213,-0.936,14.386,424.637,11.126,16.633
1782117417.596512,0.158000,1863158,1000,12,0,1,765.203,6.586,14.060,434.750,17.739,16.220
1782117417.597512,0.159000,1863159,1000,12,0,1,767.773,9.207,14.052,442.893,22.636,15.892
1782117417.598512,0.160000,1863160,1000,12,0,1,768.613,8.508,14.097,445.295,20.568,15.764
1782117417.599512,0.161000,1863161,1000,12,0,1,760.639,1.602,14.011,442.581,14.442,15.690
1782117417.600512,0.162000,1863162,1000,12,0,1,751.679,-8.007,13.583,443.277,10.362,15.573
1782117417.601512,0.163000,1863163,1000,12,0,1,747.427,-10.600,13.039,441.668,7.417,15.409
1782117417.602512,0.164000,1863164,1000,12,0,1,745.265,-10.810,13.042,434.918,-1.165,15.334
1782117417.603512,0.165000,1863165,1000,12,0,1,758.188,0.478,13.039,428.361,-8.000,15.376
1782117417.604512,0.166000,1863166,1000,12,0,1,780.215,21.285,13.347,403.980,-26.344,15.819
1782117417.605512,0.167000,1863167,1000,12,0,1,791.769,29.900,13.757,365.931,-57.035,17.750
1782117417.606512,0.168000,1863168,1000,12,0,1,779.327,16.397,13.890,380.728,-43.019,18.759
1782117417.607512,0.169000,1863169,1000,12,0,1,757.636,-7.087,13.909,404.580,-7.349,18.787
1782117417.608512,0.170000,1863170,1000,12,0,1,748.340,-16.018,14.079,413.972,1.739,18.784
1782117417.609512,0.171000,1863171,1000,12,0,1,751.367,-10.747,14.158,416.110,5.918,18.799
1782117417.610512,0.172000,1863172,1000,12,0,1,755.979,-3.553,14.167,415.774,4.023,18.807
1782117417.611512,0.173000,1863173,1000,12,0,1,756.099,-1.209,14.150,415.822,3.448,18.813
1782117417.612512,0.174000,1863174,1000,12,0,1,750.045,-4.877,14.068,409.504,-1.783,18.798
1782117417.613512,0.175000,1863175,1000,12,0,1,746.827,-6.874,13.961,409.384,-4.266,18.777
1782117417.614512,0.176000,1863176,1000,12,0,1,756.027,2.190,13.853,411.546,-0.166,18.725
1782117417.615512,0.177000,1863177,1000,12,0,1,769.694,15.538,13.964,411.570,-1.069,18.690
1782117417.616512,0.178000,1863178,1000,12,0,1,786.149,27.452,14.433,403.091,-6.338,18.660
1782117417.617512,0.179000,1863179,1000,12,0,1,790.376,29.216,14.997,399.007,-11.024,18.667
1782117417.618512,0.180000,1863180,1000,12,0,1,781.609,15.649,15.158,401.482,-5.562,18.664
1782117417.619512,0.181000,1863181,1000,12,0,1,771.280,2.354,15.129,407.727,1.190,18.661
1782117417.620512,0.182000,1863182,1000,12,0,1,782.618,7.181,15.159,407.030,3.425,18.601
1782117417.621512,0.183000,1863183,1000,12,0,1,798.567,21.080,15.419,400.184,-2.192,18.601
1782117417.622512,0.184000,1863184,1000,12,0,1,800.993,19.119,15.631,396.245,-4.522,18.568
1782117417.623512,0.185000,1863185,1000,12,0,1,783.963,0.961,15.587,401.169,1.328,18.511
1782117417.624512,0.186000,1863186,1000,12,0,1,766.884,-18.195,15.711,405.613,7.452,18.462
1782117417.625512,0.187000,1863187,1000,12,0,1,766.187,-18.762,15.878,407.102,8.947,18.426
1782117417.626512,0.188000,1863188,1000,12,0,1,766.980,-14.246,15.957,410.345,10.949,18.318
1782117417.627512,0.189000,1863189,1000,12,0,1,762.488,-16.432,16.084,416.302,15.187,18.148
1782117417.628512,0.190000,1863190,1000,12,0,1,762.152,-14.539,16.181,422.668,18.582,17.991
1782117417.629512,0.191000,1863191,1000,12,0,1,766.572,-8.216,16.222,423.701,17.268,17.870
1782117417.630512,0.192000,1863192,1000,12,0,1,767.605,-4.527,16.219,424.109,13.357,17.877
1782117417.631512,0.193000,1863193,1000,12,0,1,762.728,-7.545,16.214,450.051,29.731,18.365
1782117417.632512,0.194000,1863194,1000,12,0,1,760.999,-8.308,16.005,466.505,43.088,19.156
1782117417.633512,0.195000,1863195,1000,12,0,1,765.539,-2.961,15.550,468.595,34.588,19.070
1782117417.634512,0.196000,1863196,1000,12,0,1,755.234,-8.567,15.101,469.196,27.541,18.429
1782117417.635512,0.197000,1863197,1000,12,0,1,733.087,-27.375,15.218,471.790,21.765,17.886
1782117417.636512,0.198000,1863198,1000,12,0,1,732.679,-26.577,15.556,464.608,10.844,17.450
1782117417.637512,0.199000,1863199,1000,12,0,1,759.798,1.314,15.524,440.131,-14.267,17.459
1782117417.638512,0.200000,1863200,1000,12,0,1,779.183,22.128,15.189,412.099,-40.403,18.369
1782117417.639512,0.201000,1863201,1000,12,0,1,772.313,14.630,14.355,391.201,-54.356,19.900
1782117417.640512,0.202000,1863202,1000,12,0,1,753.408,-5.151,13.950,387.790,-51.386,21.170
1782117417.641512,0.203000,1863203,1000,12,0,1,755.066,-6.633,13.905,388.799,-39.818,21.895
1782117417.642512,0.204000,1863204,1000,12,0,1,773.273,11.200,13.967,391.369,-31.129,22.313
1782117417.643512,0.205000,1863205,1000,12,0,1,777.093,15.794,14.091,398.959,-17.746,22.389
1782117417.644512,0.206000,1863206,1000,12,0,1,768.926,5.787,14.065,415.630,-0.072,22.306
1782117417.645512,0.207000,1863207,1000,12,0,1,764.050,0.166,14.064,429.081,14.531,22.345
1782117417.646512,0.208000,1863208,1000,12,0,1,767.124,2.524,14.038,438.738,20.386,22.391
1782117417.647512,0.209000,1863209,1000,12,0,1,775.339,10.178,14.051,442.917,21.322,22.365
1782117417.648512,0.210000,1863210,1000,12,0,1,771.304,7.872,14.044,443.998,17.280,22.309
1782117417.649512,0.211000,1863211,1000,12,0,1,772.096,5.259,14.062,445.559,14.171,22.306
1782117417.650512,0.212000,1863212,1000,12,0,1,782.257,14.535,14.166,435.495,3.168,22.262
1782117417.651512,0.213000,1863213,1000,12,0,1,796.093,24.241,14.497,417.239,-15.925,22.351
1782117417.652512,0.214000,1863214,1000,12,0,1,796.429,23.143,14.783,401.121,-29.051,22.725
1782117417.653512,0.215000,1863215,1000,12,0,1,785.236,8.322,14.830,392.762,-33.281,23.179
1782117417.654512,0.216000,1863216,1000,12,0,1,774.739,-3.953,14.532,391.393,-28.522,23.231
1782117417.655512,0.217000,1863217,1000,12,0,1,766.716,-11.733,14.002,403.283,-13.634,21.871
1782117417.656512,0.218000,1863218,1000,12,0,1,763.161,-14.949,13.970,414.309,2.314,21.010
1782117417.657512,0.219000,1863219,1000,12,0,1,766.043,-11.232,14.024,421.707,10.000,21.032
1782117417.658512,0.220000,1863220,1000,12,0,1,770.607,-6.242,13.868,424.878,14.169,21.126
1782117417.659512,0.221000,1863221,1000,12,0,1,784.996,5.141,13.803,420.025,9.775,21.155
1782117417.660512,0.222000,1863222,1000,12,0,1,795.517,14.571,13.947,420.362,8.264,21.179
1782117417.661512,0.223000,1863223,1000,12,0,1,783.891,2.637,13.951,424.709,12.660,21.249
1782117417.662512,0.224000,1863224,1000,12,0,1,766.115,-16.421,14.126,419.977,8.213,21.279
1782117417.663512,0.225000,1863225,1000,12,0,1,764.698,-18.104,14.324,406.166,-4.521,21.280
1782117417.664512,0.226000,1863226,1000,12,0,1,767.557,-12.058,14.421,399.872,-11.117,21.338
1782117417.665512,0.227000,1863227,1000,12,0,1,768.277,-9.770,14.320,401.602,-7.355,21.363
1782117417.666512,0.228000,1863228,1000,12,0,1,767.436,-8.320,13.834,407.511,-1.328,21.345
1782117417.667512,0.229000,1863229,1000,12,0,1,771.400,-3.951,13.214,411.955,3.643,21.294
1782117417.668512,0.230000,1863230,1000,12,0,1,774.619,1.194,13.028,409.673,1.376,21.281
1782117417.669512,0.231000,1863231,1000,12,0,1,777.741,3.935,13.036,410.585,0.431,21.280
1782117417.670512,0.232000,1863232,1000,12,0,1,775.123,2.925,13.003,427.640,13.569,21.361
1782117417.671512,0.233000,1863233,1000,12,0,1,772.289,-0.481,12.657,443.926,27.293,21.705
1782117417.672512,0.234000,1863234,1000,12,0,1,767.917,-2.988,12.372,446.664,25.689,21.997
1782117417.673512,0.235000,1863235,1000,12,0,1,761.840,-7.751,12.420,444.503,18.349,22.149
1782117417.674512,0.236000,1863236,1000,12,0,1,766.932,-3.341,12.159,438.714,9.992,22.169
1782117417.675512,0.237000,1863237,1000,12,0,1,776.036,6.745,11.905,440.035,6.957,22.155
1782117417.676512,0.238000,1863238,1000,12,0,1,791.025,17.484,11.991,444.310,10.231,22.148
1782117417.677512,0.239000,1863239,1000,12,0,1,792.418,19.173,12.072,438.882,4.392,22.052
1782117417.678512,0.240000,1863240,1000,12,0,1,793.091,12.971,12.036,416.711,-14.567,21.992
1782117417.679512,0.241000,1863241,1000,12,0,1,804.548,20.042,12.310,393.891,-34.105,22.382
1782117417.680512,0.242000,1863242,1000,12,0,1,812.403,23.317,12.728,389.831,-33.645,22.804
1782117417.681512,0.243000,1863243,1000,12,0,1,812.163,18.021,12.937,396.029,-21.099,22.611
1782117417.682512,0.244000,1863244,1000,12,0,1,797.414,2.022,12.887,404.892,-8.892,21.810
1782117417.683512,0.245000,1863245,1000,12,0,1,772.937,-22.334,13.262,415.077,2.947,21.259
1782117417.684512,0.246000,1863246,1000,12,0,1,763.569,-30.741,13.903,413.732,3.520,20.905
1782117417.685512,0.247000,1863247,1000,12,0,1,770.919,-20.183,13.655,416.230,2.872,20.681
1782117417.686512,0.248000,1863248,1000,12,0,1,778.726,-8.753,13.186,419.833,6.530,20.645
1782117417.687512,0.249000,1863249,1000,12,0,1,777.885,-6.792,13.219,423.749,7.008,20.570
1782117417.688512,0.250000,1863250,1000,12,0,1,770.535,-11.417,12.945,422.187,4.799,19.772
1782117417.689512,0.251000,1863251,1000,12,0,1,762.224,-16.693,12.995,418.584,-1.377,18.217
1782117417.690512,0.252000,1863252,1000,12,0,1,762.128,-14.510,13.135,412.171,-7.287,16.737
1782117417.691512,0.253000,1863253,1000,12,0,1,762.272,-10.165,13.180,415.173,-6.418,15.787
1782117417.692512,0.254000,1863254,1000,12,0,1,755.522,-13.265,13.219,421.130,0.675,15.161
1782117417.693512,0.255000,1863255,1000,12,0,1,761.023,-8.002,13.078,426.415,4.842,14.968
1782117417.694512,0.256000,1863256,1000,12,0,1,773.922,6.486,13.084,420.986,1.448,14.969
1782117417.695512,0.257000,1863257,1000,12,0,1,782.545,13.769,13.228,410.537,-8.170,14.872
1782117417.696512,0.258000,1863258,1000,12,0,1,784.131,13.794,13.367,402.827,-12.923,14.704
1782117417.697512,0.259000,1863259,1000,12,0,1,788.334,13.698,13.429,399.680,-12.356,14.498
1782117417.698512,0.260000,1863260,1000,12,0,1,776.492,3.760,13.394,402.755,-6.395,14.319
1782117417.699512,0.261000,1863261,1000,12,0,1,762.008,-12.874,13.496,414.693,6.888,14.211
1782117417.700512,0.262000,1863262,1000,12,0,1,763.137,-11.083,13.431,418.464,13.005,14.323
1782117417.701512,0.263000,1863263,1000,12,0,1,761.407,-8.786,13.045,412.291,6.920,14.178
1782117417.702512,0.264000,1863264,1000,12,0,1,769.526,-2.551,12.633,399.272,-4.291,13.584
1782117417.703512,0.265000,1863265,1000,12,0,1,784.299,13.530,12.723,403.115,-3.011,12.749
1782117417.704512,0.266000,1863266,1000,12,0,1,780.071,10.706,12.800,412.771,8.200,12.150
1782117417.705512,0.267000,1863267,1000,12,0,1,766.307,-3.053,12.700,422.139,14.125,12.161
1782117417.706512,0.268000,1863268,1000,12,0,1,764.530,-5.093,12.543,421.923,13.000,12.295
1782117417.707512,0.269000,1863269,1000,12,0,1,775.892,6.456,12.476,405.349,-4.098,12.227
1782117417.708512,0.270000,1863270,1000,12,0,1,781.585,13.337,12.587,411.522,-4.496,12.078
1782117417.709512,0.271000,1863271,1000,12,0,1,779.951,10.344,12.650,412.939,1.544,12.001
1782117417.710512,0.272000,1863272,1000,12,0,1,776.012,5.855,12.509,422.980,3.907,11.957
1782117417.711512,0.273000,1863273,1000,12,0,1,774.931,3.329,12.512,428.481,12.095,11.945
1782117417.712512,0.274000,1863274,1000,12,0,1,776.468,4.212,12.309,431.435,9.153,11.959
1782117417.713512,0.275000,1863275,1000,12,0,1,779.447,5.656,12.067,432.732,10.268,12.030
1782117417.714512,0.276000,1863276,1000,12,0,1,785.332,9.098,12.015,428.985,4.686,11.945
1782117417.715512,0.277000,1863277,1000,12,0,1,789.415,11.052,12.037,422.884,-1.430,11.901
1782117417.716512,0.278000,1863278,1000,12,0,1,787.806,7.051,12.021,422.019,-2.224,11.904
1782117417.717512,0.279000,1863279,1000,12,0,1,780.792,-1.240,12.009,427.400,2.958,11.900
1782117417.718512,0.280000,1863280,1000,12,0,1,767.412,-13.767,12.164,437.633,12.626,12.032
1782117417.719512,0.281000,1863281,1000,12,0,1,754.465,-24.745,12.646,444.695,17.936,12.296
1782117417.720512,0.282000,1863282,1000,12,0,1,753.601,-23.468,13.067,447.793,18.475,12.423
1782117417.721512,0.283000,1863283,1000,12,0,1,756.555,-16.011,13.262,442.509,11.214,11.914
1782117417.722512,0.284000,1863284,1000,12,0,1,761.263,-9.316,13.320,449.018,11.651,11.466
1782117417.723512,0.285000,1863285,1000,12,0,1,756.243,-9.223,13.339,458.867,18.775,11.480
1782117417.724512,0.286000,1863286,1000,12,0,1,748.748,-14.738,13.493,463.551,17.859,11.669
1782117417.725512,0.287000,1863287,1000,12,0,1,757.348,-5.169,13.479,455.192,6.789,11.667
1782117417.726512,0.288000,1863288,1000,12,0,1,774.787,13.129,13.380,435.711,-14.592,11.760
1782117417.727512,0.289000,1863289,1000,12,0,1,783.506,21.457,13.449,424.950,-26.982,12.348
1782117417.728512,0.290000,1863290,1000,12,0,1,769.358,8.816,13.381,426.679,-23.928,12.636
1782117417.729512,0.291000,1863291,1000,12,0,1,754.321,-7.996,13.126,428.793,-19.930,12.015
1782117417.730512,0.292000,1863292,1000,12,0,1,756.915,-5.069,12.726,420.962,-23.940,11.540
1782117417.731512,0.293000,1863293,1000,12,0,1,765.947,4.825,12.487,411.042,-31.212,11.990
1782117417.732512,0.294000,1863294,1000,12,0,1,770.079,9.070,12.549,412.747,-26.483,12.498
1782117417.733512,0.295000,1863295,1000,12,0,1,778.102,13.836,12.302,424.037,-12.372,12.613
1782117417.734512,0.296000,1863296,1000,12,0,1,789.824,22.385,11.935,432.780,-1.020,12.604
1782117417.735512,0.297000,1863297,1000,12,0,1,789.271,19.755,11.921,437.224,3.869,12.609
1782117417.736512,0.298000,1863298,1000,12,0,1,782.089,8.636,11.919,435.759,3.599,12.586
1782117417.737512,0.299000,1863299,1000,12,0,1,778.102,2.487,11.886,438.377,4.792,12.565
1782117417.738512,0.300000,1863300,1000,12,0,1,785.164,5.908,11.805,436.864,5.339,12.569
1782117417.739512,0.301000,1863301,1000,12,0,1,788.935,9.519,11.645,445.391,10.004,12.647
1782117417.740512,0.302000,1863302,1000,12,0,1,772.313,-5.775,11.492,455.600,20.284,12.927
1782117417.741512,0.303000,1863303,1000,12,0,1,764.482,-15.958,11.622,454.783,17.181,13.122
1782117417.742512,0.304000,1863304,1000,12,0,1,772.601,-6.316,11.505,448.610,8.804,13.181
1782117417.743512,0.305000,1863305,1000,12,0,1,784.371,5.030,11.471,427.832,-9.241,13.228
1782117417.744512,0.306000,1863306,1000,12,0,1,793.139,12.801,11.577,405.565,-30.145,13.896
1782117417.745512,0.307000,1863307,1000,12,0,1,783.194,4.123,11.427,391.825,-37.629,14.836
1782117417.746512,0.308000,1863308,1000,12,0,1,748.148,-26.595,11.871,394.900,-31.021,15.362
1782117417.747512,0.309000,1863309,1000,12,0,1,732.342,-41.711,13.113,406.358,-14.046,15.391
1782117417.748512,0.310000,1863310,1000,12,0,1,741.902,-25.964,13.607,413.972,-3.879,15.375
1782117417.749512,0.311000,1863311,1000,12,0,1,763.593,-2.483,13.489,409.673,-4.906,15.359
1782117417.750512,0.312000,1863312,1000,12,0,1,786.749,20.396,13.705,409.985,-5.545,15.269
1782117417.751512,0.313000,1863313,1000,12,0,1,802.002,31.966,14.378,417.431,2.813,15.243
1782117417.752512,0.314000,1863314,1000,12,0,1,802.074,27.854,14.903,442.725,22.565,15.561
1782117417.753512,0.315000,1863315,1000,12,0,1,803.467,21.811,15.098,457.330,36.463,16.388
1782117417.754512,0.316000,1863316,1000,12,0,1,809.280,22.238,15.348,460.861,32.286,16.973
1782117417.755512,0.317000,1863317,1000,12,0,1,801.402,12.093,15.437,472.102,35.723,17.596
1782117417.756512,0.318000,1863318,1000,12,0,1,791.962,-1.975,15.423,478.996,37.145,18.271
1782117417.757512,0.319000,1863319,1000,12,0,1,786.749,-7.260,15.430,475.561,27.253,18.664
1782117417.758512,0.320000,1863320,1000,12,0,1,795.180,-2.347,15.318,457.426,7.840,18.686
1782117417.759512,0.321000,1863321,1000,12,0,1,805.725,8.527,15.295,442.845,-9.989,18.738
1782117417.760512,0.322000,1863322,1000,12,0,1,805.749,6.942,15.304,432.588,-16.543,18.875
1782117417.761512,0.323000,1863323,1000,12,0,1,791.938,-5.807,15.319,419.977,-25.404,19.138
1782117417.762512,0.324000,1863324,1000,12,0,1,774.450,-21.951,15.619,400.833,-36.541,19.781
1782117417.763512,0.325000,1863325,1000,12,0,1,775.603,-20.433,15.864,387.429,-43.557,20.667
1782117417.764512,0.326000,1863326,1000,12,0,1,786.509,-6.266,15.837,383.154,-39.008,21.380
1782117417.765512,0.327000,1863327,1000,12,0,1,787.998,-2.664,15.764,382.625,-31.735,21.845
1782117417.766512,0.328000,1863328,1000,12,0,1,779.759,-8.991,15.783,388.823,-20.452,22.034
1782117417.767512,0.329000,1863329,1000,12,0,1,769.694,-17.193,15.969,396.221,-8.418,22.062
1782117417.768512,0.330000,1863330,1000,12,0,1,758.669,-24.061,16.211,402.034,-1.367,21.990
1782117417.769512,0.331000,1863331,1000,12,0,1,754.657,-25.264,16.227,407.054,4.078,21.851
1782117417.770512,0.332000,1863332,1000,12,0,1,756.747,-18.895,16.107,415.582,10.062,21.741
1782117417.771512,0.333000,1863333,1000,12,0,1,760.374,-12.470,16.044,420.674,13.925,21.772
1782117417.772512,0.334000,1863334,1000,12,0,1,763.593,-7.007,16.021,427.064,15.622,21.822
1782117417.773512,0.335000,1863335,1000,12,0,1,765.395,-3.803,15.976,429.706,16.411,21.784
1782117417.774512,0.336000,1863336,1000,12,0,1,766.404,-1.988,15.842,433.717,15.659,21.750
1782117417.775512,0.337000,1863337,1000,12,0,1,762.752,-3.678,15.834,440.515,19.600,21.905
1782117417.776512,0.338000,1863338,1000,12,0,1,765.347,-1.923,15.727,441.764,18.664,21.967
1782117417.777512,0.339000,1863339,1000,12,0,1,770.679,5.043,15.448,437.440,12.540,21.705
1782117417.778512,0.340000,1863340,1000,12,0,1,777.285,10.397,15.468,427.616,3.568,21.446
1782117417.779512,0.341000,1863341,1000,12,0,1,780.504,13.922,15.552,428.457,2.689,21.263
1782117417.780512,0.342000,1863342,1000,12,0,1,786.533,16.958,15.719,430.955,8.230,21.024
1782117417.781512,0.343000,1863343,1000,12,0,1,782.930,14.667,15.841,432.756,9.252,20.597
1782117417.782512,0.344000,1863344,1000,12,0,1,777.741,7.067,15.820,435.567,12.539,20.331
1782117417.783512,0.345000,1863345,1000,12,0,1,773.201,3.894,15.708,427.376,5.857,20.273
1782117417.784512,0.346000,1863346,1000,12,0,1,760.206,-6.294,15.412,426.631,2.129,20.274
1782117417.785512,0.347000,1863347,1000,12,0,1,754.369,-11.502,15.244,422.644,0.952,20.268
1782117417.786512,0.348000,1863348,1000,12,0,1,763.185,-0.937,15.195,412.147,-10.189,20.312
1782117417.787512,0.349000,1863349,1000,12,0,1,772.361,9.238,15.247,405.205,-15.987,20.427
1782117417.788512,0.350000,1863350,1000,12,0,1,779.567,14.931,15.370,398.311,-20.755,20.623
1782117417.789512,0.351000,1863351,1000,12,0,1,780.696,14.608,15.450,396.413,-21.772,20.803
1782117417.790512,0.352000,1863352,1000,12,0,1,773.418,5.880,15.450,405.829,-12.250,20.677
1782117417.791512,0.353000,1863353,1000,12,0,1,768.445,-1.441,15.286,411.450,-5.261,20.547
1782117417.792512,0.354000,1863354,1000,12,0,1,766.163,-3.801,15.269,415.894,-2.819,20.513
1782117417.793512,0.355000,1863355,1000,12,0,1,764.818,-5.745,15.274,421.467,1.722,20.473
1782117417.794512,0.356000,1863356,1000,12,0,1,770.463,-1.467,15.168,424.806,3.676,20.031
1782117417.795512,0.357000,1863357,1000,12,0,1,774.667,2.835,15.162,427.184,4.603,19.322
1782117417.796512,0.358000,1863358,1000,12,0,1,772.673,0.175,14.688,429.706,6.279,18.839
1782117417.797512,0.359000,1863359,1000,12,0,1,769.334,-3.450,13.461,427.112,4.295,18.743
1782117417.798512,0.360000,1863360,1000,12,0,1,771.784,-1.791,12.953,423.292,0.990,18.736
1782117417.799512,0.361000,1863361,1000,12,0,1,774.138,1.553,12.950,426.295,4.343,18.733
1782117417.800512,0.362000,1863362,1000,12,0,1,775.531,2.592,12.630,420.314,2.795,18.721
1782117417.801512,0.363000,1863363,1000,12,0,1,772.577,1.069,11.794,424.181,4.518,18.728
1782117417.802512,0.364000,1863364,1000,12,0,1,767.436,-3.315,11.127,423.316,8.862,18.496
1782117417.803512,0.365000,1863365,1000,12,0,1,767.509,-2.506,10.696,429.586,11.173,17.833
1782117417.804512,0.366000,1863366,1000,12,0,1,771.904,2.853,10.232,437.368,20.174,17.473
1782117417.805512,0.367000,1863367,1000,12,0,1,776.444,7.455,10.143,440.371,19.387,16.950
1782117417.806512,0.368000,1863368,1000,12,0,1,774.619,6.359,10.179,438.738,15.213,16.258
1782117417.807512,0.369000,1863369,1000,12,0,1,759.846,-6.371,10.167,441.404,12.562,15.894
1782117417.808512,0.370000,1863370,1000,12,0,1,754.393,-12.827,10.322,444.935,12.103,15.948
1782117417.809512,0.371000,1863371,1000,12,0,1,774.643,5.385,10.279,444.118,7.189,15.918
1782117417.810512,0.372000,1863372,1000,12,0,1,798.759,27.547,10.949,443.374,1.331,15.746
1782117417.811512,0.373000,1863373,1000,12,0,1,801.618,27.312,11.581,441.140,-3.384,15.338
1782117417.812512,0.374000,1863374,1000,12,0,1,799.264,17.730,11.436,440.803,-7.671,14.482
1782117417.813512,0.375000,1863375,1000,12,0,1,798.591,12.767,11.211,439.194,-9.690,13.178
1782117417.814512,0.376000,1863376,1000,12,0,1,789.559,1.472,11.178,439.987,-11.189,12.072
1782117417.815512,0.377000,1863377,1000,12,0,1,790.256,-2.855,11.179,438.353,-11.213,11.318
1782117417.816512,0.378000,1863378,1000,12,0,1,794.508,1.274,11.108,432.973,-15.654,11.164
1782117417.817512,0.379000,1863379,1000,12,0,1,789.487,-4.384,10.856,423.605,-20.932,11.489
1782117417.818512,0.380000,1863380,1000,12,0,1,780.384,-12.873,10.468,413.492,-26.414,12.079
1782117417.819512,0.381000,1863381,1000,12,0,1,780.504,-12.951,10.009,397.566,-33.677,12.971
1782117417.820512,0.382000,1863382,1000,12,0,1,786.941,-4.928,9.671,396.509,-30.204,13.582
1782117417.821512,0.383000,1863383,1000,12,0,1,791.889,0.757,9.509,398.359,-18.450,13.690
1782117417.822512,0.384000,1863384,1000,12,0,1,792.298,1.707,9.460,393.939,-16.551,13.711
1782117417.823512,0.385000,1863385,1000,12,0,1,792.778,1.658,9.448,408.784,-0.786,13.514
1782117417.824512,0.386000,1863386,1000,12,0,1,786.749,-2.624,9.451,420.386,15.939,13.521
1782117417.825512,0.387000,1863387,1000,12,0,1,782.786,-7.156,9.491,426.775,19.003,13.504
1782117417.826512,0.388000,1863388,1000,12,0,1,779.423,-8.230,9.558,433.117,23.650,13.659
1782117417.827512,0.389000,1863389,1000,12,0,1,769.935,-15.077,9.767,437.104,22.747,13.920
1782117417.828512,0.390000,1863390,1000,12,0,1,759.077,-22.956,10.187,435.999,18.070,14.144
1782117417.829512,0.391000,1863391,1000,12,0,1,759.486,-20.559,10.409,436.888,13.214,14.262
1782117417.830512,0.392000,1863392,1000,12,0,1,774.907,-4.619,10.150,435.207,8.722,14.267
1782117417.831512,0.393000,1863393,1000,12,0,1,776.324,0.897,9.937,430.066,0.468,14.207
1782117417.832512,0.394000,1863394,1000,12,0,1,770.199,-6.875,9.934,430.066,-2.392,14.100
1782117417.833512,0.395000,1863395,1000,12,0,1,758.477,-14.769,10.136,421.779,-8.530,14.128
1782117417.834512,0.396000,1863396,1000,12,0,1,756.555,-17.465,10.395,415.750,-15.658,14.297
1782117417.835512,0.397000,1863397,1000,12,0,1,770.247,-2.404,10.272,413.900,-13.721,14.427
1782117417.836512,0.398000,1863398,1000,12,0,1,776.420,5.989,10.306,412.699,-12.518,14.464
1782117417.837512,0.399000,1863399,1000,12,0,1,776.420,4.868,10.246,412.699,-8.730,14.339
1782117417.838512,0.400000,1863400,1000,12,0,1,773.057,2.813,10.034,403.115,-12.399,14.145
1782117417.839512,0.401000,1863401,1000,12,0,1,758.765,-8.625,9.895,412.171,-4.418,13.820
1782117417.840512,0.402000,1863402,1000,12,0,1,749.157,-16.162,10.121,424.229,12.924,13.832
1782117417.841512,0.403000,1863403,1000,12,0,1,758.645,-5.062,10.145,425.358,13.743,13.948
1782117417.842512,0.404000,1863404,1000,12,0,1,768.397,8.565,10.203,418.656,8.498,13.994
1782117417.843512,0.405000,1863405,1000,12,0,1,776.732,15.739,10.411,414.837,3.507,14.001
1782117417.844512,0.406000,1863406,1000,12,0,1,797.991,32.628,11.386,410.489,0.816,13.992
1782117417.845512,0.407000,1863407,1000,12,0,1,800.633,35.380,12.430,410.393,-0.348,13.977
1782117417.846512,0.408000,1863408,1000,12,0,1,787.013,16.834,12.656,416.230,4.698,13.964
1782117417.847512,0.409000,1863409,1000,12,0,1,776.901,4.573,12.663,421.347,8.469,14.002
1782117417.848512,0.410000,1863410,1000,12,0,1,776.780,2.067,12.664,418.608,4.334,14.015
1782117417.849512,0.411000,1863411,1000,12,0,1,789.776,11.775,12.771,416.903,-0.107,14.002
1782117417.850512,0.412000,1863412,1000,12,0,1,798.063,18.518,13.032,417.888,-0.668,13.996
1782117417.851512,0.413000,1863413,1000,12,0,1,802.915,17.515,13.264,416.494,-2.658,13.987
1782117417.852512,0.414000,1863414,1000,12,0,1,806.758,17.239,13.478,419.113,-2.197,13.934
1782117417.853512,0.415000,1863415,1000,12,0,1,803.227,9.772,13.544,420.122,-0.393,13.844
1782117417.854512,0.416000,1863416,1000,12,0,1,799.000,1.648,13.540,421.034,-0.819,13.548
1782117417.855512,0.417000,1863417,1000,12,0,1,794.988,-3.987,13.511,423.893,2.388,13.272
1782117417.856512,0.418000,1863418,1000,12,0,1,791.793,-8.481,13.534,424.325,3.167,13.104
1782117417.857512,0.419000,1863419,1000,12,0,1,789.463,-10.501,13.586,426.727,5.138,13.003
1782117417.858512,0.420000,1863420,1000,12,0,1,797.342,-4.646,13.480,426.631,6.325,12.921
1782117417.859512,0.421000,1863421,1000,12,0,1,803.323,2.528,13.463,419.785,0.828,12.881
1782117417.860512,0.422000,1863422,1000,12,0,1,800.081,-1.253,12.888,421.659,1.844,12.883
1782117417.861512,0.423000,1863423,1000,12,0,1,792.394,-8.235,12.351,426.271,8.082,12.924
1782117417.862512,0.424000,1863424,1000,12,0,1,789.271,-11.114,12.196,428.961,9.824,12.953
1782117417.863512,0.425000,1863425,1000,12,0,1,788.358,-9.924,12.143,430.018,10.158,12.961
1782117417.864512,0.426000,1863426,1000,12,0,1,787.998,-8.898,12.206,429.033,7.621,12.909
1782117417.865512,0.427000,1863427,1000,12,0,1,787.806,-7.564,12.246,428.985,5.424,12.834
1782117417.866512,0.428000,1863428,1000,12,0,1,785.740,-7.916,12.296,428.553,3.401,12.651
1782117417.867512,0.429000,1863429,1000,12,0,1,781.128,-10.866,12.376,417.575,-7.098,12.340
1782117417.868512,0.430000,1863430,1000,12,0,1,779.903,-11.063,12.341,414.693,-12.912,11.902
1782117417.869512,0.431000,1863431,1000,12,0,1,779.567,-9.502,12.278,423.364,-4.697,10.928
1782117417.870512,0.432000,1863432,1000,12,0,1,777.957,-9.685,12.334,428.697,0.007,10.059
1782117417.871512,0.433000,1863433,1000,12,0,1,778.414,-8.477,12.392,429.754,-0.785,9.715
1782117417.872512,0.434000,1863434,1000,12,0,1,778.366,-6.967,12.429,429.874,-1.942,9.433
1782117417.873512,0.435000,1863435,1000,12,0,1,780.023,-5.268,12.449,431.507,-1.910,9.436
1782117417.874512,0.436000,1863436,1000,12,0,1,781.801,-2.443,12.448,432.684,-0.941,9.164
1782117417.875512,0.437000,1863437,1000,12,0,1,779.495,-3.801,12.419,435.399,0.559,8.761
1782117417.876512,0.438000,1863438,1000,12,0,1,778.126,-4.733,12.382,437.753,3.109,8.110
1782117417.877512,0.439000,1863439,1000,12,0,1,775.603,-5.173,12.219,430.955,-2.043,7.450
1782117417.878512,0.440000,1863440,1000,12,0,1,769.622,-8.814,11.846,430.042,-3.920,7.020
1782117417.879512,0.441000,1863441,1000,12,0,1,770.415,-6.851,11.524,432.901,1.219,6.769
1782117417.880512,0.442000,1863442,1000,12,0,1,784.467,7.191,11.550,434.918,3.467,6.673
1782117417.881512,0.443000,1863443,1000,12,0,1,795.781,19.273,11.867,431.844,2.246,6.681
1782117417.882512,0.444000,1863444,1000,12,0,1,797.006,19.008,12.129,435.831,4.201,6.698
1782117417.883512,0.445000,1863445,1000,12,0,1,791.986,12.770,12.083,436.672,6.780,6.658
1782117417.884512,0.446000,1863446,1000,12,0,1,793.235,11.005,11.930,432.372,1.227,6.282
1782117417.885512,0.447000,1863447,1000,12,0,1,794.820,12.242,12.050,430.090,-1.659,5.979
1782117417.886512,0.448000,1863448,1000,12,0,1,793.331,8.929,12.087,427.664,-4.058,5.740
1782117417.887512,0.449000,1863449,1000,12,0,1,789.559,4.453,12.083,423.917,-8.055,5.720
1782117417.888512,0.450000,1863450,1000,12,0,1,788.815,2.015,12.080,425.911,-7.051,5.535
1782117417.889512,0.451000,1863451,1000,12,0,1,787.037,0.368,12.019,427.544,-5.197,5.549
1782117417.890512,0.452000,1863452,1000,12,0,1,784.323,-3.030,11.807,430.162,-4.041,5.270
1782117417.891512,0.453000,1863453,1000,12,0,1,781.969,-5.288,11.809,432.828,-2.044,4.907
1782117417.892512,0.454000,1863454,1000,12,0,1,785.716,-2.762,11.753,430.402,-4.477,4.800
1782117417.893512,0.455000,1863455,1000,12,0,1,792.370,3.206,11.549,429.514,-6.455,4.860
1782117417.894512,0.456000,1863456,1000,12,0,1,792.370,2.940,10.596,431.411,-3.956,4.891
1782117417.895512,0.457000,1863457,1000,12,0,1,790.568,-0.703,9.340,433.429,-1.776,4.897
1782117417.896512,0.458000,1863458,1000,12,0,1,791.673,-0.390,9.032,434.246,-0.048,4.852
1782117417.897512,0.459000,1863459,1000,12,0,1,792.466,-0.178,9.009,430.835,-1.950,4.710
1782117417.898512,0.460000,1863460,1000,12,0,1,790.592,-1.916,9.008,433.645,0.477,4.670
1782117417.899512,0.461000,1863461,1000,12,0,1,790.736,-2.436,8.860,434.582,4.054,4.705
1782117417.900512,0.462000,1863462,1000,12,0,1,789.992,-2.083,8.469,435.615,4.551,4.748
1782117417.901512,0.463000,1863463,1000,12,0,1,788.286,-3.470,8.113,428.265,0.674,4.734
1782117417.902512,0.464000,1863464,1000,12,0,1,792.298,0.230,7.739,419.425,-7.666,4.847
1782117417.903512,0.465000,1863465,1000,12,0,1,805.389,11.523,7.787,426.967,-0.495,4.847
1782117417.904512,0.466000,1863466,1000,12,0,1,809.857,16.111,8.110,430.523,6.085,4.922
1782117417.905512,0.467000,1863467,1000,12,0,1,808.920,11.716,8.258,431.387,4.637,4.954
1782117417.906512,0.468000,1863468,1000,12,0,1,806.470,7.892,8.246,430.354,4.160,4.968
1782117417.907512,0.469000,1863469,1000,12,0,1,808.992,6.974,8.171,432.276,2.989,4.933
1782117417.908512,0.470000,1863470,1000,12,0,1,809.737,6.947,8.204,431.988,2.703,4.866
1782117417.909512,0.471000,1863471,1000,12,0,1,805.389,0.924,8.197,427.424,-3.433,4.889
1782117417.910512,0.472000,1863472,1000,12,0,1,803.395,-2.842,8.205,402.418,-23.227,5.884
1782117417.911512,0.473000,1863473,1000,12,0,1,799.240,-6.347,8.171,413.204,-19.636,6.405
1782117417.912512,0.474000,1863474,1000,12,0,1,793.619,-12.169,8.201,432.516,5.970,6.310
1782117417.913512,0.475000,1863475,1000,12,0,1,794.748,-10.944,8.227,432.564,4.472,6.176
1782117417.914512,0.476000,1863476,1000,12,0,1,802.483,-3.644,8.147,428.745,0.120,6.082
1782117417.915512,0.477000,1863477,1000,12,0,1,803.852,-1.102,8.078,430.835,1.315,6.036
1782117417.916512,0.478000,1863478,1000,12,0,1,803.179,-3.353,8.014,432.612,3.413,6.036
1782117417.917512,0.479000,1863479,1000,12,0,1,801.354,-4.451,7.890,432.612,3.998,5.979
1782117417.918512,0.480000,1863480,1000,12,0,1,799.240,-6.804,7.793,430.402,2.135,5.701
1782117417.919512,0.481000,1863481,1000,12,0,1,800.705,-5.121,7.711,430.811,3.229,5.681
1782117417.920512,0.482000,1863482,1000,12,0,1,799.864,-4.513,7.615,429.826,3.337,5.700
1782117417.921512,0.483000,1863483,1000,12,0,1,798.423,-5.666,7.562,427.472,2.158,5.707
1782117417.922512,0.484000,1863484,1000,12,0,1,797.823,-4.861,7.529,427.664,2.460,5.711
1782117417.923512,0.485000,1863485,1000,12,0,1,800.465,-2.152,7.499,428.841,4.558,5.741
1782117417.924512,0.486000,1863486,1000,12,0,1,798.159,-2.043,7.496,432.828,7.163,5.829
1782117417.925512,0.487000,1863487,1000,12,0,1,795.661,-4.647,7.506,436.792,10.440,6.012
1782117417.926512,0.488000,1863488,1000,12,0,1,800.081,0.095,7.476,418.945,-4.486,6.029
1782117417.927512,0.489000,1863489,1000,12,0,1,797.871,0.135,7.440,407.415,-18.635,6.574
1782117417.928512,0.490000,1863490,1000,12,0,1,791.914,-5.694,7.379,441.716,9.641,6.691
1782117417.929512,0.491000,1863491,1000,12,0,1,785.500,-9.702,7.443,443.806,19.067,7.212
1782117417.930512,0.492000,1863492,1000,12,0,1,786.173,-8.830,7.478,444.767,7.589,7.275
1782117417.931512,0.493000,1863493,1000,12,0,1,795.228,0.978,6.965,453.750,16.759,7.644
1782117417.932512,0.494000,1863494,1000,12,0,1,799.744,6.215,6.485,444.767,4.639,7.649
1782117417.933512,0.495000,1863495,1000,12,0,1,803.443,7.744,6.324,442.004,-2.637,7.598
1782117417.934512,0.496000,1863496,1000,12,0,1,802.579,6.867,6.206,438.690,-4.310,7.621
1782117417.935512,0.497000,1863497,1000,12,0,1,802.675,4.231,5.990,439.506,-6.464,7.672
1782117417.936512,0.498000,1863498,1000,12,0,1,807.911,7.905,5.961,429.898,-10.437,7.791
1782117417.937512,0.499000,1863499,1000,12,0,1,812.379,10.506,6.111,418.296,-21.892,8.306
1782117417.938512,0.500000,1863500,1000,12,0,1,809.713,6.898,6.181,413.972,-20.652,8.748
1782117417.939512,0.501000,1863501,1000,12,0,1,809.569,4.016,6.207,409.408,-20.284,9.177
1782117417.940512,0.502000,1863502,1000,12,0,1,803.588,-0.483,6.193,410.465,-15.145,9.406
1782117417.941512,0.503000,1863503,1000,12,0,1,792.034,-11.367,6.354,420.866,-2.038,9.406
1782117417.942512,0.504000,1863504,1000,12,0,1,781.777,-18.657,6.869,427.880,7.554,9.446
1782117417.943512,0.505000,1863505,1000,12,0,1,782.329,-16.127,7.224,430.282,9.815,9.503
1782117417.944512,0.506000,1863506,1000,12,0,1,797.919,0.209,7.212,433.789,11.791,9.632
1782117417.945512,0.507000,1863507,1000,12,0,1,817.063,19.035,7.697,440.347,15.814,9.885
1782117417.946512,0.508000,1863508,1000,12,0,1,825.855,25.557,8.503,445.079,17.502,10.190
1782117417.947512,0.509000,1863509,1000,12,0,1,822.516,19.250,8.928,444.767,13.956,10.376
1782117417.948512,0.510000,1863510,1000,12,0,1,808.176,3.415,8.937,443.758,8.878,10.452
1782117417.949512,0.511000,1863511,1000,12,0,1,792.706,-12.481,9.103,446.352,7.813,10.494
1782117417.950512,0.512000,1863512,1000,12,0,1,784.179,-19.560,9.510,448.754,7.205,10.524
1782117417.951512,0.513000,1863513,1000,12,0,1,792.946,-11.027,9.624,451.949,6.829,10.568
1782117417.952512,0.514000,1863514,1000,12,0,1,803.564,1.711,9.627,455.048,7.119,10.560
1782117417.953512,0.515000,1863515,1000,12,0,1,807.671,4.864,9.513,454.831,4.717,10.581
1782117417.954512,0.516000,1863516,1000,12,0,1,799.192,-2.170,9.242,455.048,2.519,10.552
1782117417.955512,0.517000,1863517,1000,12,0,1,789.463,-12.424,9.260,454.591,1.326,10.533
1782117417.956512,0.518000,1863518,1000,12,0,1,788.647,-12.121,9.351,453.823,-0.378,10.517
1782117417.957512,0.519000,1863519,1000,12,0,1,793.787,-5.712,9.334,451.661,-2.007,10.512
1782117417.958512,0.520000,1863520,1000,12,0,1,800.753,1.567,9.285,455.456,0.450,10.505
1782117417.959512,0.521000,1863521,1000,12,0,1,804.717,5.895,9.321,459.948,5.527,10.523
1782117417.960512,0.522000,1863522,1000,12,0,1,802.435,3.521,9.326,458.891,4.068,10.014
1782117417.961512,0.523000,1863523,1000,12,0,1,797.751,-0.960,9.283,457.786,1.864,9.625
1782117417.962512,0.524000,1863524,1000,12,0,1,802.098,1.827,9.126,455.408,-0.415,9.588
1782117417.963512,0.525000,1863525,1000,12,0,1,803.467,5.127,9.023,453.558,-3.261,9.578
1782117417.964512,0.526000,1863526,1000,12,0,1,801.594,2.164,9.014,454.255,-3.048,9.588
1782117417.965512,0.527000,1863527,1000,12,0,1,801.594,2.426,9.019,454.255,-3.654,9.600
1782117417.966512,0.528000,1863528,1000,12,0,1,801.594,2.350,9.012,454.255,-4.730,9.611
1782117417.967512,0.529000,1863529,1000,12,0,1,808.031,6.904,9.043,462.542,0.413,9.595
1782117417.968512,0.530000,1863530,1000,12,0,1,801.234,3.065,9.002,463.839,1.831,9.593
1782117417.969512,0.531000,1863531,1000,12,0,1,794.051,-6.539,9.021,465.785,-0.758,9.583
1782117417.970512,0.532000,1863532,1000,12,0,1,793.379,-5.374,9.030,463.863,-2.544,9.578
1782117417.971512,0.533000,1863533,1000,12,0,1,797.702,-1.791,8.998,460.140,-8.577,9.650
1782117417.972512,0.534000,1863534,1000,12,0,1,793.835,-2.823,8.981,459.732,-9.135,9.730
1782117417.973512,0.535000,1863535,1000,12,0,1,792.034,-6.098,9.017,459.155,-9.139,9.794
1782117417.974512,0.536000,1863536,1000,12,0,1,796.886,-0.687,9.013,458.459,-9.243,9.829
1782117417.975512,0.537000,1863537,1000,12,0,1,800.321,2.803,8.998,458.218,-7.910,9.781
1782117417.976512,0.538000,1863538,1000,12,0,1,795.997,-0.933,8.999,461.053,-4.611,9.783
1782117417.977512,0.539000,1863539,1000,12,0,1,782.786,-11.931,9.155,466.385,1.780,9.424
1782117417.978512,0.540000,1863540,1000,12,0,1,778.174,-16.522,9.414,468.019,4.128,9.343
1782117417.979512,0.541000,1863541,1000,12,0,1,793.907,-0.684,9.314,459.467,-2.159,8.951
1782117417.980512,0.542000,1863542,1000,12,0,1,813.028,18.044,9.577,452.093,-9.123,8.980
1782117417.981512,0.543000,1863543,1000,12,0,1,822.804,25.339,10.224,450.556,-8.223,8.739
1782117417.982512,0.544000,1863544,1000,12,0,1,822.972,21.942,10.648,452.381,-4.955,8.742
1782117417.983512,0.545000,1863545,1000,12,0,1,820.162,15.357,10.812,455.168,-0.923,8.735
1782117417.984512,0.546000,1863546,1000,12,0,1,823.837,14.576,10.964,454.855,-0.383,8.714
1782117417.985512,0.547000,1863547,1000,12,0,1,816.799,8.083,11.007,456.369,0.108,8.666
1782117417.986512,0.548000,1863548,1000,12,0,1,812.067,-0.673,10.951,460.260,3.290,8.552
1782117417.987512,0.549000,1863549,1000,12,0,1,810.289,-1.273,10.851,462.734,4.251,7.995
1782117417.988512,0.550000,1863550,1000,12,0,1,810.337,-2.575,10.813,462.710,2.735,7.452
1782117417.989512,0.551000,1863551,1000,12,0,1,810.313,-1.824,10.801,459.948,-1.262,6.880
1782117417.990512,0.552000,1863552,1000,12,0,1,814.877,0.982,10.802,458.338,-4.119,6.564
1782117417.991512,0.553000,1863553,1000,12,0,1,817.231,3.515,10.693,458.146,-4.548,6.590
1782117417.992512,0.554000,1863554,1000,12,0,1,819.609,3.570,10.375,459.948,-3.242,6.519
1782117417.993512,0.555000,1863555,1000,12,0,1,815.045,-0.576,10.122,463.071,-0.174,6.369
1782117417.994512,0.556000,1863556,1000,12,0,1,810.121,-7.109,10.171,462.206,-0.269,6.147
1782117417.995512,0.557000,1863557,1000,12,0,1,807.287,-9.411,9.899,458.675,-3.207,5.744
1782117417.996512,0.558000,1863558,1000,12,0,1,807.887,-8.951,9.302,459.395,-2.051,5.191
1782117417.997512,0.559000,1863559,1000,12,0,1,808.968,-7.230,8.953,461.581,1.557,4.806
1782117417.998512,0.560000,1863560,1000,12,0,1,812.571,-4.129,8.959,469.772,8.578,4.795
1782117417.999512,0.561000,1863561,1000,12,0,1,812.355,-3.518,8.797,477.075,15.967,5.184
1782117418.000512,0.562000,1863562,1000,12,0,1,798.663,-14.278,8.592,488.989,23.258,6.054
1782117418.001512,0.563000,1863563,1000,12,0,1,785.692,-25.702,9.198,501.696,32.213,7.515
1782117418.002512,0.564000,1863564,1000,12,0,1,790.256,-18.936,9.577,506.644,31.625,8.687
1782117418.003512,0.565000,1863565,1000,12,0,1,806.110,-1.344,9.554,505.227,24.333,9.320
1782117418.004512,0.566000,1863566,1000,12,0,1,819.729,12.784,9.719,493.505,9.445,9.408
1782117418.005512,0.567000,1863567,1000,12,0,1,814.277,8.889,9.641,481.879,-6.108,9.446
1782117418.006512,0.568000,1863568,1000,12,0,1,804.861,-2.187,9.492,470.541,-16.576,9.733
1782117418.007512,0.569000,1863569,1000,12,0,1,805.677,-1.403,9.460,463.407,-23.787,10.294
1782117418.008512,0.570000,1863570,1000,12,0,1,812.595,5.369,9.488,463.551,-21.733,10.742
1782117418.009512,0.571000,1863571,1000,12,0,1,820.522,12.187,9.607,459.515,-22.300,11.168
1782117418.010512,0.572000,1863572,1000,12,0,1,825.374,15.395,9.838,459.131,-21.762,11.570
1782117418.011512,0.573000,1863573,1000,12,0,1,826.023,13.609,10.023,464.680,-13.948,11.734
1782117418.012512,0.574000,1863574,1000,12,0,1,814.901,2.845,10.028,471.262,-6.630,11.772
1782117418.013512,0.575000,1863575,1000,12,0,1,809.016,-5.823,10.036,474.432,-2.468,11.768
1782117418.014512,0.576000,1863576,1000,12,0,1,813.508,-1.117,10.032,466.626,-8.162,11.816
1782117418.015512,0.577000,1863577,1000,12,0,1,818.216,3.098,10.036,457.786,-15.908,12.018
1782117418.016512,0.578000,1863578,1000,12,0,1,816.391,1.418,10.032,460.380,-11.857,12.116
1782117418.017512,0.579000,1863579,1000,12,0,1,816.919,-0.037,9.985,463.695,-5.185,12.138
1782117418.018512,0.580000,1863580,1000,12,0,1,831.187,10.630,10.088,453.510,-10.881,12.232
1782117418.019512,0.581000,1863581,1000,12,0,1,841.060,19.226,10.407,437.200,-22.903,12.653
1782117418.020512,0.582000,1863582,1000,12,0,1,839.330,13.665,10.558,426.463,-27.928,13.250
1782117418.021512,0.583000,1863583,1000,12,0,1,823.285,-2.266,10.559,428.361,-20.963,13.524
1782117418.022512,0.584000,1863584,1000,12,0,1,810.193,-17.148,10.827,438.401,-6.135,13.490
1782117418.023512,0.585000,1863585,1000,12,0,1,806.734,-18.264,11.097,445.463,4.367,13.442
1782117418.024512,0.586000,1863586,1000,12,0,1,812.283,-11.861,11.223,438.978,1.548,13.380
1782117418.025512,0.587000,1863587,1000,12,0,1,823.549,0.166,11.216,429.442,-6.508,13.365
1782117418.026512,0.588000,1863588,1000,12,0,1,823.909,2.523,11.221,423.220,-9.436,13.415
1782117418.027512,0.589000,1863589,1000,12,0,1,813.532,-7.344,11.142,428.385,-3.518,13.422
1782117418.028512,0.590000,1863590,1000,12,0,1,803.515,-15.443,11.111,435.134,5.866,13.435
1782117418.029512,0.591000,1863591,1000,12,0,1,807.191,-11.656,11.232,431.411,3.871,13.443
1782117418.030512,0.592000,1863592,1000,12,0,1,809.449,-5.253,10.964,431.892,3.071,13.388
1782117418.031512,0.593000,1863593,1000,12,0,1,806.686,-7.205,10.411,434.654,7.211,13.376
1782117418.032512,0.594000,1863594,1000,12,0,1,805.677,-6.572,9.982,438.810,9.922,13.431
1782117418.033512,0.595000,1863595,1000,12,0,1,809.809,-2.235,9.748,439.891,11.672,13.532
1782117418.034512,0.596000,1863596,1000,12,0,1,819.802,6.965,9.578,442.965,12.415,13.645
1782117418.035512,0.597000,1863597,1000,12,0,1,821.771,9.563,9.605,444.430,14.085,13.790
1782117418.036512,0.598000,1863598,1000,12,0,1,820.690,5.806,9.640,443.470,11.784,13.882
1782117418.037512,0.599000,1863599,1000,12,0,1,822.612,6.531,9.682,443.205,10.927,13.955
1782117418.038512,0.600000,1863600,1000,12,0,1,829.458,10.346,9.785,448.682,14.543,14.100
1782117418.039512,0.601000,1863601,1000,12,0,1,833.421,13.049,9.954,447.962,14.499,14.248
1782117418.040512,0.602000,1863602,1000,12,0,1,829.073,7.000,10.003,437.609,4.327,14.249
1782117418.041512,0.603000,1863603,1000,12,0,1,818.528,-3.692,10.004,434.558,0.100,14.234
1782117418.042512,0.604000,1863604,1000,12,0,1,811.779,-10.515,10.101,436.720,3.693,14.237
1782117418.043512,0.605000,1863605,1000,12,0,1,816.535,-5.681,10.133,440.467,6.594,14.267
1782117418.044512,0.606000,1863606,1000,12,0,1,814.877,-3.718,10.096,443.446,9.407,14.329
1782117418.045512,0.607000,1863607,1000,12,0,1,804.284,-12.509,10.163,444.575,8.794,14.376
1782117418.046512,0.608000,1863608,1000,12,0,1,801.978,-13.370,10.260,446.905,9.004,14.429
1782117418.047512,0.609000,1863609,1000,12,0,1,806.110,-6.601,10.252,447.577,7.872,14.470
1782117418.048512,0.610000,1863610,1000,12,0,1,808.584,-2.167,10.240,449.259,6.524,14.449
1782117418.049512,0.611000,1863611,1000,12,0,1,815.838,4.332,10.246,445.055,1.864,14.274
1782117418.050512,0.612000,1863612,1000,12,0,1,822.708,11.176,10.168,441.860,-3.984,13.901
1782117418.051512,0.613000,1863613,1000,12,0,1,822.420,9.729,9.596,440.899,-4.863,13.151
1782117418.052512,0.614000,1863614,1000,12,0,1,816.463,2.918,9.224,440.371,-5.972,12.396
1782117418.053512,0.615000,1863615,1000,12,0,1,812.523,-2.217,9.227,442.317,-4.224,11.924
1782117418.054512,0.616000,1863616,1000,12,0,1,806.494,-6.824,9.100,448.346,0.956,11.850
1782117418.055512,0.617000,1863617,1000,12,0,1,811.226,-4.207,9.032,451.445,4.112,11.832
1782117418.056512,0.618000,1863618,1000,12,0,1,817.327,3.494,9.040,453.006,4.359,11.614
1782117418.057512,0.619000,1863619,1000,12,0,1,811.010,-1.924,9.042,449.283,1.317,11.118
1782117418.058512,0.620000,1863620,1000,12,0,1,807.311,-6.568,9.058,449.211,-0.254,10.685
1782117418.059512,0.621000,1863621,1000,12,0,1,812.811,-0.728,8.893,457.546,7.152,10.259
1782117418.060512,0.622000,1863622,1000,12,0,1,823.140,8.485,8.705,456.873,7.730,9.847
1782117418.061512,0.623000,1863623,1000,12,0,1,828.305,13.411,8.699,461.629,8.167,9.716
1782117418.062512,0.624000,1863624,1000,12,0,1,832.653,14.312,8.923,466.866,13.456,9.856
1782117418.063512,0.625000,1863625,1000,12,0,1,835.991,15.834,9.162,472.415,14.351,10.057
1782117418.064512,0.626000,1863626,1000,12,0,1,834.310,11.832,9.313,478.636,17.640,10.297
1782117418.065512,0.627000,1863627,1000,12,0,1,836.160,10.343,9.417,480.485,15.361,10.281
1782117418.066512,0.628000,1863628,1000,12,0,1,839.787,12.025,9.567,475.417,7.324,10.196
1782117418.067512,0.629000,1863629,1000,12,0,1,830.971,3.343,9.578,475.441,2.663,10.177
1782117418.068512,0.630000,1863630,1000,12,0,1,829.458,-1.967,9.464,473.784,-0.120,10.060
1782117418.069512,0.631000,1863631,1000,12,0,1,836.184,4.439,9.087,464.752,-10.069,9.630
1782117418.070512,0.632000,1863632,1000,12,0,1,832.388,1.037,8.880,458.555,-17.146,9.111
1782117418.071512,0.633000,1863633,1000,12,0,1,822.972,-8.988,8.965,456.633,-17.694,8.971
1782117418.072512,0.634000,1863634,1000,12,0,1,823.669,-9.283,8.730,454.663,-18.152,9.291
1782117418.073512,0.635000,1863635,1000,12,0,1,829.578,-3.053,8.350,447.241,-21.873,9.773
1782117418.074512,0.636000,1863636,1000,12,0,1,830.178,-2.117,8.185,444.334,-23.268,10.310
1782117418.075512,0.637000,1863637,1000,12,0,1,826.768,-5.968,8.229,448.250,-15.992,10.515
1782117418.076512,0.638000,1863638,1000,12,0,1,811.971,-17.393,8.581,458.290,-5.182,10.455
1782117418.077512,0.639000,1863639,1000,12,0,1,799.288,-28.795,9.441,465.352,3.619,10.456
1782117418.078512,0.640000,1863640,1000,12,0,1,791.793,-30.541,10.150,474.408,10.151,10.521
1782117418.079512,0.641000,1863641,1000,12,0,1,792.754,-26.154,10.677,477.099,12.980,10.666
1782117418.080512,0.642000,1863642,1000,12,0,1,795.781,-17.451,10.933,474.624,7.969,10.717
1782117418.081512,0.643000,1863643,1000,12,0,1,805.990,-6.164,10.920,463.311,-2.025,10.672
1782117418.082512,0.644000,1863644,1000,12,0,1,815.622,6.051,10.914,452.261,-13.085,10.740
1782117418.083512,0.645000,1863645,1000,12,0,1,818.793,9.179,10.986,454.879,-10.017,10.707
1782117418.084512,0.646000,1863646,1000,12,0,1,824.486,12.842,11.092,461.533,-1.260,10.563
1782117418.085512,0.647000,1863647,1000,12,0,1,825.038,13.693,11.178,458.819,-2.274,10.379
1782117418.086512,0.648000,1863648,1000,12,0,1,820.738,7.615,11.200,444.767,-13.230,10.413
1782117418.087512,0.649000,1863649,1000,12,0,1,820.955,6.784,11.203,429.730,-25.301,10.902
1782117418.088512,0.650000,1863650,1000,12,0,1,831.980,14.693,11.300,419.065,-30.249,11.529
1782117418.089512,0.651000,1863651,1000,12,0,1,845.095,25.497,11.717,415.317,-28.773,12.053
1782117418.090512,0.652000,1863652,1000,12,0,1,837.289,17.357,11.930,425.238,-15.230,12.229
1782117418.091512,0.653000,1863653,1000,12,0,1,828.281,3.825,11.931,432.756,-2.784,12.235
1782117418.092512,0.654000,1863654,1000,12,0,1,826.335,1.666,11.840,432.396,-1.262,12.225
1782117418.093512,0.655000,1863655,1000,12,0,1,819.321,-4.459,11.830,432.708,0.118,12.190
1782117418.094512,0.656000,1863656,1000,12,0,1,806.950,-14.808,12.002,440.635,7.380,12.162
1782117418.095512,0.657000,1863657,1000,12,0,1,798.279,-21.036,12.238,447.986,14.818,12.278
1782117418.096512,0.658000,1863658,1000,12,0,1,806.950,-11.903,12.208,448.370,14.218,12.376
1782117418.097512,0.659000,1863659,1000,12,0,1,826.071,7.896,12.223,445.367,10.003,12.407
1782117418.098512,0.660000,1863660,1000,12,0,1,835.895,17.050,12.455,443.638,7.410,12.417
1782117418.099512,0.661000,1863661,1000,12,0,1,835.223,13.712,12.590,451.012,12.373,12.537
1782117418.100512,0.662000,1863662,1000,12,0,1,827.464,4.301,12.505,453.510,15.642,12.718
1782117418.101512,0.663000,1863663,1000,12,0,1,821.675,-3.493,12.439,452.069,11.798,12.809
1782117418.102512,0.664000,1863664,1000,12,0,1,836.880,7.024,12.472,445.055,5.930,12.808
1782117418.103512,0.665000,1863665,1000,12,0,1,854.031,22.676,12.874,441.260,0.757,12.795
1782117418.104512,0.666000,1863666,1000,12,0,1,841.901,10.431,12.922,446.256,5.760,12.820
1782117418.105512,0.667000,1863667,1000,12,0,1,816.415,-16.241,13.111,455.816,14.038,12.960
1782117418.106512,0.668000,1863668,1000,12,0,1,806.158,-25.829,13.601,449.259,9.331,13.012
1782117418.107512,0.669000,1863669,1000,12,0,1,805.918,-21.705,13.941,440.803,-1.559,13.013
1782117418.108512,0.670000,1863670,1000,12,0,1,800.657,-21.478,14.238,442.653,-0.054,13.013
1782117418.109512,0.671000,1863671,1000,12,0,1,804.909,-15.631,14.408,438.401,-2.196,12.977
1782117418.110512,0.672000,1863672,1000,12,0,1,811.779,-4.263,14.370,438.209,-4.454,12.946
1782117418.111512,0.673000,1863673,1000,12,0,1,826.119,8.223,14.292,440.395,-0.735,12.895
1782117418.112512,0.674000,1863674,1000,12,0,1,831.091,15.544,14.318,444.358,1.171,12.755
1782117418.113512,0.675000,1863675,1000,12,0,1,834.983,14.671,14.293,447.577,4.305,12.607
1782117418.114512,0.676000,1863676,1000,12,0,1,842.093,19.594,14.463,444.695,0.541,12.358
1782117418.115512,0.677000,1863677,1000,12,0,1,838.297,14.044,14.525,439.410,-5.120,12.187
1782117418.116512,0.678000,1863678,1000,12,0,1,832.484,4.617,14.440,432.588,-10.752,12.238
1782117418.117512,0.679000,1863679,1000,12,0,1,831.211,2.026,14.435,425.959,-15.621,12.430
1782117418.118512,0.680000,1863680,1000,12,0,1,830.683,0.025,14.432,424.709,-14.670,12.602
1782117418.119512,0.681000,1863681,1000,12,0,1,822.684,-6.460,14.447,428.961,-8.292,12.576
1782117418.120512,0.682000,1863682,1000,12,0,1,813.940,-15.201,14.606,431.700,-2.878,12.347
1782117418.121512,0.683000,1863683,1000,12,0,1,817.664,-11.048,14.634,428.577,-3.698,12.102
1782117418.122512,0.684000,1863684,1000,12,0,1,814.685,-9.727,14.640,423.821,-6.310,11.860
1782117418.123512,0.685000,1863685,1000,12,0,1,813.940,-10.919,14.715,425.790,-3.198,11.458
1782117418.124512,0.686000,1863686,1000,12,0,1,818.480,-4.029,14.723,424.205,-1.107,10.977
1782117418.125512,0.687000,1863687,1000,12,0,1,828.545,4.831,14.714,421.995,-2.498,10.747
1782117418.126512,0.688000,1863688,1000,12,0,1,829.194,7.548,14.546,419.737,-1.999,10.726
1782117418.127512,0.689000,1863689,1000,12,0,1,825.615,2.166,13.968,418.344,-2.214,10.718
1782117418.128512,0.690000,1863690,1000,12,0,1,823.837,0.727,13.284,417.575,-1.082,10.623
1782117418.129512,0.691000,1863691,1000,12,0,1,823.212,0.046,12.759,423.965,4.561,10.483
1782117418.130512,0.692000,1863692,1000,12,0,1,821.051,-1.380,12.519,425.022,7.480,10.476
1782117418.131512,0.693000,1863693,1000,12,0,1,821.099,-1.334,12.490,425.526,5.905,10.505
1782117418.132512,0.694000,1863694,1000,12,0,1,822.540,0.443,12.461,428.985,8.632,10.412
1782117418.133512,0.695000,1863695,1000,12,0,1,824.053,2.027,12.397,429.754,8.404,10.384
1782117418.134512,0.696000,1863696,1000,12,0,1,821.339,-0.098,12.263,429.826,6.657,10.425
1782117418.135512,0.697000,1863697,1000,12,0,1,820.498,-1.537,12.111,431.219,6.838,10.465
1782117418.136512,0.698000,1863698,1000,12,0,1,824.486,1.969,12.066,429.706,4.589,10.317
1782117418.137512,0.699000,1863699,1000,12,0,1,826.984,4.493,12.045,424.541,-0.445,9.676
1782117418.138512,0.700000,1863700,1000,12,0,1,827.368,3.736,11.876,428.865,1.677,8.683
1782117418.139512,0.701000,1863701,1000,12,0,1,824.654,1.101,11.316,431.700,6.251,7.721
1782117418.140512,0.702000,1863702,1000,12,0,1,816.847,-6.066,11.080,431.820,4.843,7.446
1782117418.141512,0.703000,1863703,1000,12,0,1,813.292,-9.447,11.147,432.372,5.578,7.477
1782117418.142512,0.704000,1863704,1000,12,0,1,813.292,-7.589,11.196,435.038,6.957,7.540
1782117418.143512,0.705000,1863705,1000,12,0,1,813.004,-6.361,11.215,435.158,7.277,7.609
1782117418.144512,0.706000,1863706,1000,12,0,1,813.172,-4.835,11.039,436.744,7.083,7.604
1782117418.145512,0.707000,1863707,1000,12,0,1,814.757,-2.250,10.635,436.095,6.480,7.367
1782117418.146512,0.708000,1863708,1000,12,0,1,823.861,5.700,10.532,434.678,3.717,7.106
1782117418.147512,0.709000,1863709,1000,12,0,1,838.898,18.780,10.804,432.588,1.412,6.967
1782117418.148512,0.710000,1863710,1000,12,0,1,841.877,20.740,10.932,427.880,-3.079,6.901
1782117418.149512,0.711000,1863711,1000,12,0,1,838.514,13.394,10.924,421.779,-8.625,6.786
1782117418.150512,0.712000,1863712,1000,12,0,1,831.283,5.318,10.933,427.376,-4.497,6.447
1782117418.151512,0.713000,1863713,1000,12,0,1,823.236,-3.897,10.936,430.763,0.650,6.228
1782117418.152512,0.714000,1863714,1000,12,0,1,813.484,-11.677,11.015,428.601,-2.445,6.181
1782117418.153512,0.715000,1863715,1000,12,0,1,805.605,-17.699,10.831,432.204,-0.474,6.181
1782117418.154512,0.716000,1863716,1000,12,0,1,809.569,-12.522,10.876,433.357,1.164,6.129
1782117418.155512,0.717000,1863717,1000,12,0,1,811.923,-6.238,10.667,435.639,0.981,5.800
1782117418.156512,0.718000,1863718,1000,12,0,1,814.613,-3.702,10.036,435.158,1.128,5.650
1782117418.157512,0.719000,1863719,1000,12,0,1,816.463,0.115,9.555,437.296,0.692,5.647
1782117418.158512,0.720000,1863720,1000,12,0,1,821.051,3.227,9.071,440.155,3.713,5.671
1782117418.159512,0.721000,1863721,1000,12,0,1,823.573,6.385,8.843,442.413,4.263,5.695
1782117418.160512,0.722000,1863722,1000,12,0,1,823.765,5.009,8.851,441.620,3.459,5.681
1782117418.161512,0.723000,1863723,1000,12,0,1,827.344,6.862,8.828,441.524,2.049,5.687
1782117418.162512,0.724000,1863724,1000,12,0,1,831.283,9.409,8.653,439.482,0.625,5.686
1782117418.163512,0.725000,1863725,1000,12,0,1,829.194,6.268,8.447,433.525,-4.497,5.689
1782117418.164512,0.726000,1863726,1000,12,0,1,832.629,6.431,8.031,429.562,-7.751,5.793
1782117418.165512,0.727000,1863727,1000,12,0,1,834.886,8.275,7.869,419.161,-13.756,6.068
1782117418.166512,0.728000,1863728,1000,12,0,1,831.980,3.840,7.861,411.979,-19.424,6.485
1782117418.167512,0.729000,1863729,1000,12,0,1,826.647,-1.772,7.860,412.435,-14.937,6.452
1782117418.168512,0.730000,1863730,1000,12,0,1,822.083,-6.114,7.907,412.843,-11.329,6.316
1782117418.169512,0.731000,1863731,1000,12,0,1,819.802,-7.509,7.926,414.693,-7.450,6.295
1782117418.170512,0.732000,1863732,1000,12,0,1,819.321,-6.560,7.685,420.698,-0.695,6.283
1782117418.171512,0.733000,1863733,1000,12,0,1,820.066,-4.790,7.555,423.004,2.723,6.273
1782117418.172512,0.734000,1863734,1000,12,0,1,822.011,-1.897,7.433,420.746,0.314,6.209
1782117418.173512,0.735000,1863735,1000,12,0,1,824.125,0.520,7.271,420.674,-0.503,6.193
1782117418.174512,0.736000,1863736,1000,12,0,1,821.723,-0.724,7.250,421.227,0.262,6.191
1782117418.175512,0.737000,1863737,1000,12,0,1,817.111,-5.057,7.253,425.478,2.974,6.195
1782117418.176512,0.738000,1863738,1000,12,0,1,812.211,-8.402,7.272,428.529,6.115,6.249
1782117418.177512,0.739000,1863739,1000,12,0,1,810.121,-9.545,7.389,421.587,-0.131,6.241
1782117418.178512,0.740000,1863740,1000,12,0,1,804.717,-11.699,7.572,425.911,1.130,6.242
1782117418.179512,0.741000,1863741,1000,12,0,1,806.974,-9.696,7.695,435.303,11.321,6.411
1782117418.180512,0.742000,1863742,1000,12,0,1,819.105,3.008,7.704,435.110,10.614,6.499
1782117418.181512,0.743000,1863743,1000,12,0,1,820.402,6.033,7.749,435.951,9.321,6.579
1782117418.182512,0.744000,1863744,1000,12,0,1,813.052,-1.909,7.753,438.738,11.431,6.663
1782117418.183512,0.745000,1863745,1000,12,0,1,807.047,-7.004,7.811,440.827,11.891,6.769
1782117418.184512,0.746000,1863746,1000,12,0,1,813.556,-1.798,7.815,442.124,11.973,6.914
1782117418.185512,0.747000,1863747,1000,12,0,1,833.181,16.127,8.138,449.283,15.584,7.192
1782117418.186512,0.748000,1863748,1000,12,0,1,849.107,29.447,9.138,455.312,19.709,7.686
1782117418.187512,0.749000,1863749,1000,12,0,1,858.259,32.958,10.238,456.489,17.114,8.057
1782117418.188512,0.750000,1863750,1000,12,0,1,862.606,31.609,11.159,452.021,10.258,8.183
1782117418.189512,0.751000,1863751,1000,12,0,1,855.833,20.855,11.541,443.974,0.036,8.136
1782117418.190512,0.752000,1863752,1000,12,0,1,841.036,3.282,11.519,444.815,-2.284,8.113
1782117418.191512,0.753000,1863753,1000,12,0,1,830.611,-8.545,11.504,442.004,-3.991,8.094
1782117418.192512,0.754000,1863754,1000,12,0,1,828.065,-10.524,11.551,436.480,-11.085,8.186
1782117418.193512,0.755000,1863755,1000,12,0,1,821.747,-13.619,11.675,433.069,-13.635,8.347
1782117418.194512,0.756000,1863756,1000,12,0,1,833.013,-5.297,11.679,424.589,-19.856,8.749
1782117418.195512,0.757000,1863757,1000,12,0,1,848.386,11.703,11.792,423.220,-20.972,9.193
1782117418.196512,0.758000,1863758,1000,12,0,1,855.592,15.514,11.967,424.974,-15.827,9.447
1782117418.197512,0.759000,1863759,1000,12,0,1,853.647,11.565,11.783,430.595,-10.101,9.552
1782117418.198512,0.760000,1863760,1000,12,0,1,851.221,4.978,11.433,434.438,-3.980,9.559
1782117418.199512,0.761000,1863761,1000,12,0,1,849.035,0.875,11.276,425.911,-9.985,9.585
1782117418.200512,0.762000,1863762,1000,12,0,1,841.708,-7.101,11.296,425.935,-10.834,9.686
1782117418.201512,0.763000,1863763,1000,12,0,1,833.349,-15.933,11.505,428.505,-4.573,9.707
1782117418.202512,0.764000,1863764,1000,12,0,1,834.983,-14.718,11.575,413.276,-14.926,9.928
1782117418.203512,0.765000,1863765,1000,12,0,1,834.526,-12.780,11.444,405.037,-21.717,10.392
1782117418.204512,0.766000,1863766,1000,12,0,1,826.551,-18.618,11.609,406.694,-14.544,10.592
1782117418.205512,0.767000,1863767,1000,12,0,1,819.802,-23.115,12.028,411.186,-6.946,10.637
1782117418.206512,0.768000,1863768,1000,12,0,1,825.014,-16.347,12.237,404.244,-7.657,10.691
1782117418.207512,0.769000,1863769,1000,12,0,1,829.890,-7.882,12.288,399.920,-10.734,10.797
1782117418.208512,0.770000,1863770,1000,12,0,1,828.545,-7.206,12.322,410.321,1.442,10.786
1782117418.209512,0.771000,1863771,1000,12,0,1,825.422,-8.316,12.345,415.341,9.458,10.852
1782117418.210512,0.772000,1863772,1000,12,0,1,834.382,-0.117,12.324,419.017,11.170,10.956
1782117418.211512,0.773000,1863773,1000,12,0,1,841.588,9.148,12.354,421.275,13.689,11.122
1782117418.212512,0.774000,1863774,1000,12,0,1,835.055,3.529,12.292,423.917,13.325,11.280
1782117418.213512,0.775000,1863775,1000,12,0,1,827.512,-4.140,12.274,426.343,14.421,11.445
1782117418.214512,0.776000,1863776,1000,12,0,1,817.736,-10.450,12.329,431.748,15.889,11.612
1782117418.215512,0.777000,1863777,1000,12,0,1,820.450,-8.541,12.333,437.921,19.262,11.768
1782117418.216512,0.778000,1863778,1000,12,0,1,830.106,3.752,12.332,438.810,17.066,11.694
1782117418.217512,0.779000,1863779,1000,12,0,1,839.643,11.728,12.441,420.770,0.159,11.502
1782117418.218512,0.780000,1863780,1000,12,0,1,844.879,16.100,12.618,396.437,-23.211,11.853
1782117418.219512,0.781000,1863781,1000,12,0,1,847.449,15.362,12.759,420.506,-5.142,11.829
1782117418.220512,0.782000,1863782,1000,12,0,1,848.867,14.030,12.879,424.782,10.253,11.917
1782117418.221512,0.783000,1863783,1000,12,0,1,846.801,9.673,12.934,422.283,0.628,11.911
1782117418.222512,0.784000,1863784,1000,12,0,1,841.516,2.561,12.936,416.566,0.956,11.912
1782117418.223512,0.785000,1863785,1000,12,0,1,835.343,-4.067,12.949,410.850,-6.788,11.950
1782117418.224512,0.786000,1863786,1000,12,0,1,819.081,-17.119,13.173,413.035,-2.348,11.955
1782117418.225512,0.787000,1863787,1000,12,0,1,804.308,-29.351,13.793,415.798,1.633,11.949
1782117418.226512,0.788000,1863788,1000,12,0,1,788.479,-37.171,14.713,423.581,7.625,11.967
1782117418.227512,0.789000,1863789,1000,12,0,1,782.017,-38.235,15.617,424.637,10.480,12.058
1782117418.228512,0.790000,1863790,1000,12,0,1,793.595,-21.022,15.811,423.196,5.541,12.083
1782117418.229512,0.791000,1863791,1000,12,0,1,824.870,10.706,15.824,414.044,-0.976,11.977
1782117418.230512,0.792000,1863792,1000,12,0,1,845.696,33.032,16.494,409.000,-8.793,11.947
1782117418.231512,0.793000,1863793,1000,12,0,1,844.110,28.584,16.960,412.531,-3.762,11.886
1782117418.232512,0.794000,1863794,1000,12,0,1,844.639,22.994,17.267,417.311,0.226,11.776
1782117418.233512,0.795000,1863795,1000,12,0,1,849.083,24.154,17.574,419.449,2.424,11.660
1782117418.234512,0.796000,1863796,1000,12,0,1,843.510,15.986,17.717,417.575,0.049,11.537
1782117418.235512,0.797000,1863797,1000,12,0,1,840.579,8.918,17.615,417.455,-1.199,11.325
1782117418.236512,0.798000,1863798,1000,12,0,1,842.021,8.484,17.157,415.894,-1.887,10.980
1782117418.237512,0.799000,1863799,1000,12,0,1,843.270,7.690,16.548,415.750,-2.823,10.718
1782117418.238512,0.800000,1863800,1000,12,0,1,847.017,8.763,15.981,419.977,1.546,10.621
1782117418.239512,0.801000,1863801,1000,12,0,1,847.161,7.922,15.746,421.491,3.425,10.632
1782117418.240512,0.802000,1863802,1000,12,0,1,842.477,1.666,15.741,421.034,2.716,10.634
1782117418.241512,0.803000,1863803,1000,12,0,1,838.730,-2.833,15.700,423.701,4.622,10.639
1782117418.242512,0.804000,1863804,1000,12,0,1,836.496,-5.056,15.645,423.196,4.869,10.546
1782117418.243512,0.805000,1863805,1000,12,0,1,835.007,-6.065,15.550,424.229,4.462,10.387
1782117418.244512,0.806000,1863806,1000,12,0,1,838.273,-3.299,15.539,424.541,5.299,10.029
1782117418.245512,0.807000,1863807,1000,12,0,1,837.961,-2.177,15.454,422.956,3.024,9.589
1782117418.246512,0.808000,1863808,1000,12,0,1,838.874,-2.630,15.302,421.971,1.800,9.328
1782117418.247512,0.809000,1863809,1000,12,0,1,839.739,-1.107,15.215,419.737,-0.217,9.218
1782117418.248512,0.810000,1863810,1000,12,0,1,838.850,-2.586,15.203,423.220,1.536,9.203
1782117418.249512,0.811000,1863811,1000,12,0,1,840.820,-1.479,15.204,422.548,2.124,9.099
1782117418.250512,0.812000,1863812,1000,12,0,1,838.730,-2.705,15.176,425.646,1.993,8.974
1782117418.251512,0.813000,1863813,1000,12,0,1,841.732,-2.122,15.010,425.502,2.866,8.960
1782117418.252512,0.814000,1863814,1000,12,0,1,840.195,-1.646,14.867,428.937,2.497,8.715
1782117418.253512,0.815000,1863815,1000,12,0,1,824.942,-15.127,14.911,435.399,7.845,8.231
1782117418.254512,0.816000,1863816,1000,12,0,1,807.623,-29.109,15.243,442.605,11.305,8.128
1782117418.255512,0.817000,1863817,1000,12,0,1,804.500,-29.112,15.447,451.853,16.431,8.397
1782117418.256512,0.818000,1863818,1000,12,0,1,805.245,-21.918,15.585,441.524,6.593,8.379
1782117418.257512,0.819000,1863819,1000,12,0,1,815.045,-10.552,15.616,428.120,-10.552,8.374
1782117418.258512,0.820000,1863820,1000,12,0,1,837.985,12.501,15.683,445.199,2.152,8.377
1782117418.259512,0.821000,1863821,1000,12,0,1,850.572,25.403,16.046,452.670,12.403,8.454
1782117418.260512,0.822000,1863822,1000,12,0,1,849.899,21.306,16.327,456.441,10.072,8.426
1782117418.261512,0.823000,1863823,1000,12,0,1,850.140,17.773,16.468,446.040,2.605,8.209
1782117418.262512,0.824000,1863824,1000,12,0,1,843.510,10.296,16.525,431.387,-14.338,8.243
1782117418.263512,0.825000,1863825,1000,12,0,1,833.469,-1.160,16.515,420.698,-21.217,8.532
1782117418.264512,0.826000,1863826,1000,12,0,1,837.289,0.404,16.449,411.210,-26.777,9.060
1782117418.265512,0.827000,1863827,1000,12,0,1,837.192,2.799,16.409,412.459,-22.682,9.217
1782117418.266512,0.828000,1863828,1000,12,0,1,814.253,-16.164,16.559,423.508,-8.375,8.974
1782117418.267512,0.829000,1863829,1000,12,0,1,787.974,-38.195,17.339,436.528,4.804,8.999
1782117418.268512,0.830000,1863830,1000,12,0,1,810.722,-17.972,17.376,436.504,6.770,8.434
1782117418.269512,0.831000,1863831,1000,12,0,1,838.442,16.665,17.400,431.772,-0.466,8.403
1782117418.270512,0.832000,1863832,1000,12,0,1,840.099,17.038,17.453,428.793,-3.010,8.288
1782117418.271512,0.833000,1863833,1000,12,0,1,856.433,25.567,17.771,416.855,-12.967,8.488
1782117418.272512,0.834000,1863834,1000,12,0,1,875.602,41.083,18.694,407.943,-21.042,8.993
1782117418.273512,0.835000,1863835,1000,12,0,1,871.470,31.594,19.212,409.649,-17.046,9.261
1782117418.274512,0.836000,1863836,1000,12,0,1,859.195,13.452,19.153,415.438,-9.119,9.344
1782117418.275512,0.837000,1863837,1000,12,0,1,849.947,0.779,18.698,420.794,-2.412,9.348
1782117418.276512,0.838000,1863838,1000,12,0,1,846.945,-4.250,17.954,417.215,-3.507,9.299
1782117418.277512,0.839000,1863839,1000,12,0,1,852.325,-0.830,17.121,419.065,-2.844,9.189
1782117418.278512,0.840000,1863840,1000,12,0,1,852.518,0.122,16.861,423.388,3.489,9.168
1782117418.279512,0.841000,1863841,1000,12,0,1,847.209,-6.029,16.814,428.601,7.672,9.231
1782117418.280512,0.842000,1863842,1000,12,0,1,842.789,-9.768,16.211,433.525,12.548,9.318
1782117418.281512,0.843000,1863843,1000,12,0,1,842.381,-9.717,15.759,442.389,18.470,9.662
1782117418.282512,0.844000,1863844,1000,12,0,1,837.697,-11.425,15.505,458.699,30.461,10.579
1782117418.283512,0.845000,1863845,1000,12,0,1,833.733,-14.323,15.259,470.133,37.763,11.846
1782117418.284512,0.846000,1863846,1000,12,0,1,833.013,-12.463,15.193,481.590,40.563,13.162
1782117418.285512,0.847000,1863847,1000,12,0,1,835.871,-8.327,15.186,485.986,39.333,14.288
1782117418.286512,0.848000,1863848,1000,12,0,1,829.674,-10.483,15.211,484.041,29.134,14.868
1782117418.287512,0.849000,1863849,1000,12,0,1,828.017,-12.467,15.274,478.876,18.681,15.095
1782117418.288512,0.850000,1863850,1000,12,0,1,841.588,0.914,15.224,455.336,-5.234,15.112
1782117418.289512,0.851000,1863851,1000,12,0,1,860.324,17.813,15.391,427.352,-33.260,15.819
1782117418.290512,0.852000,1863852,1000,12,0,1,866.450,21.885,15.697,404.724,-49.772,17.310
1782117418.291512,0.853000,1863853,1000,12,0,1,860.901,12.760,15.795,399.560,-50.243,18.701
1782117418.292512,0.854000,1863854,1000,12,0,1,852.830,1.954,15.782,406.142,-35.981,19.368
1782117418.293512,0.855000,1863855,1000,12,0,1,845.624,-5.979,15.781,415.630,-22.070,19.608
1782117418.294512,0.856000,1863856,1000,12,0,1,844.231,-8.230,15.817,415.870,-16.316,19.729
1782117418.295512,0.857000,1863857,1000,12,0,1,841.372,-8.793,15.863,407.222,-21.429,19.956
1782117418.296512,0.858000,1863858,1000,12,0,1,824.678,-21.138,16.138,406.910,-19.942,20.153
1782117418.297512,0.859000,1863859,1000,12,0,1,813.604,-29.622,16.672,411.810,-11.373,20.217
1782117418.298512,0.860000,1863860,1000,12,0,1,825.278,-15.489,16.811,413.108,-7.758,20.245
1782117418.299512,0.861000,1863861,1000,12,0,1,847.425,8.528,16.853,409.048,-8.799,20.281
1782117418.300512,0.862000,1863862,1000,12,0,1,858.691,20.332,17.092,407.559,-8.975,20.319
1782117418.301512,0.863000,1863863,1000,12,0,1,860.372,19.345,17.307,416.326,0.678,20.315
1782117418.302512,0.864000,1863864,1000,12,0,1,858.283,14.944,17.434,415.702,3.955,20.320
1782117418.303512,0.865000,1863865,1000,12,0,1,860.060,13.086,17.401,408.928,-2.048,20.292
1782117418.304512,0.866000,1863866,1000,12,0,1,852.758,6.360,16.931,412.339,2.104,20.231
1782117418.305512,0.867000,1863867,1000,12,0,1,846.440,-2.774,16.428,417.095,9.135,20.138
1782117418.306512,0.868000,1863868,1000,12,0,1,853.358,2.495,16.136,413.180,7.205,20.142
1782117418.307512,0.869000,1863869,1000,12,0,1,859.700,8.376,16.111,415.630,8.661,20.124
1782117418.308512,0.870000,1863870,1000,12,0,1,857.082,4.483,16.026,416.518,11.883,20.192
1782117418.309512,0.871000,1863871,1000,12,0,1,851.797,-1.993,15.621,412.555,7.932,20.147
1782117418.310512,0.872000,1863872,1000,12,0,1,850.068,-4.819,15.343,412.819,7.925,20.128
1782117418.311512,0.873000,1863873,1000,12,0,1,849.515,-4.952,15.151,422.019,15.367,20.241
1782117418.312512,0.874000,1863874,1000,12,0,1,851.869,-3.507,15.090,429.682,21.671,20.371
1782117418.313512,0.875000,1863875,1000,12,0,1,853.190,-1.525,15.090,436.239,23.818,20.429
1782117418.314512,0.876000,1863876,1000,12,0,1,851.269,-3.571,15.099,438.449,22.545,20.326
1782117418.315512,0.877000,1863877,1000,12,0,1,859.556,2.253,15.097,434.606,14.761,20.180
1782117418.316512,0.878000,1863878,1000,12,0,1,861.189,5.653,14.944,436.239,11.129,20.207
1782117418.317512,0.879000,1863879,1000,12,0,1,859.075,1.007,13.934,431.892,6.063,20.213
1782117418.318512,0.880000,1863880,1000,12,0,1,862.486,3.494,13.710,428.889,-1.183,20.191
1782117418.319512,0.881000,1863881,1000,12,0,1,856.553,-0.955,13.506,430.835,-0.089,20.191
1782117418.320512,0.882000,1863882,1000,12,0,1,850.956,-7.788,13.335,419.473,-9.562,20.232
1782117418.321512,0.883000,1863883,1000,12,0,1,858.259,-1.046,12.836,406.598,-22.019,20.388
1782117418.322512,0.884000,1863884,1000,12,0,1,874.425,12.963,11.592,394.804,-28.424,20.566
1782117418.323512,0.885000,1863885,1000,12,0,1,866.738,8.262,10.760,395.332,-25.705,20.746
1782117418.324512,0.886000,1863886,1000,12,0,1,841.708,-17.070,10.862,402.707,-12.833,20.785
1782117418.325512,0.887000,1863887,1000,12,0,1,838.297,-21.261,11.270,401.938,-9.278,20.823
1782117418.326512,0.888000,1863888,1000,12,0,1,836.616,-16.605,11.496,400.280,-8.553,20.853
1782117418.327512,0.889000,1863889,1000,12,0,1,834.694,-17.416,11.757,407.679,0.044,20.849
1782117418.328512,0.890000,1863890,1000,12,0,1,835.703,-12.394,11.887,410.489,5.535,20.858
1782117418.329512,0.891000,1863891,1000,12,0,1,835.511,-10.471,11.948,412.747,6.751,20.851
1782117418.330512,0.892000,1863892,1000,12,0,1,835.199,-8.447,11.928,415.702,9.729,20.821
1782117418.331512,0.893000,1863893,1000,12,0,1,837.216,-5.161,11.871,416.182,9.212,20.698
1782117418.332512,0.894000,1863894,1000,12,0,1,840.147,-1.105,11.761,415.173,7.033,20.269
1782117418.333512,0.895000,1863895,1000,12,0,1,840.147,0.116,11.586,415.173,5.721,19.569
1782117418.334512,0.896000,1863896,1000,12,0,1,832.701,-5.371,11.476,416.494,5.577,18.726
1782117418.335512,0.897000,1863897,1000,12,0,1,838.778,-1.343,11.417,416.230,4.590,17.893
1782117418.336512,0.898000,1863898,1000,12,0,1,853.478,13.711,11.485,420.434,6.022,17.433
1782117418.337512,0.899000,1863899,1000,12,0,1,861.237,19.939,11.694,423.893,8.822,17.276
1782117418.338512,0.900000,1863900,1000,12,0,1,858.451,15.564,11.899,423.989,6.747,17.287
1782117418.339512,0.901000,1863901,1000,12,0,1,855.808,10.087,11.716,426.847,7.366,16.667
1782117418.340512,0.902000,1863902,1000,12,0,1,855.112,8.254,11.360,427.712,7.247,15.143
1782117418.341512,0.903000,1863903,1000,12,0,1,850.908,4.041,11.231,426.871,4.665,13.389
1782117418.342512,0.904000,1863904,1000,12,0,1,846.080,-1.067,11.228,426.247,3.261,12.392
1782117418.343512,0.905000,1863905,1000,12,0,1,841.588,-4.112,11.211,429.682,4.870,12.013
1782117418.344512,0.906000,1863906,1000,12,0,1,838.778,-5.968,11.183,434.150,8.485,11.850
1782117418.345512,0.907000,1863907,1000,12,0,1,838.538,-4.538,11.132,438.353,10.462,11.551
1782117418.346512,0.908000,1863908,1000,12,0,1,839.066,-2.810,10.730,435.783,7.423,11.251
1782117418.347512,0.909000,1863909,1000,12,0,1,844.351,2.189,9.884,434.390,3.223,11.144
1782117418.348512,0.910000,1863910,1000,12,0,1,846.248,5.027,9.664,440.539,7.180,11.137
1782117418.349512,0.911000,1863911,1000,12,0,1,850.020,6.345,9.630,443.157,8.667,11.135
1782117418.350512,0.912000,1863912,1000,12,0,1,856.265,11.120,9.325,439.266,2.797,11.069
1782117418.351512,0.913000,1863913,1000,12,0,1,860.901,12.873,9.098,438.281,-0.569,11.069
1782117418.352512,0.914000,1863914,1000,12,0,1,860.901,10.523,8.974,438.281,-1.574,11.057
1782117418.353512,0.915000,1863915,1000,12,0,1,852.446,0.986,8.782,417.335,-18.336,11.353
1782117418.354512,0.916000,1863916,1000,12,0,1,833.661,-16.318,9.035,418.392,-22.379,11.782
1782117418.355512,0.917000,1863917,1000,12,0,1,830.178,-20.911,9.499,428.913,-6.721,11.750
1782117418.356512,0.918000,1863918,1000,12,0,1,845.263,-4.579,9.514,430.787,-5.644,11.733
1782117418.357512,0.919000,1863919,1000,12,0,1,859.436,9.957,9.545,429.105,-6.366,11.703
1782117418.358512,0.920000,1863920,1000,12,0,1,859.436,10.000,9.628,424.685,-10.032,11.669
1782117418.359512,0.921000,1863921,1000,12,0,1,851.509,1.146,9.625,422.043,-12.064,11.739
1782117418.360512,0.922000,1863922,1000,12,0,1,848.242,-2.978,9.610,425.478,-7.604,11.735
1782117418.361512,0.923000,1863923,1000,12,0,1,846.585,-3.144,9.595,424.661,-6.258,11.566
1782117418.362512,0.924000,1863924,1000,12,0,1,841.180,-6.926,9.632,427.424,-3.796,11.165
1782117418.363512,0.925000,1863925,1000,12,0,1,832.124,-12.956,9.803,434.150,3.342,10.656
1782117418.364512,0.926000,1863926,1000,12,0,1,829.698,-13.841,9.983,435.927,5.704,10.199
1782117418.365512,0.927000,1863927,1000,12,0,1,837.265,-4.362,9.997,432.949,2.359,9.989
1782117418.366512,0.928000,1863928,1000,12,0,1,843.390,3.495,9.978,428.120,-1.672,9.867
1782117418.367512,0.929000,1863929,1000,12,0,1,841.396,2.448,9.983,418.272,-9.357,9.919
1782117418.368512,0.930000,1863930,1000,12,0,1,844.639,3.671,9.984,418.945,-8.881,9.996
1782117418.369512,0.931000,1863931,1000,12,0,1,840.748,2.046,9.987,425.959,0.254,9.996
1782117418.370512,0.932000,1863932,1000,12,0,1,842.717,0.467,9.926,427.544,2.865,9.913
1782117418.371512,0.933000,1863933,1000,12,0,1,851.437,8.916,10.005,428.481,3.130,9.421
1782117418.372512,0.934000,1863934,1000,12,0,1,847.353,5.108,9.862,429.105,3.857,8.538
1782117418.373512,0.935000,1863935,1000,12,0,1,842.789,-1.992,9.797,429.946,3.531,7.742
1782117418.374512,0.936000,1863936,1000,12,0,1,847.593,1.857,9.498,429.394,2.870,7.537
1782117418.375512,0.937000,1863937,1000,12,0,1,849.995,4.123,9.029,430.114,2.061,7.428
1782117418.376512,0.938000,1863938,1000,12,0,1,848.098,1.678,8.721,432.132,3.435,7.345
1782117418.377512,0.939000,1863939,1000,12,0,1,850.524,2.480,8.374,431.435,2.110,7.351
1782117418.378512,0.940000,1863940,1000,12,0,1,850.164,3.100,8.200,427.640,-1.878,7.314
1782117418.379512,0.941000,1863941,1000,12,0,1,844.903,-2.134,8.071,428.505,-2.132,7.257
1782117418.380512,0.942000,1863942,1000,12,0,1,841.276,-4.950,8.012,430.474,0.379,7.126
1782117418.381512,0.943000,1863943,1000,12,0,1,839.955,-4.906,8.009,431.844,1.212,7.008
1782117418.382512,0.944000,1863944,1000,12,0,1,845.624,0.636,8.008,430.330,0.306,6.937
1782117418.383512,0.945000,1863945,1000,12,0,1,847.113,4.232,8.031,432.540,1.284,6.892
1782117418.384512,0.946000,1863946,1000,12,0,1,844.519,1.170,7.996,436.816,5.598,6.893
1782117418.385512,0.947000,1863947,1000,12,0,1,846.753,2.850,8.004,434.702,3.877,6.884
1782117418.386512,0.948000,1863948,1000,12,0,1,850.764,6.374,7.818,432.036,0.307,6.831
1782117418.387512,0.949000,1863949,1000,12,0,1,851.773,6.487,7.349,432.372,0.820,6.717
1782117418.388512,0.950000,1863950,1000,12,0,1,850.620,4.078,7.035,438.161,5.131,6.689
1782117418.389512,0.951000,1863951,1000,12,0,1,850.956,2.676,6.900,443.638,10.133,6.761
1782117418.390512,0.952000,1863952,1000,12,0,1,852.325,2.822,6.812,455.888,17.521,7.127
1782117418.391512,0.953000,1863953,1000,12,0,1,856.169,4.363,6.816,461.749,21.800,7.737
1782117418.392512,0.954000,1863954,1000,12,0,1,859.436,6.105,6.869,465.473,19.022,8.178
1782117418.393512,0.955000,1863955,1000,12,0,1,856.361,1.942,6.850,473.471,21.812,8.714
1782117418.394512,0.956000,1863956,1000,12,0,1,847.834,-6.808,6.865,481.879,23.937,9.271
1782117418.395512,0.957000,1863957,1000,12,0,1,843.990,-11.062,7.012,483.368,20.146,9.585
1782117418.396512,0.958000,1863958,1000,12,0,1,848.482,-6.194,7.055,468.139,2.674,9.535
1782117418.397512,0.959000,1863959,1000,12,0,1,853.286,-0.456,7.049,447.697,-19.752,9.925
1782117418.398512,0.960000,1863960,1000,12,0,1,854.607,1.039,7.014,430.162,-34.145,10.991
1782117418.399512,0.961000,1863961,1000,12,0,1,856.986,2.750,6.968,415.870,-43.461,12.533
1782117418.400512,0.962000,1863962,1000,12,0,1,859.123,4.720,6.820,406.093,-45.864,14.106
1782117418.401512,0.963000,1863963,1000,12,0,1,849.755,-2.592,6.583,415.005,-33.015,14.859
1782117418.402512,0.964000,1863964,1000,12,0,1,836.232,-14.907,6.750,421.947,-17.802,15.069
1782117418.403512,0.965000,1863965,1000,12,0,1,833.733,-15.705,7.105,416.903,-18.472,15.072
1782117418.404512,0.966000,1863966,1000,12,0,1,830.731,-13.840,6.999,412.867,-18.667,14.971
1782117418.405512,0.967000,1863967,1000,12,0,1,828.689,-13.819,6.638,410.225,-16.606,15.124
1782117418.406512,0.968000,1863968,1000,12,0,1,829.025,-10.033,6.757,413.708,-10.913,15.182
1782117418.407512,0.969000,1863969,1000,12,0,1,836.376,-2.487,6.618,414.693,-5.409,15.174
1782117418.408512,0.970000,1863970,1000,12,0,1,848.554,9.698,6.609,418.993,-1.291,15.109
1782117418.409512,0.971000,1863971,1000,12,0,1,848.794,10.502,6.772,419.137,2.225,15.015
1782117418.410512,0.972000,1863972,1000,12,0,1,836.736,-1.928,6.764,420.458,2.332,14.980
1782117418.411512,0.973000,1863973,1000,12,0,1,820.738,-16.054,7.121,422.740,6.007,14.978
1782117418.412512,0.974000,1863974,1000,12,0,1,823.236,-14.621,7.350,421.587,4.966,14.985
1782117418.413512,0.975000,1863975,1000,12,0,1,846.921,8.675,7.223,412.411,-1.924,14.980
1782117418.414512,0.976000,1863976,1000,12,0,1,861.549,23.349,7.697,407.847,-6.155,14.984
1782117418.415512,0.977000,1863977,1000,12,0,1,859.075,18.234,8.094,408.664,-2.685,14.985
1782117418.416512,0.978000,1863978,1000,12,0,1,856.313,11.759,8.248,418.392,6.819,15.014
1782117418.417512,0.979000,1863979,1000,12,0,1,854.007,8.218,8.323,422.379,13.144,15.071
1782117418.418512,0.980000,1863980,1000,12,0,1,856.313,7.854,8.380,421.803,11.458,15.105
1782117418.419512,0.981000,1863981,1000,12,0,1,858.859,9.937,8.493,421.659,11.129,15.187
1782117418.420512,0.982000,1863982,1000,12,0,1,859.484,8.885,8.585,420.314,9.708,15.244
1782117418.421512,0.983000,1863983,1000,12,0,1,853.190,3.270,8.504,421.395,9.531,15.297
1782117418.422512,0.984000,1863984,1000,12,0,1,850.956,-0.699,8.474,419.569,8.560,15.335
1782117418.423512,0.985000,1863985,1000,12,0,1,852.638,1.723,8.473,420.554,7.336,15.362
1782117418.424512,0.986000,1863986,1000,12,0,1,851.485,0.848,8.470,420.914,8.312,15.401
1782117418.425512,0.987000,1863987,1000,12,0,1,849.779,-1.104,8.451,419.905,5.645,15.419
1782117418.426512,0.988000,1863988,1000,12,0,1,850.836,-0.385,8.448,418.464,4.023,15.422
1782117418.427512,0.989000,1863989,1000,12,0,1,852.061,0.411,8.441,421.347,4.794,15.434
1782117418.428512,0.990000,1863990,1000,12,0,1,853.358,0.779,8.430,423.605,6.658,15.461
1782117418.429512,0.991000,1863991,1000,12,0,1,851.605,-1.425,8.427,424.157,5.347,15.476
1782117418.430512,0.992000,1863992,1000,12,0,1,852.061,-2.688,8.407,425.598,5.132,15.493
1782117418.431512,0.993000,1863993,1000,12,0,1,850.836,-3.779,8.395,427.640,5.560,15.512
1782117418.432512,0.994000,1863994,1000,12,0,1,852.782,-3.785,8.411,426.991,3.772,15.521
1782117418.433512,0.995000,1863995,1000,12,0,1,852.350,-3.510,8.405,429.538,4.049,15.531
1782117418.434512,0.996000,1863996,1000,12,0,1,852.734,-4.610,8.428,430.691,4.702,15.525
1782117418.435512,0.997000,1863997,1000,12,0,1,851.773,-4.655,8.445,428.529,1.539,15.517
1782117418.436512,0.998000,1863998,1000,12,0,1,850.644,-5.953,8.438,426.199,-1.259,15.518
1782117418.437512,0.999000,1863999,1000,12,0,1,851.317,-4.612,8.414,420.242,-5.830,15.539
1782117418.438512,1.000000,1864000,1000,12,0,1,853.334,-1.966,8.398,425.694,-2.557,15.526
1782117418.439512,1.001000,1864001,1000,12,0,1,850.428,-3.070,8.401,426.823,1.930,15.462
1782117418.440512,1.002000,1864002,1000,12,0,1,849.875,-3.462,8.406,428.385,0.955,15.263
1782117418.441512,1.003000,1864003,1000,12,0,1,849.347,-1.908,8.388,428.601,2.836,14.954
1782117418.442512,1.004000,1864004,1000,12,0,1,849.659,-0.995,8.344,430.162,2.347,14.714
1782117418.443512,1.005000,1864005,1000,12,0,1,847.906,-0.863,8.341,430.114,2.865,14.393
1782117418.444512,1.006000,1864006,1000,12,0,1,848.698,-0.102,8.285,427.760,-0.355,13.989
1782117418.445512,1.007000,1864007,1000,12,0,1,851.317,3.172,8.148,423.989,-3.988,13.707
1782117418.446512,1.008000,1864008,1000,12,0,1,851.941,3.859,8.119,427.232,-2.192,13.705
1782117418.447512,1.009000,1864009,1000,12,0,1,849.995,1.659,8.122,429.466,0.561,13.418
1782117418.448512,1.010000,1864010,1000,12,0,1,850.212,0.956,8.122,423.845,-4.610,12.536
1782117418.449512,1.011000,1864011,1000,12,0,1,849.467,0.155,8.113,423.701,-6.499,10.964
1782117418.450512,1.012000,1864012,1000,12,0,1,849.251,-1.031,8.087,430.306,0.161,8.840
1782117418.451512,1.013000,1864013,1000,12,0,1,850.980,-0.100,8.078,431.916,1.620,7.510
1782117418.452512,1.014000,1864014,1000,12,0,1,850.884,-0.419,7.799,430.811,-0.356,7.076
1782117418.453512,1.015000,1864015,1000,12,0,1,849.995,-2.151,7.482,429.129,-2.278,6.584
1782117418.454512,1.016000,1864016,1000,12,0,1,849.083,-2.968,7.234,430.066,-1.955,6.038
1782117418.455512,1.017000,1864017,1000,12,0,1,851.004,-1.810,6.969,431.459,-0.280,5.562
1782117418.456512,1.018000,1864018,1000,12,0,1,848.554,-2.575,6.833,434.630,2.066,5.352
1782117418.457512,1.019000,1864019,1000,12,0,1,846.873,-4.705,6.856,436.648,4.128,5.329
1782117418.458512,1.020000,1864020,1000,12,0,1,852.686,1.214,6.720,435.855,2.893,5.342
1782117418.459512,1.021000,1864021,1000,12,0,1,856.913,6.226,6.613,432.564,-0.207,5.332
1782117418.460512,1.022000,1864022,1000,12,0,1,855.016,4.519,6.638,431.507,-1.589,5.327
1782117418.461512,1.023000,1864023,1000,12,0,1,854.319,3.253,6.255,431.579,-0.892,5.260
1782117418.462512,1.024000,1864024,1000,12,0,1,853.166,2.816,5.916,429.994,-1.867,5.220
1782117418.463512,1.025000,1864025,1000,12,0,1,852.157,1.714,5.793,431.075,-1.193,5.215
1782117418.464512,1.026000,1864026,1000,12,0,1,851.437,1.479,4.764,427.232,-3.090,5.161
1782117418.465512,1.027000,1864027,1000,12,0,1,849.035,-0.342,4.006,422.812,-7.732,5.262
1782117418.466512,1.028000,1864028,1000,12,0,1,851.557,1.123,3.648,427.952,-2.917,5.189
1782117418.467512,1.029000,1864029,1000,12,0,1,850.356,1.381,3.464,429.754,0.394,4.845
1782117418.468512,1.030000,1864030,1000,12,0,1,850.092,-0.680,3.282,429.850,-0.811,4.567
1782117418.469512,1.031000,1864031,1000,12,0,1,849.947,-0.197,2.966,431.507,0.656,4.289
1782117418.470512,1.032000,1864032,1000,12,0,1,853.022,0.819,2.689,432.444,0.797,4.064
1782117418.471512,1.033000,1864033,1000,12,0,1,860.685,6.888,2.823,433.357,0.930,3.837
1782117418.472512,1.034000,1864034,1000,12,0,1,860.973,6.525,2.968,434.678,1.426,3.646
1782117418.473512,1.035000,1864035,1000,12,0,1,854.247,-1.675,2.967,433.549,0.141,3.496
1782117418.474512,1.036000,1864036,1000,12,0,1,852.229,-4.991,3.048,432.877,-1.196,3.296
1782117418.475512,1.037000,1864037,1000,12,0,1,862.678,3.063,3.075,435.183,0.682,3.200
1782117418.476512,1.038000,1864038,1000,12,0,1,864.336,6.385,3.204,437.993,3.295,3.183
1782117418.477512,1.039000,1864039,1000,12,0,1,857.226,-2.212,3.219,439.530,4.316,3.169
1782117418.478512,1.040000,1864040,1000,12,0,1,853.599,-5.594,3.313,440.155,4.430,3.090
1782117418.479512,1.041000,1864041,1000,12,0,1,858.859,-1.020,3.310,437.248,1.760,3.007
1782117418.480512,1.042000,1864042,1000,12,0,1,859.171,1.555,3.295,437.080,0.631,2.919
1782117418.481512,1.043000,1864043,1000,12,0,1,852.205,-4.616,3.316,438.714,2.571,2.835
1782117418.482512,1.044000,1864044,1000,12,0,1,845.263,-9.797,3.554,437.128,1.205,2.789
1782117418.483512,1.045000,1864045,1000,12,0,1,841.348,-11.334,3.867,431.724,-3.526,2.775
1782117418.484512,1.046000,1864046,1000,12,0,1,843.078,-7.953,3.974,435.327,-1.554,2.703
1782117418.485512,1.047000,1864047,1000,12,0,1,843.726,-4.367,3.968,435.303,0.592,2.696
1782117418.486512,1.048000,1864048,1000,12,0,1,836.664,-8.846,4.074,438.449,0.965,2.693
1782117418.487512,1.049000,1864049,1000,12,0,1,842.093,-4.718,4.077,440.131,3.522,2.612
1782117418.488512,1.050000,1864050,1000,12,0,1,857.682,10.794,4.344,436.672,-1.116,2.592
1782117418.489512,1.051000,1864051,1000,12,0,1,857.538,11.440,4.615,438.161,-1.304,2.584
1782117418.490512,1.052000,1864052,1000,12,0,1,849.851,1.149,4.592,437.873,-0.952,2.584
1782117418.491512,1.053000,1864053,1000,12,0,1,849.491,-0.711,4.585,439.674,-1.365,2.560
1782117418.492512,1.054000,1864054,1000,12,0,1,855.400,3.595,4.611,440.323,0.025,2.538
1782117418.493512,1.055000,1864055,1000,12,0,1,860.493,7.530,4.731,439.002,-2.482,2.530
1782117418.494512,1.056000,1864056,1000,12,0,1,857.226,3.744,4.760,432.540,-7.081,2.721
1782117418.495512,1.057000,1864057,1000,12,0,1,855.905,0.158,4.739,433.117,-7.840,2.883
1782117418.496512,1.058000,1864058,1000,12,0,1,859.628,3.287,4.731,440.731,0.808,2.869
1782117418.497512,1.059000,1864059,1000,12,0,1,859.003,2.922,4.743,442.028,3.040,2.900
1782117418.498512,1.060000,1864060,1000,12,0,1,853.911,-1.894,4.749,441.860,1.944,2.839
1782117418.499512,1.061000,1864061,1000,12,0,1,849.059,-5.715,4.817,442.893,3.193,2.724
1782117418.500512,1.062000,1864062,1000,12,0,1,849.011,-4.841,4.863,440.227,0.887,2.726
1782117418.501512,1.063000,1864063,1000,12,0,1,849.227,-2.399,4.875,438.738,-0.804,2.719
1782117418.502512,1.064000,1864064,1000,12,0,1,851.076,-0.069,4.874,440.996,1.326,2.725
1782117418.503512,1.065000,1864065,1000,12,0,1,858.235,6.853,4.961,436.648,-1.185,2.711
1782117418.504512,1.066000,1864066,1000,12,0,1,860.156,9.387,5.118,430.739,-7.145,2.880
1782117418.505512,1.067000,1864067,1000,12,0,1,859.484,6.840,5.202,434.486,-3.566,2.924
1782117418.506512,1.068000,1864068,1000,12,0,1,858.691,5.299,5.243,436.528,0.093,2.909
1782117418.507512,1.069000,1864069,1000,12,0,1,860.469,4.829,5.246,435.567,-1.379,2.857
1782117418.508512,1.070000,1864070,1000,12,0,1,860.565,4.199,5.276,437.128,-0.213,2.827
1782117418.509512,1.071000,1864071,1000,12,0,1,858.835,0.662,5.203,437.152,-0.096,2.827
1782117418.510512,1.072000,1864072,1000,12,0,1,860.108,0.123,5.164,442.004,2.614,2.842
1782117418.511512,1.073000,1864073,1000,12,0,1,862.438,1.198,5.146,445.920,6.334,2.977
1782117418.512512,1.074000,1864074,1000,12,0,1,862.847,0.258,5.131,450.724,8.040,3.176
1782117418.513512,1.075000,1864075,1000,12,0,1,862.967,-0.901,5.127,453.030,9.266,3.432
1782117418.514512,1.076000,1864076,1000,12,0,1,862.222,-2.302,5.133,451.565,5.596,3.495
1782117418.515512,1.077000,1864077,1000,12,0,1,861.790,-3.266,5.153,448.010,1.181,3.323
1782117418.516512,1.078000,1864078,1000,12,0,1,860.396,-4.236,5.185,450.892,1.847,3.308
1782117418.517512,1.079000,1864079,1000,12,0,1,859.027,-5.175,5.233,454.639,5.476,3.397
1782117418.518512,1.080000,1864080,1000,12,0,1,860.012,-3.633,5.257,455.168,4.923,3.466
1782117418.519512,1.081000,1864081,1000,12,0,1,857.490,-4.094,5.289,457.906,5.852,3.562
1782117418.520512,1.082000,1864082,1000,12,0,1,856.049,-5.096,5.337,458.819,6.391,3.673
1782117418.521512,1.083000,1864083,1000,12,0,1,854.151,-4.560,5.287,458.531,4.321,3.721
1782117418.522512,1.084000,1864084,1000,12,0,1,852.157,-5.398,5.261,460.476,5.015,3.783
1782117418.523512,1.085000,1864085,1000,12,0,1,853.647,-2.726,5.270,460.933,4.392,3.833
1782117418.524512,1.086000,1864086,1000,12,0,1,862.174,5.109,5.272,463.287,4.551,3.883
1782117418.525512,1.087000,1864087,1000,12,0,1,871.470,13.562,5.593,461.509,2.451,3.898
1782117418.526512,1.088000,1864088,1000,12,0,1,873.800,14.116,5.870,460.068,-1.303,3.874
1782117418.527512,1.089000,1864089,1000,12,0,1,869.596,7.720,5.962,462.710,0.009,3.826
1782117418.528512,1.090000,1864090,1000,12,0,1,865.297,1.308,5.913,465.112,0.990,3.777
1782117418.529512,1.091000,1864091,1000,12,0,1,862.054,-2.934,5.925,464.728,-0.749,3.770
1782117418.530512,1.092000,1864092,1000,12,0,1,859.676,-5.804,5.978,462.494,-4.113,3.814
1782117418.531512,1.093000,1864093,1000,12,0,1,861.237,-5.084,5.985,463.911,-4.502,3.849
1782117418.532512,1.094000,1864094,1000,12,0,1,864.792,-1.732,5.828,463.191,-4.836,3.906
1782117418.533512,1.095000,1864095,1000,12,0,1,866.378,-0.573,5.604,463.935,-5.733,3.958
1782117418.534512,1.096000,1864096,1000,12,0,1,872.935,3.749,5.515,465.449,-3.905,3.990
1782117418.535512,1.097000,1864097,1000,12,0,1,880.286,9.930,5.658,468.043,-2.455,4.004
1782117418.536512,1.098000,1864098,1000,12,0,1,886.291,12.960,5.814,466.073,-3.388,4.030
1782117418.537512,1.099000,1864099,1000,12,0,1,885.186,10.658,5.969,462.446,-7.246,4.129
1782117418.538512,1.100000,1864100,1000,12,0,1,869.861,-4.022,5.799,461.701,-7.212,4.250
1782117418.539512,1.101000,1864101,1000,12,0,1,861.646,-13.580,5.890,462.062,-5.707,4.322
1782117418.540512,1.102000,1864102,1000,12,0,1,862.847,-9.777,6.048,460.692,-5.725,4.395
1782117418.541512,1.103000,1864103,1000,12,0,1,864.096,-6.779,6.123,459.708,-5.652,4.463
1782117418.542512,1.104000,1864104,1000,12,0,1,864.600,-4.588,6.136,460.044,-4.324,4.505
1782117418.543512,1.105000,1864105,1000,12,0,1,862.438,-5.008,6.084,459.588,-3.479,4.518
1782117418.544512,1.106000,1864106,1000,12,0,1,861.405,-5.389,6.109,460.620,-2.341,4.418
1782117418.545512,1.107000,1864107,1000,12,0,1,857.850,-6.659,6.181,462.494,0.076,4.277
1782117418.546512,1.108000,1864108,1000,12,0,1,861.237,-4.407,6.195,461.918,-0.346,4.275
1782117418.547512,1.109000,1864109,1000,12,0,1,863.952,0.214,6.181,461.821,-0.929,4.256
1782117418.548512,1.110000,1864110,1000,12,0,1,867.675,1.831,6.181,464.464,0.965,4.249
1782117418.549512,1.111000,1864111,1000,12,0,1,873.103,6.390,6.194,467.298,3.055,4.247
1782117418.550512,1.112000,1864112,1000,12,0,1,875.217,6.674,6.228,468.235,2.974,4.266
1782117418.551512,1.113000,1864113,1000,12,0,1,869.548,0.431,6.219,468.499,1.988,4.274
1782117418.552512,1.114000,1864114,1000,12,0,1,866.930,-4.230,6.248,471.478,3.240,4.294
1782117418.553512,1.115000,1864115,1000,12,0,1,869.933,-1.685,6.177,472.631,3.797,4.324
1782117418.554512,1.116000,1864116,1000,12,0,1,873.127,1.201,6.035,473.111,2.651,4.221
1782117418.555512,1.117000,1864117,1000,12,0,1,881.054,6.771,6.033,467.226,-2.177,4.202
1782117418.556512,1.118000,1864118,1000,12,0,1,886.915,12.078,6.226,459.732,-9.600,4.416
1782117418.557512,1.119000,1864119,1000,12,0,1,889.702,11.990,6.416,460.861,-7.914,4.552
1782117418.558512,1.120000,1864120,1000,12,0,1,886.795,8.593,6.503,467.899,0.019,4.551
1782117418.559512,1.121000,1864121,1000,12,0,1,882.760,2.675,6.514,467.947,1.849,4.559
1782117418.560512,1.122000,1864122,1000,12,0,1,876.899,-2.140,6.521,466.385,-0.169,4.544
1782117418.561512,1.123000,1864123,1000,12,0,1,869.668,-8.466,6.627,466.265,0.394,4.455
1782117418.562512,1.124000,1864124,1000,12,0,1,861.838,-13.562,6.899,473.135,5.594,4.380
1782117418.563512,1.125000,1864125,1000,12,0,1,860.276,-13.495,7.157,479.164,11.414,4.480
1782117418.564512,1.126000,1864126,1000,12,0,1,857.154,-12.443,7.363,481.687,11.510,4.700
1782117418.565512,1.127000,1864127,1000,12,0,1,857.802,-10.842,7.507,481.158,9.128,4.871
1782117418.566512,1.128000,1864128,1000,12,0,1,863.639,-3.412,7.498,476.090,2.744,4.880
1782117418.567512,1.129000,1864129,1000,12,0,1,867.410,1.012,7.464,464.248,-8.655,4.971
1782117418.568512,1.130000,1864130,1000,12,0,1,866.810,0.224,7.446,453.775,-18.303,5.561
1782117418.569512,1.131000,1864131,1000,12,0,1,871.182,2.473,7.432,438.473,-28.339,6.805
1782117418.570512,1.132000,1864132,1000,12,0,1,872.575,3.776,7.416,427.496,-35.462,8.405
1782117418.571512,1.133000,1864133,1000,12,0,1,867.435,-2.190,7.395,426.751,-30.398,9.420
1782117418.572512,1.134000,1864134,1000,12,0,1,864.360,-6.192,7.407,428.865,-22.419,9.914
1782117418.573512,1.135000,1864135,1000,12,0,1,859.075,-9.526,7.519,433.549,-13.878,10.088
1782117418.574512,1.136000,1864136,1000,12,0,1,851.076,-15.757,7.809,435.999,-7.011,10.116
1782117418.575512,1.137000,1864137,1000,12,0,1,859.171,-8.075,7.655,438.906,-2.599,10.117
1782117418.576512,1.138000,1864138,1000,12,0,1,873.656,8.076,7.478,434.414,-2.743,10.122
1782117418.577512,1.139000,1864139,1000,12,0,1,883.096,16.469,7.756,431.243,-5.277,10.150
1782117418.578512,1.140000,1864140,1000,12,0,1,883.480,16.182,8.084,435.399,1.086,10.150
1782117418.579512,1.141000,1864141,1000,12,0,1,881.174,11.720,8.242,435.375,3.681,10.163
1782117418.580512,1.142000,1864142,1000,12,0,1,881.222,10.426,8.333,438.882,6.641,10.189
1782117418.581512,1.143000,1864143,1000,12,0,1,876.466,6.190,8.348,442.197,11.571,10.300
1782117418.582512,1.144000,1864144,1000,12,0,1,864.624,-4.568,8.369,449.859,16.604,10.543
1782117418.583512,1.145000,1864145,1000,12,0,1,852.037,-14.698,8.623,457.450,23.465,11.023
1782117418.584512,1.146000,1864146,1000,12,0,1,848.410,-16.278,8.909,464.055,25.988,11.606
1782117418.585512,1.147000,1864147,1000,12,0,1,852.277,-9.383,8.897,467.394,26.431,12.188
1782117418.586512,1.148000,1864148,1000,12,0,1,859.916,-0.784,8.707,461.918,18.342,12.452
1782117418.587512,1.149000,1864149,1000,12,0,1,872.911,10.831,8.711,453.991,7.796,12.459
1782117418.588512,1.150000,1864150,1000,12,0,1,882.640,18.636,9.083,451.060,3.371,12.426
1782117418.589512,1.151000,1864151,1000,12,0,1,891.599,22.079,9.411,452.646,3.830,12.412
1782117418.590512,1.152000,1864152,1000,12,0,1,897.989,23.705,9.894,457.690,7.493,12.430
1782117418.591512,1.153000,1864153,1000,12,0,1,890.086,12.551,10.006,461.605,9.916,12.484
1782117418.592512,1.154000,1864154,1000,12,0,1,876.706,-4.253,10.003,462.518,8.918,12.532
1782117418.593512,1.155000,1864155,1000,12,0,1,876.010,-7.775,10.039,460.092,4.886,12.542
1782117418.594512,1.156000,1864156,1000,12,0,1,877.811,-5.112,10.036,455.168,-0.999,12.538
1782117418.595512,1.157000,1864157,1000,12,0,1,883.408,-1.514,9.994,453.847,-3.681,12.549
1782117418.596512,1.158000,1864158,1000,12,0,1,886.171,2.206,9.979,458.074,-0.356,12.549
1782117418.597512,1.159000,1864159,1000,12,0,1,883.072,-1.290,9.981,460.789,1.909,12.551
1782117418.598512,1.160000,1864160,1000,12,0,1,883.192,-1.645,9.980,460.332,0.435,12.551
1782117418.599512,1.161000,1864161,1000,12,0,1,882.568,-0.868,9.940,458.146,-2.323,12.547
1782117418.600512,1.162000,1864162,1000,12,0,1,880.598,-2.483,9.901,458.651,-2.912,12.547
1782117418.601512,1.163000,1864163,1000,12,0,1,877.811,-3.588,9.914,455.840,-4.650,12.561
1782117418.602512,1.164000,1864164,1000,12,0,1,874.617,-5.669,9.929,456.345,-5.400,12.576
1782117418.603512,1.165000,1864165,1000,12,0,1,873.632,-5.346,9.954,457.786,-2.829,12.571
1782117418.604512,1.166000,1864166,1000,12,0,1,877.019,-1.720,9.956,457.618,-3.141,12.573
1782117418.605512,1.167000,1864167,1000,12,0,1,880.021,1.819,9.913,452.862,-6.322,12.601
1782117418.606512,1.168000,1864168,1000,12,0,1,881.631,2.428,9.771,453.006,-6.787,12.565
1782117418.607512,1.169000,1864169,1000,12,0,1,882.688,2.345,9.628,452.189,-5.204,12.536
1782117418.608512,1.170000,1864170,1000,12,0,1,883.096,1.218,9.553,454.711,-3.402,12.545
1782117418.609512,1.171000,1864171,1000,12,0,1,878.244,-3.886,9.561,462.134,4.031,12.556
1782117418.610512,1.172000,1864172,1000,12,0,1,870.725,-11.688,9.698,468.908,9.705,12.630
1782117418.611512,1.173000,1864173,1000,12,0,1,866.306,-15.489,9.870,471.718,10.763,12.722
1782117418.612512,1.174000,1864174,1000,12,0,1,857.490,-20.644,10.113,474.985,11.150,12.795
1782117418.613512,1.175000,1864175,1000,12,0,1,859.267,-18.875,10.284,468.715,4.752,12.710
1782117418.614512,1.176000,1864176,1000,12,0,1,873.992,-2.434,10.138,457.330,-7.575,12.651
1782117418.615512,1.177000,1864177,1000,12,0,1,882.327,7.271,10.074,453.222,-11.762,12.694
1782117418.616512,1.178000,1864178,1000,12,0,1,878.604,4.127,10.079,450.123,-12.207,12.805
1782117418.617512,1.179000,1864179,1000,12,0,1,867.362,-5.513,10.108,447.841,-13.241,12.884
1782117418.618512,1.180000,1864180,1000,12,0,1,864.984,-7.785,10.168,451.805,-7.912,12.670
1782117418.619512,1.181000,1864181,1000,12,0,1,879.229,6.541,10.204,451.661,-5.483,12.045
1782117418.620512,1.182000,1864182,1000,12,0,1,885.162,14.887,10.405,449.835,-6.632,10.991
1782117418.621512,1.183000,1864183,1000,12,0,1,883.672,11.610,10.529,450.652,-4.629,10.137
1782117418.622512,1.184000,1864184,1000,12,0,1,880.430,8.463,10.561,451.541,-2.639,9.635
1782117418.623512,1.185000,1864185,1000,12,0,1,879.036,5.788,10.507,452.021,-1.494,9.436
1782117418.624512,1.186000,1864186,1000,12,0,1,881.727,7.592,10.323,452.405,-0.485,9.384
1782117418.625512,1.187000,1864187,1000,12,0,1,887.516,11.506,10.388,447.457,-3.691,9.391
1782117418.626512,1.188000,1864188,1000,12,0,1,889.101,11.675,10.457,449.066,-3.051,9.393
1782117418.627512,1.189000,1864189,1000,12,0,1,886.171,6.554,10.236,450.892,0.923,9.364
1782117418.628512,1.190000,1864190,1000,12,0,1,882.039,0.666,9.977,451.541,1.099,9.364
1782117418.629512,1.191000,1864191,1000,12,0,1,886.939,2.260,9.844,449.139,0.163,9.350
1782117418.630512,1.192000,1864192,1000,12,0,1,886.867,2.505,9.739,447.529,-1.626,9.305
1782117418.631512,1.193000,1864193,1000,12,0,1,883.793,-3.096,9.710,450.604,1.594,9.163
1782117418.632512,1.194000,1864194,1000,12,0,1,886.723,-1.792,9.691,455.792,6.599,8.906
1782117418.633512,1.195000,1864195,1000,12,0,1,890.759,1.276,9.468,458.218,8.499,8.352
1782117418.634512,1.196000,1864196,1000,12,0,1,884.825,-3.994,9.201,459.347,8.395,7.593
1782117418.635512,1.197000,1864197,1000,12,0,1,874.857,-13.533,9.304,461.149,8.604,6.720
1782117418.636512,1.198000,1864198,1000,12,0,1,861.093,-23.300,9.869,464.752,10.370,6.371
1782117418.637512,1.199000,1864199,1000,12,0,1,849.467,-30.612,10.668,467.418,11.190,6.471
1782117418.638512,1.200000,1864200,1000,12,0,1,850.284,-25.392,10.943,468.307,10.046,6.608
1782117418.639512,1.201000,1864201,1000,12,0,1,861.093,-10.253,10.588,466.914,6.944,6.658
1782117418.640512,1.202000,1864202,1000,12,0,1,869.789,1.714,10.046,464.031,2.792,6.585
1782117418.641512,1.203000,1864203,1000,12,0,1,869.789,4.058,9.905,460.044,-1.696,6.439
1782117418.642512,1.204000,1864204,1000,12,0,1,878.148,9.961,9.986,457.642,-4.376,6.344
1782117418.643512,1.205000,1864205,1000,12,0,1,885.450,18.035,10.248,458.242,-3.757,6.329
1782117418.644512,1.206000,1864206,1000,12,0,1,878.748,10.556,10.331,461.101,-1.010,6.329
1782117418.645512,1.207000,1864207,1000,12,0,1,872.959,2.691,10.336,456.345,-4.032,6.333
1782117418.646512,1.208000,1864208,1000,12,0,1,875.337,3.917,10.346,454.663,-6.891,6.408
1782117418.647512,1.209000,1864209,1000,12,0,1,877.523,5.594,10.374,454.855,-4.924,6.440
1782117418.648512,1.210000,1864210,1000,12,0,1,880.814,6.802,10.416,454.495,-5.129,6.480
1782117418.649512,1.211000,1864211,1000,12,0,1,895.347,16.703,10.680,452.934,-5.420,6.517
1782117418.650512,1.212000,1864212,1000,12,0,1,899.790,20.294,11.053,453.174,-5.031,6.543
1782117418.651512,1.213000,1864213,1000,12,0,1,890.422,7.382,11.091,455.984,-1.864,6.515
1782117418.652512,1.214000,1864214,1000,12,0,1,884.033,-1.454,11.064,457.594,0.199,6.470
1782117418.653512,1.215000,1864215,1000,12,0,1,877.883,-7.018,11.082,457.522,-0.116,6.458
1782117418.654512,1.216000,1864216,1000,12,0,1,867.579,-15.481,11.294,456.945,-0.548,6.443
1782117418.655512,1.217000,1864217,1000,12,0,1,867.915,-14.721,11.481,456.753,-0.968,6.382
1782117418.656512,1.218000,1864218,1000,12,0,1,876.370,-4.109,11.491,460.188,1.853,6.315
1782117418.657512,1.219000,1864219,1000,12,0,1,893.377,10.994,11.591,460.452,2.680,6.283
1782117418.658512,1.220000,1864220,1000,12,0,1,899.886,18.405,11.878,458.531,0.213,6.265
1782117418.659512,1.221000,1864221,1000,12,0,1,889.630,6.861,11.905,459.972,1.113,6.241
1782117418.660512,1.222000,1864222,1000,12,0,1,879.541,-4.391,11.806,461.509,2.802,6.101
1782117418.661512,1.223000,1864223,1000,12,0,1,873.752,-8.922,11.670,460.716,1.830,5.914
1782117418.662512,1.224000,1864224,1000,12,0,1,875.361,-7.310,11.346,459.299,0.368,5.700
1782117418.663512,1.225000,1864225,1000,12,0,1,878.628,-2.259,11.032,458.819,-0.211,5.660
1782117418.664512,1.226000,1864226,1000,12,0,1,879.349,-1.517,11.029,456.129,-1.945,5.565
1782117418.665512,1.227000,1864227,1000,12,0,1,880.550,-0.442,10.981,457.258,-1.576,5.315
1782117418.666512,1.228000,1864228,1000,12,0,1,884.153,2.053,10.969,456.777,-0.512,5.027
1782117418.667512,1.229000,1864229,1000,12,0,1,890.470,6.637,10.982,456.249,-1.645,4.671
1782117418.668512,1.230000,1864230,1000,12,0,1,891.888,7.051,10.972,459.059,1.136,4.538
1782117418.669512,1.231000,1864231,1000,12,0,1,890.398,3.217,10.942,461.005,2.948,4.491
1782117418.670512,1.232000,1864232,1000,12,0,1,888.981,0.594,10.738,463.191,3.914,4.427
1782117418.671512,1.233000,1864233,1000,12,0,1,885.234,-3.538,10.623,461.869,2.699,4.395
1782117418.672512,1.234000,1864234,1000,12,0,1,881.222,-7.514,10.609,457.954,-1.953,4.387
1782117418.673512,1.235000,1864235,1000,12,0,1,881.847,-6.784,10.621,453.726,-5.542,4.452
1782117418.674512,1.236000,1864236,1000,12,0,1,889.702,0.552,10.567,456.513,-3.731,4.482
1782117418.675512,1.237000,1864237,1000,12,0,1,899.550,9.675,10.530,457.089,-1.225,4.455
1782117418.676512,1.238000,1864238,1000,12,0,1,891.383,3.627,10.412,457.690,-1.621,4.440
1782117418.677512,1.239000,1864239,1000,12,0,1,879.421,-9.503,10.458,459.251,0.612,4.439
1782117418.678512,1.240000,1864240,1000,12,0,1,875.217,-11.649,10.586,460.692,1.581,4.442
1782117418.679512,1.241000,1864241,1000,12,0,1,873.920,-10.572,10.687,461.653,2.442,4.456
1782117418.680512,1.242000,1864242,1000,12,0,1,869.885,-11.235,10.798,462.254,2.671,4.466
1782117418.681512,1.243000,1864243,1000,12,0,1,868.347,-10.827,10.897,463.551,3.258,4.484
1782117418.682512,1.244000,1864244,1000,12,0,1,873.968,-3.903,10.909,461.845,1.996,4.394
1782117418.683512,1.245000,1864245,1000,12,0,1,882.063,4.942,10.929,460.428,-0.272,4.227
1782117418.684512,1.246000,1864246,1000,12,0,1,885.738,8.320,10.978,458.242,-1.472,4.062
1782117418.685512,1.247000,1864247,1000,12,0,1,892.056,11.725,10.936,458.026,-2.205,3.888
1782117418.686512,1.248000,1864248,1000,12,0,1,893.425,12.120,10.568,459.419,-0.156,3.601
1782117418.687512,1.249000,1864249,1000,12,0,1,887.228,4.001,9.657,462.638,2.298,3.251
1782117418.688512,1.250000,1864250,1000,12,0,1,884.297,-1.027,8.966,465.352,4.747,3.000
1782117418.689512,1.251000,1864251,1000,12,0,1,877.307,-6.452,8.895,464.872,3.597,2.880
1782117418.690512,1.252000,1864252,1000,12,0,1,878.244,-7.651,8.957,466.602,3.546,2.897
1782117418.691512,1.253000,1864253,1000,12,0,1,886.411,1.442,8.941,468.763,4.988,2.972
1782117418.692512,1.254000,1864254,1000,12,0,1,897.917,10.507,8.954,464.079,0.215,2.907
1782117418.693512,1.255000,1864255,1000,12,0,1,903.634,15.466,8.857,462.422,-3.064,2.891
1782117418.694512,1.256000,1864256,1000,12,0,1,902.961,11.983,8.893,465.064,-0.473,2.888
1782117418.695512,1.257000,1864257,1000,12,0,1,903.057,9.558,8.987,463.095,-1.813,2.843
1782117418.696512,1.258000,1864258,1000,12,0,1,900.127,5.961,9.010,461.869,-3.774,2.723
1782117418.697512,1.259000,1864259,1000,12,0,1,898.349,2.237,8.980,461.029,-3.601,2.681
1782117418.698512,1.260000,1864260,1000,12,0,1,896.475,0.865,8.930,462.470,-2.644,2.608
1782117418.699512,1.261000,1864261,1000,12,0,1,893.425,-2.522,8.619,463.311,-0.794,2.496
1782117418.700512,1.262000,1864262,1000,12,0,1,892.632,-3.028,8.138,464.728,0.020,2.392
1782117418.701512,1.263000,1864263,1000,12,0,1,893.017,-2.383,8.078,462.878,-0.685,2.380
1782117418.702512,1.264000,1864264,1000,12,0,1,889.558,-4.666,8.102,463.983,-0.747,2.382
1782117418.703512,1.265000,1864265,1000,12,0,1,883.432,-9.910,8.163,471.045,5.606,2.510
1782117418.704512,1.266000,1864266,1000,12,0,1,880.862,-11.676,8.035,473.135,7.684,2.734
1782117418.705512,1.267000,1864267,1000,12,0,1,882.592,-8.889,7.862,476.066,7.689,2.939
1782117418.706512,1.268000,1864268,1000,12,0,1,882.231,-7.728,7.916,477.123,8.227,3.150
1782117418.707512,1.269000,1864269,1000,12,0,1,885.666,-5.046,7.795,473.159,2.701,3.151
1782117418.708512,1.270000,1864270,1000,12,0,1,903.129,9.288,7.464,465.545,-4.627,3.218
1782117418.709512,1.271000,1864271,1000,12,0,1,910.311,16.583,7.763,462.230,-8.557,3.434
1782117418.710512,1.272000,1864272,1000,12,0,1,905.507,7.961,7.820,458.939,-9.604,3.672
1782117418.711512,1.273000,1864273,1000,12,0,1,900.199,0.845,7.718,453.246,-13.530,4.132
1782117418.712512,1.274000,1864274,1000,12,0,1,899.286,-1.914,7.653,450.556,-14.263,4.598
1782117418.713512,1.275000,1864275,1000,12,0,1,899.694,-1.549,7.650,452.742,-10.107,4.815
1782117418.714512,1.276000,1864276,1000,12,0,1,906.012,2.876,7.658,453.606,-6.853,4.904
1782117418.715512,1.277000,1864277,1000,12,0,1,906.108,4.293,7.681,456.105,-3.724,4.927
1782117418.716512,1.278000,1864278,1000,12,0,1,902.673,-0.309,7.676,456.777,-1.392,4.930
1782117418.717512,1.279000,1864279,1000,12,0,1,897.580,-3.961,7.639,458.867,0.312,4.925
1782117418.718512,1.280000,1864280,1000,12,0,1,900.847,-1.848,7.578,458.098,0.901,4.924
1782117418.719512,1.281000,1864281,1000,12,0,1,902.649,2.147,7.571,459.780,1.447,4.911
1782117418.720512,1.282000,1864282,1000,12,0,1,899.766,-0.678,7.571,460.548,3.147,4.900
1782117418.721512,1.283000,1864283,1000,12,0,1,896.668,-3.153,7.567,461.869,3.422,4.909
1782117418.722512,1.284000,1864284,1000,12,0,1,891.840,-6.445,7.548,463.455,4.941,4.950
1782117418.723512,1.285000,1864285,1000,12,0,1,890.398,-7.819,7.568,462.614,3.910,4.919
1782117418.724512,1.286000,1864286,1000,12,0,1,896.836,-1.338,7.569,460.957,1.842,4.898
1782117418.725512,1.287000,1864287,1000,12,0,1,904.691,5.658,7.488,456.705,-1.328,4.898
1782117418.726512,1.288000,1864288,1000,12,0,1,901.304,2.799,7.481,456.129,-2.473,4.905
1782117418.727512,1.289000,1864289,1000,12,0,1,895.875,-4.877,7.391,455.768,-0.971,4.907
1782117418.728512,1.290000,1864290,1000,12,0,1,890.831,-8.918,7.315,458.555,0.969,4.903
1782117418.729512,1.291000,1864291,1000,12,0,1,888.765,-11.348,7.338,460.020,3.761,4.920
1782117418.730512,1.292000,1864292,1000,12,0,1,886.699,-11.299,7.340,462.974,5.116,4.959
1782117418.731512,1.293000,1864293,1000,12,0,1,885.258,-11.729,7.368,469.364,10.401,5.152
1782117418.732512,1.294000,1864294,1000,12,0,1,892.992,-4.109,7.370,468.739,9.408,5.313
1782117418.733512,1.295000,1864295,1000,12,0,1,904.570,7.723,7.417,471.742,8.609,5.451
1782117418.734512,1.296000,1864296,1000,12,0,1,906.732,10.022,7.459,478.828,13.878,5.790
1782117418.735512,1.297000,1864297,1000,12,0,1,906.876,8.182,7.364,487.644,18.172,6.327
1782117418.736512,1.298000,1864298,1000,12,0,1,905.579,6.810,7.226,496.723,22.934,7.109
1782117418.737512,1.299000,1864299,1000,12,0,1,900.271,1.686,7.208,502.128,23.056,7.815
1782117418.738512,1.300000,1864300,1000,12,0,1,900.031,0.721,7.207,502.536,18.519,8.215
1782117418.739512,1.301000,1864301,1000,12,0,1,905.771,6.507,7.208,501.984,12.882,8.399
1782117418.740512,1.302000,1864302,1000,12,0,1,917.830,16.008,7.478,492.736,2.116,8.389
1782117418.741512,1.303000,1864303,1000,12,0,1,912.737,12.919,7.695,484.929,-8.620,8.448
1782117418.742512,1.304000,1864304,1000,12,0,1,902.024,-0.971,7.551,469.148,-20.528,8.933
1782117418.743512,1.305000,1864305,1000,12,0,1,914.443,7.478,7.305,440.203,-43.885,10.868
1782117418.744512,1.306000,1864306,1000,12,0,1,927.294,19.687,7.631,423.268,-55.021,13.367
1782117418.745512,1.307000,1864307,1000,12,0,1,917.734,8.834,7.614,428.865,-41.925,14.620
1782117418.746512,1.308000,1864308,1000,12,0,1,903.634,-7.845,7.648,440.731,-22.791,14.962
1782117418.747512,1.309000,1864309,1000,12,0,1,901.352,-11.499,7.813,446.857,-11.323,15.039
1782117418.748512,1.310000,1864310,1000,12,0,1,904.306,-7.985,7.893,451.060,-4.969,15.050
1782117418.749512,1.311000,1864311,1000,12,0,1,898.709,-11.700,8.057,451.084,-2.161,15.053
1782117418.750512,1.312000,1864312,1000,12,0,1,898.709,-12.930,8.250,451.084,-1.960,15.056
1782117418.751512,1.313000,1864313,1000,12,0,1,911.897,-0.522,8.244,449.499,-1.659,15.057
1782117418.752512,1.314000,1864314,1000,12,0,1,914.443,3.738,8.234,449.499,-1.838,15.059
1782117418.753512,1.315000,1864315,1000,12,0,1,913.890,0.290,8.114,451.805,1.220,15.039
1782117418.754512,1.316000,1864316,1000,12,0,1,909.399,-2.582,7.953,453.486,3.059,15.006
1782117418.755512,1.317000,1864317,1000,12,0,1,902.721,-9.476,7.966,456.969,5.808,14.989
1782117418.756512,1.318000,1864318,1000,12,0,1,901.880,-9.083,7.995,456.969,6.476,14.972
1782117418.757512,1.319000,1864319,1000,12,0,1,901.111,-7.398,8.031,460.428,7.840,15.008
1782117418.758512,1.320000,1864320,1000,12,0,1,902.168,-5.380,7.960,461.125,9.634,15.056
1782117418.759512,1.321000,1864321,1000,12,0,1,902.385,-2.706,7.616,459.419,6.725,15.037
1782117418.760512,1.322000,1864322,1000,12,0,1,900.343,-3.542,7.549,461.293,8.253,15.021
1782117418.761512,1.323000,1864323,1000,12,0,1,905.579,1.466,7.551,461.389,8.726,14.950
1782117418.762512,1.324000,1864324,1000,12,0,1,914.659,10.332,7.686,460.500,7.335,14.849
1782117418.763512,1.325000,1864325,1000,12,0,1,916.533,11.779,7.862,460.861,7.652,14.820
1782117418.764512,1.326000,1864326,1000,12,0,1,912.713,6.359,7.902,459.948,6.723,14.819
1782117418.765512,1.327000,1864327,1000,12,0,1,913.218,4.535,7.905,459.948,6.144,14.835
1782117418.766512,1.328000,1864328,1000,12,0,1,910.287,1.853,7.909,460.308,6.135,14.859
1782117418.767512,1.329000,1864329,1000,12,0,1,904.643,-4.797,7.919,464.055,8.081,14.903
1782117418.768512,1.330000,1864330,1000,12,0,1,906.636,-3.966,7.934,464.416,8.044,14.945
1782117418.769512,1.331000,1864331,1000,12,0,1,909.086,-0.974,7.930,463.022,4.429,14.957
1782117418.770512,1.332000,1864332,1000,12,0,1,906.684,-3.442,7.944,462.518,2.584,14.955
1782117418.771512,1.333000,1864333,1000,12,0,1,902.240,-7.336,7.999,463.191,1.498,14.949
1782117418.772512,1.334000,1864334,1000,12,0,1,896.139,-11.842,8.121,465.977,2.375,14.936
