Unix_Time_s,RelativeTime_s,P_1,P_2,P_3,P_4,P_5,P_6,P_7,P_8,P_9,P_10,P_11,P_12,P_13,P_14,P_15,P_16,P_17,P_18,P_19,P_20,P_21,P_22,P_23,P_24,P_25,P_26,P_27,P_28,P_29,P_30,P_31,P_32,P_33,P_34,P_35,P_36,P_37,P_38,P_39,P_40,P_41,P_42,P_43,P_44,P_45,P_46,P_47,P_48,P_49,P_50,P_51,P_52,P_53,P_54,P_55,P_56,P_57,P_58,P_59,P_60,P_61,P_62,P_63,P_64,P_65,P_66,P_67,P_68,P_69,P_70,P_71,P_72,P_73,P_74,P_75,P_76,P_77,P_78,P_79,P_80,P_81,P_82,P_83,P_84,P_85,P_86,P_87,P_88,P_89,P_90,P_91,P_92,P_93,P_94,P_95,P_96,P_97,P_98,P_99,P_100,P_101,P_102,P_103,P_104,P_105,P_106,P_107,P_108,P_109,P_110,P_111,P_112,P_113,P_114,P_115,P_116,P_117,P_118,P_119,P_120,P_121,P_122,P_123,P_124,P_125,P_126,P_127,P_128,P_129,P_130,P_131,P_132,P_133,P_134,P_135,P_136,P_137,P_138,P_139,P_140,P_141,P_142,P_143,P_144,P_145,P_146,P_147,P_148,P_149,P_150,P_151,P_152,P_153,P_154,P_155,P_156,P_157,P_158,P_159,P_160,P_161,P_162,P_163,P_164,P_165,P_166,P_167,P_168,P_169,P_170,P_171,P_172,P_173,P_174,P_175,P_176,P_177,P_178,P_179,P_180,P_181,P_182,P_183,P_184,P_185,P_186,P_187,P_188,P_189,P_190,P_191,P_192,P_193,P_194,P_195,P_196,P_197,P_198,P_199,P_200,P_201,P_202,P_203,P_204,P_205,P_206,P_207,P_208,P_209,P_210,P_211,P_212,P_213,P_214,P_215,P_216,P_217,P_218,P_219,P_220,P_221,P_222,P_223,P_224,P_225,P_226,P_227,P_228,P_229,P_230,P_231,P_232,P_233,Flex1,Flex2,Bat,IMU1_RefTime,IMU1_Ax,IMU1_Ay,IMU1_Az,IMU1_Wx,IMU1_Wy,IMU1_Wz,IMU1_Roll,IMU1_Pitch,IMU1_Yaw,IMU1_Hx,IMU1_Hy,IMU1_Hz,IMU1_Q0,IMU1_Q1,IMU1_Q2,IMU1_Q3,IMU2_RefTime,IMU2_Ax,IMU2_Ay,IMU2_Az,IMU2_Wx,IMU2_Wy,IMU2_Wz,IMU2_Roll,IMU2_Pitch,IMU2_Yaw,IMU2_Hx,IMU2_Hy,IMU2_Hz,IMU2_Q0,IMU2_Q1,IMU2_Q2,IMU2_Q3,IMU1_FusedRoll,IMU1_FusedPitch,IMU1_FusedYaw,IMU1_FusedQ0,IMU1_FusedQ1,IMU1_FusedQ2,IMU1_FusedQ3,IMU1_MagValid,IMU2_FusedRoll,IMU2_FusedPitch,IMU2_FusedYaw,IMU2_FusedQ0,IMU2_FusedQ1,IMU2_FusedQ2,IMU2_FusedQ3,IMU2_MagValid
1782117417.451572,0.013,1023.0,1023.0,1024.0,1023.0,1023.0,1023.0,1024.0,1024.0,1023.0,1023.0,1024.0,1024.0,1024.0,1023.0,1023.0,1023.0,1023.0,1025.0,1024.0,1024.0,1023.0,1023.0,1023.0,1023.0,1023.0,1024.0,1023.0,1024.0,1024.0,1023.0,1024.0,1023.0,1022.0,1023.0,1024.0,1024.0,1024.0,1024.0,1023.0,1023.0,1023.0,1023.0,1023.0,1024.0,1023.0,1024.0,1024.0,1023.0,1023.0,1022.0,1022.0,1023.0,1023.0,1024.0,1023.0,1024.0,1024.0,1023.0,1023.0,1023.0,1022.0,1024.0,1023.0,1024.0,1023.0,1024.0,1023.0,1023.0,1023.0,1022.0,1022.0,1023.0,1023.0,1024.0,1023.0,1024.0,1024.0,1023.0,1023.0,1023.0,1022.0,1023.0,1024.0,1025.0,1025.0,1026.0,1024.0,1024.0,1024.0,1024.0,1023.0,1024.0,1023.0,1026.0,1024.0,1026.0,1024.0,1024.0,1024.0,1024.0,1023.0,1024.0,1023.0,1025.0,1024.0,1026.0,1024.0,1024.0,1024.0,1023.0,1023.0,1023.0,1022.0,1024.0,1023.0,1024.0,1024.0,1023.0,1023.0,1021.0,1022.0,1022.0,1024.0,1023.0,1024.0,1024.0,1023.0,1023.0,1022.0,1023.0,1024.0,1023.0,1025.0,1024.0,1023.0,1023.0,1024.0,1025.0,1024.0,1026.0,1024.0,1024.0,1024.0,1023.0,1025.0,1024.0,1026.0,1025.0,1024.0,1024.0,1023.0,1025.0,1024.0,1025.0,1025.0,1024.0,1023.0,1026.0,1025.0,1029.0,1027.0,1025.0,1024.0,1029.0,1028.0,1031.0,1029.0,1026.0,1024.0,1033.0,1031.0,1034.0,1032.0,1029.0,1026.0,1036.0,1035.0,1035.0,1038.0,1029.0,1027.0,1039.0,1037.0,1033.0,1039.0,1032.0,1030.0,1042.0,1040.0,1034.0,1043.0,1035.0,1033.0,1043.0,1043.0,1033.0,1045.0,1035.0,1031.0,1036.0,1036.0,1030.0,1039.0,1033.0,1032.0,1035.0,1034.0,1030.0,1036.0,1032.0,1023.0,1024.0,1023.0,1024.0,1023.0,1021.0,1036.0,1039.0,1034.0,1031.0,1038.0,1035.0,1032.0,1036.0,1032.0,1032.0,1039.0,1035.0,1028.0,1031.0,1027.0,1029.0,1031.0,2046,2033,1908,	00:31:50.232,0.056640625,0.04833984375,1.01806640625,-0.18310546875,0.18310546875,0.06103515625,2.70263671875,-3.153076171875,52.9541015625,451.0,-1599.0,-2564.0,0.89422607421875,0.03338623046875,-0.01409912109375,0.446136474609375,2.704680622407486,-3.1533091324843303,48.346606550743225,0.9114457041715028,0.03278686454740838,-0.01543390520318343,0.4098213567283218,1,	00:31:50.233,0.0224609375,0.060546875,1.005859375,-1.28173828125,-1.52587890625,-0.54931640625,3.4332275390625,-1.2908935546875,110.885009765625,-399.0,-1273.0,-1944.0,-0.566650390625,-0.026275634765625,-0.018280029296875,-0.823333740234375,3.4339702058854495,-1.2934071134325582,112.24276918074442,-0.556868748365477,-0.02606750298847751,-0.018585069536118933,-0.8299832995742447,1
1782117417.462095,0.024,1023.0,1023.0,1024.0,1022.0,1023.0,1023.0,1024.0,1023.0,1022.0,1022.0,1024.0,1024.0,1024.0,1024.0,1023.0,1023.0,1023.0,1024.0,1024.0,1024.0,1023.0,1023.0,1023.0,1023.0,1023.0,1024.0,1024.0,1025.0,1024.0,1023.0,1024.0,1023.0,1022.0,1024.0,1024.0,1023.0,1024.0,1024.0,1023.0,1024.0,1023.0,1022.0,1023.0,1024.0,1023.0,1024.0,1023.0,1023.0,1023.0,1022.0,1022.0,1023.0,1023.0,1024.0,1023.0,1024.0,1024.0,1023.0,1024.0,1022.0,1022.0,1023.0,1022.0,1024.0,1023.0,1025.0,1024.0,1023.0,1023.0,1022.0,1022.0,1023.0,1023.0,1024.0,1023.0,1024.0,1023.0,1023.0,1023.0,1023.0,1022.0,1023.0,1024.0,1025.0,1025.0,1026.0,1024.0,1024.0,1024.0,1025.0,1023.0,1023.0,1023.0,1025.0,1024.0,1026.0,1024.0,1024.0,1024.0,1024.0,1023.0,1023.0,1023.0,1025.0,1024.0,1026.0,1024.0,1024.0,1024.0,1024.0,1023.0,1023.0,1022.0,1024.0,1022.0,1024.0,1023.0,1023.0,1023.0,1020.0,1022.0,1022.0,1024.0,1023.0,1025.0,1024.0,1023.0,1023.0,1022.0,1023.0,1024.0,1024.0,1024.0,1024.0,1024.0,1023.0,1023.0,1025.0,1024.0,1026.0,1024.0,1023.0,1024.0,1023.0,1025.0,1024.0,1026.0,1024.0,1024.0,1024.0,1023.0,1025.0,1024.0,1026.0,1025.0,1024.0,1023.0,1027.0,1025.0,1028.0,1027.0,1026.0,1023.0,1029.0,1028.0,1031.0,1029.0,1027.0,1025.0,1033.0,1031.0,1034.0,1033.0,1028.0,1026.0,1036.0,1035.0,1036.0,1038.0,1029.0,1027.0,1038.0,1037.0,1033.0,1039.0,1032.0,1029.0,1042.0,1041.0,1033.0,1043.0,1035.0,1032.0,1043.0,1043.0,1033.0,1045.0,1036.0,1031.0,1036.0,1036.0,1030.0,1039.0,1033.0,1032.0,1034.0,1034.0,1030.0,1036.0,1032.0,1022.0,1024.0,1023.0,1023.0,1024.0,1022.0,1036.0,1039.0,1035.0,1031.0,1038.0,1034.0,1032.0,1036.0,1033.0,1032.0,1039.0,1035.0,1028.0,1030.0,1028.0,1029.0,1032.0,2046,2033,1909,	00:31:50.242,0.0576171875,0.048828125,1.017578125,-0.18310546875,0.18310546875,0.06103515625,2.74658203125,-3.2354736328125,52.9541015625,451.0,-1596.0,-2564.0,0.894195556640625,0.03399658203125,-0.014556884765625,0.446136474609375,2.7442433510345965,-3.233058805210005,48.344997064111766,0.9114155795709712,0.033385688488314975,-0.01592756433687463,0.40982111928714265,1,	00:31:50.244,0.02294921875,0.06103515625,1.005859375,-1.220703125,-1.46484375,-0.42724609375,3.5101318359375,-1.3348388671875,110.8795166015625,-398.0,-1275.0,-1942.0,-0.566680908203125,-0.026947021484375,-0.01861572265625,-0.82330322265625,3.509736235143468,-1.3333567247900933,112.23561640047771,-0.5568921076877985,-0.02672608530929772,-0.0189378341753044,-0.8299387056860466,1
1782117417.471760,0.033,1023.0,1023.0,1024.0,1022.0,1024.0,1023.0,1024.0,1024.0,1022.0,1023.0,1024.0,1023.0,1024.0,1024.0,1023.0,1023.0,1023.0,1024.0,1023.0,1024.0,1024.0,1023.0,1023.0,1023.0,1023.0,1024.0,1024.0,1024.0,1024.0,1024.0,1024.0,1023.0,1022.0,1023.0,1024.0,1024.0,1024.0,1023.0,1023.0,1023.0,1023.0,1023.0,1023.0,1024.0,1023.0,1024.0,1023.0,1023.0,1023.0,1022.0,1022.0,1023.0,1023.0,1024.0,1023.0,1024.0,1024.0,1023.0,1023.0,1022.0,1022.0,1023.0,1023.0,1024.0,1023.0,1025.0,1024.0,1023.0,1023.0,1023.0,1022.0,1023.0,1022.0,1024.0,1024.0,1024.0,1023.0,1023.0,1023.0,1022.0,1023.0,1024.0,1023.0,1025.0,1025.0,1025.0,1024.0,1024.0,1024.0,1025.0,1023.0,1024.0,1024.0,1025.0,1024.0,1026.0,1024.0,1024.0,1024.0,1024.0,1023.0,1023.0,1023.0,1025.0,1024.0,1026.0,1024.0,1024.0,1024.0,1024.0,1023.0,1023.0,1022.0,1024.0,1022.0,1024.0,1023.0,1023.0,1023.0,1020.0,1022.0,1022.0,1024.0,1023.0,1024.0,1024.0,1023.0,1024.0,1022.0,1023.0,1024.0,1024.0,1025.0,1024.0,1023.0,1024.0,1023.0,1025.0,1024.0,1026.0,1024.0,1023.0,1024.0,1023.0,1025.0,1025.0,1026.0,1025.0,1024.0,1024.0,1023.0,1025.0,1024.0,1026.0,1024.0,1024.0,1023.0,1026.0,1025.0,1028.0,1027.0,1025.0,1024.0,1029.0,1028.0,1031.0,1029.0,1027.0,1025.0,1033.0,1031.0,1034.0,1033.0,1028.0,1026.0,1036.0,1035.0,1035.0,1037.0,1029.0,1028.0,1039.0,1037.0,1034.0,1039.0,1032.0,1029.0,1042.0,1041.0,1034.0,1042.0,1034.0,1033.0,1042.0,1043.0,1033.0,1045.0,1035.0,1031.0,1036.0,1036.0,1030.0,1039.0,1034.0,1032.0,1035.0,1033.0,1029.0,1037.0,1031.0,1022.0,1023.0,1023.0,1024.0,1024.0,1022.0,1036.0,1039.0,1036.0,1031.0,1037.0,1035.0,1032.0,1035.0,1032.0,1032.0,1040.0,1035.0,1027.0,1030.0,1027.0,1028.0,1032.0,2046,2033,1909,	00:31:50.253,0.05712890625,0.0478515625,1.017578125,-0.18310546875,0.18310546875,0.06103515625,2.65869140625,-3.1915283203125,52.9595947265625,451.0,-1598.0,-2563.0,0.89422607421875,0.033172607421875,-0.01458740234375,0.4461669921875,2.65879699656107,-3.193780889757567,48.35037976444738,0.9114329904453627,0.032566760223966665,-0.0159190234059256,0.40984862418963847,1,	00:31:50.254,0.0224609375,0.0595703125,1.0068359375,-1.220703125,-1.40380859375,-0.48828125,3.416748046875,-1.307373046875,110.8740234375,-398.0,-1276.0,-1943.0,-0.56671142578125,-0.02630615234375,-0.01806640625,-0.82330322265625,3.414710562754957,-1.3084469365672984,112.2317910858514,-0.5569485570433131,-0.026084552493216395,-0.01836991188530169,-0.8299340017531069,1
1782117417.482319,0.044,1023.0,1023.0,1024.0,1023.0,1023.0,1022.0,1023.0,1023.0,1023.0,1023.0,1024.0,1024.0,1024.0,1024.0,1023.0,1024.0,1023.0,1024.0,1023.0,1024.0,1023.0,1023.0,1023.0,1023.0,1023.0,1024.0,1024.0,1024.0,1024.0,1023.0,1024.0,1023.0,1022.0,1023.0,1024.0,1024.0,1024.0,1024.0,1023.0,1023.0,1023.0,1022.0,1023.0,1024.0,1023.0,1024.0,1024.0,1023.0,1023.0,1022.0,1023.0,1023.0,1023.0,1024.0,1023.0,1024.0,1023.0,1023.0,1023.0,1023.0,1022.0,1023.0,1023.0,1024.0,1023.0,1024.0,1024.0,1023.0,1023.0,1022.0,1022.0,1024.0,1023.0,1023.0,1024.0,1024.0,1024.0,1023.0,1023.0,1023.0,1022.0,1023.0,1023.0,1025.0,1025.0,1025.0,1024.0,1023.0,1024.0,1025.0,1023.0,1023.0,1023.0,1025.0,1024.0,1026.0,1024.0,1024.0,1024.0,1024.0,1023.0,1023.0,1023.0,1025.0,1024.0,1026.0,1024.0,1023.0,1024.0,1024.0,1023.0,1023.0,1023.0,1024.0,1023.0,1024.0,1023.0,1024.0,1023.0,1021.0,1022.0,1023.0,1024.0,1023.0,1024.0,1024.0,1023.0,1024.0,1022.0,1023.0,1024.0,1023.0,1024.0,1024.0,1023.0,1024.0,1023.0,1025.0,1024.0,1026.0,1024.0,1024.0,1024.0,1023.0,1025.0,1024.0,1025.0,1025.0,1024.0,1024.0,1024.0,1025.0,1024.0,1026.0,1025.0,1024.0,1023.0,1026.0,1026.0,1029.0,1027.0,1025.0,1024.0,1029.0,1028.0,1032.0,1029.0,1027.0,1024.0,1033.0,1031.0,1035.0,1033.0,1029.0,1026.0,1036.0,1035.0,1035.0,1038.0,1029.0,1028.0,1039.0,1037.0,1034.0,1040.0,1031.0,1030.0,1041.0,1041.0,1034.0,1042.0,1034.0,1032.0,1042.0,1043.0,1033.0,1045.0,1035.0,1031.0,1036.0,1036.0,1030.0,1038.0,1033.0,1032.0,1035.0,1033.0,1030.0,1036.0,1032.0,1023.0,1024.0,1023.0,1024.0,1024.0,1022.0,1036.0,1038.0,1035.0,1031.0,1038.0,1034.0,1032.0,1036.0,1033.0,1032.0,1040.0,1034.0,1027.0,1030.0,1027.0,1029.0,1032.0,2046,2033,1909,	00:31:50.263,0.0576171875,0.04931640625,1.017578125,-0.18310546875,0.18310546875,0.1220703125,2.7410888671875,-3.2244873046875,52.9595947265625,451.0,-1599.0,-2561.0,0.894195556640625,0.033966064453125,-0.014495849609375,0.4461669921875,2.7427406796696614,-3.223997656734643,48.346881125717694,0.9114120853474456,0.03334168896515903,-0.015860277680196433,0.40983508152850706,1,	00:31:50.264,0.02099609375,0.0595703125,1.005859375,-1.220703125,-1.40380859375,-0.48828125,3.3837890625,-1.23046875,110.8685302734375,-399.0,-1277.0,-1942.0,-0.566802978515625,-0.025604248046875,-0.018218994140625,-0.823272705078125,3.3828078012774125,-1.2327208538110987,112.22651078691358,-0.5570143146466218,-0.02538213762542655,-0.018506106095229482,-0.8299086241300967,1
1782117417.492868,0.054,1023.0,1023.0,1024.0,1023.0,1024.0,1023.0,1024.0,1023.0,1022.0,1023.0,1024.0,1023.0,1024.0,1023.0,1023.0,1023.0,1024.0,1024.0,1024.0,1024.0,1024.0,1023.0,1024.0,1023.0,1023.0,1024.0,1024.0,1024.0,1023.0,1024.0,1024.0,1023.0,1022.0,1023.0,1024.0,1023.0,1024.0,1024.0,1023.0,1023.0,1023.0,1023.0,1023.0,1024.0,1023.0,1024.0,1024.0,1023.0,1023.0,1022.0,1022.0,1023.0,1023.0,1024.0,1024.0,1024.0,1023.0,1023.0,1023.0,1023.0,1022.0,1024.0,1022.0,1024.0,1024.0,1024.0,1024.0,1023.0,1023.0,1022.0,1022.0,1022.0,1022.0,1024.0,1023.0,1024.0,1024.0,1023.0,1023.0,1023.0,1023.0,1023.0,1023.0,1025.0,1025.0,1025.0,1024.0,1024.0,1024.0,1025.0,1023.0,1023.0,1024.0,1025.0,1024.0,1026.0,1025.0,1024.0,1024.0,1024.0,1023.0,1023.0,1023.0,1025.0,1024.0,1026.0,1024.0,1024.0,1024.0,1023.0,1023.0,1023.0,1022.0,1023.0,1023.0,1024.0,1024.0,1023.0,1023.0,1021.0,1022.0,1022.0,1024.0,1023.0,1024.0,1024.0,1023.0,1023.0,1022.0,1023.0,1024.0,1023.0,1025.0,1024.0,1023.0,1023.0,1023.0,1025.0,1024.0,1025.0,1024.0,1024.0,1024.0,1023.0,1025.0,1024.0,1025.0,1024.0,1024.0,1024.0,1023.0,1025.0,1024.0,1026.0,1025.0,1024.0,1024.0,1026.0,1025.0,1029.0,1027.0,1025.0,1024.0,1029.0,1027.0,1031.0,1029.0,1027.0,1025.0,1033.0,1031.0,1034.0,1033.0,1028.0,1026.0,1036.0,1035.0,1035.0,1038.0,1030.0,1027.0,1039.0,1037.0,1033.0,1039.0,1032.0,1030.0,1042.0,1040.0,1034.0,1042.0,1034.0,1032.0,1042.0,1042.0,1034.0,1045.0,1036.0,1031.0,1036.0,1036.0,1030.0,1039.0,1033.0,1032.0,1035.0,1034.0,1030.0,1036.0,1032.0,1023.0,1024.0,1023.0,1024.0,1024.0,1022.0,1035.0,1038.0,1035.0,1031.0,1037.0,1035.0,1032.0,1036.0,1033.0,1032.0,1039.0,1034.0,1028.0,1030.0,1028.0,1029.0,1032.0,2046,2033,1909,	00:31:50.273,0.056640625,0.0478515625,1.01708984375,-0.244140625,0.18310546875,0.06103515625,2.669677734375,-3.1640625,52.9595947265625,452.0,-1598.0,-2563.0,0.89422607421875,0.03314208984375,-0.014312744140625,0.4461669921875,2.6693487461390526,-3.164335010049614,48.35152941023278,0.9114348271352305,0.03254582970511881,-0.01564661576519452,0.40985669235584554,1,	00:31:50.274,0.0224609375,0.060546875,1.00634765625,-1.220703125,-1.40380859375,-0.48828125,3.4442138671875,-1.3018798828125,110.863037109375,-398.0,-1278.0,-1942.0,-0.566802978515625,-0.026397705078125,-0.018310546875,-0.823211669921875,3.444887916942882,-1.3000668618688498,112.21917510277108,-0.5570353247570914,-0.02617260844488122,-0.018626361325004632,-0.8298672786679464,1
1782117417.501605,0.063,1023.0,1024.0,1024.0,1023.0,1023.0,1023.0,1024.0,1023.0,1022.0,1024.0,1024.0,1024.0,1024.0,1024.0,1023.0,1023.0,1023.0,1024.0,1024.0,1024.0,1024.0,1023.0,1023.0,1024.0,1023.0,1024.0,1024.0,1024.0,1024.0,1023.0,1024.0,1023.0,1022.0,1023.0,1024.0,1023.0,1025.0,1024.0,1024.0,1023.0,1022.0,1022.0,1022.0,1024.0,1023.0,1024.0,1024.0,1023.0,1023.0,1022.0,1022.0,1023.0,1023.0,1024.0,1023.0,1024.0,1023.0,1023.0,1023.0,1022.0,1023.0,1023.0,1023.0,1024.0,1023.0,1024.0,1024.0,1023.0,1023.0,1022.0,1023.0,1022.0,1023.0,1024.0,1023.0,1024.0,1024.0,1023.0,1023.0,1023.0,1022.0,1023.0,1023.0,1025.0,1025.0,1025.0,1024.0,1024.0,1024.0,1025.0,1023.0,1023.0,1023.0,1025.0,1024.0,1026.0,1024.0,1024.0,1024.0,1024.0,1023.0,1024.0,1023.0,1025.0,1024.0,1025.0,1024.0,1024.0,1024.0,1023.0,1023.0,1023.0,1022.0,1024.0,1023.0,1024.0,1023.0,1023.0,1023.0,1020.0,1022.0,1023.0,1024.0,1024.0,1024.0,1024.0,1023.0,1024.0,1022.0,1023.0,1024.0,1023.0,1024.0,1024.0,1024.0,1024.0,1023.0,1025.0,1024.0,1025.0,1024.0,1024.0,1024.0,1023.0,1025.0,1024.0,1026.0,1025.0,1024.0,1024.0,1023.0,1025.0,1024.0,1026.0,1025.0,1024.0,1024.0,1026.0,1025.0,1028.0,1027.0,1025.0,1024.0,1029.0,1028.0,1031.0,1029.0,1027.0,1025.0,1033.0,1031.0,1034.0,1034.0,1028.0,1026.0,1036.0,1035.0,1035.0,1038.0,1029.0,1027.0,1039.0,1037.0,1033.0,1040.0,1032.0,1030.0,1042.0,1041.0,1034.0,1043.0,1034.0,1032.0,1043.0,1043.0,1034.0,1045.0,1035.0,1030.0,1036.0,1036.0,1030.0,1039.0,1033.0,1032.0,1035.0,1034.0,1030.0,1037.0,1031.0,1022.0,1023.0,1023.0,1023.0,1024.0,1022.0,1036.0,1039.0,1035.0,1031.0,1038.0,1034.0,1032.0,1036.0,1032.0,1032.0,1039.0,1034.0,1027.0,1030.0,1027.0,1028.0,1032.0,2046,2033,1909,	00:31:50.283,0.0576171875,0.0478515625,1.017578125,-0.244140625,0.18310546875,0.06103515625,2.6971435546875,-3.251953125,52.9595947265625,453.0,-1599.0,-2565.0,0.894195556640625,0.033660888671875,-0.014892578125,0.446197509765625,2.6944161519679697,-3.249767022881054,48.35068613981276,0.911404498878892,0.03304976267090435,-0.016237093871120625,0.40986084149785923,1,	00:31:50.284,0.0224609375,0.0595703125,1.005859375,-1.15966796875,-1.40380859375,-0.48828125,3.350830078125,-1.2799072265625,110.8575439453125,-398.0,-1278.0,-1942.0,-0.566864013671875,-0.0257568359375,-0.017730712890625,-0.823211669921875,3.348910585406012,-1.278687631895396,112.21535532142143,-0.5570904085645767,-0.025551888044979595,-0.018034471251704414,-0.8298627209059106,1
1782117417.512534,0.074,1023.0,1024.0,1024.0,1023.0,1024.0,1023.0,1024.0,1024.0,1023.0,1023.0,1023.0,1024.0,1024.0,1024.0,1023.0,1023.0,1022.0,1024.0,1024.0,1024.0,1024.0,1023.0,1024.0,1023.0,1023.0,1024.0,1024.0,1024.0,1024.0,1023.0,1024.0,1023.0,1023.0,1023.0,1024.0,1023.0,1024.0,1024.0,1023.0,1023.0,1023.0,1022.0,1022.0,1024.0,1023.0,1024.0,1023.0,1023.0,1023.0,1022.0,1022.0,1023.0,1023.0,1024.0,1023.0,1024.0,1024.0,1023.0,1023.0,1023.0,1023.0,1023.0,1023.0,1024.0,1023.0,1024.0,1024.0,1023.0,1023.0,1022.0,1022.0,1023.0,1022.0,1024.0,1024.0,1024.0,1024.0,1023.0,1023.0,1023.0,1022.0,1023.0,1024.0,1025.0,1025.0,1025.0,1025.0,1024.0,1024.0,1024.0,1023.0,1024.0,1023.0,1025.0,1024.0,1026.0,1025.0,1024.0,1024.0,1025.0,1023.0,1024.0,1023.0,1025.0,1024.0,1025.0,1024.0,1024.0,1024.0,1024.0,1023.0,1023.0,1023.0,1023.0,1022.0,1024.0,1023.0,1023.0,1023.0,1020.0,1022.0,1023.0,1024.0,1024.0,1024.0,1023.0,1023.0,1023.0,1023.0,1023.0,1024.0,1024.0,1025.0,1024.0,1023.0,1023.0,1023.0,1025.0,1024.0,1025.0,1025.0,1024.0,1024.0,1023.0,1025.0,1024.0,1026.0,1025.0,1024.0,1024.0,1023.0,1025.0,1024.0,1026.0,1025.0,1025.0,1024.0,1026.0,1025.0,1028.0,1027.0,1025.0,1024.0,1029.0,1027.0,1031.0,1029.0,1027.0,1025.0,1033.0,1031.0,1034.0,1033.0,1028.0,1025.0,1036.0,1035.0,1035.0,1038.0,1029.0,1027.0,1039.0,1037.0,1034.0,1040.0,1031.0,1030.0,1042.0,1041.0,1034.0,1043.0,1034.0,1032.0,1042.0,1043.0,1034.0,1045.0,1035.0,1030.0,1036.0,1036.0,1030.0,1039.0,1033.0,1032.0,1035.0,1035.0,1030.0,1036.0,1031.0,1023.0,1024.0,1023.0,1023.0,1024.0,1022.0,1035.0,1039.0,1035.0,1031.0,1037.0,1035.0,1032.0,1036.0,1032.0,1032.0,1039.0,1035.0,1027.0,1030.0,1028.0,1029.0,1031.0,2046,2033,1909,	00:31:50.294,0.05810546875,0.04833984375,1.017578125,-0.18310546875,0.18310546875,0.0,2.7740478515625,-3.2958984375,52.9541015625,451.0,-1599.0,-2563.0,0.8941650390625,0.034454345703125,-0.01495361328125,0.4461669921875,2.7718022884080034,-3.293845092001963,48.34625163715597,0.9113840091440379,0.033821789699398794,-0.016312392579797927,0.4098404326886166,1,	00:31:50.295,0.021484375,0.06103515625,1.00537109375,-1.03759765625,-1.40380859375,-0.48828125,3.4222412109375,-1.25244140625,110.85205078125,-397.0,-1277.0,-1941.0,-0.566925048828125,-0.02593994140625,-0.01837158203125,-0.823150634765625,3.4220945945446277,-1.254605020447469,112.20781311854363,-0.5571350975699828,-0.025734574339854602,-0.01867995714287909,-0.8298127945147464,1
1782117417.523138,0.085,1023.0,1023.0,1024.0,1023.0,1023.0,1023.0,1023.0,1023.0,1023.0,1023.0,1024.0,1024.0,1024.0,1024.0,1023.0,1023.0,1023.0,1024.0,1023.0,1024.0,1023.0,1024.0,1023.0,1024.0,1023.0,1024.0,1024.0,1024.0,1024.0,1023.0,1024.0,1023.0,1022.0,1023.0,1024.0,1023.0,1024.0,1024.0,1023.0,1023.0,1023.0,1022.0,1022.0,1024.0,1023.0,1024.0,1024.0,1023.0,1023.0,1022.0,1022.0,1023.0,1023.0,1024.0,1023.0,1024.0,1024.0,1023.0,1023.0,1023.0,1022.0,1023.0,1022.0,1024.0,1023.0,1024.0,1024.0,1023.0,1023.0,1022.0,1022.0,1023.0,1023.0,1024.0,1023.0,1024.0,1024.0,1024.0,1023.0,1023.0,1022.0,1024.0,1023.0,1025.0,1025.0,1025.0,1024.0,1024.0,1024.0,1025.0,1024.0,1023.0,1024.0,1025.0,1024.0,1025.0,1025.0,1023.0,1024.0,1024.0,1023.0,1023.0,1023.0,1025.0,1024.0,1026.0,1024.0,1024.0,1024.0,1024.0,1023.0,1023.0,1022.0,1024.0,1022.0,1024.0,1024.0,1023.0,1023.0,1020.0,1022.0,1023.0,1024.0,1023.0,1024.0,1024.0,1024.0,1023.0,1022.0,1023.0,1024.0,1024.0,1024.0,1024.0,1024.0,1024.0,1023.0,1025.0,1024.0,1026.0,1025.0,1024.0,1024.0,1023.0,1025.0,1024.0,1025.0,1025.0,1024.0,1024.0,1023.0,1025.0,1024.0,1026.0,1025.0,1024.0,1024.0,1026.0,1025.0,1028.0,1027.0,1026.0,1024.0,1029.0,1027.0,1031.0,1029.0,1027.0,1025.0,1033.0,1031.0,1034.0,1033.0,1028.0,1026.0,1036.0,1035.0,1035.0,1038.0,1029.0,1027.0,1039.0,1037.0,1034.0,1039.0,1031.0,1030.0,1043.0,1041.0,1034.0,1042.0,1034.0,1032.0,1042.0,1043.0,1033.0,1045.0,1035.0,1030.0,1036.0,1036.0,1030.0,1039.0,1033.0,1032.0,1035.0,1034.0,1030.0,1036.0,1031.0,1023.0,1024.0,1023.0,1024.0,1024.0,1022.0,1035.0,1039.0,1035.0,1031.0,1038.0,1035.0,1032.0,1036.0,1033.0,1032.0,1040.0,1035.0,1027.0,1030.0,1028.0,1029.0,1032.0,2046,2033,1909,	00:31:50.304,0.05712890625,0.04833984375,1.017578125,-0.18310546875,0.18310546875,0.06103515625,2.7191162109375,-3.2135009765625,52.9595947265625,452.0,-1596.0,-2564.0,0.894195556640625,0.03375244140625,-0.014495849609375,0.4461669921875,2.7218250444669128,-3.2142498174210075,48.34968037122418,0.9114111503926902,0.033140962599913934,-0.015856695072275523,0.4098535796588939,1,	00:31:50.305,0.021484375,0.06005859375,1.00634765625,-1.0986328125,-1.46484375,-0.48828125,3.394775390625,-1.1810302734375,110.8465576171875,-398.0,-1274.0,-1944.0,-0.566986083984375,-0.0252685546875,-0.0185546875,-0.823150634765625,3.3932759630296028,-1.179087762879683,112.20243730293731,-0.5572005759652271,-0.025048716127870255,-0.018837605627542817,-0.8297862523436899,1
1782117417.533556,0.095,1023.0,1023.0,1024.0,1023.0,1023.0,1023.0,1024.0,1023.0,1023.0,1023.0,1023.0,1023.0,1024.0,1023.0,1023.0,1023.0,1023.0,1024.0,1024.0,1024.0,1023.0,1023.0,1023.0,1024.0,1023.0,1024.0,1023.0,1024.0,1024.0,1023.0,1023.0,1023.0,1022.0,1023.0,1024.0,1024.0,1024.0,1024.0,1023.0,1023.0,1024.0,1022.0,1022.0,1024.0,1023.0,1024.0,1024.0,1023.0,1023.0,1022.0,1022.0,1023.0,1023.0,1024.0,1023.0,1024.0,1024.0,1023.0,1023.0,1023.0,1022.0,1023.0,1023.0,1024.0,1023.0,1023.0,1024.0,1023.0,1023.0,1022.0,1022.0,1023.0,1022.0,1024.0,1024.0,1024.0,1024.0,1023.0,1023.0,1023.0,1022.0,1023.0,1024.0,1025.0,1024.0,1025.0,1024.0,1024.0,1024.0,1025.0,1023.0,1023.0,1023.0,1025.0,1025.0,1026.0,1025.0,1024.0,1024.0,1024.0,1023.0,1024.0,1023.0,1025.0,1024.0,1026.0,1024.0,1024.0,1024.0,1024.0,1023.0,1023.0,1023.0,1024.0,1022.0,1024.0,1024.0,1022.0,1023.0,1020.0,1022.0,1022.0,1024.0,1023.0,1024.0,1024.0,1023.0,1023.0,1022.0,1023.0,1024.0,1024.0,1024.0,1024.0,1023.0,1024.0,1023.0,1025.0,1024.0,1026.0,1024.0,1024.0,1024.0,1024.0,1025.0,1024.0,1026.0,1025.0,1024.0,1024.0,1023.0,1025.0,1024.0,1026.0,1025.0,1024.0,1023.0,1027.0,1025.0,1029.0,1026.0,1025.0,1024.0,1029.0,1028.0,1030.0,1029.0,1027.0,1024.0,1033.0,1031.0,1034.0,1033.0,1028.0,1026.0,1037.0,1036.0,1035.0,1038.0,1029.0,1027.0,1039.0,1037.0,1033.0,1040.0,1031.0,1029.0,1042.0,1041.0,1034.0,1043.0,1034.0,1032.0,1042.0,1043.0,1033.0,1046.0,1035.0,1031.0,1035.0,1036.0,1030.0,1039.0,1033.0,1032.0,1035.0,1034.0,1029.0,1036.0,1032.0,1023.0,1023.0,1023.0,1023.0,1024.0,1022.0,1036.0,1039.0,1035.0,1031.0,1038.0,1034.0,1032.0,1036.0,1033.0,1032.0,1040.0,1035.0,1028.0,1030.0,1028.0,1028.0,1032.0,2046,2033,1909,	00:31:50.314,0.05712890625,0.0478515625,1.01708984375,-0.18310546875,0.18310546875,0.0,2.6312255859375,-3.2025146484375,52.965087890625,451.0,-1597.0,-2565.0,0.894195556640625,0.032989501953125,-0.0147705078125,0.446197509765625,2.6287890307247914,-3.2029482053314267,48.354871870630774,0.9114226328938008,0.032361408348686165,-0.016098037960958992,0.40988092987162655,1,	00:31:50.315,0.021484375,0.05908203125,1.005859375,-0.9765625,-1.46484375,-0.54931640625,3.328857421875,-1.2689208984375,110.841064453125,-398.0,-1273.0,-1941.0,-0.5670166015625,-0.02557373046875,-0.01763916015625,-0.8231201171875,3.3287612683456325,-1.2668077730790412,112.19726396057136,-0.5572290436363984,-0.02537076816217895,-0.01794235647918339,-0.8297771923202636,1
1782117417.544610,0.106,1023.0,1024.0,1024.0,1023.0,1023.0,1022.0,1023.0,1023.0,1022.0,1023.0,1024.0,1024.0,1024.0,1024.0,1024.0,1023.0,1023.0,1024.0,1024.0,1024.0,1024.0,1023.0,1023.0,1023.0,1023.0,1024.0,1024.0,1024.0,1023.0,1023.0,1024.0,1023.0,1022.0,1023.0,1024.0,1023.0,1024.0,1024.0,1023.0,1023.0,1023.0,1022.0,1023.0,1024.0,1023.0,1024.0,1024.0,1023.0,1024.0,1022.0,1022.0,1023.0,1023.0,1024.0,1023.0,1024.0,1023.0,1023.0,1023.0,1023.0,1023.0,1023.0,1022.0,1024.0,1023.0,1024.0,1023.0,1023.0,1023.0,1023.0,1022.0,1024.0,1023.0,1024.0,1023.0,1024.0,1023.0,1024.0,1023.0,1023.0,1023.0,1023.0,1024.0,1025.0,1025.0,1025.0,1024.0,1024.0,1024.0,1024.0,1023.0,1023.0,1023.0,1025.0,1025.0,1026.0,1025.0,1023.0,1024.0,1024.0,1023.0,1023.0,1023.0,1026.0,1024.0,1025.0,1024.0,1024.0,1024.0,1024.0,1023.0,1023.0,1022.0,1024.0,1022.0,1024.0,1023.0,1023.0,1023.0,1020.0,1022.0,1023.0,1024.0,1023.0,1024.0,1024.0,1023.0,1024.0,1022.0,1023.0,1024.0,1023.0,1025.0,1024.0,1023.0,1024.0,1023.0,1025.0,1024.0,1026.0,1024.0,1024.0,1024.0,1024.0,1025.0,1024.0,1026.0,1025.0,1024.0,1024.0,1023.0,1025.0,1024.0,1026.0,1025.0,1024.0,1024.0,1026.0,1025.0,1028.0,1026.0,1025.0,1024.0,1030.0,1027.0,1032.0,1029.0,1026.0,1024.0,1033.0,1031.0,1034.0,1033.0,1028.0,1026.0,1037.0,1035.0,1035.0,1038.0,1029.0,1027.0,1039.0,1037.0,1033.0,1040.0,1031.0,1030.0,1042.0,1041.0,1034.0,1043.0,1034.0,1032.0,1042.0,1043.0,1033.0,1045.0,1035.0,1031.0,1036.0,1036.0,1030.0,1039.0,1032.0,1032.0,1035.0,1034.0,1029.0,1037.0,1031.0,1023.0,1023.0,1023.0,1023.0,1024.0,1022.0,1036.0,1039.0,1035.0,1031.0,1038.0,1035.0,1031.0,1036.0,1032.0,1032.0,1040.0,1034.0,1027.0,1030.0,1027.0,1028.0,1032.0,2046,2033,1909,	00:31:50.324,0.05810546875,0.048828125,1.017578125,-0.244140625,0.244140625,0.06103515625,2.7081298828125,-3.240966796875,52.9595947265625,451.0,-1596.0,-2565.0,0.8941650390625,0.03375244140625,-0.014801025390625,0.446197509765625,2.7075963149542805,-3.2427174058033787,48.35102548992871,0.9114016620161715,0.033129499299667395,-0.01613375131071295,0.4098647933391668,1,	00:31:50.325,0.0224609375,0.05908203125,1.00537109375,-0.9765625,-1.40380859375,-0.54931640625,3.40576171875,-1.307373046875,110.8355712890625,-398.0,-1277.0,-1942.0,-0.567047119140625,-0.026275634765625,-0.01800537109375,-0.823089599609375,3.4064459104531557,-1.3079230046208028,112.18900557136364,-0.5572604162511412,-0.026047426554612854,-0.018302879649321577,-0.8297272832961621,1
1782117417.553569,0.115,1023.0,1024.0,1024.0,1023.0,1023.0,1023.0,1024.0,1023.0,1022.0,1023.0,1024.0,1023.0,1023.0,1024.0,1023.0,1023.0,1023.0,1024.0,1024.0,1024.0,1024.0,1023.0,1023.0,1024.0,1023.0,1024.0,1023.0,1024.0,1023.0,1023.0,1023.0,1023.0,1023.0,1023.0,1024.0,1023.0,1024.0,1024.0,1023.0,1024.0,1023.0,1022.0,1023.0,1024.0,1023.0,1024.0,1024.0,1022.0,1023.0,1022.0,1022.0,1023.0,1023.0,1024.0,1024.0,1024.0,1023.0,1023.0,1023.0,1022.0,1022.0,1023.0,1023.0,1024.0,1023.0,1024.0,1023.0,1023.0,1024.0,1022.0,1022.0,1023.0,1023.0,1024.0,1023.0,1024.0,1024.0,1023.0,1024.0,1023.0,1022.0,1023.0,1023.0,1025.0,1025.0,1025.0,1024.0,1024.0,1024.0,1024.0,1023.0,1023.0,1023.0,1025.0,1025.0,1026.0,1024.0,1024.0,1024.0,1024.0,1023.0,1023.0,1023.0,1026.0,1024.0,1025.0,1024.0,1024.0,1024.0,1023.0,1022.0,1023.0,1022.0,1024.0,1022.0,1024.0,1024.0,1023.0,1023.0,1021.0,1022.0,1023.0,1024.0,1023.0,1024.0,1024.0,1023.0,1024.0,1022.0,1022.0,1024.0,1024.0,1024.0,1024.0,1023.0,1023.0,1023.0,1025.0,1024.0,1026.0,1024.0,1024.0,1024.0,1023.0,1025.0,1024.0,1025.0,1025.0,1024.0,1024.0,1023.0,1026.0,1024.0,1026.0,1025.0,1024.0,1024.0,1026.0,1025.0,1028.0,1026.0,1026.0,1024.0,1030.0,1027.0,1031.0,1029.0,1027.0,1025.0,1033.0,1031.0,1034.0,1033.0,1028.0,1026.0,1036.0,1035.0,1035.0,1038.0,1029.0,1027.0,1039.0,1037.0,1034.0,1040.0,1031.0,1029.0,1042.0,1040.0,1034.0,1043.0,1034.0,1032.0,1042.0,1043.0,1033.0,1045.0,1034.0,1030.0,1037.0,1035.0,1030.0,1040.0,1033.0,1032.0,1035.0,1034.0,1029.0,1037.0,1031.0,1022.0,1024.0,1023.0,1023.0,1024.0,1022.0,1036.0,1039.0,1035.0,1031.0,1039.0,1035.0,1031.0,1036.0,1032.0,1032.0,1040.0,1035.0,1027.0,1031.0,1027.0,1028.0,1032.0,2046,2033,1908,	00:31:50.334,0.05712890625,0.048828125,1.017578125,-0.244140625,0.18310546875,0.0,2.7740478515625,-3.1805419921875,52.9595947265625,450.0,-1599.0,-2561.0,0.894195556640625,0.0340576171875,-0.0140380859375,0.4461669921875,2.775584648725826,-3.182079269780046,48.3471638469241,0.9114144313873881,0.0334534827741456,-0.015409125990243633,0.4098379650365505,1,	00:31:50.336,0.021484375,0.060546875,1.00634765625,-0.9765625,-1.40380859375,-0.48828125,3.4332275390625,-1.2359619140625,110.8245849609375,-398.0,-1277.0,-1941.0,-0.567108154296875,-0.02587890625,-0.018524169921875,-0.823028564453125,3.4323187637561414,-1.2371257921549101,112.18250127000147,-0.5573207963362766,-0.025661924236656787,-0.018833392356694248,-0.8296868680097987,1
1782117417.564805,0.126,1023.0,1023.0,1024.0,1022.0,1023.0,1023.0,1023.0,1023.0,1022.0,1023.0,1023.0,1024.0,1024.0,1024.0,1023.0,1023.0,1023.0,1024.0,1024.0,1024.0,1024.0,1023.0,1023.0,1023.0,1023.0,1024.0,1024.0,1024.0,1023.0,1023.0,1023.0,1022.0,1022.0,1023.0,1024.0,1023.0,1024.0,1024.0,1023.0,1023.0,1023.0,1023.0,1023.0,1024.0,1023.0,1024.0,1024.0,1023.0,1023.0,1023.0,1022.0,1023.0,1023.0,1024.0,1022.0,1024.0,1024.0,1023.0,1023.0,1023.0,1022.0,1023.0,1022.0,1023.0,1024.0,1024.0,1024.0,1023.0,1023.0,1022.0,1022.0,1023.0,1022.0,1024.0,1023.0,1025.0,1024.0,1023.0,1023.0,1023.0,1022.0,1023.0,1023.0,1025.0,1025.0,1025.0,1024.0,1024.0,1024.0,1024.0,1023.0,1024.0,1023.0,1025.0,1024.0,1025.0,1024.0,1024.0,1024.0,1024.0,1023.0,1024.0,1023.0,1026.0,1024.0,1026.0,1024.0,1024.0,1024.0,1024.0,1023.0,1023.0,1022.0,1024.0,1023.0,1024.0,1024.0,1022.0,1023.0,1021.0,1022.0,1023.0,1024.0,1023.0,1025.0,1024.0,1023.0,1023.0,1022.0,1023.0,1024.0,1023.0,1025.0,1024.0,1023.0,1023.0,1023.0,1025.0,1024.0,1025.0,1024.0,1024.0,1024.0,1023.0,1025.0,1024.0,1025.0,1024.0,1024.0,1024.0,1023.0,1025.0,1024.0,1026.0,1025.0,1024.0,1023.0,1026.0,1025.0,1029.0,1027.0,1026.0,1024.0,1030.0,1027.0,1031.0,1029.0,1027.0,1025.0,1033.0,1031.0,1034.0,1033.0,1028.0,1026.0,1036.0,1035.0,1034.0,1037.0,1030.0,1028.0,1039.0,1036.0,1034.0,1039.0,1032.0,1029.0,1042.0,1040.0,1034.0,1042.0,1034.0,1032.0,1042.0,1042.0,1033.0,1045.0,1035.0,1031.0,1036.0,1036.0,1030.0,1040.0,1033.0,1032.0,1036.0,1033.0,1029.0,1036.0,1031.0,1022.0,1023.0,1023.0,1023.0,1024.0,1022.0,1035.0,1039.0,1034.0,1031.0,1038.0,1035.0,1032.0,1036.0,1032.0,1032.0,1040.0,1034.0,1027.0,1030.0,1027.0,1029.0,1032.0,2046,2033,1909,	00:31:50.345,0.056640625,0.048828125,1.01708984375,-0.18310546875,0.18310546875,0.06103515625,2.6806640625,-3.18603515625,52.965087890625,451.0,-1599.0,-2562.0,0.894195556640625,0.0333251953125,-0.014434814453125,0.446197509765625,2.682171360882794,-3.1860574312641416,48.352947991277794,0.9114194994530707,0.03272548315306349,-0.01577322271604496,0.40987161918613363,1,	00:31:50.346,0.02294921875,0.0595703125,1.00634765625,-1.0986328125,-1.3427734375,-0.54931640625,3.372802734375,-1.3238525390625,110.8245849609375,-398.0,-1277.0,-1945.0,-0.567108154296875,-0.026214599609375,-0.01763916015625,-0.823028564453125,3.3705994131151082,-1.326462955722915,112.17735887865311,-0.5573478797444491,-0.02600911069178818,-0.017950428583712985,-0.8296774368506417,1
1782117417.574181,0.136,1023.0,1024.0,1024.0,1023.0,1023.0,1023.0,1024.0,1023.0,1023.0,1023.0,1024.0,1024.0,1024.0,1024.0,1023.0,1023.0,1023.0,1025.0,1023.0,1024.0,1024.0,1023.0,1024.0,1024.0,1022.0,1024.0,1024.0,1024.0,1024.0,1023.0,1024.0,1023.0,1022.0,1022.0,1024.0,1024.0,1024.0,1023.0,1023.0,1023.0,1022.0,1022.0,1023.0,1024.0,1023.0,1024.0,1024.0,1023.0,1023.0,1022.0,1022.0,1023.0,1023.0,1024.0,1024.0,1024.0,1024.0,1024.0,1023.0,1023.0,1022.0,1023.0,1023.0,1024.0,1023.0,1024.0,1023.0,1023.0,1023.0,1022.0,1023.0,1023.0,1023.0,1024.0,1024.0,1024.0,1024.0,1023.0,1023.0,1023.0,1023.0,1023.0,1023.0,1025.0,1025.0,1025.0,1024.0,1024.0,1024.0,1025.0,1023.0,1023.0,1023.0,1025.0,1025.0,1025.0,1024.0,1024.0,1024.0,1024.0,1023.0,1023.0,1023.0,1025.0,1024.0,1026.0,1024.0,1024.0,1024.0,1024.0,1022.0,1023.0,1022.0,1024.0,1022.0,1024.0,1023.0,1023.0,1023.0,1020.0,1022.0,1022.0,1024.0,1023.0,1024.0,1024.0,1024.0,1023.0,1023.0,1022.0,1024.0,1023.0,1025.0,1024.0,1023.0,1024.0,1024.0,1025.0,1024.0,1025.0,1024.0,1024.0,1024.0,1023.0,1025.0,1024.0,1025.0,1025.0,1024.0,1025.0,1023.0,1025.0,1024.0,1026.0,1025.0,1024.0,1024.0,1026.0,1025.0,1029.0,1027.0,1025.0,1024.0,1030.0,1028.0,1031.0,1029.0,1027.0,1025.0,1033.0,1031.0,1034.0,1033.0,1028.0,1026.0,1036.0,1035.0,1036.0,1038.0,1029.0,1027.0,1040.0,1037.0,1033.0,1040.0,1031.0,1030.0,1042.0,1041.0,1034.0,1043.0,1034.0,1032.0,1043.0,1043.0,1033.0,1045.0,1034.0,1030.0,1036.0,1035.0,1030.0,1039.0,1032.0,1032.0,1035.0,1034.0,1029.0,1037.0,1031.0,1023.0,1023.0,1023.0,1024.0,1024.0,1022.0,1035.0,1039.0,1034.0,1031.0,1038.0,1034.0,1032.0,1036.0,1032.0,1032.0,1040.0,1035.0,1028.0,1031.0,1027.0,1029.0,1032.0,2045,2033,1909,	00:31:50.355,0.05810546875,0.04833984375,1.01708984375,-0.18310546875,0.18310546875,0.06103515625,2.7191162109375,-3.2684326171875,52.9595947265625,452.0,-1597.0,-2563.0,0.8941650390625,0.033935546875,-0.014923095703125,0.446197509765625,2.720323110581405,-3.2665064975529026,48.3513933224489,0.9113892671865849,0.03331560643010508,-0.0162774429178174,0.40987158827778164,1,	00:31:50.356,0.0224609375,0.06103515625,1.00537109375,-1.03759765625,-1.3427734375,-0.48828125,3.4442138671875,-1.3018798828125,110.8135986328125,-397.0,-1276.0,-1944.0,-0.567169189453125,-0.026397705078125,-0.018280029296875,-0.822967529296875,3.4431545132267574,-1.3003926706819005,112.16979348675001,-0.5573931997146995,-0.026174558938088132,-0.018600944873112354,-0.8296274574928394,1
1782117417.583756,0.145,1023.0,1024.0,1024.0,1023.0,1024.0,1023.0,1024.0,1023.0,1023.0,1023.0,1024.0,1024.0,1024.0,1024.0,1023.0,1023.0,1023.0,1024.0,1024.0,1024.0,1024.0,1023.0,1024.0,1023.0,1023.0,1024.0,1024.0,1024.0,1024.0,1023.0,1023.0,1023.0,1022.0,1023.0,1024.0,1023.0,1024.0,1023.0,1023.0,1023.0,1023.0,1022.0,1023.0,1024.0,1023.0,1024.0,1023.0,1023.0,1023.0,1022.0,1022.0,1023.0,1023.0,1024.0,1024.0,1024.0,1024.0,1023.0,1023.0,1023.0,1022.0,1023.0,1022.0,1024.0,1023.0,1024.0,1023.0,1023.0,1023.0,1022.0,1022.0,1023.0,1023.0,1024.0,1023.0,1024.0,1024.0,1023.0,1024.0,1023.0,1022.0,1023.0,1023.0,1025.0,1024.0,1025.0,1024.0,1024.0,1024.0,1024.0,1023.0,1023.0,1023.0,1025.0,1025.0,1026.0,1024.0,1024.0,1024.0,1024.0,1023.0,1023.0,1023.0,1025.0,1025.0,1025.0,1024.0,1024.0,1024.0,1023.0,1022.0,1023.0,1022.0,1024.0,1023.0,1024.0,1024.0,1023.0,1022.0,1021.0,1022.0,1023.0,1024.0,1024.0,1025.0,1024.0,1024.0,1023.0,1023.0,1022.0,1025.0,1023.0,1025.0,1024.0,1023.0,1023.0,1023.0,1025.0,1024.0,1025.0,1024.0,1024.0,1024.0,1023.0,1024.0,1024.0,1026.0,1025.0,1024.0,1024.0,1023.0,1024.0,1024.0,1026.0,1025.0,1024.0,1023.0,1026.0,1026.0,1029.0,1027.0,1026.0,1024.0,1029.0,1027.0,1031.0,1029.0,1027.0,1025.0,1033.0,1030.0,1035.0,1033.0,1028.0,1026.0,1036.0,1035.0,1035.0,1037.0,1029.0,1027.0,1039.0,1037.0,1034.0,1040.0,1031.0,1029.0,1042.0,1041.0,1034.0,1042.0,1034.0,1032.0,1042.0,1042.0,1033.0,1045.0,1034.0,1031.0,1036.0,1035.0,1030.0,1038.0,1033.0,1032.0,1035.0,1034.0,1030.0,1036.0,1031.0,1023.0,1023.0,1023.0,1023.0,1024.0,1022.0,1035.0,1039.0,1035.0,1031.0,1038.0,1035.0,1032.0,1036.0,1032.0,1032.0,1040.0,1035.0,1028.0,1031.0,1027.0,1028.0,1032.0,2045,2033,1908,	00:31:50.365,0.0576171875,0.04931640625,1.017578125,-0.244140625,0.18310546875,0.06103515625,2.7960205078125,-3.218994140625,52.9595947265625,451.0,-1598.0,-2561.0,0.8941650390625,0.03436279296875,-0.014251708984375,0.4461669921875,2.7984512579611205,-3.2208319325257024,48.34752895424119,0.9113944356002899,0.03377358366805336,-0.015635642879050688,0.40984759908386076,1,	00:31:50.366,0.0224609375,0.060546875,1.0068359375,-0.9765625,-1.3427734375,-0.54931640625,3.427734375,-1.219482421875,110.80810546875,-398.0,-1277.0,-1944.0,-0.567230224609375,-0.0257568359375,-0.0185546875,-0.82293701171875,3.426977823429765,-1.2220595508501995,112.16363971122593,-0.5574625983953411,-0.025530015276071412,-0.018863865672192802,-0.8295949760468778,1
1782117417.594754,0.156,1023.0,1024.0,1024.0,1023.0,1023.0,1023.0,1023.0,1023.0,1023.0,1023.0,1024.0,1024.0,1024.0,1023.0,1023.0,1023.0,1023.0,1024.0,1024.0,1024.0,1024.0,1023.0,1024.0,1023.0,1023.0,1024.0,1024.0,1024.0,1024.0,1023.0,1023.0,1023.0,1022.0,1023.0,1024.0,1024.0,1024.0,1024.0,1023.0,1023.0,1023.0,1023.0,1023.0,1024.0,1023.0,1024.0,1023.0,1023.0,1023.0,1023.0,1022.0,1023.0,1023.0,1024.0,1023.0,1025.0,1024.0,1023.0,1023.0,1023.0,1022.0,1023.0,1023.0,1024.0,1023.0,1024.0,1024.0,1023.0,1023.0,1022.0,1023.0,1023.0,1022.0,1024.0,1023.0,1024.0,1024.0,1023.0,1023.0,1023.0,1022.0,1023.0,1023.0,1024.0,1025.0,1025.0,1024.0,1024.0,1024.0,1024.0,1023.0,1023.0,1023.0,1025.0,1025.0,1026.0,1025.0,1023.0,1024.0,1024.0,1023.0,1023.0,1023.0,1026.0,1024.0,1026.0,1025.0,1024.0,1024.0,1024.0,1022.0,1023.0,1023.0,1024.0,1023.0,1024.0,1024.0,1023.0,1023.0,1021.0,1022.0,1023.0,1024.0,1024.0,1024.0,1024.0,1023.0,1023.0,1023.0,1023.0,1024.0,1023.0,1025.0,1024.0,1023.0,1024.0,1023.0,1025.0,1024.0,1026.0,1025.0,1024.0,1024.0,1023.0,1025.0,1024.0,1026.0,1025.0,1024.0,1024.0,1023.0,1025.0,1024.0,1025.0,1025.0,1024.0,1023.0,1026.0,1025.0,1028.0,1026.0,1025.0,1024.0,1029.0,1027.0,1031.0,1029.0,1028.0,1025.0,1033.0,1031.0,1034.0,1033.0,1028.0,1026.0,1036.0,1035.0,1035.0,1037.0,1029.0,1027.0,1039.0,1037.0,1034.0,1040.0,1031.0,1029.0,1042.0,1041.0,1033.0,1043.0,1035.0,1032.0,1043.0,1043.0,1034.0,1045.0,1035.0,1031.0,1036.0,1036.0,1030.0,1039.0,1033.0,1032.0,1035.0,1034.0,1029.0,1036.0,1031.0,1022.0,1024.0,1023.0,1024.0,1023.0,1022.0,1035.0,1038.0,1035.0,1031.0,1038.0,1034.0,1032.0,1036.0,1032.0,1032.0,1040.0,1035.0,1027.0,1030.0,1027.0,1029.0,1032.0,2045,2033,1908,	00:31:50.375,0.05810546875,0.0498046875,1.01708984375,-0.18310546875,0.18310546875,0.06103515625,2.8070068359375,-3.3123779296875,52.9595947265625,451.0,-1597.0,-2562.0,0.894134521484375,0.0347900390625,-0.014923095703125,0.4461669921875,2.806611854896033,-3.309981222527587,48.34765912702443,0.9113635472797305,0.034156371275593574,-0.016315890215729524,0.40985804703269957,1,	00:31:50.376,0.02197265625,0.06005859375,1.00732421875,-1.15966796875,-1.3427734375,-0.42724609375,3.3673095703125,-1.3128662109375,110.8026123046875,-397.0,-1277.0,-1942.0,-0.5672607421875,-0.026123046875,-0.0177001953125,-0.82293701171875,3.3689139218150688,-1.314168607070876,112.15961101429227,-0.5574800618639996,-0.025914725818987776,-0.0179940691868119,-0.8295906346409283,1
1782117417.604713,0.166,1023.0,1023.0,1024.0,1023.0,1023.0,1023.0,1023.0,1023.0,1022.0,1023.0,1024.0,1024.0,1024.0,1023.0,1023.0,1023.0,1023.0,1024.0,1024.0,1024.0,1024.0,1023.0,1023.0,1023.0,1023.0,1024.0,1024.0,1024.0,1024.0,1023.0,1023.0,1023.0,1022.0,1023.0,1024.0,1023.0,1024.0,1024.0,1023.0,1023.0,1023.0,1022.0,1022.0,1024.0,1023.0,1024.0,1023.0,1023.0,1023.0,1022.0,1022.0,1023.0,1023.0,1024.0,1023.0,1024.0,1023.0,1023.0,1023.0,1023.0,1023.0,1023.0,1022.0,1024.0,1022.0,1024.0,1024.0,1023.0,1023.0,1022.0,1022.0,1023.0,1023.0,1024.0,1024.0,1024.0,1023.0,1023.0,1023.0,1023.0,1023.0,1023.0,1024.0,1025.0,1025.0,1025.0,1024.0,1024.0,1024.0,1024.0,1023.0,1024.0,1023.0,1026.0,1025.0,1026.0,1024.0,1024.0,1024.0,1025.0,1023.0,1024.0,1023.0,1025.0,1024.0,1025.0,1025.0,1024.0,1024.0,1024.0,1023.0,1023.0,1022.0,1024.0,1023.0,1024.0,1024.0,1023.0,1022.0,1021.0,1022.0,1023.0,1024.0,1023.0,1024.0,1024.0,1023.0,1023.0,1022.0,1022.0,1024.0,1024.0,1024.0,1024.0,1023.0,1023.0,1024.0,1025.0,1024.0,1025.0,1024.0,1024.0,1024.0,1023.0,1025.0,1024.0,1026.0,1024.0,1024.0,1024.0,1023.0,1025.0,1024.0,1026.0,1025.0,1024.0,1023.0,1026.0,1025.0,1028.0,1026.0,1025.0,1024.0,1029.0,1028.0,1031.0,1029.0,1027.0,1025.0,1033.0,1032.0,1035.0,1033.0,1029.0,1026.0,1035.0,1036.0,1035.0,1037.0,1029.0,1027.0,1039.0,1037.0,1033.0,1040.0,1031.0,1029.0,1042.0,1041.0,1034.0,1043.0,1034.0,1032.0,1043.0,1043.0,1033.0,1045.0,1035.0,1031.0,1036.0,1035.0,1030.0,1039.0,1033.0,1032.0,1035.0,1034.0,1030.0,1036.0,1031.0,1023.0,1024.0,1023.0,1023.0,1024.0,1022.0,1036.0,1039.0,1035.0,1031.0,1038.0,1034.0,1032.0,1036.0,1033.0,1032.0,1040.0,1034.0,1028.0,1030.0,1027.0,1028.0,1032.0,2045,2033,1909,	00:31:50.386,0.056640625,0.048828125,1.01708984375,-0.18310546875,0.18310546875,0.0,2.7685546875,-3.2244873046875,52.9595947265625,451.0,-1598.0,-2561.0,0.8941650390625,0.034149169921875,-0.014434814453125,0.446197509765625,2.7665322588387986,-3.2250692326736266,48.34992737701564,0.9113939156256959,0.03353515674998251,-0.015782823606642918,0.40986269200943093,1,	00:31:50.387,0.021484375,0.060546875,1.00634765625,-1.220703125,-1.40380859375,-0.48828125,3.4112548828125,-1.2579345703125,110.797119140625,-397.0,-1280.0,-1945.0,-0.56732177734375,-0.02593994140625,-0.018280029296875,-0.822906494140625,3.4138377609919774,-1.2561076135634064,112.15262576782825,-0.5575361204701318,-0.02571426742682212,-0.01860047091702323,-0.8295458235103601,1
1782117417.614999,0.176,1023.0,1024.0,1024.0,1023.0,1023.0,1023.0,1024.0,1023.0,1023.0,1023.0,1024.0,1024.0,1024.0,1023.0,1023.0,1023.0,1022.0,1024.0,1024.0,1024.0,1024.0,1023.0,1023.0,1023.0,1023.0,1024.0,1023.0,1024.0,1024.0,1023.0,1024.0,1023.0,1023.0,1023.0,1024.0,1024.0,1024.0,1023.0,1023.0,1024.0,1022.0,1022.0,1023.0,1024.0,1023.0,1024.0,1023.0,1023.0,1023.0,1022.0,1022.0,1023.0,1023.0,1024.0,1024.0,1024.0,1023.0,1023.0,1023.0,1023.0,1022.0,1023.0,1023.0,1024.0,1023.0,1024.0,1024.0,1023.0,1023.0,1022.0,1022.0,1023.0,1023.0,1024.0,1024.0,1024.0,1024.0,1023.0,1023.0,1023.0,1022.0,1023.0,1024.0,1025.0,1025.0,1025.0,1024.0,1024.0,1024.0,1025.0,1023.0,1024.0,1023.0,1026.0,1025.0,1026.0,1024.0,1024.0,1024.0,1024.0,1023.0,1024.0,1023.0,1025.0,1024.0,1026.0,1024.0,1024.0,1024.0,1024.0,1023.0,1023.0,1022.0,1024.0,1023.0,1024.0,1024.0,1023.0,1023.0,1021.0,1022.0,1023.0,1024.0,1024.0,1024.0,1024.0,1023.0,1023.0,1022.0,1023.0,1024.0,1023.0,1025.0,1024.0,1023.0,1023.0,1023.0,1025.0,1024.0,1025.0,1024.0,1024.0,1024.0,1023.0,1025.0,1024.0,1025.0,1025.0,1024.0,1024.0,1024.0,1025.0,1024.0,1026.0,1025.0,1024.0,1023.0,1026.0,1026.0,1028.0,1026.0,1026.0,1024.0,1029.0,1028.0,1031.0,1029.0,1027.0,1025.0,1033.0,1031.0,1035.0,1034.0,1028.0,1026.0,1036.0,1035.0,1035.0,1038.0,1030.0,1026.0,1039.0,1037.0,1034.0,1039.0,1032.0,1030.0,1041.0,1041.0,1034.0,1043.0,1034.0,1033.0,1042.0,1044.0,1033.0,1045.0,1035.0,1031.0,1036.0,1036.0,1030.0,1039.0,1033.0,1032.0,1035.0,1035.0,1030.0,1036.0,1031.0,1023.0,1023.0,1023.0,1024.0,1024.0,1022.0,1036.0,1038.0,1035.0,1031.0,1038.0,1035.0,1032.0,1036.0,1033.0,1032.0,1040.0,1035.0,1028.0,1030.0,1027.0,1028.0,1032.0,2045,2033,1908,	00:31:50.396,0.05810546875,0.048828125,1.01708984375,-0.18310546875,0.18310546875,0.06103515625,2.7301025390625,-3.306884765625,52.965087890625,453.0,-1598.0,-2566.0,0.894134521484375,0.034149169921875,-0.01519775390625,0.446197509765625,2.72772072364016,-3.3071430589278754,48.3527324899585,0.9113695936447186,0.03351954437896645,-0.016573984277814577,0.4098868221468528,1,	00:31:50.397,0.02294921875,0.06005859375,1.005859375,-1.220703125,-1.40380859375,-0.48828125,3.40576171875,-1.3623046875,110.7916259765625,-399.0,-1274.0,-1943.0,-0.56732177734375,-0.02667236328125,-0.017730712890625,-0.8228759765625,3.4077178143824876,-1.3612774358403055,112.14678936028301,-0.5575512540826356,-0.026446406803848556,-0.01804261988180062,-0.8295249547215845,1
1782117417.625422,0.187,1023.0,1023.0,1024.0,1023.0,1023.0,1023.0,1024.0,1024.0,1022.0,1023.0,1024.0,1023.0,1024.0,1024.0,1023.0,1023.0,1023.0,1024.0,1024.0,1024.0,1023.0,1023.0,1023.0,1024.0,1023.0,1024.0,1024.0,1024.0,1024.0,1023.0,1023.0,1023.0,1023.0,1023.0,1024.0,1023.0,1024.0,1024.0,1023.0,1023.0,1023.0,1023.0,1022.0,1023.0,1023.0,1024.0,1023.0,1023.0,1023.0,1023.0,1022.0,1023.0,1022.0,1024.0,1023.0,1024.0,1023.0,1023.0,1023.0,1023.0,1023.0,1023.0,1023.0,1024.0,1023.0,1024.0,1023.0,1023.0,1023.0,1022.0,1022.0,1023.0,1023.0,1025.0,1024.0,1024.0,1024.0,1023.0,1023.0,1023.0,1023.0,1023.0,1023.0,1025.0,1025.0,1025.0,1024.0,1024.0,1024.0,1025.0,1023.0,1023.0,1023.0,1025.0,1025.0,1026.0,1024.0,1023.0,1024.0,1024.0,1023.0,1023.0,1023.0,1026.0,1024.0,1026.0,1024.0,1024.0,1024.0,1024.0,1023.0,1024.0,1022.0,1024.0,1022.0,1024.0,1024.0,1023.0,1023.0,1020.0,1022.0,1022.0,1024.0,1023.0,1025.0,1024.0,1023.0,1023.0,1022.0,1022.0,1024.0,1024.0,1024.0,1024.0,1023.0,1023.0,1023.0,1025.0,1024.0,1025.0,1024.0,1024.0,1024.0,1023.0,1025.0,1024.0,1026.0,1024.0,1024.0,1024.0,1023.0,1025.0,1024.0,1026.0,1025.0,1024.0,1024.0,1027.0,1026.0,1029.0,1026.0,1025.0,1024.0,1029.0,1028.0,1031.0,1029.0,1027.0,1025.0,1033.0,1032.0,1035.0,1033.0,1028.0,1026.0,1036.0,1036.0,1035.0,1038.0,1029.0,1027.0,1039.0,1037.0,1033.0,1040.0,1032.0,1029.0,1042.0,1041.0,1033.0,1043.0,1034.0,1032.0,1043.0,1043.0,1034.0,1045.0,1035.0,1031.0,1036.0,1035.0,1030.0,1038.0,1032.0,1032.0,1035.0,1034.0,1029.0,1036.0,1031.0,1023.0,1024.0,1023.0,1023.0,1024.0,1021.0,1036.0,1039.0,1034.0,1031.0,1038.0,1035.0,1032.0,1036.0,1033.0,1032.0,1040.0,1035.0,1028.0,1031.0,1027.0,1029.0,1032.0,2045,2033,1908,	00:31:50.406,0.0576171875,0.048828125,1.01806640625,-0.18310546875,0.18310546875,0.06103515625,2.74658203125,-3.218994140625,52.9595947265625,452.0,-1597.0,-2564.0,0.8941650390625,0.033966064453125,-0.014434814453125,0.446197509765625,2.7483636883309956,-3.2165571032771774,48.35214794885332,0.9113939118934127,0.0333606059788701,-0.01577941898496827,0.4098770758030286,1,	00:31:50.407,0.0224609375,0.06103515625,1.00634765625,-1.220703125,-1.40380859375,-0.48828125,3.44970703125,-1.3018798828125,110.7861328125,-398.0,-1277.0,-1939.0,-0.5673828125,-0.02642822265625,-0.018341064453125,-0.82281494140625,3.450230752410626,-1.3013545188354738,112.13980470309923,-0.5576084148811199,-0.02622081856149947,-0.018640631124794405,-0.8294804706555778,1
1782117417.635631,0.197,1023.0,1023.0,1024.0,1023.0,1023.0,1023.0,1024.0,1023.0,1022.0,1023.0,1024.0,1024.0,1024.0,1023.0,1023.0,1024.0,1022.0,1024.0,1023.0,1024.0,1024.0,1023.0,1023.0,1024.0,1023.0,1024.0,1024.0,1024.0,1024.0,1023.0,1024.0,1023.0,1022.0,1023.0,1024.0,1023.0,1024.0,1024.0,1023.0,1023.0,1023.0,1023.0,1022.0,1024.0,1023.0,1024.0,1023.0,1023.0,1023.0,1022.0,1023.0,1023.0,1023.0,1024.0,1023.0,1024.0,1024.0,1023.0,1023.0,1022.0,1022.0,1023.0,1023.0,1024.0,1023.0,1024.0,1023.0,1023.0,1023.0,1022.0,1023.0,1023.0,1023.0,1024.0,1023.0,1024.0,1024.0,1024.0,1023.0,1023.0,1022.0,1023.0,1024.0,1025.0,1025.0,1025.0,1024.0,1024.0,1024.0,1025.0,1023.0,1023.0,1023.0,1025.0,1024.0,1025.0,1025.0,1024.0,1024.0,1024.0,1023.0,1023.0,1023.0,1025.0,1024.0,1026.0,1024.0,1023.0,1024.0,1023.0,1023.0,1023.0,1023.0,1024.0,1022.0,1024.0,1023.0,1023.0,1022.0,1020.0,1022.0,1023.0,1024.0,1024.0,1025.0,1023.0,1023.0,1023.0,1023.0,1023.0,1024.0,1023.0,1024.0,1023.0,1024.0,1023.0,1023.0,1025.0,1024.0,1025.0,1024.0,1024.0,1024.0,1024.0,1025.0,1024.0,1026.0,1024.0,1024.0,1024.0,1023.0,1025.0,1024.0,1026.0,1025.0,1024.0,1023.0,1026.0,1025.0,1028.0,1027.0,1025.0,1024.0,1030.0,1028.0,1031.0,1030.0,1027.0,1025.0,1033.0,1031.0,1034.0,1033.0,1029.0,1026.0,1036.0,1036.0,1035.0,1038.0,1029.0,1027.0,1039.0,1037.0,1033.0,1039.0,1031.0,1029.0,1042.0,1041.0,1033.0,1043.0,1034.0,1032.0,1043.0,1043.0,1033.0,1045.0,1034.0,1031.0,1036.0,1036.0,1030.0,1039.0,1033.0,1032.0,1035.0,1034.0,1029.0,1037.0,1031.0,1023.0,1024.0,1023.0,1024.0,1024.0,1022.0,1036.0,1039.0,1035.0,1031.0,1038.0,1034.0,1032.0,1036.0,1032.0,1032.0,1040.0,1035.0,1027.0,1031.0,1027.0,1029.0,1032.0,2045,2033,1908,	00:31:50.416,0.05810546875,0.048828125,1.01708984375,-0.1220703125,0.1220703125,0.06103515625,2.74658203125,-3.306884765625,52.965087890625,450.0,-1598.0,-2563.0,0.894134521484375,0.0343017578125,-0.01513671875,0.44622802734375,2.7474080244991237,-3.306891294692173,48.35280093187555,0.911363655966126,0.03367523300358553,-0.016501540115941193,0.4098901858303183,1,	00:31:50.417,0.0224609375,0.06005859375,1.0068359375,-1.3427734375,-1.52587890625,-0.48828125,3.36181640625,-1.263427734375,110.7806396484375,-399.0,-1278.0,-1945.0,-0.56744384765625,-0.025726318359375,-0.01788330078125,-0.82281494140625,3.3620360436849133,-1.26370628977619,112.13568269749408,-0.5576683157279526,-0.02551990134382347,-0.018184688449642473,-0.82947218239947,1
1782117417.645791,0.207,1023.0,1024.0,1024.0,1023.0,1024.0,1023.0,1024.0,1024.0,1022.0,1023.0,1024.0,1023.0,1024.0,1024.0,1023.0,1023.0,1023.0,1024.0,1024.0,1024.0,1024.0,1023.0,1023.0,1023.0,1023.0,1024.0,1023.0,1024.0,1024.0,1023.0,1023.0,1023.0,1022.0,1023.0,1024.0,1023.0,1024.0,1024.0,1023.0,1023.0,1023.0,1022.0,1023.0,1024.0,1023.0,1024.0,1024.0,1023.0,1023.0,1022.0,1022.0,1023.0,1023.0,1024.0,1023.0,1024.0,1023.0,1023.0,1023.0,1023.0,1022.0,1024.0,1023.0,1024.0,1023.0,1024.0,1023.0,1023.0,1023.0,1022.0,1022.0,1024.0,1023.0,1024.0,1024.0,1024.0,1024.0,1024.0,1023.0,1023.0,1022.0,1023.0,1024.0,1025.0,1025.0,1025.0,1024.0,1024.0,1024.0,1024.0,1023.0,1023.0,1023.0,1026.0,1024.0,1025.0,1024.0,1024.0,1024.0,1025.0,1023.0,1024.0,1023.0,1025.0,1024.0,1026.0,1024.0,1024.0,1024.0,1024.0,1023.0,1023.0,1023.0,1024.0,1022.0,1024.0,1023.0,1023.0,1023.0,1021.0,1022.0,1023.0,1024.0,1024.0,1024.0,1024.0,1024.0,1023.0,1023.0,1023.0,1024.0,1023.0,1024.0,1024.0,1023.0,1024.0,1023.0,1025.0,1024.0,1025.0,1024.0,1024.0,1024.0,1023.0,1025.0,1024.0,1026.0,1025.0,1024.0,1024.0,1023.0,1025.0,1024.0,1026.0,1026.0,1024.0,1024.0,1026.0,1025.0,1028.0,1026.0,1025.0,1024.0,1029.0,1028.0,1031.0,1029.0,1027.0,1025.0,1033.0,1031.0,1035.0,1033.0,1028.0,1026.0,1037.0,1035.0,1035.0,1038.0,1030.0,1027.0,1039.0,1037.0,1033.0,1039.0,1031.0,1029.0,1041.0,1041.0,1033.0,1043.0,1034.0,1032.0,1042.0,1043.0,1033.0,1045.0,1034.0,1031.0,1036.0,1036.0,1030.0,1039.0,1032.0,1032.0,1035.0,1034.0,1030.0,1036.0,1031.0,1023.0,1023.0,1023.0,1023.0,1024.0,1021.0,1036.0,1039.0,1035.0,1031.0,1039.0,1035.0,1032.0,1036.0,1033.0,1032.0,1039.0,1035.0,1027.0,1031.0,1027.0,1029.0,1032.0,2045,2033,1908,	00:31:50.426,0.05810546875,0.04736328125,1.01806640625,-0.18310546875,0.18310546875,0.06103515625,2.6641845703125,-3.262939453125,52.9705810546875,452.0,-1599.0,-2564.0,0.8941650390625,0.033477783203125,-0.015106201171875,0.44622802734375,2.6643981181519205,-3.262629752391891,48.35814794152541,0.9113824577742043,0.0328579544136365,-0.016444684826059045,0.40991699505408846,1,	00:31:50.428,0.02197265625,0.060546875,1.00634765625,-1.3427734375,-1.52587890625,-0.48828125,3.438720703125,-1.263427734375,110.775146484375,-399.0,-1278.0,-1945.0,-0.567474365234375,-0.026092529296875,-0.0184326171875,-0.82275390625,3.4387330119251502,-1.2618040578166918,112.12792875910863,-0.5577077502922387,-0.02588065270519698,-0.018747371115914204,-0.8294219632706654,1
1782117417.656825,0.218,1023.0,1023.0,1024.0,1022.0,1023.0,1022.0,1024.0,1023.0,1022.0,1023.0,1024.0,1024.0,1024.0,1024.0,1023.0,1023.0,1023.0,1024.0,1024.0,1024.0,1024.0,1023.0,1023.0,1023.0,1023.0,1024.0,1024.0,1024.0,1024.0,1023.0,1023.0,1023.0,1022.0,1023.0,1024.0,1024.0,1024.0,1024.0,1023.0,1023.0,1023.0,1022.0,1022.0,1024.0,1023.0,1024.0,1024.0,1023.0,1023.0,1022.0,1022.0,1023.0,1023.0,1024.0,1023.0,1024.0,1024.0,1023.0,1023.0,1023.0,1022.0,1023.0,1023.0,1024.0,1023.0,1024.0,1024.0,1023.0,1023.0,1022.0,1022.0,1023.0,1023.0,1024.0,1023.0,1024.0,1024.0,1024.0,1023.0,1023.0,1022.0,1023.0,1023.0,1025.0,1025.0,1026.0,1024.0,1023.0,1024.0,1025.0,1023.0,1024.0,1023.0,1025.0,1024.0,1025.0,1024.0,1024.0,1024.0,1025.0,1024.0,1023.0,1023.0,1025.0,1024.0,1025.0,1024.0,1024.0,1024.0,1024.0,1023.0,1023.0,1023.0,1024.0,1023.0,1024.0,1023.0,1023.0,1022.0,1021.0,1022.0,1023.0,1024.0,1023.0,1024.0,1024.0,1024.0,1024.0,1022.0,1023.0,1024.0,1024.0,1024.0,1024.0,1023.0,1024.0,1023.0,1025.0,1024.0,1025.0,1025.0,1023.0,1024.0,1023.0,1025.0,1024.0,1025.0,1025.0,1024.0,1025.0,1022.0,1024.0,1024.0,1025.0,1024.0,1024.0,1023.0,1026.0,1026.0,1028.0,1026.0,1025.0,1024.0,1029.0,1028.0,1031.0,1029.0,1026.0,1025.0,1033.0,1031.0,1034.0,1034.0,1028.0,1026.0,1036.0,1035.0,1036.0,1038.0,1029.0,1027.0,1039.0,1038.0,1033.0,1040.0,1031.0,1029.0,1042.0,1041.0,1033.0,1043.0,1034.0,1031.0,1042.0,1043.0,1034.0,1045.0,1035.0,1030.0,1035.0,1036.0,1029.0,1039.0,1032.0,1032.0,1035.0,1033.0,1029.0,1036.0,1031.0,1023.0,1024.0,1023.0,1024.0,1024.0,1022.0,1035.0,1038.0,1035.0,1031.0,1038.0,1034.0,1032.0,1036.0,1032.0,1032.0,1040.0,1035.0,1027.0,1030.0,1027.0,1029.0,1032.0,2045,2033,1908,	00:31:50.437,0.05712890625,0.04833984375,1.017578125,-0.18310546875,0.18310546875,0.06103515625,2.7301025390625,-3.197021484375,52.965087890625,452.0,-1597.0,-2566.0,0.8941650390625,0.03375244140625,-0.01434326171875,0.44622802734375,2.7288645800897733,-3.1974481769807577,48.355105056089364,0.9113948794521196,0.033137779630750874,-0.015696235434991806,0.40989619352071266,1,	00:31:50.438,0.02197265625,0.05908203125,1.00634765625,-1.3427734375,-1.52587890625,-0.48828125,3.3343505859375,-1.263427734375,110.7696533203125,-399.0,-1277.0,-1940.0,-0.567535400390625,-0.02557373046875,-0.0177001953125,-0.82275390625,3.335161724218813,-1.2616792251513362,112.12412552258984,-0.5577584755379158,-0.025376263377028765,-0.01799747305459285,-0.8294200499061312,1
1782117417.667381,0.229,1024.0,1024.0,1024.0,1023.0,1023.0,1022.0,1023.0,1023.0,1023.0,1023.0,1024.0,1023.0,1024.0,1024.0,1023.0,1023.0,1023.0,1024.0,1024.0,1024.0,1023.0,1023.0,1023.0,1023.0,1023.0,1024.0,1024.0,1024.0,1024.0,1023.0,1023.0,1023.0,1022.0,1023.0,1024.0,1023.0,1024.0,1024.0,1023.0,1023.0,1023.0,1023.0,1023.0,1024.0,1023.0,1024.0,1023.0,1023.0,1023.0,1022.0,1022.0,1023.0,1023.0,1024.0,1023.0,1024.0,1024.0,1024.0,1023.0,1023.0,1022.0,1024.0,1023.0,1024.0,1024.0,1025.0,1024.0,1023.0,1023.0,1023.0,1022.0,1023.0,1023.0,1024.0,1024.0,1025.0,1024.0,1024.0,1023.0,1023.0,1022.0,1023.0,1024.0,1025.0,1024.0,1025.0,1024.0,1023.0,1024.0,1025.0,1023.0,1024.0,1022.0,1026.0,1025.0,1026.0,1025.0,1024.0,1024.0,1024.0,1023.0,1024.0,1023.0,1025.0,1024.0,1025.0,1024.0,1024.0,1024.0,1024.0,1023.0,1023.0,1022.0,1024.0,1023.0,1024.0,1023.0,1023.0,1023.0,1021.0,1022.0,1023.0,1024.0,1023.0,1024.0,1024.0,1023.0,1023.0,1022.0,1023.0,1024.0,1024.0,1024.0,1024.0,1023.0,1024.0,1023.0,1025.0,1024.0,1026.0,1024.0,1024.0,1024.0,1023.0,1025.0,1024.0,1026.0,1024.0,1024.0,1024.0,1023.0,1024.0,1024.0,1026.0,1025.0,1024.0,1023.0,1026.0,1026.0,1028.0,1027.0,1025.0,1024.0,1029.0,1028.0,1031.0,1029.0,1027.0,1024.0,1033.0,1031.0,1034.0,1034.0,1028.0,1026.0,1036.0,1035.0,1035.0,1038.0,1029.0,1027.0,1038.0,1037.0,1034.0,1040.0,1032.0,1029.0,1042.0,1041.0,1034.0,1043.0,1034.0,1032.0,1042.0,1043.0,1033.0,1045.0,1035.0,1031.0,1036.0,1036.0,1030.0,1039.0,1032.0,1032.0,1035.0,1034.0,1030.0,1037.0,1031.0,1023.0,1024.0,1023.0,1023.0,1024.0,1022.0,1035.0,1039.0,1034.0,1031.0,1039.0,1035.0,1032.0,1036.0,1032.0,1032.0,1040.0,1035.0,1027.0,1031.0,1027.0,1029.0,1032.0,2046,2033,1909,	00:31:50.447,0.0576171875,0.04931640625,1.017578125,-0.18310546875,0.18310546875,0.06103515625,2.7960205078125,-3.2574462890625,52.9595947265625,451.0,-1599.0,-2563.0,0.894134521484375,0.03448486328125,-0.014556884765625,0.446197509765625,2.7962816060860867,-3.255428435080502,48.35190426103429,0.9113686300544255,0.03388029360442,-0.015917438682639104,0.4098853266509823,1,	00:31:50.448,0.02197265625,0.0595703125,1.00537109375,-1.40380859375,-1.52587890625,-0.48828125,3.4112548828125,-1.2579345703125,110.7586669921875,-399.0,-1277.0,-1942.0,-0.56756591796875,-0.02593994140625,-0.01824951171875,-0.822723388671875,3.4108149507646175,-1.2575834836461592,112.116392744153,-0.5577986704690209,-0.025716110396366242,-0.018563270293142278,-0.8293700801723548,1
1782117417.676902,0.238,1023.0,1024.0,1024.0,1023.0,1023.0,1022.0,1023.0,1024.0,1023.0,1023.0,1024.0,1024.0,1023.0,1024.0,1022.0,1023.0,1023.0,1024.0,1024.0,1024.0,1024.0,1023.0,1023.0,1023.0,1022.0,1024.0,1023.0,1024.0,1024.0,1023.0,1023.0,1023.0,1022.0,1023.0,1024.0,1023.0,1024.0,1023.0,1023.0,1023.0,1023.0,1022.0,1023.0,1024.0,1023.0,1024.0,1024.0,1023.0,1023.0,1022.0,1022.0,1023.0,1023.0,1024.0,1023.0,1024.0,1024.0,1023.0,1024.0,1023.0,1022.0,1023.0,1023.0,1024.0,1023.0,1024.0,1023.0,1023.0,1023.0,1022.0,1022.0,1023.0,1022.0,1024.0,1024.0,1024.0,1024.0,1023.0,1024.0,1023.0,1022.0,1023.0,1023.0,1025.0,1025.0,1025.0,1024.0,1024.0,1024.0,1024.0,1022.0,1023.0,1023.0,1026.0,1024.0,1025.0,1024.0,1024.0,1024.0,1025.0,1023.0,1023.0,1023.0,1025.0,1024.0,1025.0,1024.0,1024.0,1024.0,1024.0,1023.0,1023.0,1022.0,1024.0,1022.0,1024.0,1023.0,1022.0,1022.0,1021.0,1022.0,1023.0,1024.0,1024.0,1024.0,1024.0,1024.0,1023.0,1023.0,1022.0,1024.0,1024.0,1024.0,1024.0,1024.0,1023.0,1023.0,1025.0,1024.0,1025.0,1025.0,1024.0,1024.0,1023.0,1025.0,1024.0,1026.0,1024.0,1024.0,1024.0,1023.0,1026.0,1025.0,1025.0,1024.0,1024.0,1023.0,1026.0,1026.0,1028.0,1026.0,1026.0,1024.0,1030.0,1027.0,1031.0,1029.0,1027.0,1025.0,1034.0,1031.0,1035.0,1034.0,1028.0,1026.0,1037.0,1036.0,1035.0,1038.0,1029.0,1027.0,1039.0,1037.0,1033.0,1040.0,1031.0,1029.0,1041.0,1041.0,1034.0,1043.0,1034.0,1032.0,1042.0,1042.0,1033.0,1044.0,1035.0,1031.0,1036.0,1035.0,1030.0,1039.0,1033.0,1032.0,1034.0,1034.0,1030.0,1036.0,1031.0,1023.0,1023.0,1023.0,1023.0,1024.0,1022.0,1036.0,1038.0,1034.0,1031.0,1039.0,1034.0,1032.0,1036.0,1032.0,1032.0,1040.0,1035.0,1028.0,1030.0,1027.0,1029.0,1032.0,2046,2033,1909,	00:31:50.457,0.0576171875,0.04833984375,1.01708984375,-0.18310546875,0.18310546875,0.1220703125,2.70263671875,-3.2354736328125,52.9705810546875,453.0,-1599.0,-2562.0,0.8941650390625,0.03369140625,-0.014739990234375,0.446258544921875,2.7049259026697983,-3.2336855933660575,48.358277349730876,0.9113792866525425,0.03307706870021999,-0.016069331897488322,0.4099213094720401,1,	00:31:50.459,0.02197265625,0.05908203125,1.00537109375,-1.46484375,-1.52587890625,-0.48828125,3.306884765625,-1.2579345703125,110.7586669921875,-399.0,-1276.0,-1943.0,-0.567626953125,-0.025421142578125,-0.01751708984375,-0.822723388671875,3.305951135381484,-1.2578758512919426,112.11259209587658,-0.5578494011726565,-0.02520835851950797,-0.01780203761678841,-0.8293682365082177,1
1782117417.686946,0.248,1023.0,1023.0,1024.0,1023.0,1023.0,1023.0,1024.0,1023.0,1023.0,1023.0,1024.0,1024.0,1024.0,1024.0,1023.0,1023.0,1023.0,1024.0,1023.0,1024.0,1024.0,1023.0,1024.0,1023.0,1023.0,1024.0,1024.0,1024.0,1024.0,1024.0,1024.0,1022.0,1022.0,1022.0,1023.0,1023.0,1024.0,1024.0,1023.0,1023.0,1023.0,1023.0,1023.0,1023.0,1023.0,1024.0,1024.0,1023.0,1023.0,1022.0,1022.0,1023.0,1023.0,1024.0,1024.0,1024.0,1024.0,1024.0,1024.0,1023.0,1022.0,1023.0,1023.0,1024.0,1024.0,1024.0,1023.0,1023.0,1023.0,1023.0,1023.0,1024.0,1022.0,1024.0,1023.0,1024.0,1023.0,1023.0,1023.0,1023.0,1023.0,1023.0,1024.0,1025.0,1025.0,1025.0,1024.0,1024.0,1024.0,1025.0,1023.0,1023.0,1023.0,1025.0,1024.0,1025.0,1024.0,1024.0,1024.0,1024.0,1022.0,1023.0,1023.0,1026.0,1024.0,1025.0,1024.0,1024.0,1024.0,1023.0,1023.0,1023.0,1022.0,1024.0,1022.0,1024.0,1023.0,1023.0,1023.0,1021.0,1021.0,1023.0,1024.0,1023.0,1024.0,1024.0,1024.0,1023.0,1023.0,1023.0,1024.0,1024.0,1024.0,1024.0,1023.0,1023.0,1023.0,1025.0,1024.0,1026.0,1024.0,1024.0,1024.0,1024.0,1025.0,1024.0,1025.0,1025.0,1024.0,1024.0,1023.0,1025.0,1024.0,1026.0,1025.0,1024.0,1023.0,1026.0,1025.0,1029.0,1027.0,1025.0,1024.0,1029.0,1028.0,1031.0,1028.0,1026.0,1025.0,1033.0,1031.0,1035.0,1033.0,1028.0,1026.0,1036.0,1035.0,1035.0,1038.0,1029.0,1027.0,1039.0,1037.0,1034.0,1040.0,1032.0,1029.0,1041.0,1041.0,1034.0,1043.0,1034.0,1032.0,1042.0,1043.0,1033.0,1045.0,1035.0,1030.0,1035.0,1036.0,1030.0,1039.0,1032.0,1032.0,1035.0,1034.0,1030.0,1036.0,1032.0,1023.0,1024.0,1022.0,1024.0,1024.0,1022.0,1035.0,1038.0,1034.0,1031.0,1038.0,1035.0,1032.0,1036.0,1032.0,1032.0,1040.0,1035.0,1028.0,1031.0,1027.0,1029.0,1032.0,2046,2033,1909,	00:31:50.468,0.05810546875,0.04833984375,1.0185546875,-0.1220703125,0.1220703125,0.06103515625,2.7410888671875,-3.31787109375,52.965087890625,452.0,-1598.0,-2565.0,0.894134521484375,0.0343017578125,-0.015228271484375,0.446258544921875,2.7407027858765813,-3.3161264945336817,48.3568308563471,0.9113482966050342,0.033655421264518974,-0.01659783549810611,0.409922073998691,1,	00:31:50.469,0.0224609375,0.0595703125,1.005859375,-1.46484375,-1.52587890625,-0.48828125,3.3782958984375,-1.2908935546875,110.7476806640625,-399.0,-1279.0,-1943.0,-0.567657470703125,-0.026031494140625,-0.017852783203125,-0.822662353515625,3.380639482671889,-1.2932640317207196,112.10485494387041,-0.5578793737635337,-0.025829183405222663,-0.01816841769944975,-0.8293210272337999,1
1782117417.697335,0.259,1023.0,1024.0,1024.0,1022.0,1023.0,1023.0,1023.0,1024.0,1023.0,1023.0,1024.0,1023.0,1024.0,1024.0,1023.0,1023.0,1023.0,1024.0,1023.0,1024.0,1024.0,1023.0,1024.0,1023.0,1023.0,1024.0,1023.0,1024.0,1024.0,1023.0,1023.0,1023.0,1022.0,1023.0,1024.0,1023.0,1024.0,1023.0,1023.0,1024.0,1023.0,1022.0,1022.0,1024.0,1023.0,1024.0,1023.0,1023.0,1023.0,1022.0,1022.0,1023.0,1023.0,1024.0,1023.0,1024.0,1024.0,1023.0,1023.0,1022.0,1022.0,1024.0,1023.0,1024.0,1023.0,1024.0,1023.0,1023.0,1023.0,1022.0,1022.0,1023.0,1023.0,1024.0,1024.0,1024.0,1024.0,1023.0,1023.0,1023.0,1022.0,1023.0,1023.0,1025.0,1025.0,1024.0,1024.0,1024.0,1024.0,1025.0,1023.0,1024.0,1023.0,1026.0,1025.0,1025.0,1025.0,1024.0,1024.0,1024.0,1023.0,1023.0,1023.0,1026.0,1024.0,1025.0,1025.0,1024.0,1024.0,1023.0,1023.0,1024.0,1023.0,1024.0,1022.0,1024.0,1024.0,1023.0,1022.0,1020.0,1022.0,1023.0,1024.0,1023.0,1024.0,1024.0,1023.0,1023.0,1023.0,1023.0,1024.0,1024.0,1024.0,1024.0,1024.0,1024.0,1023.0,1025.0,1024.0,1025.0,1024.0,1024.0,1024.0,1023.0,1025.0,1024.0,1025.0,1024.0,1024.0,1024.0,1023.0,1025.0,1024.0,1026.0,1025.0,1024.0,1024.0,1026.0,1025.0,1028.0,1027.0,1025.0,1024.0,1029.0,1028.0,1031.0,1030.0,1027.0,1025.0,1033.0,1031.0,1035.0,1034.0,1028.0,1026.0,1036.0,1036.0,1035.0,1038.0,1029.0,1027.0,1039.0,1037.0,1034.0,1040.0,1032.0,1029.0,1041.0,1041.0,1034.0,1043.0,1034.0,1032.0,1042.0,1043.0,1033.0,1045.0,1035.0,1031.0,1036.0,1035.0,1030.0,1039.0,1033.0,1032.0,1035.0,1034.0,1029.0,1036.0,1031.0,1023.0,1023.0,1023.0,1023.0,1023.0,1022.0,1036.0,1038.0,1034.0,1031.0,1038.0,1034.0,1032.0,1036.0,1032.0,1032.0,1040.0,1034.0,1027.0,1030.0,1027.0,1028.0,1033.0,2046,2033,1909,	00:31:50.478,0.0576171875,0.04931640625,1.017578125,-0.1220703125,0.1220703125,0.06103515625,2.7740478515625,-3.22998046875,52.965087890625,454.0,-1599.0,-2566.0,0.894134521484375,0.03424072265625,-0.014434814453125,0.44622802734375,2.7755456579917626,-3.2307019514042685,48.35543760935431,0.9113698153219366,0.0336276890143245,-0.015793794718438673,0.40990827547148534,1,	00:31:50.479,0.02197265625,0.06005859375,1.00537109375,-1.40380859375,-1.5869140625,-0.48828125,3.427734375,-1.241455078125,110.7421875,-398.0,-1276.0,-1946.0,-0.567718505859375,-0.02587890625,-0.018463134765625,-0.8226318359375,3.4270671278848828,-1.2398155969312539,112.0977033772193,-0.5579350652770418,-0.025669741318189904,-0.018763283389702106,-0.8292752658263709,1
1782117417.707626,0.269,1024.0,1024.0,1024.0,1023.0,1023.0,1023.0,1023.0,1024.0,1022.0,1022.0,1024.0,1024.0,1023.0,1024.0,1023.0,1023.0,1023.0,1024.0,1024.0,1024.0,1023.0,1023.0,1023.0,1024.0,1023.0,1024.0,1023.0,1023.0,1024.0,1024.0,1023.0,1023.0,1023.0,1022.0,1024.0,1024.0,1024.0,1024.0,1024.0,1023.0,1023.0,1022.0,1023.0,1024.0,1023.0,1023.0,1024.0,1023.0,1023.0,1023.0,1022.0,1023.0,1023.0,1024.0,1023.0,1024.0,1024.0,1023.0,1023.0,1023.0,1023.0,1024.0,1023.0,1024.0,1023.0,1024.0,1024.0,1023.0,1023.0,1023.0,1022.0,1023.0,1023.0,1024.0,1023.0,1024.0,1024.0,1023.0,1024.0,1024.0,1022.0,1023.0,1023.0,1025.0,1025.0,1025.0,1024.0,1024.0,1024.0,1025.0,1023.0,1023.0,1023.0,1025.0,1025.0,1025.0,1024.0,1024.0,1024.0,1024.0,1023.0,1023.0,1023.0,1025.0,1024.0,1025.0,1025.0,1024.0,1024.0,1024.0,1022.0,1024.0,1022.0,1024.0,1022.0,1024.0,1024.0,1023.0,1023.0,1020.0,1022.0,1023.0,1024.0,1023.0,1024.0,1024.0,1023.0,1024.0,1023.0,1023.0,1025.0,1024.0,1024.0,1024.0,1023.0,1023.0,1023.0,1025.0,1024.0,1025.0,1024.0,1024.0,1024.0,1023.0,1025.0,1024.0,1025.0,1024.0,1024.0,1025.0,1023.0,1025.0,1024.0,1026.0,1025.0,1024.0,1024.0,1026.0,1026.0,1028.0,1027.0,1026.0,1024.0,1030.0,1028.0,1031.0,1029.0,1027.0,1025.0,1033.0,1031.0,1034.0,1034.0,1028.0,1026.0,1036.0,1035.0,1035.0,1038.0,1029.0,1027.0,1038.0,1037.0,1033.0,1040.0,1031.0,1029.0,1042.0,1041.0,1034.0,1043.0,1034.0,1032.0,1043.0,1043.0,1033.0,1045.0,1035.0,1030.0,1036.0,1035.0,1029.0,1040.0,1032.0,1032.0,1034.0,1034.0,1029.0,1037.0,1031.0,1022.0,1023.0,1023.0,1023.0,1024.0,1021.0,1035.0,1039.0,1034.0,1031.0,1039.0,1034.0,1032.0,1036.0,1032.0,1031.0,1040.0,1035.0,1027.0,1030.0,1027.0,1028.0,1032.0,2046,2033,1908,	00:31:50.488,0.0576171875,0.04833984375,1.017578125,-0.18310546875,0.18310546875,0.0,2.6806640625,-3.240966796875,52.9705810546875,454.0,-1599.0,-2563.0,0.8941650390625,0.033538818359375,-0.014862060546875,0.446258544921875,2.682564775429248,-3.239314760935523,48.36066999886562,0.9113754286685589,0.032919639268348476,-0.016193432565337135,0.40993767588670615,1,	00:31:50.489,0.02294921875,0.0595703125,1.00634765625,-1.46484375,-1.5869140625,-0.48828125,3.3673095703125,-1.3348388671875,110.7366943359375,-399.0,-1277.0,-1944.0,-0.567718505859375,-0.0262451171875,-0.017547607421875,-0.822601318359375,3.3646201563158713,-1.3335134257183348,112.09296724651485,-0.5579582096054481,-0.026044208563435155,-0.01785363462863491,-0.8292681009569429,1
1782117417.718163,0.280,1023.0,1024.0,1024.0,1023.0,1024.0,1023.0,1023.0,1023.0,1022.0,1023.0,1024.0,1024.0,1024.0,1023.0,1023.0,1023.0,1023.0,1024.0,1023.0,1024.0,1024.0,1023.0,1024.0,1023.0,1023.0,1024.0,1023.0,1024.0,1024.0,1023.0,1023.0,1023.0,1022.0,1023.0,1024.0,1023.0,1024.0,1024.0,1023.0,1023.0,1023.0,1023.0,1023.0,1024.0,1023.0,1024.0,1023.0,1022.0,1023.0,1022.0,1022.0,1023.0,1023.0,1024.0,1023.0,1024.0,1024.0,1023.0,1024.0,1023.0,1023.0,1023.0,1023.0,1024.0,1023.0,1024.0,1023.0,1023.0,1023.0,1022.0,1023.0,1023.0,1023.0,1025.0,1023.0,1024.0,1024.0,1023.0,1023.0,1023.0,1022.0,1023.0,1024.0,1025.0,1024.0,1025.0,1024.0,1024.0,1024.0,1024.0,1022.0,1023.0,1023.0,1026.0,1024.0,1025.0,1024.0,1024.0,1024.0,1024.0,1023.0,1023.0,1022.0,1026.0,1024.0,1025.0,1025.0,1024.0,1024.0,1023.0,1023.0,1023.0,1022.0,1024.0,1023.0,1024.0,1023.0,1023.0,1022.0,1020.0,1022.0,1023.0,1025.0,1024.0,1024.0,1024.0,1024.0,1023.0,1023.0,1023.0,1024.0,1024.0,1024.0,1023.0,1023.0,1023.0,1023.0,1025.0,1024.0,1025.0,1024.0,1023.0,1024.0,1023.0,1025.0,1024.0,1026.0,1024.0,1024.0,1025.0,1023.0,1025.0,1024.0,1026.0,1025.0,1024.0,1024.0,1026.0,1025.0,1028.0,1026.0,1026.0,1024.0,1030.0,1028.0,1030.0,1029.0,1027.0,1025.0,1033.0,1031.0,1035.0,1033.0,1028.0,1026.0,1036.0,1036.0,1035.0,1038.0,1029.0,1027.0,1039.0,1037.0,1033.0,1040.0,1031.0,1029.0,1041.0,1041.0,1033.0,1043.0,1034.0,1032.0,1042.0,1043.0,1033.0,1045.0,1034.0,1031.0,1036.0,1035.0,1029.0,1039.0,1032.0,1032.0,1034.0,1034.0,1029.0,1036.0,1031.0,1023.0,1024.0,1023.0,1023.0,1024.0,1022.0,1035.0,1038.0,1034.0,1031.0,1039.0,1035.0,1032.0,1036.0,1032.0,1032.0,1040.0,1035.0,1027.0,1030.0,1027.0,1028.0,1033.0,2046,2033,1908,	00:31:50.498,0.05810546875,0.04833984375,1.01806640625,-0.1220703125,0.18310546875,0.06103515625,2.757568359375,-3.2904052734375,52.965087890625,452.0,-1597.0,-2567.0,0.894134521484375,0.034332275390625,-0.01495361328125,0.446258544921875,2.7578196385565548,-3.2877773355562123,48.35701108344181,0.9113515523397618,0.033690477875187565,-0.016310949523672458,0.4099234717286682,1,	00:31:50.500,0.0224609375,0.05908203125,1.0068359375,-1.52587890625,-1.5869140625,-0.48828125,3.33984375,-1.2579345703125,110.731201171875,-400.0,-1276.0,-1939.0,-0.567779541015625,-0.02557373046875,-0.017730712890625,-0.82257080078125,3.33954717678562,-1.2579756331749028,112.08737479224138,-0.5580244583829964,-0.02537660036467983,-0.01803912145538727,-0.8292402077187361,1
1782117417.727755,0.289,1023.0,1023.0,1024.0,1023.0,1023.0,1023.0,1024.0,1023.0,1023.0,1023.0,1024.0,1023.0,1024.0,1023.0,1023.0,1023.0,1023.0,1024.0,1023.0,1024.0,1024.0,1023.0,1024.0,1023.0,1022.0,1024.0,1024.0,1024.0,1024.0,1023.0,1023.0,1023.0,1022.0,1023.0,1024.0,1023.0,1024.0,1024.0,1023.0,1023.0,1023.0,1023.0,1022.0,1024.0,1023.0,1024.0,1023.0,1023.0,1023.0,1022.0,1022.0,1023.0,1023.0,1024.0,1024.0,1023.0,1023.0,1023.0,1023.0,1023.0,1022.0,1023.0,1022.0,1024.0,1023.0,1024.0,1023.0,1023.0,1023.0,1023.0,1022.0,1023.0,1023.0,1024.0,1024.0,1024.0,1024.0,1023.0,1023.0,1023.0,1023.0,1023.0,1023.0,1025.0,1025.0,1025.0,1024.0,1024.0,1024.0,1025.0,1024.0,1024.0,1023.0,1025.0,1024.0,1025.0,1024.0,1024.0,1024.0,1024.0,1023.0,1023.0,1023.0,1025.0,1024.0,1025.0,1024.0,1024.0,1024.0,1023.0,1023.0,1023.0,1022.0,1024.0,1023.0,1023.0,1024.0,1022.0,1023.0,1021.0,1022.0,1022.0,1024.0,1024.0,1025.0,1024.0,1023.0,1023.0,1022.0,1023.0,1024.0,1024.0,1024.0,1024.0,1024.0,1023.0,1023.0,1025.0,1024.0,1025.0,1024.0,1024.0,1024.0,1023.0,1025.0,1024.0,1025.0,1024.0,1024.0,1024.0,1023.0,1025.0,1024.0,1025.0,1025.0,1024.0,1024.0,1026.0,1026.0,1028.0,1026.0,1025.0,1024.0,1029.0,1028.0,1031.0,1029.0,1027.0,1025.0,1033.0,1032.0,1034.0,1034.0,1028.0,1026.0,1036.0,1036.0,1035.0,1038.0,1029.0,1027.0,1039.0,1037.0,1033.0,1040.0,1031.0,1030.0,1041.0,1041.0,1033.0,1043.0,1034.0,1032.0,1042.0,1044.0,1033.0,1045.0,1034.0,1030.0,1035.0,1036.0,1030.0,1040.0,1032.0,1032.0,1034.0,1034.0,1029.0,1037.0,1031.0,1022.0,1024.0,1023.0,1023.0,1024.0,1022.0,1035.0,1038.0,1034.0,1031.0,1039.0,1034.0,1031.0,1036.0,1033.0,1032.0,1040.0,1035.0,1027.0,1030.0,1028.0,1029.0,1032.0,2046,2033,1909,	00:31:50.509,0.05712890625,0.048828125,1.0166015625,-0.1220703125,0.1220703125,0.06103515625,2.74658203125,-3.197021484375,52.9705810546875,452.0,-1598.0,-2567.0,0.8941650390625,0.03387451171875,-0.014251708984375,0.446258544921875,2.746895027189668,-3.1955957909911157,48.35822614673866,0.9113790593205673,0.0332750019529592,-0.015616092116265499,0.40992331251589564,1,	00:31:50.510,0.0224609375,0.05908203125,1.005859375,-1.52587890625,-1.52587890625,-0.48828125,3.394775390625,-1.3348388671875,110.7257080078125,-399.0,-1274.0,-1945.0,-0.56781005859375,-0.026397705078125,-0.01776123046875,-0.822540283203125,3.3936698269862076,-1.332766172785964,112.08005455362304,-0.5580452334227777,-0.026182284223483107,-0.01806455057104952,-0.8292006255784088,1
1782117417.739039,0.301,1023.0,1024.0,1024.0,1023.0,1024.0,1023.0,1023.0,1023.0,1023.0,1023.0,1024.0,1023.0,1023.0,1024.0,1023.0,1023.0,1022.0,1024.0,1024.0,1024.0,1024.0,1023.0,1024.0,1023.0,1023.0,1024.0,1023.0,1024.0,1024.0,1023.0,1023.0,1023.0,1023.0,1023.0,1024.0,1023.0,1024.0,1024.0,1024.0,1023.0,1023.0,1022.0,1022.0,1024.0,1023.0,1024.0,1024.0,1023.0,1023.0,1022.0,1023.0,1023.0,1023.0,1024.0,1024.0,1023.0,1024.0,1023.0,1023.0,1023.0,1023.0,1023.0,1023.0,1024.0,1023.0,1024.0,1024.0,1023.0,1023.0,1023.0,1023.0,1023.0,1023.0,1024.0,1023.0,1024.0,1024.0,1023.0,1023.0,1023.0,1022.0,1024.0,1024.0,1025.0,1025.0,1024.0,1024.0,1024.0,1024.0,1024.0,1023.0,1023.0,1022.0,1025.0,1024.0,1025.0,1025.0,1024.0,1024.0,1024.0,1023.0,1023.0,1023.0,1026.0,1025.0,1024.0,1024.0,1024.0,1024.0,1023.0,1023.0,1024.0,1022.0,1024.0,1023.0,1024.0,1024.0,1022.0,1023.0,1021.0,1022.0,1023.0,1024.0,1023.0,1024.0,1024.0,1023.0,1023.0,1023.0,1023.0,1024.0,1024.0,1024.0,1024.0,1023.0,1024.0,1023.0,1025.0,1024.0,1025.0,1025.0,1024.0,1024.0,1024.0,1025.0,1024.0,1025.0,1025.0,1024.0,1024.0,1023.0,1025.0,1024.0,1025.0,1025.0,1025.0,1024.0,1027.0,1025.0,1028.0,1027.0,1026.0,1024.0,1030.0,1028.0,1031.0,1029.0,1027.0,1024.0,1033.0,1031.0,1035.0,1034.0,1029.0,1026.0,1036.0,1035.0,1035.0,1038.0,1029.0,1027.0,1038.0,1037.0,1033.0,1040.0,1031.0,1029.0,1041.0,1041.0,1033.0,1042.0,1034.0,1031.0,1042.0,1043.0,1032.0,1045.0,1035.0,1030.0,1036.0,1036.0,1029.0,1039.0,1032.0,1032.0,1035.0,1034.0,1029.0,1037.0,1032.0,1023.0,1024.0,1022.0,1023.0,1024.0,1022.0,1035.0,1039.0,1034.0,1031.0,1039.0,1035.0,1031.0,1036.0,1033.0,1032.0,1040.0,1035.0,1026.0,1030.0,1027.0,1028.0,1032.0,2045,2033,1908,	00:31:50.519,0.0576171875,0.048828125,1.01708984375,-0.1220703125,0.1220703125,0.06103515625,2.74658203125,-3.284912109375,52.9705810546875,450.0,-1599.0,-2564.0,0.894134521484375,0.03424072265625,-0.01495361328125,0.446258544921875,2.749110593990543,-3.285858145185004,48.358699935051256,0.9113486712143998,0.03361461060388331,-0.016326335668551076,0.409935492722129,1,	00:31:50.520,0.0234375,0.0595703125,1.00830078125,-1.708984375,-1.5869140625,-0.48828125,3.2904052734375,-1.3238525390625,110.72021484375,-400.0,-1277.0,-1945.0,-0.56787109375,-0.02581787109375,-0.01702880859375,-0.822540283203125,3.288564588613278,-1.3237226042566308,112.07628103525431,-0.558098708356438,-0.02560558392668575,-0.017347230071925963,-0.8291979615336019,1
1782117417.747653,0.309,1023.0,1023.0,1023.0,1023.0,1023.0,1023.0,1024.0,1023.0,1023.0,1023.0,1024.0,1023.0,1024.0,1023.0,1023.0,1024.0,1023.0,1024.0,1023.0,1024.0,1023.0,1022.0,1023.0,1023.0,1022.0,1024.0,1024.0,1024.0,1024.0,1024.0,1024.0,1023.0,1023.0,1022.0,1024.0,1024.0,1024.0,1024.0,1023.0,1024.0,1023.0,1022.0,1023.0,1024.0,1024.0,1024.0,1024.0,1023.0,1023.0,1022.0,1022.0,1023.0,1023.0,1024.0,1023.0,1024.0,1024.0,1023.0,1023.0,1022.0,1022.0,1023.0,1023.0,1024.0,1024.0,1024.0,1024.0,1023.0,1023.0,1023.0,1022.0,1023.0,1023.0,1024.0,1024.0,1024.0,1023.0,1023.0,1023.0,1023.0,1023.0,1023.0,1023.0,1026.0,1025.0,1024.0,1024.0,1024.0,1023.0,1024.0,1023.0,1024.0,1023.0,1025.0,1024.0,1025.0,1025.0,1024.0,1024.0,1024.0,1023.0,1023.0,1023.0,1025.0,1024.0,1025.0,1024.0,1023.0,1024.0,1023.0,1022.0,1023.0,1022.0,1024.0,1023.0,1023.0,1024.0,1022.0,1023.0,1020.0,1022.0,1023.0,1024.0,1023.0,1024.0,1024.0,1023.0,1024.0,1022.0,1023.0,1024.0,1023.0,1024.0,1024.0,1024.0,1023.0,1023.0,1025.0,1024.0,1025.0,1024.0,1024.0,1024.0,1023.0,1025.0,1024.0,1025.0,1025.0,1024.0,1024.0,1023.0,1025.0,1024.0,1025.0,1025.0,1024.0,1023.0,1026.0,1025.0,1028.0,1027.0,1025.0,1024.0,1030.0,1028.0,1031.0,1029.0,1027.0,1025.0,1033.0,1031.0,1034.0,1034.0,1029.0,1026.0,1036.0,1036.0,1035.0,1038.0,1029.0,1027.0,1038.0,1037.0,1033.0,1041.0,1031.0,1029.0,1042.0,1040.0,1033.0,1043.0,1033.0,1031.0,1042.0,1042.0,1033.0,1045.0,1034.0,1029.0,1036.0,1035.0,1030.0,1040.0,1033.0,1031.0,1035.0,1033.0,1029.0,1037.0,1031.0,1022.0,1024.0,1023.0,1023.0,1024.0,1022.0,1035.0,1038.0,1034.0,1030.0,1039.0,1035.0,1031.0,1036.0,1032.0,1031.0,1041.0,1035.0,1027.0,1030.0,1027.0,1028.0,1033.0,2045,2033,1909,	00:31:50.529,0.0576171875,0.048828125,1.01708984375,-0.06103515625,0.18310546875,0.0,2.74658203125,-3.1915283203125,52.9705810546875,452.0,-1599.0,-2564.0,0.8941650390625,0.03387451171875,-0.014251708984375,0.446258544921875,2.747366525751486,-3.192511551651008,48.358851178837504,0.911377634778698,0.033267836646406,-0.01558967942090913,0.4099280665746216,1,	00:31:50.530,0.0224609375,0.05908203125,1.00634765625,-1.89208984375,-1.708984375,-0.48828125,3.3453369140625,-1.2908935546875,110.7147216796875,-398.0,-1275.0,-1945.0,-0.56793212890625,-0.025848388671875,-0.017608642578125,-0.822479248046875,3.346144184145176,-1.2898605603449576,112.06867739948183,-0.5581498276144722,-0.025642285028496987,-0.017927259183790862,-0.8291500808240986,1
1782117417.758705,0.320,1023.0,1023.0,1024.0,1022.0,1023.0,1023.0,1024.0,1023.0,1023.0,1023.0,1024.0,1023.0,1024.0,1023.0,1023.0,1024.0,1022.0,1024.0,1024.0,1024.0,1023.0,1023.0,1024.0,1023.0,1023.0,1024.0,1023.0,1024.0,1023.0,1023.0,1023.0,1022.0,1022.0,1023.0,1024.0,1024.0,1024.0,1024.0,1023.0,1024.0,1022.0,1023.0,1023.0,1024.0,1023.0,1024.0,1024.0,1023.0,1023.0,1022.0,1023.0,1023.0,1023.0,1024.0,1023.0,1024.0,1024.0,1023.0,1023.0,1023.0,1023.0,1023.0,1023.0,1024.0,1023.0,1024.0,1024.0,1024.0,1023.0,1022.0,1022.0,1023.0,1023.0,1024.0,1024.0,1024.0,1024.0,1023.0,1023.0,1023.0,1022.0,1023.0,1024.0,1025.0,1025.0,1024.0,1024.0,1024.0,1024.0,1025.0,1023.0,1023.0,1023.0,1025.0,1024.0,1026.0,1024.0,1024.0,1024.0,1024.0,1023.0,1023.0,1023.0,1025.0,1024.0,1024.0,1024.0,1023.0,1024.0,1023.0,1023.0,1023.0,1022.0,1024.0,1023.0,1024.0,1024.0,1023.0,1023.0,1021.0,1022.0,1022.0,1025.0,1023.0,1024.0,1024.0,1023.0,1023.0,1022.0,1023.0,1024.0,1024.0,1024.0,1024.0,1023.0,1024.0,1023.0,1025.0,1024.0,1025.0,1024.0,1024.0,1024.0,1023.0,1025.0,1024.0,1025.0,1025.0,1024.0,1024.0,1023.0,1024.0,1024.0,1025.0,1025.0,1024.0,1023.0,1026.0,1026.0,1028.0,1027.0,1025.0,1024.0,1029.0,1028.0,1031.0,1029.0,1027.0,1025.0,1033.0,1032.0,1035.0,1033.0,1028.0,1026.0,1035.0,1036.0,1035.0,1038.0,1029.0,1027.0,1039.0,1038.0,1033.0,1040.0,1031.0,1030.0,1041.0,1041.0,1033.0,1043.0,1033.0,1031.0,1042.0,1043.0,1033.0,1045.0,1034.0,1030.0,1036.0,1035.0,1029.0,1039.0,1032.0,1031.0,1035.0,1034.0,1029.0,1036.0,1031.0,1022.0,1024.0,1023.0,1023.0,1024.0,1022.0,1034.0,1038.0,1034.0,1031.0,1038.0,1035.0,1030.0,1036.0,1032.0,1032.0,1040.0,1035.0,1027.0,1031.0,1027.0,1028.0,1032.0,2045,2033,1908,	00:31:50.539,0.0576171875,0.048828125,1.01708984375,-0.1220703125,0.1220703125,0.06103515625,2.74658203125,-3.284912109375,52.9705810546875,452.0,-1598.0,-2563.0,0.894134521484375,0.03424072265625,-0.01495361328125,0.446258544921875,2.748414130539919,-3.2828140821199843,48.359391127096195,0.9113473579545556,0.03359831356330993,-0.01630440005191903,0.4099406213269179,1,	00:31:50.541,0.0234375,0.05908203125,1.00634765625,-2.01416015625,-1.708984375,-0.42724609375,3.3563232421875,-1.395263671875,110.709228515625,-400.0,-1278.0,-1948.0,-0.56793212890625,-0.026641845703125,-0.017181396484375,-0.822479248046875,3.354713027146111,-1.393697260672524,112.06276218946456,-0.5581627867667269,-0.026435910000418086,-0.017481629991522106,-0.8291259486616557,1
1782117417.770819,0.332,1023.0,1024.0,1023.0,1023.0,1024.0,1023.0,1023.0,1023.0,1022.0,1023.0,1024.0,1024.0,1023.0,1024.0,1023.0,1023.0,1023.0,1024.0,1024.0,1023.0,1023.0,1023.0,1023.0,1023.0,1023.0,1024.0,1024.0,1024.0,1023.0,1023.0,1023.0,1023.0,1022.0,1023.0,1024.0,1024.0,1024.0,1024.0,1023.0,1023.0,1022.0,1023.0,1023.0,1023.0,1023.0,1024.0,1023.0,1023.0,1023.0,1022.0,1022.0,1023.0,1023.0,1024.0,1023.0,1024.0,1023.0,1022.0,1023.0,1023.0,1022.0,1023.0,1023.0,1024.0,1023.0,1024.0,1024.0,1023.0,1022.0,1022.0,1023.0,1024.0,1023.0,1024.0,1024.0,1024.0,1023.0,1024.0,1023.0,1022.0,1022.0,1024.0,1024.0,1026.0,1025.0,1025.0,1024.0,1024.0,1024.0,1024.0,1023.0,1023.0,1023.0,1026.0,1025.0,1025.0,1025.0,1024.0,1024.0,1024.0,1023.0,1024.0,1023.0,1026.0,1024.0,1025.0,1024.0,1024.0,1023.0,1024.0,1023.0,1023.0,1022.0,1024.0,1023.0,1024.0,1023.0,1022.0,1023.0,1021.0,1023.0,1023.0,1024.0,1023.0,1024.0,1024.0,1024.0,1023.0,1022.0,1023.0,1024.0,1024.0,1024.0,1024.0,1023.0,1024.0,1023.0,1025.0,1024.0,1025.0,1024.0,1024.0,1024.0,1023.0,1025.0,1025.0,1025.0,1025.0,1024.0,1024.0,1023.0,1025.0,1024.0,1026.0,1025.0,1024.0,1023.0,1026.0,1026.0,1028.0,1027.0,1025.0,1024.0,1029.0,1028.0,1032.0,1029.0,1027.0,1024.0,1032.0,1031.0,1035.0,1033.0,1029.0,1026.0,1036.0,1036.0,1036.0,1038.0,1029.0,1027.0,1038.0,1038.0,1033.0,1040.0,1031.0,1029.0,1041.0,1041.0,1033.0,1042.0,1034.0,1031.0,1042.0,1043.0,1033.0,1045.0,1034.0,1030.0,1036.0,1036.0,1030.0,1039.0,1032.0,1031.0,1035.0,1034.0,1029.0,1036.0,1031.0,1023.0,1024.0,1023.0,1023.0,1023.0,1022.0,1034.0,1038.0,1034.0,1031.0,1039.0,1034.0,1031.0,1036.0,1033.0,1032.0,1040.0,1035.0,1026.0,1030.0,1028.0,1028.0,1032.0,2045,2034,1909,	00:31:50.550,0.05712890625,0.048828125,1.01708984375,-0.1220703125,0.18310546875,0.06103515625,2.74658203125,-3.1915283203125,52.9705810546875,452.0,-1598.0,-2564.0,0.894134521484375,0.033843994140625,-0.01422119140625,0.446258544921875,2.747298544867418,-3.1894862334424956,48.36008053403574,0.9113741862250156,0.0332566726597097,-0.015565490205553423,0.409937558563443,1,	00:31:50.551,0.0224609375,0.0576171875,1.0068359375,-2.01416015625,-1.77001953125,-0.48828125,3.284912109375,-1.3348388671875,110.7037353515625,-399.0,-1276.0,-1948.0,-0.5679931640625,-0.02587890625,-0.016937255859375,-0.82244873046875,3.2835083333709125,-1.33518427317052,112.05805907348883,-0.5582286624510333,-0.02566660268456733,-0.017250683980987336,-0.8291106077158529,1
1782117417.780849,0.342,1022.0,1023.0,1024.0,1023.0,1023.0,1023.0,1023.0,1023.0,1022.0,1023.0,1023.0,1024.0,1024.0,1023.0,1023.0,1023.0,1022.0,1024.0,1024.0,1024.0,1024.0,1023.0,1024.0,1023.0,1023.0,1024.0,1023.0,1024.0,1024.0,1023.0,1023.0,1023.0,1022.0,1022.0,1024.0,1023.0,1024.0,1023.0,1024.0,1023.0,1022.0,1022.0,1023.0,1024.0,1023.0,1024.0,1024.0,1023.0,1023.0,1023.0,1023.0,1023.0,1023.0,1024.0,1023.0,1024.0,1024.0,1023.0,1023.0,1023.0,1022.0,1023.0,1023.0,1024.0,1023.0,1024.0,1024.0,1023.0,1023.0,1023.0,1023.0,1023.0,1023.0,1024.0,1024.0,1024.0,1023.0,1023.0,1023.0,1023.0,1023.0,1024.0,1024.0,1025.0,1025.0,1024.0,1024.0,1024.0,1024.0,1025.0,1023.0,1023.0,1023.0,1026.0,1025.0,1024.0,1024.0,1024.0,1024.0,1025.0,1023.0,1023.0,1023.0,1025.0,1024.0,1025.0,1024.0,1024.0,1024.0,1023.0,1023.0,1023.0,1022.0,1024.0,1023.0,1024.0,1023.0,1023.0,1022.0,1021.0,1022.0,1023.0,1024.0,1023.0,1024.0,1024.0,1023.0,1023.0,1023.0,1023.0,1025.0,1023.0,1024.0,1024.0,1023.0,1023.0,1023.0,1025.0,1024.0,1025.0,1024.0,1024.0,1024.0,1023.0,1025.0,1024.0,1025.0,1024.0,1024.0,1024.0,1023.0,1025.0,1024.0,1026.0,1025.0,1024.0,1024.0,1026.0,1025.0,1028.0,1027.0,1026.0,1024.0,1029.0,1028.0,1031.0,1028.0,1027.0,1024.0,1033.0,1031.0,1035.0,1034.0,1029.0,1025.0,1036.0,1036.0,1036.0,1038.0,1029.0,1027.0,1038.0,1038.0,1034.0,1039.0,1032.0,1029.0,1042.0,1041.0,1034.0,1042.0,1034.0,1031.0,1042.0,1043.0,1033.0,1045.0,1035.0,1029.0,1036.0,1035.0,1030.0,1038.0,1033.0,1031.0,1034.0,1034.0,1029.0,1036.0,1031.0,1022.0,1024.0,1023.0,1023.0,1024.0,1022.0,1034.0,1038.0,1034.0,1031.0,1037.0,1035.0,1031.0,1036.0,1032.0,1032.0,1039.0,1035.0,1027.0,1030.0,1028.0,1028.0,1032.0,2045,2034,1909,	00:31:50.560,0.05810546875,0.048828125,1.01708984375,-0.1220703125,0.1220703125,0.06103515625,2.74658203125,-3.2794189453125,52.9705810546875,450.0,-1597.0,-2563.0,0.89410400390625,0.034210205078125,-0.014923095703125,0.446258544921875,2.7475106203149147,-3.2798084577754683,48.36066774745394,0.9113439981319162,0.03358058986279456,-0.016283339651193062,0.4099503798061476,1,	00:31:50.561,0.02197265625,0.05859375,1.0048828125,-2.01416015625,-1.77001953125,-0.48828125,3.3123779296875,-1.2744140625,110.6982421875,-399.0,-1277.0,-1945.0,-0.56805419921875,-0.02557373046875,-0.0174560546875,-0.822418212890625,3.31251384253024,-1.2751026096172826,112.05104213774358,-0.5582888185443033,-0.025374472168846737,-0.017751967525818,-0.829068512789818,1
1782117417.789814,0.351,1023.0,1023.0,1024.0,1023.0,1023.0,1022.0,1023.0,1024.0,1023.0,1023.0,1024.0,1024.0,1024.0,1023.0,1023.0,1023.0,1023.0,1024.0,1024.0,1024.0,1024.0,1023.0,1023.0,1023.0,1023.0,1024.0,1023.0,1024.0,1024.0,1023.0,1023.0,1022.0,1022.0,1023.0,1024.0,1023.0,1024.0,1024.0,1024.0,1023.0,1022.0,1022.0,1023.0,1024.0,1023.0,1024.0,1024.0,1023.0,1023.0,1022.0,1022.0,1023.0,1023.0,1024.0,1023.0,1024.0,1024.0,1023.0,1023.0,1023.0,1022.0,1023.0,1023.0,1024.0,1023.0,1024.0,1023.0,1023.0,1023.0,1023.0,1023.0,1023.0,1023.0,1024.0,1024.0,1024.0,1023.0,1023.0,1023.0,1023.0,1022.0,1023.0,1024.0,1025.0,1025.0,1025.0,1024.0,1024.0,1024.0,1024.0,1023.0,1023.0,1023.0,1026.0,1024.0,1025.0,1024.0,1024.0,1024.0,1024.0,1023.0,1024.0,1023.0,1026.0,1024.0,1025.0,1024.0,1024.0,1024.0,1023.0,1023.0,1023.0,1022.0,1024.0,1023.0,1024.0,1024.0,1023.0,1023.0,1021.0,1022.0,1022.0,1024.0,1023.0,1024.0,1024.0,1023.0,1023.0,1022.0,1023.0,1025.0,1023.0,1024.0,1024.0,1024.0,1024.0,1023.0,1026.0,1024.0,1025.0,1024.0,1024.0,1024.0,1023.0,1025.0,1024.0,1025.0,1024.0,1024.0,1024.0,1023.0,1025.0,1024.0,1026.0,1024.0,1024.0,1023.0,1026.0,1025.0,1028.0,1026.0,1025.0,1024.0,1029.0,1027.0,1031.0,1029.0,1027.0,1024.0,1034.0,1030.0,1034.0,1033.0,1029.0,1026.0,1037.0,1035.0,1036.0,1038.0,1029.0,1026.0,1039.0,1036.0,1034.0,1040.0,1032.0,1029.0,1042.0,1037.0,1034.0,1043.0,1035.0,1032.0,1043.0,1039.0,1033.0,1044.0,1036.0,1030.0,1037.0,1034.0,1030.0,1038.0,1033.0,1031.0,1035.0,1032.0,1029.0,1035.0,1032.0,1022.0,1024.0,1022.0,1023.0,1024.0,1022.0,1034.0,1038.0,1034.0,1030.0,1038.0,1035.0,1031.0,1036.0,1032.0,1031.0,1039.0,1036.0,1027.0,1031.0,1027.0,1028.0,1032.0,2045,2034,1909,	00:31:50.570,0.05810546875,0.04931640625,1.01806640625,-0.06103515625,0.1220703125,0.0,2.823486328125,-3.22998046875,52.965087890625,453.0,-1597.0,-2566.0,0.894134521484375,0.03460693359375,-0.01422119140625,0.446258544921875,2.823458217383334,-3.227987618369371,48.35638040524771,0.9113531504333832,0.03399919302288978,-0.015600523642272187,0.40992208251206275,1,	00:31:50.571,0.0234375,0.05810546875,1.00537109375,-2.01416015625,-1.77001953125,-0.48828125,3.284912109375,-1.38427734375,110.687255859375,-401.0,-1273.0,-1948.0,-0.568084716796875,-0.026214599609375,-0.0167236328125,-0.8223876953125,3.2849948207533144,-1.3838419343780828,112.0453365542578,-0.558307471701612,-0.0260276285536945,-0.017021278968752412,-0.8290510271728108,1
1782117417.799345,0.361,1023.0,1023.0,1024.0,1023.0,1023.0,1023.0,1023.0,1023.0,1022.0,1023.0,1024.0,1023.0,1023.0,1023.0,1023.0,1023.0,1023.0,1024.0,1024.0,1024.0,1023.0,1023.0,1023.0,1024.0,1023.0,1024.0,1023.0,1024.0,1024.0,1023.0,1023.0,1023.0,1022.0,1023.0,1024.0,1023.0,1024.0,1024.0,1023.0,1023.0,1023.0,1023.0,1023.0,1024.0,1023.0,1024.0,1023.0,1023.0,1022.0,1023.0,1022.0,1023.0,1023.0,1024.0,1023.0,1024.0,1023.0,1023.0,1023.0,1023.0,1022.0,1023.0,1023.0,1024.0,1024.0,1024.0,1024.0,1024.0,1023.0,1023.0,1022.0,1023.0,1023.0,1024.0,1023.0,1024.0,1023.0,1023.0,1023.0,1023.0,1023.0,1023.0,1024.0,1025.0,1024.0,1024.0,1024.0,1024.0,1024.0,1025.0,1023.0,1023.0,1023.0,1026.0,1024.0,1025.0,1024.0,1024.0,1024.0,1024.0,1023.0,1023.0,1023.0,1026.0,1024.0,1025.0,1024.0,1024.0,1024.0,1024.0,1022.0,1023.0,1022.0,1024.0,1023.0,1024.0,1023.0,1023.0,1023.0,1020.0,1022.0,1023.0,1025.0,1024.0,1024.0,1023.0,1023.0,1023.0,1022.0,1022.0,1024.0,1024.0,1025.0,1024.0,1023.0,1023.0,1023.0,1025.0,1024.0,1025.0,1024.0,1024.0,1024.0,1023.0,1025.0,1024.0,1025.0,1024.0,1024.0,1024.0,1023.0,1025.0,1024.0,1025.0,1025.0,1025.0,1024.0,1026.0,1025.0,1028.0,1027.0,1025.0,1024.0,1029.0,1027.0,1031.0,1029.0,1027.0,1025.0,1033.0,1030.0,1035.0,1033.0,1029.0,1025.0,1036.0,1034.0,1036.0,1038.0,1030.0,1026.0,1039.0,1035.0,1034.0,1039.0,1031.0,1028.0,1041.0,1037.0,1034.0,1043.0,1034.0,1031.0,1043.0,1039.0,1034.0,1044.0,1035.0,1030.0,1036.0,1033.0,1030.0,1038.0,1033.0,1031.0,1035.0,1032.0,1029.0,1036.0,1032.0,1023.0,1024.0,1023.0,1024.0,1024.0,1022.0,1034.0,1038.0,1034.0,1031.0,1038.0,1035.0,1030.0,1036.0,1032.0,1031.0,1039.0,1036.0,1027.0,1030.0,1027.0,1028.0,1032.0,2045,2034,1909,	00:31:50.580,0.05712890625,0.04931640625,1.01708984375,-0.1220703125,0.18310546875,0.06103515625,2.735595703125,-3.197021484375,52.9705810546875,451.0,-1597.0,-2566.0,0.894134521484375,0.033782958984375,-0.014312744140625,0.4462890625,2.7358814379663716,-3.1954963029749495,48.36191698523195,0.911369080294512,0.03318755697223481,-0.01565362981883825,0.4099511549182958,1,	00:31:50.582,0.0224609375,0.05712890625,1.005859375,-1.953125,-1.77001953125,-0.54931640625,3.2354736328125,-1.3128662109375,110.6817626953125,-400.0,-1273.0,-1945.0,-0.568145751953125,-0.025482177734375,-0.0167236328125,-0.822357177734375,3.2375727626225523,-1.3139960723260997,112.03948449312628,-0.558378819008614,-0.02529234807476356,-0.017017543041839483,-0.8290258107201668,1
1782117417.809556,0.371,1023.0,1024.0,1024.0,1022.0,1023.0,1023.0,1024.0,1023.0,1022.0,1023.0,1024.0,1023.0,1024.0,1024.0,1023.0,1023.0,1023.0,1024.0,1023.0,1024.0,1024.0,1023.0,1023.0,1023.0,1023.0,1024.0,1023.0,1024.0,1024.0,1023.0,1023.0,1023.0,1022.0,1023.0,1024.0,1023.0,1024.0,1024.0,1023.0,1023.0,1023.0,1023.0,1023.0,1024.0,1023.0,1024.0,1023.0,1023.0,1023.0,1023.0,1022.0,1023.0,1023.0,1024.0,1023.0,1024.0,1023.0,1022.0,1023.0,1023.0,1022.0,1023.0,1023.0,1024.0,1023.0,1024.0,1024.0,1023.0,1023.0,1023.0,1023.0,1023.0,1022.0,1024.0,1024.0,1024.0,1024.0,1023.0,1023.0,1023.0,1022.0,1023.0,1023.0,1025.0,1025.0,1025.0,1024.0,1024.0,1024.0,1024.0,1023.0,1023.0,1023.0,1026.0,1025.0,1025.0,1024.0,1024.0,1024.0,1024.0,1023.0,1023.0,1023.0,1026.0,1024.0,1026.0,1024.0,1023.0,1024.0,1023.0,1023.0,1023.0,1022.0,1024.0,1022.0,1024.0,1024.0,1023.0,1023.0,1020.0,1022.0,1023.0,1025.0,1023.0,1024.0,1023.0,1023.0,1023.0,1022.0,1022.0,1024.0,1023.0,1024.0,1024.0,1023.0,1024.0,1023.0,1026.0,1024.0,1025.0,1024.0,1023.0,1024.0,1023.0,1025.0,1024.0,1025.0,1024.0,1024.0,1024.0,1023.0,1025.0,1024.0,1026.0,1024.0,1024.0,1023.0,1026.0,1025.0,1029.0,1027.0,1026.0,1024.0,1029.0,1027.0,1031.0,1029.0,1027.0,1024.0,1034.0,1030.0,1035.0,1034.0,1029.0,1025.0,1037.0,1033.0,1037.0,1038.0,1030.0,1026.0,1038.0,1035.0,1034.0,1039.0,1032.0,1028.0,1042.0,1037.0,1033.0,1042.0,1034.0,1031.0,1043.0,1039.0,1033.0,1044.0,1035.0,1029.0,1036.0,1032.0,1030.0,1039.0,1032.0,1030.0,1035.0,1031.0,1029.0,1036.0,1031.0,1023.0,1024.0,1022.0,1024.0,1024.0,1022.0,1034.0,1039.0,1033.0,1030.0,1038.0,1035.0,1030.0,1036.0,1032.0,1031.0,1040.0,1035.0,1026.0,1031.0,1027.0,1028.0,1032.0,2044,2034,1909,	00:31:50.591,0.05810546875,0.04833984375,1.017578125,-0.1220703125,0.1220703125,0.06103515625,2.713623046875,-3.284912109375,52.97607421875,452.0,-1598.0,-2566.0,0.89410400390625,0.033966064453125,-0.01507568359375,0.4462890625,2.713799425451638,-3.283498924995252,48.36376365278716,0.9113416085633044,0.03332609065579268,-0.016432408499798604,0.4099705112977597,1,	00:31:50.592,0.02294921875,0.0576171875,1.00634765625,-1.953125,-1.77001953125,-0.48828125,3.306884765625,-1.307373046875,110.67626953125,-400.0,-1274.0,-1948.0,-0.56817626953125,-0.02581787109375,-0.017242431640625,-0.82232666015625,3.3070523600167507,-1.3092910436852676,112.0315733224724,-0.5584218581659705,-0.02559808941665985,-0.017541379246365504,-0.8289765172517353,1
1782117417.819939,0.381,1023.0,1023.0,1024.0,1023.0,1024.0,1023.0,1024.0,1023.0,1022.0,1023.0,1024.0,1023.0,1024.0,1024.0,1023.0,1023.0,1023.0,1024.0,1024.0,1024.0,1024.0,1024.0,1023.0,1023.0,1023.0,1024.0,1023.0,1024.0,1023.0,1023.0,1023.0,1023.0,1022.0,1023.0,1024.0,1024.0,1024.0,1024.0,1024.0,1023.0,1023.0,1022.0,1023.0,1024.0,1023.0,1024.0,1024.0,1023.0,1023.0,1022.0,1022.0,1023.0,1023.0,1024.0,1023.0,1024.0,1024.0,1023.0,1023.0,1023.0,1023.0,1023.0,1023.0,1025.0,1023.0,1024.0,1023.0,1023.0,1023.0,1023.0,1023.0,1023.0,1023.0,1024.0,1023.0,1023.0,1024.0,1023.0,1023.0,1023.0,1022.0,1023.0,1024.0,1025.0,1024.0,1025.0,1024.0,1024.0,1024.0,1024.0,1023.0,1023.0,1023.0,1026.0,1024.0,1025.0,1024.0,1024.0,1024.0,1024.0,1023.0,1023.0,1023.0,1025.0,1024.0,1025.0,1024.0,1024.0,1024.0,1023.0,1023.0,1023.0,1022.0,1024.0,1022.0,1024.0,1024.0,1023.0,1023.0,1020.0,1022.0,1023.0,1024.0,1024.0,1024.0,1024.0,1023.0,1023.0,1022.0,1023.0,1024.0,1023.0,1024.0,1024.0,1023.0,1024.0,1024.0,1026.0,1024.0,1025.0,1024.0,1024.0,1024.0,1023.0,1025.0,1024.0,1026.0,1025.0,1024.0,1024.0,1023.0,1026.0,1024.0,1025.0,1024.0,1024.0,1023.0,1027.0,1025.0,1028.0,1027.0,1025.0,1024.0,1029.0,1027.0,1031.0,1029.0,1026.0,1024.0,1033.0,1029.0,1035.0,1034.0,1029.0,1025.0,1036.0,1033.0,1035.0,1039.0,1029.0,1027.0,1038.0,1035.0,1034.0,1040.0,1031.0,1029.0,1041.0,1037.0,1033.0,1043.0,1033.0,1031.0,1042.0,1038.0,1033.0,1044.0,1034.0,1029.0,1036.0,1032.0,1030.0,1039.0,1032.0,1031.0,1035.0,1032.0,1029.0,1036.0,1031.0,1023.0,1024.0,1022.0,1023.0,1024.0,1022.0,1034.0,1038.0,1034.0,1031.0,1038.0,1035.0,1030.0,1035.0,1032.0,1032.0,1040.0,1035.0,1026.0,1030.0,1027.0,1028.0,1033.0,2044,2034,1909,	00:31:50.601,0.0576171875,0.048828125,1.01806640625,-0.18310546875,0.18310546875,0.06103515625,2.7630615234375,-3.2080078125,52.9705810546875,452.0,-1598.0,-2569.0,0.894134521484375,0.034027099609375,-0.0142822265625,0.4462890625,2.7628785371194646,-3.205456761018173,48.36157629548571,0.9113593832783561,0.033437749886650533,-0.015636411307908816,0.4099530388159384,1,	00:31:50.602,0.02392578125,0.0576171875,1.0048828125,-1.953125,-1.64794921875,-0.48828125,3.2464599609375,-1.40625,110.6707763671875,-401.0,-1274.0,-1946.0,-0.568206787109375,-0.026214599609375,-0.016326904296875,-0.822296142578125,3.247587610582242,-1.4079208066659796,112.02671311464154,-0.5584443024245961,-0.02602220333673363,-0.016628976833935705,-0.828966997625638,1
1782117417.831104,0.393,1023.0,1024.0,1024.0,1023.0,1023.0,1023.0,1023.0,1024.0,1023.0,1023.0,1024.0,1023.0,1023.0,1024.0,1023.0,1023.0,1023.0,1024.0,1023.0,1024.0,1023.0,1023.0,1023.0,1023.0,1023.0,1024.0,1024.0,1024.0,1024.0,1023.0,1023.0,1022.0,1023.0,1022.0,1024.0,1023.0,1024.0,1023.0,1023.0,1024.0,1023.0,1022.0,1023.0,1024.0,1023.0,1024.0,1024.0,1023.0,1023.0,1023.0,1022.0,1023.0,1023.0,1024.0,1023.0,1024.0,1024.0,1024.0,1023.0,1022.0,1022.0,1023.0,1023.0,1024.0,1023.0,1024.0,1024.0,1023.0,1024.0,1023.0,1023.0,1023.0,1023.0,1024.0,1023.0,1024.0,1023.0,1023.0,1023.0,1023.0,1023.0,1023.0,1023.0,1025.0,1024.0,1025.0,1024.0,1024.0,1024.0,1025.0,1023.0,1023.0,1023.0,1026.0,1024.0,1025.0,1024.0,1024.0,1024.0,1024.0,1023.0,1024.0,1023.0,1026.0,1024.0,1026.0,1024.0,1024.0,1024.0,1023.0,1023.0,1024.0,1023.0,1024.0,1023.0,1024.0,1023.0,1022.0,1023.0,1021.0,1022.0,1023.0,1025.0,1023.0,1025.0,1024.0,1023.0,1023.0,1022.0,1023.0,1024.0,1023.0,1024.0,1024.0,1023.0,1024.0,1023.0,1025.0,1024.0,1025.0,1025.0,1024.0,1024.0,1023.0,1025.0,1024.0,1025.0,1024.0,1024.0,1024.0,1023.0,1025.0,1024.0,1026.0,1026.0,1024.0,1024.0,1027.0,1025.0,1028.0,1027.0,1026.0,1024.0,1029.0,1026.0,1031.0,1029.0,1027.0,1024.0,1033.0,1030.0,1035.0,1034.0,1029.0,1026.0,1036.0,1033.0,1036.0,1039.0,1029.0,1026.0,1038.0,1035.0,1034.0,1040.0,1031.0,1029.0,1041.0,1037.0,1034.0,1043.0,1033.0,1031.0,1041.0,1038.0,1033.0,1044.0,1035.0,1029.0,1035.0,1032.0,1029.0,1038.0,1031.0,1031.0,1035.0,1032.0,1030.0,1036.0,1031.0,1023.0,1024.0,1022.0,1024.0,1024.0,1022.0,1034.0,1038.0,1032.0,1032.0,1038.0,1035.0,1030.0,1036.0,1031.0,1032.0,1040.0,1035.0,1027.0,1030.0,1027.0,1029.0,1033.0,2044,2034,1909,	00:31:50.611,0.05712890625,0.048828125,1.017578125,-0.1220703125,0.18310546875,0.0,2.6751708984375,-3.22998046875,52.97607421875,451.0,-1597.0,-2564.0,0.894134521484375,0.033416748046875,-0.014801025390625,0.446319580078125,2.6729987351483246,-3.2273115609435563,48.36663905048092,0.9113605144124598,0.03280158424259556,-0.016130423864810214,0.4099827780126553,1,	00:31:50.613,0.02783203125,0.0556640625,1.0068359375,-2.01416015625,-1.64794921875,-0.42724609375,3.18603515625,-1.505126953125,110.665283203125,-401.0,-1274.0,-1945.0,-0.5682373046875,-0.026641845703125,-0.015411376953125,-0.822296142578125,3.1878826873386354,-1.5067738716643215,112.02253907334035,-0.5584619553248084,-0.026446590720849428,-0.015713848116935124,-0.8289595269199779,1
1782117417.840625,0.402,1023.0,1023.0,1024.0,1022.0,1023.0,1023.0,1023.0,1024.0,1023.0,1023.0,1024.0,1024.0,1023.0,1024.0,1023.0,1024.0,1023.0,1024.0,1024.0,1024.0,1024.0,1024.0,1023.0,1023.0,1023.0,1024.0,1023.0,1024.0,1024.0,1023.0,1023.0,1023.0,1023.0,1023.0,1024.0,1023.0,1024.0,1024.0,1023.0,1023.0,1023.0,1022.0,1023.0,1024.0,1023.0,1024.0,1024.0,1023.0,1023.0,1022.0,1022.0,1024.0,1022.0,1024.0,1023.0,1024.0,1023.0,1023.0,1024.0,1023.0,1023.0,1023.0,1023.0,1024.0,1023.0,1024.0,1024.0,1023.0,1024.0,1023.0,1022.0,1023.0,1023.0,1024.0,1024.0,1024.0,1024.0,1023.0,1023.0,1023.0,1022.0,1023.0,1024.0,1026.0,1025.0,1025.0,1025.0,1024.0,1024.0,1024.0,1023.0,1024.0,1023.0,1026.0,1024.0,1025.0,1024.0,1024.0,1024.0,1024.0,1023.0,1024.0,1023.0,1026.0,1024.0,1025.0,1024.0,1024.0,1024.0,1023.0,1023.0,1023.0,1022.0,1024.0,1023.0,1024.0,1024.0,1023.0,1023.0,1021.0,1022.0,1022.0,1024.0,1023.0,1024.0,1024.0,1023.0,1023.0,1022.0,1023.0,1024.0,1024.0,1025.0,1024.0,1024.0,1023.0,1024.0,1025.0,1024.0,1025.0,1024.0,1024.0,1024.0,1024.0,1025.0,1024.0,1025.0,1025.0,1024.0,1024.0,1023.0,1025.0,1023.0,1026.0,1025.0,1024.0,1024.0,1027.0,1025.0,1028.0,1027.0,1026.0,1024.0,1029.0,1027.0,1031.0,1029.0,1027.0,1025.0,1033.0,1029.0,1034.0,1034.0,1028.0,1026.0,1036.0,1033.0,1036.0,1039.0,1029.0,1027.0,1038.0,1035.0,1033.0,1040.0,1032.0,1028.0,1040.0,1036.0,1033.0,1043.0,1033.0,1031.0,1042.0,1038.0,1033.0,1045.0,1034.0,1030.0,1036.0,1032.0,1030.0,1039.0,1032.0,1031.0,1035.0,1031.0,1029.0,1037.0,1031.0,1023.0,1024.0,1022.0,1023.0,1024.0,1022.0,1034.0,1038.0,1033.0,1031.0,1038.0,1034.0,1031.0,1035.0,1031.0,1032.0,1041.0,1035.0,1027.0,1030.0,1027.0,1028.0,1033.0,2044,2034,1909,	00:31:50.622,0.05712890625,0.04833984375,1.01806640625,-0.1220703125,0.18310546875,0.06103515625,2.757568359375,-3.1915283203125,52.9705810546875,452.0,-1597.0,-2566.0,0.894134521484375,0.033935546875,-0.014190673828125,0.4462890625,2.7563337516487536,-3.1899293371695907,48.362599889402695,0.9113624120327258,0.03333045373238459,-0.015535961225280006,0.40995886220045485,1,	00:31:50.623,0.02392578125,0.05712890625,1.00390625,-1.708984375,-1.5869140625,-0.48828125,3.2080078125,-1.439208984375,110.6597900390625,-400.0,-1274.0,-1946.0,-0.56829833984375,-0.026275634765625,-0.015899658203125,-0.822265625,3.2106734042776974,-1.4397240063296513,112.01574798739802,-0.5585236038954849,-0.026073818243988436,-0.016204290601288075,-0.8289203585748681,1
1782117417.850667,0.412,1023.0,1023.0,1024.0,1023.0,1023.0,1022.0,1024.0,1023.0,1023.0,1023.0,1024.0,1023.0,1024.0,1023.0,1023.0,1023.0,1023.0,1025.0,1024.0,1024.0,1023.0,1023.0,1023.0,1023.0,1023.0,1025.0,1023.0,1024.0,1024.0,1023.0,1023.0,1023.0,1023.0,1023.0,1024.0,1023.0,1024.0,1024.0,1023.0,1023.0,1023.0,1022.0,1023.0,1024.0,1023.0,1024.0,1024.0,1023.0,1023.0,1022.0,1023.0,1024.0,1023.0,1024.0,1023.0,1024.0,1023.0,1023.0,1023.0,1022.0,1022.0,1023.0,1023.0,1025.0,1023.0,1024.0,1024.0,1023.0,1023.0,1023.0,1023.0,1023.0,1023.0,1024.0,1024.0,1024.0,1024.0,1023.0,1024.0,1023.0,1022.0,1024.0,1024.0,1025.0,1024.0,1024.0,1024.0,1024.0,1024.0,1025.0,1023.0,1023.0,1023.0,1026.0,1024.0,1025.0,1024.0,1024.0,1024.0,1025.0,1023.0,1023.0,1023.0,1026.0,1024.0,1025.0,1024.0,1023.0,1024.0,1024.0,1023.0,1023.0,1022.0,1024.0,1023.0,1024.0,1024.0,1023.0,1023.0,1020.0,1022.0,1023.0,1024.0,1024.0,1024.0,1024.0,1023.0,1023.0,1023.0,1023.0,1025.0,1023.0,1024.0,1023.0,1023.0,1023.0,1023.0,1025.0,1024.0,1025.0,1024.0,1024.0,1024.0,1023.0,1025.0,1024.0,1025.0,1024.0,1024.0,1024.0,1023.0,1025.0,1024.0,1026.0,1025.0,1024.0,1023.0,1027.0,1025.0,1029.0,1027.0,1025.0,1024.0,1029.0,1026.0,1031.0,1029.0,1027.0,1024.0,1032.0,1029.0,1035.0,1034.0,1029.0,1026.0,1036.0,1033.0,1036.0,1038.0,1029.0,1027.0,1039.0,1034.0,1034.0,1040.0,1031.0,1029.0,1041.0,1036.0,1033.0,1043.0,1034.0,1031.0,1043.0,1037.0,1033.0,1045.0,1034.0,1029.0,1035.0,1032.0,1030.0,1039.0,1031.0,1031.0,1035.0,1032.0,1030.0,1036.0,1031.0,1022.0,1024.0,1022.0,1024.0,1024.0,1022.0,1034.0,1038.0,1033.0,1031.0,1038.0,1034.0,1031.0,1036.0,1031.0,1032.0,1040.0,1035.0,1027.0,1030.0,1027.0,1029.0,1033.0,2044,2035,1909,	00:31:50.632,0.05712890625,0.04833984375,1.017578125,-0.18310546875,0.18310546875,0.06103515625,2.6751708984375,-3.22998046875,52.97607421875,450.0,-1601.0,-2565.0,0.894134521484375,0.033447265625,-0.01483154296875,0.446319580078125,2.673753870101409,-3.23181531695998,48.36782000321485,0.9113546874508139,0.03282382278957107,-0.01616322393906328,0.4099926590937987,1,	00:31:50.633,0.0244140625,0.056640625,1.00390625,-1.52587890625,-1.52587890625,-0.42724609375,3.22998046875,-1.3677978515625,110.654296875,-398.0,-1272.0,-1950.0,-0.568359375,-0.025848388671875,-0.016357421875,-0.822235107421875,3.2280881550770113,-1.369014750280464,112.00981903745513,-0.558581157461291,-0.025648312404772926,-0.016673932494632317,-0.8288855376800562,1
1782117417.861715,0.423,1023.0,1023.0,1023.0,1022.0,1024.0,1023.0,1023.0,1023.0,1022.0,1023.0,1024.0,1023.0,1023.0,1024.0,1023.0,1023.0,1023.0,1024.0,1023.0,1024.0,1024.0,1023.0,1023.0,1023.0,1023.0,1024.0,1023.0,1024.0,1024.0,1023.0,1023.0,1023.0,1022.0,1023.0,1024.0,1023.0,1024.0,1024.0,1023.0,1023.0,1022.0,1022.0,1023.0,1024.0,1023.0,1024.0,1024.0,1023.0,1023.0,1023.0,1022.0,1023.0,1023.0,1024.0,1023.0,1024.0,1024.0,1023.0,1023.0,1023.0,1022.0,1023.0,1023.0,1025.0,1024.0,1024.0,1024.0,1023.0,1024.0,1023.0,1022.0,1023.0,1023.0,1024.0,1024.0,1024.0,1024.0,1024.0,1023.0,1023.0,1022.0,1023.0,1024.0,1025.0,1025.0,1024.0,1024.0,1024.0,1024.0,1024.0,1023.0,1024.0,1023.0,1025.0,1024.0,1025.0,1025.0,1024.0,1024.0,1024.0,1023.0,1023.0,1023.0,1026.0,1024.0,1025.0,1024.0,1024.0,1024.0,1023.0,1023.0,1023.0,1022.0,1024.0,1022.0,1024.0,1024.0,1023.0,1022.0,1020.0,1022.0,1023.0,1025.0,1023.0,1025.0,1024.0,1023.0,1023.0,1022.0,1023.0,1024.0,1023.0,1024.0,1024.0,1023.0,1024.0,1023.0,1025.0,1024.0,1025.0,1025.0,1024.0,1024.0,1023.0,1026.0,1024.0,1025.0,1025.0,1024.0,1025.0,1023.0,1025.0,1024.0,1025.0,1025.0,1024.0,1024.0,1026.0,1025.0,1028.0,1028.0,1026.0,1024.0,1029.0,1027.0,1031.0,1030.0,1027.0,1025.0,1033.0,1029.0,1034.0,1035.0,1028.0,1025.0,1036.0,1033.0,1035.0,1039.0,1030.0,1027.0,1038.0,1035.0,1033.0,1041.0,1031.0,1028.0,1041.0,1037.0,1033.0,1044.0,1034.0,1032.0,1042.0,1038.0,1033.0,1046.0,1034.0,1029.0,1035.0,1032.0,1030.0,1039.0,1032.0,1031.0,1035.0,1032.0,1030.0,1037.0,1031.0,1022.0,1024.0,1023.0,1023.0,1024.0,1022.0,1034.0,1038.0,1033.0,1031.0,1038.0,1034.0,1031.0,1036.0,1032.0,1032.0,1041.0,1035.0,1027.0,1030.0,1027.0,1028.0,1032.0,2044,2035,1908,	00:31:50.642,0.056640625,0.04931640625,1.01708984375,-0.1220703125,0.18310546875,0.06103515625,2.757568359375,-3.1915283203125,52.97607421875,450.0,-1598.0,-2566.0,0.894134521484375,0.033935546875,-0.014190673828125,0.4462890625,2.7555342918088996,-3.190939351541071,48.36386385295149,0.9113578120264331,0.03332786962850714,-0.015546491351380923,0.40996889902903516,1,	00:31:50.643,0.0234375,0.056640625,1.00390625,-1.28173828125,-1.46484375,-0.42724609375,3.218994140625,-1.2908935546875,110.6488037109375,-400.0,-1272.0,-1947.0,-0.56842041015625,-0.025238037109375,-0.016693115234375,-0.82220458984375,3.2184559189830373,-1.2917985932999894,112.00464725961339,-0.5586407803890363,-0.025043837400113098,-0.0169798942100974,-0.8288576282373342,1
1782117417.882525,0.444,1023.0,1023.0,1024.0,1022.0,1024.0,1022.0,1023.0,1023.0,1023.0,1023.0,1023.0,1023.0,1023.0,1024.0,1023.0,1024.0,1023.0,1024.0,1024.0,1024.0,1023.0,1023.0,1023.0,1024.0,1023.0,1024.0,1023.0,1024.0,1024.0,1023.0,1023.0,1022.0,1022.0,1023.0,1024.0,1023.0,1023.0,1024.0,1023.0,1023.0,1023.0,1023.0,1023.0,1024.0,1023.0,1024.0,1024.0,1022.0,1023.0,1023.0,1022.0,1023.0,1023.0,1024.0,1023.0,1024.0,1024.0,1023.0,1023.0,1023.0,1022.0,1023.0,1023.0,1025.0,1023.0,1024.0,1024.0,1024.0,1023.0,1023.0,1022.0,1024.0,1023.0,1024.0,1023.0,1024.0,1024.0,1023.0,1023.0,1023.0,1022.0,1023.0,1023.0,1026.0,1024.0,1024.0,1025.0,1024.0,1024.0,1024.0,1023.0,1023.0,1023.0,1026.0,1024.0,1025.0,1024.0,1024.0,1024.0,1024.0,1023.0,1023.0,1023.0,1026.0,1024.0,1025.0,1024.0,1024.0,1024.0,1024.0,1023.0,1024.0,1022.0,1024.0,1022.0,1024.0,1024.0,1023.0,1022.0,1020.0,1022.0,1023.0,1024.0,1023.0,1024.0,1024.0,1023.0,1023.0,1022.0,1022.0,1025.0,1023.0,1024.0,1024.0,1023.0,1024.0,1023.0,1026.0,1024.0,1025.0,1024.0,1024.0,1024.0,1024.0,1025.0,1024.0,1025.0,1025.0,1024.0,1024.0,1023.0,1025.0,1024.0,1025.0,1025.0,1024.0,1023.0,1026.0,1025.0,1029.0,1027.0,1025.0,1024.0,1030.0,1027.0,1031.0,1029.0,1027.0,1024.0,1034.0,1029.0,1034.0,1034.0,1029.0,1025.0,1036.0,1033.0,1036.0,1039.0,1029.0,1027.0,1039.0,1035.0,1034.0,1041.0,1031.0,1029.0,1042.0,1036.0,1034.0,1044.0,1033.0,1031.0,1043.0,1038.0,1033.0,1045.0,1034.0,1029.0,1036.0,1033.0,1030.0,1038.0,1031.0,1031.0,1035.0,1031.0,1029.0,1037.0,1031.0,1023.0,1024.0,1023.0,1023.0,1024.0,1022.0,1034.0,1038.0,1033.0,1031.0,1039.0,1034.0,1030.0,1035.0,1031.0,1032.0,1040.0,1035.0,1026.0,1030.0,1027.0,1028.0,1033.0,2043,2035,1909,	00:31:50.652,0.05810546875,0.048828125,1.01708984375,-0.18310546875,0.1220703125,0.0,2.74658203125,-3.2794189453125,52.97607421875,452.0,-1596.0,-2565.0,0.89410400390625,0.0341796875,-0.014923095703125,0.4462890625,2.7451847718894604,-3.2808755211921934,48.364404727240405,0.9113309756295047,0.03356642974847764,-0.01629905728111224,0.40997986338826775,1,	00:31:50.653,0.0244140625,0.05615234375,1.00390625,-1.0986328125,-1.40380859375,-0.48828125,3.1915283203125,-1.395263671875,110.643310546875,-400.0,-1273.0,-1945.0,-0.56842041015625,-0.025848388671875,-0.015960693359375,-0.822174072265625,3.192093000197061,-1.3958855953419054,111.99935609958743,-0.5586578716223993,-0.025668618487829763,-0.01628010628393383,-0.8288410358076155,1
1782117417.883701,0.445,1022.0,1023.0,1024.0,1022.0,1023.0,1023.0,1024.0,1023.0,1022.0,1023.0,1024.0,1023.0,1023.0,1024.0,1023.0,1023.0,1023.0,1024.0,1023.0,1024.0,1023.0,1023.0,1024.0,1023.0,1023.0,1024.0,1023.0,1024.0,1024.0,1023.0,1023.0,1023.0,1023.0,1023.0,1024.0,1023.0,1024.0,1023.0,1023.0,1024.0,1023.0,1022.0,1022.0,1024.0,1023.0,1024.0,1023.0,1023.0,1023.0,1022.0,1022.0,1023.0,1023.0,1024.0,1023.0,1024.0,1024.0,1023.0,1023.0,1022.0,1022.0,1023.0,1023.0,1024.0,1023.0,1024.0,1024.0,1023.0,1023.0,1023.0,1022.0,1023.0,1023.0,1024.0,1023.0,1024.0,1024.0,1023.0,1023.0,1023.0,1023.0,1023.0,1023.0,1026.0,1025.0,1024.0,1024.0,1024.0,1024.0,1024.0,1023.0,1024.0,1023.0,1026.0,1024.0,1025.0,1024.0,1024.0,1024.0,1024.0,1023.0,1024.0,1023.0,1026.0,1024.0,1025.0,1024.0,1023.0,1024.0,1023.0,1022.0,1024.0,1023.0,1024.0,1022.0,1024.0,1023.0,1023.0,1022.0,1021.0,1022.0,1023.0,1025.0,1023.0,1024.0,1024.0,1023.0,1023.0,1022.0,1022.0,1024.0,1023.0,1024.0,1024.0,1024.0,1023.0,1024.0,1025.0,1024.0,1025.0,1024.0,1024.0,1024.0,1023.0,1025.0,1024.0,1025.0,1025.0,1024.0,1024.0,1023.0,1025.0,1024.0,1026.0,1025.0,1024.0,1024.0,1027.0,1025.0,1029.0,1027.0,1025.0,1024.0,1029.0,1026.0,1031.0,1029.0,1027.0,1024.0,1033.0,1030.0,1035.0,1034.0,1028.0,1026.0,1037.0,1034.0,1036.0,1039.0,1029.0,1027.0,1039.0,1035.0,1034.0,1040.0,1031.0,1029.0,1042.0,1037.0,1034.0,1043.0,1033.0,1031.0,1043.0,1038.0,1033.0,1045.0,1034.0,1030.0,1035.0,1033.0,1030.0,1039.0,1031.0,1031.0,1035.0,1032.0,1029.0,1036.0,1031.0,1023.0,1024.0,1023.0,1024.0,1024.0,1022.0,1034.0,1038.0,1033.0,1030.0,1038.0,1035.0,1030.0,1036.0,1031.0,1032.0,1040.0,1035.0,1027.0,1030.0,1027.0,1028.0,1033.0,2043,2035,1909,	00:31:50.662,0.05712890625,0.048828125,1.0166015625,-0.18310546875,0.18310546875,0.06103515625,2.7520751953125,-3.18603515625,52.97607421875,452.0,-1600.0,-2564.0,0.894134521484375,0.03387451171875,-0.014190673828125,0.4462890625,2.7495589929317954,-3.1877434002115796,48.36474937407059,0.9113573623658673,0.03326906754987106,-0.015542178759298324,0.40997483811242047,1,	00:31:50.663,0.02392578125,0.05615234375,1.0048828125,-0.91552734375,-1.28173828125,-0.48828125,3.197021484375,-1.318359375,110.6378173828125,-399.0,-1272.0,-1946.0,-0.5684814453125,-0.02532958984375,-0.01641845703125,-0.8221435546875,3.19957861974382,-1.3182435428621013,111.99336842920938,-0.5587196674891166,-0.02514465306328746,-0.016711834325217504,-0.8288068497404352,1
1782117417.891058,0.453,1023.0,1023.0,1023.0,1023.0,1023.0,1022.0,1023.0,1024.0,1023.0,1023.0,1024.0,1024.0,1024.0,1024.0,1023.0,1023.0,1023.0,1025.0,1023.0,1024.0,1024.0,1023.0,1023.0,1023.0,1023.0,1024.0,1024.0,1024.0,1023.0,1023.0,1024.0,1023.0,1022.0,1023.0,1024.0,1024.0,1024.0,1024.0,1023.0,1023.0,1023.0,1022.0,1023.0,1024.0,1023.0,1024.0,1024.0,1023.0,1023.0,1022.0,1022.0,1024.0,1023.0,1024.0,1023.0,1024.0,1023.0,1023.0,1024.0,1023.0,1023.0,1023.0,1023.0,1025.0,1024.0,1024.0,1024.0,1024.0,1023.0,1023.0,1022.0,1023.0,1023.0,1024.0,1023.0,1024.0,1024.0,1024.0,1024.0,1022.0,1022.0,1023.0,1024.0,1025.0,1024.0,1025.0,1024.0,1024.0,1024.0,1024.0,1023.0,1024.0,1023.0,1026.0,1024.0,1025.0,1024.0,1024.0,1024.0,1024.0,1023.0,1023.0,1023.0,1026.0,1024.0,1025.0,1024.0,1024.0,1024.0,1024.0,1023.0,1024.0,1022.0,1024.0,1022.0,1024.0,1023.0,1023.0,1023.0,1021.0,1021.0,1023.0,1024.0,1023.0,1024.0,1023.0,1024.0,1023.0,1022.0,1022.0,1024.0,1023.0,1024.0,1024.0,1023.0,1024.0,1024.0,1025.0,1024.0,1025.0,1025.0,1024.0,1024.0,1023.0,1026.0,1024.0,1025.0,1025.0,1024.0,1024.0,1023.0,1025.0,1024.0,1025.0,1025.0,1024.0,1024.0,1026.0,1025.0,1028.0,1027.0,1025.0,1024.0,1029.0,1026.0,1031.0,1029.0,1026.0,1024.0,1033.0,1030.0,1035.0,1034.0,1029.0,1026.0,1036.0,1033.0,1035.0,1039.0,1030.0,1027.0,1040.0,1035.0,1034.0,1040.0,1031.0,1029.0,1042.0,1037.0,1034.0,1043.0,1033.0,1031.0,1043.0,1039.0,1033.0,1045.0,1034.0,1029.0,1036.0,1033.0,1030.0,1039.0,1031.0,1031.0,1035.0,1032.0,1030.0,1037.0,1031.0,1023.0,1024.0,1022.0,1023.0,1024.0,1021.0,1034.0,1038.0,1033.0,1031.0,1038.0,1034.0,1030.0,1036.0,1032.0,1032.0,1040.0,1035.0,1026.0,1031.0,1027.0,1028.0,1032.0,2043,2035,1909,	00:31:50.673,0.05810546875,0.04833984375,1.0166015625,-0.18310546875,0.18310546875,0.1220703125,2.7191162109375,-3.27392578125,52.97607421875,455.0,-1595.0,-2564.0,0.89410400390625,0.033966064453125,-0.014984130859375,0.446319580078125,2.718137683097291,-3.272710431170158,48.36772316477489,0.9113295501199229,0.03332267574509634,-0.016329883465135836,0.4100016893445945,1,	00:31:50.674,0.0224609375,0.05712890625,1.0048828125,-0.8544921875,-1.220703125,-0.48828125,3.262939453125,-1.2744140625,110.63232421875,-400.0,-1272.0,-1945.0,-0.56854248046875,-0.025360107421875,-0.01708984375,-0.82208251953125,3.2650162961498803,-1.2759031769634208,111.98613567130835,-0.5587685917311577,-0.02515870624274938,-0.017390170250203327,-0.8287594840323934,1
1782117417.901737,0.463,1024.0,1023.0,1024.0,1022.0,1023.0,1022.0,1023.0,1024.0,1023.0,1023.0,1024.0,1023.0,1024.0,1024.0,1023.0,1023.0,1023.0,1024.0,1023.0,1024.0,1024.0,1024.0,1023.0,1024.0,1023.0,1024.0,1023.0,1024.0,1023.0,1023.0,1023.0,1023.0,1023.0,1023.0,1025.0,1023.0,1024.0,1024.0,1024.0,1024.0,1023.0,1023.0,1023.0,1024.0,1023.0,1023.0,1024.0,1023.0,1023.0,1023.0,1023.0,1023.0,1023.0,1025.0,1023.0,1024.0,1024.0,1023.0,1023.0,1023.0,1022.0,1023.0,1023.0,1025.0,1023.0,1024.0,1024.0,1023.0,1023.0,1023.0,1022.0,1024.0,1023.0,1024.0,1023.0,1024.0,1024.0,1022.0,1023.0,1022.0,1022.0,1023.0,1024.0,1026.0,1025.0,1025.0,1024.0,1024.0,1024.0,1024.0,1022.0,1023.0,1023.0,1026.0,1024.0,1025.0,1024.0,1024.0,1024.0,1024.0,1023.0,1024.0,1023.0,1027.0,1024.0,1025.0,1025.0,1024.0,1024.0,1023.0,1022.0,1023.0,1022.0,1025.0,1022.0,1024.0,1023.0,1023.0,1023.0,1021.0,1022.0,1023.0,1025.0,1023.0,1024.0,1024.0,1024.0,1024.0,1022.0,1023.0,1025.0,1023.0,1024.0,1024.0,1023.0,1024.0,1023.0,1026.0,1024.0,1025.0,1025.0,1024.0,1024.0,1023.0,1025.0,1024.0,1025.0,1024.0,1023.0,1024.0,1023.0,1025.0,1024.0,1025.0,1025.0,1024.0,1023.0,1027.0,1025.0,1028.0,1027.0,1025.0,1024.0,1030.0,1027.0,1030.0,1029.0,1027.0,1024.0,1034.0,1029.0,1034.0,1034.0,1028.0,1026.0,1037.0,1033.0,1036.0,1039.0,1029.0,1027.0,1040.0,1035.0,1034.0,1040.0,1031.0,1028.0,1043.0,1037.0,1033.0,1043.0,1033.0,1031.0,1044.0,1039.0,1033.0,1046.0,1034.0,1030.0,1037.0,1033.0,1030.0,1038.0,1031.0,1031.0,1035.0,1032.0,1030.0,1037.0,1031.0,1023.0,1024.0,1023.0,1023.0,1024.0,1022.0,1034.0,1038.0,1034.0,1031.0,1038.0,1034.0,1030.0,1036.0,1032.0,1031.0,1040.0,1035.0,1026.0,1031.0,1027.0,1029.0,1032.0,2043,2035,1908,	00:31:50.683,0.0576171875,0.0498046875,1.0166015625,-0.244140625,0.1220703125,0.1220703125,2.801513671875,-3.240966796875,52.97607421875,451.0,-1598.0,-2567.0,0.89410400390625,0.03448486328125,-0.014404296875,0.4462890625,2.801467835859455,-3.2390953968393594,48.364126111333256,0.9113284835708368,0.033864980391766254,-0.015765295319981304,0.409981723493887,1,	00:31:50.684,0.0234375,0.056640625,1.005859375,-0.732421875,-1.220703125,-0.48828125,3.2025146484375,-1.3623046875,110.6268310546875,-400.0,-1271.0,-1946.0,-0.56854248046875,-0.025665283203125,-0.0162353515625,-0.82208251953125,3.2032648139012316,-1.3614859267219916,111.98182488024112,-0.5587911370798493,-0.0254769124573885,-0.01652488804220198,-0.8287522670423535,1
1782117417.912405,0.474,1023.0,1024.0,1024.0,1023.0,1023.0,1023.0,1023.0,1024.0,1022.0,1023.0,1024.0,1024.0,1023.0,1024.0,1023.0,1023.0,1023.0,1025.0,1023.0,1024.0,1024.0,1023.0,1023.0,1023.0,1023.0,1025.0,1023.0,1024.0,1023.0,1023.0,1023.0,1023.0,1022.0,1023.0,1025.0,1023.0,1024.0,1024.0,1023.0,1023.0,1022.0,1023.0,1023.0,1024.0,1023.0,1024.0,1024.0,1023.0,1023.0,1022.0,1023.0,1023.0,1023.0,1024.0,1024.0,1024.0,1023.0,1023.0,1023.0,1023.0,1022.0,1023.0,1023.0,1024.0,1023.0,1024.0,1024.0,1023.0,1023.0,1023.0,1023.0,1023.0,1023.0,1024.0,1023.0,1024.0,1024.0,1023.0,1023.0,1023.0,1022.0,1023.0,1023.0,1026.0,1025.0,1025.0,1024.0,1024.0,1023.0,1024.0,1023.0,1024.0,1023.0,1026.0,1024.0,1025.0,1024.0,1024.0,1024.0,1024.0,1023.0,1024.0,1023.0,1026.0,1024.0,1025.0,1025.0,1024.0,1024.0,1023.0,1023.0,1023.0,1022.0,1024.0,1022.0,1024.0,1024.0,1023.0,1023.0,1020.0,1022.0,1023.0,1025.0,1023.0,1024.0,1023.0,1023.0,1023.0,1022.0,1023.0,1025.0,1024.0,1024.0,1024.0,1023.0,1024.0,1024.0,1026.0,1024.0,1025.0,1024.0,1024.0,1024.0,1024.0,1025.0,1024.0,1025.0,1024.0,1024.0,1024.0,1023.0,1024.0,1024.0,1025.0,1025.0,1024.0,1024.0,1027.0,1025.0,1029.0,1027.0,1025.0,1024.0,1030.0,1027.0,1030.0,1030.0,1026.0,1025.0,1033.0,1030.0,1034.0,1034.0,1028.0,1026.0,1037.0,1034.0,1036.0,1039.0,1029.0,1027.0,1040.0,1036.0,1034.0,1040.0,1031.0,1029.0,1042.0,1038.0,1034.0,1043.0,1033.0,1031.0,1043.0,1039.0,1034.0,1045.0,1034.0,1029.0,1036.0,1033.0,1030.0,1040.0,1031.0,1031.0,1036.0,1032.0,1030.0,1037.0,1032.0,1023.0,1024.0,1023.0,1024.0,1024.0,1022.0,1035.0,1039.0,1034.0,1031.0,1038.0,1034.0,1031.0,1036.0,1032.0,1032.0,1040.0,1035.0,1026.0,1030.0,1027.0,1029.0,1032.0,2043,2036,1909,	00:31:50.693,0.0576171875,0.048828125,1.01806640625,-0.244140625,0.18310546875,0.1220703125,2.7081298828125,-3.22998046875,52.9815673828125,452.0,-1600.0,-2566.0,0.89410400390625,0.033721923828125,-0.01470947265625,0.44635009765625,2.7074500562471018,-3.231357621062677,48.370600788904206,0.9113351877552449,0.033090565964293724,-0.016038217744030515,0.41001946975097436,1,	00:31:50.694,0.0234375,0.05712890625,1.0048828125,-0.6103515625,-1.28173828125,-0.54931640625,3.2794189453125,-1.329345703125,110.6158447265625,-400.0,-1272.0,-1948.0,-0.568603515625,-0.02581787109375,-0.01690673828125,-0.822021484375,3.2777765895994415,-1.3301563399779677,111.97373095805608,-0.5588412642766657,-0.025614993461281897,-0.01721488499306492,-0.8287001636215067,1
1782117417.922771,0.484,1022.0,1024.0,1024.0,1023.0,1024.0,1023.0,1023.0,1023.0,1023.0,1023.0,1024.0,1024.0,1024.0,1024.0,1023.0,1023.0,1023.0,1025.0,1024.0,1024.0,1024.0,1023.0,1023.0,1023.0,1023.0,1024.0,1024.0,1024.0,1024.0,1023.0,1024.0,1023.0,1022.0,1023.0,1024.0,1024.0,1024.0,1024.0,1023.0,1024.0,1023.0,1022.0,1023.0,1024.0,1023.0,1024.0,1023.0,1023.0,1023.0,1022.0,1022.0,1023.0,1023.0,1024.0,1023.0,1024.0,1024.0,1024.0,1023.0,1023.0,1023.0,1023.0,1023.0,1024.0,1024.0,1024.0,1024.0,1023.0,1024.0,1023.0,1022.0,1024.0,1023.0,1024.0,1024.0,1024.0,1023.0,1023.0,1023.0,1023.0,1022.0,1023.0,1023.0,1025.0,1024.0,1025.0,1024.0,1024.0,1024.0,1024.0,1023.0,1023.0,1023.0,1026.0,1024.0,1026.0,1025.0,1024.0,1024.0,1024.0,1023.0,1024.0,1023.0,1026.0,1023.0,1025.0,1025.0,1024.0,1024.0,1024.0,1022.0,1023.0,1022.0,1024.0,1022.0,1024.0,1023.0,1023.0,1023.0,1021.0,1022.0,1023.0,1024.0,1023.0,1024.0,1023.0,1023.0,1023.0,1022.0,1023.0,1024.0,1023.0,1025.0,1023.0,1023.0,1023.0,1023.0,1026.0,1024.0,1025.0,1024.0,1024.0,1024.0,1022.0,1026.0,1024.0,1026.0,1025.0,1024.0,1024.0,1023.0,1025.0,1024.0,1025.0,1025.0,1024.0,1024.0,1027.0,1025.0,1028.0,1027.0,1025.0,1024.0,1029.0,1027.0,1030.0,1029.0,1027.0,1024.0,1033.0,1030.0,1035.0,1034.0,1029.0,1026.0,1037.0,1034.0,1036.0,1039.0,1029.0,1026.0,1040.0,1035.0,1034.0,1041.0,1031.0,1029.0,1043.0,1037.0,1034.0,1043.0,1034.0,1031.0,1043.0,1039.0,1033.0,1045.0,1033.0,1029.0,1036.0,1033.0,1030.0,1038.0,1032.0,1031.0,1035.0,1033.0,1030.0,1037.0,1031.0,1022.0,1024.0,1022.0,1023.0,1024.0,1022.0,1034.0,1039.0,1033.0,1031.0,1039.0,1034.0,1030.0,1036.0,1032.0,1032.0,1040.0,1035.0,1027.0,1031.0,1027.0,1029.0,1032.0,2043,2036,1909,	00:31:50.703,0.0576171875,0.0478515625,1.01708984375,-0.244140625,0.18310546875,0.1220703125,2.625732421875,-3.27392578125,52.987060546875,453.0,-1601.0,-2565.0,0.89410400390625,0.033233642578125,-0.015350341796875,0.446380615234375,2.6239230567522895,-3.2727189856705143,48.37650528894008,0.9113252130680429,0.032574697476807045,-0.016664543808569496,0.4100579691829352,1,	00:31:50.704,0.0234375,0.056640625,1.0048828125,-0.48828125,-1.15966796875,-0.48828125,3.1805419921875,-1.3458251953125,110.6158447265625,-400.0,-1275.0,-1945.0,-0.568634033203125,-0.025482177734375,-0.016143798828125,-0.822021484375,3.181710743617854,-1.348224031233152,111.97032613778747,-0.5588825064488607,-0.02527758437771863,-0.016431201069013756,-0.8286986203348574,1
1782117417.932161,0.494,1023.0,1023.0,1024.0,1023.0,1023.0,1022.0,1024.0,1024.0,1023.0,1023.0,1024.0,1023.0,1024.0,1024.0,1023.0,1024.0,1023.0,1024.0,1024.0,1024.0,1024.0,1023.0,1023.0,1023.0,1023.0,1024.0,1023.0,1023.0,1024.0,1024.0,1023.0,1023.0,1023.0,1023.0,1025.0,1023.0,1024.0,1023.0,1024.0,1023.0,1023.0,1022.0,1023.0,1025.0,1023.0,1023.0,1023.0,1023.0,1023.0,1022.0,1022.0,1023.0,1023.0,1024.0,1023.0,1024.0,1024.0,1023.0,1024.0,1023.0,1022.0,1023.0,1023.0,1024.0,1024.0,1024.0,1024.0,1023.0,1023.0,1023.0,1022.0,1023.0,1022.0,1024.0,1023.0,1024.0,1024.0,1023.0,1024.0,1022.0,1023.0,1023.0,1023.0,1026.0,1024.0,1025.0,1024.0,1024.0,1024.0,1024.0,1023.0,1024.0,1023.0,1026.0,1024.0,1025.0,1024.0,1024.0,1024.0,1024.0,1023.0,1023.0,1023.0,1026.0,1024.0,1025.0,1024.0,1024.0,1024.0,1023.0,1023.0,1023.0,1022.0,1024.0,1022.0,1024.0,1024.0,1023.0,1022.0,1021.0,1022.0,1023.0,1024.0,1023.0,1024.0,1024.0,1024.0,1023.0,1022.0,1023.0,1025.0,1023.0,1024.0,1024.0,1023.0,1023.0,1023.0,1025.0,1024.0,1025.0,1025.0,1024.0,1024.0,1023.0,1025.0,1024.0,1025.0,1025.0,1024.0,1024.0,1023.0,1026.0,1024.0,1025.0,1025.0,1024.0,1023.0,1028.0,1025.0,1029.0,1027.0,1025.0,1024.0,1029.0,1026.0,1031.0,1029.0,1026.0,1024.0,1034.0,1029.0,1034.0,1034.0,1028.0,1025.0,1036.0,1033.0,1036.0,1039.0,1029.0,1027.0,1040.0,1035.0,1034.0,1040.0,1032.0,1029.0,1043.0,1037.0,1034.0,1043.0,1033.0,1031.0,1044.0,1039.0,1034.0,1045.0,1034.0,1029.0,1036.0,1033.0,1030.0,1038.0,1032.0,1031.0,1035.0,1032.0,1030.0,1036.0,1031.0,1022.0,1023.0,1022.0,1024.0,1024.0,1022.0,1034.0,1039.0,1034.0,1031.0,1038.0,1035.0,1030.0,1036.0,1033.0,1032.0,1040.0,1035.0,1027.0,1031.0,1027.0,1029.0,1033.0,2042,2036,1909,	00:31:50.713,0.056640625,0.048828125,1.017578125,-0.244140625,0.244140625,0.1220703125,2.6971435546875,-3.2135009765625,52.9815673828125,454.0,-1596.0,-2564.0,0.89410400390625,0.0335693359375,-0.014617919921875,0.44635009765625,2.695398380354422,-3.2160548409807825,48.37364978400124,0.9113324649697547,0.03294055134347913,-0.015958688589314207,0.41004070362324707,1,	00:31:50.715,0.0234375,0.05712890625,1.00390625,-0.3662109375,-1.0986328125,-0.48828125,3.2684326171875,-1.3458251953125,110.6048583984375,-399.0,-1275.0,-1945.0,-0.568695068359375,-0.02587890625,-0.01678466796875,-0.821990966796875,3.268422421769976,-1.3433563576426777,111.96272012148711,-0.5589195046589224,-0.025666433069352533,-0.017080334018040155,-0.8286485887969358,1
