Unix_Time_s,IMU1_RefTime,ax_g,ay_g,az_g,gx_dps,gy_dps,gz_dps,mx_uT,my_uT,mz_uT,temp_C,qw,qx,qy,qz
1782117462.147307,1961239,0.920898,-0.017578,-0.387695,0.182927,0.670732,0.121951,16.637501,-36.225002,2.806250,0.0,1.000000,0.000000,0.000000,0.000000
1782117462.160307,1961252,0.921387,-0.017090,-0.387695,0.304878,0.609756,0.121951,16.731251,-36.062500,2.681250,0.0,1.000000,0.000000,0.000000,0.000000
1782117462.167307,1961259,0.920898,-0.019043,-0.386719,0.426829,0.548781,0.060976,16.731251,-36.062500,2.681250,0.0,1.000000,0.000000,0.000000,0.000000
1782117462.177307,1961269,0.922363,-0.018066,-0.386719,0.426829,0.548781,0.060976,16.687500,-36.187500,2.775000,0.0,1.000000,0.000000,0.000000,0.000000
1782117462.187307,1961279,0.924316,-0.019043,-0.386719,0.304878,0.609756,0.000000,16.687500,-36.187500,2.775000,0.0,1.000000,0.000000,0.000000,0.000000
1782117462.197307,1961289,0.926270,-0.021973,-0.387207,0.304878,0.792683,0.000000,16.631250,-36.299999,2.787500,0.0,1.000000,0.000000,0.000000,0.000000
1782117462.207307,1961299,0.924316,-0.021973,-0.384277,0.365854,0.792683,0.121951,16.631250,-36.299999,2.787500,0.0,1.000000,0.000000,0.000000,0.000000
1782117462.218307,1961310,0.923340,-0.019043,-0.383301,0.426829,0.853659,0.121951,16.700001,-36.262501,2.775000,0.0,1.000000,0.000000,0.000000,0.000000
1782117462.227307,1961319,0.923340,-0.019531,-0.383301,0.365854,0.853659,0.121951,16.700001,-36.262501,2.775000,0.0,1.000000,0.000000,0.000000,0.000000
1782117462.237307,1961329,0.922363,-0.019043,-0.381348,0.365854,0.853659,0.182927,16.600000,-36.318752,2.887500,0.0,1.000000,0.000000,0.000000,0.000000
1782117462.247307,1961339,0.922852,-0.019043,-0.380859,0.243902,0.792683,0.243902,16.600000,-36.318752,2.887500,0.0,1.000000,0.000000,0.000000,0.000000
1782117462.257307,1961349,0.923828,-0.017578,-0.379883,0.000000,0.731707,0.304878,16.650000,-36.225002,2.881250,0.0,1.000000,0.000000,0.000000,0.000000
1782117462.267307,1961359,0.924316,-0.017578,-0.380371,-0.365854,0.731707,0.365854,16.650000,-36.225002,2.881250,0.0,1.000000,0.000000,0.000000,0.000000
1782117462.277307,1961369,0.923340,-0.016602,-0.381348,-0.548781,0.731707,0.426829,16.743750,-36.062500,2.712500,0.0,1.000000,0.000000,0.000000,0.000000
1782117462.287307,1961379,0.922363,-0.018555,-0.382324,-0.731707,0.609756,0.304878,16.743750,-36.062500,2.712500,0.0,1.000000,0.000000,0.000000,0.000000
1782117462.297307,1961389,0.921387,-0.020996,-0.381836,-0.792683,0.487805,0.365854,16.643751,-36.237499,2.893750,0.0,1.000000,0.000000,0.000000,0.000000
1782117462.307307,1961399,0.923340,-0.023438,-0.382324,-0.853659,0.365854,0.304878,16.643751,-36.237499,2.893750,0.0,1.000000,0.000000,0.000000,0.000000
1782117462.317307,1961409,0.925293,-0.024902,-0.383789,-0.914634,0.304878,0.243902,16.625000,-36.318752,2.918750,0.0,1.000000,0.000000,0.000000,0.000000
1782117462.328307,1961420,0.926270,-0.025879,-0.382812,-0.975610,0.548781,0.243902,16.625000,-36.318752,2.918750,0.0,1.000000,0.000000,0.000000,0.000000
1782117462.338307,1961430,0.923828,-0.026855,-0.381836,-0.975610,0.548781,0.304878,16.618750,-36.231251,2.868750,0.0,1.000000,0.000000,0.000000,0.000000
1782117462.347307,1961439,0.922363,-0.023438,-0.382812,-0.853659,0.548781,0.365854,16.618750,-36.231251,2.868750,0.0,1.000000,0.000000,0.000000,0.000000
1782117462.358307,1961450,0.920898,-0.020508,-0.381836,-0.792683,0.487805,0.304878,16.637501,-36.118752,2.868750,0.0,1.000000,0.000000,0.000000,0.000000
1782117462.367307,1961459,0.920898,-0.019531,-0.384766,-0.731707,0.365854,0.243902,16.637501,-36.118752,2.868750,0.0,1.000000,0.000000,0.000000,0.000000
1782117462.377307,1961469,0.921387,-0.020020,-0.385254,-0.670732,0.243902,0.182927,16.606251,-36.275002,3.000000,0.0,1.000000,0.000000,0.000000,0.000000
1782117462.387307,1961479,0.922363,-0.021484,-0.387207,-0.731707,0.243902,0.121951,16.606251,-36.275002,3.000000,0.0,1.000000,0.000000,0.000000,0.000000
1782117462.397307,1961489,0.922852,-0.020508,-0.386230,-0.792683,0.182927,0.121951,16.562500,-36.331249,2.975000,0.0,1.000000,0.000000,0.000000,0.000000
1782117462.407307,1961499,0.922363,-0.022461,-0.386230,-0.792683,0.182927,0.182927,16.562500,-36.331249,2.975000,0.0,1.000000,0.000000,0.000000,0.000000
1782117462.417307,1961509,0.920898,-0.021973,-0.385742,-0.853659,0.182927,0.182927,16.718750,-36.087502,2.862500,0.0,1.000000,0.000000,0.000000,0.000000
1782117462.428307,1961520,0.920898,-0.021973,-0.383789,-0.914634,0.121951,0.060976,16.718750,-36.087502,2.862500,0.0,1.000000,0.000000,0.000000,0.000000
1782117462.437307,1961529,0.922363,-0.020508,-0.384766,-0.853659,0.060976,0.060976,16.643751,-36.212502,2.956250,0.0,1.000000,0.000000,0.000000,0.000000
1782117462.448307,1961540,0.923340,-0.020508,-0.383789,-0.975610,0.000000,0.000000,16.643751,-36.212502,2.956250,0.0,1.000000,0.000000,0.000000,0.000000
1782117462.457307,1961549,0.925293,-0.019043,-0.381836,-1.036585,0.000000,0.060976,16.637501,-36.312500,2.937500,0.0,1.000000,0.000000,0.000000,0.000000
1782117462.467307,1961559,0.925781,-0.019043,-0.382812,-1.097561,0.060976,0.000000,16.637501,-36.312500,2.937500,0.0,1.000000,0.000000,0.000000,0.000000
1782117462.483307,1961575,0.924805,-0.022949,-0.380371,-0.914634,0.365854,0.000000,16.593750,-36.368752,2.975000,0.0,1.000000,0.000000,0.000000,0.000000
1782117462.487307,1961579,0.924805,-0.022949,-0.380371,-0.914634,0.365854,0.000000,16.593750,-36.368752,2.975000,0.0,1.000000,0.000000,0.000000,0.000000
1782117462.498307,1961590,0.925781,-0.022949,-0.380371,-0.853659,0.365854,0.060976,16.712500,-36.093750,2.887500,0.0,1.000000,0.000000,0.000000,0.000000
1782117462.507307,1961599,0.926270,-0.022949,-0.381836,-0.853659,0.426829,0.000000,16.712500,-36.093750,2.887500,0.0,1.000000,0.000000,0.000000,0.000000
1782117462.517307,1961609,0.925293,-0.021973,-0.382812,-0.853659,0.426829,0.060976,16.600000,-36.262501,3.031250,0.0,1.000000,0.000000,0.000000,0.000000
1782117462.528307,1961620,0.923340,-0.023926,-0.382324,-0.914634,0.487805,0.121951,16.600000,-36.262501,3.031250,0.0,1.000000,0.000000,0.000000,0.000000
1782117462.537307,1961629,0.923340,-0.022949,-0.383789,-1.036585,0.426829,0.121951,16.618750,-36.206249,2.993750,0.0,1.000000,0.000000,0.000000,0.000000
1782117462.547307,1961639,0.923340,-0.022461,-0.382812,-1.036585,0.304878,0.243902,16.618750,-36.206249,2.993750,0.0,1.000000,0.000000,0.000000,0.000000
1782117462.557307,1961649,0.924316,-0.022461,-0.383789,-1.097561,0.304878,0.182927,16.500000,-36.393749,3.081250,0.0,1.000000,0.000000,0.000000,0.000000
1782117462.567307,1961659,0.923828,-0.019531,-0.383789,-1.341463,0.365854,0.182927,16.500000,-36.393749,3.081250,0.0,1.000000,0.000000,0.000000,0.000000
1782117462.577307,1961669,0.922852,-0.019531,-0.383301,-1.524390,0.426829,0.182927,16.568750,-36.375000,3.087500,0.0,1.000000,0.000000,0.000000,0.000000
1782117462.587307,1961679,0.923340,-0.018066,-0.383301,-1.707317,0.426829,0.121951,16.568750,-36.375000,3.087500,0.0,1.000000,0.000000,0.000000,0.000000
1782117462.597307,1961689,0.924316,-0.019043,-0.384277,-1.707317,0.426829,0.182927,16.562500,-36.356251,3.081250,0.0,1.000000,0.000000,0.000000,0.000000
1782117462.607307,1961699,0.924316,-0.020020,-0.382324,-1.646341,0.426829,0.182927,16.562500,-36.356251,3.081250,0.0,1.000000,0.000000,0.000000,0.000000
1782117462.617307,1961709,0.923828,-0.021484,-0.384766,-1.463415,0.426829,0.121951,16.587500,-36.250000,3.106250,0.0,1.000000,0.000000,0.000000,0.000000
1782117462.627307,1961719,0.923340,-0.019531,-0.383789,-1.280488,0.487805,0.182927,16.587500,-36.250000,3.106250,0.0,1.000000,0.000000,0.000000,0.000000
1782117462.637307,1961729,0.922363,-0.019531,-0.384766,-1.219512,0.365854,0.121951,16.506250,-36.325001,3.193750,0.0,1.000000,0.000000,0.000000,0.000000
1782117462.647307,1961739,0.922363,-0.019043,-0.386230,-1.219512,0.487805,0.060976,16.506250,-36.325001,3.193750,0.0,1.000000,0.000000,0.000000,0.000000
1782117462.657307,1961749,0.921387,-0.018555,-0.384766,-1.219512,0.487805,0.060976,16.643751,-36.143749,3.025000,0.0,1.000000,0.000000,0.000000,0.000000
1782117462.667307,1961759,0.919434,-0.019043,-0.385254,-1.219512,0.426829,0.000000,16.643751,-36.143749,3.025000,0.0,1.000000,0.000000,0.000000,0.000000
1782117462.677307,1961769,0.918945,-0.020996,-0.385254,-1.158537,0.243902,0.000000,16.537500,-36.437500,3.237500,0.0,1.000000,0.000000,0.000000,0.000000
1782117462.687307,1961779,0.920898,-0.019043,-0.386719,-1.036585,0.182927,-0.060976,16.537500,-36.437500,3.237500,0.0,1.000000,0.000000,0.000000,0.000000
1782117462.697307,1961789,0.922852,-0.020020,-0.385742,-1.036585,0.182927,-0.121951,16.662500,-36.174999,3.106250,0.0,1.000000,0.000000,0.000000,0.000000
1782117462.707307,1961799,0.923828,-0.021973,-0.386230,-0.792683,0.121951,-0.182927,16.662500,-36.174999,3.106250,0.0,1.000000,0.000000,0.000000,0.000000
1782117462.717307,1961809,0.923828,-0.022461,-0.385254,-0.426829,0.182927,-0.182927,16.462500,-36.462502,3.300000,0.0,1.000000,0.000000,0.000000,0.000000
1782117462.728307,1961820,0.923340,-0.021484,-0.383789,-0.121951,0.182927,-0.304878,16.462500,-36.462502,3.300000,0.0,1.000000,0.000000,0.000000,0.000000
1782117462.737307,1961829,0.923828,-0.020508,-0.383301,0.182927,0.243902,-0.426829,16.525000,-36.381252,3.218750,0.0,1.000000,0.000000,0.000000,0.000000
1782117462.747307,1961839,0.925293,-0.020020,-0.382324,0.304878,0.243902,-0.426829,16.525000,-36.381252,3.218750,0.0,1.000000,0.000000,0.000000,0.000000
1782117462.757307,1961849,0.926270,-0.019531,-0.381348,0.365854,0.243902,-0.426829,16.487501,-36.375000,3.256250,0.0,1.000000,0.000000,0.000000,0.000000
1782117462.767307,1961859,0.926270,-0.018066,-0.378418,0.365854,0.243902,-0.426829,16.487501,-36.375000,3.256250,0.0,1.000000,0.000000,0.000000,0.000000
1782117462.777307,1961869,0.926270,-0.017578,-0.379395,0.304878,0.365854,-0.365854,16.537500,-36.318752,3.231250,0.0,1.000000,0.000000,0.000000,0.000000
1782117462.787307,1961879,0.926270,-0.016602,-0.379883,0.243902,0.304878,-0.365854,16.537500,-36.318752,3.231250,0.0,1.000000,0.000000,0.000000,0.000000
1782117462.797307,1961889,0.925293,-0.015625,-0.378906,0.182927,0.365854,-0.304878,16.493750,-36.412502,3.281250,0.0,1.000000,0.000000,0.000000,0.000000
1782117462.807307,1961899,0.922852,-0.014160,-0.380371,-0.060976,0.426829,-0.243902,16.493750,-36.412502,3.281250,0.0,1.000000,0.000000,0.000000,0.000000
1782117462.817307,1961909,0.922852,-0.014160,-0.382324,-0.182927,0.243902,-0.243902,16.518751,-36.368752,3.306250,0.0,1.000000,0.000000,0.000000,0.000000
1782117462.827307,1961919,0.929199,-0.014648,-0.383789,0.000000,-0.060976,-0.365854,16.518751,-36.368752,3.306250,0.0,1.000000,0.000000,0.000000,0.000000
1782117462.837307,1961929,0.927246,-0.016113,-0.380859,0.121951,0.243902,-0.182927,16.537500,-36.350002,3.268750,0.0,1.000000,0.000000,0.000000,0.000000
1782117462.847307,1961939,0.923828,-0.013184,-0.379883,0.000000,0.304878,-0.182927,16.537500,-36.350002,3.268750,0.0,1.000000,0.000000,0.000000,0.000000
1782117462.857307,1961949,0.923828,-0.012695,-0.378906,0.182927,0.243902,-0.426829,16.518751,-36.362499,3.331250,0.0,1.000000,0.000000,0.000000,0.000000
1782117462.867307,1961959,0.921387,-0.016602,-0.378418,0.243902,-0.121951,-0.426829,16.518751,-36.362499,3.331250,0.0,1.000000,0.000000,0.000000,0.000000
1782117462.877307,1961969,0.920410,-0.020996,-0.376465,-0.060976,-0.304878,-0.304878,16.518751,-36.381252,3.306250,0.0,1.000000,0.000000,0.000000,0.000000
1782117462.888307,1961980,0.918945,-0.022949,-0.382324,-0.487805,-0.182927,-0.243902,16.518751,-36.381252,3.306250,0.0,1.000000,0.000000,0.000000,0.000000
1782117462.897307,1961989,0.919922,-0.022461,-0.384277,-0.548781,-0.304878,-0.304878,16.525000,-36.318752,3.262500,0.0,1.000000,0.000000,0.000000,0.000000
1782117462.907307,1961999,0.916504,-0.022461,-0.386719,-0.670732,-0.426829,-0.182927,16.525000,-36.318752,3.262500,0.0,1.000000,0.000000,0.000000,0.000000
1782117462.917307,1962009,0.918457,-0.019043,-0.381836,-0.792683,-0.914634,-0.182927,16.562500,-36.356251,3.350000,0.0,1.000000,0.000000,0.000000,0.000000
1782117462.928307,1962020,0.923340,-0.018066,-0.382812,-0.853659,-1.036585,-0.304878,16.562500,-36.356251,3.350000,0.0,1.000000,0.000000,0.000000,0.000000
1782117462.939307,1962031,0.927246,-0.016602,-0.379395,-0.914634,-0.975610,-0.304878,16.587500,-36.325001,3.300000,0.0,1.000000,0.000000,0.000000,0.000000
1782117462.947307,1962039,0.926270,-0.016113,-0.374023,-1.341463,-0.853659,-0.121951,16.587500,-36.325001,3.300000,0.0,1.000000,0.000000,0.000000,0.000000
1782117462.957307,1962049,0.925781,-0.016602,-0.370605,-1.768293,-0.853659,0.000000,16.550001,-36.325001,3.287500,0.0,1.000000,0.000000,0.000000,0.000000
1782117462.969307,1962061,0.925781,-0.014160,-0.368164,-2.195122,-0.792683,0.000000,16.550001,-36.325001,3.287500,0.0,1.000000,0.000000,0.000000,0.000000
1782117462.977307,1962069,0.928223,-0.012207,-0.370117,-2.500000,-0.792683,0.000000,16.550001,-36.337502,3.237500,0.0,1.000000,0.000000,0.000000,0.000000
1782117462.987307,1962079,0.931641,-0.012695,-0.369141,-2.682927,-0.609756,0.000000,16.550001,-36.337502,3.237500,0.0,1.000000,0.000000,0.000000,0.000000
1782117462.997307,1962089,0.931641,-0.016113,-0.369629,-2.621951,-0.426829,0.000000,16.531250,-36.443752,3.381250,0.0,1.000000,0.000000,0.000000,0.000000
1782117463.009307,1962101,0.930176,-0.020020,-0.367676,-2.500000,-0.304878,0.182927,16.531250,-36.443752,3.381250,0.0,1.000000,0.000000,0.000000,0.000000
1782117463.017307,1962109,0.926758,-0.024902,-0.370117,-2.256098,-0.365854,0.243902,16.543751,-36.381252,3.325000,0.0,1.000000,0.000000,0.000000,0.000000
1782117463.027307,1962119,0.927734,-0.027344,-0.373047,-2.012195,-0.365854,0.243902,16.543751,-36.381252,3.325000,0.0,1.000000,0.000000,0.000000,0.000000
1782117463.037307,1962129,0.928711,-0.027344,-0.372559,-1.951220,-0.304878,0.182927,16.537500,-36.412502,3.437500,0.0,1.000000,0.000000,0.000000,0.000000
1782117463.049307,1962141,0.928223,-0.028809,-0.372559,-2.012195,0.000000,0.000000,16.537500,-36.412502,3.437500,0.0,1.000000,0.000000,0.000000,0.000000
1782117463.057307,1962149,0.926758,-0.034180,-0.376953,-1.524390,0.121951,-0.182927,16.562500,-36.393749,3.337500,0.0,1.000000,0.000000,0.000000,0.000000
1782117463.067307,1962159,0.924316,-0.037598,-0.378906,-0.548781,0.000000,-0.426829,16.562500,-36.393749,3.337500,0.0,1.000000,0.000000,0.000000,0.000000
1782117463.077307,1962169,0.926758,-0.037109,-0.381348,0.792683,-0.182927,-0.670732,16.643751,-36.193752,3.262500,0.0,1.000000,0.000000,0.000000,0.000000
1782117463.088307,1962180,0.928711,-0.033203,-0.379883,1.646341,-0.182927,-0.792683,16.643751,-36.193752,3.262500,0.0,1.000000,0.000000,0.000000,0.000000
1782117463.097307,1962189,0.929688,-0.023438,-0.375977,1.707317,-0.121951,-0.670732,16.556250,-36.400002,3.437500,0.0,1.000000,0.000000,0.000000,0.000000
1782117463.107307,1962199,0.926758,-0.017090,-0.376465,1.219512,-0.121951,-0.487805,16.556250,-36.400002,3.437500,0.0,1.000000,0.000000,0.000000,0.000000
1782117463.117307,1962209,0.924805,-0.010742,-0.375000,0.670732,-0.243902,-0.426829,16.450001,-36.437500,3.375000,0.0,1.000000,0.000000,0.000000,0.000000
1782117463.129307,1962221,0.922852,-0.008301,-0.375000,0.426829,-0.487805,-0.365854,16.450001,-36.437500,3.375000,0.0,1.000000,0.000000,0.000000,0.000000
1782117463.137307,1962229,0.922363,-0.006836,-0.374512,0.060976,-0.731707,-0.304878,16.500000,-36.400002,3.356250,0.0,1.000000,0.000000,0.000000,0.000000
1782117463.147307,1962239,0.922363,-0.005371,-0.374512,-0.670732,-0.853659,-0.243902,16.500000,-36.400002,3.356250,0.0,1.000000,0.000000,0.000000,0.000000
1782117463.158307,1962250,0.921875,-0.005371,-0.375977,-1.646341,-0.975610,0.000000,16.493750,-36.443752,3.350000,0.0,1.000000,0.000000,0.000000,0.000000
1782117463.169307,1962261,0.919434,-0.005859,-0.379883,-2.378049,-1.158537,0.182927,16.512501,-36.450001,3.300000,0.0,1.000000,0.000000,0.000000,0.000000
1782117463.178307,1962270,0.918457,-0.009277,-0.382812,-2.987805,-1.463415,0.304878,16.512501,-36.450001,3.300000,0.0,1.000000,0.000000,0.000000,0.000000
1782117463.187307,1962279,0.920898,-0.015137,-0.386719,-3.292683,-1.646341,0.365854,16.512501,-36.450001,3.300000,0.0,1.000000,0.000000,0.000000,0.000000
1782117463.197307,1962289,0.921875,-0.022461,-0.388672,-3.048780,-1.646341,0.243902,16.575001,-36.343750,3.306250,0.0,1.000000,0.000000,0.000000,0.000000
1782117463.210307,1962302,0.925781,-0.029785,-0.390625,-2.134146,-1.585366,0.060976,16.500000,-36.481251,3.368750,0.0,1.000000,0.000000,0.000000,0.000000
1782117463.218307,1962310,0.927734,-0.035156,-0.388672,-1.158537,-1.402439,-0.060976,16.500000,-36.481251,3.368750,0.0,1.000000,0.000000,0.000000,0.000000
1782117463.227307,1962319,0.929688,-0.034668,-0.385254,-0.182927,-1.097561,-0.182927,16.500000,-36.481251,3.368750,0.0,1.000000,0.000000,0.000000,0.000000
1782117463.237307,1962329,0.927734,-0.031250,-0.381348,0.426829,-0.731707,-0.304878,16.487501,-36.462502,3.343750,0.0,1.000000,0.000000,0.000000,0.000000
1782117463.250307,1962342,0.924316,-0.028809,-0.382812,0.609756,-0.792683,-0.365854,16.468750,-36.456249,3.306250,0.0,1.000000,0.000000,0.000000,0.000000
1782117463.257307,1962349,0.927734,-0.023926,-0.380371,0.731707,-0.853659,-0.426829,16.468750,-36.456249,3.306250,0.0,1.000000,0.000000,0.000000,0.000000
1782117463.267307,1962359,0.927734,-0.019531,-0.379883,0.609756,-0.609756,-0.426829,16.468750,-36.456249,3.306250,0.0,1.000000,0.000000,0.000000,0.000000
1782117463.277307,1962369,0.925781,-0.018555,-0.378418,0.548781,-0.548781,-0.426829,16.481251,-36.512501,3.300000,0.0,1.000000,0.000000,0.000000,0.000000
1782117463.289307,1962381,0.928223,-0.017578,-0.378906,0.487805,-0.670732,-0.304878,16.506250,-36.450001,3.331250,0.0,1.000000,0.000000,0.000000,0.000000
1782117463.297307,1962389,0.930176,-0.014648,-0.375488,0.243902,-0.548781,-0.121951,16.506250,-36.450001,3.331250,0.0,1.000000,0.000000,0.000000,0.000000
1782117463.307307,1962399,0.929199,-0.013184,-0.374512,-0.121951,-0.243902,0.060976,16.506250,-36.450001,3.331250,0.0,1.000000,0.000000,0.000000,0.000000
1782117463.317307,1962409,0.926270,-0.012207,-0.378906,-0.609756,-0.182927,0.060976,16.443750,-36.487499,3.300000,0.0,1.000000,0.000000,0.000000,0.000000
1782117463.329307,1962421,0.921387,-0.011719,-0.382324,-1.036585,-0.121951,0.121951,16.456251,-36.512501,3.343750,0.0,1.000000,0.000000,0.000000,0.000000
1782117463.337307,1962429,0.917480,-0.012695,-0.388184,-1.341463,-0.365854,0.060976,16.456251,-36.512501,3.343750,0.0,1.000000,0.000000,0.000000,0.000000
1782117463.348307,1962440,0.917969,-0.015137,-0.392090,-1.585366,-0.609756,0.000000,16.456251,-36.512501,3.343750,0.0,1.000000,0.000000,0.000000,0.000000
1782117463.357307,1962449,0.918457,-0.020020,-0.393555,-1.585366,-0.670732,-0.060976,16.475000,-36.475002,3.281250,0.0,1.000000,0.000000,0.000000,0.000000
1782117463.371307,1962463,0.917969,-0.024414,-0.394531,-1.341463,-0.670732,-0.121951,16.443750,-36.500000,3.256250,0.0,1.000000,0.000000,0.000000,0.000000
1782117463.378307,1962470,0.918945,-0.028320,-0.395508,-0.914634,-0.609756,-0.121951,16.443750,-36.500000,3.256250,0.0,1.000000,0.000000,0.000000,0.000000
1782117463.387307,1962479,0.920410,-0.027832,-0.392578,-0.365854,-0.731707,-0.121951,16.443750,-36.500000,3.256250,0.0,1.000000,0.000000,0.000000,0.000000
1782117463.397307,1962489,0.920898,-0.024414,-0.391602,0.000000,-0.731707,-0.304878,16.506250,-36.450001,3.343750,0.0,1.000000,0.000000,0.000000,0.000000
1782117463.410307,1962502,0.921875,-0.019531,-0.387695,0.365854,-0.731707,-0.365854,16.443750,-36.512501,3.237500,0.0,1.000000,0.000000,0.000000,0.000000
1782117463.417307,1962509,0.922363,-0.017578,-0.386230,0.304878,-0.670732,-0.426829,16.443750,-36.512501,3.237500,0.0,1.000000,0.000000,0.000000,0.000000
1782117463.427307,1962519,0.921387,-0.016602,-0.383789,0.243902,-0.609756,-0.487805,16.443750,-36.512501,3.237500,0.0,1.000000,0.000000,0.000000,0.000000
1782117463.437307,1962529,0.922363,-0.017090,-0.383301,0.182927,-0.609756,-0.487805,16.506250,-36.468750,3.243750,0.0,1.000000,0.000000,0.000000,0.000000
1782117463.450307,1962542,0.924316,-0.020020,-0.382812,0.060976,-0.304878,-0.426829,16.450001,-36.493752,3.243750,0.0,1.000000,0.000000,0.000000,0.000000
1782117463.457307,1962549,0.924316,-0.020020,-0.382812,0.060976,-0.304878,-0.426829,16.450001,-36.493752,3.243750,0.0,1.000000,0.000000,0.000000,0.000000
1782117463.469307,1962561,0.926758,-0.020508,-0.381348,0.182927,-0.365854,-0.365854,16.668751,-36.131252,3.081250,0.0,1.000000,0.000000,0.000000,0.000000
1782117463.477307,1962569,0.926758,-0.022461,-0.381348,0.182927,-0.243902,-0.365854,16.668751,-36.131252,3.081250,0.0,1.000000,0.000000,0.000000,0.000000
1782117463.490307,1962582,0.923340,-0.021484,-0.382812,-0.121951,-0.060976,-0.365854,16.500000,-36.418751,3.231250,0.0,1.000000,0.000000,0.000000,0.000000
1782117463.497307,1962589,0.923340,-0.021484,-0.382812,-0.121951,-0.060976,-0.365854,16.500000,-36.418751,3.231250,0.0,1.000000,0.000000,0.000000,0.000000
1782117463.507307,1962599,0.924805,-0.020996,-0.384277,-0.304878,-0.060976,-0.304878,16.525000,-36.450001,3.281250,0.0,1.000000,0.000000,0.000000,0.000000
1782117463.517307,1962609,0.923828,-0.023438,-0.383789,-0.365854,0.060976,-0.365854,16.525000,-36.450001,3.281250,0.0,1.000000,0.000000,0.000000,0.000000
1782117463.531307,1962623,0.922363,-0.021484,-0.388672,-0.365854,-0.121951,-0.304878,16.612501,-36.287502,3.150000,0.0,1.000000,0.000000,0.000000,0.000000
1782117463.538307,1962630,0.923828,-0.020996,-0.387207,-0.182927,0.000000,-0.365854,16.612501,-36.287502,3.150000,0.0,1.000000,0.000000,0.000000,0.000000
1782117463.547307,1962639,0.920410,-0.022461,-0.388184,0.121951,0.121951,-0.365854,16.518751,-36.424999,3.268750,0.0,1.000000,0.000000,0.000000,0.000000
1782117463.557307,1962649,0.919922,-0.020508,-0.389160,0.426829,0.000000,-0.426829,16.518751,-36.424999,3.268750,0.0,1.000000,0.000000,0.000000,0.000000
1782117463.572307,1962664,0.920410,-0.018555,-0.388184,0.609756,-0.121951,-0.609756,16.487501,-36.450001,3.281250,0.0,1.000000,0.000000,0.000000,0.000000
1782117463.578307,1962670,0.920898,-0.019531,-0.387695,0.609756,-0.121951,-0.670732,16.487501,-36.450001,3.281250,0.0,1.000000,0.000000,0.000000,0.000000
1782117463.587307,1962679,0.919434,-0.018066,-0.388184,0.731707,-0.121951,-0.670732,16.562500,-36.287502,3.162500,0.0,1.000000,0.000000,0.000000,0.000000
1782117463.598307,1962690,0.919922,-0.018555,-0.387207,0.731707,-0.243902,-0.670732,16.562500,-36.287502,3.162500,0.0,1.000000,0.000000,0.000000,0.000000
1782117463.607307,1962699,0.922363,-0.017090,-0.386719,0.670732,-0.304878,-0.670732,16.512501,-36.412502,3.312500,0.0,1.000000,0.000000,0.000000,0.000000
1782117463.618307,1962710,0.923828,-0.018555,-0.384766,0.609756,-0.304878,-0.609756,16.512501,-36.412502,3.312500,0.0,1.000000,0.000000,0.000000,0.000000
1782117463.627307,1962719,0.924805,-0.016602,-0.385254,0.487805,-0.304878,-0.609756,16.593750,-36.362499,3.193750,0.0,1.000000,0.000000,0.000000,0.000000
1782117463.637307,1962729,0.924805,-0.017090,-0.382812,0.304878,-0.243902,-0.548781,16.593750,-36.362499,3.193750,0.0,1.000000,0.000000,0.000000,0.000000
1782117463.647307,1962739,0.925781,-0.016602,-0.382324,0.182927,-0.121951,-0.426829,16.512501,-36.443752,3.262500,0.0,1.000000,0.000000,0.000000,0.000000
1782117463.657307,1962749,0.923828,-0.017090,-0.381836,0.000000,0.000000,-0.365854,16.512501,-36.443752,3.262500,0.0,1.000000,0.000000,0.000000,0.000000
1782117463.667307,1962759,0.922363,-0.017090,-0.383789,-0.182927,0.060976,-0.365854,16.687500,-36.137501,3.043750,0.0,1.000000,0.000000,0.000000,0.000000
1782117463.677307,1962769,0.923340,-0.018555,-0.383301,-0.243902,0.060976,-0.304878,16.687500,-36.137501,3.043750,0.0,1.000000,0.000000,0.000000,0.000000
1782117463.687307,1962779,0.921875,-0.019043,-0.383789,-0.182927,0.000000,-0.304878,16.537500,-36.393749,3.218750,0.0,1.000000,0.000000,0.000000,0.000000
1782117463.697307,1962789,0.921387,-0.019531,-0.386719,-0.182927,-0.243902,-0.426829,16.537500,-36.393749,3.218750,0.0,1.000000,0.000000,0.000000,0.000000
1782117463.707307,1962799,0.918945,-0.019531,-0.389648,-0.243902,-0.426829,-0.487805,16.612501,-36.368752,3.231250,0.0,1.000000,0.000000,0.000000,0.000000
1782117463.717307,1962809,0.919434,-0.017090,-0.392578,-0.182927,-0.609756,-0.548781,16.612501,-36.368752,3.231250,0.0,1.000000,0.000000,0.000000,0.000000
1782117463.727307,1962819,0.918945,-0.019531,-0.390137,0.060976,-0.670732,-0.853659,16.562500,-36.393749,3.231250,0.0,1.000000,0.000000,0.000000,0.000000
1782117463.737307,1962829,0.919434,-0.023438,-0.387695,0.243902,-0.609756,-0.914634,16.562500,-36.393749,3.231250,0.0,1.000000,0.000000,0.000000,0.000000
1782117463.748307,1962840,0.922363,-0.024414,-0.384766,0.426829,-0.609756,-0.975610,16.737501,-36.112499,3.087500,0.0,1.000000,0.000000,0.000000,0.000000
1782117463.758307,1962850,0.922852,-0.023926,-0.386719,0.426829,-0.548781,-0.975610,16.737501,-36.112499,3.087500,0.0,1.000000,0.000000,0.000000,0.000000
1782117463.767307,1962859,0.919922,-0.022949,-0.387695,0.609756,-0.609756,-1.036585,16.537500,-36.418751,3.200000,0.0,1.000000,0.000000,0.000000,0.000000
1782117463.778307,1962870,0.917969,-0.019043,-0.390625,0.853659,-0.914634,-1.158537,16.537500,-36.418751,3.200000,0.0,1.000000,0.000000,0.000000,0.000000
1782117463.787307,1962879,0.917969,-0.013672,-0.390625,1.097561,-1.097561,-1.219512,16.587500,-36.337502,3.181250,0.0,1.000000,0.000000,0.000000,0.000000
1782117463.798307,1962890,0.920898,-0.014160,-0.388184,1.585366,-1.280488,-1.402439,16.587500,-36.337502,3.181250,0.0,1.000000,0.000000,0.000000,0.000000
1782117463.807307,1962899,0.925293,-0.019043,-0.382812,1.890244,-1.097561,-1.280488,16.543751,-36.456249,3.168750,0.0,1.000000,0.000000,0.000000,0.000000
1782117463.817307,1962909,0.923340,-0.019531,-0.384766,1.524390,-0.792683,-0.853659,16.543751,-36.456249,3.168750,0.0,1.000000,0.000000,0.000000,0.000000
1782117463.827307,1962919,0.921875,-0.013184,-0.387695,1.036585,-0.914634,-0.670732,16.625000,-36.281250,3.112500,0.0,1.000000,0.000000,0.000000,0.000000
1782117463.837307,1962929,0.923828,-0.012207,-0.388184,0.548781,-0.914634,-0.792683,16.625000,-36.281250,3.112500,0.0,1.000000,0.000000,0.000000,0.000000
1782117463.847307,1962939,0.924316,-0.014648,-0.385742,0.487805,-0.914634,-0.792683,16.631250,-36.375000,3.181250,0.0,1.000000,0.000000,0.000000,0.000000
1782117463.857307,1962949,0.927246,-0.018555,-0.381348,0.426829,-0.670732,-0.609756,16.631250,-36.375000,3.181250,0.0,1.000000,0.000000,0.000000,0.000000
1782117463.867307,1962959,0.927246,-0.018555,-0.380371,0.365854,-0.426829,-0.609756,16.662500,-36.318752,3.143750,0.0,1.000000,0.000000,0.000000,0.000000
1782117463.877307,1962969,0.926270,-0.020020,-0.383301,0.426829,-0.365854,-0.731707,16.662500,-36.318752,3.143750,0.0,1.000000,0.000000,0.000000,0.000000
1782117463.887307,1962979,0.925781,-0.020020,-0.388672,0.609756,-0.304878,-0.792683,16.575001,-36.412502,3.193750,0.0,1.000000,0.000000,0.000000,0.000000
1782117463.897307,1962989,0.927734,-0.021484,-0.390625,0.853659,-0.243902,-0.914634,16.575001,-36.412502,3.193750,0.0,1.000000,0.000000,0.000000,0.000000
1782117463.907307,1962999,0.927734,-0.022949,-0.390625,0.914634,0.000000,-0.853659,16.581251,-36.350002,3.150000,0.0,1.000000,0.000000,0.000000,0.000000
1782117463.917307,1963009,0.926270,-0.020020,-0.396484,0.914634,0.182927,-0.792683,16.581251,-36.350002,3.150000,0.0,1.000000,0.000000,0.000000,0.000000
1782117463.927307,1963019,0.922852,-0.014648,-0.400879,0.853659,0.243902,-0.853659,16.606251,-36.393749,3.187500,0.0,1.000000,0.000000,0.000000,0.000000
1782117463.937307,1963029,0.920410,-0.012207,-0.402832,0.975610,0.304878,-0.914634,16.606251,-36.393749,3.187500,0.0,1.000000,0.000000,0.000000,0.000000
1782117463.947307,1963039,0.918457,-0.013672,-0.402832,1.097561,0.487805,-0.914634,16.643751,-36.312500,3.193750,0.0,1.000000,0.000000,0.000000,0.000000
1782117463.957307,1963049,0.910156,-0.014648,-0.406738,1.036585,0.670732,-0.609756,16.643751,-36.312500,3.193750,0.0,1.000000,0.000000,0.000000,0.000000
1782117463.967307,1963059,0.909180,-0.010742,-0.413086,0.731707,0.243902,-0.426829,16.643751,-36.331249,3.187500,0.0,1.000000,0.000000,0.000000,0.000000
1782117463.978307,1963070,0.915039,-0.003906,-0.414062,0.792683,0.000000,-0.243902,16.643751,-36.331249,3.187500,0.0,1.000000,0.000000,0.000000,0.000000
1782117463.988307,1963080,0.915039,-0.004395,-0.409668,1.097561,0.304878,-0.182927,16.631250,-36.356251,3.112500,0.0,1.000000,0.000000,0.000000,0.000000
1782117463.997307,1963089,0.909668,-0.008789,-0.408203,1.341463,0.487805,-0.121951,16.631250,-36.356251,3.112500,0.0,1.000000,0.000000,0.000000,0.000000
1782117464.008307,1963100,0.905762,-0.004395,-0.409180,1.585366,0.426829,0.000000,16.612501,-36.343750,3.156250,0.0,1.000000,0.000000,0.000000,0.000000
1782117464.019307,1963111,0.903320,0.003418,-0.412598,1.646341,0.304878,-0.182927,16.612501,-36.343750,3.156250,0.0,1.000000,0.000000,0.000000,0.000000
1782117464.027307,1963119,0.896484,0.003906,-0.416992,1.402439,0.487805,-0.487805,16.612501,-36.381252,3.175000,0.0,1.000000,0.000000,0.000000,0.000000
1782117464.037307,1963129,0.899902,-0.002441,-0.431641,0.914634,0.000000,-0.670732,16.612501,-36.381252,3.175000,0.0,1.000000,0.000000,0.000000,0.000000
1782117464.047307,1963139,0.917480,0.000000,-0.445801,0.243902,-0.182927,-0.792683,16.612501,-36.356251,3.156250,0.0,1.000000,0.000000,0.000000,0.000000
1782117464.058307,1963150,0.919922,0.004395,-0.452148,-0.792683,0.609756,-0.365854,16.612501,-36.356251,3.156250,0.0,1.000000,0.000000,0.000000,0.000000
1782117464.067307,1963159,0.914062,0.000977,-0.444336,-1.402439,1.524390,0.365854,16.675001,-36.337502,3.162500,0.0,1.000000,0.000000,0.000000,0.000000
1782117464.077307,1963169,0.904297,-0.005371,-0.441895,-2.073171,2.012195,1.158537,16.675001,-36.337502,3.162500,0.0,1.000000,0.000000,0.000000,0.000000
1782117464.087307,1963179,0.899414,0.002930,-0.443848,-2.926829,1.707317,1.890244,16.600000,-36.343750,3.275000,0.0,1.000000,0.000000,0.000000,0.000000
1782117464.098307,1963190,0.898438,0.017578,-0.440918,-3.414634,1.219512,1.890244,16.600000,-36.343750,3.275000,0.0,1.000000,0.000000,0.000000,0.000000
1782117464.107307,1963199,0.897949,0.013672,-0.431641,-3.231707,1.280488,1.768293,16.731251,-36.112499,3.181250,0.0,1.000000,0.000000,0.000000,0.000000
1782117464.117307,1963209,0.896973,0.001465,-0.422852,-2.987805,2.073171,2.012195,16.731251,-36.112499,3.181250,0.0,1.000000,0.000000,0.000000,0.000000
1782117464.127307,1963219,0.909668,-0.004883,-0.427246,-2.743902,2.378049,2.317073,16.525000,-36.456249,3.443750,0.0,1.000000,0.000000,0.000000,0.000000
1782117464.138307,1963230,0.905762,-0.002441,-0.425293,-2.378049,3.292683,2.378049,16.525000,-36.456249,3.443750,0.0,1.000000,0.000000,0.000000,0.000000
1782117464.148307,1963240,0.906738,-0.018555,-0.421875,-1.768293,4.207317,1.707317,16.587500,-36.293751,3.500000,0.0,1.000000,0.000000,0.000000,0.000000
1782117464.157307,1963249,0.909668,-0.046875,-0.440430,-0.548781,4.939024,1.402439,16.587500,-36.293751,3.500000,0.0,1.000000,0.000000,0.000000,0.000000
1782117464.168307,1963260,0.915039,-0.059082,-0.454102,2.073171,4.939024,1.280488,16.456251,-36.462502,3.612500,0.0,1.000000,0.000000,0.000000,0.000000
1782117464.177307,1963269,0.930176,-0.066895,-0.454102,5.304878,5.304878,1.036585,16.456251,-36.462502,3.612500,0.0,1.000000,0.000000,0.000000,0.000000
1782117464.187307,1963279,0.945312,-0.078125,-0.449219,9.695122,6.402439,0.182927,16.518751,-36.312500,3.612500,0.0,1.000000,0.000000,0.000000,0.000000
1782117464.198307,1963290,0.950195,-0.080566,-0.431152,15.182927,8.597561,-0.304878,16.518751,-36.312500,3.612500,0.0,1.000000,0.000000,0.000000,0.000000
1782117464.207307,1963299,0.937012,-0.084961,-0.430664,19.329269,10.914635,-0.731707,16.575001,-36.206249,3.625000,0.0,1.000000,0.000000,0.000000,0.000000
1782117464.219307,1963311,0.938477,-0.077637,-0.439453,22.560976,12.378049,-1.097561,16.575001,-36.206249,3.625000,0.0,1.000000,0.000000,0.000000,0.000000
1782117464.227307,1963319,0.940430,-0.064941,-0.439941,25.670732,15.060976,-1.402439,16.493750,-36.318752,3.800000,0.0,1.000000,0.000000,0.000000,0.000000
1782117464.237307,1963329,0.937012,-0.042480,-0.422852,30.000000,19.207317,-2.500000,16.493750,-36.318752,3.800000,0.0,1.000000,0.000000,0.000000,0.000000
1782117464.247307,1963339,0.909668,-0.011719,-0.410645,32.865856,24.634148,-3.597561,16.531250,-36.350002,3.887500,0.0,1.000000,0.000000,0.000000,0.000000
1782117464.259307,1963351,0.880859,0.011230,-0.407227,33.414635,26.402439,-4.329268,16.531250,-36.350002,3.887500,0.0,1.000000,0.000000,0.000000,0.000000
1782117464.267307,1963359,0.873047,0.022461,-0.403809,31.646341,25.243902,-4.085366,16.581251,-36.187500,3.975000,0.0,1.000000,0.000000,0.000000,0.000000
1782117464.277307,1963369,0.878418,0.027344,-0.383301,28.170732,23.780489,-3.048780,16.581251,-36.187500,3.975000,0.0,1.000000,0.000000,0.000000,0.000000
1782117464.287307,1963379,0.894531,0.008789,-0.363281,23.353659,20.731709,-2.500000,16.556250,-36.237499,4.218750,0.0,1.000000,0.000000,0.000000,0.000000
1782117464.298307,1963390,0.913574,-0.017578,-0.361816,18.353659,18.292683,-1.463415,16.556250,-36.237499,4.218750,0.0,1.000000,0.000000,0.000000,0.000000
1782117464.307307,1963399,0.915039,-0.035156,-0.365723,14.146341,17.743902,-0.182927,16.600000,-36.106251,4.287500,0.0,1.000000,0.000000,0.000000,0.000000
1782117464.317307,1963409,0.899414,-0.048828,-0.384277,9.817074,17.682928,1.097561,16.600000,-36.106251,4.287500,0.0,1.000000,0.000000,0.000000,0.000000
1782117464.327307,1963419,0.893555,-0.043945,-0.395508,5.792683,16.646341,3.170732,16.543751,-36.275002,4.606250,0.0,1.000000,0.000000,0.000000,0.000000
1782117464.338307,1963430,0.909180,-0.009277,-0.374512,-0.243902,14.451220,6.097561,16.543751,-36.275002,4.606250,0.0,1.000000,0.000000,0.000000,0.000000
1782117464.347307,1963439,0.909180,-0.009277,-0.374512,-0.243902,14.451220,6.097561,16.475000,-36.187500,4.756250,0.0,1.000000,0.000000,0.000000,0.000000
1782117464.357307,1963449,0.916504,-0.015137,-0.363770,-2.500000,13.170732,6.524390,16.475000,-36.187500,4.756250,0.0,1.000000,0.000000,0.000000,0.000000
1782117464.367307,1963459,0.919922,-0.030273,-0.351562,-4.939024,11.341464,7.500000,16.331251,-36.306252,5.037500,0.0,1.000000,0.000000,0.000000,0.000000
1782117464.378307,1963470,0.923340,-0.050781,-0.345215,-7.560976,7.012195,9.634147,16.331251,-36.306252,5.037500,0.0,1.000000,0.000000,0.000000,0.000000
1782117464.388307,1963480,0.923340,-0.050781,-0.345215,-7.560976,7.012195,9.634147,16.287500,-36.181252,5.062500,0.0,1.000000,0.000000,0.000000,0.000000
1782117464.398307,1963490,0.916504,-0.057129,-0.354492,-7.926829,5.426829,9.634147,16.287500,-36.181252,5.062500,0.0,1.000000,0.000000,0.000000,0.000000
1782117464.408307,1963500,0.908691,-0.059570,-0.355957,-7.378049,4.024390,8.902439,15.987500,-36.556252,5.350000,0.0,1.000000,0.000000,0.000000,0.000000
1782117464.418307,1963510,0.887695,-0.065430,-0.331543,-4.085366,1.524390,6.219512,15.987500,-36.556252,5.350000,0.0,1.000000,0.000000,0.000000,0.000000
1782117464.427307,1963519,0.887695,-0.065430,-0.331543,-4.085366,1.524390,6.219512,15.831250,-36.543751,5.418750,0.0,1.000000,0.000000,0.000000,0.000000
1782117464.438307,1963530,0.898926,-0.075195,-0.314941,-0.914634,-1.707317,3.963415,15.831250,-36.543751,5.418750,0.0,1.000000,0.000000,0.000000,0.000000
1782117464.447307,1963539,0.950195,-0.115234,-0.288086,6.768293,-3.536585,-0.731707,15.712501,-36.700001,5.431250,0.0,1.000000,0.000000,0.000000,0.000000
1782117464.458307,1963550,0.973633,-0.136719,-0.289551,11.646341,-2.378049,-3.109756,15.712501,-36.700001,5.431250,0.0,1.000000,0.000000,0.000000,0.000000
1782117464.467307,1963559,0.983398,-0.141113,-0.288086,16.158537,-1.585366,-4.268293,15.743751,-36.650002,5.293750,0.0,1.000000,0.000000,0.000000,0.000000
1782117464.477307,1963569,0.985840,-0.122070,-0.283203,19.817074,-0.304878,-4.817073,15.743751,-36.650002,5.293750,0.0,1.000000,0.000000,0.000000,0.000000
1782117464.487307,1963579,0.974609,-0.095215,-0.274414,22.682928,0.487805,-5.365854,15.650001,-36.737499,5.250000,0.0,1.000000,0.000000,0.000000,0.000000
1782117464.501307,1963593,0.961914,-0.070312,-0.262207,25.060976,0.853659,-5.975610,15.681251,-36.656250,5.031250,0.0,1.000000,0.000000,0.000000,0.000000
1782117464.508307,1963600,0.952637,-0.056152,-0.250977,26.280489,0.000000,-6.097561,15.681251,-36.656250,5.031250,0.0,1.000000,0.000000,0.000000,0.000000
1782117464.517307,1963609,0.959473,-0.049805,-0.242676,27.073172,-1.768293,-5.914634,15.681251,-36.656250,5.031250,0.0,1.000000,0.000000,0.000000,0.000000
1782117464.527307,1963619,0.986328,-0.048828,-0.236328,27.926830,-2.926829,-5.426829,15.706250,-36.737499,4.825000,0.0,1.000000,0.000000,0.000000,0.000000
1782117464.540307,1963632,1.016602,-0.054199,-0.222168,28.902439,-2.987805,-5.182927,15.706250,-36.737499,4.825000,0.0,1.000000,0.000000,0.000000,0.000000
1782117464.547307,1963639,1.036133,-0.057617,-0.204102,30.182928,-1.280488,-4.329268,15.762500,-36.606251,4.550000,0.0,1.000000,0.000000,0.000000,0.000000
1782117464.558307,1963650,1.032715,-0.054199,-0.183594,30.670732,1.585366,-3.109756,15.762500,-36.606251,4.550000,0.0,1.000000,0.000000,0.000000,0.000000
1782117464.568307,1963660,1.002441,-0.039551,-0.168457,28.292683,3.109756,-1.524390,15.706250,-36.693752,4.350000,0.0,1.000000,0.000000,0.000000,0.000000
1782117464.579307,1963671,0.981934,-0.017090,-0.152344,23.963415,2.256098,-0.670732,15.706250,-36.693752,4.350000,0.0,1.000000,0.000000,0.000000,0.000000
1782117464.587307,1963679,0.978027,-0.000977,-0.143066,18.658537,0.914634,-0.243902,15.800000,-36.368752,4.037500,0.0,1.000000,0.000000,0.000000,0.000000
1782117464.597307,1963689,0.979980,0.006836,-0.138184,12.926829,-0.121951,0.060976,15.800000,-36.368752,4.037500,0.0,1.000000,0.000000,0.000000,0.000000
1782117464.607307,1963699,0.987793,-0.005859,-0.131348,7.256098,-1.646341,0.243902,15.662500,-36.668751,4.068750,0.0,1.000000,0.000000,0.000000,0.000000
1782117464.619307,1963711,0.995605,-0.021973,-0.128418,2.804878,-2.621951,0.000000,15.662500,-36.668751,4.068750,0.0,1.000000,0.000000,0.000000,0.000000
1782117464.629307,1963721,1.007812,-0.039551,-0.131836,-0.182927,-3.414634,-0.975610,15.681251,-36.612499,4.000000,0.0,1.000000,0.000000,0.000000,0.000000
1782117464.637307,1963729,1.021484,-0.058594,-0.132324,-1.463415,-3.536585,-1.707317,15.681251,-36.612499,4.000000,0.0,1.000000,0.000000,0.000000,0.000000
1782117464.647307,1963739,1.023438,-0.064941,-0.135742,-1.951220,-2.621951,-1.829268,15.781250,-36.531250,3.900000,0.0,1.000000,0.000000,0.000000,0.000000
1782117464.662307,1963754,1.008789,-0.069336,-0.139160,-3.353659,-2.439024,-1.158537,15.737500,-36.568752,3.887500,0.0,1.000000,0.000000,0.000000,0.000000
1782117464.668307,1963760,1.002930,-0.073242,-0.146973,-4.512195,-3.353659,-0.731707,15.737500,-36.568752,3.887500,0.0,1.000000,0.000000,0.000000,0.000000
1782117464.677307,1963769,1.000977,-0.070312,-0.161621,-4.756098,-4.207317,-1.097561,15.737500,-36.568752,3.887500,0.0,1.000000,0.000000,0.000000,0.000000
1782117464.687307,1963779,1.000488,-0.074219,-0.174805,-4.085366,-4.146341,-2.317073,15.856250,-36.468750,3.812500,0.0,1.000000,0.000000,0.000000,0.000000
1782117464.699307,1963791,1.000977,-0.083984,-0.179199,-2.743902,-3.414634,-3.902439,15.856250,-36.468750,3.812500,0.0,1.000000,0.000000,0.000000,0.000000
1782117464.707307,1963799,0.998535,-0.101562,-0.192871,-1.341463,-2.804878,-4.512195,15.931251,-36.306252,3.756250,0.0,1.000000,0.000000,0.000000,0.000000
1782117464.717307,1963809,1.009277,-0.104492,-0.208496,0.670732,-3.414634,-4.329268,15.931251,-36.306252,3.756250,0.0,1.000000,0.000000,0.000000,0.000000
1782117464.727307,1963819,0.998047,-0.085449,-0.223145,2.560976,-3.048780,-5.243903,15.843750,-36.549999,3.818750,0.0,1.000000,0.000000,0.000000,0.000000
1782117464.739307,1963831,0.998047,-0.066895,-0.228027,3.597561,-4.268293,-6.341464,15.843750,-36.549999,3.818750,0.0,1.000000,0.000000,0.000000,0.000000
1782117464.747307,1963839,0.995605,-0.056641,-0.226562,4.878049,-3.414634,-7.500000,15.931251,-36.493752,3.756250,0.0,1.000000,0.000000,0.000000,0.000000
1782117464.757307,1963849,0.987793,-0.047852,-0.229492,5.060976,-3.292683,-8.170732,15.931251,-36.493752,3.756250,0.0,1.000000,0.000000,0.000000,0.000000
1782117464.767307,1963859,0.989258,-0.036621,-0.231934,3.231707,-3.658537,-7.926829,16.037500,-36.500000,3.718750,0.0,1.000000,0.000000,0.000000,0.000000
1782117464.778307,1963870,0.993164,-0.017578,-0.237305,0.548781,-2.926829,-7.743903,16.037500,-36.500000,3.718750,0.0,1.000000,0.000000,0.000000,0.000000
1782117464.787307,1963879,0.983887,-0.003906,-0.248535,-2.560976,-1.951220,-7.012195,16.131250,-36.424999,3.731250,0.0,1.000000,0.000000,0.000000,0.000000
1782117464.798307,1963890,0.966309,-0.005371,-0.250977,-5.487805,-2.012195,-5.670732,16.131250,-36.424999,3.731250,0.0,1.000000,0.000000,0.000000,0.000000
1782117464.807307,1963899,0.961914,-0.008789,-0.249512,-8.109756,-2.743902,-4.268293,16.243750,-36.356251,3.712500,0.0,1.000000,0.000000,0.000000,0.000000
1782117464.820307,1963912,0.967773,-0.008301,-0.254883,-10.670732,-3.353659,-2.926829,16.293751,-36.268749,3.768750,0.0,1.000000,0.000000,0.000000,0.000000
1782117464.827307,1963919,0.976074,-0.010742,-0.270020,-12.743903,-3.658537,-2.134146,16.293751,-36.268749,3.768750,0.0,1.000000,0.000000,0.000000,0.000000
1782117464.838307,1963930,0.975098,-0.015137,-0.289062,-14.695123,-3.353659,-1.585366,16.293751,-36.268749,3.768750,0.0,1.000000,0.000000,0.000000,0.000000
1782117464.847307,1963939,0.959961,-0.018555,-0.294922,-16.829269,-2.804878,-0.853659,16.350000,-36.268749,3.800000,0.0,1.000000,0.000000,0.000000,0.000000
1782117464.860307,1963952,0.940918,-0.025879,-0.295410,-19.390244,-2.682927,-0.182927,16.350000,-36.268749,3.800000,0.0,1.000000,0.000000,0.000000,0.000000
1782117464.867307,1963959,0.932129,-0.038574,-0.305664,-21.707317,-3.536585,0.000000,16.412500,-36.243752,3.925000,0.0,1.000000,0.000000,0.000000,0.000000
1782117464.878307,1963970,0.948242,-0.050293,-0.318359,-22.743902,-4.085366,-0.060976,16.412500,-36.243752,3.925000,0.0,1.000000,0.000000,0.000000,0.000000
1782117464.887307,1963979,0.969727,-0.062012,-0.329590,-21.829269,-3.597561,0.000000,16.568750,-36.112499,3.900000,0.0,1.000000,0.000000,0.000000,0.000000
1782117464.901307,1963993,0.969727,-0.059082,-0.334473,-19.817074,-1.341463,0.548781,16.525000,-36.237499,4.168750,0.0,1.000000,0.000000,0.000000,0.000000
1782117464.907307,1963999,0.943359,-0.047852,-0.343750,-18.170732,0.975610,0.975610,16.525000,-36.237499,4.168750,0.0,1.000000,0.000000,0.000000,0.000000
1782117464.917307,1964009,0.919434,-0.042969,-0.344727,-17.317074,0.487805,1.463415,16.525000,-36.237499,4.168750,0.0,1.000000,0.000000,0.000000,0.000000
1782117464.927307,1964019,0.907227,-0.039062,-0.344238,-17.439024,-1.585366,1.280488,16.800001,-35.693752,3.881250,0.0,1.000000,0.000000,0.000000,0.000000
1782117464.940307,1964032,0.904297,-0.035645,-0.344238,-17.682928,-3.231707,0.426829,16.581251,-36.137501,4.337500,0.0,1.000000,0.000000,0.000000,0.000000
1782117464.948307,1964040,0.930664,-0.033691,-0.342285,-18.231709,-4.939024,-0.792683,16.581251,-36.137501,4.337500,0.0,1.000000,0.000000,0.000000,0.000000
1782117464.958307,1964050,0.947266,-0.037109,-0.346680,-18.780489,-4.329268,-0.609756,16.812500,-35.799999,4.206250,0.0,1.000000,0.000000,0.000000,0.000000
1782117464.968307,1964060,0.956055,-0.037109,-0.347656,-19.085367,-2.804878,-0.914634,16.812500,-35.799999,4.206250,0.0,1.000000,0.000000,0.000000,0.000000
1782117464.978307,1964070,0.968262,-0.034668,-0.354980,-18.536585,-2.012195,-1.036585,16.662500,-36.068752,4.437500,0.0,1.000000,0.000000,0.000000,0.000000
1782117464.988307,1964080,0.983398,-0.034668,-0.348633,-17.500000,-0.365854,0.487805,16.662500,-36.068752,4.437500,0.0,1.000000,0.000000,0.000000,0.000000
1782117464.997307,1964089,0.953613,-0.035645,-0.341797,-16.585365,1.463415,1.829268,16.662500,-36.068752,4.437500,0.0,1.000000,0.000000,0.000000,0.000000
1782117465.008307,1964100,0.922852,-0.029297,-0.331543,-16.707317,0.548781,2.195122,16.775000,-35.962502,4.562500,0.0,1.000000,0.000000,0.000000,0.000000
1782117465.017307,1964109,0.935547,-0.023438,-0.320312,-17.073172,-2.317073,2.743902,16.775000,-35.962502,4.562500,0.0,1.000000,0.000000,0.000000,0.000000
1782117465.027307,1964119,0.960449,-0.017090,-0.322266,-17.743902,-2.987805,3.048780,16.600000,-36.112499,4.681250,0.0,1.000000,0.000000,0.000000,0.000000
1782117465.037307,1964129,0.996094,-0.009277,-0.322754,-19.634148,-1.097561,5.548780,16.718750,-35.962502,4.656250,0.0,1.000000,0.000000,0.000000,0.000000
1782117465.047307,1964139,0.965332,-0.006348,-0.317383,-21.890244,3.170732,7.621952,16.718750,-35.962502,4.656250,0.0,1.000000,0.000000,0.000000,0.000000
1782117465.057307,1964149,0.922852,-0.008789,-0.306152,-22.743902,2.804878,6.524390,16.612501,-35.918751,4.843750,0.0,1.000000,0.000000,0.000000,0.000000
1782117465.067307,1964159,0.919434,-0.020996,-0.302734,-23.353659,-0.426829,5.609756,16.612501,-35.918751,4.843750,0.0,1.000000,0.000000,0.000000,0.000000
1782117465.077307,1964169,0.946289,-0.033691,-0.310547,-23.170732,-3.292683,5.243903,16.487501,-36.093750,5.006250,0.0,1.000000,0.000000,0.000000,0.000000
1782117465.087307,1964179,0.979980,-0.037109,-0.317383,-22.134148,-2.621951,6.890244,16.487501,-36.093750,5.006250,0.0,1.000000,0.000000,0.000000,0.000000
1782117465.097307,1964189,0.973145,-0.024414,-0.317871,-21.097561,1.890244,8.414635,16.437500,-36.156250,5.112500,0.0,1.000000,0.000000,0.000000,0.000000
1782117465.107307,1964199,0.921387,-0.019531,-0.320801,-21.036587,4.390244,7.987805,16.437500,-36.156250,5.112500,0.0,1.000000,0.000000,0.000000,0.000000
1782117465.117307,1964209,0.899902,-0.020996,-0.319336,-21.524391,2.500000,7.195122,16.431250,-35.962502,5.131250,0.0,1.000000,0.000000,0.000000,0.000000
1782117465.127307,1964219,0.903320,-0.027832,-0.325195,-21.219513,-0.975610,6.158537,16.431250,-35.962502,5.131250,0.0,1.000000,0.000000,0.000000,0.000000
1782117465.137307,1964229,0.925293,-0.031738,-0.332031,-21.097561,-3.353659,5.121951,16.250000,-36.268749,5.393750,0.0,1.000000,0.000000,0.000000,0.000000
1782117465.147307,1964239,0.925293,-0.044434,-0.339844,-20.792683,-2.987805,5.243903,16.250000,-36.268749,5.393750,0.0,1.000000,0.000000,0.000000,0.000000
1782117465.157307,1964249,0.915527,-0.041504,-0.347168,-19.756098,-2.743902,5.304878,16.200001,-36.187500,5.418750,0.0,1.000000,0.000000,0.000000,0.000000
1782117465.167307,1964259,0.917969,-0.027832,-0.355957,-18.963415,-4.268293,4.817073,16.200001,-36.187500,5.418750,0.0,1.000000,0.000000,0.000000,0.000000
1782117465.177307,1964269,0.954590,-0.024414,-0.340820,-19.695122,-3.048780,8.475610,16.125000,-36.237499,5.475000,0.0,1.000000,0.000000,0.000000,0.000000
1782117465.187307,1964279,0.879395,-0.008301,-0.344727,-19.756098,-0.426829,4.207317,16.125000,-36.237499,5.475000,0.0,1.000000,0.000000,0.000000,0.000000
1782117465.198307,1964290,0.878906,-0.022461,-0.338379,-19.817074,-7.012195,1.585366,16.156250,-36.200001,5.506250,0.0,1.000000,0.000000,0.000000,0.000000
1782117465.207307,1964299,0.925293,-0.033691,-0.346191,-20.731709,-10.000000,2.987805,16.156250,-36.200001,5.506250,0.0,1.000000,0.000000,0.000000,0.000000
1782117465.218307,1964310,0.927734,-0.026367,-0.347168,-21.219513,-7.500000,2.865854,16.031250,-36.331249,5.543750,0.0,1.000000,0.000000,0.000000,0.000000
1782117465.227307,1964319,0.918457,-0.021484,-0.344238,-22.256098,-6.951220,2.378049,16.031250,-36.331249,5.543750,0.0,1.000000,0.000000,0.000000,0.000000
1782117465.237307,1964329,0.917969,-0.028809,-0.342773,-23.353659,-7.682927,2.804878,16.062500,-36.268749,5.543750,0.0,1.000000,0.000000,0.000000,0.000000
1782117465.247307,1964339,0.916016,-0.039551,-0.350098,-24.268293,-8.475610,3.414634,16.062500,-36.268749,5.543750,0.0,1.000000,0.000000,0.000000,0.000000
1782117465.257307,1964349,0.913574,-0.044434,-0.356934,-24.207317,-9.756098,3.353659,15.912500,-36.387501,5.518750,0.0,1.000000,0.000000,0.000000,0.000000
1782117465.267307,1964359,0.924316,-0.046387,-0.366211,-23.536587,-11.158537,2.804878,15.912500,-36.387501,5.518750,0.0,1.000000,0.000000,0.000000,0.000000
1782117465.277307,1964369,0.937012,-0.046387,-0.380371,-22.926830,-11.463415,2.560976,15.931251,-36.337502,5.462500,0.0,1.000000,0.000000,0.000000,0.000000
1782117465.287307,1964379,0.938477,-0.042480,-0.385742,-21.341463,-10.243902,1.646341,15.931251,-36.337502,5.462500,0.0,1.000000,0.000000,0.000000,0.000000
1782117465.297307,1964389,0.936523,-0.045410,-0.390625,-19.146341,-9.268292,0.426829,15.837501,-36.418751,5.406250,0.0,1.000000,0.000000,0.000000,0.000000
1782117465.309307,1964401,0.944336,-0.059082,-0.408691,-11.829268,-8.597561,-1.036585,15.837501,-36.418751,5.406250,0.0,1.000000,0.000000,0.000000,0.000000
1782117465.317307,1964409,0.944336,-0.059082,-0.408691,-11.829268,-8.597561,-1.036585,15.775001,-36.468750,5.418750,0.0,1.000000,0.000000,0.000000,0.000000
1782117465.327307,1964419,0.935059,-0.049316,-0.419434,-7.987805,-7.012195,-0.792683,15.775001,-36.468750,5.418750,0.0,1.000000,0.000000,0.000000,0.000000
1782117465.338307,1964430,0.919922,-0.045898,-0.428223,-5.121951,-6.524390,-0.792683,15.825000,-36.400002,5.262500,0.0,1.000000,0.000000,0.000000,0.000000
1782117465.347307,1964439,0.919434,-0.054688,-0.423340,3.475610,-5.548780,-2.621951,15.825000,-36.400002,5.262500,0.0,1.000000,0.000000,0.000000,0.000000
1782117465.357307,1964449,0.937500,-0.074707,-0.416992,8.963415,-5.487805,-3.536585,15.900001,-36.250000,5.112500,0.0,1.000000,0.000000,0.000000,0.000000
1782117465.368307,1964460,0.954102,-0.100098,-0.411621,14.390244,-3.109756,-4.451220,15.900001,-36.250000,5.112500,0.0,1.000000,0.000000,0.000000,0.000000
1782117465.377307,1964469,0.910645,-0.108398,-0.408203,18.353659,-0.670732,-3.902439,15.806251,-36.375000,5.006250,0.0,1.000000,0.000000,0.000000,0.000000
1782117465.388307,1964480,0.871094,-0.078125,-0.417480,19.817074,-2.500000,-2.256098,15.806251,-36.375000,5.006250,0.0,1.000000,0.000000,0.000000,0.000000
1782117465.398307,1964490,0.864746,-0.008301,-0.434082,17.500000,-5.060976,-1.524390,15.800000,-36.218750,4.712500,0.0,1.000000,0.000000,0.000000,0.000000
1782117465.407307,1964499,0.914551,0.027344,-0.437988,11.585366,-4.573171,5.000000,15.800000,-36.218750,4.712500,0.0,1.000000,0.000000,0.000000,0.000000
1782117465.418307,1964510,0.830078,0.077148,-0.451660,8.963415,-4.512195,-0.670732,15.750000,-36.406250,4.637500,0.0,1.000000,0.000000,0.000000,0.000000
1782117465.427307,1964519,0.846680,0.057129,-0.439941,6.158537,-13.292684,-2.926829,15.750000,-36.406250,4.637500,0.0,1.000000,0.000000,0.000000,0.000000
1782117465.437307,1964529,0.922852,0.043457,-0.437500,4.939024,-16.524391,-3.475610,15.775001,-36.281250,4.325000,0.0,1.000000,0.000000,0.000000,0.000000
1782117465.449307,1964541,0.938477,0.045410,-0.435547,2.682927,-13.536586,-2.865854,15.775001,-36.281250,4.325000,0.0,1.000000,0.000000,0.000000,0.000000
1782117465.457307,1964549,0.905273,0.060059,-0.433594,1.036585,-12.560976,-3.719512,15.768750,-36.312500,4.137500,0.0,1.000000,0.000000,0.000000,0.000000
1782117465.467307,1964559,0.891602,0.069336,-0.429688,-0.670732,-13.414635,-4.695122,15.768750,-36.312500,4.137500,0.0,1.000000,0.000000,0.000000,0.000000
1782117465.477307,1964569,0.899902,0.071289,-0.429688,-1.890244,-13.658537,-5.000000,15.862500,-36.212502,3.862500,0.0,1.000000,0.000000,0.000000,0.000000
1782117465.487307,1964579,0.899902,0.054199,-0.430176,-2.378049,-12.560976,-5.243903,15.862500,-36.212502,3.862500,0.0,1.000000,0.000000,0.000000,0.000000
1782117465.497307,1964589,0.894043,0.016113,-0.431641,-2.256098,-12.865854,-5.670732,15.862500,-36.256252,3.737500,0.0,1.000000,0.000000,0.000000,0.000000
1782117465.507307,1964599,0.900879,-0.020996,-0.435059,-1.097561,-13.719513,-5.731708,15.862500,-36.256252,3.737500,0.0,1.000000,0.000000,0.000000,0.000000
1782117465.517307,1964609,0.914551,-0.048340,-0.440430,1.341463,-13.353659,-5.609756,16.018751,-36.049999,3.475000,0.0,1.000000,0.000000,0.000000,0.000000
1782117465.527307,1964619,0.915039,-0.052246,-0.448242,4.146341,-11.951220,-5.609756,16.018751,-36.049999,3.475000,0.0,1.000000,0.000000,0.000000,0.000000
1782117465.538307,1964630,0.908203,-0.040039,-0.455566,6.341464,-11.341464,-5.487805,15.956250,-36.212502,3.325000,0.0,1.000000,0.000000,0.000000,0.000000
1782117465.547307,1964639,0.904297,-0.024902,-0.460938,7.560976,-11.280488,-5.060976,15.956250,-36.212502,3.325000,0.0,1.000000,0.000000,0.000000,0.000000
1782117465.557307,1964649,0.902344,-0.013672,-0.459961,7.865854,-11.280488,-4.390244,16.112501,-36.000000,3.087500,0.0,1.000000,0.000000,0.000000,0.000000
1782117465.567307,1964659,0.900391,-0.001465,-0.444336,6.768293,-10.975610,-3.719512,16.112501,-36.000000,3.087500,0.0,1.000000,0.000000,0.000000,0.000000
1782117465.578307,1964670,0.902832,0.013184,-0.430176,4.817073,-9.878049,-3.170732,16.050001,-36.106251,2.943750,0.0,1.000000,0.000000,0.000000,0.000000
1782117465.587307,1964679,0.898438,0.023926,-0.423340,2.987805,-8.902439,-3.048780,16.050001,-36.106251,2.943750,0.0,1.000000,0.000000,0.000000,0.000000
1782117465.597307,1964689,0.902344,0.032227,-0.422363,1.707317,-8.658537,-3.170732,16.156250,-35.993752,2.612500,0.0,1.000000,0.000000,0.000000,0.000000
1782117465.608307,1964700,0.908203,0.040039,-0.426270,0.670732,-8.475610,-3.414634,16.156250,-35.993752,2.612500,0.0,1.000000,0.000000,0.000000,0.000000
1782117465.618307,1964710,0.914062,0.036621,-0.429199,0.121951,-8.109756,-3.658537,16.043751,-36.162502,2.706250,0.0,1.000000,0.000000,0.000000,0.000000
1782117465.628307,1964720,0.914551,0.022949,-0.433594,0.000000,-7.500000,-3.719512,16.043751,-36.162502,2.706250,0.0,1.000000,0.000000,0.000000,0.000000
1782117465.638307,1964730,0.909668,0.006348,-0.436523,-0.060976,-7.134147,-3.353659,16.200001,-35.931252,2.418750,0.0,1.000000,0.000000,0.000000,0.000000
1782117465.647307,1964739,0.910645,-0.006348,-0.442383,-0.304878,-6.890244,-2.987805,16.200001,-35.931252,2.418750,0.0,1.000000,0.000000,0.000000,0.000000
1782117465.657307,1964749,0.907227,-0.016113,-0.443848,-0.182927,-6.036585,-2.560976,16.137501,-36.100002,2.468750,0.0,1.000000,0.000000,0.000000,0.000000
1782117465.667307,1964759,0.896484,-0.017578,-0.443848,-0.182927,-5.670732,-2.256098,16.137501,-36.100002,2.468750,0.0,1.000000,0.000000,0.000000,0.000000
1782117465.677307,1964769,0.900391,-0.018066,-0.441895,0.121951,-5.609756,-2.134146,16.250000,-35.987499,2.350000,0.0,1.000000,0.000000,0.000000,0.000000
1782117465.687307,1964779,0.903809,-0.017090,-0.431641,0.731707,-4.939024,-2.256098,16.250000,-35.987499,2.350000,0.0,1.000000,0.000000,0.000000,0.000000
1782117465.697307,1964789,0.898926,-0.007812,-0.419434,1.036585,-4.085366,-2.256098,16.356251,-35.806252,2.150000,0.0,1.000000,0.000000,0.000000,0.000000
1782117465.708307,1964800,0.895996,0.000000,-0.418457,0.853659,-4.024390,-2.560976,16.356251,-35.806252,2.150000,0.0,1.000000,0.000000,0.000000,0.000000
1782117465.717307,1964809,0.900879,0.008301,-0.417969,0.182927,-4.146341,-2.743902,16.218750,-36.068752,2.268750,0.0,1.000000,0.000000,0.000000,0.000000
1782117465.728307,1964820,0.904297,0.012207,-0.418945,-0.548781,-3.475610,-2.682927,16.218750,-36.068752,2.268750,0.0,1.000000,0.000000,0.000000,0.000000
1782117465.737307,1964829,0.900879,0.011230,-0.417480,-0.548781,-3.292683,-2.621951,16.237501,-36.025002,2.243750,0.0,1.000000,0.000000,0.000000,0.000000
1782117465.747307,1964839,0.898438,0.004395,-0.418457,0.304878,-3.658537,-2.621951,16.237501,-36.025002,2.243750,0.0,1.000000,0.000000,0.000000,0.000000
1782117465.758307,1964850,0.907715,-0.001465,-0.416016,1.585366,-4.146341,-2.621951,16.512501,-35.743752,2.043750,0.0,1.000000,0.000000,0.000000,0.000000
1782117465.768307,1964860,0.915039,-0.003906,-0.413574,2.621951,-4.024390,-2.621951,16.512501,-35.743752,2.043750,0.0,1.000000,0.000000,0.000000,0.000000
1782117465.777307,1964869,0.917480,-0.000488,-0.411621,2.804878,-3.658537,-2.500000,16.443750,-35.881252,2.012500,0.0,1.000000,0.000000,0.000000,0.000000
1782117465.787307,1964879,0.914551,0.000977,-0.411621,2.804878,-3.292683,-2.621951,16.443750,-35.881252,2.012500,0.0,1.000000,0.000000,0.000000,0.000000
1782117465.797307,1964889,0.917480,0.000000,-0.411133,2.865854,-3.353659,-2.804878,16.412500,-36.025002,2.018750,0.0,1.000000,0.000000,0.000000,0.000000
1782117465.808307,1964900,0.921875,0.000488,-0.409180,2.743902,-3.170732,-2.865854,16.412500,-36.025002,2.018750,0.0,1.000000,0.000000,0.000000,0.000000
1782117465.817307,1964909,0.927246,0.001465,-0.407715,2.682927,-2.621951,-2.743902,16.437500,-35.962502,1.987500,0.0,1.000000,0.000000,0.000000,0.000000
1782117465.827307,1964919,0.930664,0.006836,-0.403809,2.560976,-2.134146,-2.500000,16.437500,-35.962502,1.987500,0.0,1.000000,0.000000,0.000000,0.000000
1782117465.837307,1964929,0.931641,0.008301,-0.400391,2.195122,-1.890244,-2.134146,16.431250,-35.912502,1.887500,0.0,1.000000,0.000000,0.000000,0.000000
1782117465.847307,1964939,0.931641,0.010742,-0.402344,1.646341,-2.134146,-1.768293,16.431250,-35.912502,1.887500,0.0,1.000000,0.000000,0.000000,0.000000
1782117465.858307,1964950,0.933594,0.007324,-0.399414,1.219512,-2.195122,-1.280488,16.487501,-35.993752,1.893750,0.0,1.000000,0.000000,0.000000,0.000000
1782117465.867307,1964959,0.925781,0.005371,-0.399902,0.365854,-2.256098,-0.548781,16.487501,-35.993752,1.893750,0.0,1.000000,0.000000,0.000000,0.000000
1782117465.877307,1964969,0.917480,0.004395,-0.402832,-0.365854,-2.621951,-0.243902,16.450001,-35.993752,1.862500,0.0,1.000000,0.000000,0.000000,0.000000
1782117465.887307,1964979,0.913574,0.001465,-0.407227,-0.792683,-2.865854,-0.182927,16.450001,-35.993752,1.862500,0.0,1.000000,0.000000,0.000000,0.000000
1782117465.897307,1964989,0.913086,0.001465,-0.412109,-1.463415,-2.987805,-0.121951,16.468750,-35.981251,1.818750,0.0,1.000000,0.000000,0.000000,0.000000
1782117465.908307,1965000,0.913086,0.002441,-0.413086,-1.890244,-2.743902,0.060976,16.468750,-35.981251,1.818750,0.0,1.000000,0.000000,0.000000,0.000000
1782117465.918307,1965010,0.909668,0.003418,-0.411133,-2.012195,-2.195122,0.121951,16.475000,-35.937500,1.762500,0.0,1.000000,0.000000,0.000000,0.000000
1782117465.927307,1965019,0.907227,0.002441,-0.407715,-2.073171,-2.012195,0.000000,16.475000,-35.937500,1.762500,0.0,1.000000,0.000000,0.000000,0.000000
1782117465.937307,1965029,0.907227,0.000000,-0.408691,-2.134146,-1.951220,0.060976,16.506250,-35.956249,1.743750,0.0,1.000000,0.000000,0.000000,0.000000
1782117465.948307,1965040,0.908691,0.000000,-0.409180,-1.951220,-2.317073,0.000000,16.506250,-35.956249,1.743750,0.0,1.000000,0.000000,0.000000,0.000000
1782117465.957307,1965049,0.911621,-0.001465,-0.405273,-2.012195,-2.195122,-0.060976,16.450001,-35.987499,1.781250,0.0,1.000000,0.000000,0.000000,0.000000
1782117465.967307,1965059,0.910645,-0.005371,-0.406250,-2.256098,-2.012195,-0.121951,16.450001,-35.987499,1.781250,0.0,1.000000,0.000000,0.000000,0.000000
1782117465.977307,1965069,0.909180,-0.009766,-0.410645,-2.317073,-2.073171,-0.182927,16.418751,-36.037502,1.781250,0.0,1.000000,0.000000,0.000000,0.000000
1782117465.989307,1965081,0.910156,-0.013184,-0.414062,-2.134146,-1.890244,-0.060976,16.418751,-36.037502,1.781250,0.0,1.000000,0.000000,0.000000,0.000000
1782117465.998307,1965090,0.909180,-0.008789,-0.416016,-2.073171,-1.768293,0.121951,16.462500,-35.975002,1.737500,0.0,1.000000,0.000000,0.000000,0.000000
1782117466.008307,1965100,0.910645,-0.006348,-0.415039,-1.829268,-1.890244,0.243902,16.462500,-35.975002,1.737500,0.0,1.000000,0.000000,0.000000,0.000000
1782117466.018307,1965110,0.914551,-0.007812,-0.414551,-1.646341,-1.890244,0.426829,16.418751,-36.031250,1.725000,0.0,1.000000,0.000000,0.000000,0.000000
1782117466.028307,1965120,0.918945,-0.005371,-0.412598,-1.829268,-1.890244,0.670732,16.418751,-36.031250,1.725000,0.0,1.000000,0.000000,0.000000,0.000000
1782117466.037307,1965129,0.919434,-0.001465,-0.409180,-1.890244,-1.402439,0.792683,16.481251,-36.000000,1.706250,0.0,1.000000,0.000000,0.000000,0.000000
1782117466.047307,1965139,0.914551,0.000977,-0.408203,-2.012195,-1.158537,0.853659,16.481251,-36.000000,1.706250,0.0,1.000000,0.000000,0.000000,0.000000
1782117466.057307,1965149,0.911133,0.000488,-0.412109,-2.073171,-1.097561,0.792683,16.431250,-36.112499,1.750000,0.0,1.000000,0.000000,0.000000,0.000000
1782117466.067307,1965159,0.912109,0.001465,-0.421387,-2.256098,-1.219512,0.731707,16.431250,-36.112499,1.750000,0.0,1.000000,0.000000,0.000000,0.000000
1782117466.077307,1965169,0.912598,0.003418,-0.427734,-2.378049,-1.036585,0.853659,16.581251,-35.768749,1.518750,0.0,1.000000,0.000000,0.000000,0.000000
1782117466.087307,1965179,0.911133,0.000977,-0.431152,-2.195122,-0.670732,0.792683,16.581251,-35.768749,1.518750,0.0,1.000000,0.000000,0.000000,0.000000
1782117466.097307,1965189,0.906738,-0.000488,-0.431641,-1.890244,-0.487805,0.853659,16.418751,-36.118752,1.712500,0.0,1.000000,0.000000,0.000000,0.000000
1782117466.108307,1965200,0.902344,-0.001953,-0.432129,-1.585366,-0.487805,0.792683,16.418751,-36.118752,1.712500,0.0,1.000000,0.000000,0.000000,0.000000
1782117466.117307,1965209,0.898926,-0.003418,-0.433594,-1.463415,-0.792683,0.670732,16.418751,-36.081249,1.712500,0.0,1.000000,0.000000,0.000000,0.000000
1782117466.128307,1965220,0.896973,-0.005859,-0.435547,-1.280488,-0.914634,0.609756,16.418751,-36.081249,1.712500,0.0,1.000000,0.000000,0.000000,0.000000
1782117466.137307,1965229,0.896484,-0.006836,-0.435547,-1.097561,-0.975610,0.426829,16.350000,-36.143749,1.725000,0.0,1.000000,0.000000,0.000000,0.000000
1782117466.149307,1965241,0.899414,-0.009766,-0.434082,-0.914634,-0.731707,0.243902,16.350000,-36.143749,1.725000,0.0,1.000000,0.000000,0.000000,0.000000
1782117466.158307,1965250,0.902344,-0.011719,-0.435547,-0.670732,-0.609756,0.182927,16.393751,-36.093750,1.712500,0.0,1.000000,0.000000,0.000000,0.000000
1782117466.168307,1965260,0.905273,-0.009766,-0.436035,-0.487805,-0.426829,0.182927,16.393751,-36.093750,1.712500,0.0,1.000000,0.000000,0.000000,0.000000
1782117466.177307,1965269,0.905273,-0.004883,-0.434570,-0.182927,-0.304878,0.182927,16.362501,-36.112499,1.781250,0.0,1.000000,0.000000,0.000000,0.000000
1782117466.190307,1965282,0.906250,-0.002930,-0.434082,0.000000,-0.243902,0.182927,16.356251,-36.137501,1.793750,0.0,1.000000,0.000000,0.000000,0.000000
1782117466.198307,1965290,0.903809,-0.003418,-0.432129,0.121951,-0.121951,0.243902,16.356251,-36.137501,1.793750,0.0,1.000000,0.000000,0.000000,0.000000
1782117466.207307,1965299,0.901367,-0.000977,-0.429199,0.182927,-0.060976,0.304878,16.356251,-36.137501,1.793750,0.0,1.000000,0.000000,0.000000,0.000000
1782117466.217307,1965309,0.898926,0.000977,-0.428711,0.121951,0.060976,0.304878,16.343750,-36.156250,1.756250,0.0,1.000000,0.000000,0.000000,0.000000
1782117466.230307,1965322,0.896973,0.002441,-0.433105,-0.121951,0.365854,0.182927,16.375000,-36.162502,1.781250,0.0,1.000000,0.000000,0.000000,0.000000
1782117466.237307,1965329,0.896484,0.000977,-0.440430,-0.487805,0.243902,0.304878,16.375000,-36.162502,1.781250,0.0,1.000000,0.000000,0.000000,0.000000
1782117466.247307,1965339,0.896484,0.000977,-0.440430,-0.487805,0.243902,0.304878,16.375000,-36.162502,1.781250,0.0,1.000000,0.000000,0.000000,0.000000
1782117466.257307,1965349,0.900391,-0.001953,-0.436523,-0.609756,0.243902,0.487805,16.500000,-35.887501,1.612500,0.0,1.000000,0.000000,0.000000,0.000000
1782117466.270307,1965362,0.899414,-0.007812,-0.432129,-1.097561,1.036585,0.670732,16.362501,-36.143749,1.743750,0.0,1.000000,0.000000,0.000000,0.000000
1782117466.277307,1965369,0.898926,-0.011230,-0.434570,-1.280488,0.914634,0.670732,16.362501,-36.143749,1.743750,0.0,1.000000,0.000000,0.000000,0.000000
1782117466.287307,1965379,0.900879,-0.007324,-0.439453,-1.524390,0.853659,0.731707,16.362501,-36.143749,1.743750,0.0,1.000000,0.000000,0.000000,0.000000
1782117466.297307,1965389,0.902832,-0.003418,-0.440918,-1.463415,0.975610,0.487805,16.375000,-36.162502,1.837500,0.0,1.000000,0.000000,0.000000,0.000000
1782117466.310307,1965402,0.903809,-0.005859,-0.438477,-1.097561,1.097561,0.304878,16.312500,-36.231251,1.862500,0.0,1.000000,0.000000,0.000000,0.000000
1782117466.317307,1965409,0.904297,-0.007324,-0.434082,-0.487805,1.097561,0.304878,16.312500,-36.231251,1.862500,0.0,1.000000,0.000000,0.000000,0.000000
1782117466.327307,1965419,0.906738,-0.006348,-0.429199,-0.060976,1.036585,0.304878,16.312500,-36.231251,1.862500,0.0,1.000000,0.000000,0.000000,0.000000
1782117466.337307,1965429,0.907227,-0.005371,-0.423340,0.243902,1.280488,0.243902,16.406250,-36.081249,1.787500,0.0,1.000000,0.000000,0.000000,0.000000
1782117466.350307,1965442,0.902344,-0.003418,-0.422852,0.182927,1.280488,0.182927,16.406250,-36.081249,1.787500,0.0,1.000000,0.000000,0.000000,0.000000
1782117466.358307,1965450,0.903320,-0.001953,-0.423340,0.182927,1.036585,0.121951,16.393751,-36.093750,1.831250,0.0,1.000000,0.000000,0.000000,0.000000
1782117466.367307,1965459,0.904297,-0.003418,-0.425293,0.121951,0.853659,0.000000,16.393751,-36.093750,1.831250,0.0,1.000000,0.000000,0.000000,0.000000
1782117466.378307,1965470,0.905273,-0.003906,-0.427246,-0.060976,0.914634,0.000000,16.362501,-36.137501,1.868750,0.0,1.000000,0.000000,0.000000,0.000000
1782117466.391307,1965483,0.907715,-0.003906,-0.429199,-0.060976,1.097561,-0.182927,16.356251,-36.162502,1.856250,0.0,1.000000,0.000000,0.000000,0.000000
1782117466.398307,1965490,0.908691,-0.007812,-0.427734,0.121951,1.097561,-0.121951,16.356251,-36.162502,1.856250,0.0,1.000000,0.000000,0.000000,0.000000
1782117466.407307,1965499,0.912109,-0.006348,-0.425781,0.121951,1.036585,0.000000,16.356251,-36.162502,1.856250,0.0,1.000000,0.000000,0.000000,0.000000
1782117466.417307,1965509,0.916016,-0.001465,-0.421387,0.243902,1.524390,-0.121951,16.318750,-36.174999,1.975000,0.0,1.000000,0.000000,0.000000,0.000000
1782117466.427307,1965519,0.915039,-0.004883,-0.419434,0.548781,1.890244,-0.243902,16.318750,-36.174999,1.975000,0.0,1.000000,0.000000,0.000000,0.000000
1782117466.437307,1965529,0.911133,-0.006348,-0.419922,0.487805,2.073171,-0.243902,16.287500,-36.231251,1.968750,0.0,1.000000,0.000000,0.000000,0.000000
1782117466.447307,1965539,0.907715,-0.002441,-0.421875,0.548781,2.012195,-0.121951,16.287500,-36.231251,1.968750,0.0,1.000000,0.000000,0.000000,0.000000
1782117466.457307,1965549,0.907715,-0.001465,-0.420898,0.487805,1.829268,0.000000,16.387501,-36.156250,1.937500,0.0,1.000000,0.000000,0.000000,0.000000
1782117466.471307,1965563,0.907715,0.001465,-0.423340,0.121951,1.707317,0.060976,16.318750,-36.206249,2.100000,0.0,1.000000,0.000000,0.000000,0.000000
1782117466.477307,1965569,0.908691,0.003906,-0.423340,-0.121951,1.890244,0.060976,16.318750,-36.206249,2.100000,0.0,1.000000,0.000000,0.000000,0.000000
1782117466.488307,1965580,0.908691,0.000488,-0.421875,0.000000,1.829268,0.182927,16.318750,-36.206249,2.100000,0.0,1.000000,0.000000,0.000000,0.000000
1782117466.497307,1965589,0.908691,-0.001465,-0.419434,-0.060976,1.768293,0.365854,16.331251,-36.174999,2.018750,0.0,1.000000,0.000000,0.000000,0.000000
1782117466.510307,1965602,0.908203,-0.000488,-0.416504,-0.304878,1.829268,0.365854,16.356251,-36.193752,2.087500,0.0,1.000000,0.000000,0.000000,0.000000
1782117466.517307,1965609,0.906250,-0.002441,-0.417480,-0.670732,1.951220,0.426829,16.356251,-36.193752,2.087500,0.0,1.000000,0.000000,0.000000,0.000000
1782117466.527307,1965619,0.906250,-0.006348,-0.416504,-0.975610,2.012195,0.487805,16.356251,-36.193752,2.087500,0.0,1.000000,0.000000,0.000000,0.000000
1782117466.539307,1965631,0.904785,-0.005859,-0.416016,-1.158537,2.134146,0.487805,16.393751,-36.193752,2.118750,0.0,1.000000,0.000000,0.000000,0.000000
1782117466.551307,1965643,0.902832,-0.009277,-0.414551,-1.036585,2.073171,0.304878,16.362501,-36.150002,2.125000,0.0,1.000000,0.000000,0.000000,0.000000
1782117466.558307,1965650,0.904297,-0.015137,-0.414551,-0.792683,1.890244,0.304878,16.362501,-36.150002,2.125000,0.0,1.000000,0.000000,0.000000,0.000000
1782117466.567307,1965659,0.908203,-0.017090,-0.412598,-0.670732,1.768293,0.304878,16.362501,-36.150002,2.125000,0.0,1.000000,0.000000,0.000000,0.000000
1782117466.577307,1965669,0.911133,-0.019531,-0.414551,-0.487805,1.646341,0.182927,16.312500,-36.243752,2.193750,0.0,1.000000,0.000000,0.000000,0.000000
1782117466.589307,1965681,0.914062,-0.020020,-0.415039,-0.304878,1.768293,0.182927,16.312500,-36.243752,2.193750,0.0,1.000000,0.000000,0.000000,0.000000
1782117466.597307,1965689,0.915039,-0.018066,-0.413574,0.000000,1.707317,0.121951,16.331251,-36.193752,2.268750,0.0,1.000000,0.000000,0.000000,0.000000
1782117466.607307,1965699,0.913574,-0.017578,-0.410156,0.304878,1.768293,0.182927,16.331251,-36.193752,2.268750,0.0,1.000000,0.000000,0.000000,0.000000
1782117466.617307,1965709,0.913574,-0.016113,-0.406738,0.426829,1.890244,0.182927,16.325001,-36.212502,2.275000,0.0,1.000000,0.000000,0.000000,0.000000
1782117466.630307,1965722,0.910645,-0.010254,-0.403809,0.365854,1.890244,0.121951,16.343750,-36.218750,2.268750,0.0,1.000000,0.000000,0.000000,0.000000
1782117466.637307,1965729,0.911621,-0.008301,-0.402344,0.304878,1.829268,0.060976,16.343750,-36.218750,2.268750,0.0,1.000000,0.000000,0.000000,0.000000
1782117466.647307,1965739,0.912598,-0.008301,-0.401855,0.365854,1.829268,-0.121951,16.406250,-36.100002,2.168750,0.0,1.000000,0.000000,0.000000,0.000000
1782117466.657307,1965749,0.916504,-0.011230,-0.399902,0.609756,2.012195,-0.182927,16.406250,-36.100002,2.168750,0.0,1.000000,0.000000,0.000000,0.000000
1782117466.669307,1965761,0.914062,-0.016113,-0.398926,0.975610,2.256098,-0.121951,16.368750,-36.200001,2.393750,0.0,1.000000,0.000000,0.000000,0.000000
1782117466.679307,1965771,0.915039,-0.019531,-0.400391,1.280488,2.317073,0.000000,16.368750,-36.200001,2.393750,0.0,1.000000,0.000000,0.000000,0.000000
1782117466.687307,1965779,0.918457,-0.018555,-0.399414,1.402439,2.439024,0.182927,16.481251,-36.006252,2.193750,0.0,1.000000,0.000000,0.000000,0.000000
1782117466.697307,1965789,0.919922,-0.016602,-0.395020,1.280488,2.743902,0.426829,16.481251,-36.006252,2.193750,0.0,1.000000,0.000000,0.000000,0.000000
1782117466.710307,1965802,0.920410,-0.013184,-0.392578,0.975610,2.987805,0.548781,16.331251,-36.287502,2.437500,0.0,1.000000,0.000000,0.000000,0.000000
1782117466.717307,1965809,0.921875,-0.012207,-0.392090,0.792683,3.353659,0.487805,16.331251,-36.287502,2.437500,0.0,1.000000,0.000000,0.000000,0.000000
1782117466.727307,1965819,0.922852,-0.009277,-0.395508,0.731707,3.292683,0.426829,16.331251,-36.218750,2.431250,0.0,1.000000,0.000000,0.000000,0.000000
1782117466.738307,1965830,0.923828,-0.004883,-0.401367,0.609756,3.109756,0.304878,16.331251,-36.218750,2.431250,0.0,1.000000,0.000000,0.000000,0.000000
1782117466.751307,1965843,0.919922,0.000000,-0.407715,0.182927,2.987805,0.304878,16.400000,-36.075001,2.381250,0.0,1.000000,0.000000,0.000000,0.000000
1782117466.758307,1965850,0.913574,0.004395,-0.411621,-0.060976,2.560976,0.304878,16.400000,-36.075001,2.381250,0.0,1.000000,0.000000,0.000000,0.000000
1782117466.768307,1965860,0.909668,0.004395,-0.409180,-0.304878,1.890244,0.304878,16.362501,-36.174999,2.487500,0.0,1.000000,0.000000,0.000000,0.000000
1782117466.777307,1965869,0.908691,0.002441,-0.408691,-0.609756,1.585366,0.243902,16.362501,-36.174999,2.487500,0.0,1.000000,0.000000,0.000000,0.000000
1782117466.787307,1965879,0.907227,0.002930,-0.408203,-0.670732,1.402439,0.182927,16.281250,-36.268749,2.550000,0.0,1.000000,0.000000,0.000000,0.000000
1782117466.798307,1965890,0.910156,-0.002930,-0.407227,-0.792683,1.219512,0.000000,16.281250,-36.268749,2.550000,0.0,1.000000,0.000000,0.000000,0.000000
1782117466.808307,1965900,0.910645,-0.006348,-0.410156,-1.097561,1.097561,-0.060976,16.331251,-36.156250,2.568750,0.0,1.000000,0.000000,0.000000,0.000000
1782117466.817307,1965909,0.915039,-0.007324,-0.413086,-1.097561,1.036585,-0.243902,16.331251,-36.156250,2.568750,0.0,1.000000,0.000000,0.000000,0.000000
1782117466.827307,1965919,0.916016,-0.010742,-0.411133,-0.731707,1.219512,-0.304878,16.306250,-36.225002,2.593750,0.0,1.000000,0.000000,0.000000,0.000000
1782117466.837307,1965929,0.912598,-0.011719,-0.411133,-0.487805,1.219512,-0.182927,16.306250,-36.225002,2.593750,0.0,1.000000,0.000000,0.000000,0.000000
1782117466.847307,1965939,0.911621,-0.011719,-0.410156,-0.060976,1.036585,-0.121951,16.312500,-36.156250,2.656250,0.0,1.000000,0.000000,0.000000,0.000000
1782117466.857307,1965949,0.914551,-0.009766,-0.403809,0.243902,0.853659,0.000000,16.312500,-36.156250,2.656250,0.0,1.000000,0.000000,0.000000,0.000000
1782117466.867307,1965959,0.915527,-0.011230,-0.398438,0.243902,0.792683,0.060976,16.350000,-36.287502,2.637500,0.0,1.000000,0.000000,0.000000,0.000000
1782117466.877307,1965969,0.916992,-0.006836,-0.396484,0.000000,0.853659,0.060976,16.350000,-36.287502,2.637500,0.0,1.000000,0.000000,0.000000,0.000000
1782117466.888307,1965980,0.916504,-0.007812,-0.395996,-0.243902,0.853659,-0.060976,16.368750,-36.200001,2.712500,0.0,1.000000,0.000000,0.000000,0.000000
1782117466.897307,1965989,0.916504,-0.008301,-0.399414,-0.365854,0.853659,0.000000,16.368750,-36.200001,2.712500,0.0,1.000000,0.000000,0.000000,0.000000
1782117466.907307,1965999,0.918457,-0.007812,-0.401367,-0.243902,0.670732,-0.060976,16.437500,-36.037502,2.562500,0.0,1.000000,0.000000,0.000000,0.000000
1782117466.917307,1966009,0.920898,-0.008789,-0.401367,-0.121951,0.731707,-0.121951,16.437500,-36.037502,2.562500,0.0,1.000000,0.000000,0.000000,0.000000
1782117466.928307,1966020,0.921875,-0.005859,-0.400879,-0.304878,0.731707,0.000000,16.412500,-36.143749,2.643750,0.0,1.000000,0.000000,0.000000,0.000000
1782117466.937307,1966029,0.919922,-0.006348,-0.399902,-0.670732,0.792683,0.060976,16.412500,-36.143749,2.643750,0.0,1.000000,0.000000,0.000000,0.000000
1782117466.947307,1966039,0.915527,-0.010254,-0.398926,-0.792683,0.975610,0.182927,16.281250,-36.312500,2.743750,0.0,1.000000,0.000000,0.000000,0.000000
1782117466.958307,1966050,0.911133,-0.013672,-0.396484,-0.670732,0.792683,0.243902,16.281250,-36.312500,2.743750,0.0,1.000000,0.000000,0.000000,0.000000
1782117466.967307,1966059,0.911133,-0.016602,-0.397949,-0.548781,0.365854,0.182927,16.387501,-36.131252,2.643750,0.0,1.000000,0.000000,0.000000,0.000000
1782117466.978307,1966070,0.916992,-0.018555,-0.399902,-0.426829,0.060976,0.182927,16.387501,-36.131252,2.643750,0.0,1.000000,0.000000,0.000000,0.000000
1782117466.987307,1966079,0.916504,-0.016602,-0.404297,-0.304878,0.060976,0.060976,16.262501,-36.293751,2.762500,0.0,1.000000,0.000000,0.000000,0.000000
1782117466.997307,1966089,0.914551,-0.015137,-0.407715,-0.060976,0.060976,0.000000,16.262501,-36.293751,2.762500,0.0,1.000000,0.000000,0.000000,0.000000
1782117467.007307,1966099,0.916992,-0.012695,-0.404297,0.426829,-0.121951,0.000000,16.368750,-36.137501,2.681250,0.0,1.000000,0.000000,0.000000,0.000000
1782117467.017307,1966109,0.917480,-0.011230,-0.395996,0.792683,-0.121951,0.060976,16.368750,-36.137501,2.681250,0.0,1.000000,0.000000,0.000000,0.000000
1782117467.027307,1966119,0.915527,-0.012207,-0.393555,0.792683,0.182927,0.000000,16.243750,-36.262501,2.787500,0.0,1.000000,0.000000,0.000000,0.000000
1782117467.037307,1966129,0.914062,-0.012207,-0.395996,0.487805,0.365854,-0.121951,16.243750,-36.262501,2.787500,0.0,1.000000,0.000000,0.000000,0.000000
1782117467.047307,1966139,0.913086,-0.010254,-0.399414,0.365854,0.304878,-0.304878,16.418751,-35.931252,2.581250,0.0,1.000000,0.000000,0.000000,0.000000
1782117467.057307,1966149,0.916992,-0.008789,-0.401855,0.243902,0.060976,-0.182927,16.418751,-35.931252,2.581250,0.0,1.000000,0.000000,0.000000,0.000000
1782117467.067307,1966159,0.920410,-0.008301,-0.398438,0.121951,0.243902,-0.060976,16.331251,-36.093750,2.675000,0.0,1.000000,0.000000,0.000000,0.000000
1782117467.077307,1966169,0.917480,-0.006836,-0.396973,0.060976,0.853659,-0.182927,16.331251,-36.093750,2.675000,0.0,1.000000,0.000000,0.000000,0.000000
1782117467.087307,1966179,0.914551,-0.007812,-0.397461,0.060976,0.792683,-0.182927,16.275000,-36.262501,2.756250,0.0,1.000000,0.000000,0.000000,0.000000
1782117467.097307,1966189,0.916016,-0.008789,-0.398438,-0.182927,0.670732,-0.060976,16.275000,-36.262501,2.756250,0.0,1.000000,0.000000,0.000000,0.000000
1782117467.107307,1966199,0.918457,-0.008789,-0.396484,-0.304878,0.853659,0.000000,16.293751,-36.250000,2.787500,0.0,1.000000,0.000000,0.000000,0.000000
1782117467.118307,1966210,0.919922,-0.007812,-0.397461,-0.548781,1.036585,0.121951,16.293751,-36.250000,2.787500,0.0,1.000000,0.000000,0.000000,0.000000
1782117467.127307,1966219,0.919434,-0.008301,-0.395996,-0.670732,1.036585,0.121951,16.312500,-36.125000,2.725000,0.0,1.000000,0.000000,0.000000,0.000000
1782117467.137307,1966229,0.919922,-0.008789,-0.395508,-0.548781,1.036585,0.060976,16.312500,-36.125000,2.725000,0.0,1.000000,0.000000,0.000000,0.000000
1782117467.147307,1966239,0.918945,-0.009766,-0.396484,-0.548781,1.036585,0.000000,16.262501,-36.243752,2.881250,0.0,1.000000,0.000000,0.000000,0.000000
1782117467.158307,1966250,0.918945,-0.009766,-0.399414,-0.487805,1.158537,0.060976,16.262501,-36.243752,2.881250,0.0,1.000000,0.000000,0.000000,0.000000
1782117467.168307,1966260,0.916016,-0.008789,-0.398438,-0.304878,1.219512,0.000000,16.312500,-36.193752,2.856250,0.0,1.000000,0.000000,0.000000,0.000000
1782117467.177307,1966269,0.915527,-0.008789,-0.401367,-0.121951,1.219512,0.000000,16.312500,-36.193752,2.856250,0.0,1.000000,0.000000,0.000000,0.000000
1782117467.188307,1966280,0.916504,-0.008301,-0.396484,0.243902,0.975610,-0.060976,16.218750,-36.299999,2.950000,0.0,1.000000,0.000000,0.000000,0.000000
1782117467.198307,1966290,0.917969,-0.010254,-0.397461,0.304878,1.097561,-0.121951,16.218750,-36.299999,2.950000,0.0,1.000000,0.000000,0.000000,0.000000
1782117467.208307,1966300,0.916992,-0.011719,-0.399902,0.365854,1.036585,-0.121951,16.300001,-36.250000,2.843750,0.0,1.000000,0.000000,0.000000,0.000000
1782117467.218307,1966310,0.918945,-0.012695,-0.402832,0.487805,1.036585,-0.060976,16.300001,-36.250000,2.843750,0.0,1.000000,0.000000,0.000000,0.000000
1782117467.227307,1966319,0.918945,-0.011719,-0.400391,0.670732,0.792683,0.060976,16.268751,-36.306252,2.931250,0.0,1.000000,0.000000,0.000000,0.000000
1782117467.237307,1966329,0.918945,-0.011719,-0.395020,0.670732,0.792683,0.060976,16.268751,-36.306252,2.931250,0.0,1.000000,0.000000,0.000000,0.000000
1782117467.247307,1966339,0.918945,-0.012207,-0.390625,0.548781,0.792683,0.060976,16.281250,-36.225002,2.906250,0.0,1.000000,0.000000,0.000000,0.000000
1782117467.258307,1966350,0.920898,-0.011719,-0.388184,0.365854,0.853659,0.121951,16.281250,-36.225002,2.906250,0.0,1.000000,0.000000,0.000000,0.000000
1782117467.267307,1966359,0.919922,-0.011230,-0.388672,0.182927,1.036585,0.060976,16.243750,-36.262501,2.906250,0.0,1.000000,0.000000,0.000000,0.000000
1782117467.277307,1966369,0.919434,-0.009766,-0.392578,0.121951,1.036585,0.000000,16.243750,-36.262501,2.906250,0.0,1.000000,0.000000,0.000000,0.000000
1782117467.287307,1966379,0.920410,-0.008789,-0.391602,0.121951,1.097561,0.060976,16.287500,-36.243752,2.900000,0.0,1.000000,0.000000,0.000000,0.000000
1782117467.298307,1966390,0.920410,-0.008789,-0.391113,0.243902,1.158537,0.060976,16.287500,-36.243752,2.900000,0.0,1.000000,0.000000,0.000000,0.000000
1782117467.307307,1966399,0.920410,-0.010254,-0.391602,0.000000,1.158537,0.182927,16.268751,-36.306252,2.975000,0.0,1.000000,0.000000,0.000000,0.000000
1782117467.317307,1966409,0.922363,-0.009766,-0.392090,-0.243902,1.036585,0.304878,16.268751,-36.306252,2.975000,0.0,1.000000,0.000000,0.000000,0.000000
1782117467.327307,1966419,0.921875,-0.007324,-0.394531,-0.487805,1.219512,0.426829,16.300001,-36.237499,2.981250,0.0,1.000000,0.000000,0.000000,0.000000
1782117467.338307,1966430,0.919434,-0.006348,-0.394531,-0.731707,1.158537,0.487805,16.300001,-36.237499,2.981250,0.0,1.000000,0.000000,0.000000,0.000000
1782117467.348307,1966440,0.916504,-0.007324,-0.393066,-0.853659,1.158537,0.548781,16.193750,-36.331249,3.093750,0.0,1.000000,0.000000,0.000000,0.000000
1782117467.359307,1966451,0.916016,-0.007324,-0.393555,-1.097561,1.036585,0.426829,16.193750,-36.331249,3.093750,0.0,1.000000,0.000000,0.000000,0.000000
1782117467.368307,1966460,0.919434,-0.007324,-0.395020,-1.341463,0.975610,0.487805,16.287500,-36.200001,2.993750,0.0,1.000000,0.000000,0.000000,0.000000
1782117467.377307,1966469,0.920410,-0.008789,-0.396973,-1.585366,1.158537,0.365854,16.287500,-36.200001,2.993750,0.0,1.000000,0.000000,0.000000,0.000000
1782117467.387307,1966479,0.921875,-0.009277,-0.397461,-1.707317,1.219512,0.548781,16.243750,-36.287502,3.043750,0.0,1.000000,0.000000,0.000000,0.000000
1782117467.397307,1966489,0.922363,-0.006348,-0.396973,-1.707317,1.219512,0.609756,16.243750,-36.287502,3.043750,0.0,1.000000,0.000000,0.000000,0.000000
1782117467.407307,1966499,0.920898,-0.007324,-0.394531,-1.707317,1.341463,0.670732,16.237501,-36.331249,3.106250,0.0,1.000000,0.000000,0.000000,0.000000
1782117467.417307,1966509,0.919922,-0.008789,-0.393555,-1.646341,1.280488,0.609756,16.237501,-36.331249,3.106250,0.0,1.000000,0.000000,0.000000,0.000000
1782117467.427307,1966519,0.920410,-0.010254,-0.395508,-1.524390,1.341463,0.670732,16.187500,-36.343750,3.137500,0.0,1.000000,0.000000,0.000000,0.000000
1782117467.437307,1966529,0.918945,-0.012207,-0.395996,-1.585366,1.463415,0.731707,16.187500,-36.343750,3.137500,0.0,1.000000,0.000000,0.000000,0.000000
1782117467.447307,1966539,0.916504,-0.012695,-0.396973,-1.463415,1.463415,0.792683,16.225000,-36.256252,3.181250,0.0,1.000000,0.000000,0.000000,0.000000
1782117467.458307,1966550,0.916016,-0.013184,-0.396973,-1.402439,1.341463,0.792683,16.225000,-36.256252,3.181250,0.0,1.000000,0.000000,0.000000,0.000000
1782117467.467307,1966559,0.917969,-0.015137,-0.398438,-1.341463,1.219512,0.670732,16.156250,-36.306252,3.243750,0.0,1.000000,0.000000,0.000000,0.000000
1782117467.477307,1966569,0.918945,-0.015137,-0.399414,-1.219512,1.463415,0.609756,16.156250,-36.306252,3.243750,0.0,1.000000,0.000000,0.000000,0.000000
1782117467.487307,1966579,0.916016,-0.015625,-0.400391,-1.097561,1.707317,0.670732,16.225000,-36.362499,3.300000,0.0,1.000000,0.000000,0.000000,0.000000
1782117467.497307,1966589,0.915527,-0.014648,-0.401367,-0.914634,1.524390,0.609756,16.225000,-36.362499,3.300000,0.0,1.000000,0.000000,0.000000,0.000000
1782117467.507307,1966599,0.916504,-0.012695,-0.401367,-0.731707,1.585366,0.548781,16.143751,-36.437500,3.356250,0.0,1.000000,0.000000,0.000000,0.000000
1782117467.519307,1966611,0.915527,-0.013184,-0.402344,-0.487805,1.524390,0.304878,16.143751,-36.437500,3.356250,0.0,1.000000,0.000000,0.000000,0.000000
1782117467.527307,1966619,0.918457,-0.016602,-0.401367,-0.182927,1.402439,0.365854,16.156250,-36.368752,3.318750,0.0,1.000000,0.000000,0.000000,0.000000
1782117467.538307,1966630,0.917480,-0.015137,-0.399902,-0.060976,1.646341,0.365854,16.156250,-36.368752,3.318750,0.0,1.000000,0.000000,0.000000,0.000000
1782117467.547307,1966639,0.915039,-0.014648,-0.398438,0.060976,1.524390,0.243902,16.156250,-36.393749,3.350000,0.0,1.000000,0.000000,0.000000,0.000000
1782117467.557307,1966649,0.916992,-0.015625,-0.397949,0.182927,1.280488,0.243902,16.156250,-36.393749,3.350000,0.0,1.000000,0.000000,0.000000,0.000000
1782117467.567307,1966659,0.919434,-0.018066,-0.396484,0.243902,1.463415,0.060976,16.143751,-36.362499,3.356250,0.0,1.000000,0.000000,0.000000,0.000000
1782117467.578307,1966670,0.917969,-0.015625,-0.395020,0.121951,1.646341,0.182927,16.143751,-36.362499,3.356250,0.0,1.000000,0.000000,0.000000,0.000000
1782117467.587307,1966679,0.917969,-0.015137,-0.398438,0.060976,1.707317,0.121951,16.212500,-36.306252,3.350000,0.0,1.000000,0.000000,0.000000,0.000000
1782117467.598307,1966690,0.918457,-0.011230,-0.396973,0.121951,1.707317,0.121951,16.212500,-36.306252,3.350000,0.0,1.000000,0.000000,0.000000,0.000000
1782117467.607307,1966699,0.918457,-0.011230,-0.395508,0.060976,1.585366,0.243902,16.175001,-36.343750,3.437500,0.0,1.000000,0.000000,0.000000,0.000000
1782117467.617307,1966709,0.921387,-0.008789,-0.391113,0.000000,1.524390,0.304878,16.175001,-36.343750,3.437500,0.0,1.000000,0.000000,0.000000,0.000000
1782117467.627307,1966719,0.922363,-0.009766,-0.387207,-0.121951,1.768293,0.304878,16.093750,-36.456249,3.456250,0.0,1.000000,0.000000,0.000000,0.000000
1782117467.637307,1966729,0.920410,-0.013184,-0.387207,-0.182927,1.768293,0.304878,16.093750,-36.456249,3.456250,0.0,1.000000,0.000000,0.000000,0.000000
1782117467.647307,1966739,0.919434,-0.015137,-0.387695,-0.304878,1.768293,0.304878,16.112501,-36.400002,3.493750,0.0,1.000000,0.000000,0.000000,0.000000
1782117467.658307,1966750,0.920898,-0.016113,-0.389160,-0.609756,1.890244,0.365854,16.112501,-36.400002,3.493750,0.0,1.000000,0.000000,0.000000,0.000000
1782117467.667307,1966759,0.922363,-0.014160,-0.390625,-0.792683,2.073171,0.426829,16.087500,-36.443752,3.575000,0.0,1.000000,0.000000,0.000000,0.000000
1782117467.677307,1966769,0.924805,-0.013184,-0.390137,-1.036585,2.317073,0.365854,16.087500,-36.443752,3.575000,0.0,1.000000,0.000000,0.000000,0.000000
1782117467.687307,1966779,0.922363,-0.011719,-0.390137,-0.975610,2.560976,0.487805,16.143751,-36.356251,3.575000,0.0,1.000000,0.000000,0.000000,0.000000
1782117467.697307,1966789,0.921875,-0.010254,-0.388672,-0.792683,2.500000,0.548781,16.143751,-36.356251,3.575000,0.0,1.000000,0.000000,0.000000,0.000000
1782117467.707307,1966799,0.921875,-0.008789,-0.385742,-0.670732,2.378049,0.670732,16.175001,-36.275002,3.550000,0.0,1.000000,0.000000,0.000000,0.000000
1782117467.718307,1966810,0.920410,-0.008301,-0.382324,-0.792683,2.256098,0.792683,16.175001,-36.275002,3.550000,0.0,1.000000,0.000000,0.000000,0.000000
1782117467.727307,1966819,0.920410,-0.008789,-0.380371,-1.097561,2.073171,0.792683,16.112501,-36.424999,3.675000,0.0,1.000000,0.000000,0.000000,0.000000
1782117467.737307,1966829,0.923828,-0.011230,-0.379395,-1.524390,2.134146,0.731707,16.112501,-36.424999,3.675000,0.0,1.000000,0.000000,0.000000,0.000000
1782117467.747307,1966839,0.922852,-0.013184,-0.379883,-1.951220,2.256098,0.792683,16.081251,-36.450001,3.750000,0.0,1.000000,0.000000,0.000000,0.000000
1782117467.758307,1966850,0.924805,-0.012695,-0.379883,-2.012195,2.317073,0.853659,16.081251,-36.450001,3.750000,0.0,1.000000,0.000000,0.000000,0.000000
1782117467.767307,1966859,0.929688,-0.015625,-0.378418,-1.890244,2.500000,0.914634,16.100000,-36.350002,3.762500,0.0,1.000000,0.000000,0.000000,0.000000
1782117467.777307,1966869,0.929688,-0.017090,-0.375488,-1.890244,2.500000,1.097561,16.100000,-36.350002,3.762500,0.0,1.000000,0.000000,0.000000,0.000000
1782117467.787307,1966879,0.930176,-0.015137,-0.373047,-1.951220,2.378049,1.219512,16.000000,-36.424999,3.837500,0.0,1.000000,0.000000,0.000000,0.000000
1782117467.797307,1966889,0.927734,-0.015137,-0.370117,-1.890244,2.560976,1.280488,16.000000,-36.424999,3.837500,0.0,1.000000,0.000000,0.000000,0.000000
1782117467.807307,1966899,0.924805,-0.015137,-0.370605,-2.195122,2.500000,1.341463,16.050001,-36.387501,3.825000,0.0,1.000000,0.000000,0.000000,0.000000
1782117467.817307,1966909,0.924316,-0.014160,-0.371582,-2.317073,2.134146,1.402439,16.050001,-36.387501,3.825000,0.0,1.000000,0.000000,0.000000,0.000000
1782117467.827307,1966919,0.927734,-0.014648,-0.374023,-2.560976,1.890244,1.463415,16.006250,-36.543751,3.962500,0.0,1.000000,0.000000,0.000000,0.000000
1782117467.837307,1966929,0.930176,-0.016602,-0.372559,-2.621951,1.707317,1.585366,16.006250,-36.543751,3.962500,0.0,1.000000,0.000000,0.000000,0.000000
1782117467.847307,1966939,0.931641,-0.017578,-0.371094,-2.743902,1.890244,1.646341,16.037500,-36.468750,3.937500,0.0,1.000000,0.000000,0.000000,0.000000
1782117467.857307,1966949,0.927734,-0.015625,-0.370117,-2.804878,1.829268,1.524390,16.037500,-36.468750,3.937500,0.0,1.000000,0.000000,0.000000,0.000000
