Unix_Time_s,EMG_t_s,sample_idx,fs,gain,flags,emg_valid,ch1_raw_uV,ch1_filt_uV,ch1_env_uV,ch2_raw_uV,ch2_filt_uV,ch2_env_uV
1782117462.147307,0.000000,1906760,1000,12,0,1,119.311,-1.214,3.435,569.626,1.561,1.162
1782117462.148307,0.001000,1906761,1000,12,0,1,123.971,1.563,3.439,566.672,-0.912,1.163
1782117462.149307,0.002000,1906762,1000,12,0,1,121.929,0.523,3.433,569.362,0.010,1.163
1782117462.150307,0.003000,1906763,1000,12,0,1,121.929,-2.376,3.412,569.362,1.645,1.184
1782117462.151307,0.004000,1906764,1000,12,0,1,119.671,-3.376,3.404,566.792,-1.914,1.208
1782117462.152307,0.005000,1906765,1000,12,0,1,117.077,-7.282,3.507,566.744,-1.569,1.217
1782117462.153307,0.006000,1906766,1000,12,0,1,115.227,-8.097,3.651,567.560,-0.719,1.220
1782117462.154307,0.007000,1906767,1000,12,0,1,114.915,-8.245,3.823,567.320,-0.549,1.193
1782117462.155307,0.008000,1906768,1000,12,0,1,115.323,-6.866,3.912,566.624,-1.086,1.195
1782117462.156307,0.009000,1906769,1000,12,0,1,114.507,-6.457,3.977,567.224,-0.547,1.197
1782117462.157307,0.010000,1906770,1000,12,0,1,115.900,-4.873,3.996,568.065,0.588,1.191
1782117462.158307,0.011000,1906771,1000,12,0,1,122.121,1.523,3.962,568.065,0.515,1.159
1782117462.159307,0.012000,1906772,1000,12,0,1,125.964,5.575,3.973,566.047,-0.967,1.127
1782117462.160307,0.013000,1906773,1000,12,0,1,120.944,1.519,3.902,568.041,0.001,1.122
1782117462.161307,0.014000,1906774,1000,12,0,1,122.938,1.143,3.890,567.825,1.019,1.131
1782117462.162307,0.015000,1906775,1000,12,0,1,123.202,3.568,3.918,568.473,0.383,1.111
1782117462.163307,0.016000,1906776,1000,12,0,1,118.638,-1.494,3.913,567.560,0.446,1.102
1782117462.164307,0.017000,1906777,1000,12,0,1,114.362,-4.548,3.962,569.482,0.864,1.080
1782117462.165307,0.018000,1906778,1000,12,0,1,116.116,-3.059,3.978,569.194,1.573,1.093
1782117462.166307,0.019000,1906779,1000,12,0,1,116.476,-0.897,3.954,566.023,-1.973,1.111
1782117462.167307,0.020000,1906780,1000,12,0,1,115.419,-1.996,3.955,567.825,-0.902,1.119
1782117462.168307,0.021000,1906781,1000,12,0,1,113.642,-2.914,3.964,567.488,0.026,1.113
1782117462.169307,0.022000,1906782,1000,12,0,1,114.699,-2.156,3.913,567.008,-1.368,1.125
1782117462.170307,0.023000,1906783,1000,12,0,1,113.954,-1.898,3.845,568.521,0.582,1.119
1782117462.171307,0.024000,1906784,1000,12,0,1,111.240,-4.339,3.815,567.681,-0.105,1.119
1782117462.172307,0.025000,1906785,1000,12,0,1,112.441,-3.464,3.750,566.359,-1.346,1.131
1782117462.173307,0.026000,1906786,1000,12,0,1,115.011,-0.289,3.611,566.888,-0.846,1.118
1782117462.174307,0.027000,1906787,1000,12,0,1,117.773,1.728,3.549,568.834,1.085,1.128
1782117462.175307,0.028000,1906788,1000,12,0,1,119.143,3.142,3.566,568.233,0.945,1.128
1782117462.176307,0.029000,1906789,1000,12,0,1,117.893,1.430,3.572,567.464,-0.243,1.128
1782117462.177307,0.030000,1906790,1000,12,0,1,115.347,-0.892,3.573,565.783,-1.229,1.129
1782117462.178307,0.031000,1906791,1000,12,0,1,111.600,-3.874,3.572,565.615,-1.698,1.152
1782117462.179307,0.032000,1906792,1000,12,0,1,112.681,-2.772,3.510,565.663,-0.895,1.093
1782117462.180307,0.033000,1906793,1000,12,0,1,117.317,2.585,3.506,566.696,-0.150,1.088
1782117462.181307,0.034000,1906794,1000,12,0,1,119.167,4.919,3.546,568.161,1.475,1.091
1782117462.182307,0.035000,1906795,1000,12,0,1,120.800,5.845,3.637,565.903,-0.237,1.091
1782117462.183307,0.036000,1906796,1000,12,0,1,119.311,4.863,3.662,566.143,-0.907,1.097
1782117462.184307,0.037000,1906797,1000,12,0,1,120.920,4.774,3.658,565.735,-0.258,1.076
1782117462.185307,0.038000,1906798,1000,12,0,1,119.599,4.486,3.698,566.167,-0.600,1.074
1782117462.186307,0.039000,1906799,1000,12,0,1,118.422,1.799,3.705,568.185,1.627,1.080
1782117462.187307,0.040000,1906800,1000,12,0,1,116.764,0.799,3.703,567.536,1.082,1.073
1782117462.188307,0.041000,1906801,1000,12,0,1,115.155,-1.380,3.707,566.239,-0.491,1.072
1782117462.189307,0.042000,1906802,1000,12,0,1,116.356,-0.499,3.695,566.095,-0.562,1.074
1782117462.190307,0.043000,1906803,1000,12,0,1,113.642,-2.181,3.637,566.720,0.000,1.074
1782117462.191307,0.044000,1906804,1000,12,0,1,104.826,-9.946,3.855,566.215,-0.081,1.063
1782117462.192307,0.045000,1906805,1000,12,0,1,104.874,-10.267,4.112,565.975,-0.518,1.009
1782117462.193307,0.046000,1906806,1000,12,0,1,101.800,-9.591,4.330,566.239,0.047,1.006
1782117462.194307,0.047000,1906807,1000,12,0,1,103.673,-8.540,4.490,565.879,-0.160,0.975
1782117462.195307,0.048000,1906808,1000,12,0,1,118.854,6.028,4.570,566.383,0.258,0.971
1782117462.196307,0.049000,1906809,1000,12,0,1,134.972,20.357,5.396,567.248,1.205,0.970
1782117462.197307,0.050000,1906810,1000,12,0,1,135.020,19.055,6.029,569.218,2.614,1.014
1782117462.198307,0.051000,1906811,1000,12,0,1,130.312,10.315,6.199,568.617,2.334,1.059
1782117462.199307,0.052000,1906812,1000,12,0,1,126.541,5.095,6.240,567.104,0.214,1.059
1782117462.200307,0.053000,1906813,1000,12,0,1,124.259,1.480,6.234,566.263,-0.502,1.036
1782117462.201307,0.054000,1906814,1000,12,0,1,125.268,1.598,6.220,567.560,0.305,1.001
1782117462.202307,0.055000,1906815,1000,12,0,1,127.502,3.528,6.155,567.632,0.797,0.982
1782117462.203307,0.056000,1906816,1000,12,0,1,129.616,4.656,6.083,568.497,0.874,0.985
1782117462.204307,0.057000,1906817,1000,12,0,1,130.048,4.740,6.008,567.176,0.161,0.982
1782117462.205307,0.058000,1906818,1000,12,0,1,127.262,1.456,5.932,569.626,1.074,0.982
1782117462.206307,0.059000,1906819,1000,12,0,1,126.733,0.026,5.862,569.074,1.652,1.006
1782117462.207307,0.060000,1906820,1000,12,0,1,125.964,-0.523,5.821,565.086,-2.741,1.075
1782117462.208307,0.061000,1906821,1000,12,0,1,126.349,-0.994,5.819,564.198,-3.592,1.187
1782117462.209307,0.062000,1906822,1000,12,0,1,129.880,1.625,5.770,566.864,-0.790,1.184
1782117462.210307,0.063000,1906823,1000,12,0,1,133.459,4.067,5.795,567.464,0.360,1.185
1782117462.211307,0.064000,1906824,1000,12,0,1,135.429,4.305,5.824,566.191,-0.814,1.182
1782117462.212307,0.065000,1906825,1000,12,0,1,136.341,3.361,5.822,566.552,-0.722,1.185
1782117462.213307,0.066000,1906826,1000,12,0,1,134.300,0.043,5.818,567.560,0.597,1.187
1782117462.214307,0.067000,1906827,1000,12,0,1,133.507,-2.574,5.794,568.089,0.890,1.187
1782117462.215307,0.068000,1906828,1000,12,0,1,135.405,-1.800,5.783,566.744,-0.016,1.166
1782117462.216307,0.069000,1906829,1000,12,0,1,133.723,-3.473,5.803,566.311,-0.896,1.139
1782117462.217307,0.070000,1906830,1000,12,0,1,134.228,-4.473,5.830,567.344,0.353,1.133
1782117462.218307,0.071000,1906831,1000,12,0,1,134.300,-3.657,5.839,566.528,-0.155,1.133
1782117462.219307,0.072000,1906832,1000,12,0,1,132.378,-5.664,5.885,568.713,1.111,1.128
1782117462.220307,0.073000,1906833,1000,12,0,1,130.000,-7.056,5.963,571.524,3.961,1.256
1782117462.221307,0.074000,1906834,1000,12,0,1,129.880,-6.631,6.005,568.906,1.460,1.273
1782117462.222307,0.075000,1906835,1000,12,0,1,131.825,-3.703,6.008,567.801,-0.682,1.263
1782117462.223307,0.076000,1906836,1000,12,0,1,131.633,-2.602,6.019,565.783,-1.721,1.280
1782117462.224307,0.077000,1906837,1000,12,0,1,128.703,-4.492,6.048,565.399,-2.699,1.327
1782117462.225307,0.078000,1906838,1000,12,0,1,128.679,-4.048,6.059,567.753,0.001,1.320
1782117462.226307,0.079000,1906839,1000,12,0,1,128.607,-2.718,6.067,567.584,0.258,1.320
1782117462.227307,0.080000,1906840,1000,12,0,1,123.370,-6.180,6.129,567.296,-0.436,1.310
1782117462.228307,0.081000,1906841,1000,12,0,1,120.776,-8.337,6.217,567.825,0.257,1.289
1782117462.229307,0.082000,1906842,1000,12,0,1,121.376,-6.032,6.263,566.191,-1.034,1.291
1782117462.230307,0.083000,1906843,1000,12,0,1,120.896,-5.309,6.297,566.119,-1.404,1.306
1782117462.231307,0.084000,1906844,1000,12,0,1,119.839,-5.337,6.304,568.473,0.915,1.295
1782117462.232307,0.085000,1906845,1000,12,0,1,118.494,-5.644,6.300,565.399,-0.956,1.302
1782117462.233307,0.086000,1906846,1000,12,0,1,116.596,-6.397,6.328,565.831,-1.847,1.322
1782117462.234307,0.087000,1906847,1000,12,0,1,113.450,-7.944,6.391,568.113,1.370,1.335
1782117462.235307,0.088000,1906848,1000,12,0,1,120.704,-1.876,6.365,567.945,0.940,1.339
1782117462.236307,0.089000,1906849,1000,12,0,1,131.681,9.565,6.502,564.918,-1.458,1.335
1782117462.237307,0.090000,1906850,1000,12,0,1,133.963,11.154,6.690,565.519,-1.595,1.346
1782117462.238307,0.091000,1906851,1000,12,0,1,132.906,8.223,6.787,565.783,-0.277,1.344
1782117462.239307,0.092000,1906852,1000,12,0,1,141.794,13.494,7.050,564.798,-1.309,1.355
1782117462.240307,0.093000,1906853,1000,12,0,1,141.578,14.025,7.317,565.831,-0.328,1.356
1782117462.241307,0.094000,1906854,1000,12,0,1,136.582,5.981,7.231,565.999,0.409,1.357
1782117462.242307,0.095000,1906855,1000,12,0,1,130.913,0.956,7.085,566.960,0.750,1.359
1782117462.243307,0.096000,1906856,1000,12,0,1,131.321,-0.125,6.954,566.672,1.086,1.368
1782117462.244307,0.097000,1906857,1000,12,0,1,131.081,1.344,6.850,565.254,-0.660,1.371
1782117462.245307,0.098000,1906858,1000,12,0,1,129.688,-0.250,6.797,566.888,0.659,1.373
1782117462.246307,0.099000,1906859,1000,12,0,1,129.351,-0.070,6.158,567.560,1.652,1.383
1782117462.247307,0.100000,1906860,1000,12,0,1,129.447,0.383,5.537,568.329,1.721,1.354
1782117462.248307,0.101000,1906861,1000,12,0,1,130.360,0.961,5.343,568.665,2.082,1.346
1782117462.249307,0.102000,1906862,1000,12,0,1,129.928,0.921,5.296,565.711,-0.640,1.349
1782117462.250307,0.103000,1906863,1000,12,0,1,132.666,1.858,5.298,567.464,-0.087,1.347
1782117462.251307,0.104000,1906864,1000,12,0,1,134.228,3.519,5.317,566.528,0.452,1.348
1782117462.252307,0.105000,1906865,1000,12,0,1,134.300,1.661,5.298,566.552,-0.791,1.348
1782117462.253307,0.106000,1906866,1000,12,0,1,135.453,1.688,5.263,566.480,0.158,1.342
1782117462.254307,0.107000,1906867,1000,12,0,1,136.582,1.308,5.223,565.687,-1.001,1.349
1782117462.255307,0.108000,1906868,1000,12,0,1,135.164,-0.783,5.220,567.032,0.268,1.341
1782117462.256307,0.109000,1906869,1000,12,0,1,135.501,-1.988,5.228,566.744,0.500,1.323
1782117462.257307,0.110000,1906870,1000,12,0,1,133.867,-3.182,5.247,566.311,-0.407,1.266
1782117462.258307,0.111000,1906871,1000,12,0,1,134.107,-3.958,5.275,565.951,-0.296,1.160
1782117462.259307,0.112000,1906872,1000,12,0,1,134.252,-2.916,5.286,566.672,-0.075,1.155
1782117462.260307,0.113000,1906873,1000,12,0,1,133.939,-3.158,5.273,567.681,1.174,1.166
1782117462.261307,0.114000,1906874,1000,12,0,1,133.507,-2.755,5.252,566.960,0.366,1.161
1782117462.262307,0.115000,1906875,1000,12,0,1,131.585,-3.512,5.254,565.423,-1.076,1.167
1782117462.263307,0.116000,1906876,1000,12,0,1,130.120,-4.102,5.286,564.342,-2.023,1.198
1782117462.264307,0.117000,1906877,1000,12,0,1,130.961,-2.161,5.283,565.591,-0.886,1.198
1782117462.265307,0.118000,1906878,1000,12,0,1,130.720,-1.123,5.279,565.519,-0.266,1.199
1782117462.266307,0.119000,1906879,1000,12,0,1,129.015,-1.808,5.262,567.104,0.546,1.195
1782117462.267307,0.120000,1906880,1000,12,0,1,128.727,-1.630,5.229,567.080,1.253,1.207
1782117462.268307,0.121000,1906881,1000,12,0,1,129.856,0.067,5.203,566.624,0.125,1.207
1782117462.269307,0.122000,1906882,1000,12,0,1,130.000,0.492,5.142,566.504,0.270,1.197
1782117462.270307,0.123000,1906883,1000,12,0,1,130.360,0.542,5.045,568.233,1.334,1.074
1782117462.271307,0.124000,1906884,1000,12,0,1,128.511,-0.972,4.959,568.521,1.942,1.090
1782117462.272307,0.125000,1906885,1000,12,0,1,130.985,-0.100,4.931,565.423,-0.988,1.094
1782117462.273307,0.126000,1906886,1000,12,0,1,134.708,3.441,4.941,565.302,-1.711,1.094
1782117462.274307,0.127000,1906887,1000,12,0,1,138.167,5.013,4.951,566.119,-0.155,1.025
1782117462.275307,0.128000,1906888,1000,12,0,1,140.641,6.125,4.994,567.320,0.563,1.028
1782117462.276307,0.129000,1906889,1000,12,0,1,137.927,2.603,4.993,566.263,0.279,1.029
1782117462.277307,0.130000,1906890,1000,12,0,1,131.898,-3.941,4.947,566.480,-0.327,1.028
1782117462.278307,0.131000,1906891,1000,12,0,1,129.856,-6.190,4.884,564.630,-1.008,1.037
1782117462.279307,0.132000,1906892,1000,12,0,1,128.895,-5.766,4.877,566.984,-0.081,1.027
1782117462.280307,0.133000,1906893,1000,12,0,1,127.814,-5.718,4.886,568.521,2.495,1.067
1782117462.281307,0.134000,1906894,1000,12,0,1,126.133,-5.583,4.892,568.041,1.188,1.073
1782117462.282307,0.135000,1906895,1000,12,0,1,125.388,-4.870,4.875,566.431,-0.155,1.064
1782117462.283307,0.136000,1906896,1000,12,0,1,128.535,-0.820,4.792,567.897,0.392,1.033
1782117462.284307,0.137000,1906897,1000,12,0,1,127.574,0.556,4.659,566.287,-0.191,1.015
1782117462.285307,0.138000,1906898,1000,12,0,1,124.883,-1.719,4.658,567.320,-0.446,1.009
1782117462.286307,0.139000,1906899,1000,12,0,1,124.451,-0.978,4.459,567.272,0.487,0.990
1782117462.287307,0.140000,1906900,1000,12,0,1,128.102,2.481,4.186,567.080,-0.407,0.965
1782117462.288307,0.141000,1906901,1000,12,0,1,131.345,6.070,4.111,567.873,0.463,0.967
1782117462.289307,0.142000,1906902,1000,12,0,1,135.693,8.574,3.838,569.722,1.866,0.985
1782117462.290307,0.143000,1906903,1000,12,0,1,138.960,10.539,3.608,567.440,0.174,0.984
1782117462.291307,0.144000,1906904,1000,12,0,1,142.250,10.883,3.831,568.497,-0.046,0.982
1782117462.292307,0.145000,1906905,1000,12,0,1,139.272,6.934,3.952,567.801,0.347,0.978
1782117462.293307,0.146000,1906906,1000,12,0,1,131.898,-2.034,3.962,568.089,-0.365,0.967
1782117462.294307,0.147000,1906907,1000,12,0,1,133.915,-2.379,3.972,567.825,0.070,0.963
1782117462.295307,0.148000,1906908,1000,12,0,1,130.817,-3.254,3.998,568.017,-0.243,0.959
1782117462.296307,0.149000,1906909,1000,12,0,1,127.838,-7.786,4.147,568.449,0.333,0.931
1782117462.297307,0.150000,1906910,1000,12,0,1,133.819,-1.665,4.154,566.792,-0.916,0.908
1782117462.298307,0.151000,1906911,1000,12,0,1,137.254,2.427,4.165,567.464,-0.980,0.870
1782117462.299307,0.152000,1906912,1000,12,0,1,140.185,4.053,4.203,566.023,-1.107,0.879
1782117462.300307,0.153000,1906913,1000,12,0,1,139.464,3.945,4.231,565.927,-2.111,0.929
1782117462.301307,0.154000,1906914,1000,12,0,1,137.182,0.737,4.203,566.119,-0.837,0.934
1782117462.302307,0.155000,1906915,1000,12,0,1,137.134,0.840,4.198,564.342,-2.497,0.992
1782117462.303307,0.156000,1906916,1000,12,0,1,136.029,0.195,4.192,566.864,-0.473,0.994
1782117462.304307,0.157000,1906917,1000,12,0,1,135.020,-0.687,4.189,566.600,0.479,0.986
1782117462.305307,0.158000,1906918,1000,12,0,1,135.332,-0.085,4.187,567.272,-0.026,0.986
1782117462.306307,0.159000,1906919,1000,12,0,1,132.738,-1.723,4.185,565.351,-0.537,0.986
1782117462.307307,0.160000,1906920,1000,12,0,1,122.313,-9.864,4.388,566.720,-0.680,0.989
1782117462.308307,0.161000,1906921,1000,12,0,1,118.566,-13.557,4.756,567.152,1.088,1.000
1782117462.309307,0.162000,1906922,1000,12,0,1,119.119,-9.927,4.942,567.584,0.497,1.002
1782117462.310307,0.163000,1906923,1000,12,0,1,119.959,-7.967,5.049,567.849,1.217,1.003
1782117462.311307,0.164000,1906924,1000,12,0,1,126.829,-1.127,5.036,567.705,0.711,1.007
1782117462.312307,0.165000,1906925,1000,12,0,1,140.161,10.561,5.230,564.654,-1.589,1.021
1782117462.313307,0.166000,1906926,1000,12,0,1,154.765,21.767,6.041,565.351,-1.604,1.006
1782117462.314307,0.167000,1906927,1000,12,0,1,151.907,17.821,6.538,568.305,1.733,1.027
1782117462.315307,0.168000,1906928,1000,12,0,1,150.826,10.062,6.689,566.840,0.919,1.035
1782117462.316307,0.169000,1906929,1000,12,0,1,151.643,9.791,6.826,566.840,-0.071,1.032
1782117462.317307,0.170000,1906930,1000,12,0,1,153.684,7.668,6.908,567.536,1.279,1.033
1782117462.318307,0.171000,1906931,1000,12,0,1,153.516,6.658,6.972,566.287,-0.166,1.033
1782117462.319307,0.172000,1906932,1000,12,0,1,147.223,-0.562,6.972,567.152,0.401,1.034
1782117462.320307,0.173000,1906933,1000,12,0,1,142.202,-6.113,7.025,566.335,0.142,1.017
1782117462.321307,0.174000,1906934,1000,12,0,1,141.842,-5.718,7.070,565.206,-1.263,0.995
1782117462.322307,0.175000,1906935,1000,12,0,1,140.857,-5.342,7.110,566.504,-0.053,0.985
1782117462.323307,0.176000,1906936,1000,12,0,1,141.338,-4.061,7.117,566.840,0.595,0.959
1782117462.324307,0.177000,1906937,1000,12,0,1,146.310,0.825,7.082,568.089,1.155,0.972
1782117462.325307,0.178000,1906938,1000,12,0,1,150.129,5.096,7.066,568.713,1.919,1.006
1782117462.326307,0.179000,1906939,1000,12,0,1,150.225,4.306,7.083,567.705,0.550,1.008
1782117462.327307,0.180000,1906940,1000,12,0,1,148.400,1.844,7.066,566.407,-0.764,1.013
1782117462.328307,0.181000,1906941,1000,12,0,1,145.469,-1.799,7.016,565.591,-1.548,1.027
1782117462.329307,0.182000,1906942,1000,12,0,1,144.292,-3.718,6.988,566.455,-0.768,1.032
1782117462.330307,0.183000,1906943,1000,12,0,1,141.914,-5.811,6.990,568.617,1.302,0.987
1782117462.331307,0.184000,1906944,1000,12,0,1,141.314,-7.151,7.018,568.377,1.308,0.990
1782117462.332307,0.185000,1906945,1000,12,0,1,142.971,-5.484,7.027,566.744,-0.497,0.993
1782117462.333307,0.186000,1906946,1000,12,0,1,143.932,-4.699,7.058,566.455,-0.860,0.999
1782117462.334307,0.187000,1906947,1000,12,0,1,143.283,-5.355,7.098,565.447,-1.292,1.015
1782117462.335307,0.188000,1906948,1000,12,0,1,143.307,-5.549,7.137,563.621,-2.759,1.085
1782117462.336307,0.189000,1906949,1000,12,0,1,143.115,-5.238,7.174,564.198,-2.028,1.121
1782117462.337307,0.190000,1906950,1000,12,0,1,143.067,-4.926,7.199,566.143,0.256,1.120
1782117462.338307,0.191000,1906951,1000,12,0,1,142.827,-4.268,7.173,566.552,0.947,1.126
1782117462.339307,0.192000,1906952,1000,12,0,1,139.560,-5.819,7.117,565.423,-0.096,1.094
1782117462.340307,0.193000,1906953,1000,12,0,1,138.839,-5.818,7.008,567.560,1.267,1.109
1782117462.341307,0.194000,1906954,1000,12,0,1,141.386,-1.651,6.841,567.152,1.651,1.133
1782117462.342307,0.195000,1906955,1000,12,0,1,142.731,0.988,6.772,566.648,0.188,1.132
1782117462.343307,0.196000,1906956,1000,12,0,1,143.644,2.542,6.775,567.560,1.168,1.143
1782117462.344307,0.197000,1906957,1000,12,0,1,142.274,2.288,6.775,568.089,1.346,1.159
1782117462.345307,0.198000,1906958,1000,12,0,1,139.752,0.252,6.759,567.560,0.716,1.163
1782117462.346307,0.199000,1906959,1000,12,0,1,140.689,1.240,6.671,566.936,-0.123,1.162
1782117462.347307,0.200000,1906960,1000,12,0,1,142.803,3.627,6.687,565.399,-1.399,1.171
1782117462.348307,0.201000,1906961,1000,12,0,1,144.701,4.854,6.713,566.864,-0.493,1.165
1782117462.349307,0.202000,1906962,1000,12,0,1,148.832,7.373,6.769,566.912,0.345,1.156
1782117462.350307,0.203000,1906963,1000,12,0,1,147.271,5.608,6.793,567.368,0.145,1.117
1782117462.351307,0.204000,1906964,1000,12,0,1,146.118,1.900,6.797,566.095,-0.326,1.111
1782117462.352307,0.205000,1906965,1000,12,0,1,144.364,0.090,6.796,565.783,-1.140,1.066
1782117462.353307,0.206000,1906966,1000,12,0,1,143.788,-2.075,6.802,567.080,0.419,1.066
1782117462.354307,0.207000,1906967,1000,12,0,1,143.259,-2.432,6.810,568.545,1.712,1.091
1782117462.355307,0.208000,1906968,1000,12,0,1,140.257,-5.246,6.851,568.882,1.922,1.124
1782117462.356307,0.209000,1906969,1000,12,0,1,134.372,-9.804,6.985,568.882,1.581,1.144
1782117462.357307,0.210000,1906970,1000,12,0,1,132.858,-10.574,7.006,570.875,2.679,1.201
1782117462.358307,0.211000,1906971,1000,12,0,1,127.093,-12.314,6.960,569.746,2.014,1.225
1782117462.359307,0.212000,1906972,1000,12,0,1,120.416,-16.515,7.206,568.113,-0.583,1.225
1782117462.360307,0.213000,1906973,1000,12,0,1,113.810,-18.140,7.566,567.512,-0.895,1.220
1782117462.361307,0.214000,1906974,1000,12,0,1,110.111,-17.781,7.971,564.270,-3.527,1.314
1782117462.362307,0.215000,1906975,1000,12,0,1,111.480,-12.151,8.016,564.798,-3.481,1.385
1782117462.363307,0.216000,1906976,1000,12,0,1,117.653,-2.964,7.413,566.816,-0.621,1.369
1782117462.364307,0.217000,1906977,1000,12,0,1,128.294,8.566,7.076,566.744,-0.588,1.350
1782117462.365307,0.218000,1906978,1000,12,0,1,136.509,17.145,7.344,567.608,0.032,1.343
1782117462.366307,0.219000,1906979,1000,12,0,1,138.575,17.652,7.632,569.002,1.349,1.357
1782117462.367307,0.220000,1906980,1000,12,0,1,132.690,11.225,7.719,566.720,-0.440,1.346
1782117462.368307,0.221000,1906981,1000,12,0,1,132.714,7.806,7.741,566.480,-1.441,1.361
1782117462.369307,0.222000,1906982,1000,12,0,1,135.308,10.084,7.871,567.464,0.059,1.360
1782117462.370307,0.223000,1906983,1000,12,0,1,140.857,12.179,8.010,567.657,0.124,1.360
1782117462.371307,0.224000,1906984,1000,12,0,1,146.934,16.144,8.290,568.906,1.081,1.357
1782117462.372307,0.225000,1906985,1000,12,0,1,147.007,13.639,8.478,566.816,-0.229,1.357
1782117462.373307,0.226000,1906986,1000,12,0,1,144.628,8.380,8.541,565.639,-2.025,1.385
1782117462.374307,0.227000,1906987,1000,12,0,1,145.157,6.505,8.590,566.984,-0.256,1.375
1782117462.375307,0.228000,1906988,1000,12,0,1,145.229,5.188,8.591,565.687,-0.919,1.355
1782117462.376307,0.229000,1906989,1000,12,0,1,141.458,0.954,8.570,565.158,-1.632,1.372
1782117462.377307,0.230000,1906990,1000,12,0,1,138.743,-2.637,8.574,565.230,-0.920,1.374
1782117462.378307,0.231000,1906991,1000,12,0,1,141.554,-0.214,8.571,566.816,0.326,1.357
1782117462.379307,0.232000,1906992,1000,12,0,1,143.740,2.296,8.561,566.191,0.532,1.355
1782117462.380307,0.233000,1906993,1000,12,0,1,141.145,0.086,8.521,565.999,-0.283,1.343
1782117462.381307,0.234000,1906994,1000,12,0,1,140.857,-0.990,8.462,564.990,-0.526,1.332
1782117462.382307,0.235000,1906995,1000,12,0,1,139.512,-1.197,8.428,566.624,0.241,1.331
1782117462.383307,0.236000,1906996,1000,12,0,1,140.617,-1.107,8.403,568.449,2.450,1.370
1782117462.384307,0.237000,1906997,1000,12,0,1,140.449,-0.260,8.369,566.119,0.305,1.358
1782117462.385307,0.238000,1906998,1000,12,0,1,138.359,-2.796,8.342,568.065,0.835,1.306
1782117462.386307,0.239000,1906999,1000,12,0,1,137.783,-3.424,8.323,567.104,1.259,1.287
1782117462.387307,0.240000,1907000,1000,12,0,1,138.143,-3.110,8.305,566.912,-0.434,1.288
1782117462.388307,0.241000,1907001,1000,12,0,1,138.479,-3.025,8.294,566.455,0.174,1.281
1782117462.389307,0.242000,1907002,1000,12,0,1,135.381,-5.387,8.288,567.705,0.309,1.282
1782117462.390307,0.243000,1907003,1000,12,0,1,133.675,-7.615,8.318,568.882,1.995,1.300
1782117462.391307,0.244000,1907004,1000,12,0,1,134.660,-5.928,8.356,568.761,1.379,1.294
1782117462.392307,0.245000,1907005,1000,12,0,1,135.717,-4.611,8.381,568.041,0.603,1.296
1782117462.393307,0.246000,1907006,1000,12,0,1,134.420,-4.917,8.402,566.191,-0.989,1.293
1782117462.394307,0.247000,1907007,1000,12,0,1,130.889,-7.447,8.461,566.816,-0.907,1.286
1782117462.395307,0.248000,1907008,1000,12,0,1,130.456,-7.152,8.522,566.600,-0.189,1.282
1782117462.396307,0.249000,1907009,1000,12,0,1,133.099,-3.252,8.532,567.368,-0.171,1.282
1782117462.397307,0.250000,1907010,1000,12,0,1,132.090,-2.390,8.523,568.353,1.309,1.280
1782117462.398307,0.251000,1907011,1000,12,0,1,133.531,-0.951,8.497,569.266,1.549,1.297
1782117462.399307,0.252000,1907012,1000,12,0,1,129.784,-1.715,8.436,567.849,0.599,1.299
1782117462.400307,0.253000,1907013,1000,12,0,1,129.135,-2.877,8.409,567.248,-0.732,1.303
1782117462.401307,0.254000,1907014,1000,12,0,1,129.111,-0.272,8.404,570.227,1.776,1.326
1782117462.402307,0.255000,1907015,1000,12,0,1,127.574,-1.133,8.406,569.914,1.910,1.343
1782117462.403307,0.256000,1907016,1000,12,0,1,128.198,0.357,8.401,566.696,-1.679,1.363
1782117462.404307,0.257000,1907017,1000,12,0,1,127.790,1.168,8.395,565.879,-2.583,1.390
1782117462.405307,0.258000,1907018,1000,12,0,1,128.126,1.329,8.365,568.113,-0.534,1.365
1782117462.406307,0.259000,1907019,1000,12,0,1,127.646,1.779,8.253,569.530,1.159,1.357
1782117462.407307,0.260000,1907020,1000,12,0,1,127.742,1.214,8.118,568.401,-0.015,1.303
1782117462.408307,0.261000,1907021,1000,12,0,1,127.982,1.823,7.933,566.191,-2.053,1.304
1782117462.409307,0.262000,1907022,1000,12,0,1,127.165,0.632,7.582,567.032,-1.575,1.320
1782117462.410307,0.263000,1907023,1000,12,0,1,129.808,2.319,7.143,566.648,-0.992,1.322
1782117462.411307,0.264000,1907024,1000,12,0,1,129.375,2.417,6.694,567.416,-0.793,1.229
1782117462.412307,0.265000,1907025,1000,12,0,1,128.751,0.583,6.470,568.545,0.837,1.133
1782117462.413307,0.266000,1907026,1000,12,0,1,129.423,1.343,6.459,567.440,-0.133,1.129
1782117462.414307,0.267000,1907027,1000,12,0,1,130.216,1.683,6.349,566.311,-1.254,1.140
1782117462.415307,0.268000,1907028,1000,12,0,1,130.024,1.667,5.873,567.512,-0.140,1.140
1782117462.416307,0.269000,1907029,1000,12,0,1,129.423,1.028,5.318,567.801,0.542,1.127
1782117462.417307,0.270000,1907030,1000,12,0,1,131.777,2.916,5.092,567.200,-0.116,1.125
1782117462.418307,0.271000,1907031,1000,12,0,1,130.889,3.137,4.991,568.473,0.769,1.112
1782117462.419307,0.272000,1907032,1000,12,0,1,130.456,1.908,4.790,567.681,0.582,1.115
1782117462.420307,0.273000,1907033,1000,12,0,1,129.976,2.403,4.483,565.687,-1.640,1.139
1782117462.421307,0.274000,1907034,1000,12,0,1,130.745,2.605,3.875,566.912,-0.609,1.132
1782117462.422307,0.275000,1907035,1000,12,0,1,128.655,1.758,3.370,566.239,-0.470,1.133
1782117462.423307,0.276000,1907036,1000,12,0,1,127.045,-0.348,3.156,567.056,-0.406,1.098
1782117462.424307,0.277000,1907037,1000,12,0,1,127.622,0.659,3.020,567.897,0.992,1.106
1782117462.425307,0.278000,1907038,1000,12,0,1,126.925,0.334,2.930,569.050,1.417,1.117
1782117462.426307,0.279000,1907039,1000,12,0,1,127.382,0.234,2.927,566.552,-0.179,1.093
1782117462.427307,0.280000,1907040,1000,12,0,1,125.580,-0.757,2.905,567.344,-0.712,1.090
1782117462.428307,0.281000,1907041,1000,12,0,1,123.682,-3.259,2.941,567.008,0.205,1.089
1782117462.429307,0.282000,1907042,1000,12,0,1,123.106,-3.302,2.960,565.951,-1.382,1.104
1782117462.430307,0.283000,1907043,1000,12,0,1,123.899,-2.766,2.986,566.504,-0.539,1.106
1782117462.431307,0.284000,1907044,1000,12,0,1,125.292,-1.177,2.987,566.023,-0.555,1.106
1782117462.432307,0.285000,1907045,1000,12,0,1,127.478,0.476,2.983,567.825,0.565,1.109
1782117462.433307,0.286000,1907046,1000,12,0,1,128.415,1.382,2.986,568.161,1.725,1.081
1782117462.434307,0.287000,1907047,1000,12,0,1,126.565,-0.449,2.986,567.753,0.563,1.083
1782117462.435307,0.288000,1907048,1000,12,0,1,128.871,0.716,2.961,567.320,0.545,1.079
1782117462.436307,0.289000,1907049,1000,12,0,1,129.087,2.062,2.936,567.873,0.516,1.067
1782117462.437307,0.290000,1907050,1000,12,0,1,126.733,-0.599,2.904,567.032,0.273,1.066
1782117462.438307,0.291000,1907051,1000,12,0,1,128.895,1.299,2.878,566.431,-0.757,1.071
1782117462.439307,0.292000,1907052,1000,12,0,1,129.231,2.679,2.802,565.278,-1.270,1.085
1782117462.440307,0.293000,1907053,1000,12,0,1,130.120,2.813,2.617,563.645,-2.671,1.114
1782117462.441307,0.294000,1907054,1000,12,0,1,128.991,2.744,2.509,566.383,-0.399,1.098
1782117462.442307,0.295000,1907055,1000,12,0,1,128.487,1.496,2.432,568.041,2.030,1.132
1782117462.443307,0.296000,1907056,1000,12,0,1,128.150,1.839,2.345,568.593,1.759,1.150
1782117462.444307,0.297000,1907057,1000,12,0,1,126.901,0.498,2.096,567.801,1.265,1.157
1782117462.445307,0.298000,1907058,1000,12,0,1,126.901,0.371,1.837,565.807,-1.001,1.165
1782117462.446307,0.299000,1907059,1000,12,0,1,127.934,1.246,1.787,567.008,-0.243,1.166
1782117462.447307,0.300000,1907060,1000,12,0,1,129.543,2.158,1.781,565.182,-0.932,1.158
1782117462.448307,0.301000,1907061,1000,12,0,1,131.633,3.402,1.840,566.984,-0.520,1.140
1782117462.449307,0.302000,1907062,1000,12,0,1,133.171,3.719,1.898,568.882,2.351,1.184
1782117462.450307,0.303000,1907063,1000,12,0,1,136.101,4.832,1.976,566.864,0.105,1.180
1782117462.451307,0.304000,1907064,1000,12,0,1,136.101,3.948,2.053,566.263,-0.776,1.158
1782117462.452307,0.305000,1907065,1000,12,0,1,138.407,3.613,2.110,564.942,-1.355,1.142
1782117462.453307,0.306000,1907066,1000,12,0,1,137.951,2.957,2.150,568.089,0.616,1.121
1782117462.454307,0.307000,1907067,1000,12,0,1,137.014,0.101,2.144,567.512,1.657,1.085
1782117462.455307,0.308000,1907068,1000,12,0,1,136.894,-0.292,2.136,568.689,0.964,1.091
1782117462.456307,0.309000,1907069,1000,12,0,1,137.999,-0.069,2.121,568.593,2.051,1.117
1782117462.457307,0.310000,1907070,1000,12,0,1,137.158,-0.552,2.116,566.768,-0.564,1.120
1782117462.458307,0.311000,1907071,1000,12,0,1,135.693,-2.167,2.122,566.600,-0.618,1.085
1782117462.459307,0.312000,1907072,1000,12,0,1,135.068,-2.420,2.148,567.056,-0.117,1.062
1782117462.460307,0.313000,1907073,1000,12,0,1,134.732,-2.136,2.144,565.591,-1.199,1.066
1782117462.461307,0.314000,1907074,1000,12,0,1,133.867,-2.406,2.143,566.119,-1.010,1.070
1782117462.462307,0.315000,1907075,1000,12,0,1,133.939,-1.875,2.158,565.327,-1.038,1.073
1782117462.463307,0.316000,1907076,1000,12,0,1,135.981,0.124,2.150,566.528,-0.473,1.075
1782117462.464307,0.317000,1907077,1000,12,0,1,133.819,-0.839,2.140,566.672,0.378,1.062
1782117462.465307,0.318000,1907078,1000,12,0,1,130.985,-4.082,2.204,566.552,-0.184,1.062
1782117462.466307,0.319000,1907079,1000,12,0,1,128.871,-5.172,2.318,566.672,0.084,1.059
1782117462.467307,0.320000,1907080,1000,12,0,1,131.705,-3.149,2.324,566.744,0.093,1.059
1782117462.468307,0.321000,1907081,1000,12,0,1,134.203,0.143,2.281,567.320,0.444,1.056
1782117462.469307,0.322000,1907082,1000,12,0,1,133.267,-1.241,2.272,566.263,-0.142,1.053
1782117462.470307,0.323000,1907083,1000,12,0,1,131.297,-3.319,2.295,566.648,-0.418,1.028
1782117462.471307,0.324000,1907084,1000,12,0,1,129.664,-4.855,2.367,566.311,0.021,1.025
1782117462.472307,0.325000,1907085,1000,12,0,1,128.943,-5.315,2.471,567.080,0.069,1.023
1782117462.473307,0.326000,1907086,1000,12,0,1,126.541,-6.410,2.631,567.801,1.268,1.037
1782117462.474307,0.327000,1907087,1000,12,0,1,126.109,-6.566,2.789,566.624,0.022,1.027
1782117462.475307,0.328000,1907088,1000,12,0,1,131.657,-0.750,2.790,566.600,-0.221,1.008
1782117462.476307,0.329000,1907089,1000,12,0,1,136.582,4.661,2.867,566.071,-0.280,1.008
1782117462.477307,0.330000,1907090,1000,12,0,1,136.197,4.457,2.934,566.311,-0.377,1.005
1782117462.478307,0.331000,1907091,1000,12,0,1,134.564,2.409,2.917,564.462,-1.237,1.019
1782117462.479307,0.332000,1907092,1000,12,0,1,133.723,1.778,2.890,567.344,0.269,1.001
1782117462.480307,0.333000,1907093,1000,12,0,1,135.284,3.021,2.896,567.464,1.909,1.034
1782117462.481307,0.334000,1907094,1000,12,0,1,134.684,3.252,2.927,565.759,-0.743,1.037
1782117462.482307,0.335000,1907095,1000,12,0,1,133.531,1.733,2.937,565.567,-0.587,1.037
1782117462.483307,0.336000,1907096,1000,12,0,1,130.144,-0.511,2.931,567.464,0.803,1.014
1782117462.484307,0.337000,1907097,1000,12,0,1,127.838,-2.834,2.958,568.473,1.949,1.048
1782117462.485307,0.338000,1907098,1000,12,0,1,128.102,-1.830,2.967,569.626,2.358,1.097
1782117462.486307,0.339000,1907099,1000,12,0,1,125.748,-2.935,2.982,569.242,1.879,1.126
1782117462.487307,0.340000,1907100,1000,12,0,1,123.466,-4.938,3.061,566.744,-0.673,1.130
1782117462.488307,0.341000,1907101,1000,12,0,1,121.809,-5.325,3.147,568.473,-0.053,1.125
1782117462.489307,0.342000,1907102,1000,12,0,1,125.820,-2.075,3.138,567.224,0.065,1.110
1782117462.490307,0.343000,1907103,1000,12,0,1,129.664,2.626,3.135,566.600,-1.721,1.072
1782117462.491307,0.344000,1907104,1000,12,0,1,131.249,3.089,3.141,567.729,0.090,1.071
1782117462.492307,0.345000,1907105,1000,12,0,1,131.705,3.038,3.163,567.320,-0.357,1.033
1782117462.493307,0.346000,1907106,1000,12,0,1,132.354,2.560,3.173,564.606,-2.377,1.057
1782117462.494307,0.347000,1907107,1000,12,0,1,134.468,3.655,3.215,564.798,-2.513,1.101
1782117462.495307,0.348000,1907108,1000,12,0,1,133.627,2.791,3.238,567.705,0.681,1.096
1782117462.496307,0.349000,1907109,1000,12,0,1,134.900,2.455,3.252,566.455,0.293,1.096
1782117462.497307,0.350000,1907110,1000,12,0,1,137.158,4.734,3.306,566.480,-0.587,1.091
1782117462.498307,0.351000,1907111,1000,12,0,1,135.381,2.807,3.295,568.785,1.945,1.123
1782117462.499307,0.352000,1907112,1000,12,0,1,135.212,1.880,3.264,568.305,1.464,1.092
1782117462.500307,0.353000,1907113,1000,12,0,1,133.699,1.255,3.196,568.353,0.868,1.099
1782117462.501307,0.354000,1907114,1000,12,0,1,133.171,0.271,3.147,567.897,0.590,1.097
1782117462.502307,0.355000,1907115,1000,12,0,1,133.459,1.290,3.111,567.753,-0.058,1.080
1782117462.503307,0.356000,1907116,1000,12,0,1,133.435,1.243,3.088,565.879,-1.304,1.092
1782117462.504307,0.357000,1907117,1000,12,0,1,134.059,1.836,3.098,563.717,-3.462,1.174
1782117462.505307,0.358000,1907118,1000,12,0,1,133.387,1.312,3.104,565.471,-1.777,1.193
1782117462.506307,0.359000,1907119,1000,12,0,1,133.435,0.658,3.105,566.552,0.064,1.157
1782117462.507307,0.360000,1907120,1000,12,0,1,133.915,0.957,3.107,565.999,-0.554,1.157
1782117462.508307,0.361000,1907121,1000,12,0,1,133.723,0.107,3.092,565.278,-0.951,1.161
1782117462.509307,0.362000,1907122,1000,12,0,1,136.053,1.188,3.078,566.744,0.128,1.161
1782117462.510307,0.363000,1907123,1000,12,0,1,137.951,2.380,3.081,567.681,1.487,1.168
1782117462.511307,0.364000,1907124,1000,12,0,1,137.494,0.840,3.065,568.305,1.594,1.181
1782117462.512307,0.365000,1907125,1000,12,0,1,140.065,1.502,3.061,567.801,1.279,1.186
1782117462.513307,0.366000,1907126,1000,12,0,1,137.566,-0.442,3.061,569.002,1.626,1.206
1782117462.514307,0.367000,1907127,1000,12,0,1,128.943,-8.937,3.310,567.921,1.176,1.216
1782117462.515307,0.368000,1907128,1000,12,0,1,120.320,-15.808,3.952,567.753,0.095,1.216
1782117462.516307,0.369000,1907129,1000,12,0,1,120.320,-14.632,4.401,567.753,0.534,1.218
1782117462.517307,0.370000,1907130,1000,12,0,1,132.954,-1.525,4.383,568.065,0.389,1.219
1782117462.518307,0.371000,1907131,1000,12,0,1,124.331,-3.788,4.416,567.945,0.444,1.219
1782117462.519307,0.372000,1907132,1000,12,0,1,130.192,-3.514,4.440,566.600,-0.790,1.224
1782117462.520307,0.373000,1907133,1000,12,0,1,148.400,16.897,5.021,568.257,0.135,1.223
1782117462.521307,0.374000,1907134,1000,12,0,1,151.210,18.347,5.610,568.665,1.239,1.235
1782117462.522307,0.375000,1907135,1000,12,0,1,142.082,8.049,5.674,569.554,1.047,1.244
1782117462.523307,0.376000,1907136,1000,12,0,1,139.176,2.571,5.613,567.993,0.321,1.232
1782117462.524307,0.377000,1907137,1000,12,0,1,144.677,6.640,5.615,566.191,-2.153,1.269
1782117462.525307,0.378000,1907138,1000,12,0,1,149.985,10.849,5.820,568.882,0.218,1.269
1782117462.526307,0.379000,1907139,1000,12,0,1,145.445,5.569,5.836,568.353,0.542,1.271
1782117462.527307,0.380000,1907140,1000,12,0,1,139.512,-1.890,5.808,569.386,0.257,1.270
1782117462.528307,0.381000,1907141,1000,12,0,1,139.056,-3.386,5.818,568.425,0.398,1.259
1782117462.529307,0.382000,1907142,1000,12,0,1,139.920,-2.301,5.821,567.032,-1.805,1.284
1782117462.530307,0.383000,1907143,1000,12,0,1,143.740,-0.118,5.805,568.329,-0.335,1.257
1782117462.531307,0.384000,1907144,1000,12,0,1,146.238,2.350,5.797,567.993,-0.286,1.253
1782117462.532307,0.385000,1907145,1000,12,0,1,148.640,2.517,5.803,567.032,-1.350,1.265
1782117462.533307,0.386000,1907146,1000,12,0,1,150.514,3.503,5.823,567.440,-0.802,1.265
1782117462.534307,0.387000,1907147,1000,12,0,1,152.363,3.233,5.827,568.305,0.071,1.234
1782117462.535307,0.388000,1907148,1000,12,0,1,151.042,1.406,5.825,567.753,-0.101,1.188
1782117462.536307,0.389000,1907149,1000,12,0,1,151.234,-0.348,5.810,569.122,0.566,1.161
1782117462.537307,0.390000,1907150,1000,12,0,1,151.090,-0.504,5.769,567.632,0.104,1.157
1782117462.538307,0.391000,1907151,1000,12,0,1,150.874,-1.597,5.724,568.834,-0.044,1.157
1782117462.539307,0.392000,1907152,1000,12,0,1,148.712,-3.209,5.734,569.266,1.372,1.173
1782117462.540307,0.393000,1907153,1000,12,0,1,147.079,-4.917,5.764,569.386,0.564,1.151
1782117462.541307,0.394000,1907154,1000,12,0,1,145.661,-5.369,5.798,569.338,0.800,1.156
1782117462.542307,0.395000,1907155,1000,12,0,1,142.803,-6.971,5.865,568.185,-0.484,1.157
1782117462.543307,0.396000,1907156,1000,12,0,1,144.869,-5.031,5.897,566.912,-1.673,1.132
1782117462.544307,0.397000,1907157,1000,12,0,1,142.875,-4.356,5.907,569.626,0.430,1.077
1782117462.545307,0.398000,1907158,1000,12,0,1,141.097,-6.556,5.966,571.596,2.645,1.136
1782117462.546307,0.399000,1907159,1000,12,0,1,139.392,-6.113,6.018,570.539,1.338,1.151
1782117462.547307,0.400000,1907160,1000,12,0,1,139.704,-5.859,6.038,568.882,-0.621,1.151
1782117462.548307,0.401000,1907161,1000,12,0,1,141.434,-3.009,6.040,568.305,-1.191,1.130
1782117462.549307,0.402000,1907162,1000,12,0,1,142.395,-1.883,6.040,567.440,-1.776,1.139
1782117462.550307,0.403000,1907163,1000,12,0,1,142.707,-1.485,6.041,569.026,-0.520,1.135
1782117462.551307,0.404000,1907164,1000,12,0,1,143.788,-0.666,6.042,568.233,-0.413,1.133
1782117462.552307,0.405000,1907165,1000,12,0,1,145.061,0.265,6.039,569.746,0.068,1.133
1782117462.553307,0.406000,1907166,1000,12,0,1,145.829,0.780,6.037,568.473,0.074,1.118
1782117462.554307,0.407000,1907167,1000,12,0,1,144.508,-0.595,6.032,566.407,-2.514,1.066
1782117462.555307,0.408000,1907168,1000,12,0,1,143.259,-1.909,6.036,568.257,-0.657,1.041
1782117462.556307,0.409000,1907169,1000,12,0,1,143.307,-1.675,6.040,567.849,-0.156,1.041
1782117462.557307,0.410000,1907170,1000,12,0,1,141.578,-2.304,6.047,568.017,-0.679,1.042
1782117462.558307,0.411000,1907171,1000,12,0,1,140.305,-3.170,6.063,566.455,-1.051,1.044
1782117462.559307,0.412000,1907172,1000,12,0,1,142.947,-0.051,6.061,566.263,-1.948,1.080
1782117462.560307,0.413000,1907173,1000,12,0,1,140.377,-0.523,6.052,567.584,0.063,1.059
1782117462.561307,0.414000,1907174,1000,12,0,1,136.365,-4.080,6.078,568.858,1.006,1.045
1782117462.562307,0.415000,1907175,1000,12,0,1,137.638,-1.936,6.081,569.362,1.600,1.053
1782117462.563307,0.416000,1907176,1000,12,0,1,138.623,0.527,6.081,568.521,0.645,1.032
1782117462.564307,0.417000,1907177,1000,12,0,1,139.656,1.662,5.953,568.209,0.033,1.019
1782117462.565307,0.418000,1907178,1000,12,0,1,137.590,0.916,5.519,568.593,0.448,1.020
1782117462.566307,0.419000,1907179,1000,12,0,1,135.645,-1.283,5.119,570.107,1.466,1.039
1782117462.567307,0.420000,1907180,1000,12,0,1,135.717,-0.591,5.115,568.785,0.748,1.042
1782117462.568307,0.421000,1907181,1000,12,0,1,136.197,-0.000,5.087,568.377,-0.500,1.043
1782117462.569307,0.422000,1907182,1000,12,0,1,137.735,1.298,5.066,569.578,0.941,1.045
1782117462.570307,0.423000,1907183,1000,12,0,1,133.555,-1.602,4.473,569.578,0.857,1.052
1782117462.571307,0.424000,1907184,1000,12,0,1,134.828,-2.181,3.657,567.993,-0.533,1.040
1782117462.572307,0.425000,1907185,1000,12,0,1,136.053,0.698,3.476,568.161,-0.705,1.035
1782117462.573307,0.426000,1907186,1000,12,0,1,136.726,0.209,3.457,566.960,-1.093,1.045
1782117462.574307,0.427000,1907187,1000,12,0,1,134.276,-0.868,3.330,566.504,-1.790,1.031
1782117462.575307,0.428000,1907188,1000,12,0,1,131.970,-3.483,2.996,567.104,-0.715,1.036
1782117462.576307,0.429000,1907189,1000,12,0,1,134.636,-0.567,2.892,565.615,-1.564,1.056
1782117462.577307,0.430000,1907190,1000,12,0,1,132.930,-0.316,2.880,566.095,-1.435,1.075
1782117462.578307,0.431000,1907191,1000,12,0,1,132.330,-1.459,2.847,566.407,-0.272,1.074
1782117462.579307,0.432000,1907192,1000,12,0,1,133.507,1.248,2.834,565.951,-0.865,1.051
1782117462.580307,0.433000,1907193,1000,12,0,1,134.828,2.520,2.856,568.401,1.246,1.064
1782117462.581307,0.434000,1907194,1000,12,0,1,131.825,1.304,2.843,566.600,0.460,1.065
1782117462.582307,0.435000,1907195,1000,12,0,1,131.489,0.262,2.821,567.681,0.050,1.048
1782117462.583307,0.436000,1907196,1000,12,0,1,129.183,0.173,2.777,566.912,0.668,1.046
1782117462.584307,0.437000,1907197,1000,12,0,1,129.111,-0.507,2.740,567.392,-0.172,1.047
1782117462.585307,0.438000,1907198,1000,12,0,1,129.495,1.318,2.739,567.128,0.564,1.050
1782117462.586307,0.439000,1907199,1000,12,0,1,129.447,1.146,2.743,566.936,-0.289,1.047
1782117462.587307,0.440000,1907200,1000,12,0,1,128.943,1.047,2.746,566.648,-0.092,1.047
1782117462.588307,0.441000,1907201,1000,12,0,1,128.967,0.918,2.740,568.978,1.484,1.068
1782117462.589307,0.442000,1907202,1000,12,0,1,131.825,2.916,2.734,567.801,1.243,1.065
1782117462.590307,0.443000,1907203,1000,12,0,1,132.690,3.961,2.702,565.206,-1.675,1.088
1782117462.591307,0.444000,1907204,1000,12,0,1,130.456,0.937,2.597,564.414,-2.128,1.123
1782117462.592307,0.445000,1907205,1000,12,0,1,131.057,0.715,2.405,565.903,-0.466,1.123
1782117462.593307,0.446000,1907206,1000,12,0,1,128.895,-0.758,2.299,566.864,0.821,1.104
1782117462.594307,0.447000,1907207,1000,12,0,1,128.775,-1.794,2.230,567.344,1.279,1.117
1782117462.595307,0.448000,1907208,1000,12,0,1,129.375,-0.349,2.029,566.095,0.258,1.053
1782117462.596307,0.449000,1907209,1000,12,0,1,130.288,0.281,1.836,566.311,0.098,1.036
1782117462.597307,0.450000,1907210,1000,12,0,1,132.594,2.608,1.679,566.840,0.819,1.039
1782117462.598307,0.451000,1907211,1000,12,0,1,133.026,3.329,1.691,568.065,1.593,1.050
1782117462.599307,0.452000,1907212,1000,12,0,1,129.568,0.364,1.671,567.560,1.283,1.035
1782117462.600307,0.453000,1907213,1000,12,0,1,127.093,-1.859,1.678,567.032,0.243,1.033
1782117462.601307,0.454000,1907214,1000,12,0,1,125.436,-2.348,1.708,564.582,-1.576,1.055
1782117462.602307,0.455000,1907215,1000,12,0,1,125.340,-1.750,1.725,567.584,0.049,1.055
1782117462.603307,0.456000,1907216,1000,12,0,1,125.556,-0.476,1.723,567.777,1.646,1.081
1782117462.604307,0.457000,1907217,1000,12,0,1,126.133,0.529,1.723,564.198,-2.304,1.071
1782117462.605307,0.458000,1907218,1000,12,0,1,128.342,2.664,1.743,564.005,-2.561,1.127
1782117462.606307,0.459000,1907219,1000,12,0,1,128.006,2.835,1.773,566.191,-0.057,1.127
1782117462.607307,0.460000,1907220,1000,12,0,1,126.973,1.101,1.749,566.912,0.845,1.129
1782117462.608307,0.461000,1907221,1000,12,0,1,129.111,2.538,1.729,566.504,0.519,1.122
1782117462.609307,0.462000,1907222,1000,12,0,1,130.024,3.191,1.786,566.624,0.368,1.088
1782117462.610307,0.463000,1907223,1000,12,0,1,128.463,1.010,1.791,566.624,0.623,1.092
1782117462.611307,0.464000,1907224,1000,12,0,1,129.495,0.849,1.699,566.960,0.634,1.086
1782117462.612307,0.465000,1907225,1000,12,0,1,130.745,1.856,1.698,567.392,1.183,1.076
1782117462.613307,0.466000,1907226,1000,12,0,1,129.183,-0.023,1.696,566.960,0.651,1.076
1782117462.614307,0.467000,1907227,1000,12,0,1,128.174,-1.516,1.693,565.663,-0.462,1.078
1782117462.615307,0.468000,1907228,1000,12,0,1,125.004,-3.666,1.766,566.624,0.019,1.076
1782117462.616307,0.469000,1907229,1000,12,0,1,125.244,-3.890,1.841,567.128,0.964,1.064
1782117462.617307,0.470000,1907230,1000,12,0,1,127.045,-0.837,1.843,566.119,-0.177,1.059
1782117462.618307,0.471000,1907231,1000,12,0,1,122.169,-3.937,1.925,566.023,-0.407,1.059
1782117462.619307,0.472000,1907232,1000,12,0,1,121.641,-4.753,2.031,565.903,-0.316,1.051
1782117462.620307,0.473000,1907233,1000,12,0,1,124.980,0.190,2.018,565.831,-0.503,1.047
1782117462.621307,0.474000,1907234,1000,12,0,1,122.698,-0.574,1.996,565.735,-0.414,1.045
1782117462.622307,0.475000,1907235,1000,12,0,1,124.283,0.326,1.994,564.294,-1.542,1.063
1782117462.623307,0.476000,1907236,1000,12,0,1,125.292,2.858,2.035,567.320,0.540,1.055
1782117462.624307,0.477000,1907237,1000,12,0,1,123.538,0.927,2.035,565.951,0.680,1.029
1782117462.625307,0.478000,1907238,1000,12,0,1,124.811,1.874,1.992,565.855,-0.891,1.031
1782117462.626307,0.479000,1907239,1000,12,0,1,128.487,5.004,2.113,566.407,0.594,1.011
1782117462.627307,0.480000,1907240,1000,12,0,1,130.336,6.187,2.286,566.960,0.468,0.992
1782117462.628307,0.481000,1907241,1000,12,0,1,129.063,4.091,2.349,566.552,0.495,0.994
1782117462.629307,0.482000,1907242,1000,12,0,1,128.583,2.191,2.363,567.104,0.504,0.989
1782117462.630307,0.483000,1907243,1000,12,0,1,131.345,3.674,2.393,566.191,0.105,0.973
1782117462.631307,0.484000,1907244,1000,12,0,1,131.729,3.539,2.438,565.182,-1.060,0.983
1782117462.632307,0.485000,1907245,1000,12,0,1,134.780,4.266,2.511,566.696,0.216,0.983
1782117462.633307,0.486000,1907246,1000,12,0,1,135.573,4.865,2.604,566.215,0.511,0.981
1782117462.634307,0.487000,1907247,1000,12,0,1,135.789,3.065,2.639,565.759,-0.534,0.984
1782117462.635307,0.488000,1907248,1000,12,0,1,132.618,0.304,2.632,566.720,0.704,0.986
1782117462.636307,0.489000,1907249,1000,12,0,1,135.933,1.079,2.632,567.104,0.911,0.993
1782117462.637307,0.490000,1907250,1000,12,0,1,135.477,2.323,2.648,565.735,-0.133,0.993
1782117462.638307,0.491000,1907251,1000,12,0,1,134.059,-0.720,2.647,565.663,-0.675,0.976
1782117462.639307,0.492000,1907252,1000,12,0,1,134.516,0.202,2.615,563.957,-1.469,0.982
1782117462.640307,0.493000,1907253,1000,12,0,1,132.090,-1.651,2.565,566.095,-0.437,0.955
1782117462.641307,0.494000,1907254,1000,12,0,1,131.129,-2.935,2.595,565.903,0.718,0.912
1782117462.642307,0.495000,1907255,1000,12,0,1,132.066,-1.221,2.598,566.528,0.096,0.910
1782117462.643307,0.496000,1907256,1000,12,0,1,129.808,-2.821,2.627,567.368,1.458,0.925
1782117462.644307,0.497000,1907257,1000,12,0,1,125.172,-6.366,2.765,566.600,0.358,0.909
1782117462.645307,0.498000,1907258,1000,12,0,1,127.069,-5.096,2.857,565.831,-0.507,0.911
1782117462.646307,0.499000,1907259,1000,12,0,1,128.823,-1.644,2.866,564.630,-1.349,0.931
1782117462.647307,0.500000,1907260,1000,12,0,1,127.622,-3.048,2.875,566.167,-0.449,0.926
1782117462.648307,0.501000,1907261,1000,12,0,1,128.222,-2.473,2.857,567.152,1.247,0.915
1782117462.649307,0.502000,1907262,1000,12,0,1,129.904,-0.947,2.860,568.353,1.546,0.923
1782117462.650307,0.503000,1907263,1000,12,0,1,132.138,0.692,2.850,566.792,0.810,0.929
1782117462.651307,0.504000,1907264,1000,12,0,1,133.627,1.729,2.841,567.008,-0.142,0.903
1782117462.652307,0.505000,1907265,1000,12,0,1,130.624,-1.154,2.835,565.543,-0.402,0.904
1782117462.653307,0.506000,1907266,1000,12,0,1,128.919,-3.541,2.878,567.176,-0.085,0.874
1782117462.654307,0.507000,1907267,1000,12,0,1,128.198,-3.463,2.918,564.101,-1.101,0.826
1782117462.655307,0.508000,1907268,1000,12,0,1,128.198,-3.194,2.929,564.101,-2.627,0.830
1782117462.656307,0.509000,1907269,1000,12,0,1,128.415,-2.096,2.916,563.141,-1.603,0.860
1782117462.657307,0.510000,1907270,1000,12,0,1,131.417,0.765,2.914,563.141,-2.285,0.911
1782117462.658307,0.511000,1907271,1000,12,0,1,135.645,5.115,2.981,562.540,-1.619,0.937
1782117462.659307,0.512000,1907272,1000,12,0,1,134.900,4.834,3.025,567.440,1.855,0.971
1782117462.660307,0.513000,1907273,1000,12,0,1,134.203,3.123,3.054,566.504,2.664,1.038
1782117462.661307,0.514000,1907274,1000,12,0,1,134.396,3.528,3.092,564.798,-0.513,1.037
1782117462.662307,0.515000,1907275,1000,12,0,1,133.291,2.201,3.096,565.399,0.361,1.024
1782117462.663307,0.516000,1907276,1000,12,0,1,130.312,-0.323,3.097,566.143,0.930,1.029
1782117462.664307,0.517000,1907277,1000,12,0,1,124.331,-5.275,3.178,564.750,-0.303,1.028
1782117462.665307,0.518000,1907278,1000,12,0,1,118.158,-10.110,3.446,563.669,-1.358,1.045
1782117462.666307,0.519000,1907279,1000,12,0,1,114.915,-11.554,3.774,564.198,-0.962,1.045
1782117462.667307,0.520000,1907280,1000,12,0,1,106.700,-15.716,4.378,565.302,0.503,1.047
1782117462.668307,0.521000,1907281,1000,12,0,1,97.524,-21.806,5.326,565.327,0.447,1.048
1782117462.669307,0.522000,1907282,1000,12,0,1,93.272,-21.857,6.121,565.663,0.786,1.053
1782117462.670307,0.523000,1907283,1000,12,0,1,86.090,-23.030,6.934,564.918,0.201,1.051
1782117462.671307,0.524000,1907284,1000,12,0,1,75.761,-27.649,7.960,565.062,0.159,1.049
1782117462.672307,0.525000,1907285,1000,12,0,1,73.816,-24.724,8.694,565.807,0.972,1.035
1782117462.673307,0.526000,1907286,1000,12,0,1,81.742,-12.266,8.856,564.678,0.211,1.033
1782117462.674307,0.527000,1907287,1000,12,0,1,101.319,8.039,8.928,565.278,0.230,1.029
1782117462.675307,0.528000,1907288,1000,12,0,1,132.546,35.950,10.271,565.687,1.143,1.034
1782117462.676307,0.529000,1907289,1000,12,0,1,159.569,57.288,13.062,565.951,0.906,1.039
1782117462.677307,0.530000,1907290,1000,12,0,1,170.186,59.524,15.515,565.471,0.704,1.041
1782117462.678307,0.531000,1907291,1000,12,0,1,174.294,52.760,17.206,566.816,1.222,1.053
1782117462.679307,0.532000,1907292,1000,12,0,1,172.853,42.934,18.244,568.137,2.577,1.112
1782117462.680307,0.533000,1907293,1000,12,0,1,159.329,23.660,18.541,566.359,0.711,1.117
1782117462.681307,0.534000,1907294,1000,12,0,1,140.929,1.659,18.535,566.359,-0.143,1.107
1782117462.682307,0.535000,1907295,1000,12,0,1,128.006,-11.955,18.602,565.831,-0.147,1.106
1782117462.683307,0.536000,1907296,1000,12,0,1,125.004,-14.147,18.697,565.879,-0.771,1.109
1782117462.684307,0.537000,1907297,1000,12,0,1,124.667,-11.652,18.765,564.270,-1.511,1.127
1782117462.685307,0.538000,1907298,1000,12,0,1,130.576,-5.638,18.781,566.191,-0.745,1.128
1782117462.686307,0.539000,1907299,1000,12,0,1,134.996,0.676,18.781,565.711,0.149,1.121
1782117462.687307,0.540000,1907300,1000,12,0,1,143.091,5.998,18.797,567.440,0.349,1.122
1782117462.688307,0.541000,1907301,1000,12,0,1,149.144,11.223,18.864,565.663,0.148,1.118
1782117462.689307,0.542000,1907302,1000,12,0,1,149.529,8.335,18.901,566.984,-0.306,1.099
1782117462.690307,0.543000,1907303,1000,12,0,1,149.649,5.067,18.913,568.065,1.835,1.128
1782117462.691307,0.544000,1907304,1000,12,0,1,147.271,0.456,18.908,566.792,0.080,1.123
1782117462.692307,0.545000,1907305,1000,12,0,1,144.917,-4.869,18.920,566.215,-0.582,1.126
1782117462.693307,0.546000,1907306,1000,12,0,1,143.716,-7.398,18.945,563.333,-2.468,1.161
1782117462.694307,0.547000,1907307,1000,12,0,1,144.797,-8.319,18.960,563.669,-2.893,1.230
1782117462.695307,0.548000,1907308,1000,12,0,1,146.118,-7.519,18.976,565.519,0.057,1.228
1782117462.696307,0.549000,1907309,1000,12,0,1,142.587,-10.929,19.037,564.918,-0.549,1.215
1782117462.697307,0.550000,1907310,1000,12,0,1,139.536,-13.945,19.135,566.071,0.392,1.215
1782117462.698307,0.551000,1907311,1000,12,0,1,140.065,-12.385,19.211,565.543,0.367,1.203
1782117462.699307,0.552000,1907312,1000,12,0,1,136.533,-13.072,19.300,566.600,0.585,1.186
1782117462.700307,0.553000,1907313,1000,12,0,1,134.059,-14.003,19.401,567.320,1.665,1.204
1782117462.701307,0.554000,1907314,1000,12,0,1,133.723,-11.144,19.463,566.383,0.363,1.205
1782117462.702307,0.555000,1907315,1000,12,0,1,133.651,-8.642,19.501,565.615,-0.492,1.205
1782117462.703307,0.556000,1907316,1000,12,0,1,133.963,-5.730,19.511,565.567,-0.615,1.208
1782117462.704307,0.557000,1907317,1000,12,0,1,139.128,0.297,19.505,564.198,-1.543,1.218
1782117462.705307,0.558000,1907318,1000,12,0,1,142.419,5.306,19.514,566.071,-0.370,1.161
1782117462.706307,0.559000,1907319,1000,12,0,1,139.608,3.113,19.517,565.711,0.320,1.140
1782117462.707307,0.560000,1907320,1000,12,0,1,140.305,2.707,19.520,564.438,-1.407,1.111
1782117462.708307,0.561000,1907321,1000,12,0,1,141.674,4.420,19.517,564.918,-0.679,1.091
1782117462.709307,0.562000,1907322,1000,12,0,1,141.626,3.150,19.510,566.119,0.540,1.062
1782117462.710307,0.563000,1907323,1000,12,0,1,140.089,1.184,19.506,567.032,1.395,1.012
1782117462.711307,0.564000,1907324,1000,12,0,1,139.296,-0.982,19.500,566.191,0.791,1.016
1782117462.712307,0.565000,1907325,1000,12,0,1,137.038,-3.203,19.503,565.879,0.037,1.015
1782117462.713307,0.566000,1907326,1000,12,0,1,133.051,-7.345,19.530,565.759,0.267,1.007
1782117462.714307,0.567000,1907327,1000,12,0,1,133.147,-7.578,19.545,565.206,-0.372,1.007
1782117462.715307,0.568000,1907328,1000,12,0,1,134.107,-5.614,19.509,564.270,-0.936,0.997
1782117462.716307,0.569000,1907329,1000,12,0,1,133.603,-5.598,19.457,565.302,-0.261,0.989
1782117462.717307,0.570000,1907330,1000,12,0,1,132.666,-5.444,19.345,566.143,0.979,0.996
1782117462.718307,0.571000,1907331,1000,12,0,1,130.288,-6.259,19.118,565.086,-0.066,0.994
1782117462.719307,0.572000,1907332,1000,12,0,1,128.847,-6.172,18.887,565.302,-0.186,0.988
1782117462.720307,0.573000,1907333,1000,12,0,1,127.574,-5.086,18.617,566.095,0.714,0.993
1782117462.721307,0.574000,1907334,1000,12,0,1,124.211,-5.758,18.220,564.726,-0.438,0.995
1782117462.722307,0.575000,1907335,1000,12,0,1,124.859,-3.572,17.889,563.405,-1.810,1.018
1782117462.723307,0.576000,1907336,1000,12,0,1,122.289,-2.348,17.808,564.750,-0.629,1.021
1782117462.724307,0.577000,1907337,1000,12,0,1,117.317,-5.300,17.787,564.582,-0.130,1.021
1782117462.725307,0.578000,1907338,1000,12,0,1,111.192,-7.745,17.080,565.519,0.132,1.008
1782117462.726307,0.579000,1907339,1000,12,0,1,105.283,-10.547,15.110,566.792,1.675,1.028
1782117462.727307,0.580000,1907340,1000,12,0,1,108.958,-5.349,12.571,567.224,1.669,1.050
1782117462.728307,0.581000,1907341,1000,12,0,1,125.340,10.770,10.231,564.870,-0.216,1.036
1782117462.729307,0.582000,1907342,1000,12,0,1,147.415,29.709,9.245,566.864,0.475,0.972
1782117462.730307,0.583000,1907343,1000,12,0,1,155.005,34.541,9.906,565.639,0.736,0.972
1782117462.731307,0.584000,1907344,1000,12,0,1,154.165,26.646,10.596,565.663,-0.585,0.976
1782117462.732307,0.585000,1907345,1000,12,0,1,150.201,18.404,10.779,565.495,0.288,0.976
1782117462.733307,0.586000,1907346,1000,12,0,1,139.536,4.742,10.613,565.879,-0.006,0.970
1782117462.734307,0.587000,1907347,1000,12,0,1,124.331,-10.889,10.597,566.215,0.720,0.952
1782117462.735307,0.588000,1907348,1000,12,0,1,108.790,-24.228,11.109,564.750,-0.537,0.949
1782117462.736307,0.589000,1907349,1000,12,0,1,100.238,-29.407,11.861,563.645,-1.727,0.980
1782117462.737307,0.590000,1907350,1000,12,0,1,95.410,-28.056,12.478,564.438,-0.698,0.983
1782117462.738307,0.591000,1907351,1000,12,0,1,91.735,-25.981,12.911,567.681,1.926,1.020
1782117462.739307,0.592000,1907352,1000,12,0,1,107.252,-8.910,12.919,567.104,2.155,1.064
1782117462.740307,0.593000,1907353,1000,12,0,1,132.066,17.843,13.143,564.870,-0.883,1.039
1782117462.741307,0.594000,1907354,1000,12,0,1,138.191,24.943,13.608,566.383,0.303,1.040
1782117462.742307,0.595000,1907355,1000,12,0,1,141.362,23.061,13.977,568.065,1.904,1.071
1782117462.743307,0.596000,1907356,1000,12,0,1,141.746,22.181,14.286,566.287,0.290,1.014
1782117462.744307,0.597000,1907357,1000,12,0,1,142.659,18.257,14.470,565.543,-1.082,0.940
1782117462.745307,0.598000,1907358,1000,12,0,1,145.493,18.413,14.664,567.344,0.565,0.943
1782117462.746307,0.599000,1907359,1000,12,0,1,158.248,24.428,14.986,567.921,1.223,0.956
1782117462.747307,0.600000,1907360,1000,12,0,1,160.650,24.990,15.270,567.584,0.514,0.957
1782117462.748307,0.601000,1907361,1000,12,0,1,158.248,15.702,15.331,567.368,0.216,0.956
1782117462.749307,0.602000,1907362,1000,12,0,1,156.327,10.472,15.291,567.705,0.270,0.953
1782117462.750307,0.603000,1907363,1000,12,0,1,152.075,3.035,15.168,565.927,-0.939,0.933
1782117462.751307,0.604000,1907364,1000,12,0,1,142.467,-7.391,15.122,566.311,-1.215,0.947
1782117462.752307,0.605000,1907365,1000,12,0,1,137.590,-13.525,15.194,566.335,-0.340,0.946
1782117462.753307,0.606000,1907366,1000,12,0,1,133.771,-15.600,15.332,565.519,-1.296,0.960
1782117462.754307,0.607000,1907367,1000,12,0,1,128.366,-19.032,15.566,565.038,-1.371,0.954
1782117462.755307,0.608000,1907368,1000,12,0,1,122.626,-21.977,15.855,563.477,-2.348,1.009
1782117462.756307,0.609000,1907369,1000,12,0,1,118.734,-22.376,16.162,563.789,-2.114,1.052
1782117462.757307,0.610000,1907370,1000,12,0,1,113.450,-23.231,16.488,565.783,0.247,1.033
1782117462.758307,0.611000,1907371,1000,12,0,1,105.571,-25.845,16.877,565.783,0.508,1.031
1782117462.759307,0.612000,1907372,1000,12,0,1,96.635,-29.113,17.366,565.278,-0.145,1.029
1782117462.760307,0.613000,1907373,1000,12,0,1,87.820,-31.023,17.911,562.828,-1.942,1.046
1782117462.761307,0.614000,1907374,1000,12,0,1,83.184,-29.442,18.388,564.942,-0.829,1.047
1782117462.762307,0.615000,1907375,1000,12,0,1,83.568,-22.519,18.656,566.335,1.558,1.070
1782117462.763307,0.616000,1907376,1000,12,0,1,82.319,-17.370,18.789,564.630,-0.417,1.071
1782117462.764307,0.617000,1907377,1000,12,0,1,89.933,-7.322,18.787,566.215,0.507,1.072
1782117462.765307,0.618000,1907378,1000,12,0,1,97.884,4.708,18.782,565.158,0.435,1.065
1782117462.766307,0.619000,1907379,1000,12,0,1,100.551,8.234,18.801,563.981,-1.465,1.085
1782117462.767307,0.620000,1907380,1000,12,0,1,103.913,11.495,18.855,564.125,-0.690,1.080
1782117462.768307,0.621000,1907381,1000,12,0,1,125.220,27.542,19.233,565.783,0.531,1.083
1782117462.769307,0.622000,1907382,1000,12,0,1,156.951,53.359,20.642,565.615,1.079,1.093
1782117462.770307,0.623000,1907383,1000,12,0,1,176.576,64.771,22.572,568.281,2.451,1.142
1782117462.771307,0.624000,1907384,1000,12,0,1,195.624,69.227,24.590,565.735,1.454,1.159
1782117462.772307,0.625000,1907385,1000,12,0,1,218.660,77.910,26.941,567.536,0.968,1.139
1782117462.773307,0.626000,1907386,1000,12,0,1,216.642,65.053,28.466,566.696,1.978,1.169
1782117462.774307,0.627000,1907387,1000,12,0,1,197.378,33.831,28.856,566.504,0.128,1.169
1782117462.775307,0.628000,1907388,1000,12,0,1,168.721,1.000,28.836,566.672,1.097,1.179
1782117462.776307,0.629000,1907389,1000,12,0,1,143.403,-26.299,29.036,564.726,-0.896,1.162
1782117462.777307,0.630000,1907390,1000,12,0,1,130.504,-36.237,29.475,566.071,-0.272,1.139
1782117462.778307,0.631000,1907391,1000,12,0,1,118.542,-41.228,30.008,565.519,0.308,1.139
1782117462.779307,0.632000,1907392,1000,12,0,1,110.711,-43.282,30.336,565.423,-0.871,1.144
1782117462.780307,0.633000,1907393,1000,12,0,1,108.285,-38.123,30.422,565.158,-0.211,1.139
1782117462.781307,0.634000,1907394,1000,12,0,1,108.117,-32.330,30.532,566.455,0.014,1.136
1782117462.782307,0.635000,1907395,1000,12,0,1,112.393,-23.450,30.601,564.942,-0.294,1.136
1782117462.783307,0.636000,1907396,1000,12,0,1,116.957,-15.363,30.671,565.783,-0.855,1.143
1782117462.784307,0.637000,1907397,1000,12,0,1,119.575,-10.967,30.671,566.792,0.975,1.147
1782117462.785307,0.638000,1907398,1000,12,0,1,114.891,-13.218,30.536,567.392,0.776,1.149
1782117462.786307,0.639000,1907399,1000,12,0,1,114.074,-14.616,30.322,565.735,-0.304,1.124
1782117462.787307,0.640000,1907400,1000,12,0,1,113.834,-12.500,30.114,563.429,-2.706,1.183
1782117462.788307,0.641000,1907401,1000,12,0,1,111.816,-13.751,29.952,565.663,-0.927,1.159
1782117462.789307,0.642000,1907402,1000,12,0,1,107.613,-15.350,30.004,563.957,-0.934,1.126
1782117462.790307,0.643000,1907403,1000,12,0,1,106.267,-15.034,29.973,563.621,-2.339,1.167
1782117462.791307,0.644000,1907404,1000,12,0,1,108.117,-10.261,29.800,565.903,0.802,1.171
1782117462.792307,0.645000,1907405,1000,12,0,1,114.771,-2.000,29.623,565.110,0.263,1.141
1782117462.793307,0.646000,1907406,1000,12,0,1,125.148,9.454,29.486,563.837,-0.930,1.147
1782117462.794307,0.647000,1907407,1000,12,0,1,136.774,20.687,29.518,564.606,-0.179,1.137
1782117462.795307,0.648000,1907408,1000,12,0,1,147.871,29.737,29.703,563.573,-0.468,1.137
1782117462.796307,0.649000,1907409,1000,12,0,1,156.038,35.063,29.915,564.558,-0.080,1.123
1782117462.797307,0.650000,1907410,1000,12,0,1,160.242,35.289,30.122,564.462,0.648,1.125
1782117462.798307,0.651000,1907411,1000,12,0,1,141.242,17.746,30.144,565.182,0.634,1.128
1782117462.799307,0.652000,1907412,1000,12,0,1,120.776,-5.301,30.117,565.975,1.682,1.152
1782117462.800307,0.653000,1907413,1000,12,0,1,109.150,-13.168,30.172,566.119,1.400,1.161
1782117462.801307,0.654000,1907414,1000,12,0,1,91.255,-25.007,30.360,565.278,0.541,1.151
1782117462.802307,0.655000,1907415,1000,12,0,1,71.413,-38.228,30.778,563.861,-0.889,1.157
1782117462.803307,0.656000,1907416,1000,12,0,1,65.600,-37.889,31.163,564.318,-0.780,1.148
1782117462.804307,0.657000,1907417,1000,12,0,1,63.270,-31.629,31.368,564.582,-0.049,1.131
1782117462.805307,0.658000,1907418,1000,12,0,1,61.949,-27.268,31.450,564.726,-0.226,1.082
1782117462.806307,0.659000,1907419,1000,12,0,1,76.842,-10.859,31.329,565.567,0.680,1.044
1782117462.807307,0.660000,1907420,1000,12,0,1,101.968,14.432,31.223,566.624,1.422,1.063
1782117462.808307,0.661000,1907421,1000,12,0,1,125.028,33.041,31.358,567.440,2.050,1.099
1782117462.809307,0.662000,1907422,1000,12,0,1,147.031,46.710,31.781,567.608,1.885,1.131
1782117462.810307,0.663000,1907423,1000,12,0,1,161.755,52.147,32.329,565.519,0.020,1.097
1782117462.811307,0.664000,1907424,1000,12,0,1,164.638,45.381,32.696,564.318,-1.503,1.111
1782117462.812307,0.665000,1907425,1000,12,0,1,178.618,45.707,33.176,563.597,-1.631,1.114
1782117462.813307,0.666000,1907426,1000,12,0,1,202.446,58.472,34.103,566.263,0.393,1.113
1782117462.814307,0.667000,1907427,1000,12,0,1,206.097,53.608,34.920,565.951,1.193,1.124
1782117462.815307,0.668000,1907428,1000,12,0,1,184.767,25.357,35.097,564.294,-1.024,1.131
1782117462.816307,0.669000,1907429,1000,12,0,1,155.966,-6.352,35.089,564.198,-0.854,1.119
1782117462.817307,0.670000,1907430,1000,12,0,1,130.360,-29.411,35.298,564.750,-0.263,1.115
1782117462.818307,0.671000,1907431,1000,12,0,1,121.521,-34.470,35.419,563.453,-1.067,1.123
1782117462.819307,0.672000,1907432,1000,12,0,1,113.209,-33.088,34.921,565.855,0.420,1.114
1782117462.820307,0.673000,1907433,1000,12,0,1,105.307,-34.643,34.052,566.311,1.687,1.085
1782117462.821307,0.674000,1907434,1000,12,0,1,108.261,-25.694,32.816,565.687,0.273,1.066
1782117462.822307,0.675000,1907435,1000,12,0,1,112.513,-15.850,30.993,565.399,0.070,1.057
1782117462.823307,0.676000,1907436,1000,12,0,1,112.777,-12.693,29.650,566.047,0.299,1.021
1782117462.824307,0.677000,1907437,1000,12,0,1,110.855,-12.722,29.317,566.504,0.704,1.025
1782117462.825307,0.678000,1907438,1000,12,0,1,109.390,-13.957,29.383,567.104,0.959,1.023
1782117462.826307,0.679000,1907439,1000,12,0,1,109.390,-13.891,29.213,567.440,1.047,1.025
1782117462.827307,0.680000,1907440,1000,12,0,1,109.510,-14.334,28.831,567.777,1.106,1.037
1782117462.828307,0.681000,1907441,1000,12,0,1,114.194,-11.417,28.281,566.552,-0.043,1.036
1782117462.829307,0.682000,1907442,1000,12,0,1,125.700,-2.550,27.613,565.375,-1.301,1.045
1782117462.830307,0.683000,1907443,1000,12,0,1,159.185,22.299,27.265,565.735,-0.942,1.053
1782117462.831307,0.684000,1907444,1000,12,0,1,181.164,40.872,27.493,562.997,-2.492,1.110
1782117462.832307,0.685000,1907445,1000,12,0,1,171.796,25.421,27.528,563.069,-3.008,1.188
1782117462.833307,0.686000,1907446,1000,12,0,1,142.178,-5.542,27.454,564.750,-0.296,1.183
1782117462.834307,0.687000,1907447,1000,12,0,1,124.619,-24.112,27.621,566.191,0.870,1.181
1782117462.835307,0.688000,1907448,1000,12,0,1,114.915,-26.387,27.809,567.945,2.541,1.230
1782117462.836307,0.689000,1907449,1000,12,0,1,118.302,-18.898,27.861,566.864,1.604,1.250
1782117462.837307,0.690000,1907450,1000,12,0,1,121.881,-6.625,27.820,565.927,0.018,1.190
1782117462.838307,0.691000,1907451,1000,12,0,1,126.325,1.448,27.753,565.302,-0.327,1.183
1782117462.839307,0.692000,1907452,1000,12,0,1,134.828,13.241,27.731,564.534,-1.249,1.189
1782117462.840307,0.693000,1907453,1000,12,0,1,135.164,16.694,27.750,565.038,-0.746,1.147
1782117462.841307,0.694000,1907454,1000,12,0,1,143.355,21.096,27.873,565.639,-0.096,1.141
1782117462.842307,0.695000,1907455,1000,12,0,1,144.244,23.497,28.069,566.071,0.201,1.141
1782117462.843307,0.696000,1907456,1000,12,0,1,133.435,9.021,28.066,564.942,-0.649,1.137
1782117462.844307,0.697000,1907457,1000,12,0,1,119.119,-5.681,27.924,565.206,-0.855,1.143
1782117462.845307,0.698000,1907458,1000,12,0,1,110.015,-16.737,27.707,566.023,0.257,1.142
1782117462.846307,0.699000,1907459,1000,12,0,1,99.061,-25.156,27.491,564.990,-0.590,1.145
1782117462.847307,0.700000,1907460,1000,12,0,1,94.858,-29.875,27.362,565.735,-0.267,1.142
1782117462.848307,0.701000,1907461,1000,12,0,1,100.190,-23.108,27.442,566.504,0.894,1.146
1782117462.849307,0.702000,1907462,1000,12,0,1,105.403,-16.655,27.533,565.182,-0.306,1.121
1782117462.850307,0.703000,1907463,1000,12,0,1,109.558,-12.469,27.527,565.351,-0.378,1.105
1782117462.851307,0.704000,1907464,1000,12,0,1,123.851,-0.253,27.298,564.558,-0.474,1.104
1782117462.852307,0.705000,1907465,1000,12,0,1,139.272,14.075,26.832,564.558,-0.762,1.103
1782117462.853307,0.706000,1907466,1000,12,0,1,146.478,19.306,26.433,564.678,-0.064,1.097
1782117462.854307,0.707000,1907467,1000,12,0,1,156.086,24.385,26.279,564.774,-0.064,1.097
1782117462.855307,0.708000,1907468,1000,12,0,1,174.102,37.724,26.536,565.206,0.509,1.099
1782117462.856307,0.709000,1907469,1000,12,0,1,182.557,43.051,27.182,566.504,1.497,1.115
1782117462.857307,0.710000,1907470,1000,12,0,1,166.199,25.828,27.350,566.023,1.246,1.111
1782117462.858307,0.711000,1907471,1000,12,0,1,141.698,0.521,26.948,564.870,-0.216,1.073
1782117462.859307,0.712000,1907472,1000,12,0,1,134.035,-6.495,26.142,564.438,-0.657,1.043
1782117462.860307,0.713000,1907473,1000,12,0,1,145.613,6.045,25.095,565.663,0.280,1.044
1782117462.861307,0.714000,1907474,1000,12,0,1,136.149,3.370,24.265,565.062,0.098,1.022
1782117462.862307,0.715000,1907475,1000,12,0,1,117.461,-15.300,23.488,565.351,-0.235,0.996
1782117462.863307,0.716000,1907476,1000,12,0,1,109.847,-19.796,22.162,564.702,-0.343,0.996
1782117462.864307,0.717000,1907477,1000,12,0,1,103.145,-22.514,21.067,565.951,0.110,0.982
1782117462.865307,0.718000,1907478,1000,12,0,1,94.714,-27.790,21.128,566.023,0.801,0.978
1782117462.866307,0.719000,1907479,1000,12,0,1,89.069,-30.347,21.541,568.233,1.803,1.003
1782117462.867307,0.720000,1907480,1000,12,0,1,88.420,-28.894,21.527,566.504,1.170,1.016
1782117462.868307,0.721000,1907481,1000,12,0,1,96.059,-20.392,21.165,565.302,-1.135,1.017
1782117462.869307,0.722000,1907482,1000,12,0,1,111.960,-5.920,20.658,565.399,-0.426,1.017
1782117462.870307,0.723000,1907483,1000,12,0,1,108.093,-6.590,20.091,565.711,-0.249,0.990
1782117462.871307,0.724000,1907484,1000,12,0,1,100.142,-17.280,19.910,567.464,1.258,1.005
1782117462.872307,0.725000,1907485,1000,12,0,1,116.548,-3.014,19.788,566.672,1.080,1.016
1782117462.873307,0.726000,1907486,1000,12,0,1,135.260,16.242,19.840,567.320,0.646,1.020
1782117462.874307,0.727000,1907487,1000,12,0,1,138.575,18.696,19.934,565.134,-0.231,1.015
1782117462.875307,0.728000,1907488,1000,12,0,1,141.362,18.770,20.013,564.101,-2.262,1.056
1782117462.876307,0.729000,1907489,1000,12,0,1,148.640,24.634,20.219,564.870,-0.668,1.050
1782117462.877307,0.730000,1907490,1000,12,0,1,144.869,22.320,20.363,566.071,0.151,1.038
1782117462.878307,0.731000,1907491,1000,12,0,1,133.867,11.690,20.366,566.119,0.565,1.041
1782117462.879307,0.732000,1907492,1000,12,0,1,126.733,6.603,20.384,565.014,-0.659,1.029
1782117462.880307,0.733000,1907493,1000,12,0,1,137.518,16.243,20.269,563.501,-1.964,1.057
1782117462.881307,0.734000,1907494,1000,12,0,1,137.927,21.176,19.657,564.702,-1.071,1.008
1782117462.882307,0.735000,1907495,1000,12,0,1,141.602,19.630,19.524,563.549,-1.261,0.931
1782117462.883307,0.736000,1907496,1000,12,0,1,155.053,30.367,19.975,566.191,0.118,0.931
1782117462.884307,0.737000,1907497,1000,12,0,1,159.041,29.796,20.128,563.837,-0.330,0.924
1782117462.885307,0.738000,1907498,1000,12,0,1,147.943,13.928,19.877,563.501,-2.212,0.907
1782117462.886307,0.739000,1907499,1000,12,0,1,144.196,2.549,19.700,564.702,0.115,0.878
1782117462.887307,0.740000,1907500,1000,12,0,1,140.785,-3.848,19.685,565.591,0.550,0.881
1782117462.888307,0.741000,1907501,1000,12,0,1,128.222,-18.847,19.864,565.639,0.889,0.889
1782117462.889307,0.742000,1907502,1000,12,0,1,119.959,-29.790,20.219,565.062,0.305,0.872
1782117462.890307,0.743000,1907503,1000,12,0,1,117.005,-31.705,20.575,566.672,1.303,0.885
1782117462.891307,0.744000,1907504,1000,12,0,1,112.153,-34.678,20.940,566.840,2.089,0.933
1782117462.892307,0.745000,1907505,1000,12,0,1,111.960,-32.625,21.183,566.407,0.900,0.941
1782117462.893307,0.746000,1907506,1000,12,0,1,114.483,-26.306,21.470,566.239,1.043,0.949
1782117462.894307,0.747000,1907507,1000,12,0,1,114.483,-21.681,21.673,566.239,0.611,0.945
1782117462.895307,0.748000,1907508,1000,12,0,1,117.725,-14.995,21.647,564.462,-0.517,0.947
1782117462.896307,0.749000,1907509,1000,12,0,1,119.215,-7.808,21.381,566.071,0.058,0.943
1782117462.897307,0.750000,1907510,1000,12,0,1,115.083,-6.877,20.982,565.182,0.448,0.945
1782117462.898307,0.751000,1907511,1000,12,0,1,112.249,-4.827,20.737,565.495,-0.430,0.938
1782117462.899307,0.752000,1907512,1000,12,0,1,120.079,5.922,20.620,565.375,0.305,0.938
1782117462.900307,0.753000,1907513,1000,12,0,1,141.626,27.577,20.912,566.143,0.213,0.937
1782117462.901307,0.754000,1907514,1000,12,0,1,148.400,36.485,21.539,565.038,-0.177,0.935
1782117462.902307,0.755000,1907515,1000,12,0,1,142.755,27.203,21.789,565.230,-0.769,0.935
1782117462.903307,0.756000,1907516,1000,12,0,1,143.499,24.027,21.883,566.912,0.940,0.944
1782117462.904307,0.757000,1907517,1000,12,0,1,137.350,16.766,21.739,567.032,1.054,0.956
1782117462.905307,0.758000,1907518,1000,12,0,1,135.621,9.283,21.115,566.359,-0.029,0.953
1782117462.906307,0.759000,1907519,1000,12,0,1,140.665,11.228,20.280,565.663,-0.571,0.933
1782117462.907307,0.760000,1907520,1000,12,0,1,138.335,5.629,19.965,565.519,-0.978,0.927
1782117462.908307,0.761000,1907521,1000,12,0,1,129.255,-6.417,19.985,564.558,-1.316,0.945
1782117462.909307,0.762000,1907522,1000,12,0,1,123.298,-15.000,20.076,564.798,-1.404,0.961
1782117462.910307,0.763000,1907523,1000,12,0,1,129.736,-11.543,20.124,563.453,-1.632,0.987
1782117462.911307,0.764000,1907524,1000,12,0,1,131.345,-8.863,20.158,562.876,-2.434,1.046
1782117462.912307,0.765000,1907525,1000,12,0,1,122.553,-17.592,20.195,565.062,0.082,1.045
1782117462.913307,0.766000,1907526,1000,12,0,1,118.878,-20.682,20.213,565.230,0.817,1.050
1782117462.914307,0.767000,1907527,1000,12,0,1,127.021,-11.489,20.027,566.648,1.489,1.071
1782117462.915307,0.768000,1907528,1000,12,0,1,144.773,6.196,19.657,567.440,2.643,1.129
1782117462.916307,0.769000,1907529,1000,12,0,1,153.468,16.419,19.323,566.984,1.592,1.122
1782117462.917307,0.770000,1907530,1000,12,0,1,147.007,10.174,18.940,566.263,0.848,1.117
1782117462.918307,0.771000,1907531,1000,12,0,1,133.699,-1.380,18.720,564.486,-0.880,1.112
1782117462.919307,0.772000,1907532,1000,12,0,1,125.412,-7.640,18.733,564.390,-1.246,1.124
1782117462.920307,0.773000,1907533,1000,12,0,1,120.992,-7.643,18.741,565.014,-0.317,1.125
1782117462.921307,0.774000,1907534,1000,12,0,1,111.768,-11.416,18.651,565.351,-0.094,1.111
1782117462.922307,0.775000,1907535,1000,12,0,1,97.356,-19.954,18.858,565.999,0.467,1.102
1782117462.923307,0.776000,1907536,1000,12,0,1,82.943,-27.756,19.125,565.999,0.437,1.100
1782117462.924307,0.777000,1907537,1000,12,0,1,82.703,-23.877,19.240,564.942,-0.572,1.102
1782117462.925307,0.778000,1907538,1000,12,0,1,94.738,-7.828,19.088,564.222,-1.319,1.071
1782117462.926307,0.779000,1907539,1000,12,0,1,108.886,6.922,18.793,566.143,0.257,1.068
1782117462.927307,0.780000,1907540,1000,12,0,1,121.016,16.879,18.679,566.672,1.235,1.082
1782117462.928307,0.781000,1907541,1000,12,0,1,123.490,16.563,18.753,564.294,-1.036,1.089
1782117462.929307,0.782000,1907542,1000,12,0,1,128.655,14.959,18.849,567.584,1.022,1.094
1782117462.930307,0.783000,1907543,1000,12,0,1,140.689,21.200,18.947,568.449,2.984,1.140
1782117462.931307,0.784000,1907544,1000,12,0,1,147.703,22.624,18.980,564.870,-0.970,1.138
1782117462.932307,0.785000,1907545,1000,12,0,1,142.371,13.118,18.868,561.988,-3.461,1.226
1782117462.933307,0.786000,1907546,1000,12,0,1,122.361,-7.501,18.403,561.940,-3.247,1.309
1782117462.934307,0.787000,1907547,1000,12,0,1,108.405,-22.052,18.184,563.669,-1.034,1.316
1782117462.935307,0.788000,1907548,1000,12,0,1,105.163,-20.900,18.317,566.287,1.584,1.298
1782117462.936307,0.789000,1907549,1000,12,0,1,106.484,-15.077,18.437,564.270,0.430,1.299
1782117462.937307,0.790000,1907550,1000,12,0,1,119.719,0.456,18.429,564.294,-0.555,1.299
1782117462.938307,0.791000,1907551,1000,12,0,1,138.767,21.236,18.481,566.744,2.087,1.326
1782117462.939307,0.792000,1907552,1000,12,0,1,152.315,33.818,18.619,566.407,1.798,1.350
1782117462.940307,0.793000,1907553,1000,12,0,1,154.669,34.295,18.710,566.840,1.338,1.350
1782117462.941307,0.794000,1907554,1000,12,0,1,153.924,29.132,18.520,565.639,0.652,1.321
1782117462.942307,0.795000,1907555,1000,12,0,1,147.991,21.168,18.185,565.927,-0.128,1.315
1782117462.943307,0.796000,1907556,1000,12,0,1,147.991,15.677,17.937,565.927,0.484,1.308
1782117462.944307,0.797000,1907557,1000,12,0,1,120.512,-6.324,17.696,564.270,-1.379,1.320
1782117462.945307,0.798000,1907558,1000,12,0,1,104.850,-27.874,18.005,564.222,-1.440,1.334
1782117462.946307,0.799000,1907559,1000,12,0,1,111.840,-17.629,18.144,564.438,-0.856,1.339
1782117462.947307,0.800000,1907560,1000,12,0,1,133.531,0.083,18.117,563.549,-1.443,1.353
1782117462.948307,0.801000,1907561,1000,12,0,1,137.062,5.561,18.122,565.543,0.133,1.352
1782117462.949307,0.802000,1907562,1000,12,0,1,142.851,2.769,18.107,565.062,0.594,1.354
1782117462.950307,0.803000,1907563,1000,12,0,1,152.339,9.254,17.730,563.957,-0.942,1.360
1782117462.951307,0.804000,1907564,1000,12,0,1,157.936,9.172,17.012,562.348,-1.726,1.381
1782117462.952307,0.805000,1907565,1000,12,0,1,157.864,4.920,16.586,564.342,-0.409,1.378
1782117462.953307,0.806000,1907566,1000,12,0,1,152.483,-2.719,16.239,564.894,1.191,1.382
1782117462.954307,0.807000,1907567,1000,12,0,1,146.838,-10.304,16.131,565.375,0.924,1.380
1782117462.955307,0.808000,1907568,1000,12,0,1,134.780,-18.412,16.287,565.399,1.301,1.393
1782117462.956307,0.809000,1907569,1000,12,0,1,126.229,-25.356,16.601,566.359,1.567,1.408
1782117462.957307,0.810000,1907570,1000,12,0,1,119.647,-24.284,16.934,566.984,2.150,1.434
1782117462.958307,0.811000,1907571,1000,12,0,1,119.863,-20.189,17.149,564.246,-0.293,1.422
1782117462.959307,0.812000,1907572,1000,12,0,1,116.933,-14.373,17.138,565.831,-0.081,1.408
1782117462.960307,0.813000,1907573,1000,12,0,1,116.116,-11.654,17.140,566.263,1.450,1.404
1782117462.961307,0.814000,1907574,1000,12,0,1,113.065,-7.718,17.128,564.870,-0.725,1.365
1782117462.962307,0.815000,1907575,1000,12,0,1,102.905,-12.828,17.044,564.029,-1.145,1.375
1782117462.963307,0.816000,1907576,1000,12,0,1,116.452,-0.754,16.791,567.440,1.163,1.380
1782117462.964307,0.817000,1907577,1000,12,0,1,116.452,7.006,16.742,567.440,2.195,1.398
1782117462.965307,0.818000,1907578,1000,12,0,1,133.531,14.053,16.836,566.239,-0.048,1.348
1782117462.966307,0.819000,1907579,1000,12,0,1,116.092,7.280,16.707,566.383,0.214,1.329
1782117462.967307,0.820000,1907580,1000,12,0,1,110.663,-11.098,16.719,566.840,0.443,1.325
1782117462.968307,0.821000,1907581,1000,12,0,1,114.386,-1.458,16.719,567.584,0.934,1.326
1782117462.969307,0.822000,1907582,1000,12,0,1,116.644,-4.303,16.695,566.455,0.160,1.314
1782117462.970307,0.823000,1907583,1000,12,0,1,142.539,15.527,16.804,565.519,-1.207,1.325
1782117462.971307,0.824000,1907584,1000,12,0,1,168.265,37.431,17.544,567.993,0.979,1.332
1782117462.972307,0.825000,1907585,1000,12,0,1,176.504,36.933,18.086,565.399,-0.486,1.332
1782117462.973307,0.826000,1907586,1000,12,0,1,173.958,28.564,18.112,564.894,-2.104,1.363
1782117462.974307,0.827000,1907587,1000,12,0,1,177.417,22.408,18.074,565.543,-0.508,1.363
1782117462.975307,0.828000,1907588,1000,12,0,1,178.089,21.300,18.290,564.942,-1.190,1.360
1782117462.976307,0.829000,1907589,1000,12,0,1,167.520,7.452,18.294,565.110,-0.927,1.366
1782117462.977307,0.830000,1907590,1000,12,0,1,143.956,-12.397,18.222,566.071,0.062,1.355
1782117462.978307,0.831000,1907591,1000,12,0,1,122.169,-31.142,18.600,566.335,0.327,1.348
1782117462.979307,0.832000,1907592,1000,12,0,1,119.094,-28.506,18.914,566.215,0.146,1.340
1782117462.980307,0.833000,1907593,1000,12,0,1,134.972,-8.620,18.714,564.366,-1.406,1.288
1782117462.981307,0.834000,1907594,1000,12,0,1,145.181,6.737,18.464,564.510,-1.608,1.300
1782117462.982307,0.835000,1907595,1000,12,0,1,145.805,7.731,18.403,564.342,-1.104,1.215
1782117462.983307,0.836000,1907596,1000,12,0,1,150.586,10.396,18.431,563.717,-1.689,1.150
1782117462.984307,0.837000,1907597,1000,12,0,1,155.005,13.109,18.259,565.447,-0.128,1.140
1782117462.985307,0.838000,1907598,1000,12,0,1,152.747,7.600,18.051,566.768,1.502,1.138
1782117462.986307,0.839000,1907599,1000,12,0,1,152.147,2.539,17.928,566.864,1.281,1.151
1782117462.987307,0.840000,1907600,1000,12,0,1,152.868,-0.468,17.928,565.495,0.178,1.149
1782117462.988307,0.841000,1907601,1000,12,0,1,146.406,-8.950,17.720,566.480,0.401,1.111
1782117462.989307,0.842000,1907602,1000,12,0,1,146.358,-13.620,17.170,565.351,0.257,1.083
1782117462.990307,0.843000,1907603,1000,12,0,1,159.689,-3.720,16.480,565.759,-0.288,1.067
1782117462.991307,0.844000,1907604,1000,12,0,1,166.247,1.388,15.958,565.639,0.485,1.065
1782117462.992307,0.845000,1907605,1000,12,0,1,161.971,-5.139,15.691,565.951,0.174,1.065
1782117462.993307,0.846000,1907606,1000,12,0,1,157.648,-10.624,15.606,564.990,-0.070,1.063
1782117462.994307,0.847000,1907607,1000,12,0,1,152.291,-14.173,15.709,564.918,-0.594,1.048
1782117462.995307,0.848000,1907608,1000,12,0,1,148.712,-15.568,15.365,565.807,0.514,1.031
1782117462.996307,0.849000,1907609,1000,12,0,1,145.541,-14.120,15.292,563.981,-0.735,1.029
1782117462.997307,0.850000,1907610,1000,12,0,1,142.347,-12.766,15.398,564.582,-0.913,1.017
1782117462.998307,0.851000,1907611,1000,12,0,1,134.900,-13.587,15.498,566.600,1.549,1.040
1782117462.999307,0.852000,1907612,1000,12,0,1,132.738,-11.629,15.580,566.239,1.011,1.046
1782117463.000307,0.853000,1907613,1000,12,0,1,142.851,1.871,15.527,564.606,-0.543,1.041
1782117463.001307,0.854000,1907614,1000,12,0,1,146.910,10.205,15.540,566.960,0.798,1.018
1782117463.002307,0.855000,1907615,1000,12,0,1,147.511,10.261,15.592,565.351,0.479,1.019
1782117463.003307,0.856000,1907616,1000,12,0,1,151.402,13.432,15.703,564.342,-1.698,1.033
1782117463.004307,0.857000,1907617,1000,12,0,1,161.587,19.452,15.875,566.191,0.493,1.027
1782117463.005307,0.858000,1907618,1000,12,0,1,161.635,17.908,15.864,566.431,0.792,1.016
1782117463.006307,0.859000,1907619,1000,12,0,1,157.624,7.948,15.494,566.383,0.411,0.994
1782117463.007307,0.860000,1907620,1000,12,0,1,152.075,-0.120,15.108,565.591,-0.062,0.946
1782117463.008307,0.861000,1907621,1000,12,0,1,150.249,-6.234,14.862,564.342,-1.389,0.965
1782117463.009307,0.862000,1907622,1000,12,0,1,149.529,-8.339,14.770,564.630,-0.935,0.974
1782117463.010307,0.863000,1907623,1000,12,0,1,150.658,-9.494,14.739,563.669,-1.285,0.970
1782117463.011307,0.864000,1907624,1000,12,0,1,156.975,-5.147,14.716,564.318,-0.872,0.972
1782117463.012307,0.865000,1907625,1000,12,0,1,157.528,-3.919,14.615,566.095,1.168,0.973
1782117463.013307,0.866000,1907626,1000,12,0,1,157.047,-5.875,14.638,566.768,1.781,0.991
1782117463.014307,0.867000,1907627,1000,12,0,1,156.158,-4.821,14.620,566.552,1.374,0.961
1782117463.015307,0.868000,1907628,1000,12,0,1,152.267,-6.979,14.518,565.543,0.363,0.963
1782117463.016307,0.869000,1907629,1000,12,0,1,148.544,-7.512,14.520,565.423,-0.095,0.962
1782117463.017307,0.870000,1907630,1000,12,0,1,144.388,-7.646,14.476,564.990,-0.216,0.961
1782117463.018307,0.871000,1907631,1000,12,0,1,139.656,-7.835,14.517,564.942,-0.539,0.954
1782117463.019307,0.872000,1907632,1000,12,0,1,139.560,-4.358,14.517,566.407,0.778,0.961
1782117463.020307,0.873000,1907633,1000,12,0,1,140.929,0.970,14.351,566.383,0.902,0.954
1782117463.021307,0.874000,1907634,1000,12,0,1,141.938,4.180,13.352,568.017,1.582,0.970
1782117463.022307,0.875000,1907635,1000,12,0,1,151.474,12.636,12.417,567.681,1.692,0.997
1782117463.023307,0.876000,1907636,1000,12,0,1,156.927,18.400,12.026,566.095,-0.521,0.954
1782117463.024307,0.877000,1907637,1000,12,0,1,160.482,17.368,11.859,565.254,-1.203,0.966
1782117463.025307,0.878000,1907638,1000,12,0,1,160.530,14.779,11.658,566.359,-0.437,0.954
1782117463.026307,0.879000,1907639,1000,12,0,1,158.272,7.676,11.661,565.999,-0.214,0.945
1782117463.027307,0.880000,1907640,1000,12,0,1,157.552,3.131,11.537,564.582,-1.647,0.973
1782117463.028307,0.881000,1907641,1000,12,0,1,160.170,1.514,10.666,566.383,-0.220,0.973
1782117463.029307,0.882000,1907642,1000,12,0,1,167.280,4.150,9.892,568.041,1.824,1.006
1782117463.030307,0.883000,1907643,1000,12,0,1,167.160,2.167,9.821,566.864,0.589,0.990
1782117463.031307,0.884000,1907644,1000,12,0,1,163.076,-5.237,9.803,563.405,-2.349,1.019
1782117463.032307,0.885000,1907645,1000,12,0,1,158.272,-10.012,9.844,563.453,-2.744,1.079
1782117463.033307,0.886000,1907646,1000,12,0,1,149.457,-17.159,10.032,566.191,0.464,1.054
1782117463.034307,0.887000,1907647,1000,12,0,1,142.803,-21.001,10.297,566.263,0.881,1.062
1782117463.035307,0.888000,1907648,1000,12,0,1,137.711,-20.840,10.656,565.471,-0.144,1.040
1782117463.036307,0.889000,1907649,1000,12,0,1,140.953,-14.114,10.835,566.263,0.454,1.026
1782117463.037307,0.890000,1907650,1000,12,0,1,147.439,-2.527,10.841,565.663,0.164,1.026
1782117463.038307,0.891000,1907651,1000,12,0,1,149.192,2.727,10.774,566.720,0.488,1.027
1782117463.039307,0.892000,1907652,1000,12,0,1,153.252,7.984,10.660,566.768,0.983,1.036
1782117463.040307,0.893000,1907653,1000,12,0,1,155.630,12.204,10.786,568.401,1.511,1.057
1782117463.041307,0.894000,1907654,1000,12,0,1,155.246,11.424,10.905,566.095,0.260,1.055
1782117463.042307,0.895000,1907655,1000,12,0,1,153.732,9.605,10.965,566.912,-0.569,1.058
1782117463.043307,0.896000,1907656,1000,12,0,1,155.750,9.274,10.941,566.143,0.044,1.058
1782117463.044307,0.897000,1907657,1000,12,0,1,155.390,7.973,10.814,564.366,-2.326,1.105
1782117463.045307,0.898000,1907658,1000,12,0,1,146.526,-1.911,10.591,566.672,-0.185,1.103
1782117463.046307,0.899000,1907659,1000,12,0,1,139.752,-10.544,10.508,567.368,1.188,1.111
1782117463.047307,0.900000,1907660,1000,12,0,1,135.092,-14.505,10.553,567.392,0.521,1.105
1782117463.048307,0.901000,1907661,1000,12,0,1,133.771,-16.153,10.625,565.855,-0.237,1.084
1782117463.049307,0.902000,1907662,1000,12,0,1,136.582,-12.637,10.648,564.990,-1.646,1.099
1782117463.050307,0.903000,1907663,1000,12,0,1,138.936,-9.578,10.730,564.918,-0.992,1.106
1782117463.051307,0.904000,1907664,1000,12,0,1,138.767,-8.718,10.704,563.885,-1.783,1.129
1782117463.052307,0.905000,1907665,1000,12,0,1,132.978,-11.988,10.740,564.438,-1.140,1.138
1782117463.053307,0.906000,1907666,1000,12,0,1,123.226,-18.282,10.882,565.278,0.078,1.112
1782117463.054307,0.907000,1907667,1000,12,0,1,113.257,-22.877,11.015,566.311,0.893,1.117
1782117463.055307,0.908000,1907668,1000,12,0,1,108.045,-22.236,11.171,566.239,1.048,1.122
1782117463.056307,0.909000,1907669,1000,12,0,1,105.715,-17.266,11.380,566.864,1.045,1.130
1782117463.057307,0.910000,1907670,1000,12,0,1,100.983,-14.464,11.562,566.287,0.804,1.135
1782117463.058307,0.911000,1907671,1000,12,0,1,100.839,-9.076,11.600,568.665,1.874,1.149
1782117463.059307,0.912000,1907672,1000,12,0,1,103.841,-0.173,11.539,567.104,1.402,1.159
1782117463.060307,0.913000,1907673,1000,12,0,1,114.410,12.000,11.586,563.837,-2.599,1.202
1782117463.061307,0.914000,1907674,1000,12,0,1,132.306,29.617,12.298,565.783,-0.963,1.203
1782117463.062307,0.915000,1907675,1000,12,0,1,155.270,47.322,13.990,565.351,-0.301,1.193
1782117463.063307,0.916000,1907676,1000,12,0,1,161.275,49.570,15.626,564.702,-1.570,1.187
1782117463.064307,0.917000,1907677,1000,12,0,1,163.365,41.069,16.657,565.927,0.074,1.171
1782117463.065307,0.918000,1907678,1000,12,0,1,171.147,40.348,17.579,565.879,0.137,1.170
1782117463.066307,0.919000,1907679,1000,12,0,1,165.839,28.981,18.020,564.822,-0.673,1.174
1782117463.067307,0.920000,1907680,1000,12,0,1,152.603,8.836,18.031,564.798,-0.759,1.178
1782117463.068307,0.921000,1907681,1000,12,0,1,141.890,-5.151,18.011,565.759,0.358,1.177
1782117463.069307,0.922000,1907682,1000,12,0,1,136.990,-12.307,18.085,566.383,1.034,1.181
1782117463.070307,0.923000,1907683,1000,12,0,1,133.699,-14.647,18.202,564.822,-0.160,1.174
1782117463.071307,0.924000,1907684,1000,12,0,1,130.841,-16.644,18.344,563.597,-1.478,1.171
1782117463.072307,0.925000,1907685,1000,12,0,1,131.153,-14.480,18.372,565.086,-0.069,1.147
1782117463.073307,0.926000,1907686,1000,12,0,1,134.300,-9.516,18.236,564.558,0.133,1.144
1782117463.074307,0.927000,1907687,1000,12,0,1,137.735,-4.166,18.080,565.375,0.183,1.132
1782117463.075307,0.928000,1907688,1000,12,0,1,140.281,-0.230,17.958,566.912,1.980,1.165
1782117463.076307,0.929000,1907689,1000,12,0,1,141.314,1.978,17.928,568.113,2.500,1.217
1782117463.077307,0.930000,1907690,1000,12,0,1,140.785,2.429,17.926,566.023,0.821,1.200
1782117463.078307,0.931000,1907691,1000,12,0,1,138.287,0.993,17.925,564.390,-1.486,1.218
1782117463.079307,0.932000,1907692,1000,12,0,1,138.864,1.519,17.916,568.689,1.948,1.221
1782117463.080307,0.933000,1907693,1000,12,0,1,137.735,1.661,17.915,566.936,1.615,1.240
1782117463.081307,0.934000,1907694,1000,12,0,1,138.407,1.297,17.901,563.741,-2.708,1.254
1782117463.082307,0.935000,1907695,1000,12,0,1,142.106,4.368,17.856,564.149,-1.794,1.219
1782117463.083307,0.936000,1907696,1000,12,0,1,144.917,5.697,17.708,566.311,0.152,1.218
1782117463.084307,0.937000,1907697,1000,12,0,1,146.262,4.929,17.471,565.831,0.404,1.213
1782117463.085307,0.938000,1907698,1000,12,0,1,145.781,2.489,17.225,565.158,-0.683,1.217
1782117463.086307,0.939000,1907699,1000,12,0,1,147.535,1.262,17.109,564.198,-1.064,1.224
1782117463.087307,0.940000,1907700,1000,12,0,1,147.703,0.213,17.106,565.903,0.081,1.224
1782117463.088307,0.941000,1907701,1000,12,0,1,147.871,-2.078,17.104,565.927,0.912,1.229
1782117463.089307,0.942000,1907702,1000,12,0,1,148.784,-2.169,17.069,565.567,0.051,1.221
1782117463.090307,0.943000,1907703,1000,12,0,1,147.727,-3.891,16.991,566.864,1.212,1.214
1782117463.091307,0.944000,1907704,1000,12,0,1,149.000,-3.562,16.921,565.951,0.707,1.218
1782117463.092307,0.945000,1907705,1000,12,0,1,147.175,-4.034,16.876,565.278,-0.542,1.218
1782117463.093307,0.946000,1907706,1000,12,0,1,147.895,-3.980,16.835,566.023,0.369,1.219
1782117463.094307,0.947000,1907707,1000,12,0,1,146.910,-2.566,16.801,567.224,1.149,1.185
1782117463.095307,0.948000,1907708,1000,12,0,1,146.958,-2.455,16.802,567.849,1.723,1.209
1782117463.096307,0.949000,1907709,1000,12,0,1,148.448,0.708,16.736,567.320,0.856,1.203
1782117463.097307,0.950000,1907710,1000,12,0,1,149.000,1.994,16.612,565.567,-0.800,1.207
1782117463.098307,0.951000,1907711,1000,12,0,1,149.240,2.787,16.459,566.191,-0.770,1.211
1782117463.099307,0.952000,1907712,1000,12,0,1,149.312,3.180,16.368,564.966,-1.073,1.198
1782117463.100307,0.953000,1907713,1000,12,0,1,151.402,4.422,16.324,564.125,-2.327,1.234
1782117463.101307,0.954000,1907714,1000,12,0,1,152.483,5.279,16.295,565.927,-0.352,1.210
1782117463.102307,0.955000,1907715,1000,12,0,1,154.381,5.018,16.222,567.921,1.600,1.220
1782117463.103307,0.956000,1907716,1000,12,0,1,153.900,3.772,16.023,567.777,1.479,1.238
1782117463.104307,0.957000,1907717,1000,12,0,1,151.522,-0.632,15.693,567.344,0.675,1.235
1782117463.105307,0.958000,1907718,1000,12,0,1,151.739,-2.090,15.378,566.552,-0.052,1.226
1782117463.106307,0.959000,1907719,1000,12,0,1,152.483,-2.538,15.187,564.582,-1.703,1.241
1782117463.107307,0.960000,1907720,1000,12,0,1,152.892,-3.480,15.057,564.053,-2.280,1.277
1782117463.108307,0.961000,1907721,1000,12,0,1,152.435,-4.620,15.016,566.864,0.442,1.251
1782117463.109307,0.962000,1907722,1000,12,0,1,153.900,-4.383,15.029,567.753,1.770,1.260
1782117463.110307,0.963000,1907723,1000,12,0,1,154.045,-3.880,14.943,567.368,0.934,1.212
1782117463.111307,0.964000,1907724,1000,12,0,1,154.285,-4.178,14.356,566.263,-0.015,1.205
1782117463.112307,0.965000,1907725,1000,12,0,1,155.318,-2.593,12.706,564.894,-1.404,1.220
1782117463.113307,0.966000,1907726,1000,12,0,1,157.480,-0.400,10.597,567.801,0.735,1.204
1782117463.114307,0.967000,1907727,1000,12,0,1,155.486,-0.779,8.865,565.543,0.023,1.204
1782117463.115307,0.968000,1907728,1000,12,0,1,156.783,-0.078,6.784,566.383,-0.988,1.212
1782117463.116307,0.969000,1907729,1000,12,0,1,158.657,3.283,5.426,565.927,0.215,1.209
1782117463.117307,0.970000,1907730,1000,12,0,1,156.807,2.038,5.288,565.543,-1.278,1.217
1782117463.118307,0.971000,1907731,1000,12,0,1,153.348,-0.611,5.238,564.798,-1.020,1.225
1782117463.119307,0.972000,1907732,1000,12,0,1,154.429,0.323,4.941,565.110,-1.196,1.228
1782117463.120307,0.973000,1907733,1000,12,0,1,155.582,2.273,4.497,564.678,-0.889,1.234
1782117463.121307,0.974000,1907734,1000,12,0,1,153.108,0.051,3.832,565.735,-0.251,1.217
1782117463.122307,0.975000,1907735,1000,12,0,1,153.132,-0.949,3.241,565.327,0.007,1.217
1782117463.123307,0.976000,1907736,1000,12,0,1,151.907,-1.575,2.957,566.383,0.454,1.218
1782117463.124307,0.977000,1907737,1000,12,0,1,153.660,-1.758,2.908,566.624,1.127,1.228
1782117463.125307,0.978000,1907738,1000,12,0,1,153.324,-1.512,2.916,567.392,1.320,1.211
1782117463.126307,0.979000,1907739,1000,12,0,1,153.684,-3.178,2.937,565.254,-0.119,1.158
1782117463.127307,0.980000,1907740,1000,12,0,1,151.474,-4.664,2.991,565.639,-0.616,1.155
1782117463.128307,0.981000,1907741,1000,12,0,1,151.258,-6.342,3.119,564.462,-0.652,1.140
1782117463.129307,0.982000,1907742,1000,12,0,1,151.907,-4.934,3.189,566.624,0.316,1.107
1782117463.130307,0.983000,1907743,1000,12,0,1,154.837,-2.771,3.204,568.737,3.029,1.165
1782117463.131307,0.984000,1907744,1000,12,0,1,155.918,-0.816,3.201,567.224,1.314,1.116
1782117463.132307,0.985000,1907745,1000,12,0,1,153.276,-2.840,3.167,568.185,1.220,1.100
1782117463.133307,0.986000,1907746,1000,12,0,1,154.621,-1.739,3.072,568.713,2.161,1.141
1782117463.134307,0.987000,1907747,1000,12,0,1,157.840,2.726,3.017,564.558,-1.834,1.169
1782117463.135307,0.988000,1907748,1000,12,0,1,157.888,3.352,3.034,565.519,-1.806,1.193
1782117463.136307,0.989000,1907749,1000,12,0,1,151.546,-0.894,3.031,566.119,-0.108,1.183
1782117463.137307,0.990000,1907750,1000,12,0,1,150.778,-2.165,3.046,566.984,-0.007,1.183
1782117463.138307,0.991000,1907751,1000,12,0,1,148.232,-1.263,3.037,568.401,1.575,1.197
1782117463.139307,0.992000,1907752,1000,12,0,1,146.718,-2.797,3.048,567.969,1.001,1.205
1782117463.140307,0.993000,1907753,1000,12,0,1,145.301,-1.781,3.008,567.056,-0.196,1.193
1782117463.141307,0.994000,1907754,1000,12,0,1,143.716,-2.831,2.992,566.672,-0.550,1.192
1782117463.142307,0.995000,1907755,1000,12,0,1,146.478,0.029,2.938,566.023,-1.135,1.200
1782117463.143307,0.996000,1907756,1000,12,0,1,148.832,2.810,2.910,568.113,0.469,1.201
1782117463.144307,0.997000,1907757,1000,12,0,1,148.616,1.759,2.898,566.383,-0.219,1.190
1782117463.145307,0.998000,1907758,1000,12,0,1,146.310,-0.726,2.879,565.879,-1.641,1.188
1782117463.146307,0.999000,1907759,1000,12,0,1,148.496,-0.566,2.879,566.167,-0.577,1.185
1782117463.147307,1.000000,1907760,1000,12,0,1,152.459,2.969,2.895,565.903,-0.942,1.187
1782117463.148307,1.001000,1907761,1000,12,0,1,154.093,3.101,2.902,567.344,0.328,1.182
1782117463.149307,1.002000,1907762,1000,12,0,1,154.213,2.188,2.883,569.074,2.039,1.208
1782117463.150307,1.003000,1907763,1000,12,0,1,153.684,0.728,2.817,568.113,1.084,1.172
1782117463.151307,1.004000,1907764,1000,12,0,1,151.715,-1.229,2.721,567.320,-0.094,1.171
1782117463.152307,1.005000,1907765,1000,12,0,1,151.739,-1.479,2.636,567.392,-0.083,1.149
1782117463.153307,1.006000,1907766,1000,12,0,1,151.258,-0.808,2.584,569.963,1.823,1.159
1782117463.154307,1.007000,1907767,1000,12,0,1,151.378,-0.270,2.582,567.705,0.530,1.157
1782117463.155307,1.008000,1907768,1000,12,0,1,148.664,-0.955,2.569,569.194,0.185,1.158
1782117463.156307,1.009000,1907769,1000,12,0,1,148.880,-0.534,2.545,567.464,0.171,1.133
1782117463.157307,1.010000,1907770,1000,12,0,1,150.970,3.089,2.535,564.558,-3.558,1.197
1782117463.158307,1.011000,1907771,1000,12,0,1,148.592,2.116,2.467,567.272,-0.928,1.202
1782117463.159307,1.012000,1907772,1000,12,0,1,145.325,-0.614,2.390,568.713,1.218,1.188
1782117463.160307,1.013000,1907773,1000,12,0,1,144.436,-0.646,2.328,567.368,-0.372,1.182
1782117463.161307,1.014000,1907774,1000,12,0,1,144.941,0.228,2.252,566.263,-1.243,1.195
1782117463.162307,1.015000,1907775,1000,12,0,1,144.845,0.576,2.223,565.831,-1.680,1.202
1782117463.163307,1.016000,1907776,1000,12,0,1,148.280,2.586,2.252,566.816,-0.529,1.200
1782117463.164307,1.017000,1907777,1000,12,0,1,151.667,5.419,2.377,568.617,1.085,1.210
1782117463.165307,1.018000,1907778,1000,12,0,1,153.036,4.807,2.472,568.233,1.053,1.211
1782117463.166307,1.019000,1907779,1000,12,0,1,152.868,3.115,2.468,567.705,-0.003,1.211
1782117463.167307,1.020000,1907780,1000,12,0,1,152.747,1.100,2.456,567.753,0.182,1.197
1782117463.168307,1.021000,1907781,1000,12,0,1,149.264,-2.650,2.483,566.936,-0.568,1.191
1782117463.169307,1.022000,1907782,1000,12,0,1,149.337,-4.241,2.554,564.077,-2.780,1.243
1782117463.170307,1.023000,1907783,1000,12,0,1,147.583,-4.604,2.616,564.942,-2.382,1.282
1782117463.171307,1.024000,1907784,1000,12,0,1,150.345,-3.233,2.655,565.831,-0.442,1.283
1782117463.172307,1.025000,1907785,1000,12,0,1,154.837,2.281,2.671,566.936,0.221,1.283
1782117463.173307,1.026000,1907786,1000,12,0,1,164.542,9.609,2.989,568.545,1.940,1.311
1782117463.174307,1.027000,1907787,1000,12,0,1,167.088,12.991,3.500,568.017,1.442,1.317
1782117463.175307,1.028000,1907788,1000,12,0,1,164.229,8.059,3.674,565.759,-0.805,1.308
1782117463.176307,1.029000,1907789,1000,12,0,1,160.818,4.452,3.701,566.431,-0.553,1.311
1782117463.177307,1.030000,1907790,1000,12,0,1,157.792,1.316,3.646,566.600,0.197,1.308
1782117463.178307,1.031000,1907791,1000,12,0,1,161.011,3.370,3.566,568.810,1.531,1.323
1782117463.179307,1.032000,1907792,1000,12,0,1,159.233,3.448,3.531,567.993,1.561,1.340
1782117463.180307,1.033000,1907793,1000,12,0,1,158.272,0.415,3.510,566.840,-0.418,1.271
1782117463.181307,1.034000,1907794,1000,12,0,1,155.510,-0.732,3.509,566.792,-0.167,1.258
1782117463.182307,1.035000,1907795,1000,12,0,1,153.060,-4.484,3.543,567.753,0.484,1.248
1782117463.183307,1.036000,1907796,1000,12,0,1,153.300,-3.849,3.576,567.032,0.180,1.210
1782117463.184307,1.037000,1907797,1000,12,0,1,155.150,-2.848,3.578,567.464,0.079,1.182
1782117463.185307,1.038000,1907798,1000,12,0,1,155.966,-2.347,3.562,566.431,-0.319,1.155
1782117463.186307,1.039000,1907799,1000,12,0,1,152.459,-5.844,3.655,566.455,-0.778,1.160
1782117463.187307,1.040000,1907800,1000,12,0,1,152.844,-7.027,3.775,567.777,0.679,1.164
1782117463.188307,1.041000,1907801,1000,12,0,1,156.951,-2.953,3.794,567.248,0.417,1.144
1782117463.189307,1.042000,1907802,1000,12,0,1,162.236,0.833,3.775,565.351,-1.460,1.154
1782117463.190307,1.043000,1907803,1000,12,0,1,171.556,7.880,3.928,566.552,-0.573,1.156
1782117463.191307,1.044000,1907804,1000,12,0,1,181.596,15.065,4.451,566.744,0.224,1.154
1782117463.192307,1.045000,1907805,1000,12,0,1,177.825,10.687,4.700,567.032,0.089,1.143
1782117463.193307,1.046000,1907806,1000,12,0,1,164.446,-3.943,4.717,564.101,-1.777,1.168
1782117463.194307,1.047000,1907807,1000,12,0,1,156.831,-11.441,4.980,566.359,-0.903,1.175
1782117463.195307,1.048000,1907808,1000,12,0,1,154.789,-11.167,5.224,568.593,2.416,1.202
1782117463.196307,1.049000,1907809,1000,12,0,1,152.411,-10.590,5.433,569.674,2.465,1.248
1782117463.197307,1.050000,1907810,1000,12,0,1,153.708,-7.403,5.517,567.657,1.011,1.249
1782117463.198307,1.051000,1907811,1000,12,0,1,155.053,-3.293,5.520,568.305,0.366,1.250
1782117463.199307,1.052000,1907812,1000,12,0,1,155.894,-1.262,5.514,567.224,0.248,1.216
1782117463.200307,1.053000,1907813,1000,12,0,1,160.506,3.443,5.534,567.032,-0.785,1.212
1782117463.201307,1.054000,1907814,1000,12,0,1,162.332,5.915,5.594,567.200,-0.118,1.212
1782117463.202307,1.055000,1907815,1000,12,0,1,159.449,2.427,5.601,567.873,0.244,1.212
1782117463.203307,1.056000,1907816,1000,12,0,1,157.552,-0.333,5.600,566.840,-0.350,1.186
1782117463.204307,1.057000,1907817,1000,12,0,1,155.726,-2.378,5.610,566.071,-1.232,1.196
1782117463.205307,1.058000,1907818,1000,12,0,1,157.191,-2.256,5.618,565.783,-1.254,1.209
1782117463.206307,1.059000,1907819,1000,12,0,1,160.002,-0.010,5.617,566.840,-0.204,1.209
1782117463.207307,1.060000,1907820,1000,12,0,1,167.496,4.645,5.638,568.065,1.010,1.109
1782117463.208307,1.061000,1907821,1000,12,0,1,172.589,8.527,5.758,569.074,1.841,1.131
1782117463.209307,1.062000,1907822,1000,12,0,1,172.132,5.619,5.812,569.314,1.748,1.145
1782117463.210307,1.063000,1907823,1000,12,0,1,165.959,-1.175,5.814,566.552,-0.576,1.147
1782117463.211307,1.064000,1907824,1000,12,0,1,160.386,-7.457,5.909,567.560,-0.758,1.138
1782117463.212307,1.065000,1907825,1000,12,0,1,155.870,-10.321,6.086,568.353,0.951,1.121
1782117463.213307,1.066000,1907826,1000,12,0,1,154.765,-10.051,6.239,565.831,-1.641,1.142
1782117463.214307,1.067000,1907827,1000,12,0,1,156.399,-6.176,6.253,566.888,-1.103,1.143
1782117463.215307,1.068000,1907828,1000,12,0,1,155.390,-4.423,6.247,567.849,0.498,1.135
1782117463.216307,1.069000,1907829,1000,12,0,1,152.747,-5.031,6.272,566.864,-0.611,1.139
1782117463.217307,1.070000,1907830,1000,12,0,1,152.483,-3.254,6.287,565.903,-1.340,1.154
1782117463.218307,1.071000,1907831,1000,12,0,1,152.459,-1.218,6.278,569.026,0.959,1.159
1782117463.219307,1.072000,1907832,1000,12,0,1,149.625,-1.891,6.255,570.323,2.890,1.164
1782117463.220307,1.073000,1907833,1000,12,0,1,150.706,-0.615,6.222,568.713,0.746,1.120
1782117463.221307,1.074000,1907834,1000,12,0,1,152.555,2.608,6.216,569.626,0.997,1.127
1782117463.222307,1.075000,1907835,1000,12,0,1,155.870,4.801,6.245,569.626,1.297,1.141
1782117463.223307,1.076000,1907836,1000,12,0,1,157.792,6.482,6.163,568.377,-0.327,1.109
1782117463.224307,1.077000,1907837,1000,12,0,1,158.560,5.328,5.931,568.065,-0.625,1.093
1782117463.225307,1.078000,1907838,1000,12,0,1,160.794,5.629,5.875,567.320,-1.143,1.099
1782117463.226307,1.079000,1907839,1000,12,0,1,162.404,5.440,5.892,567.753,-0.864,1.103
1782117463.227307,1.080000,1907840,1000,12,0,1,162.308,3.423,5.908,568.137,-0.153,1.103
1782117463.228307,1.081000,1907841,1000,12,0,1,163.605,2.719,5.902,569.842,1.005,1.091
1782117463.229307,1.082000,1907842,1000,12,0,1,163.413,1.623,5.886,567.248,-0.501,1.071
1782117463.230307,1.083000,1907843,1000,12,0,1,164.614,1.215,5.888,567.777,-1.339,1.086
1782117463.231307,1.084000,1907844,1000,12,0,1,164.998,1.520,5.891,566.359,-1.102,1.097
1782117463.232307,1.085000,1907845,1000,12,0,1,165.454,1.247,5.860,567.825,-1.062,1.105
1782117463.233307,1.086000,1907846,1000,12,0,1,168.337,3.693,5.858,567.440,0.076,1.105
1782117463.234307,1.087000,1907847,1000,12,0,1,166.487,2.940,5.859,567.657,-0.759,1.110
1782117463.235307,1.088000,1907848,1000,12,0,1,166.776,2.104,5.857,567.512,-0.124,1.109
1782117463.236307,1.089000,1907849,1000,12,0,1,162.428,0.334,5.798,569.314,0.806,1.109
1782117463.237307,1.090000,1907850,1000,12,0,1,160.434,-2.505,5.724,568.353,0.648,1.109
1782117463.238307,1.091000,1907851,1000,12,0,1,161.443,0.285,5.708,566.888,-1.289,1.122
1782117463.239307,1.092000,1907852,1000,12,0,1,161.347,0.515,5.708,567.368,-0.791,1.109
1782117463.240307,1.093000,1907853,1000,12,0,1,163.965,2.640,5.610,569.074,0.927,1.114
1782117463.241307,1.094000,1907854,1000,12,0,1,163.196,2.511,5.202,566.383,-0.982,1.122
1782117463.242307,1.095000,1907855,1000,12,0,1,164.854,1.818,4.984,568.353,-0.277,1.122
1782117463.243307,1.096000,1907856,1000,12,0,1,165.815,2.755,4.968,567.560,0.507,1.096
1782117463.244307,1.097000,1907857,1000,12,0,1,163.557,-1.174,4.700,570.155,1.256,1.103
1782117463.245307,1.098000,1907858,1000,12,0,1,164.782,-1.656,4.433,569.386,2.060,1.089
1782117463.246307,1.099000,1907859,1000,12,0,1,163.317,-3.219,4.198,566.311,-1.791,1.062
1782117463.247307,1.100000,1907860,1000,12,0,1,164.566,-4.143,4.107,564.678,-2.838,1.126
1782117463.248307,1.101000,1907861,1000,12,0,1,169.346,-0.061,4.080,566.984,-0.799,1.131
1782117463.249307,1.102000,1907862,1000,12,0,1,168.889,-0.773,4.078,568.113,0.996,1.139
1782117463.250307,1.103000,1907863,1000,12,0,1,164.133,-5.659,4.127,567.392,0.262,1.134
1782117463.251307,1.104000,1907864,1000,12,0,1,166.223,-4.563,4.093,568.017,0.417,1.135
1782117463.252307,1.105000,1907865,1000,12,0,1,168.361,-0.878,4.080,568.930,1.533,1.155
1782117463.253307,1.106000,1907866,1000,12,0,1,167.640,-1.289,4.084,567.464,0.015,1.154
1782117463.254307,1.107000,1907867,1000,12,0,1,167.929,-0.340,4.070,566.600,-0.958,1.149
1782117463.255307,1.108000,1907868,1000,12,0,1,164.614,-1.699,4.065,567.248,-0.421,1.137
1782117463.256307,1.109000,1907869,1000,12,0,1,166.535,-0.331,4.065,568.185,0.616,1.140
1782117463.257307,1.110000,1907870,1000,12,0,1,171.820,6.142,4.105,567.873,0.311,1.132
1782117463.258307,1.111000,1907871,1000,12,0,1,176.912,10.118,4.176,568.473,0.546,1.104
1782117463.259307,1.112000,1907872,1000,12,0,1,178.257,11.023,4.386,568.617,0.815,1.082
1782117463.260307,1.113000,1907873,1000,12,0,1,179.795,9.917,4.602,565.735,-1.592,1.102
1782117463.261307,1.114000,1907874,1000,12,0,1,178.209,7.442,4.602,567.224,-1.045,1.107
1782117463.262307,1.115000,1907875,1000,12,0,1,170.859,-0.927,4.366,568.593,1.298,1.114
1782117463.263307,1.116000,1907876,1000,12,0,1,169.178,-4.712,4.182,567.801,0.156,1.090
1782117463.264307,1.117000,1907877,1000,12,0,1,165.719,-6.783,4.200,568.185,0.439,1.080
1782117463.265307,1.118000,1907878,1000,12,0,1,162.956,-10.650,4.418,567.488,0.084,1.078
1782117463.266307,1.119000,1907879,1000,12,0,1,161.251,-10.885,4.624,567.921,0.026,1.075
1782117463.267307,1.120000,1907880,1000,12,0,1,163.725,-9.100,4.778,569.434,1.627,1.083
1782117463.268307,1.121000,1907881,1000,12,0,1,163.797,-7.104,4.879,567.584,0.137,1.074
1782117463.269307,1.122000,1907882,1000,12,0,1,162.236,-8.596,5.021,568.906,0.375,0.995
1782117463.270307,1.123000,1907883,1000,12,0,1,163.317,-6.689,5.109,567.152,-0.044,0.989
1782117463.271307,1.124000,1907884,1000,12,0,1,167.592,-2.053,5.104,566.431,-1.834,1.013
1782117463.272307,1.125000,1907885,1000,12,0,1,167.448,-0.644,5.059,566.864,-0.574,1.000
1782117463.273307,1.126000,1907886,1000,12,0,1,168.745,0.210,4.976,568.017,0.089,0.999
1782117463.274307,1.127000,1907887,1000,12,0,1,169.370,2.179,4.928,568.761,1.062,1.006
1782117463.275307,1.128000,1907888,1000,12,0,1,168.985,2.064,4.872,567.296,-0.272,0.994
1782117463.276307,1.129000,1907889,1000,12,0,1,169.442,3.035,4.830,567.560,-0.608,0.990
1782117463.277307,1.130000,1907890,1000,12,0,1,173.333,6.565,4.895,568.233,0.492,0.992
1782117463.278307,1.131000,1907891,1000,12,0,1,179.795,12.016,5.167,569.938,1.382,1.001
1782117463.279307,1.132000,1907892,1000,12,0,1,178.137,10.728,5.380,568.473,0.751,1.004
1782117463.280307,1.133000,1907893,1000,12,0,1,178.858,8.061,5.497,566.840,-1.634,1.013
1782117463.281307,1.134000,1907894,1000,12,0,1,168.841,0.821,5.494,566.984,-1.053,1.012
1782117463.282307,1.135000,1907895,1000,12,0,1,165.839,-6.018,5.557,568.065,-0.126,1.001
1782117463.283307,1.136000,1907896,1000,12,0,1,166.752,-2.577,5.544,568.353,0.475,1.003
1782117463.284307,1.137000,1907897,1000,12,0,1,164.638,-5.315,5.579,566.480,-1.059,1.008
1782117463.285307,1.138000,1907898,1000,12,0,1,164.830,-5.044,5.617,567.753,-0.455,1.010
1782117463.286307,1.139000,1907899,1000,12,0,1,167.280,-2.745,5.630,568.401,1.020,1.014
1782117463.287307,1.140000,1907900,1000,12,0,1,170.090,-0.688,5.620,567.536,-0.195,1.010
1782117463.288307,1.141000,1907901,1000,12,0,1,168.961,-1.370,5.623,568.785,0.827,1.001
1782117463.289307,1.142000,1907902,1000,12,0,1,170.691,-1.669,5.627,567.681,0.291,0.995
1782117463.290307,1.143000,1907903,1000,12,0,1,172.565,0.856,5.616,567.200,-0.784,0.993
1782117463.291307,1.144000,1907904,1000,12,0,1,174.102,0.931,5.607,566.239,-0.996,0.993
1782117463.292307,1.145000,1907905,1000,12,0,1,175.951,2.744,5.614,566.528,-1.167,1.006
1782117463.293307,1.146000,1907906,1000,12,0,1,173.645,0.584,5.601,567.080,-0.076,1.003
1782117463.294307,1.147000,1907907,1000,12,0,1,170.859,-2.156,5.607,569.866,1.829,1.021
1782117463.295307,1.148000,1907908,1000,12,0,1,169.082,-2.893,5.617,569.266,1.990,1.018
1782117463.296307,1.149000,1907909,1000,12,0,1,168.697,-2.449,5.609,569.914,1.202,1.001
1782117463.297307,1.150000,1907910,1000,12,0,1,168.241,-1.412,5.582,569.770,1.583,0.944
1782117463.298307,1.151000,1907911,1000,12,0,1,168.601,-0.406,5.582,568.785,-0.040,0.937
1782117463.299307,1.152000,1907912,1000,12,0,1,170.186,1.887,5.588,568.401,-0.403,0.928
1782117463.300307,1.153000,1907913,1000,12,0,1,166.920,0.048,5.530,568.665,-0.221,0.928
1782117463.301307,1.154000,1907914,1000,12,0,1,162.428,-4.101,5.523,568.161,-0.566,0.929
1782117463.302307,1.155000,1907915,1000,12,0,1,158.897,-6.195,5.591,565.062,-2.856,0.990
1782117463.303307,1.156000,1907916,1000,12,0,1,161.227,-4.053,5.617,567.608,-1.428,1.010
1782117463.304307,1.157000,1907917,1000,12,0,1,165.743,1.162,5.619,569.794,2.055,1.042
1782117463.305307,1.158000,1907918,1000,12,0,1,166.727,1.929,5.621,566.191,-1.366,1.058
1782117463.306307,1.159000,1907919,1000,12,0,1,170.931,4.046,5.649,568.065,-0.556,1.058
1782117463.307307,1.160000,1907920,1000,12,0,1,172.877,5.643,5.639,569.554,1.960,1.093
1782117463.308307,1.161000,1907921,1000,12,0,1,167.880,-0.212,5.455,566.792,-0.874,1.097
1782117463.309307,1.162000,1907922,1000,12,0,1,164.806,-4.314,5.262,568.882,0.261,1.091
1782117463.310307,1.163000,1907923,1000,12,0,1,173.237,2.091,5.081,568.233,0.848,1.075
1782117463.311307,1.164000,1907924,1000,12,0,1,178.690,8.128,5.102,568.425,-0.249,1.065
1782117463.312307,1.165000,1907925,1000,12,0,1,178.281,5.948,5.169,567.801,0.111,1.049
1782117463.313307,1.166000,1907926,1000,12,0,1,179.242,5.584,5.186,570.755,1.435,1.068
1782117463.314307,1.167000,1907927,1000,12,0,1,183.686,8.370,5.232,569.074,1.313,1.083
1782117463.315307,1.168000,1907928,1000,12,0,1,184.767,9.000,5.170,568.737,-0.777,1.088
1782117463.316307,1.169000,1907929,1000,12,0,1,180.467,4.160,4.971,567.993,-0.364,1.089
1782117463.317307,1.170000,1907930,1000,12,0,1,174.726,-1.581,4.806,570.779,0.899,1.072
1782117463.318307,1.171000,1907931,1000,12,0,1,173.021,-3.110,4.721,569.602,1.132,1.084
1782117463.319307,1.172000,1907932,1000,12,0,1,171.291,-3.350,4.586,567.777,-1.663,1.108
1782117463.320307,1.173000,1907933,1000,12,0,1,170.451,-3.689,4.518,570.299,0.582,1.111
1782117463.321307,1.174000,1907934,1000,12,0,1,171.556,-1.958,4.517,567.945,-0.379,1.082
1782117463.322307,1.175000,1907935,1000,12,0,1,169.850,-2.611,4.531,567.464,-2.218,1.123
1782117463.323307,1.176000,1907936,1000,12,0,1,169.802,-3.308,4.555,567.584,-0.619,1.127
1782117463.324307,1.177000,1907937,1000,12,0,1,165.286,-5.911,4.621,569.818,0.368,1.118
1782117463.325307,1.178000,1907938,1000,12,0,1,164.349,-8.148,4.753,570.395,2.052,1.154
1782117463.326307,1.179000,1907939,1000,12,0,1,169.706,-2.486,4.747,568.233,-0.613,1.154
1782117463.327307,1.180000,1907940,1000,12,0,1,174.846,1.837,4.662,570.467,0.891,1.159
1782117463.328307,1.181000,1907941,1000,12,0,1,177.633,3.445,4.369,568.137,-0.026,1.142
1782117463.329307,1.182000,1907942,1000,12,0,1,177.369,2.068,4.108,567.584,-2.002,1.172
1782117463.330307,1.183000,1907943,1000,12,0,1,177.705,0.703,3.947,568.353,-0.149,1.149
1782117463.331307,1.184000,1907944,1000,12,0,1,179.290,1.536,3.952,566.239,-2.156,1.180
1782117463.332307,1.185000,1907945,1000,12,0,1,182.629,3.418,3.889,566.984,-1.667,1.203
1782117463.333307,1.186000,1907946,1000,12,0,1,182.701,3.651,3.906,568.906,0.621,1.204
1782117463.334307,1.187000,1907947,1000,12,0,1,179.002,-0.342,3.834,569.914,1.358,1.210
1782117463.335307,1.188000,1907948,1000,12,0,1,176.336,-2.606,3.785,568.737,0.471,1.210
1782117463.336307,1.189000,1907949,1000,12,0,1,171.868,-5.151,3.835,569.818,0.568,1.204
1782117463.337307,1.190000,1907950,1000,12,0,1,170.619,-5.616,3.915,570.659,1.820,1.231
1782117463.338307,1.191000,1907951,1000,12,0,1,168.337,-4.866,3.970,570.011,0.696,1.230
1782117463.339307,1.192000,1907952,1000,12,0,1,166.920,-5.215,4.031,570.275,0.698,1.233
1782117463.340307,1.193000,1907953,1000,12,0,1,169.850,-0.967,4.032,568.713,-0.443,1.230
1782117463.341307,1.194000,1907954,1000,12,0,1,170.499,1.119,4.032,569.122,-0.718,1.226
1782117463.342307,1.195000,1907955,1000,12,0,1,172.781,2.559,4.030,568.137,-0.659,1.218
1782117463.343307,1.196000,1907956,1000,12,0,1,172.492,3.037,4.052,568.233,-1.215,1.230
1782117463.344307,1.197000,1907957,1000,12,0,1,172.132,1.063,4.043,568.785,0.049,1.203
1782117463.345307,1.198000,1907958,1000,12,0,1,174.030,2.219,4.035,568.545,-0.289,1.170
1782117463.346307,1.199000,1907959,1000,12,0,1,176.792,3.312,4.047,567.320,-1.052,1.167
1782117463.347307,1.200000,1907960,1000,12,0,1,177.801,3.117,4.066,570.827,1.383,1.162
1782117463.348307,1.201000,1907961,1000,12,0,1,178.810,2.155,4.077,570.683,2.397,1.210
1782117463.349307,1.202000,1907962,1000,12,0,1,180.203,2.110,4.079,568.545,-0.613,1.212
1782117463.350307,1.203000,1907963,1000,12,0,1,179.699,0.709,4.081,568.761,-0.430,1.213
1782117463.351307,1.204000,1907964,1000,12,0,1,179.771,-0.442,4.040,569.866,0.578,1.213
1782117463.352307,1.205000,1907965,1000,12,0,1,181.452,0.801,3.945,568.065,-0.791,1.150
1782117463.353307,1.206000,1907966,1000,12,0,1,180.539,0.150,3.903,567.392,-1.836,1.161
1782117463.354307,1.207000,1907967,1000,12,0,1,178.257,-1.848,3.909,567.104,-1.600,1.147
1782117463.355307,1.208000,1907968,1000,12,0,1,178.522,-1.242,3.903,568.401,-0.570,1.133
1782117463.356307,1.209000,1907969,1000,12,0,1,179.747,0.939,3.863,569.842,1.046,1.140
1782117463.357307,1.210000,1907970,1000,12,0,1,179.819,1.719,3.788,568.545,0.065,1.106
1782117463.358307,1.211000,1907971,1000,12,0,1,176.984,0.092,3.788,567.560,-1.259,1.113
1782117463.359307,1.212000,1907972,1000,12,0,1,177.585,0.371,3.738,567.008,-1.239,1.127
1782117463.360307,1.213000,1907973,1000,12,0,1,177.777,1.838,3.736,568.209,-0.398,1.122
1782117463.361307,1.214000,1907974,1000,12,0,1,177.008,0.734,3.556,568.305,0.462,1.123
1782117463.362307,1.215000,1907975,1000,12,0,1,175.495,-0.387,3.456,569.314,0.784,1.128
1782117463.363307,1.216000,1907976,1000,12,0,1,175.087,-1.395,3.370,570.227,2.027,1.146
1782117463.364307,1.217000,1907977,1000,12,0,1,174.342,-2.066,3.169,568.882,0.630,1.135
1782117463.365307,1.218000,1907978,1000,12,0,1,173.381,-3.509,2.944,568.017,-0.432,1.131
1782117463.366307,1.219000,1907979,1000,12,0,1,176.840,-1.438,2.892,566.864,-1.089,1.140
1782117463.367307,1.220000,1907980,1000,12,0,1,176.336,-1.331,2.889,566.744,-1.353,1.149
1782117463.368307,1.221000,1907981,1000,12,0,1,176.336,-3.279,2.893,568.665,0.654,1.142
1782117463.369307,1.222000,1907982,1000,12,0,1,176.672,-2.565,2.877,569.554,1.630,1.141
1782117463.370307,1.223000,1907983,1000,12,0,1,175.159,-4.442,2.898,569.026,0.954,1.146
1782117463.371307,1.224000,1907984,1000,12,0,1,175.711,-3.935,2.938,568.834,0.465,1.146
1782117463.372307,1.225000,1907985,1000,12,0,1,179.002,-0.599,2.916,569.963,1.228,1.116
1782117463.373307,1.226000,1907986,1000,12,0,1,176.936,-1.125,2.883,568.353,0.091,1.113
1782117463.374307,1.227000,1907987,1000,12,0,1,176.984,-1.590,2.768,569.074,-0.226,1.112
1782117463.375307,1.228000,1907988,1000,12,0,1,177.729,0.805,2.519,567.801,-0.399,1.075
1782117463.376307,1.229000,1907989,1000,12,0,1,178.065,1.537,2.504,567.440,-1.604,1.095
1782117463.377307,1.230000,1907990,1000,12,0,1,179.482,3.579,2.541,568.810,0.197,1.088
1782117463.378307,1.231000,1907991,1000,12,0,1,181.933,6.115,2.640,571.548,2.257,1.134
1782117463.379307,1.232000,1907992,1000,12,0,1,182.221,6.581,2.784,569.938,1.385,1.116
1782117463.380307,1.233000,1907993,1000,12,0,1,181.068,5.057,2.873,570.419,0.474,1.117
1782117463.381307,1.234000,1907994,1000,12,0,1,181.572,4.626,2.938,571.452,1.932,1.109
1782117463.382307,1.235000,1907995,1000,12,0,1,180.948,3.846,2.949,571.548,1.444,1.103
1782117463.383307,1.236000,1907996,1000,12,0,1,180.924,2.334,2.922,568.113,-1.300,1.115
1782117463.384307,1.237000,1907997,1000,12,0,1,181.428,2.133,2.937,567.152,-2.860,1.170
1782117463.385307,1.238000,1907998,1000,12,0,1,180.587,0.164,2.914,568.065,-1.286,1.182
1782117463.386307,1.239000,1907999,1000,12,0,1,178.810,-2.383,2.841,568.401,-0.697,1.184
1782117463.387307,1.240000,1908000,1000,12,0,1,181.909,-1.242,2.734,568.713,-0.374,1.157
1782117463.388307,1.241000,1908001,1000,12,0,1,186.424,2.408,2.667,568.665,-0.115,1.153
1782117463.389307,1.242000,1908002,1000,12,0,1,187.145,1.898,2.577,568.161,-0.696,1.153
1782117463.390307,1.243000,1908003,1000,12,0,1,187.577,0.631,2.575,569.362,0.337,1.152
1782117463.391307,1.244000,1908004,1000,12,0,1,189.187,1.161,2.576,569.386,0.580,1.150
1782117463.392307,1.245000,1908005,1000,12,0,1,188.875,0.339,2.551,567.873,-0.898,1.153
1782117463.393307,1.246000,1908006,1000,12,0,1,190.604,0.874,2.517,569.122,-0.246,1.141
1782117463.394307,1.247000,1908007,1000,12,0,1,190.508,1.267,2.519,569.987,1.054,1.151
1782117463.395307,1.248000,1908008,1000,12,0,1,186.352,-2.466,2.524,567.729,-1.098,1.161
1782117463.396307,1.249000,1908009,1000,12,0,1,187.698,-1.702,2.492,568.185,-1.180,1.163
1782117463.397307,1.250000,1908010,1000,12,0,1,188.514,0.828,2.455,568.954,0.139,1.147
1782117463.398307,1.251000,1908011,1000,12,0,1,188.899,0.812,2.439,569.963,0.665,1.099
1782117463.399307,1.252000,1908012,1000,12,0,1,187.890,0.923,2.424,568.737,0.098,1.096
1782117463.400307,1.253000,1908013,1000,12,0,1,188.995,1.157,2.427,570.347,0.585,1.097
1782117463.401307,1.254000,1908014,1000,12,0,1,190.412,2.881,2.461,571.428,2.303,1.142
1782117463.402307,1.255000,1908015,1000,12,0,1,190.028,1.816,2.471,570.395,0.827,1.142
1782117463.403307,1.256000,1908016,1000,12,0,1,188.346,-0.362,2.472,570.035,0.290,1.113
1782117463.404307,1.257000,1908017,1000,12,0,1,188.995,-0.934,2.461,568.017,-1.140,1.102
1782117463.405307,1.258000,1908018,1000,12,0,1,190.652,-0.110,2.455,568.882,-1.023,1.108
1782117463.406307,1.259000,1908019,1000,12,0,1,189.571,-1.752,2.464,569.146,0.275,1.099
1782117463.407307,1.260000,1908020,1000,12,0,1,186.833,-5.291,2.564,569.963,0.282,1.100
1782117463.408307,1.261000,1908021,1000,12,0,1,186.905,-5.909,2.696,569.987,0.934,1.093
1782117463.409307,1.262000,1908022,1000,12,0,1,187.265,-5.400,2.802,568.761,-0.594,1.082
1782117463.410307,1.263000,1908023,1000,12,0,1,190.196,-3.292,2.828,570.155,0.380,1.082
1782117463.411307,1.264000,1908024,1000,12,0,1,191.949,-1.127,2.831,571.404,1.747,1.108
1782117463.412307,1.265000,1908025,1000,12,0,1,190.388,-2.620,2.855,570.059,0.279,1.103
1782117463.413307,1.266000,1908026,1000,12,0,1,188.442,-4.172,2.908,568.882,-1.107,1.077
1782117463.414307,1.267000,1908027,1000,12,0,1,189.211,-2.955,2.924,568.665,-1.313,1.089
1782117463.415307,1.268000,1908028,1000,12,0,1,186.352,-3.689,2.928,567.993,-1.629,1.112
1782117463.416307,1.269000,1908029,1000,12,0,1,181.644,-6.994,3.084,568.930,-0.991,1.110
1782117463.417307,1.270000,1908030,1000,12,0,1,172.829,-11.986,3.514,566.960,-1.793,1.122
1782117463.418307,1.271000,1908031,1000,12,0,1,159.761,-20.597,4.541,568.785,-1.155,1.130
1782117463.419307,1.272000,1908032,1000,12,0,1,145.109,-28.894,6.098,567.825,-0.309,1.107
1782117463.420307,1.273000,1908033,1000,12,0,1,131.970,-34.521,7.786,568.305,-1.084,1.110
1782117463.421307,1.274000,1908034,1000,12,0,1,123.899,-34.676,9.185,570.035,1.441,1.126
1782117463.422307,1.275000,1908035,1000,12,0,1,115.804,-33.244,10.318,569.242,0.623,1.116
1782117463.423307,1.276000,1908036,1000,12,0,1,110.543,-30.913,11.205,567.873,-0.721,1.121
1782117463.424307,1.277000,1908037,1000,12,0,1,114.675,-20.268,11.563,569.650,0.703,1.125
1782117463.425307,1.278000,1908038,1000,12,0,1,143.451,8.200,11.621,567.632,-0.227,1.124
1782117463.426307,1.279000,1908039,1000,12,0,1,189.907,50.793,13.660,567.584,-1.133,1.112
1782117463.427307,1.280000,1908040,1000,12,0,1,229.782,81.105,17.830,569.530,1.247,1.126
1782117463.428307,1.281000,1908041,1000,12,0,1,262.642,96.914,22.472,570.011,1.679,1.106
1782117463.429307,1.282000,1908042,1000,12,0,1,272.803,92.214,25.965,569.266,0.776,1.094
1782117463.430307,1.283000,1908043,1000,12,0,1,275.733,74.655,28.021,569.362,0.635,1.095
1782117463.431307,1.284000,1908044,1000,12,0,1,262.762,51.087,28.930,571.067,1.794,1.091
1782117463.432307,1.285000,1908045,1000,12,0,1,224.665,5.916,28.937,572.220,2.836,1.144
1782117463.433307,1.286000,1908046,1000,12,0,1,186.953,-33.570,29.322,571.884,1.908,1.161
1782117463.434307,1.287000,1908047,1000,12,0,1,172.372,-45.443,30.016,570.443,0.368,1.089
1782117463.435307,1.288000,1908048,1000,12,0,1,170.739,-39.636,30.535,570.395,-0.319,1.075
1782117463.436307,1.289000,1908049,1000,12,0,1,174.102,-29.750,30.822,570.107,-0.272,1.071
1782117463.437307,1.290000,1908050,1000,12,0,1,180.107,-18.270,30.929,568.665,-1.712,1.097
1782117463.438307,1.291000,1908051,1000,12,0,1,186.136,-8.308,30.950,569.434,-1.165,1.109
1782117463.439307,1.292000,1908052,1000,12,0,1,188.394,-3.632,30.953,568.137,-1.503,1.125
1782117463.440307,1.293000,1908053,1000,12,0,1,188.947,-2.262,30.954,568.641,-1.645,1.148
1782117463.441307,1.294000,1908054,1000,12,0,1,189.187,-2.203,30.955,570.875,1.013,1.154
1782117463.442307,1.295000,1908055,1000,12,0,1,185.752,-5.438,30.965,569.098,-0.238,1.147
1782117463.443307,1.296000,1908056,1000,12,0,1,182.581,-9.914,30.996,567.560,-2.071,1.184
1782117463.444307,1.297000,1908057,1000,12,0,1,177.417,-14.365,31.062,568.473,-0.893,1.181
1782117463.445307,1.298000,1908058,1000,12,0,1,176.336,-16.801,31.151,568.161,-0.708,1.175
1782117463.446307,1.299000,1908059,1000,12,0,1,173.693,-17.526,31.249,567.825,-1.038,1.172
1782117463.447307,1.300000,1908060,1000,12,0,1,173.213,-18.494,31.358,569.026,0.150,1.172
1782117463.448307,1.301000,1908061,1000,12,0,1,177.345,-13.239,31.413,568.353,0.010,1.168
1782117463.449307,1.302000,1908062,1000,12,0,1,180.539,-8.912,31.438,566.792,-1.582,1.190
1782117463.450307,1.303000,1908063,1000,12,0,1,185.872,-3.611,31.442,567.825,-0.662,1.190
1782117463.451307,1.304000,1908064,1000,12,0,1,198.723,8.278,31.461,568.425,0.386,1.146
1782117463.452307,1.305000,1908065,1000,12,0,1,214.961,22.509,31.621,567.512,-0.469,1.142
1782117463.453307,1.306000,1908066,1000,12,0,1,222.768,28.678,31.880,568.041,-0.149,1.142
1782117463.454307,1.307000,1908067,1000,12,0,1,215.009,19.711,32.001,568.665,0.694,1.135
1782117463.455307,1.308000,1908068,1000,12,0,1,202.566,6.334,32.014,568.545,0.489,1.127
1782117463.456307,1.309000,1908069,1000,12,0,1,190.412,-3.741,32.017,568.737,0.574,1.130
1782117463.457307,1.310000,1908070,1000,12,0,1,180.972,-10.218,32.041,570.563,1.938,1.162
1782117463.458307,1.311000,1908071,1000,12,0,1,181.140,-7.557,32.048,569.626,1.476,1.173
1782117463.459307,1.312000,1908072,1000,12,0,1,182.725,-2.175,32.040,568.329,-0.375,1.171
1782117463.460307,1.313000,1908073,1000,12,0,1,183.806,-0.029,32.037,568.834,0.182,1.170
1782117463.461307,1.314000,1908074,1000,12,0,1,184.070,1.335,32.037,568.305,-0.028,1.144
1782117463.462307,1.315000,1908075,1000,12,0,1,181.236,-1.446,32.036,568.761,0.068,1.143
1782117463.463307,1.316000,1908076,1000,12,0,1,179.026,-4.455,32.036,568.305,0.195,1.133
1782117463.464307,1.317000,1908077,1000,12,0,1,176.408,-7.249,32.050,567.897,-0.523,1.120
1782117463.465307,1.318000,1908078,1000,12,0,1,177.249,-8.101,32.066,569.266,0.828,1.102
1782117463.466307,1.319000,1908079,1000,12,0,1,175.495,-9.298,32.078,567.993,0.107,1.093
1782117463.467307,1.320000,1908080,1000,12,0,1,176.624,-10.185,32.066,568.810,0.043,1.063
1782117463.468307,1.321000,1908081,1000,12,0,1,174.510,-10.623,31.968,567.777,0.049,1.051
1782117463.469307,1.322000,1908082,1000,12,0,1,171.532,-13.803,31.766,567.705,-0.909,1.058
1782117463.470307,1.323000,1908083,1000,12,0,1,171.652,-11.876,31.434,567.921,-0.016,1.047
1782117463.471307,1.324000,1908084,1000,12,0,1,177.465,-5.226,31.057,567.488,-0.671,1.031
1782117463.472307,1.325000,1908085,1000,12,0,1,183.566,2.835,30.702,569.410,0.844,1.034
1782117463.473307,1.326000,1908086,1000,12,0,1,185.103,6.010,30.401,568.305,0.513,1.032
1782117463.474307,1.327000,1908087,1000,12,0,1,187.962,9.133,30.293,568.377,-0.474,1.029
1782117463.475307,1.328000,1908088,1000,12,0,1,183.494,8.161,30.293,568.521,0.396,1.030
1782117463.476307,1.329000,1908089,1000,12,0,1,178.402,3.621,29.434,569.074,0.227,1.018
1782117463.477307,1.330000,1908090,1000,12,0,1,170.475,0.352,27.107,569.987,1.337,1.020
1782117463.478307,1.331000,1908091,1000,12,0,1,169.826,0.188,23.387,569.987,1.055,1.003
1782117463.479307,1.332000,1908092,1000,12,0,1,167.688,2.841,19.417,566.119,-1.983,1.036
1782117463.480307,1.333000,1908093,1000,12,0,1,167.688,2.677,16.301,566.119,-2.782,1.105
1782117463.481307,1.334000,1908094,1000,12,0,1,170.739,6.981,14.645,568.137,0.098,1.075
1782117463.482307,1.335000,1908095,1000,12,0,1,170.643,6.618,14.651,569.122,0.985,1.007
1782117463.483307,1.336000,1908096,1000,12,0,1,172.180,5.890,13.886,568.089,0.312,0.971
1782117463.484307,1.337000,1908097,1000,12,0,1,172.781,5.323,12.332,569.266,0.801,0.977
1782117463.485307,1.338000,1908098,1000,12,0,1,171.460,1.199,10.986,571.380,2.861,1.056
1782117463.486307,1.339000,1908099,1000,12,0,1,173.525,0.663,10.149,570.395,1.932,1.090
1782117463.487307,1.340000,1908100,1000,12,0,1,170.403,-3.270,9.825,568.978,-0.082,1.063
1782117463.488307,1.341000,1908101,1000,12,0,1,166.800,-8.677,9.832,571.380,1.658,1.076
1782117463.489307,1.342000,1908102,1000,12,0,1,166.848,-8.808,9.897,569.987,0.976,1.064
1782117463.490307,1.343000,1908103,1000,12,0,1,165.118,-9.249,9.978,568.041,-1.705,1.066
1782117463.491307,1.344000,1908104,1000,12,0,1,167.040,-7.148,10.024,568.137,-1.389,1.074
1782117463.492307,1.345000,1908105,1000,12,0,1,166.559,-4.404,10.014,564.822,-3.611,1.189
1782117463.493307,1.346000,1908106,1000,12,0,1,169.322,-1.293,9.917,566.672,-2.828,1.220
1782117463.494307,1.347000,1908107,1000,12,0,1,169.442,2.690,9.714,568.473,0.463,1.215
1782117463.495307,1.348000,1908108,1000,12,0,1,168.721,3.079,9.429,568.353,-0.230,1.211
1782117463.496307,1.349000,1908109,1000,12,0,1,167.448,4.880,9.124,567.128,-0.779,1.207
1782117463.497307,1.350000,1908110,1000,12,0,1,165.526,4.817,8.767,567.224,-1.104,1.217
1782117463.498307,1.351000,1908111,1000,12,0,1,166.679,7.243,8.626,567.632,-0.187,1.217
