Unix_Time_s,RelativeTime_s,P_1,P_2,P_3,P_4,P_5,P_6,P_7,P_8,P_9,P_10,P_11,P_12,P_13,P_14,P_15,P_16,P_17,P_18,P_19,P_20,P_21,P_22,P_23,P_24,P_25,P_26,P_27,P_28,P_29,P_30,P_31,P_32,P_33,P_34,P_35,P_36,P_37,P_38,P_39,P_40,P_41,P_42,P_43,P_44,P_45,P_46,P_47,P_48,P_49,P_50,P_51,P_52,P_53,P_54,P_55,P_56,P_57,P_58,P_59,P_60,P_61,P_62,P_63,P_64,P_65,P_66,P_67,P_68,P_69,P_70,P_71,P_72,P_73,P_74,P_75,P_76,P_77,P_78,P_79,P_80,P_81,P_82,P_83,P_84,P_85,P_86,P_87,P_88,P_89,P_90,P_91,P_92,P_93,P_94,P_95,P_96,P_97,P_98,P_99,P_100,P_101,P_102,P_103,P_104,P_105,P_106,P_107,P_108,P_109,P_110,P_111,P_112,P_113,P_114,P_115,P_116,P_117,P_118,P_119,P_120,P_121,P_122,P_123,P_124,P_125,P_126,P_127,P_128,P_129,P_130,P_131,P_132,P_133,P_134,P_135,P_136,P_137,P_138,P_139,P_140,P_141,P_142,P_143,P_144,P_145,P_146,P_147,P_148,P_149,P_150,P_151,P_152,P_153,P_154,P_155,P_156,P_157,P_158,P_159,P_160,P_161,P_162,P_163,P_164,P_165,P_166,P_167,P_168,P_169,P_170,P_171,P_172,P_173,P_174,P_175,P_176,P_177,P_178,P_179,P_180,P_181,P_182,P_183,P_184,P_185,P_186,P_187,P_188,P_189,P_190,P_191,P_192,P_193,P_194,P_195,P_196,P_197,P_198,P_199,P_200,P_201,P_202,P_203,P_204,P_205,P_206,P_207,P_208,P_209,P_210,P_211,P_212,P_213,P_214,P_215,P_216,P_217,P_218,P_219,P_220,P_221,P_222,P_223,P_224,P_225,P_226,P_227,P_228,P_229,P_230,P_231,P_232,P_233,Flex1,Flex2,Bat,IMU1_RefTime,IMU1_Ax,IMU1_Ay,IMU1_Az,IMU1_Wx,IMU1_Wy,IMU1_Wz,IMU1_Roll,IMU1_Pitch,IMU1_Yaw,IMU1_Hx,IMU1_Hy,IMU1_Hz,IMU1_Q0,IMU1_Q1,IMU1_Q2,IMU1_Q3,IMU2_RefTime,IMU2_Ax,IMU2_Ay,IMU2_Az,IMU2_Wx,IMU2_Wy,IMU2_Wz,IMU2_Roll,IMU2_Pitch,IMU2_Yaw,IMU2_Hx,IMU2_Hy,IMU2_Hz,IMU2_Q0,IMU2_Q1,IMU2_Q2,IMU2_Q3,IMU1_FusedRoll,IMU1_FusedPitch,IMU1_FusedYaw,IMU1_FusedQ0,IMU1_FusedQ1,IMU1_FusedQ2,IMU1_FusedQ3,IMU1_MagValid,IMU2_FusedRoll,IMU2_FusedPitch,IMU2_FusedYaw,IMU2_FusedQ0,IMU2_FusedQ1,IMU2_FusedQ2,IMU2_FusedQ3,IMU2_MagValid
1782117462.153829,0.007,1020.0,1026.0,1019.0,1022.0,1018.0,1027.0,1020.0,1021.0,1011.0,1022.0,1018.0,1027.0,1020.0,1021.0,1011.0,1020.0,1022.0,1018.0,1026.0,1020.0,1022.0,1011.0,1020.0,1020.0,1022.0,1018.0,1027.0,1020.0,1021.0,1010.0,1020.0,1020.0,1021.0,1022.0,1018.0,1027.0,1021.0,1022.0,1011.0,1019.0,1020.0,1021.0,1023.0,1018.0,1027.0,1020.0,1022.0,1010.0,1020.0,1020.0,1020.0,1019.0,1023.0,1018.0,1026.0,1020.0,1021.0,1011.0,1020.0,1020.0,1020.0,1019.0,1023.0,1018.0,1026.0,1021.0,1023.0,1011.0,1020.0,1020.0,1021.0,1020.0,1022.0,1018.0,1027.0,1020.0,1022.0,1010.0,1019.0,1020.0,1020.0,1020.0,1023.0,1018.0,1027.0,1021.0,1022.0,1011.0,1019.0,1020.0,1020.0,1019.0,1024.0,1018.0,1027.0,1020.0,1023.0,1011.0,1020.0,1021.0,1021.0,1020.0,1024.0,1018.0,1028.0,1021.0,1022.0,1011.0,1020.0,1020.0,1021.0,1020.0,1024.0,1019.0,1028.0,1021.0,1025.0,1012.0,1021.0,1022.0,1023.0,1025.0,1019.0,1028.0,1021.0,1025.0,1013.0,1021.0,1021.0,1024.0,1019.0,1028.0,1021.0,1024.0,1012.0,1019.0,1024.0,1019.0,1028.0,1021.0,1024.0,1013.0,1020.0,1024.0,1018.0,1028.0,1021.0,1023.0,1013.0,1020.0,1024.0,1019.0,1028.0,1021.0,1023.0,1012.0,1023.0,1018.0,1028.0,1021.0,1021.0,1012.0,1024.0,1019.0,1028.0,1021.0,1023.0,1012.0,1025.0,1019.0,1028.0,1022.0,1025.0,1014.0,1023.0,1019.0,1028.0,1021.0,1023.0,1012.0,1025.0,1020.0,1029.0,1022.0,1025.0,1015.0,1024.0,1019.0,1029.0,1022.0,1024.0,1015.0,1025.0,1020.0,1029.0,1022.0,1025.0,1016.0,1025.0,1020.0,1030.0,1022.0,1025.0,1018.0,1027.0,1021.0,1031.0,1022.0,1026.0,1020.0,1029.0,1023.0,1033.0,1023.0,1026.0,1024.0,1030.0,1024.0,1034.0,1023.0,1025.0,1024.0,1040.0,1032.0,1047.0,1026.0,1031.0,1104.0,1037.0,1030.0,1044.0,1025.0,1030.0,2281,2240,1902,	00:32:33.027,-0.00732421875,0.046875,1.02099609375,-0.1220703125,0.30517578125,0.1220703125,2.65869140625,0.3680419921875,-37.99072265625,46.0,-480.0,-4143.0,-0.94525146484375,-0.022979736328125,0.004547119140625,0.325469970703125,2.6601383158709804,0.3653044672142026,-42.46543719878939,-0.9318344660754224,-0.022790395084997292,0.005435669326370961,0.36212646855039016,1,	00:32:33.028,0.03271484375,0.07568359375,1.01953125,0.30517578125,0.18310546875,0.3662109375,4.2352294921875,-1.8402099609375,133.1707763671875,-81.0,685.0,-1783.0,0.396484375,0.0294189453125,0.02752685546875,0.917144775390625,4.2372236566579815,-1.8411124930259979,126.05354089920792,0.45267626957115126,0.031074283591226104,0.025660443715885974,0.8907637877095937,1
1782117462.165230,0.018,1020.0,1025.0,1019.0,1022.0,1018.0,1026.0,1019.0,1021.0,1011.0,1023.0,1018.0,1027.0,1020.0,1022.0,1010.0,1020.0,1023.0,1018.0,1027.0,1020.0,1022.0,1011.0,1020.0,1019.0,1023.0,1018.0,1027.0,1020.0,1022.0,1011.0,1020.0,1020.0,1020.0,1023.0,1018.0,1027.0,1020.0,1022.0,1011.0,1020.0,1020.0,1021.0,1023.0,1018.0,1027.0,1021.0,1022.0,1011.0,1019.0,1020.0,1020.0,1019.0,1023.0,1017.0,1027.0,1020.0,1022.0,1010.0,1020.0,1020.0,1020.0,1018.0,1023.0,1018.0,1027.0,1021.0,1023.0,1011.0,1020.0,1021.0,1021.0,1020.0,1024.0,1018.0,1027.0,1020.0,1022.0,1011.0,1020.0,1020.0,1021.0,1019.0,1024.0,1018.0,1027.0,1021.0,1022.0,1010.0,1020.0,1019.0,1020.0,1020.0,1024.0,1018.0,1027.0,1020.0,1023.0,1011.0,1020.0,1020.0,1021.0,1020.0,1024.0,1018.0,1027.0,1021.0,1023.0,1012.0,1020.0,1020.0,1021.0,1020.0,1025.0,1019.0,1028.0,1021.0,1024.0,1012.0,1021.0,1022.0,1023.0,1025.0,1019.0,1028.0,1021.0,1025.0,1013.0,1020.0,1022.0,1025.0,1019.0,1028.0,1021.0,1024.0,1012.0,1020.0,1025.0,1018.0,1027.0,1020.0,1024.0,1013.0,1020.0,1024.0,1019.0,1027.0,1020.0,1024.0,1013.0,1020.0,1024.0,1018.0,1028.0,1020.0,1023.0,1013.0,1024.0,1018.0,1027.0,1020.0,1022.0,1011.0,1025.0,1019.0,1027.0,1021.0,1023.0,1013.0,1025.0,1019.0,1028.0,1021.0,1024.0,1014.0,1024.0,1019.0,1028.0,1021.0,1023.0,1012.0,1025.0,1020.0,1029.0,1022.0,1025.0,1015.0,1024.0,1019.0,1029.0,1021.0,1024.0,1015.0,1025.0,1019.0,1030.0,1022.0,1024.0,1016.0,1026.0,1021.0,1030.0,1021.0,1025.0,1017.0,1028.0,1021.0,1031.0,1022.0,1026.0,1020.0,1030.0,1023.0,1033.0,1023.0,1027.0,1023.0,1030.0,1023.0,1034.0,1023.0,1025.0,1024.0,1041.0,1032.0,1047.0,1025.0,1030.0,1104.0,1038.0,1030.0,1045.0,1025.0,1030.0,2281,2240,1902,	00:32:33.037,-0.00732421875,0.04638671875,1.02099609375,-0.1220703125,0.3662109375,0.18310546875,2.5872802734375,0.4229736328125,-37.99072265625,45.0,-480.0,-4144.0,-0.945281982421875,-0.022552490234375,0.00384521484375,0.325469970703125,2.5863269935664133,0.42477356320188164,-42.46393926361268,-0.9318477776734508,-0.02237809434253246,0.0047184954438823845,0.3621279828173926,1,	00:32:33.038,0.03271484375,0.07568359375,1.01953125,0.30517578125,0.18310546875,0.3662109375,4.306640625,-1.7742919921875,133.17626953125,-81.0,685.0,-1780.0,0.396484375,0.02911376953125,0.0283203125,0.917144775390625,4.304959933198973,-1.7747453808974332,126.0552872705254,0.4526677726638092,0.030825880621583254,0.026450229711868365,0.8907536348641409,1
1782117462.174177,0.027,1020.0,1026.0,1019.0,1022.0,1017.0,1027.0,1020.0,1022.0,1011.0,1023.0,1018.0,1027.0,1020.0,1021.0,1010.0,1020.0,1023.0,1018.0,1027.0,1019.0,1022.0,1010.0,1020.0,1020.0,1022.0,1018.0,1028.0,1021.0,1022.0,1010.0,1020.0,1020.0,1020.0,1023.0,1018.0,1027.0,1020.0,1022.0,1010.0,1019.0,1020.0,1020.0,1023.0,1018.0,1027.0,1020.0,1021.0,1011.0,1020.0,1020.0,1020.0,1019.0,1023.0,1018.0,1027.0,1021.0,1021.0,1010.0,1020.0,1019.0,1020.0,1018.0,1024.0,1018.0,1027.0,1020.0,1022.0,1011.0,1020.0,1020.0,1021.0,1019.0,1023.0,1018.0,1026.0,1021.0,1022.0,1010.0,1020.0,1020.0,1021.0,1019.0,1023.0,1018.0,1027.0,1021.0,1022.0,1011.0,1020.0,1020.0,1020.0,1019.0,1023.0,1018.0,1028.0,1020.0,1022.0,1011.0,1020.0,1020.0,1021.0,1020.0,1024.0,1018.0,1028.0,1021.0,1023.0,1011.0,1020.0,1020.0,1021.0,1020.0,1024.0,1019.0,1028.0,1021.0,1025.0,1013.0,1021.0,1023.0,1023.0,1025.0,1019.0,1028.0,1020.0,1025.0,1013.0,1020.0,1021.0,1025.0,1019.0,1028.0,1021.0,1024.0,1013.0,1020.0,1024.0,1019.0,1028.0,1021.0,1025.0,1013.0,1020.0,1024.0,1018.0,1028.0,1021.0,1023.0,1013.0,1021.0,1024.0,1018.0,1028.0,1020.0,1023.0,1012.0,1024.0,1018.0,1027.0,1021.0,1022.0,1012.0,1024.0,1018.0,1028.0,1021.0,1024.0,1013.0,1024.0,1019.0,1028.0,1021.0,1025.0,1014.0,1024.0,1018.0,1028.0,1021.0,1023.0,1013.0,1025.0,1020.0,1029.0,1022.0,1025.0,1015.0,1024.0,1019.0,1029.0,1022.0,1024.0,1015.0,1025.0,1020.0,1029.0,1022.0,1025.0,1017.0,1025.0,1020.0,1031.0,1022.0,1025.0,1017.0,1027.0,1021.0,1032.0,1022.0,1026.0,1020.0,1029.0,1023.0,1033.0,1023.0,1026.0,1024.0,1029.0,1023.0,1034.0,1023.0,1025.0,1023.0,1041.0,1032.0,1047.0,1026.0,1031.0,1105.0,1037.0,1031.0,1045.0,1026.0,1030.0,2280,2239,1901,	00:32:33.047,-0.0078125,0.04638671875,1.02099609375,-0.1220703125,0.3662109375,0.1220703125,2.6531982421875,0.4888916015625,-37.99072265625,46.0,-478.0,-4146.0,-0.94525146484375,-0.023284912109375,0.003509521484375,0.325469970703125,2.653905622911015,0.48886826817655127,-42.46200678333869,-0.931833756835241,-0.023130162860952697,0.004410423854707098,0.36212068892810945,1,	00:32:33.048,0.033203125,0.07568359375,1.02197265625,0.0,0.244140625,0.42724609375,4.2462158203125,-1.8402099609375,133.1817626953125,-82.0,683.0,-1781.0,0.39642333984375,0.029449462890625,0.027587890625,0.91717529296875,4.245101561535304,-1.8421718667190292,126.06161793037377,0.4526109729240642,0.031111821087648397,0.02571967992120495,0.8907939491499103,1
1782117462.184458,0.037,1020.0,1026.0,1019.0,1022.0,1018.0,1027.0,1020.0,1022.0,1010.0,1022.0,1017.0,1027.0,1020.0,1022.0,1011.0,1020.0,1022.0,1017.0,1027.0,1020.0,1022.0,1010.0,1020.0,1020.0,1023.0,1018.0,1027.0,1020.0,1022.0,1010.0,1019.0,1020.0,1020.0,1023.0,1019.0,1028.0,1020.0,1022.0,1010.0,1020.0,1020.0,1020.0,1023.0,1018.0,1027.0,1020.0,1022.0,1010.0,1020.0,1019.0,1021.0,1019.0,1022.0,1018.0,1026.0,1020.0,1022.0,1011.0,1020.0,1020.0,1020.0,1019.0,1023.0,1019.0,1027.0,1020.0,1022.0,1011.0,1020.0,1021.0,1021.0,1020.0,1023.0,1018.0,1027.0,1020.0,1022.0,1010.0,1020.0,1020.0,1020.0,1019.0,1023.0,1018.0,1028.0,1020.0,1022.0,1011.0,1019.0,1020.0,1020.0,1020.0,1024.0,1018.0,1027.0,1021.0,1023.0,1010.0,1020.0,1020.0,1021.0,1020.0,1024.0,1018.0,1028.0,1021.0,1023.0,1011.0,1020.0,1020.0,1022.0,1020.0,1025.0,1019.0,1028.0,1021.0,1025.0,1011.0,1021.0,1022.0,1024.0,1025.0,1019.0,1028.0,1021.0,1025.0,1012.0,1020.0,1021.0,1024.0,1018.0,1028.0,1020.0,1024.0,1012.0,1020.0,1025.0,1019.0,1028.0,1021.0,1025.0,1012.0,1020.0,1024.0,1018.0,1028.0,1021.0,1023.0,1012.0,1020.0,1024.0,1018.0,1028.0,1021.0,1023.0,1012.0,1024.0,1018.0,1028.0,1021.0,1022.0,1012.0,1024.0,1019.0,1028.0,1021.0,1024.0,1013.0,1025.0,1019.0,1029.0,1022.0,1024.0,1013.0,1024.0,1019.0,1029.0,1021.0,1022.0,1012.0,1025.0,1019.0,1030.0,1022.0,1024.0,1014.0,1024.0,1019.0,1030.0,1021.0,1024.0,1014.0,1026.0,1019.0,1030.0,1022.0,1024.0,1016.0,1026.0,1020.0,1031.0,1022.0,1025.0,1017.0,1028.0,1021.0,1033.0,1023.0,1025.0,1019.0,1029.0,1023.0,1034.0,1023.0,1026.0,1023.0,1031.0,1023.0,1035.0,1023.0,1025.0,1023.0,1042.0,1033.0,1048.0,1026.0,1030.0,1104.0,1038.0,1031.0,1046.0,1026.0,1030.0,2280,2239,1902,	00:32:33.057,-0.00830078125,0.0458984375,1.02099609375,-0.06103515625,0.3662109375,0.1220703125,2.5653076171875,0.4669189453125,-37.9852294921875,46.0,-478.0,-4144.0,-0.945281982421875,-0.022491455078125,0.003448486328125,0.325469970703125,2.565454755072919,0.4666104479863477,-42.461350120151266,-0.9318557372516255,-0.022340614037646464,0.004311793580062812,0.36211488557055155,1,	00:32:33.059,0.03271484375,0.07666015625,1.02001953125,-0.18310546875,0.244140625,0.48828125,4.3341064453125,-1.82373046875,133.1817626953125,-82.0,683.0,-1781.0,0.396392822265625,0.02960205078125,0.02838134765625,0.91717529296875,4.332924703225281,-1.8225676313000607,126.0637981473421,0.4525770508715904,0.0313058907413779,0.026480586903864473,0.8907820904949143,1
1782117462.195450,0.048,1021.0,1027.0,1019.0,1022.0,1017.0,1028.0,1020.0,1021.0,1011.0,1023.0,1018.0,1028.0,1020.0,1022.0,1010.0,1020.0,1023.0,1018.0,1028.0,1020.0,1022.0,1010.0,1020.0,1020.0,1023.0,1017.0,1027.0,1020.0,1022.0,1010.0,1020.0,1020.0,1020.0,1023.0,1018.0,1028.0,1021.0,1023.0,1010.0,1020.0,1020.0,1021.0,1023.0,1017.0,1028.0,1020.0,1022.0,1010.0,1019.0,1019.0,1020.0,1018.0,1023.0,1018.0,1028.0,1020.0,1022.0,1010.0,1019.0,1020.0,1020.0,1019.0,1023.0,1018.0,1027.0,1020.0,1022.0,1010.0,1020.0,1020.0,1021.0,1020.0,1023.0,1017.0,1028.0,1020.0,1022.0,1010.0,1020.0,1020.0,1020.0,1020.0,1023.0,1018.0,1028.0,1020.0,1022.0,1010.0,1020.0,1020.0,1021.0,1019.0,1024.0,1018.0,1028.0,1021.0,1022.0,1011.0,1020.0,1020.0,1021.0,1020.0,1024.0,1018.0,1028.0,1021.0,1023.0,1011.0,1020.0,1020.0,1021.0,1020.0,1026.0,1019.0,1029.0,1021.0,1025.0,1011.0,1020.0,1022.0,1023.0,1025.0,1019.0,1029.0,1021.0,1025.0,1012.0,1021.0,1021.0,1024.0,1019.0,1028.0,1021.0,1024.0,1013.0,1020.0,1025.0,1019.0,1028.0,1021.0,1025.0,1012.0,1020.0,1024.0,1019.0,1029.0,1020.0,1023.0,1012.0,1020.0,1024.0,1018.0,1028.0,1021.0,1024.0,1011.0,1024.0,1018.0,1028.0,1021.0,1023.0,1011.0,1025.0,1018.0,1029.0,1021.0,1024.0,1013.0,1025.0,1019.0,1029.0,1021.0,1024.0,1013.0,1024.0,1018.0,1028.0,1021.0,1023.0,1012.0,1025.0,1020.0,1030.0,1021.0,1024.0,1015.0,1024.0,1019.0,1029.0,1021.0,1024.0,1014.0,1025.0,1020.0,1030.0,1021.0,1024.0,1016.0,1026.0,1020.0,1031.0,1022.0,1025.0,1017.0,1028.0,1022.0,1032.0,1022.0,1025.0,1020.0,1029.0,1023.0,1034.0,1023.0,1026.0,1023.0,1031.0,1024.0,1034.0,1022.0,1025.0,1023.0,1041.0,1033.0,1047.0,1026.0,1031.0,1103.0,1038.0,1031.0,1046.0,1025.0,1030.0,2280,2239,1902,	00:32:33.068,-0.00732421875,0.046875,1.02099609375,-0.06103515625,0.42724609375,0.18310546875,2.6312255859375,0.4119873046875,-37.9852294921875,46.0,-476.0,-4143.0,-0.945281982421875,-0.02288818359375,0.00408935546875,0.325439453125,2.6334319577412555,0.4100078589609037,-42.4588047879321,-0.9318562343152933,-0.022714727523481564,0.004986416659895195,0.3620816694754779,1,	00:32:33.069,0.03125,0.07666015625,1.02001953125,-0.244140625,0.244140625,0.48828125,4.2901611328125,-1.73583984375,133.187255859375,-82.0,683.0,-1785.0,0.396392822265625,0.028778076171875,0.0283203125,0.917205810546875,4.290713266802817,-1.7380035374209006,126.07008287267142,0.4525695103313967,0.030480743217373103,0.026488893247942003,0.8908142910538737,1
1782117462.204947,0.058,1020.0,1027.0,1019.0,1022.0,1017.0,1027.0,1020.0,1021.0,1011.0,1023.0,1018.0,1028.0,1020.0,1022.0,1010.0,1019.0,1023.0,1017.0,1028.0,1020.0,1022.0,1010.0,1020.0,1020.0,1023.0,1017.0,1028.0,1021.0,1022.0,1010.0,1019.0,1020.0,1020.0,1023.0,1017.0,1028.0,1020.0,1022.0,1010.0,1019.0,1020.0,1020.0,1023.0,1017.0,1028.0,1020.0,1022.0,1010.0,1019.0,1020.0,1020.0,1019.0,1023.0,1017.0,1028.0,1020.0,1022.0,1010.0,1019.0,1020.0,1020.0,1018.0,1023.0,1018.0,1028.0,1020.0,1022.0,1010.0,1020.0,1020.0,1020.0,1020.0,1023.0,1018.0,1028.0,1020.0,1022.0,1010.0,1020.0,1020.0,1020.0,1019.0,1023.0,1017.0,1027.0,1020.0,1023.0,1010.0,1020.0,1020.0,1020.0,1019.0,1024.0,1018.0,1028.0,1020.0,1023.0,1010.0,1020.0,1020.0,1021.0,1020.0,1024.0,1018.0,1028.0,1021.0,1023.0,1011.0,1020.0,1020.0,1021.0,1020.0,1025.0,1018.0,1029.0,1021.0,1026.0,1012.0,1020.0,1023.0,1024.0,1025.0,1018.0,1029.0,1021.0,1025.0,1013.0,1021.0,1022.0,1025.0,1018.0,1028.0,1021.0,1023.0,1012.0,1020.0,1024.0,1018.0,1028.0,1021.0,1024.0,1013.0,1020.0,1024.0,1018.0,1028.0,1021.0,1023.0,1012.0,1019.0,1024.0,1018.0,1029.0,1021.0,1023.0,1012.0,1024.0,1018.0,1028.0,1020.0,1022.0,1012.0,1024.0,1018.0,1029.0,1021.0,1024.0,1013.0,1025.0,1019.0,1029.0,1022.0,1024.0,1014.0,1023.0,1018.0,1029.0,1021.0,1023.0,1012.0,1025.0,1020.0,1030.0,1021.0,1024.0,1014.0,1024.0,1018.0,1030.0,1022.0,1024.0,1015.0,1025.0,1020.0,1031.0,1022.0,1024.0,1016.0,1026.0,1020.0,1030.0,1022.0,1025.0,1017.0,1027.0,1022.0,1033.0,1022.0,1026.0,1020.0,1029.0,1023.0,1034.0,1023.0,1026.0,1024.0,1030.0,1023.0,1035.0,1023.0,1025.0,1024.0,1041.0,1033.0,1047.0,1027.0,1030.0,1105.0,1038.0,1031.0,1045.0,1025.0,1030.0,2279,2238,1902,	00:32:33.078,-0.00732421875,0.04638671875,1.02099609375,-0.06103515625,0.3662109375,0.18310546875,2.5433349609375,0.41748046875,-37.9852294921875,48.0,-479.0,-4143.0,-0.9453125,-0.02215576171875,0.0037841796875,0.325439453125,2.541267891334072,0.4152333292303533,-42.45746674039834,-0.9318779107183612,-0.021981802899499168,0.0046524453361873885,0.36207556477738617,1,	00:32:33.079,0.0322265625,0.07568359375,1.01806640625,-0.30517578125,0.244140625,0.48828125,4.24072265625,-1.8182373046875,133.1982421875,-82.0,684.0,-1784.0,0.396331787109375,0.02923583984375,0.027679443359375,0.917236328125,4.242806733485894,-1.8159776011968491,126.07652536888146,0.4525049009364886,0.030895897231243346,0.025809563675575072,0.8908527513487352,1
1782117462.216963,0.070,1020.0,1027.0,1019.0,1022.0,1017.0,1027.0,1020.0,1021.0,1011.0,1022.0,1017.0,1028.0,1020.0,1022.0,1011.0,1020.0,1023.0,1017.0,1028.0,1020.0,1022.0,1010.0,1020.0,1020.0,1023.0,1017.0,1028.0,1020.0,1022.0,1010.0,1020.0,1020.0,1020.0,1023.0,1017.0,1028.0,1020.0,1022.0,1010.0,1020.0,1020.0,1020.0,1023.0,1018.0,1027.0,1021.0,1022.0,1010.0,1020.0,1019.0,1020.0,1019.0,1023.0,1017.0,1028.0,1021.0,1022.0,1010.0,1019.0,1020.0,1020.0,1019.0,1024.0,1017.0,1028.0,1020.0,1022.0,1010.0,1020.0,1020.0,1021.0,1020.0,1023.0,1017.0,1028.0,1021.0,1023.0,1011.0,1019.0,1019.0,1020.0,1020.0,1023.0,1017.0,1028.0,1020.0,1022.0,1011.0,1020.0,1021.0,1020.0,1019.0,1024.0,1017.0,1028.0,1020.0,1022.0,1010.0,1020.0,1020.0,1021.0,1020.0,1024.0,1018.0,1028.0,1020.0,1023.0,1010.0,1020.0,1021.0,1022.0,1020.0,1025.0,1018.0,1028.0,1021.0,1025.0,1011.0,1021.0,1023.0,1024.0,1025.0,1018.0,1028.0,1021.0,1025.0,1012.0,1020.0,1022.0,1025.0,1019.0,1029.0,1021.0,1024.0,1012.0,1020.0,1024.0,1018.0,1029.0,1021.0,1025.0,1013.0,1020.0,1024.0,1018.0,1028.0,1021.0,1023.0,1012.0,1020.0,1024.0,1018.0,1028.0,1021.0,1023.0,1012.0,1024.0,1017.0,1028.0,1020.0,1022.0,1011.0,1024.0,1018.0,1028.0,1021.0,1023.0,1012.0,1025.0,1019.0,1029.0,1022.0,1025.0,1013.0,1024.0,1018.0,1029.0,1021.0,1023.0,1012.0,1026.0,1019.0,1030.0,1021.0,1024.0,1014.0,1025.0,1019.0,1030.0,1022.0,1024.0,1014.0,1026.0,1019.0,1030.0,1021.0,1025.0,1016.0,1026.0,1020.0,1031.0,1022.0,1024.0,1017.0,1028.0,1021.0,1032.0,1022.0,1025.0,1020.0,1030.0,1023.0,1035.0,1023.0,1026.0,1023.0,1031.0,1023.0,1035.0,1023.0,1025.0,1023.0,1042.0,1033.0,1048.0,1026.0,1031.0,1104.0,1039.0,1031.0,1046.0,1025.0,1029.0,2279,2238,1902,	00:32:33.088,-0.00830078125,0.04638671875,1.0205078125,-0.06103515625,0.3662109375,0.1220703125,2.6092529296875,0.4779052734375,-37.979736328125,45.0,-476.0,-4145.0,-0.945281982421875,-0.02288818359375,0.00347900390625,0.325408935546875,2.611469885595333,0.4769592976888627,-42.45553394296825,-0.931863977560271,-0.022747715055927556,0.004371886841008424,0.3620676116290083,1,	00:32:33.089,0.033203125,0.076171875,1.01904296875,-0.42724609375,0.18310546875,0.42724609375,4.2901611328125,-1.8896484375,133.1982421875,-81.0,685.0,-1781.0,0.396270751953125,0.029998779296875,0.027801513671875,0.917236328125,4.291398947431411,-1.8890143222955336,126.07921293763717,0.45244493033384026,0.03165461304403535,0.025898985147738692,0.8908539796490534,1
1782117462.225961,0.079,1020.0,1027.0,1019.0,1022.0,1017.0,1027.0,1020.0,1021.0,1010.0,1023.0,1018.0,1028.0,1020.0,1021.0,1010.0,1020.0,1023.0,1018.0,1028.0,1020.0,1022.0,1010.0,1020.0,1020.0,1023.0,1018.0,1028.0,1020.0,1021.0,1010.0,1020.0,1020.0,1020.0,1023.0,1017.0,1028.0,1020.0,1022.0,1010.0,1020.0,1020.0,1021.0,1023.0,1018.0,1028.0,1020.0,1022.0,1010.0,1020.0,1020.0,1020.0,1019.0,1023.0,1018.0,1027.0,1020.0,1021.0,1010.0,1020.0,1020.0,1020.0,1019.0,1024.0,1017.0,1028.0,1021.0,1023.0,1010.0,1020.0,1020.0,1021.0,1020.0,1024.0,1017.0,1028.0,1021.0,1022.0,1010.0,1020.0,1020.0,1020.0,1019.0,1024.0,1017.0,1028.0,1020.0,1022.0,1010.0,1020.0,1020.0,1020.0,1019.0,1024.0,1018.0,1028.0,1021.0,1023.0,1011.0,1020.0,1020.0,1021.0,1020.0,1025.0,1018.0,1028.0,1020.0,1023.0,1011.0,1020.0,1020.0,1021.0,1020.0,1026.0,1019.0,1029.0,1021.0,1025.0,1012.0,1021.0,1023.0,1024.0,1025.0,1018.0,1028.0,1021.0,1024.0,1012.0,1020.0,1021.0,1026.0,1019.0,1029.0,1021.0,1024.0,1011.0,1020.0,1025.0,1018.0,1028.0,1020.0,1024.0,1012.0,1020.0,1024.0,1018.0,1029.0,1021.0,1023.0,1012.0,1020.0,1024.0,1018.0,1029.0,1020.0,1023.0,1011.0,1024.0,1018.0,1028.0,1021.0,1022.0,1011.0,1025.0,1018.0,1029.0,1021.0,1024.0,1012.0,1025.0,1019.0,1029.0,1022.0,1024.0,1014.0,1024.0,1018.0,1029.0,1021.0,1023.0,1012.0,1025.0,1019.0,1030.0,1021.0,1024.0,1015.0,1025.0,1019.0,1029.0,1022.0,1024.0,1014.0,1026.0,1019.0,1030.0,1022.0,1025.0,1016.0,1026.0,1020.0,1031.0,1022.0,1024.0,1017.0,1028.0,1021.0,1032.0,1022.0,1025.0,1019.0,1030.0,1023.0,1035.0,1023.0,1026.0,1023.0,1031.0,1023.0,1035.0,1023.0,1024.0,1023.0,1042.0,1032.0,1047.0,1026.0,1031.0,1104.0,1038.0,1031.0,1046.0,1025.0,1030.0,2279,2238,1901,	00:32:33.099,-0.0078125,0.04638671875,1.0205078125,-0.06103515625,0.3662109375,0.1220703125,2.5927734375,0.3900146484375,-37.979736328125,45.0,-479.0,-4145.0,-0.9453125,-0.022491455078125,0.004119873046875,0.325408935546875,2.590356734608601,0.39122785311903424,-42.45430255724814,-0.9318808074704393,-0.022305319455379172,0.00500216219201323,0.36204366002685423,1,	00:32:33.100,0.0322265625,0.076171875,1.01953125,-0.54931640625,0.244140625,0.48828125,4.2681884765625,-1.7962646484375,133.2037353515625,-82.0,685.0,-1781.0,0.396240234375,0.0291748046875,0.027923583984375,0.917266845703125,4.2658309953922515,-1.7975630096170203,126.08490353381457,0.45244002812199907,0.0308418389044319,0.02606369647291221,0.8908801746880024,1
1782117462.236094,0.089,1021.0,1027.0,1019.0,1022.0,1017.0,1027.0,1020.0,1021.0,1011.0,1023.0,1017.0,1027.0,1020.0,1021.0,1010.0,1020.0,1023.0,1017.0,1027.0,1020.0,1022.0,1010.0,1020.0,1020.0,1023.0,1017.0,1028.0,1020.0,1021.0,1010.0,1019.0,1020.0,1020.0,1024.0,1017.0,1028.0,1021.0,1022.0,1010.0,1020.0,1020.0,1021.0,1023.0,1017.0,1028.0,1020.0,1023.0,1010.0,1020.0,1020.0,1020.0,1019.0,1023.0,1018.0,1028.0,1020.0,1022.0,1010.0,1019.0,1020.0,1020.0,1018.0,1024.0,1018.0,1028.0,1020.0,1023.0,1010.0,1020.0,1020.0,1021.0,1020.0,1024.0,1017.0,1027.0,1020.0,1022.0,1010.0,1020.0,1020.0,1020.0,1019.0,1024.0,1017.0,1028.0,1021.0,1022.0,1010.0,1019.0,1021.0,1021.0,1019.0,1024.0,1018.0,1028.0,1020.0,1022.0,1010.0,1020.0,1020.0,1021.0,1020.0,1025.0,1018.0,1028.0,1020.0,1023.0,1010.0,1020.0,1020.0,1021.0,1020.0,1026.0,1019.0,1029.0,1021.0,1025.0,1012.0,1021.0,1022.0,1024.0,1026.0,1018.0,1029.0,1021.0,1025.0,1012.0,1020.0,1021.0,1025.0,1018.0,1028.0,1021.0,1024.0,1012.0,1020.0,1026.0,1018.0,1028.0,1021.0,1024.0,1013.0,1021.0,1024.0,1018.0,1029.0,1021.0,1023.0,1012.0,1020.0,1024.0,1018.0,1029.0,1021.0,1023.0,1011.0,1024.0,1018.0,1028.0,1020.0,1022.0,1011.0,1024.0,1019.0,1029.0,1021.0,1024.0,1012.0,1025.0,1019.0,1029.0,1022.0,1025.0,1013.0,1024.0,1018.0,1028.0,1021.0,1023.0,1012.0,1025.0,1019.0,1029.0,1022.0,1025.0,1014.0,1024.0,1019.0,1029.0,1021.0,1024.0,1014.0,1026.0,1019.0,1030.0,1022.0,1025.0,1016.0,1026.0,1020.0,1031.0,1021.0,1025.0,1017.0,1028.0,1021.0,1031.0,1022.0,1025.0,1020.0,1030.0,1022.0,1034.0,1023.0,1026.0,1023.0,1031.0,1024.0,1034.0,1022.0,1026.0,1024.0,1042.0,1033.0,1047.0,1026.0,1031.0,1105.0,1039.0,1031.0,1046.0,1025.0,1031.0,2279,2237,1902,	00:32:33.109,-0.00732421875,0.04638671875,1.02099609375,-0.06103515625,0.3662109375,0.18310546875,2.63671875,0.472412109375,-37.979736328125,45.0,-477.0,-4147.0,-0.945281982421875,-0.023101806640625,0.003570556640625,0.32537841796875,2.6349161921768878,0.4745402401036142,-42.45196713422647,-0.9318708304360607,-0.02293088047899436,0.004464928045764573,0.3620372833292326,1,	00:32:33.110,0.03125,0.07568359375,1.0185546875,-0.54931640625,0.244140625,0.48828125,4.229736328125,-1.7083740234375,133.209228515625,-81.0,688.0,-1786.0,0.396240234375,0.0283203125,0.0279541015625,0.91729736328125,4.229074165328245,-1.7093922460552713,126.09090456675442,0.452433878360481,0.03001025653819363,0.02612842164895069,0.890909802278738,1
1782117462.246453,0.099,1021.0,1026.0,1019.0,1023.0,1016.0,1028.0,1020.0,1021.0,1010.0,1023.0,1018.0,1028.0,1020.0,1021.0,1010.0,1020.0,1023.0,1017.0,1028.0,1020.0,1022.0,1010.0,1020.0,1020.0,1023.0,1017.0,1028.0,1020.0,1021.0,1010.0,1020.0,1020.0,1020.0,1024.0,1017.0,1028.0,1021.0,1022.0,1009.0,1020.0,1020.0,1020.0,1024.0,1018.0,1028.0,1020.0,1022.0,1010.0,1020.0,1020.0,1020.0,1018.0,1023.0,1018.0,1028.0,1021.0,1022.0,1010.0,1020.0,1019.0,1020.0,1019.0,1024.0,1018.0,1028.0,1020.0,1022.0,1010.0,1020.0,1020.0,1021.0,1020.0,1024.0,1017.0,1028.0,1020.0,1022.0,1010.0,1019.0,1019.0,1020.0,1019.0,1024.0,1018.0,1028.0,1020.0,1022.0,1009.0,1020.0,1020.0,1021.0,1019.0,1024.0,1018.0,1028.0,1020.0,1023.0,1010.0,1020.0,1020.0,1021.0,1020.0,1024.0,1018.0,1029.0,1021.0,1023.0,1010.0,1020.0,1020.0,1021.0,1021.0,1025.0,1018.0,1029.0,1021.0,1025.0,1012.0,1021.0,1023.0,1024.0,1025.0,1018.0,1029.0,1020.0,1025.0,1012.0,1020.0,1021.0,1025.0,1018.0,1029.0,1021.0,1024.0,1012.0,1021.0,1025.0,1018.0,1029.0,1021.0,1024.0,1012.0,1020.0,1024.0,1018.0,1028.0,1020.0,1023.0,1012.0,1020.0,1024.0,1018.0,1028.0,1021.0,1023.0,1012.0,1024.0,1018.0,1028.0,1020.0,1022.0,1011.0,1024.0,1018.0,1029.0,1021.0,1024.0,1012.0,1025.0,1019.0,1029.0,1021.0,1024.0,1013.0,1024.0,1018.0,1029.0,1021.0,1023.0,1012.0,1025.0,1019.0,1030.0,1021.0,1025.0,1014.0,1024.0,1019.0,1030.0,1021.0,1025.0,1014.0,1026.0,1020.0,1031.0,1022.0,1025.0,1016.0,1026.0,1020.0,1030.0,1022.0,1025.0,1017.0,1028.0,1021.0,1032.0,1022.0,1025.0,1019.0,1030.0,1023.0,1034.0,1023.0,1026.0,1023.0,1031.0,1024.0,1034.0,1022.0,1025.0,1024.0,1041.0,1033.0,1048.0,1026.0,1031.0,1105.0,1038.0,1031.0,1046.0,1025.0,1030.0,2278,2237,1902,	00:32:33.119,-0.00830078125,0.04638671875,1.02197265625,0.0,0.3662109375,0.18310546875,2.548828125,0.4559326171875,-37.979736328125,47.0,-481.0,-4147.0,-0.9453125,-0.022308349609375,0.00347900390625,0.32537841796875,2.5464650035390224,0.45444161341015893,-42.45068671294002,-0.9318943715814615,-0.022148157910415654,0.004348687979362641,0.36202683357567056,1,	00:32:33.120,0.03271484375,0.07568359375,1.01904296875,-0.48828125,0.244140625,0.48828125,4.2352294921875,-1.7962646484375,133.2147216796875,-81.0,684.0,-1783.0,0.39617919921875,0.029052734375,0.0277099609375,0.91729736328125,4.23747840104358,-1.7979234695042698,126.09554887516535,0.45236475560406003,0.0307302937970984,0.02584469980136804,0.8909286326202568,1
1782117462.256698,0.109,1020.0,1027.0,1019.0,1023.0,1017.0,1027.0,1020.0,1021.0,1011.0,1022.0,1017.0,1027.0,1020.0,1022.0,1010.0,1020.0,1023.0,1017.0,1028.0,1020.0,1022.0,1010.0,1019.0,1020.0,1023.0,1017.0,1028.0,1021.0,1022.0,1010.0,1019.0,1020.0,1021.0,1023.0,1018.0,1028.0,1020.0,1022.0,1010.0,1020.0,1020.0,1020.0,1023.0,1017.0,1028.0,1020.0,1022.0,1010.0,1020.0,1020.0,1020.0,1019.0,1023.0,1017.0,1028.0,1020.0,1021.0,1010.0,1019.0,1020.0,1020.0,1019.0,1024.0,1018.0,1028.0,1020.0,1023.0,1011.0,1020.0,1020.0,1021.0,1020.0,1023.0,1018.0,1028.0,1020.0,1022.0,1010.0,1020.0,1020.0,1021.0,1019.0,1023.0,1017.0,1028.0,1020.0,1022.0,1010.0,1020.0,1020.0,1021.0,1019.0,1024.0,1018.0,1028.0,1020.0,1022.0,1010.0,1020.0,1021.0,1021.0,1020.0,1024.0,1017.0,1028.0,1021.0,1023.0,1011.0,1020.0,1021.0,1021.0,1021.0,1025.0,1019.0,1028.0,1021.0,1025.0,1012.0,1021.0,1023.0,1024.0,1025.0,1018.0,1029.0,1021.0,1025.0,1012.0,1021.0,1022.0,1025.0,1018.0,1028.0,1021.0,1024.0,1012.0,1020.0,1024.0,1018.0,1028.0,1021.0,1025.0,1012.0,1020.0,1024.0,1018.0,1029.0,1021.0,1024.0,1012.0,1020.0,1024.0,1018.0,1028.0,1021.0,1023.0,1012.0,1024.0,1018.0,1028.0,1020.0,1022.0,1012.0,1025.0,1018.0,1029.0,1021.0,1024.0,1013.0,1025.0,1018.0,1029.0,1021.0,1024.0,1014.0,1024.0,1018.0,1028.0,1021.0,1023.0,1013.0,1025.0,1019.0,1029.0,1021.0,1025.0,1015.0,1025.0,1019.0,1029.0,1022.0,1024.0,1015.0,1025.0,1019.0,1030.0,1022.0,1025.0,1017.0,1026.0,1020.0,1031.0,1022.0,1024.0,1018.0,1028.0,1021.0,1031.0,1022.0,1025.0,1020.0,1030.0,1023.0,1034.0,1023.0,1025.0,1024.0,1031.0,1023.0,1035.0,1023.0,1025.0,1025.0,1042.0,1033.0,1048.0,1026.0,1030.0,1107.0,1038.0,1031.0,1046.0,1025.0,1030.0,2278,2237,1902,	00:32:33.129,-0.00732421875,0.04638671875,1.0205078125,0.0,0.3662109375,0.18310546875,2.6202392578125,0.4010009765625,-37.9742431640625,46.0,-477.0,-4142.0,-0.9453125,-0.022735595703125,0.004119873046875,0.325347900390625,2.6187913987693174,0.40173899148292386,-42.44815448326238,-0.9318936123597757,-0.022570019176396065,0.005005305049346792,0.3619942491239164,1,	00:32:33.130,0.03173828125,0.0751953125,1.0185546875,-0.48828125,0.244140625,0.48828125,4.1748046875,-1.724853515625,133.22021484375,-82.0,685.0,-1785.0,0.396148681640625,0.02825927734375,0.027435302734375,0.917327880859375,4.1733201097817645,-1.7260598890420522,126.10241605543784,0.45235321689633023,0.029917063449729973,0.025632004623626185,0.8909683141487473,1
1782117462.266918,0.120,1020.0,1026.0,1019.0,1022.0,1017.0,1027.0,1020.0,1022.0,1011.0,1022.0,1017.0,1027.0,1020.0,1021.0,1010.0,1019.0,1024.0,1018.0,1027.0,1020.0,1021.0,1011.0,1019.0,1020.0,1023.0,1017.0,1028.0,1021.0,1022.0,1011.0,1020.0,1019.0,1020.0,1023.0,1018.0,1028.0,1020.0,1022.0,1010.0,1020.0,1020.0,1020.0,1023.0,1018.0,1028.0,1020.0,1022.0,1011.0,1019.0,1020.0,1020.0,1019.0,1023.0,1018.0,1027.0,1020.0,1021.0,1010.0,1020.0,1020.0,1020.0,1018.0,1024.0,1017.0,1027.0,1021.0,1023.0,1011.0,1020.0,1020.0,1021.0,1020.0,1024.0,1017.0,1028.0,1021.0,1022.0,1010.0,1020.0,1020.0,1020.0,1019.0,1024.0,1017.0,1028.0,1020.0,1022.0,1011.0,1020.0,1020.0,1020.0,1019.0,1025.0,1018.0,1028.0,1020.0,1022.0,1011.0,1020.0,1020.0,1021.0,1020.0,1024.0,1018.0,1028.0,1021.0,1023.0,1011.0,1020.0,1020.0,1021.0,1020.0,1026.0,1018.0,1028.0,1022.0,1025.0,1012.0,1021.0,1023.0,1024.0,1025.0,1018.0,1028.0,1021.0,1025.0,1013.0,1020.0,1022.0,1025.0,1018.0,1028.0,1021.0,1024.0,1012.0,1020.0,1025.0,1018.0,1029.0,1021.0,1025.0,1012.0,1020.0,1024.0,1018.0,1028.0,1021.0,1023.0,1012.0,1020.0,1025.0,1018.0,1028.0,1021.0,1023.0,1012.0,1024.0,1018.0,1028.0,1020.0,1023.0,1012.0,1025.0,1018.0,1028.0,1021.0,1025.0,1013.0,1025.0,1018.0,1029.0,1021.0,1024.0,1014.0,1024.0,1018.0,1028.0,1021.0,1023.0,1013.0,1025.0,1019.0,1029.0,1022.0,1024.0,1015.0,1024.0,1018.0,1029.0,1022.0,1024.0,1015.0,1025.0,1020.0,1030.0,1022.0,1025.0,1016.0,1026.0,1020.0,1030.0,1022.0,1024.0,1017.0,1028.0,1021.0,1032.0,1022.0,1025.0,1020.0,1030.0,1023.0,1034.0,1023.0,1026.0,1024.0,1030.0,1024.0,1035.0,1022.0,1025.0,1024.0,1042.0,1034.0,1048.0,1026.0,1031.0,1105.0,1038.0,1031.0,1045.0,1025.0,1031.0,2278,2236,1902,	00:32:33.140,-0.0078125,0.0458984375,1.02099609375,0.0,0.3662109375,0.18310546875,2.548828125,0.46142578125,-37.9742431640625,46.0,-478.0,-4143.0,-0.9453125,-0.0223388671875,0.00341796875,0.325347900390625,2.5475445120201687,0.4629195311966556,-42.4466956095409,-0.9319058999955905,-0.022183857867734965,0.004282376014992684,0.36199576138289086,1,	00:32:33.141,0.03271484375,0.076171875,1.01953125,-0.54931640625,0.244140625,0.48828125,4.229736328125,-1.790771484375,133.2257080078125,-81.0,687.0,-1783.0,0.396087646484375,0.02899169921875,0.027679443359375,0.917327880859375,4.230023772842037,-1.7908868576423635,126.10555553569566,0.4522914072820607,0.030643934960308792,0.02581725881019536,0.890969641063313,1
1782117462.276438,0.129,1020.0,1027.0,1019.0,1022.0,1017.0,1028.0,1020.0,1021.0,1010.0,1023.0,1017.0,1027.0,1020.0,1022.0,1010.0,1020.0,1023.0,1018.0,1028.0,1021.0,1022.0,1010.0,1020.0,1020.0,1023.0,1017.0,1028.0,1020.0,1022.0,1010.0,1020.0,1020.0,1020.0,1024.0,1017.0,1028.0,1020.0,1022.0,1010.0,1020.0,1020.0,1021.0,1023.0,1018.0,1028.0,1020.0,1022.0,1010.0,1020.0,1019.0,1021.0,1019.0,1023.0,1017.0,1028.0,1020.0,1021.0,1010.0,1020.0,1019.0,1020.0,1018.0,1024.0,1018.0,1028.0,1020.0,1023.0,1010.0,1020.0,1020.0,1021.0,1020.0,1024.0,1017.0,1028.0,1020.0,1022.0,1010.0,1020.0,1020.0,1021.0,1020.0,1024.0,1017.0,1028.0,1020.0,1022.0,1010.0,1020.0,1020.0,1020.0,1019.0,1024.0,1017.0,1028.0,1021.0,1023.0,1010.0,1020.0,1020.0,1021.0,1020.0,1024.0,1018.0,1028.0,1021.0,1023.0,1010.0,1020.0,1021.0,1021.0,1020.0,1025.0,1018.0,1028.0,1021.0,1025.0,1012.0,1020.0,1022.0,1024.0,1025.0,1018.0,1029.0,1021.0,1025.0,1013.0,1020.0,1022.0,1026.0,1019.0,1029.0,1021.0,1024.0,1012.0,1020.0,1025.0,1018.0,1029.0,1021.0,1024.0,1012.0,1020.0,1024.0,1018.0,1029.0,1021.0,1023.0,1012.0,1020.0,1024.0,1018.0,1028.0,1021.0,1023.0,1012.0,1024.0,1018.0,1028.0,1020.0,1022.0,1012.0,1024.0,1018.0,1029.0,1021.0,1024.0,1013.0,1025.0,1018.0,1029.0,1022.0,1025.0,1014.0,1024.0,1018.0,1029.0,1021.0,1022.0,1012.0,1026.0,1019.0,1030.0,1022.0,1025.0,1015.0,1025.0,1019.0,1030.0,1021.0,1024.0,1014.0,1025.0,1019.0,1030.0,1022.0,1025.0,1016.0,1026.0,1019.0,1030.0,1022.0,1025.0,1017.0,1028.0,1020.0,1032.0,1022.0,1025.0,1020.0,1030.0,1023.0,1034.0,1023.0,1026.0,1024.0,1030.0,1023.0,1035.0,1023.0,1025.0,1024.0,1042.0,1033.0,1048.0,1026.0,1031.0,1106.0,1038.0,1032.0,1046.0,1025.0,1030.0,2278,2236,1902,	00:32:33.150,-0.00830078125,0.0458984375,1.02001953125,0.0,0.42724609375,0.1220703125,2.63671875,0.4779052734375,-37.96875,46.0,-477.0,-4146.0,-0.9453125,-0.02313232421875,0.003570556640625,0.3253173828125,2.638689547814108,0.4761667895737654,-42.444539373434885,-0.9318933667548703,-0.022966991426018827,0.00446213253247816,0.36197701539790117,1,	00:32:33.151,0.03271484375,0.076171875,1.0185546875,-0.48828125,0.244140625,0.48828125,4.2901611328125,-1.8511962890625,133.2257080078125,-80.0,687.0,-1783.0,0.396026611328125,0.0296630859375,0.0279541015625,0.917327880859375,4.291879988015134,-1.8511426232162747,126.10848414335618,0.45223069599036225,0.03135561880999904,0.026060627184278096,0.8909686113909269,1
1782117462.286438,0.139,1021.0,1027.0,1019.0,1022.0,1017.0,1027.0,1020.0,1021.0,1011.0,1023.0,1018.0,1028.0,1020.0,1022.0,1010.0,1020.0,1023.0,1017.0,1028.0,1020.0,1022.0,1010.0,1020.0,1020.0,1023.0,1018.0,1028.0,1020.0,1022.0,1010.0,1020.0,1020.0,1020.0,1024.0,1017.0,1027.0,1020.0,1022.0,1009.0,1019.0,1020.0,1021.0,1023.0,1017.0,1027.0,1021.0,1022.0,1010.0,1020.0,1019.0,1020.0,1019.0,1023.0,1017.0,1028.0,1021.0,1021.0,1009.0,1020.0,1020.0,1020.0,1019.0,1023.0,1017.0,1028.0,1021.0,1022.0,1010.0,1020.0,1020.0,1021.0,1020.0,1023.0,1018.0,1028.0,1021.0,1022.0,1010.0,1020.0,1020.0,1020.0,1019.0,1024.0,1018.0,1027.0,1021.0,1022.0,1010.0,1020.0,1020.0,1020.0,1019.0,1024.0,1018.0,1028.0,1020.0,1023.0,1010.0,1020.0,1020.0,1021.0,1020.0,1024.0,1017.0,1028.0,1021.0,1023.0,1011.0,1020.0,1020.0,1021.0,1020.0,1025.0,1018.0,1029.0,1021.0,1025.0,1012.0,1021.0,1022.0,1024.0,1025.0,1019.0,1028.0,1021.0,1025.0,1012.0,1021.0,1022.0,1025.0,1018.0,1029.0,1021.0,1024.0,1012.0,1020.0,1025.0,1018.0,1029.0,1021.0,1025.0,1012.0,1020.0,1024.0,1018.0,1029.0,1020.0,1023.0,1011.0,1020.0,1024.0,1018.0,1028.0,1021.0,1024.0,1012.0,1024.0,1018.0,1029.0,1020.0,1022.0,1012.0,1025.0,1019.0,1028.0,1021.0,1024.0,1013.0,1025.0,1019.0,1029.0,1022.0,1025.0,1014.0,1024.0,1018.0,1029.0,1021.0,1023.0,1012.0,1025.0,1019.0,1030.0,1022.0,1026.0,1015.0,1024.0,1018.0,1030.0,1022.0,1024.0,1014.0,1025.0,1019.0,1031.0,1022.0,1026.0,1016.0,1026.0,1020.0,1031.0,1022.0,1025.0,1017.0,1028.0,1021.0,1032.0,1022.0,1026.0,1020.0,1030.0,1023.0,1035.0,1023.0,1026.0,1024.0,1030.0,1024.0,1035.0,1023.0,1025.0,1025.0,1042.0,1033.0,1048.0,1026.0,1031.0,1105.0,1038.0,1032.0,1046.0,1025.0,1030.0,2278,2236,1902,	00:32:33.160,-0.0078125,0.046875,1.02099609375,0.0,0.3662109375,0.1220703125,2.61474609375,0.3900146484375,-37.96875,45.0,-479.0,-4144.0,-0.9453125,-0.022705078125,0.00421142578125,0.3253173828125,2.6154419991942084,0.3911120868606121,-42.44332734209553,-0.931910584849447,-0.022509438223266155,0.005080202759165649,0.3619532823119032,1,	00:32:33.161,0.0322265625,0.07568359375,1.0185546875,-0.48828125,0.244140625,0.48828125,4.2242431640625,-1.7852783203125,133.2366943359375,-81.0,688.0,-1784.0,0.396026611328125,0.028900146484375,0.02764892578125,0.9173583984375,4.223374870335697,-1.7832336130966069,126.11554823834965,0.45221815283424754,0.030555971549909546,0.025798502923128658,0.8910103883214536,1
1782117462.297668,0.150,1020.0,1028.0,1019.0,1022.0,1017.0,1028.0,1019.0,1021.0,1011.0,1023.0,1017.0,1028.0,1020.0,1022.0,1010.0,1020.0,1023.0,1017.0,1028.0,1020.0,1022.0,1010.0,1019.0,1021.0,1023.0,1017.0,1028.0,1020.0,1022.0,1010.0,1020.0,1020.0,1020.0,1023.0,1017.0,1028.0,1020.0,1022.0,1010.0,1019.0,1020.0,1020.0,1023.0,1017.0,1028.0,1021.0,1022.0,1010.0,1019.0,1019.0,1020.0,1018.0,1023.0,1017.0,1027.0,1020.0,1021.0,1010.0,1020.0,1020.0,1020.0,1018.0,1024.0,1017.0,1027.0,1020.0,1022.0,1010.0,1020.0,1020.0,1021.0,1020.0,1023.0,1017.0,1028.0,1021.0,1022.0,1010.0,1020.0,1020.0,1020.0,1019.0,1024.0,1018.0,1028.0,1020.0,1023.0,1010.0,1020.0,1020.0,1021.0,1019.0,1024.0,1018.0,1028.0,1020.0,1023.0,1010.0,1020.0,1020.0,1021.0,1020.0,1024.0,1018.0,1028.0,1021.0,1023.0,1011.0,1020.0,1021.0,1021.0,1020.0,1025.0,1018.0,1028.0,1021.0,1025.0,1012.0,1021.0,1023.0,1024.0,1025.0,1018.0,1029.0,1021.0,1025.0,1012.0,1021.0,1021.0,1024.0,1018.0,1028.0,1021.0,1024.0,1012.0,1020.0,1024.0,1018.0,1029.0,1021.0,1024.0,1012.0,1020.0,1024.0,1018.0,1028.0,1021.0,1023.0,1011.0,1020.0,1024.0,1017.0,1029.0,1021.0,1023.0,1012.0,1024.0,1018.0,1028.0,1021.0,1023.0,1011.0,1024.0,1018.0,1029.0,1021.0,1024.0,1013.0,1025.0,1019.0,1029.0,1021.0,1024.0,1014.0,1024.0,1018.0,1028.0,1021.0,1023.0,1013.0,1025.0,1019.0,1030.0,1022.0,1024.0,1015.0,1025.0,1018.0,1030.0,1022.0,1024.0,1015.0,1026.0,1019.0,1030.0,1022.0,1026.0,1016.0,1025.0,1020.0,1031.0,1022.0,1025.0,1018.0,1027.0,1021.0,1032.0,1022.0,1025.0,1020.0,1030.0,1023.0,1034.0,1023.0,1026.0,1024.0,1030.0,1024.0,1035.0,1022.0,1025.0,1024.0,1042.0,1033.0,1048.0,1026.0,1031.0,1105.0,1038.0,1032.0,1046.0,1025.0,1031.0,2277,2236,1903,	00:32:33.170,-0.00732421875,0.046875,1.0205078125,0.0,0.3662109375,0.1220703125,2.669677734375,0.4669189453125,-37.96875,44.0,-475.0,-4146.0,-0.9453125,-0.023345947265625,0.00372314453125,0.3253173828125,2.6697790234061687,0.4684935731227823,-42.44153326465956,-0.9318974186907928,-0.023195714509255443,0.004622135905726831,0.36194999064167854,1,	00:32:33.171,0.03125,0.07470703125,1.01904296875,-0.3662109375,0.18310546875,0.42724609375,4.1583251953125,-1.7138671875,133.2421875,-81.0,684.0,-1779.0,0.39599609375,0.02813720703125,0.02734375,0.91741943359375,4.15594620541814,-1.7160346074281656,126.12188685073728,0.45220977432658255,0.029766234319826963,0.02554163799014091,0.8910487730908444,1
1782117462.307062,0.160,1020.0,1026.0,1019.0,1022.0,1017.0,1028.0,1020.0,1022.0,1011.0,1023.0,1018.0,1027.0,1020.0,1022.0,1010.0,1020.0,1023.0,1017.0,1028.0,1020.0,1022.0,1010.0,1019.0,1020.0,1023.0,1017.0,1028.0,1020.0,1022.0,1010.0,1020.0,1020.0,1020.0,1024.0,1018.0,1028.0,1020.0,1022.0,1011.0,1019.0,1020.0,1020.0,1023.0,1018.0,1028.0,1020.0,1022.0,1010.0,1020.0,1020.0,1020.0,1018.0,1023.0,1017.0,1028.0,1020.0,1021.0,1010.0,1020.0,1020.0,1020.0,1018.0,1024.0,1017.0,1028.0,1020.0,1022.0,1010.0,1020.0,1021.0,1021.0,1020.0,1024.0,1017.0,1028.0,1021.0,1022.0,1010.0,1020.0,1020.0,1021.0,1019.0,1024.0,1017.0,1028.0,1020.0,1022.0,1010.0,1020.0,1020.0,1021.0,1020.0,1024.0,1018.0,1028.0,1020.0,1022.0,1011.0,1020.0,1021.0,1021.0,1020.0,1024.0,1018.0,1028.0,1021.0,1023.0,1011.0,1020.0,1020.0,1021.0,1020.0,1025.0,1019.0,1029.0,1021.0,1025.0,1012.0,1021.0,1023.0,1024.0,1025.0,1018.0,1029.0,1021.0,1025.0,1012.0,1020.0,1022.0,1025.0,1018.0,1029.0,1021.0,1024.0,1012.0,1020.0,1024.0,1018.0,1029.0,1021.0,1024.0,1013.0,1020.0,1024.0,1018.0,1028.0,1020.0,1024.0,1012.0,1020.0,1024.0,1018.0,1028.0,1021.0,1023.0,1012.0,1023.0,1018.0,1028.0,1021.0,1022.0,1011.0,1024.0,1018.0,1029.0,1021.0,1024.0,1013.0,1025.0,1018.0,1029.0,1021.0,1025.0,1014.0,1024.0,1018.0,1029.0,1021.0,1023.0,1013.0,1026.0,1019.0,1029.0,1022.0,1024.0,1015.0,1025.0,1019.0,1030.0,1021.0,1024.0,1014.0,1025.0,1019.0,1031.0,1022.0,1024.0,1016.0,1025.0,1020.0,1031.0,1022.0,1025.0,1017.0,1027.0,1021.0,1032.0,1023.0,1025.0,1019.0,1029.0,1023.0,1034.0,1023.0,1026.0,1023.0,1030.0,1023.0,1035.0,1023.0,1025.0,1024.0,1041.0,1033.0,1048.0,1025.0,1031.0,1104.0,1038.0,1032.0,1046.0,1025.0,1030.0,2277,2236,1902,	00:32:33.181,-0.0078125,0.04638671875,1.021484375,0.0,0.3662109375,0.1220703125,2.5872802734375,0.4339599609375,-37.96875,44.0,-479.0,-4144.0,-0.945343017578125,-0.0225830078125,0.003753662109375,0.325286865234375,2.585996846811683,0.4351356537722047,-42.44080397291355,-0.9319198796784831,-0.022409076275185878,0.004628658924897018,0.3619416343515783,1,	00:32:33.182,0.0322265625,0.07568359375,1.0185546875,-0.30517578125,0.18310546875,0.48828125,4.21875,-1.77978515625,133.2421875,-80.0,686.0,-1783.0,0.39593505859375,0.028839111328125,0.027618408203125,0.917388916015625,4.218242274113871,-1.778381042886178,126.1248962111517,0.45214852105509695,0.030495904130054676,0.025780275265587283,0.8910483107813006,1
1782117462.320065,0.173,1020.0,1027.0,1020.0,1022.0,1018.0,1028.0,1020.0,1022.0,1010.0,1022.0,1018.0,1027.0,1020.0,1022.0,1010.0,1020.0,1022.0,1017.0,1028.0,1019.0,1022.0,1010.0,1020.0,1020.0,1023.0,1018.0,1028.0,1020.0,1022.0,1010.0,1020.0,1020.0,1020.0,1023.0,1018.0,1028.0,1021.0,1022.0,1010.0,1020.0,1020.0,1020.0,1022.0,1017.0,1028.0,1020.0,1022.0,1010.0,1020.0,1019.0,1020.0,1018.0,1023.0,1018.0,1028.0,1020.0,1021.0,1010.0,1020.0,1019.0,1020.0,1018.0,1023.0,1018.0,1027.0,1021.0,1022.0,1010.0,1020.0,1021.0,1021.0,1020.0,1023.0,1018.0,1028.0,1020.0,1022.0,1010.0,1020.0,1020.0,1020.0,1019.0,1023.0,1018.0,1028.0,1020.0,1022.0,1011.0,1020.0,1020.0,1021.0,1019.0,1024.0,1018.0,1028.0,1020.0,1023.0,1010.0,1020.0,1020.0,1021.0,1020.0,1024.0,1018.0,1028.0,1020.0,1023.0,1010.0,1020.0,1020.0,1022.0,1020.0,1025.0,1019.0,1029.0,1021.0,1025.0,1012.0,1021.0,1023.0,1023.0,1025.0,1018.0,1029.0,1021.0,1025.0,1012.0,1021.0,1022.0,1025.0,1018.0,1029.0,1021.0,1024.0,1012.0,1020.0,1025.0,1018.0,1029.0,1021.0,1025.0,1013.0,1020.0,1024.0,1019.0,1028.0,1020.0,1023.0,1012.0,1020.0,1024.0,1018.0,1029.0,1021.0,1023.0,1012.0,1024.0,1018.0,1028.0,1021.0,1022.0,1012.0,1024.0,1018.0,1029.0,1021.0,1024.0,1013.0,1025.0,1018.0,1029.0,1022.0,1025.0,1014.0,1024.0,1018.0,1028.0,1020.0,1023.0,1012.0,1025.0,1020.0,1030.0,1022.0,1025.0,1014.0,1024.0,1018.0,1029.0,1022.0,1025.0,1015.0,1025.0,1020.0,1030.0,1022.0,1026.0,1016.0,1026.0,1020.0,1031.0,1021.0,1025.0,1017.0,1027.0,1022.0,1032.0,1022.0,1026.0,1020.0,1030.0,1023.0,1034.0,1023.0,1028.0,1024.0,1030.0,1024.0,1035.0,1023.0,1026.0,1024.0,1041.0,1034.0,1048.0,1025.0,1032.0,1105.0,1038.0,1032.0,1046.0,1025.0,1031.0,2277,2235,1902,	00:32:33.191,-0.0078125,0.04638671875,1.0224609375,0.0,0.3662109375,0.18310546875,2.6751708984375,0.4559326171875,-37.9632568359375,45.0,-477.0,-4144.0,-0.9453125,-0.02337646484375,0.00384521484375,0.325286865234375,2.675991139878774,0.45574295195754205,-42.43811004006526,-0.9319083306212892,-0.02320612071969298,0.004744764204759536,0.3619196409321082,1,	00:32:33.192,0.03173828125,0.076171875,1.01806640625,-0.244140625,0.18310546875,0.42724609375,4.306640625,-1.77978515625,133.2476806640625,-80.0,685.0,-1784.0,0.395904541015625,0.029144287109375,0.0283203125,0.917388916015625,4.307058111250085,-1.7802860267033305,126.12645588965736,0.4521119476493134,0.03086078273447487,0.026463773847599147,0.8910342684518385,1
1782117462.328136,0.181,1020.0,1026.0,1019.0,1022.0,1017.0,1028.0,1019.0,1022.0,1010.0,1023.0,1018.0,1028.0,1020.0,1022.0,1010.0,1020.0,1023.0,1017.0,1028.0,1020.0,1022.0,1010.0,1020.0,1020.0,1023.0,1017.0,1028.0,1020.0,1022.0,1010.0,1019.0,1020.0,1020.0,1024.0,1018.0,1028.0,1020.0,1022.0,1010.0,1019.0,1020.0,1021.0,1024.0,1018.0,1028.0,1020.0,1022.0,1010.0,1019.0,1020.0,1020.0,1019.0,1023.0,1018.0,1028.0,1021.0,1022.0,1009.0,1020.0,1020.0,1020.0,1018.0,1023.0,1017.0,1028.0,1021.0,1023.0,1011.0,1019.0,1021.0,1021.0,1020.0,1024.0,1018.0,1028.0,1020.0,1022.0,1010.0,1020.0,1020.0,1021.0,1019.0,1024.0,1018.0,1028.0,1021.0,1022.0,1010.0,1020.0,1021.0,1021.0,1019.0,1024.0,1017.0,1028.0,1021.0,1023.0,1010.0,1020.0,1020.0,1021.0,1020.0,1024.0,1018.0,1028.0,1020.0,1023.0,1011.0,1019.0,1021.0,1021.0,1020.0,1025.0,1018.0,1028.0,1021.0,1026.0,1012.0,1021.0,1022.0,1024.0,1025.0,1018.0,1029.0,1021.0,1024.0,1012.0,1021.0,1022.0,1024.0,1019.0,1029.0,1021.0,1024.0,1012.0,1020.0,1024.0,1018.0,1029.0,1021.0,1025.0,1013.0,1020.0,1024.0,1018.0,1029.0,1021.0,1024.0,1012.0,1020.0,1024.0,1019.0,1028.0,1021.0,1023.0,1012.0,1023.0,1018.0,1028.0,1021.0,1022.0,1011.0,1024.0,1018.0,1029.0,1021.0,1024.0,1013.0,1025.0,1019.0,1029.0,1022.0,1025.0,1014.0,1024.0,1018.0,1029.0,1021.0,1023.0,1013.0,1025.0,1019.0,1029.0,1022.0,1025.0,1015.0,1024.0,1019.0,1030.0,1022.0,1025.0,1015.0,1025.0,1020.0,1030.0,1022.0,1026.0,1016.0,1025.0,1020.0,1031.0,1022.0,1025.0,1017.0,1028.0,1021.0,1032.0,1022.0,1025.0,1020.0,1029.0,1023.0,1034.0,1023.0,1027.0,1024.0,1030.0,1024.0,1036.0,1023.0,1026.0,1024.0,1041.0,1034.0,1049.0,1026.0,1031.0,1105.0,1037.0,1032.0,1047.0,1026.0,1031.0,2277,2235,1902,	00:32:33.201,-0.0078125,0.04638671875,1.021484375,0.0,0.3662109375,0.1220703125,2.5872802734375,0.439453125,-37.9632568359375,46.0,-479.0,-4146.0,-0.945343017578125,-0.0225830078125,0.00372314453125,0.32525634765625,2.5868939009394727,0.4382237411071332,-42.43741475359976,-0.9319300929183767,-0.022426257350673776,0.004605713366591996,0.36191456491660007,1,	00:32:33.202,0.03076171875,0.07568359375,1.01904296875,-0.1220703125,0.18310546875,0.42724609375,4.24072265625,-1.7138671875,133.253173828125,-80.0,684.0,-1780.0,0.395904541015625,0.028411865234375,0.02801513671875,0.91741943359375,4.239084305778254,-1.7161454165131698,126.13288772121088,0.45210247938142345,0.030092659202457045,0.026190552879273438,0.8910734172553755,1
1782117462.338597,0.191,1020.0,1027.0,1019.0,1022.0,1017.0,1028.0,1019.0,1021.0,1010.0,1023.0,1018.0,1028.0,1020.0,1022.0,1010.0,1020.0,1023.0,1018.0,1028.0,1020.0,1022.0,1010.0,1020.0,1020.0,1023.0,1018.0,1028.0,1020.0,1022.0,1009.0,1019.0,1020.0,1020.0,1024.0,1018.0,1028.0,1020.0,1023.0,1009.0,1020.0,1021.0,1020.0,1023.0,1018.0,1028.0,1020.0,1023.0,1009.0,1019.0,1020.0,1020.0,1019.0,1024.0,1018.0,1028.0,1020.0,1022.0,1010.0,1020.0,1019.0,1020.0,1018.0,1024.0,1018.0,1028.0,1020.0,1023.0,1010.0,1020.0,1020.0,1021.0,1020.0,1023.0,1018.0,1028.0,1021.0,1023.0,1010.0,1020.0,1020.0,1021.0,1019.0,1023.0,1018.0,1028.0,1021.0,1023.0,1010.0,1020.0,1020.0,1021.0,1019.0,1024.0,1018.0,1029.0,1021.0,1023.0,1010.0,1019.0,1021.0,1021.0,1020.0,1024.0,1018.0,1028.0,1020.0,1023.0,1010.0,1020.0,1021.0,1021.0,1021.0,1026.0,1018.0,1028.0,1021.0,1025.0,1011.0,1021.0,1023.0,1024.0,1025.0,1018.0,1029.0,1021.0,1025.0,1012.0,1020.0,1021.0,1025.0,1018.0,1028.0,1021.0,1024.0,1012.0,1020.0,1024.0,1018.0,1029.0,1021.0,1024.0,1012.0,1021.0,1024.0,1018.0,1029.0,1021.0,1023.0,1011.0,1020.0,1024.0,1018.0,1029.0,1021.0,1023.0,1011.0,1024.0,1018.0,1028.0,1020.0,1023.0,1011.0,1025.0,1018.0,1029.0,1021.0,1024.0,1013.0,1025.0,1019.0,1029.0,1022.0,1025.0,1013.0,1024.0,1018.0,1029.0,1021.0,1023.0,1012.0,1025.0,1020.0,1029.0,1022.0,1025.0,1014.0,1025.0,1019.0,1030.0,1021.0,1024.0,1014.0,1026.0,1020.0,1030.0,1022.0,1025.0,1016.0,1026.0,1020.0,1031.0,1021.0,1025.0,1016.0,1028.0,1021.0,1032.0,1022.0,1026.0,1019.0,1030.0,1023.0,1035.0,1023.0,1027.0,1023.0,1031.0,1024.0,1035.0,1022.0,1026.0,1024.0,1042.0,1034.0,1048.0,1026.0,1031.0,1105.0,1039.0,1032.0,1046.0,1025.0,1030.0,2277,2235,1902,	00:32:33.211,-0.00830078125,0.046875,1.02099609375,0.0,0.3662109375,0.1220703125,2.6641845703125,0.494384765625,-37.9632568359375,45.0,-481.0,-4145.0,-0.945343017578125,-0.02337646484375,0.003509521484375,0.32525634765625,2.663745725999655,0.4916709181552532,-42.4354064588334,-0.9319154983958686,-0.023220057579254084,0.0044133372969765395,0.3619044835719763,1,	00:32:33.213,0.0322265625,0.0751953125,1.0185546875,0.0,0.06103515625,0.42724609375,4.2242431640625,-1.8072509765625,133.2586669921875,-83.0,687.0,-1784.0,0.395843505859375,0.029083251953125,0.027557373046875,0.917449951171875,4.222284785279465,-1.8059857275811344,126.13770789949774,0.4520382043233167,0.0307235053705457,0.025705977458128818,0.8910986088939986,1
1782117462.348557,0.201,1020.0,1027.0,1019.0,1023.0,1017.0,1028.0,1019.0,1022.0,1010.0,1023.0,1017.0,1028.0,1020.0,1022.0,1009.0,1020.0,1023.0,1018.0,1028.0,1020.0,1022.0,1010.0,1020.0,1020.0,1023.0,1018.0,1028.0,1020.0,1022.0,1009.0,1020.0,1020.0,1020.0,1024.0,1018.0,1028.0,1020.0,1022.0,1009.0,1019.0,1020.0,1021.0,1024.0,1018.0,1028.0,1021.0,1022.0,1009.0,1020.0,1019.0,1020.0,1018.0,1023.0,1017.0,1028.0,1020.0,1022.0,1010.0,1020.0,1020.0,1020.0,1018.0,1023.0,1018.0,1028.0,1020.0,1022.0,1009.0,1020.0,1020.0,1021.0,1020.0,1023.0,1017.0,1027.0,1021.0,1022.0,1009.0,1020.0,1020.0,1021.0,1019.0,1024.0,1018.0,1028.0,1020.0,1022.0,1009.0,1019.0,1020.0,1021.0,1019.0,1024.0,1018.0,1028.0,1021.0,1023.0,1010.0,1020.0,1020.0,1021.0,1020.0,1024.0,1018.0,1028.0,1020.0,1023.0,1010.0,1020.0,1021.0,1021.0,1020.0,1026.0,1018.0,1029.0,1021.0,1026.0,1011.0,1020.0,1023.0,1023.0,1025.0,1018.0,1029.0,1021.0,1025.0,1012.0,1020.0,1022.0,1025.0,1018.0,1028.0,1021.0,1024.0,1011.0,1021.0,1025.0,1018.0,1029.0,1021.0,1025.0,1012.0,1020.0,1024.0,1018.0,1029.0,1021.0,1024.0,1012.0,1021.0,1024.0,1018.0,1028.0,1021.0,1024.0,1012.0,1024.0,1018.0,1028.0,1021.0,1023.0,1011.0,1025.0,1018.0,1029.0,1021.0,1024.0,1013.0,1024.0,1019.0,1029.0,1022.0,1025.0,1013.0,1024.0,1018.0,1028.0,1021.0,1023.0,1012.0,1026.0,1019.0,1029.0,1022.0,1025.0,1014.0,1025.0,1019.0,1029.0,1022.0,1025.0,1014.0,1026.0,1019.0,1030.0,1023.0,1025.0,1017.0,1026.0,1020.0,1030.0,1023.0,1025.0,1018.0,1028.0,1021.0,1032.0,1023.0,1025.0,1019.0,1030.0,1023.0,1035.0,1024.0,1026.0,1023.0,1031.0,1024.0,1035.0,1023.0,1025.0,1024.0,1041.0,1034.0,1049.0,1026.0,1032.0,1105.0,1038.0,1032.0,1046.0,1026.0,1031.0,2277,2235,1903,	00:32:33.222,-0.0078125,0.04541015625,1.0205078125,0.06103515625,0.3662109375,0.1220703125,2.581787109375,0.4559326171875,-37.9632568359375,47.0,-477.0,-4142.0,-0.945343017578125,-0.0225830078125,0.003570556640625,0.32525634765625,2.5812115013109316,0.45689964622277884,-42.43470531588022,-0.931937839085331,-0.022439107064229885,0.004435341558306688,0.3618959495495699,1,	00:32:33.223,0.0322265625,0.07568359375,1.01904296875,-0.06103515625,0.0,0.42724609375,4.3121337890625,-1.8072509765625,133.2586669921875,-80.0,685.0,-1783.0,0.39581298828125,0.029388427734375,0.028289794921875,0.91741943359375,4.31299242335914,-1.807679719614951,126.13908715399701,0.45200241613834324,0.031094164087234935,0.026405015914460303,0.8910834662922285,1
1782117462.359547,0.212,1021.0,1027.0,1019.0,1022.0,1017.0,1028.0,1020.0,1021.0,1011.0,1023.0,1017.0,1028.0,1020.0,1022.0,1010.0,1020.0,1023.0,1018.0,1028.0,1020.0,1022.0,1009.0,1020.0,1021.0,1023.0,1017.0,1028.0,1020.0,1022.0,1009.0,1020.0,1020.0,1020.0,1023.0,1017.0,1028.0,1020.0,1022.0,1009.0,1019.0,1020.0,1021.0,1023.0,1018.0,1028.0,1020.0,1022.0,1009.0,1020.0,1019.0,1020.0,1019.0,1023.0,1017.0,1028.0,1020.0,1022.0,1009.0,1019.0,1020.0,1020.0,1018.0,1024.0,1018.0,1028.0,1021.0,1023.0,1010.0,1020.0,1021.0,1021.0,1020.0,1023.0,1017.0,1028.0,1021.0,1022.0,1010.0,1020.0,1020.0,1020.0,1019.0,1023.0,1018.0,1028.0,1020.0,1022.0,1010.0,1020.0,1020.0,1021.0,1020.0,1024.0,1017.0,1029.0,1021.0,1023.0,1010.0,1020.0,1021.0,1021.0,1020.0,1024.0,1018.0,1028.0,1021.0,1023.0,1010.0,1020.0,1021.0,1021.0,1020.0,1025.0,1018.0,1029.0,1022.0,1025.0,1012.0,1021.0,1023.0,1024.0,1025.0,1018.0,1028.0,1021.0,1025.0,1012.0,1020.0,1022.0,1024.0,1018.0,1028.0,1021.0,1025.0,1012.0,1020.0,1025.0,1018.0,1029.0,1022.0,1025.0,1012.0,1020.0,1025.0,1018.0,1028.0,1021.0,1024.0,1012.0,1020.0,1024.0,1018.0,1028.0,1021.0,1023.0,1012.0,1024.0,1018.0,1028.0,1021.0,1022.0,1011.0,1024.0,1018.0,1029.0,1021.0,1024.0,1013.0,1025.0,1018.0,1029.0,1022.0,1025.0,1013.0,1024.0,1018.0,1029.0,1021.0,1023.0,1013.0,1025.0,1019.0,1029.0,1022.0,1025.0,1014.0,1025.0,1019.0,1030.0,1022.0,1025.0,1015.0,1025.0,1019.0,1030.0,1022.0,1025.0,1016.0,1026.0,1020.0,1030.0,1022.0,1026.0,1016.0,1028.0,1021.0,1032.0,1023.0,1026.0,1020.0,1030.0,1023.0,1034.0,1023.0,1027.0,1023.0,1031.0,1024.0,1035.0,1023.0,1026.0,1024.0,1042.0,1034.0,1048.0,1026.0,1032.0,1106.0,1038.0,1032.0,1046.0,1026.0,1032.0,2276,2235,1903,	00:32:33.232,-0.0068359375,0.04736328125,1.021484375,0.0,0.3662109375,0.18310546875,2.647705078125,0.3955078125,-37.957763671875,44.0,-477.0,-4148.0,-0.945343017578125,-0.02294921875,0.004241943359375,0.325225830078125,2.6458693468729573,0.395517352468725,-42.43223033079357,-0.9319391778715472,-0.022771293052438142,0.005138278836610244,0.36186245322141664,1,	00:32:33.233,0.03173828125,0.07568359375,1.01953125,0.06103515625,0.06103515625,0.42724609375,4.229736328125,-1.768798828125,133.26416015625,-83.0,684.0,-1783.0,0.395782470703125,0.02880859375,0.027740478515625,0.91748046875,4.22971039240888,-1.7707688631720504,126.14601110559931,0.4519839239831537,0.03047722466893699,0.025905169152001018,0.8911288310050776,1
1782117462.368793,0.221,1021.0,1027.0,1019.0,1022.0,1017.0,1027.0,1019.0,1021.0,1010.0,1023.0,1017.0,1027.0,1021.0,1022.0,1010.0,1020.0,1023.0,1017.0,1028.0,1021.0,1022.0,1009.0,1020.0,1020.0,1023.0,1017.0,1028.0,1021.0,1022.0,1010.0,1020.0,1020.0,1020.0,1024.0,1017.0,1028.0,1020.0,1023.0,1009.0,1020.0,1020.0,1020.0,1023.0,1018.0,1028.0,1021.0,1022.0,1010.0,1019.0,1020.0,1020.0,1018.0,1023.0,1018.0,1028.0,1021.0,1022.0,1009.0,1020.0,1019.0,1019.0,1018.0,1024.0,1017.0,1027.0,1020.0,1022.0,1010.0,1020.0,1020.0,1021.0,1020.0,1024.0,1018.0,1028.0,1020.0,1022.0,1010.0,1020.0,1020.0,1020.0,1019.0,1024.0,1017.0,1028.0,1020.0,1022.0,1010.0,1020.0,1020.0,1020.0,1019.0,1025.0,1018.0,1028.0,1021.0,1022.0,1010.0,1020.0,1021.0,1021.0,1019.0,1025.0,1018.0,1028.0,1020.0,1023.0,1010.0,1020.0,1021.0,1021.0,1020.0,1026.0,1018.0,1028.0,1021.0,1025.0,1011.0,1021.0,1023.0,1024.0,1026.0,1018.0,1029.0,1021.0,1024.0,1012.0,1021.0,1022.0,1025.0,1018.0,1029.0,1021.0,1024.0,1012.0,1020.0,1025.0,1018.0,1029.0,1021.0,1024.0,1013.0,1020.0,1025.0,1018.0,1028.0,1021.0,1023.0,1012.0,1020.0,1024.0,1018.0,1028.0,1021.0,1024.0,1011.0,1024.0,1017.0,1028.0,1020.0,1022.0,1012.0,1025.0,1018.0,1028.0,1021.0,1024.0,1013.0,1025.0,1018.0,1028.0,1021.0,1024.0,1014.0,1024.0,1018.0,1028.0,1021.0,1023.0,1012.0,1025.0,1019.0,1030.0,1022.0,1025.0,1014.0,1025.0,1020.0,1029.0,1021.0,1025.0,1014.0,1026.0,1019.0,1030.0,1022.0,1025.0,1016.0,1026.0,1019.0,1030.0,1022.0,1025.0,1017.0,1028.0,1021.0,1032.0,1023.0,1025.0,1019.0,1030.0,1023.0,1034.0,1024.0,1026.0,1023.0,1032.0,1024.0,1035.0,1023.0,1025.0,1023.0,1043.0,1033.0,1049.0,1026.0,1031.0,1105.0,1039.0,1032.0,1046.0,1025.0,1031.0,2276,2235,1902,	00:32:33.242,-0.0087890625,0.0458984375,1.0205078125,0.0,0.3662109375,0.1220703125,2.5927734375,0.472412109375,-37.957763671875,46.0,-476.0,-4144.0,-0.945343017578125,-0.022735595703125,0.003448486328125,0.325225830078125,2.5920669526871065,0.4733136965657382,-42.43124981022768,-0.9319449074863838,-0.02257933520905103,0.004335444169876754,0.3618702349676786,1,	00:32:33.243,0.0322265625,0.07568359375,1.01904296875,0.0,0.06103515625,0.42724609375,4.2681884765625,-1.8511962890625,133.2696533203125,-80.0,684.0,-1783.0,0.395721435546875,0.02960205078125,0.027801513671875,0.91748046875,4.270517359673383,-1.8523169806364683,126.14902468712604,0.45192087869886466,0.03127127549141004,0.02590094796675469,0.8911334174070737,1
1782117462.379854,0.233,1021.0,1026.0,1019.0,1022.0,1017.0,1027.0,1020.0,1022.0,1011.0,1023.0,1018.0,1028.0,1020.0,1022.0,1010.0,1020.0,1023.0,1018.0,1027.0,1020.0,1022.0,1010.0,1020.0,1020.0,1024.0,1017.0,1028.0,1020.0,1022.0,1009.0,1019.0,1020.0,1020.0,1023.0,1018.0,1028.0,1020.0,1023.0,1010.0,1020.0,1020.0,1020.0,1024.0,1018.0,1027.0,1020.0,1022.0,1010.0,1020.0,1020.0,1020.0,1019.0,1023.0,1018.0,1027.0,1021.0,1022.0,1009.0,1019.0,1019.0,1021.0,1018.0,1024.0,1018.0,1028.0,1020.0,1023.0,1009.0,1020.0,1021.0,1021.0,1020.0,1024.0,1019.0,1027.0,1021.0,1022.0,1009.0,1020.0,1020.0,1021.0,1019.0,1024.0,1018.0,1027.0,1020.0,1022.0,1010.0,1020.0,1020.0,1021.0,1019.0,1024.0,1018.0,1027.0,1021.0,1023.0,1010.0,1020.0,1020.0,1022.0,1020.0,1024.0,1018.0,1027.0,1021.0,1023.0,1010.0,1020.0,1021.0,1021.0,1020.0,1026.0,1019.0,1028.0,1021.0,1025.0,1012.0,1021.0,1023.0,1024.0,1025.0,1018.0,1028.0,1021.0,1025.0,1013.0,1021.0,1022.0,1026.0,1019.0,1028.0,1021.0,1025.0,1011.0,1020.0,1026.0,1019.0,1029.0,1021.0,1025.0,1012.0,1020.0,1024.0,1019.0,1028.0,1020.0,1023.0,1011.0,1020.0,1024.0,1019.0,1028.0,1021.0,1023.0,1012.0,1024.0,1019.0,1027.0,1021.0,1022.0,1011.0,1025.0,1019.0,1028.0,1022.0,1024.0,1012.0,1025.0,1019.0,1028.0,1022.0,1025.0,1013.0,1024.0,1019.0,1028.0,1021.0,1023.0,1012.0,1025.0,1019.0,1029.0,1022.0,1024.0,1014.0,1025.0,1020.0,1029.0,1023.0,1025.0,1014.0,1026.0,1020.0,1029.0,1023.0,1025.0,1016.0,1026.0,1020.0,1030.0,1022.0,1025.0,1017.0,1029.0,1022.0,1031.0,1022.0,1025.0,1020.0,1030.0,1023.0,1034.0,1024.0,1027.0,1023.0,1031.0,1024.0,1034.0,1022.0,1025.0,1024.0,1042.0,1034.0,1048.0,1026.0,1031.0,1104.0,1038.0,1031.0,1046.0,1025.0,1030.0,2276,2234,1903,	00:32:33.252,-0.0078125,0.046875,1.02099609375,0.0,0.3662109375,0.18310546875,2.65869140625,0.4119873046875,-37.957763671875,44.0,-477.0,-4146.0,-0.945343017578125,-0.023101806640625,0.004119873046875,0.3251953125,2.6579802512561876,0.4132065556532763,-42.4287451987975,-0.9319459678738898,-0.022925776746414932,0.005031956244996967,0.3618367050763656,1,	00:32:33.254,0.0322265625,0.076171875,1.01806640625,0.06103515625,0.06103515625,0.42724609375,4.2901611328125,-1.7633056640625,133.275146484375,-79.0,685.0,-1783.0,0.395721435546875,0.0289306640625,0.02825927734375,0.91748046875,4.288047538365689,-1.7619663472776566,126.15279545595219,0.45191868866783746,0.030637345263532255,0.026395440072899706,0.8911420384267053,1
1782117462.389073,0.242,1020.0,1026.0,1019.0,1023.0,1017.0,1027.0,1020.0,1021.0,1010.0,1023.0,1018.0,1027.0,1020.0,1022.0,1010.0,1020.0,1023.0,1018.0,1027.0,1020.0,1023.0,1010.0,1020.0,1020.0,1023.0,1018.0,1026.0,1021.0,1022.0,1010.0,1020.0,1020.0,1020.0,1024.0,1018.0,1027.0,1021.0,1023.0,1010.0,1020.0,1020.0,1021.0,1023.0,1018.0,1027.0,1021.0,1022.0,1010.0,1019.0,1020.0,1020.0,1019.0,1024.0,1018.0,1027.0,1021.0,1022.0,1009.0,1020.0,1019.0,1020.0,1019.0,1024.0,1018.0,1027.0,1021.0,1022.0,1010.0,1020.0,1020.0,1021.0,1020.0,1024.0,1018.0,1027.0,1021.0,1022.0,1010.0,1020.0,1020.0,1021.0,1019.0,1024.0,1018.0,1027.0,1021.0,1022.0,1010.0,1020.0,1020.0,1020.0,1019.0,1024.0,1018.0,1027.0,1021.0,1023.0,1010.0,1020.0,1021.0,1020.0,1020.0,1024.0,1018.0,1028.0,1021.0,1023.0,1010.0,1020.0,1021.0,1021.0,1020.0,1025.0,1019.0,1028.0,1021.0,1025.0,1012.0,1020.0,1023.0,1024.0,1026.0,1019.0,1028.0,1021.0,1025.0,1011.0,1021.0,1022.0,1025.0,1019.0,1028.0,1021.0,1024.0,1012.0,1020.0,1025.0,1018.0,1028.0,1022.0,1024.0,1012.0,1021.0,1024.0,1018.0,1028.0,1021.0,1023.0,1012.0,1020.0,1024.0,1019.0,1028.0,1021.0,1023.0,1012.0,1024.0,1018.0,1028.0,1021.0,1022.0,1011.0,1024.0,1019.0,1028.0,1022.0,1024.0,1013.0,1025.0,1019.0,1029.0,1022.0,1025.0,1014.0,1024.0,1018.0,1028.0,1021.0,1023.0,1013.0,1025.0,1019.0,1029.0,1022.0,1025.0,1015.0,1025.0,1019.0,1029.0,1022.0,1025.0,1014.0,1026.0,1020.0,1030.0,1022.0,1025.0,1016.0,1026.0,1020.0,1030.0,1022.0,1025.0,1017.0,1028.0,1021.0,1031.0,1023.0,1026.0,1019.0,1030.0,1023.0,1033.0,1023.0,1026.0,1024.0,1030.0,1023.0,1034.0,1023.0,1025.0,1024.0,1043.0,1034.0,1047.0,1026.0,1032.0,1105.0,1039.0,1032.0,1046.0,1025.0,1031.0,2276,2234,1902,	00:32:33.263,-0.00732421875,0.04638671875,1.02099609375,0.0,0.3662109375,0.18310546875,2.5653076171875,0.4119873046875,-37.9522705078125,45.0,-477.0,-4144.0,-0.94537353515625,-0.0223388671875,0.003875732421875,0.3251953125,2.5665130029015963,0.4125511430201005,-42.42740538146005,-0.9319682665688328,-0.022179874899632555,0.004748207198321861,0.3618295977204235,1,	00:32:33.264,0.03173828125,0.07568359375,1.0185546875,0.1220703125,0.06103515625,0.42724609375,4.207763671875,-1.8017578125,133.2806396484375,-81.0,685.0,-1785.0,0.395660400390625,0.028961181640625,0.0274658203125,0.91754150390625,4.206090558170477,-1.8002729520787661,126.15968461914416,0.45187362099359507,0.030610313355244636,0.025608504228270487,0.8911887812790403,1
1782117462.400069,0.253,1020.0,1026.0,1018.0,1022.0,1017.0,1027.0,1020.0,1022.0,1010.0,1022.0,1018.0,1027.0,1021.0,1022.0,1010.0,1020.0,1023.0,1018.0,1027.0,1020.0,1022.0,1009.0,1020.0,1020.0,1024.0,1018.0,1027.0,1020.0,1022.0,1009.0,1020.0,1020.0,1020.0,1024.0,1018.0,1027.0,1020.0,1022.0,1010.0,1020.0,1020.0,1020.0,1024.0,1018.0,1027.0,1020.0,1022.0,1009.0,1019.0,1020.0,1020.0,1018.0,1023.0,1018.0,1027.0,1020.0,1022.0,1010.0,1020.0,1020.0,1020.0,1018.0,1024.0,1019.0,1028.0,1021.0,1023.0,1010.0,1020.0,1021.0,1021.0,1020.0,1024.0,1017.0,1027.0,1021.0,1022.0,1010.0,1020.0,1020.0,1020.0,1020.0,1024.0,1018.0,1027.0,1021.0,1022.0,1010.0,1020.0,1020.0,1021.0,1019.0,1025.0,1018.0,1027.0,1021.0,1023.0,1010.0,1020.0,1021.0,1021.0,1020.0,1025.0,1018.0,1027.0,1020.0,1024.0,1010.0,1020.0,1021.0,1021.0,1020.0,1026.0,1018.0,1028.0,1021.0,1025.0,1012.0,1021.0,1022.0,1024.0,1025.0,1018.0,1028.0,1021.0,1025.0,1012.0,1021.0,1022.0,1025.0,1018.0,1027.0,1022.0,1024.0,1012.0,1020.0,1025.0,1018.0,1028.0,1022.0,1024.0,1012.0,1020.0,1025.0,1018.0,1028.0,1021.0,1024.0,1012.0,1020.0,1024.0,1018.0,1027.0,1021.0,1023.0,1012.0,1024.0,1018.0,1028.0,1021.0,1022.0,1011.0,1025.0,1018.0,1028.0,1022.0,1024.0,1013.0,1025.0,1019.0,1029.0,1022.0,1025.0,1014.0,1024.0,1018.0,1028.0,1021.0,1023.0,1012.0,1025.0,1019.0,1029.0,1022.0,1025.0,1015.0,1025.0,1019.0,1029.0,1022.0,1024.0,1014.0,1026.0,1019.0,1030.0,1022.0,1025.0,1016.0,1026.0,1020.0,1030.0,1022.0,1025.0,1017.0,1028.0,1021.0,1031.0,1022.0,1026.0,1019.0,1030.0,1022.0,1034.0,1023.0,1027.0,1023.0,1030.0,1023.0,1034.0,1023.0,1026.0,1024.0,1042.0,1033.0,1048.0,1025.0,1032.0,1104.0,1038.0,1031.0,1046.0,1025.0,1031.0,2276,2234,1903,	00:32:33.273,-0.0087890625,0.046875,1.0205078125,0.06103515625,0.3662109375,0.18310546875,2.625732421875,0.4888916015625,-37.9522705078125,44.0,-476.0,-4143.0,-0.94537353515625,-0.023040771484375,0.00341796875,0.325164794921875,2.623885727442804,0.48805832620018696,-42.424965771939945,-0.9319568759250982,-0.022884884469729447,0.004314747501940055,0.36182046160040865,1,	00:32:33.274,0.0322265625,0.07568359375,1.017578125,0.1220703125,0.0,0.42724609375,4.295654296875,-1.8182373046875,133.2806396484375,-82.0,688.0,-1784.0,0.3956298828125,0.0294189453125,0.02813720703125,0.917510986328125,4.297125148984445,-1.8170133210402863,126.16110836019736,0.4518321624426204,0.031099068055595726,0.02625070347296455,0.8911741948214578,1
1782117462.409953,0.263,1020.0,1027.0,1019.0,1022.0,1017.0,1027.0,1020.0,1021.0,1011.0,1023.0,1018.0,1027.0,1020.0,1022.0,1011.0,1020.0,1023.0,1018.0,1028.0,1020.0,1022.0,1010.0,1020.0,1021.0,1023.0,1017.0,1027.0,1020.0,1021.0,1010.0,1020.0,1019.0,1020.0,1023.0,1017.0,1028.0,1020.0,1022.0,1010.0,1020.0,1020.0,1021.0,1023.0,1018.0,1028.0,1021.0,1022.0,1010.0,1020.0,1020.0,1020.0,1019.0,1023.0,1017.0,1027.0,1020.0,1022.0,1010.0,1020.0,1019.0,1020.0,1018.0,1024.0,1017.0,1027.0,1020.0,1022.0,1010.0,1020.0,1020.0,1021.0,1020.0,1024.0,1018.0,1028.0,1021.0,1022.0,1010.0,1020.0,1020.0,1020.0,1019.0,1024.0,1018.0,1028.0,1021.0,1022.0,1010.0,1020.0,1020.0,1020.0,1019.0,1024.0,1019.0,1027.0,1020.0,1023.0,1011.0,1020.0,1020.0,1021.0,1020.0,1025.0,1018.0,1028.0,1021.0,1023.0,1010.0,1020.0,1020.0,1021.0,1020.0,1026.0,1019.0,1028.0,1021.0,1025.0,1012.0,1021.0,1023.0,1024.0,1025.0,1019.0,1028.0,1021.0,1025.0,1012.0,1021.0,1022.0,1025.0,1018.0,1028.0,1021.0,1024.0,1012.0,1020.0,1025.0,1018.0,1028.0,1021.0,1025.0,1012.0,1020.0,1025.0,1018.0,1028.0,1021.0,1023.0,1012.0,1020.0,1024.0,1018.0,1028.0,1021.0,1023.0,1012.0,1024.0,1018.0,1028.0,1021.0,1023.0,1012.0,1024.0,1019.0,1028.0,1021.0,1024.0,1013.0,1025.0,1019.0,1029.0,1022.0,1024.0,1014.0,1024.0,1019.0,1028.0,1021.0,1023.0,1012.0,1025.0,1019.0,1028.0,1022.0,1024.0,1014.0,1025.0,1019.0,1029.0,1022.0,1024.0,1015.0,1026.0,1019.0,1030.0,1022.0,1025.0,1016.0,1026.0,1020.0,1030.0,1022.0,1024.0,1017.0,1028.0,1021.0,1032.0,1022.0,1025.0,1019.0,1030.0,1023.0,1034.0,1023.0,1026.0,1023.0,1031.0,1023.0,1034.0,1022.0,1025.0,1024.0,1042.0,1033.0,1048.0,1026.0,1031.0,1104.0,1039.0,1031.0,1046.0,1025.0,1030.0,2276,2234,1903,	00:32:33.283,-0.00830078125,0.046875,1.02099609375,0.0,0.3662109375,0.18310546875,2.6422119140625,0.4010009765625,-37.94677734375,45.0,-478.0,-4145.0,-0.94537353515625,-0.02294921875,0.004180908203125,0.32513427734375,2.642750447145432,0.40191797319999156,-42.42282255027036,-0.9319688553316847,-0.022766548497920373,0.0050745031401854615,0.3617872114643101,1,	00:32:33.284,0.03271484375,0.076171875,1.01904296875,0.18310546875,0.0,0.42724609375,4.2242431640625,-1.8731689453125,133.2861328125,-80.0,684.0,-1783.0,0.39556884765625,0.02960205078125,0.027374267578125,0.91754150390625,4.225372018424764,-1.8721163597696069,126.16773447124105,0.45178070818911764,0.031242951721680963,0.025476699950662242,0.8912177104588306,1
1782117462.422356,0.275,1021.0,1026.0,1019.0,1023.0,1018.0,1026.0,1020.0,1021.0,1011.0,1023.0,1018.0,1027.0,1020.0,1021.0,1010.0,1020.0,1023.0,1018.0,1027.0,1020.0,1022.0,1010.0,1020.0,1020.0,1024.0,1017.0,1026.0,1020.0,1022.0,1010.0,1020.0,1020.0,1020.0,1024.0,1017.0,1027.0,1020.0,1022.0,1010.0,1020.0,1020.0,1020.0,1024.0,1017.0,1026.0,1020.0,1022.0,1010.0,1020.0,1020.0,1020.0,1019.0,1023.0,1018.0,1026.0,1020.0,1021.0,1010.0,1019.0,1020.0,1020.0,1018.0,1024.0,1018.0,1027.0,1021.0,1023.0,1011.0,1020.0,1021.0,1021.0,1020.0,1024.0,1018.0,1027.0,1021.0,1022.0,1011.0,1019.0,1020.0,1021.0,1019.0,1024.0,1018.0,1027.0,1020.0,1022.0,1011.0,1020.0,1020.0,1021.0,1019.0,1024.0,1018.0,1027.0,1020.0,1022.0,1010.0,1019.0,1021.0,1021.0,1020.0,1024.0,1018.0,1027.0,1021.0,1023.0,1011.0,1020.0,1020.0,1022.0,1020.0,1026.0,1019.0,1028.0,1021.0,1025.0,1012.0,1021.0,1022.0,1024.0,1026.0,1019.0,1028.0,1021.0,1025.0,1012.0,1021.0,1021.0,1025.0,1019.0,1027.0,1021.0,1024.0,1012.0,1020.0,1025.0,1018.0,1028.0,1021.0,1024.0,1013.0,1021.0,1025.0,1018.0,1028.0,1021.0,1023.0,1012.0,1020.0,1025.0,1019.0,1027.0,1020.0,1023.0,1012.0,1024.0,1019.0,1027.0,1021.0,1022.0,1012.0,1025.0,1019.0,1028.0,1021.0,1024.0,1014.0,1025.0,1018.0,1028.0,1022.0,1025.0,1015.0,1024.0,1018.0,1028.0,1021.0,1023.0,1013.0,1026.0,1020.0,1029.0,1022.0,1025.0,1015.0,1025.0,1019.0,1029.0,1021.0,1024.0,1015.0,1025.0,1020.0,1029.0,1022.0,1025.0,1017.0,1026.0,1020.0,1030.0,1022.0,1025.0,1018.0,1028.0,1021.0,1032.0,1022.0,1025.0,1021.0,1030.0,1023.0,1034.0,1023.0,1026.0,1024.0,1031.0,1023.0,1034.0,1022.0,1025.0,1025.0,1043.0,1033.0,1047.0,1026.0,1031.0,1106.0,1039.0,1031.0,1045.0,1025.0,1030.0,2276,2234,1902,	00:32:33.293,-0.00830078125,0.04638671875,1.0205078125,0.06103515625,0.3662109375,0.1220703125,2.5927734375,0.4833984375,-37.94677734375,46.0,-476.0,-4149.0,-0.94537353515625,-0.02276611328125,0.003387451171875,0.32513427734375,2.594427029107159,0.48301812478681466,-42.42181176172363,-0.9319732206282972,-0.022629511130639747,0.004262103846909006,0.3617950465781777,1,	00:32:33.294,0.0322265625,0.076171875,1.01904296875,0.18310546875,0.0,0.42724609375,4.28466796875,-1.8017578125,133.2916259765625,-84.0,685.0,-1782.0,0.39556884765625,0.029205322265625,0.028076171875,0.91754150390625,4.2821328860460826,-1.7991409608723135,126.1702346198741,0.45177155925716866,0.030898956598044473,0.026207205338763483,0.8912131591913524,1
1782117462.430884,0.284,1021.0,1025.0,1019.0,1023.0,1018.0,1026.0,1020.0,1021.0,1011.0,1023.0,1018.0,1027.0,1020.0,1021.0,1010.0,1019.0,1023.0,1018.0,1026.0,1021.0,1022.0,1010.0,1020.0,1020.0,1023.0,1018.0,1026.0,1020.0,1022.0,1010.0,1020.0,1019.0,1020.0,1023.0,1017.0,1026.0,1020.0,1022.0,1010.0,1020.0,1020.0,1020.0,1024.0,1018.0,1027.0,1020.0,1021.0,1011.0,1019.0,1021.0,1020.0,1018.0,1023.0,1017.0,1027.0,1020.0,1021.0,1010.0,1019.0,1020.0,1020.0,1018.0,1024.0,1018.0,1027.0,1021.0,1022.0,1010.0,1020.0,1021.0,1021.0,1020.0,1024.0,1018.0,1027.0,1021.0,1022.0,1010.0,1020.0,1020.0,1021.0,1019.0,1024.0,1018.0,1027.0,1020.0,1022.0,1011.0,1020.0,1020.0,1021.0,1020.0,1025.0,1018.0,1027.0,1021.0,1023.0,1010.0,1019.0,1020.0,1021.0,1020.0,1024.0,1018.0,1027.0,1020.0,1023.0,1011.0,1020.0,1021.0,1021.0,1020.0,1026.0,1019.0,1028.0,1021.0,1025.0,1012.0,1021.0,1022.0,1023.0,1026.0,1018.0,1028.0,1021.0,1025.0,1012.0,1021.0,1022.0,1025.0,1019.0,1027.0,1022.0,1024.0,1012.0,1020.0,1025.0,1018.0,1027.0,1021.0,1024.0,1013.0,1020.0,1025.0,1018.0,1027.0,1021.0,1023.0,1012.0,1020.0,1024.0,1018.0,1027.0,1021.0,1023.0,1012.0,1024.0,1018.0,1027.0,1020.0,1022.0,1012.0,1024.0,1018.0,1028.0,1021.0,1024.0,1013.0,1025.0,1019.0,1028.0,1022.0,1024.0,1013.0,1024.0,1018.0,1028.0,1021.0,1023.0,1012.0,1026.0,1019.0,1029.0,1022.0,1025.0,1015.0,1025.0,1019.0,1029.0,1022.0,1024.0,1014.0,1026.0,1020.0,1030.0,1023.0,1025.0,1016.0,1026.0,1020.0,1029.0,1022.0,1025.0,1018.0,1028.0,1021.0,1031.0,1022.0,1025.0,1020.0,1030.0,1023.0,1033.0,1023.0,1026.0,1024.0,1031.0,1023.0,1033.0,1023.0,1025.0,1025.0,1043.0,1032.0,1047.0,1026.0,1031.0,1106.0,1039.0,1031.0,1046.0,1025.0,1030.0,2276,2234,1903,	00:32:33.304,-0.00732421875,0.046875,1.02197265625,0.06103515625,0.3662109375,0.1220703125,2.6312255859375,0.4010009765625,-37.94677734375,44.0,-478.0,-4147.0,-0.94537353515625,-0.022857666015625,0.004150390625,0.325103759765625,2.631658499312919,0.4025808804007223,-42.420144013941446,-0.9319794440805379,-0.02267854771628764,0.005033561889728047,0.3617660328714046,1,	00:32:33.305,0.03173828125,0.07568359375,1.01806640625,0.244140625,-0.06103515625,0.42724609375,4.207763671875,-1.7523193359375,133.297119140625,-79.0,683.0,-1780.0,0.395538330078125,0.028564453125,0.027618408203125,0.917572021484375,4.206164137941517,-1.7528466641195781,126.1768788486941,0.4517563189644429,0.030238107423320386,0.02580105524184185,0.8912554014891352,1
1782117462.440885,0.294,1021.0,1025.0,1019.0,1023.0,1017.0,1027.0,1019.0,1022.0,1010.0,1023.0,1018.0,1027.0,1020.0,1021.0,1010.0,1019.0,1023.0,1018.0,1027.0,1021.0,1022.0,1010.0,1020.0,1020.0,1024.0,1018.0,1027.0,1020.0,1022.0,1009.0,1020.0,1020.0,1020.0,1024.0,1018.0,1027.0,1020.0,1022.0,1010.0,1020.0,1020.0,1020.0,1024.0,1018.0,1026.0,1021.0,1022.0,1010.0,1020.0,1020.0,1020.0,1019.0,1024.0,1018.0,1027.0,1020.0,1022.0,1010.0,1019.0,1020.0,1020.0,1018.0,1024.0,1018.0,1027.0,1020.0,1023.0,1010.0,1020.0,1020.0,1021.0,1020.0,1024.0,1018.0,1027.0,1020.0,1023.0,1010.0,1019.0,1019.0,1021.0,1019.0,1024.0,1018.0,1027.0,1020.0,1023.0,1010.0,1020.0,1020.0,1021.0,1020.0,1024.0,1018.0,1027.0,1021.0,1023.0,1010.0,1020.0,1020.0,1021.0,1020.0,1024.0,1018.0,1027.0,1021.0,1023.0,1011.0,1020.0,1020.0,1022.0,1020.0,1026.0,1018.0,1028.0,1021.0,1025.0,1011.0,1021.0,1022.0,1024.0,1025.0,1019.0,1028.0,1021.0,1025.0,1012.0,1021.0,1021.0,1025.0,1018.0,1027.0,1021.0,1024.0,1011.0,1020.0,1025.0,1019.0,1028.0,1021.0,1025.0,1012.0,1021.0,1025.0,1018.0,1028.0,1021.0,1023.0,1012.0,1020.0,1024.0,1018.0,1027.0,1021.0,1023.0,1012.0,1024.0,1018.0,1027.0,1021.0,1022.0,1011.0,1025.0,1018.0,1027.0,1022.0,1024.0,1013.0,1025.0,1019.0,1028.0,1021.0,1024.0,1014.0,1024.0,1018.0,1028.0,1021.0,1023.0,1012.0,1026.0,1020.0,1028.0,1022.0,1025.0,1014.0,1025.0,1019.0,1028.0,1022.0,1025.0,1014.0,1025.0,1020.0,1029.0,1022.0,1025.0,1015.0,1026.0,1021.0,1030.0,1022.0,1025.0,1017.0,1028.0,1021.0,1031.0,1023.0,1026.0,1019.0,1030.0,1023.0,1033.0,1023.0,1026.0,1023.0,1031.0,1023.0,1034.0,1023.0,1025.0,1023.0,1042.0,1033.0,1047.0,1026.0,1031.0,1104.0,1039.0,1032.0,1045.0,1025.0,1030.0,2276,2234,1902,	00:32:33.314,-0.0078125,0.046875,1.02197265625,0.18310546875,0.3662109375,0.18310546875,2.6202392578125,0.494384765625,-37.94677734375,45.0,-476.0,-4144.0,-0.94537353515625,-0.02301025390625,0.003326416015625,0.325103759765625,2.6192452469905896,0.4967127025407877,-42.41825707525926,-0.9319780559764274,-0.02287470392286073,0.0042283658829649325,0.3617675662919504,1,	00:32:33.315,0.03076171875,0.07666015625,1.0185546875,0.30517578125,-0.06103515625,0.3662109375,4.295654296875,-1.7303466796875,133.297119140625,-81.0,686.0,-1784.0,0.3955078125,0.0286865234375,0.0284423828125,0.917572021484375,4.297154189111167,-1.7287179542815052,126.17781373397675,0.45173338047323935,0.030409040328256365,0.026604318479409056,0.8912375965312394,1
1782117462.450223,0.303,1020.0,1026.0,1019.0,1022.0,1018.0,1027.0,1020.0,1022.0,1010.0,1023.0,1018.0,1027.0,1020.0,1022.0,1011.0,1020.0,1023.0,1018.0,1027.0,1021.0,1022.0,1010.0,1020.0,1020.0,1022.0,1018.0,1027.0,1020.0,1022.0,1010.0,1020.0,1020.0,1020.0,1023.0,1018.0,1027.0,1020.0,1022.0,1010.0,1019.0,1020.0,1021.0,1023.0,1017.0,1027.0,1021.0,1022.0,1010.0,1019.0,1020.0,1021.0,1019.0,1023.0,1017.0,1027.0,1020.0,1021.0,1010.0,1020.0,1019.0,1020.0,1019.0,1024.0,1018.0,1027.0,1020.0,1023.0,1010.0,1020.0,1021.0,1020.0,1020.0,1023.0,1018.0,1028.0,1020.0,1022.0,1010.0,1020.0,1020.0,1021.0,1020.0,1024.0,1018.0,1027.0,1021.0,1022.0,1010.0,1020.0,1020.0,1020.0,1019.0,1024.0,1017.0,1027.0,1021.0,1023.0,1010.0,1020.0,1020.0,1022.0,1020.0,1024.0,1018.0,1027.0,1021.0,1023.0,1011.0,1020.0,1021.0,1021.0,1020.0,1025.0,1018.0,1028.0,1021.0,1025.0,1012.0,1020.0,1022.0,1023.0,1025.0,1018.0,1028.0,1021.0,1025.0,1012.0,1021.0,1022.0,1025.0,1018.0,1028.0,1021.0,1024.0,1012.0,1020.0,1025.0,1019.0,1028.0,1021.0,1024.0,1013.0,1021.0,1024.0,1018.0,1028.0,1021.0,1023.0,1012.0,1020.0,1024.0,1018.0,1027.0,1021.0,1023.0,1012.0,1023.0,1018.0,1027.0,1021.0,1022.0,1012.0,1024.0,1018.0,1028.0,1022.0,1024.0,1014.0,1025.0,1018.0,1028.0,1022.0,1024.0,1014.0,1024.0,1018.0,1028.0,1021.0,1023.0,1013.0,1025.0,1019.0,1029.0,1022.0,1024.0,1016.0,1025.0,1018.0,1029.0,1022.0,1024.0,1015.0,1026.0,1020.0,1030.0,1022.0,1025.0,1017.0,1026.0,1020.0,1030.0,1022.0,1025.0,1018.0,1028.0,1021.0,1031.0,1023.0,1025.0,1021.0,1030.0,1022.0,1033.0,1023.0,1026.0,1024.0,1030.0,1023.0,1034.0,1023.0,1025.0,1025.0,1041.0,1032.0,1046.0,1025.0,1031.0,1105.0,1038.0,1031.0,1045.0,1025.0,1030.0,2276,2234,1902,	00:32:33.324,-0.00830078125,0.04638671875,1.021484375,0.30517578125,0.42724609375,0.244140625,2.5762939453125,0.4229736328125,-37.9412841796875,44.0,-477.0,-4144.0,-0.945404052734375,-0.022430419921875,0.003814697265625,0.3250732421875,2.5748021300242656,0.42252074356086544,-42.416005975911084,-0.9320016467926069,-0.022279223097097737,0.004691077003408569,0.36173824844852476,1,	00:32:33.325,0.03271484375,0.076171875,1.01904296875,0.42724609375,0.0,0.3662109375,4.28466796875,-1.8182373046875,133.3026123046875,-80.0,686.0,-1782.0,0.39544677734375,0.02935791015625,0.02801513671875,0.917572021484375,4.282231462693907,-1.818649064235433,126.18205461661798,0.4516727163095818,0.0310482792495557,0.026134086547532045,0.8912602152107385,1
1782117462.462546,0.315,1020.0,1026.0,1019.0,1023.0,1017.0,1027.0,1019.0,1021.0,1011.0,1023.0,1017.0,1027.0,1020.0,1021.0,1010.0,1020.0,1023.0,1017.0,1028.0,1020.0,1022.0,1010.0,1020.0,1020.0,1023.0,1017.0,1027.0,1020.0,1022.0,1011.0,1020.0,1020.0,1020.0,1024.0,1017.0,1027.0,1021.0,1022.0,1010.0,1020.0,1019.0,1020.0,1024.0,1017.0,1027.0,1020.0,1021.0,1010.0,1019.0,1020.0,1020.0,1019.0,1023.0,1017.0,1027.0,1020.0,1022.0,1010.0,1020.0,1020.0,1020.0,1019.0,1024.0,1017.0,1028.0,1020.0,1022.0,1010.0,1019.0,1020.0,1021.0,1021.0,1024.0,1017.0,1028.0,1020.0,1021.0,1010.0,1020.0,1020.0,1021.0,1019.0,1024.0,1017.0,1027.0,1020.0,1022.0,1010.0,1020.0,1020.0,1020.0,1019.0,1024.0,1017.0,1028.0,1020.0,1023.0,1011.0,1020.0,1021.0,1021.0,1020.0,1024.0,1018.0,1028.0,1020.0,1023.0,1011.0,1020.0,1020.0,1021.0,1020.0,1025.0,1018.0,1028.0,1021.0,1025.0,1012.0,1020.0,1022.0,1024.0,1025.0,1018.0,1029.0,1021.0,1024.0,1012.0,1020.0,1022.0,1025.0,1018.0,1028.0,1021.0,1024.0,1012.0,1020.0,1025.0,1018.0,1028.0,1021.0,1024.0,1012.0,1020.0,1025.0,1018.0,1028.0,1021.0,1023.0,1012.0,1020.0,1024.0,1018.0,1028.0,1021.0,1023.0,1012.0,1024.0,1018.0,1028.0,1020.0,1022.0,1012.0,1025.0,1018.0,1029.0,1021.0,1024.0,1013.0,1025.0,1018.0,1029.0,1022.0,1024.0,1014.0,1024.0,1018.0,1028.0,1021.0,1022.0,1012.0,1025.0,1019.0,1029.0,1022.0,1024.0,1015.0,1025.0,1019.0,1029.0,1022.0,1024.0,1014.0,1026.0,1019.0,1030.0,1022.0,1024.0,1016.0,1026.0,1020.0,1031.0,1022.0,1024.0,1018.0,1027.0,1020.0,1032.0,1023.0,1024.0,1019.0,1029.0,1023.0,1033.0,1022.0,1026.0,1023.0,1031.0,1023.0,1035.0,1023.0,1025.0,1024.0,1042.0,1033.0,1047.0,1026.0,1031.0,1104.0,1038.0,1031.0,1046.0,1025.0,1030.0,2276,2233,1903,	00:32:33.334,-0.00634765625,0.04638671875,1.02099609375,0.3662109375,0.42724609375,0.18310546875,2.61474609375,0.340576171875,-37.9412841796875,43.0,-475.0,-4142.0,-0.945404052734375,-0.02252197265625,0.00457763671875,0.325042724609375,2.6123528586467386,0.34152627677953085,-42.41376154106693,-0.9320094053712912,-0.022329164425771167,0.00546796277619454,0.36170426884207113,1,	00:32:33.335,0.0322265625,0.07666015625,1.01806640625,0.42724609375,0.0,0.3662109375,4.37255859375,-1.77978515625,133.3026123046875,-81.0,686.0,-1781.0,0.39544677734375,0.02935791015625,0.028839111328125,0.917572021484375,4.370033054316525,-1.7816671438418812,126.18308192952057,0.4516540677562423,0.03110665299700075,0.02696335986377062,0.8912429278504378,1
1782117462.471504,0.324,1020.0,1026.0,1019.0,1021.0,1017.0,1028.0,1020.0,1021.0,1011.0,1023.0,1017.0,1027.0,1020.0,1021.0,1010.0,1020.0,1023.0,1018.0,1028.0,1020.0,1022.0,1011.0,1020.0,1020.0,1023.0,1018.0,1027.0,1020.0,1021.0,1010.0,1020.0,1020.0,1020.0,1023.0,1017.0,1028.0,1020.0,1022.0,1010.0,1019.0,1020.0,1021.0,1023.0,1018.0,1027.0,1020.0,1022.0,1010.0,1020.0,1020.0,1020.0,1019.0,1023.0,1017.0,1027.0,1020.0,1022.0,1010.0,1020.0,1020.0,1021.0,1019.0,1023.0,1018.0,1027.0,1021.0,1022.0,1010.0,1020.0,1020.0,1021.0,1020.0,1023.0,1018.0,1027.0,1021.0,1021.0,1010.0,1020.0,1020.0,1021.0,1019.0,1023.0,1018.0,1028.0,1020.0,1021.0,1010.0,1020.0,1020.0,1021.0,1019.0,1023.0,1018.0,1028.0,1020.0,1022.0,1011.0,1020.0,1020.0,1021.0,1020.0,1024.0,1018.0,1028.0,1021.0,1023.0,1011.0,1020.0,1020.0,1021.0,1019.0,1025.0,1019.0,1028.0,1020.0,1025.0,1013.0,1021.0,1022.0,1024.0,1025.0,1018.0,1029.0,1021.0,1025.0,1013.0,1021.0,1021.0,1024.0,1018.0,1029.0,1021.0,1023.0,1012.0,1020.0,1024.0,1019.0,1029.0,1021.0,1025.0,1013.0,1020.0,1024.0,1018.0,1028.0,1021.0,1023.0,1012.0,1020.0,1024.0,1019.0,1028.0,1021.0,1023.0,1012.0,1023.0,1018.0,1028.0,1021.0,1022.0,1012.0,1024.0,1019.0,1028.0,1021.0,1024.0,1013.0,1024.0,1019.0,1029.0,1021.0,1024.0,1014.0,1023.0,1019.0,1029.0,1021.0,1023.0,1013.0,1025.0,1019.0,1029.0,1022.0,1024.0,1015.0,1024.0,1019.0,1029.0,1022.0,1024.0,1014.0,1025.0,1019.0,1030.0,1022.0,1025.0,1016.0,1025.0,1020.0,1030.0,1023.0,1024.0,1018.0,1027.0,1020.0,1031.0,1023.0,1025.0,1019.0,1030.0,1022.0,1034.0,1023.0,1025.0,1023.0,1031.0,1024.0,1035.0,1023.0,1025.0,1024.0,1042.0,1033.0,1048.0,1026.0,1030.0,1106.0,1038.0,1031.0,1046.0,1025.0,1030.0,2275,2233,1902,	00:32:33.345,-0.0078125,0.0458984375,1.02099609375,0.42724609375,0.42724609375,0.18310546875,2.581787109375,0.428466796875,-37.935791015625,43.0,-479.0,-4142.0,-0.945404052734375,-0.02252197265625,0.0037841796875,0.325042724609375,2.582744688310787,0.4308834876427417,-42.41196271612058,-0.9320120151496701,-0.02237037363635364,0.0046473398760706434,0.3617064724774732,1,	00:32:33.346,0.03125,0.076171875,1.01708984375,0.6103515625,0.0,0.30517578125,4.2901611328125,-1.7523193359375,133.30810546875,-82.0,684.0,-1782.0,0.395416259765625,0.02886962890625,0.028289794921875,0.9176025390625,4.288656987014817,-1.7550652436105565,126.18882449668023,0.45164074418350625,0.030577801772023076,0.02643707276184594,0.8912837468595197,1
1782117462.481584,0.334,1021.0,1027.0,1020.0,1023.0,1016.0,1028.0,1020.0,1021.0,1010.0,1022.0,1017.0,1028.0,1020.0,1021.0,1010.0,1020.0,1023.0,1017.0,1028.0,1021.0,1022.0,1010.0,1020.0,1020.0,1023.0,1017.0,1028.0,1020.0,1022.0,1010.0,1020.0,1019.0,1021.0,1023.0,1017.0,1028.0,1020.0,1022.0,1011.0,1020.0,1020.0,1020.0,1023.0,1017.0,1028.0,1020.0,1021.0,1010.0,1020.0,1020.0,1020.0,1019.0,1023.0,1017.0,1028.0,1020.0,1021.0,1010.0,1020.0,1020.0,1020.0,1018.0,1024.0,1017.0,1028.0,1020.0,1022.0,1011.0,1021.0,1020.0,1021.0,1020.0,1024.0,1016.0,1028.0,1020.0,1022.0,1011.0,1020.0,1019.0,1020.0,1019.0,1023.0,1017.0,1027.0,1020.0,1022.0,1010.0,1020.0,1020.0,1020.0,1020.0,1024.0,1017.0,1028.0,1020.0,1022.0,1011.0,1021.0,1020.0,1021.0,1020.0,1024.0,1017.0,1029.0,1021.0,1022.0,1011.0,1020.0,1020.0,1021.0,1019.0,1025.0,1018.0,1029.0,1021.0,1025.0,1012.0,1021.0,1022.0,1024.0,1025.0,1018.0,1029.0,1021.0,1024.0,1012.0,1021.0,1021.0,1025.0,1017.0,1029.0,1021.0,1024.0,1012.0,1021.0,1025.0,1017.0,1029.0,1021.0,1024.0,1013.0,1021.0,1024.0,1017.0,1029.0,1021.0,1023.0,1012.0,1021.0,1024.0,1017.0,1029.0,1020.0,1023.0,1012.0,1024.0,1017.0,1028.0,1021.0,1022.0,1012.0,1025.0,1018.0,1029.0,1021.0,1023.0,1013.0,1025.0,1017.0,1029.0,1021.0,1024.0,1014.0,1024.0,1017.0,1029.0,1021.0,1022.0,1012.0,1027.0,1018.0,1030.0,1022.0,1024.0,1015.0,1026.0,1018.0,1030.0,1022.0,1024.0,1014.0,1026.0,1018.0,1031.0,1022.0,1025.0,1016.0,1026.0,1019.0,1031.0,1022.0,1024.0,1017.0,1029.0,1020.0,1032.0,1022.0,1025.0,1019.0,1030.0,1022.0,1034.0,1023.0,1026.0,1022.0,1032.0,1023.0,1035.0,1022.0,1025.0,1023.0,1043.0,1033.0,1048.0,1025.0,1030.0,1104.0,1039.0,1031.0,1046.0,1025.0,1029.0,2275,2233,1902,	00:32:33.355,-0.0068359375,0.04638671875,1.02099609375,0.42724609375,0.48828125,0.244140625,2.6202392578125,0.3515625,-37.935791015625,44.0,-479.0,-4146.0,-0.9454345703125,-0.022613525390625,0.004547119140625,0.32501220703125,2.6203173785820866,0.3502368898902083,-42.4090798701951,-0.9320217854082361,-0.022421648836375884,0.005421336637024955,0.3616673475681351,1,	00:32:33.356,0.03271484375,0.0771484375,1.017578125,0.67138671875,0.0,0.244140625,4.339599609375,-1.834716796875,133.30810546875,-82.0,684.0,-1781.0,0.3953857421875,0.029693603515625,0.0284423828125,0.9176025390625,4.341158384147247,-1.834416429517643,126.18981912243149,0.45159066185123564,0.031401300093791364,0.02653223348027926,0.8912776632832949,1
1782117462.491623,0.344,1021.0,1028.0,1019.0,1023.0,1016.0,1028.0,1020.0,1021.0,1010.0,1022.0,1016.0,1029.0,1020.0,1021.0,1010.0,1020.0,1022.0,1016.0,1029.0,1020.0,1022.0,1010.0,1020.0,1020.0,1023.0,1016.0,1029.0,1020.0,1022.0,1010.0,1020.0,1019.0,1021.0,1023.0,1017.0,1029.0,1020.0,1022.0,1010.0,1020.0,1020.0,1021.0,1023.0,1017.0,1029.0,1020.0,1021.0,1010.0,1020.0,1019.0,1020.0,1019.0,1022.0,1016.0,1029.0,1020.0,1021.0,1009.0,1020.0,1019.0,1020.0,1018.0,1024.0,1017.0,1029.0,1020.0,1022.0,1010.0,1021.0,1020.0,1021.0,1020.0,1023.0,1017.0,1029.0,1020.0,1022.0,1010.0,1020.0,1020.0,1020.0,1019.0,1023.0,1016.0,1029.0,1020.0,1022.0,1010.0,1020.0,1020.0,1021.0,1020.0,1024.0,1017.0,1029.0,1020.0,1022.0,1010.0,1020.0,1020.0,1021.0,1020.0,1024.0,1017.0,1029.0,1020.0,1022.0,1010.0,1021.0,1020.0,1021.0,1020.0,1025.0,1018.0,1029.0,1021.0,1025.0,1012.0,1022.0,1022.0,1024.0,1025.0,1017.0,1030.0,1021.0,1024.0,1012.0,1021.0,1021.0,1025.0,1018.0,1030.0,1021.0,1023.0,1012.0,1021.0,1025.0,1017.0,1029.0,1021.0,1024.0,1012.0,1021.0,1024.0,1017.0,1029.0,1021.0,1023.0,1012.0,1020.0,1024.0,1017.0,1029.0,1021.0,1023.0,1012.0,1024.0,1017.0,1029.0,1020.0,1022.0,1011.0,1025.0,1017.0,1029.0,1021.0,1024.0,1012.0,1025.0,1018.0,1030.0,1022.0,1024.0,1013.0,1024.0,1017.0,1029.0,1021.0,1023.0,1012.0,1025.0,1018.0,1030.0,1022.0,1025.0,1014.0,1024.0,1018.0,1030.0,1022.0,1024.0,1014.0,1025.0,1019.0,1030.0,1022.0,1025.0,1016.0,1026.0,1019.0,1031.0,1021.0,1025.0,1017.0,1028.0,1019.0,1032.0,1023.0,1026.0,1019.0,1030.0,1022.0,1034.0,1022.0,1026.0,1022.0,1030.0,1022.0,1035.0,1022.0,1025.0,1023.0,1042.0,1033.0,1048.0,1026.0,1031.0,1104.0,1037.0,1031.0,1046.0,1025.0,1030.0,2275,2233,1902,	00:32:33.365,-0.00732421875,0.044921875,1.02197265625,0.30517578125,0.48828125,0.244140625,2.5433349609375,0.4010009765625,-37.935791015625,44.0,-479.0,-4146.0,-0.9454345703125,-0.022125244140625,0.00390625,0.32501220703125,2.544131725817116,0.4009638260371623,-42.406935844012246,-0.9320383463410051,-0.021962127766802838,0.004767859295740728,0.3616620707395443,1,	00:32:33.366,0.0322265625,0.07666015625,1.017578125,0.9765625,0.0,0.244140625,4.2791748046875,-1.77978515625,133.3135986328125,-83.0,682.0,-1781.0,0.3953857421875,0.029022216796875,0.02813720703125,0.917633056640625,4.2787192115690065,-1.7784295387518452,126.19453331754505,0.45159078275033115,0.030718945060719437,0.02626901297905768,0.8913091777303798,1
1782117462.501764,0.354,1020.0,1027.0,1019.0,1022.0,1017.0,1028.0,1020.0,1021.0,1010.0,1023.0,1018.0,1027.0,1020.0,1022.0,1009.0,1020.0,1022.0,1018.0,1028.0,1020.0,1021.0,1010.0,1019.0,1020.0,1023.0,1017.0,1028.0,1021.0,1022.0,1009.0,1020.0,1019.0,1020.0,1023.0,1018.0,1027.0,1020.0,1022.0,1009.0,1020.0,1019.0,1021.0,1023.0,1017.0,1027.0,1020.0,1022.0,1010.0,1020.0,1019.0,1020.0,1019.0,1023.0,1017.0,1028.0,1020.0,1021.0,1009.0,1020.0,1019.0,1020.0,1019.0,1024.0,1018.0,1028.0,1020.0,1022.0,1010.0,1020.0,1021.0,1021.0,1020.0,1024.0,1018.0,1028.0,1020.0,1022.0,1010.0,1020.0,1020.0,1020.0,1019.0,1023.0,1017.0,1028.0,1021.0,1022.0,1010.0,1020.0,1020.0,1021.0,1019.0,1023.0,1018.0,1027.0,1021.0,1022.0,1011.0,1020.0,1020.0,1021.0,1019.0,1024.0,1018.0,1028.0,1020.0,1023.0,1010.0,1020.0,1020.0,1021.0,1020.0,1025.0,1019.0,1028.0,1021.0,1025.0,1012.0,1021.0,1022.0,1024.0,1024.0,1019.0,1028.0,1021.0,1025.0,1012.0,1021.0,1021.0,1024.0,1018.0,1028.0,1021.0,1024.0,1012.0,1020.0,1025.0,1019.0,1028.0,1021.0,1025.0,1012.0,1021.0,1024.0,1019.0,1028.0,1021.0,1023.0,1011.0,1020.0,1024.0,1018.0,1028.0,1021.0,1023.0,1011.0,1024.0,1019.0,1028.0,1021.0,1022.0,1011.0,1024.0,1018.0,1028.0,1021.0,1023.0,1013.0,1025.0,1019.0,1028.0,1022.0,1024.0,1013.0,1024.0,1018.0,1028.0,1021.0,1023.0,1012.0,1025.0,1020.0,1029.0,1021.0,1025.0,1015.0,1024.0,1020.0,1029.0,1021.0,1024.0,1015.0,1025.0,1020.0,1030.0,1021.0,1024.0,1017.0,1026.0,1020.0,1030.0,1021.0,1025.0,1017.0,1027.0,1021.0,1031.0,1022.0,1025.0,1020.0,1029.0,1023.0,1033.0,1023.0,1026.0,1024.0,1030.0,1024.0,1034.0,1022.0,1026.0,1023.0,1041.0,1033.0,1048.0,1024.0,1031.0,1106.0,1037.0,1032.0,1046.0,1024.0,1030.0,2275,2233,1902,	00:32:33.375,-0.00634765625,0.04638671875,1.021484375,0.244140625,0.42724609375,0.30517578125,2.6202392578125,0.3460693359375,-37.9302978515625,45.0,-479.0,-4147.0,-0.9454345703125,-0.0225830078125,0.004547119140625,0.324981689453125,2.617813054658617,0.34743971483729086,-42.403233473089045,-0.9320409969673052,-0.022392732307206023,0.00543504202878667,0.3616194212568719,1,	00:32:33.376,0.03271484375,0.0771484375,1.0185546875,1.03759765625,0.06103515625,0.244140625,4.3505859375,-1.845703125,133.3135986328125,-81.0,683.0,-1783.0,0.39532470703125,0.029815673828125,0.028472900390625,0.9176025390625,4.3517473926677495,-1.8445353209389073,126.19502561096604,0.45154363220455335,0.03152047689103928,0.02657605259045522,0.8912959784385824,1
1782117462.511610,0.364,1020.0,1026.0,1019.0,1022.0,1017.0,1027.0,1020.0,1021.0,1011.0,1023.0,1018.0,1027.0,1020.0,1021.0,1010.0,1019.0,1023.0,1018.0,1027.0,1020.0,1021.0,1010.0,1019.0,1020.0,1022.0,1018.0,1028.0,1020.0,1021.0,1010.0,1020.0,1020.0,1020.0,1023.0,1018.0,1027.0,1020.0,1022.0,1010.0,1020.0,1019.0,1020.0,1023.0,1018.0,1027.0,1020.0,1022.0,1011.0,1020.0,1019.0,1021.0,1019.0,1023.0,1018.0,1027.0,1020.0,1022.0,1010.0,1020.0,1019.0,1020.0,1019.0,1024.0,1018.0,1027.0,1020.0,1022.0,1011.0,1020.0,1020.0,1021.0,1020.0,1024.0,1018.0,1027.0,1020.0,1022.0,1011.0,1020.0,1020.0,1021.0,1019.0,1023.0,1018.0,1027.0,1020.0,1022.0,1011.0,1020.0,1020.0,1021.0,1019.0,1023.0,1018.0,1027.0,1020.0,1022.0,1011.0,1020.0,1020.0,1021.0,1020.0,1024.0,1018.0,1027.0,1021.0,1022.0,1011.0,1020.0,1020.0,1021.0,1021.0,1024.0,1019.0,1027.0,1021.0,1024.0,1012.0,1021.0,1022.0,1024.0,1025.0,1019.0,1027.0,1021.0,1024.0,1013.0,1020.0,1021.0,1024.0,1018.0,1027.0,1021.0,1023.0,1013.0,1020.0,1025.0,1019.0,1027.0,1021.0,1023.0,1013.0,1020.0,1024.0,1019.0,1027.0,1021.0,1023.0,1013.0,1019.0,1024.0,1018.0,1027.0,1021.0,1023.0,1013.0,1024.0,1018.0,1027.0,1020.0,1021.0,1012.0,1024.0,1018.0,1028.0,1021.0,1023.0,1013.0,1024.0,1019.0,1028.0,1022.0,1024.0,1014.0,1024.0,1018.0,1028.0,1021.0,1023.0,1013.0,1025.0,1020.0,1029.0,1022.0,1024.0,1015.0,1024.0,1019.0,1028.0,1021.0,1024.0,1015.0,1025.0,1019.0,1029.0,1022.0,1025.0,1016.0,1025.0,1020.0,1029.0,1022.0,1024.0,1017.0,1027.0,1021.0,1030.0,1022.0,1025.0,1020.0,1028.0,1023.0,1032.0,1023.0,1026.0,1024.0,1029.0,1023.0,1033.0,1022.0,1025.0,1024.0,1040.0,1033.0,1047.0,1025.0,1031.0,1106.0,1037.0,1031.0,1045.0,1024.0,1030.0,2275,2232,1903,	00:32:33.385,-0.00927734375,0.046875,1.02197265625,0.18310546875,0.48828125,0.244140625,2.625732421875,0.4449462890625,-37.9248046875,44.0,-476.0,-4142.0,-0.9454345703125,-0.022918701171875,0.0037841796875,0.324951171875,2.6240999849972138,0.44376777560277686,-42.40053936071425,-0.9320386030141408,-0.022747845230716164,0.0046708108637219066,0.36161410585689746,1,	00:32:33.387,0.03076171875,0.07666015625,1.0166015625,1.46484375,0.0,0.244140625,4.339599609375,-1.7578125,133.319091796875,-82.0,682.0,-1780.0,0.39532470703125,0.029052734375,0.028656005859375,0.917633056640625,4.33697473096819,-1.7580061573741315,126.19839469120942,0.4515523302553901,0.030788856201503827,0.026803836044243586,0.8913103240443496,1
1782117462.524795,0.377,1019.0,1025.0,1019.0,1021.0,1018.0,1027.0,1019.0,1021.0,1012.0,1022.0,1018.0,1027.0,1020.0,1022.0,1011.0,1020.0,1023.0,1018.0,1026.0,1020.0,1022.0,1011.0,1019.0,1020.0,1023.0,1018.0,1027.0,1021.0,1022.0,1011.0,1020.0,1019.0,1020.0,1023.0,1018.0,1026.0,1020.0,1022.0,1010.0,1020.0,1019.0,1021.0,1023.0,1017.0,1027.0,1020.0,1022.0,1011.0,1019.0,1019.0,1020.0,1019.0,1022.0,1019.0,1027.0,1020.0,1022.0,1011.0,1020.0,1019.0,1020.0,1018.0,1023.0,1019.0,1027.0,1020.0,1022.0,1011.0,1020.0,1020.0,1021.0,1020.0,1023.0,1019.0,1027.0,1020.0,1022.0,1011.0,1019.0,1020.0,1020.0,1019.0,1023.0,1018.0,1026.0,1020.0,1021.0,1011.0,1020.0,1020.0,1021.0,1020.0,1024.0,1018.0,1026.0,1020.0,1022.0,1011.0,1020.0,1020.0,1021.0,1020.0,1023.0,1018.0,1027.0,1020.0,1023.0,1011.0,1020.0,1020.0,1021.0,1020.0,1024.0,1019.0,1027.0,1022.0,1025.0,1013.0,1021.0,1022.0,1024.0,1024.0,1019.0,1027.0,1021.0,1024.0,1013.0,1020.0,1021.0,1024.0,1019.0,1027.0,1021.0,1024.0,1013.0,1020.0,1024.0,1019.0,1026.0,1021.0,1023.0,1013.0,1021.0,1024.0,1019.0,1027.0,1021.0,1023.0,1013.0,1020.0,1023.0,1019.0,1027.0,1021.0,1023.0,1013.0,1024.0,1019.0,1027.0,1020.0,1022.0,1012.0,1024.0,1019.0,1027.0,1022.0,1023.0,1013.0,1024.0,1019.0,1027.0,1021.0,1024.0,1014.0,1024.0,1019.0,1027.0,1020.0,1022.0,1013.0,1025.0,1020.0,1028.0,1021.0,1024.0,1015.0,1024.0,1019.0,1027.0,1021.0,1024.0,1015.0,1025.0,1020.0,1029.0,1021.0,1025.0,1017.0,1026.0,1020.0,1029.0,1021.0,1024.0,1017.0,1027.0,1021.0,1030.0,1022.0,1025.0,1020.0,1029.0,1023.0,1032.0,1022.0,1026.0,1024.0,1030.0,1023.0,1033.0,1022.0,1025.0,1023.0,1040.0,1032.0,1046.0,1024.0,1031.0,1104.0,1037.0,1030.0,1043.0,1024.0,1029.0,2275,2232,1903,	00:32:33.396,-0.00732421875,0.0478515625,1.0205078125,0.30517578125,0.3662109375,0.30517578125,2.7081298828125,0.4010009765625,-37.9248046875,46.0,-479.0,-4145.0,-0.9454345703125,-0.02349853515625,0.00433349609375,0.324920654296875,2.707602934196203,0.4034194256086377,-42.39672962540811,-0.9320380220887128,-0.023299924695988277,0.005261736661632366,0.36157233441930375,1,	00:32:33.397,0.03125,0.07763671875,1.015625,1.5869140625,-0.1220703125,0.18310546875,4.4439697265625,-1.7578125,133.319091796875,-80.0,680.0,-1782.0,0.39532470703125,0.0294189453125,0.029510498046875,0.9176025390625,4.444222968934722,-1.7573951697991186,126.19732446789577,0.45153186208191737,0.031206967151429503,0.027640138721142928,0.8912806098292063,1
1782117462.533320,0.386,1020.0,1025.0,1019.0,1022.0,1018.0,1026.0,1020.0,1021.0,1011.0,1022.0,1018.0,1025.0,1019.0,1022.0,1010.0,1020.0,1023.0,1019.0,1026.0,1020.0,1022.0,1010.0,1020.0,1020.0,1023.0,1018.0,1026.0,1020.0,1022.0,1011.0,1020.0,1020.0,1020.0,1023.0,1018.0,1026.0,1020.0,1022.0,1010.0,1020.0,1019.0,1021.0,1024.0,1018.0,1026.0,1020.0,1022.0,1010.0,1019.0,1019.0,1020.0,1019.0,1023.0,1019.0,1026.0,1020.0,1022.0,1010.0,1020.0,1020.0,1020.0,1019.0,1023.0,1019.0,1026.0,1020.0,1023.0,1011.0,1020.0,1020.0,1021.0,1020.0,1024.0,1019.0,1026.0,1020.0,1022.0,1011.0,1020.0,1020.0,1021.0,1020.0,1024.0,1018.0,1027.0,1021.0,1022.0,1011.0,1020.0,1019.0,1020.0,1019.0,1023.0,1019.0,1027.0,1020.0,1022.0,1011.0,1020.0,1021.0,1021.0,1020.0,1024.0,1019.0,1026.0,1020.0,1023.0,1011.0,1020.0,1020.0,1021.0,1020.0,1024.0,1019.0,1027.0,1021.0,1025.0,1013.0,1021.0,1022.0,1024.0,1024.0,1019.0,1027.0,1020.0,1025.0,1012.0,1020.0,1021.0,1024.0,1019.0,1027.0,1021.0,1024.0,1012.0,1020.0,1024.0,1019.0,1027.0,1021.0,1025.0,1013.0,1020.0,1024.0,1019.0,1027.0,1020.0,1023.0,1012.0,1020.0,1024.0,1019.0,1026.0,1021.0,1023.0,1012.0,1024.0,1019.0,1026.0,1020.0,1022.0,1012.0,1024.0,1019.0,1027.0,1021.0,1024.0,1013.0,1024.0,1019.0,1027.0,1021.0,1024.0,1014.0,1024.0,1018.0,1027.0,1020.0,1023.0,1013.0,1025.0,1019.0,1028.0,1022.0,1025.0,1016.0,1024.0,1020.0,1028.0,1020.0,1024.0,1015.0,1025.0,1020.0,1028.0,1021.0,1025.0,1016.0,1026.0,1020.0,1028.0,1021.0,1025.0,1018.0,1028.0,1021.0,1030.0,1022.0,1025.0,1020.0,1029.0,1024.0,1032.0,1022.0,1027.0,1023.0,1030.0,1024.0,1033.0,1022.0,1025.0,1023.0,1040.0,1033.0,1047.0,1024.0,1030.0,1105.0,1036.0,1030.0,1044.0,1024.0,1029.0,2274,2232,1902,	00:32:33.406,-0.0078125,0.04638671875,1.0234375,0.54931640625,0.6103515625,0.30517578125,2.625732421875,0.4339599609375,-37.9193115234375,43.0,-478.0,-4147.0,-0.945465087890625,-0.02288818359375,0.00384521484375,0.324920654296875,2.6253374418615345,0.4355159648708036,-42.39403386426907,-0.9320597390431201,-0.02273215113189631,0.004740546636865864,0.3615597037521897,1,	00:32:33.407,0.03369140625,0.0771484375,1.015625,1.953125,-0.3662109375,0.1220703125,4.4110107421875,-1.834716796875,133.319091796875,-82.0,681.0,-1781.0,0.395263671875,0.029937744140625,0.02899169921875,0.9176025390625,4.409612730096457,-1.8351356150656808,126.19994117025688,0.4514928338703438,0.031674263881038216,0.027064614316146773,0.8913015587461062,1
1782117462.542620,0.395,1020.0,1024.0,1019.0,1021.0,1018.0,1025.0,1020.0,1022.0,1012.0,1022.0,1018.0,1026.0,1020.0,1022.0,1011.0,1020.0,1022.0,1019.0,1026.0,1020.0,1022.0,1011.0,1020.0,1019.0,1022.0,1019.0,1026.0,1020.0,1022.0,1011.0,1019.0,1020.0,1020.0,1023.0,1019.0,1026.0,1020.0,1022.0,1011.0,1020.0,1020.0,1020.0,1023.0,1018.0,1026.0,1020.0,1022.0,1010.0,1020.0,1019.0,1020.0,1019.0,1023.0,1019.0,1025.0,1020.0,1022.0,1010.0,1020.0,1020.0,1020.0,1019.0,1023.0,1019.0,1026.0,1020.0,1022.0,1010.0,1020.0,1020.0,1021.0,1020.0,1023.0,1019.0,1025.0,1021.0,1023.0,1011.0,1020.0,1019.0,1021.0,1019.0,1023.0,1019.0,1025.0,1021.0,1022.0,1011.0,1020.0,1020.0,1020.0,1020.0,1024.0,1019.0,1026.0,1020.0,1023.0,1011.0,1020.0,1020.0,1021.0,1020.0,1023.0,1019.0,1026.0,1021.0,1023.0,1012.0,1020.0,1020.0,1021.0,1020.0,1025.0,1019.0,1026.0,1021.0,1025.0,1013.0,1020.0,1022.0,1024.0,1024.0,1019.0,1026.0,1021.0,1025.0,1013.0,1020.0,1020.0,1024.0,1019.0,1026.0,1021.0,1024.0,1013.0,1020.0,1024.0,1019.0,1027.0,1021.0,1025.0,1013.0,1020.0,1023.0,1019.0,1026.0,1021.0,1023.0,1012.0,1020.0,1024.0,1019.0,1026.0,1020.0,1024.0,1012.0,1024.0,1019.0,1026.0,1020.0,1022.0,1012.0,1024.0,1019.0,1026.0,1021.0,1024.0,1013.0,1025.0,1019.0,1028.0,1021.0,1024.0,1014.0,1024.0,1018.0,1026.0,1021.0,1023.0,1013.0,1026.0,1020.0,1028.0,1021.0,1025.0,1015.0,1024.0,1019.0,1028.0,1021.0,1024.0,1014.0,1026.0,1020.0,1028.0,1021.0,1024.0,1016.0,1025.0,1020.0,1029.0,1022.0,1025.0,1017.0,1027.0,1022.0,1030.0,1022.0,1025.0,1019.0,1029.0,1023.0,1033.0,1022.0,1026.0,1023.0,1031.0,1024.0,1033.0,1022.0,1025.0,1024.0,1041.0,1032.0,1046.0,1024.0,1030.0,1106.0,1037.0,1030.0,1044.0,1024.0,1030.0,2274,2231,1902,	00:32:33.416,-0.0068359375,0.0458984375,1.021484375,0.1220703125,0.42724609375,0.244140625,2.559814453125,0.37353515625,-37.9193115234375,45.0,-478.0,-4148.0,-0.94549560546875,-0.022216796875,0.004180908203125,0.32489013671875,2.561725709473439,0.37496627100859115,-42.39185850588637,-0.9320850902836536,-0.02202387353647628,0.005031954667829281,0.3615342485817678,1,	00:32:33.417,0.03173828125,0.07861328125,1.01513671875,2.25830078125,-0.6103515625,0.1220703125,4.4659423828125,-1.7578125,133.319091796875,-81.0,680.0,-1779.0,0.395294189453125,0.02947998046875,0.029693603515625,0.9176025390625,4.464295274220167,-1.755448637529961,126.19969866437634,0.4515086302377181,0.03127035203162986,0.027804594415169925,0.8912850421913774,1
1782117462.553711,0.406,1020.0,1025.0,1019.0,1022.0,1018.0,1026.0,1020.0,1021.0,1011.0,1023.0,1018.0,1026.0,1020.0,1022.0,1010.0,1019.0,1023.0,1018.0,1026.0,1020.0,1022.0,1011.0,1020.0,1020.0,1023.0,1019.0,1026.0,1020.0,1022.0,1010.0,1020.0,1020.0,1021.0,1023.0,1018.0,1028.0,1020.0,1022.0,1011.0,1020.0,1020.0,1021.0,1023.0,1018.0,1027.0,1020.0,1022.0,1011.0,1020.0,1019.0,1020.0,1019.0,1023.0,1018.0,1027.0,1021.0,1021.0,1011.0,1019.0,1019.0,1020.0,1019.0,1024.0,1019.0,1026.0,1021.0,1022.0,1011.0,1020.0,1020.0,1021.0,1020.0,1023.0,1017.0,1027.0,1020.0,1022.0,1011.0,1020.0,1019.0,1021.0,1020.0,1023.0,1018.0,1027.0,1021.0,1022.0,1011.0,1019.0,1019.0,1020.0,1019.0,1024.0,1018.0,1027.0,1021.0,1022.0,1011.0,1020.0,1019.0,1021.0,1020.0,1024.0,1018.0,1028.0,1021.0,1022.0,1011.0,1020.0,1020.0,1021.0,1020.0,1024.0,1017.0,1028.0,1021.0,1024.0,1013.0,1021.0,1022.0,1024.0,1025.0,1017.0,1029.0,1021.0,1024.0,1012.0,1020.0,1021.0,1024.0,1017.0,1028.0,1021.0,1024.0,1012.0,1020.0,1024.0,1018.0,1028.0,1021.0,1024.0,1013.0,1020.0,1024.0,1018.0,1027.0,1021.0,1023.0,1012.0,1019.0,1024.0,1018.0,1027.0,1020.0,1023.0,1012.0,1024.0,1018.0,1027.0,1020.0,1022.0,1012.0,1025.0,1019.0,1027.0,1021.0,1024.0,1013.0,1025.0,1018.0,1027.0,1021.0,1024.0,1014.0,1024.0,1019.0,1027.0,1020.0,1023.0,1013.0,1026.0,1019.0,1028.0,1022.0,1025.0,1014.0,1025.0,1019.0,1028.0,1021.0,1024.0,1015.0,1026.0,1020.0,1029.0,1021.0,1025.0,1016.0,1025.0,1020.0,1030.0,1022.0,1025.0,1017.0,1027.0,1021.0,1030.0,1021.0,1025.0,1019.0,1029.0,1022.0,1032.0,1022.0,1026.0,1023.0,1030.0,1024.0,1032.0,1022.0,1026.0,1024.0,1040.0,1032.0,1046.0,1024.0,1031.0,1106.0,1037.0,1031.0,1044.0,1024.0,1029.0,2274,2231,1902,	00:32:33.426,-0.00634765625,0.04736328125,1.0205078125,-0.1220703125,0.1220703125,0.244140625,2.647705078125,0.3570556640625,-37.913818359375,44.0,-477.0,-4148.0,-0.945465087890625,-0.02288818359375,0.004547119140625,0.324859619140625,2.6503568148743337,0.3582401839848519,-42.38879003265282,-0.9320791132639712,-0.02269218654744032,0.005447030003014268,0.36150231140463246,1,	00:32:33.427,0.0322265625,0.080078125,1.01904296875,2.38037109375,-0.91552734375,0.06103515625,4.5318603515625,-1.845703125,133.319091796875,-82.0,679.0,-1778.0,0.395263671875,0.030426025390625,0.029937744140625,0.917572021484375,4.533626433939064,-1.8439768473335452,126.19814634849547,0.45146896953301524,0.032232021094694384,0.02799376193418797,0.8912649525577231,1
1782117462.563945,0.417,1021.0,1025.0,1019.0,1022.0,1018.0,1027.0,1020.0,1022.0,1011.0,1023.0,1018.0,1027.0,1020.0,1022.0,1010.0,1020.0,1023.0,1017.0,1027.0,1020.0,1022.0,1010.0,1020.0,1019.0,1024.0,1017.0,1027.0,1020.0,1022.0,1010.0,1020.0,1019.0,1020.0,1023.0,1017.0,1027.0,1020.0,1022.0,1010.0,1020.0,1019.0,1020.0,1024.0,1017.0,1027.0,1020.0,1021.0,1010.0,1020.0,1019.0,1020.0,1019.0,1024.0,1017.0,1027.0,1020.0,1021.0,1010.0,1020.0,1019.0,1020.0,1018.0,1024.0,1018.0,1027.0,1021.0,1022.0,1010.0,1020.0,1020.0,1021.0,1021.0,1024.0,1017.0,1027.0,1021.0,1022.0,1010.0,1020.0,1020.0,1021.0,1019.0,1024.0,1017.0,1028.0,1020.0,1022.0,1010.0,1020.0,1019.0,1020.0,1019.0,1024.0,1018.0,1027.0,1021.0,1023.0,1010.0,1020.0,1020.0,1021.0,1020.0,1024.0,1017.0,1027.0,1020.0,1023.0,1011.0,1020.0,1020.0,1021.0,1020.0,1025.0,1018.0,1028.0,1021.0,1025.0,1012.0,1021.0,1022.0,1024.0,1025.0,1017.0,1029.0,1022.0,1024.0,1012.0,1020.0,1020.0,1025.0,1017.0,1028.0,1021.0,1024.0,1012.0,1020.0,1025.0,1018.0,1027.0,1021.0,1024.0,1013.0,1020.0,1025.0,1018.0,1027.0,1021.0,1023.0,1012.0,1020.0,1025.0,1018.0,1027.0,1020.0,1023.0,1012.0,1025.0,1018.0,1028.0,1021.0,1022.0,1011.0,1025.0,1018.0,1028.0,1021.0,1023.0,1013.0,1025.0,1018.0,1028.0,1021.0,1024.0,1013.0,1024.0,1018.0,1027.0,1021.0,1022.0,1012.0,1026.0,1018.0,1029.0,1022.0,1025.0,1014.0,1025.0,1018.0,1028.0,1022.0,1024.0,1014.0,1026.0,1019.0,1029.0,1022.0,1025.0,1016.0,1026.0,1020.0,1030.0,1021.0,1025.0,1017.0,1028.0,1020.0,1031.0,1022.0,1025.0,1018.0,1029.0,1022.0,1032.0,1022.0,1026.0,1022.0,1031.0,1023.0,1033.0,1022.0,1025.0,1023.0,1042.0,1031.0,1046.0,1025.0,1031.0,1105.0,1037.0,1029.0,1043.0,1025.0,1030.0,2274,2230,1902,	00:32:33.437,-0.0087890625,0.0478515625,1.02001953125,-0.3662109375,-0.18310546875,0.18310546875,2.669677734375,0.4449462890625,-37.913818359375,42.0,-478.0,-4143.0,-0.945465087890625,-0.023284912109375,0.00390625,0.324859619140625,2.6700680304725917,0.44495661938709546,-42.38688460950507,-0.9320723610727683,-0.02312605014651353,0.0048034450538530565,0.3615013505430798,1,	00:32:33.438,0.033203125,0.080078125,1.01806640625,2.38037109375,-0.8544921875,0.06103515625,4.4769287109375,-1.8951416015625,133.319091796875,-82.0,677.0,-1778.0,0.395233154296875,0.0306396484375,0.029296875,0.9176025390625,4.475681161590648,-1.8937998269974858,126.20073512270663,0.451446731133711,0.032390372564268265,0.027347016071136012,0.8912905549964275,1
1782117462.573088,0.426,1021.0,1026.0,1019.0,1022.0,1016.0,1027.0,1020.0,1022.0,1012.0,1023.0,1016.0,1027.0,1020.0,1022.0,1011.0,1019.0,1023.0,1017.0,1027.0,1020.0,1022.0,1010.0,1020.0,1019.0,1023.0,1018.0,1027.0,1020.0,1022.0,1010.0,1020.0,1020.0,1020.0,1023.0,1018.0,1026.0,1020.0,1022.0,1010.0,1019.0,1020.0,1020.0,1023.0,1017.0,1026.0,1020.0,1023.0,1010.0,1020.0,1019.0,1020.0,1019.0,1023.0,1017.0,1026.0,1020.0,1023.0,1009.0,1020.0,1019.0,1020.0,1019.0,1024.0,1017.0,1026.0,1020.0,1023.0,1011.0,1020.0,1020.0,1022.0,1020.0,1024.0,1018.0,1026.0,1020.0,1023.0,1011.0,1020.0,1020.0,1020.0,1019.0,1023.0,1018.0,1026.0,1020.0,1022.0,1011.0,1020.0,1020.0,1020.0,1018.0,1024.0,1017.0,1027.0,1021.0,1022.0,1011.0,1020.0,1020.0,1020.0,1020.0,1024.0,1018.0,1027.0,1020.0,1023.0,1011.0,1020.0,1020.0,1021.0,1020.0,1025.0,1017.0,1027.0,1021.0,1025.0,1013.0,1021.0,1021.0,1024.0,1025.0,1018.0,1028.0,1021.0,1025.0,1013.0,1020.0,1021.0,1025.0,1017.0,1027.0,1021.0,1024.0,1012.0,1020.0,1025.0,1018.0,1028.0,1021.0,1024.0,1012.0,1020.0,1025.0,1018.0,1027.0,1020.0,1023.0,1012.0,1020.0,1024.0,1018.0,1027.0,1021.0,1023.0,1012.0,1024.0,1018.0,1027.0,1020.0,1023.0,1011.0,1025.0,1017.0,1027.0,1020.0,1024.0,1012.0,1025.0,1018.0,1027.0,1021.0,1024.0,1014.0,1024.0,1018.0,1027.0,1020.0,1023.0,1012.0,1025.0,1019.0,1028.0,1021.0,1025.0,1014.0,1025.0,1019.0,1028.0,1021.0,1024.0,1014.0,1025.0,1019.0,1029.0,1021.0,1025.0,1015.0,1026.0,1019.0,1030.0,1022.0,1026.0,1017.0,1027.0,1020.0,1031.0,1021.0,1027.0,1018.0,1029.0,1023.0,1032.0,1022.0,1028.0,1022.0,1030.0,1023.0,1033.0,1023.0,1027.0,1023.0,1040.0,1033.0,1046.0,1024.0,1033.0,1105.0,1037.0,1030.0,1044.0,1024.0,1032.0,2273,2230,1903,	00:32:33.447,-0.00732421875,0.0458984375,1.01708984375,-0.8544921875,-0.6103515625,0.1220703125,2.5762939453125,0.406494140625,-37.913818359375,42.0,-471.0,-4146.0,-0.94549560546875,-0.02239990234375,0.003936767578125,0.3248291015625,2.5759293334349236,0.4062520439087069,-42.386582468400555,-0.9320959120476106,-0.022238294912775416,0.0048212511944133625,0.3614960919849975,1,	00:32:33.448,0.03466796875,0.080078125,1.02197265625,2.0751953125,-0.6103515625,0.18310546875,4.50439453125,-1.988525390625,133.319091796875,-84.0,675.0,-1776.0,0.395172119140625,0.031524658203125,0.029205322265625,0.9176025390625,4.506216996779308,-1.9910921204603487,126.2017342561617,0.4513940434981472,0.033266653816887454,0.02720053150689328,0.8912894469946129,1
1782117462.584115,0.437,1020.0,1027.0,1019.0,1022.0,1017.0,1027.0,1020.0,1023.0,1011.0,1022.0,1017.0,1027.0,1020.0,1022.0,1011.0,1020.0,1022.0,1018.0,1027.0,1020.0,1023.0,1011.0,1020.0,1019.0,1022.0,1017.0,1027.0,1020.0,1022.0,1010.0,1020.0,1019.0,1020.0,1023.0,1017.0,1027.0,1020.0,1022.0,1010.0,1020.0,1020.0,1020.0,1023.0,1017.0,1028.0,1020.0,1022.0,1010.0,1020.0,1019.0,1020.0,1019.0,1022.0,1016.0,1028.0,1020.0,1022.0,1010.0,1020.0,1019.0,1020.0,1019.0,1023.0,1017.0,1028.0,1021.0,1023.0,1010.0,1020.0,1020.0,1021.0,1020.0,1023.0,1017.0,1028.0,1020.0,1022.0,1010.0,1020.0,1020.0,1021.0,1019.0,1022.0,1017.0,1027.0,1020.0,1023.0,1010.0,1020.0,1019.0,1020.0,1019.0,1023.0,1017.0,1028.0,1020.0,1023.0,1010.0,1020.0,1020.0,1021.0,1020.0,1023.0,1017.0,1027.0,1020.0,1023.0,1011.0,1020.0,1019.0,1021.0,1020.0,1023.0,1017.0,1028.0,1020.0,1025.0,1012.0,1020.0,1022.0,1023.0,1024.0,1018.0,1028.0,1021.0,1025.0,1012.0,1020.0,1020.0,1023.0,1017.0,1028.0,1021.0,1024.0,1012.0,1020.0,1023.0,1018.0,1029.0,1021.0,1025.0,1013.0,1020.0,1023.0,1018.0,1028.0,1020.0,1023.0,1012.0,1020.0,1023.0,1018.0,1027.0,1021.0,1023.0,1012.0,1023.0,1018.0,1028.0,1021.0,1023.0,1012.0,1024.0,1018.0,1028.0,1020.0,1024.0,1012.0,1024.0,1018.0,1029.0,1021.0,1024.0,1013.0,1023.0,1018.0,1028.0,1021.0,1023.0,1012.0,1024.0,1020.0,1029.0,1022.0,1025.0,1015.0,1024.0,1018.0,1029.0,1021.0,1024.0,1014.0,1025.0,1019.0,1030.0,1021.0,1025.0,1016.0,1025.0,1019.0,1031.0,1022.0,1026.0,1017.0,1026.0,1020.0,1032.0,1022.0,1026.0,1019.0,1028.0,1021.0,1033.0,1022.0,1027.0,1022.0,1029.0,1023.0,1035.0,1022.0,1026.0,1023.0,1040.0,1032.0,1047.0,1025.0,1031.0,1106.0,1037.0,1031.0,1045.0,1024.0,1031.0,2273,2229,1902,	00:32:33.457,-0.00732421875,0.0478515625,1.01904296875,-1.0986328125,-1.3427734375,0.1220703125,2.65869140625,0.3955078125,-37.913818359375,41.0,-474.0,-4147.0,-0.94549560546875,-0.023040771484375,0.004241943359375,0.3248291015625,2.656432652403799,0.39692246265429515,-42.38532438402335,-0.9320849760009132,-0.022863746793247496,0.005150849651269384,0.3614807261028187,1,	00:32:33.458,0.03173828125,0.08056640625,1.02099609375,1.77001953125,-0.42724609375,0.18310546875,4.5263671875,-1.9061279296875,133.3245849609375,-82.0,677.0,-1777.0,0.39520263671875,0.0308837890625,0.0296630859375,0.9176025390625,4.526249426140952,-1.9038995812314914,126.20315733254702,0.45140979021408933,0.03266750582941828,0.027701132154990524,0.8912882152475082,1
1782117462.595740,0.448,1020.0,1027.0,1018.0,1023.0,1016.0,1028.0,1019.0,1022.0,1010.0,1022.0,1016.0,1028.0,1020.0,1022.0,1010.0,1019.0,1022.0,1017.0,1028.0,1020.0,1023.0,1010.0,1020.0,1020.0,1023.0,1017.0,1028.0,1020.0,1022.0,1010.0,1019.0,1019.0,1020.0,1023.0,1017.0,1028.0,1021.0,1023.0,1010.0,1020.0,1020.0,1021.0,1023.0,1016.0,1028.0,1020.0,1023.0,1010.0,1020.0,1020.0,1020.0,1019.0,1023.0,1016.0,1028.0,1020.0,1023.0,1010.0,1020.0,1019.0,1020.0,1019.0,1023.0,1017.0,1028.0,1020.0,1023.0,1010.0,1019.0,1020.0,1021.0,1020.0,1023.0,1017.0,1028.0,1021.0,1022.0,1011.0,1020.0,1019.0,1020.0,1019.0,1024.0,1017.0,1028.0,1020.0,1022.0,1010.0,1020.0,1019.0,1020.0,1019.0,1023.0,1016.0,1028.0,1020.0,1023.0,1010.0,1020.0,1019.0,1021.0,1019.0,1023.0,1017.0,1028.0,1021.0,1023.0,1011.0,1020.0,1020.0,1021.0,1020.0,1024.0,1018.0,1028.0,1021.0,1025.0,1012.0,1021.0,1022.0,1023.0,1024.0,1017.0,1029.0,1021.0,1025.0,1012.0,1020.0,1020.0,1023.0,1017.0,1029.0,1021.0,1024.0,1012.0,1020.0,1024.0,1017.0,1028.0,1021.0,1025.0,1012.0,1020.0,1024.0,1018.0,1029.0,1021.0,1023.0,1012.0,1020.0,1023.0,1017.0,1029.0,1020.0,1023.0,1012.0,1023.0,1017.0,1028.0,1020.0,1023.0,1012.0,1024.0,1017.0,1029.0,1021.0,1024.0,1011.0,1023.0,1018.0,1029.0,1021.0,1025.0,1013.0,1023.0,1017.0,1029.0,1021.0,1023.0,1012.0,1025.0,1018.0,1030.0,1022.0,1025.0,1014.0,1024.0,1018.0,1030.0,1021.0,1024.0,1014.0,1025.0,1019.0,1031.0,1021.0,1025.0,1015.0,1025.0,1018.0,1032.0,1021.0,1026.0,1017.0,1026.0,1020.0,1033.0,1021.0,1026.0,1018.0,1028.0,1022.0,1035.0,1022.0,1027.0,1023.0,1029.0,1023.0,1036.0,1022.0,1026.0,1023.0,1039.0,1032.0,1048.0,1024.0,1032.0,1105.0,1036.0,1030.0,1045.0,1024.0,1031.0,2273,2228,1902,	00:32:33.467,-0.0078125,0.04736328125,1.02099609375,-1.220703125,-1.220703125,0.1220703125,2.6422119140625,0.4779052734375,-37.913818359375,40.0,-473.0,-4144.0,-0.945465087890625,-0.023162841796875,0.003570556640625,0.3248291015625,2.6432776746490676,0.4763380197600981,-42.38468645359288,-0.9320813670859114,-0.023007178415536903,0.004463216722898426,0.3614900753396951,1,	00:32:33.468,0.0341796875,0.07958984375,1.02099609375,1.46484375,-0.48828125,0.18310546875,4.449462890625,-1.9171142578125,133.330078125,-83.0,677.0,-1777.0,0.395172119140625,0.030731201171875,0.029022216796875,0.917633056640625,4.449938526125899,-1.9190332733877333,126.20762869880771,0.45139109775543923,0.03248346639814742,0.027049079599098202,0.8913244350800339,1
1782117462.605882,0.459,1020.0,1028.0,1019.0,1021.0,1017.0,1029.0,1020.0,1022.0,1010.0,1022.0,1016.0,1029.0,1020.0,1022.0,1010.0,1019.0,1022.0,1017.0,1029.0,1021.0,1022.0,1010.0,1020.0,1019.0,1022.0,1016.0,1028.0,1020.0,1022.0,1010.0,1019.0,1020.0,1020.0,1022.0,1016.0,1029.0,1020.0,1023.0,1010.0,1020.0,1020.0,1021.0,1022.0,1017.0,1029.0,1021.0,1023.0,1011.0,1020.0,1019.0,1020.0,1020.0,1022.0,1016.0,1029.0,1020.0,1023.0,1010.0,1019.0,1019.0,1020.0,1019.0,1022.0,1016.0,1029.0,1020.0,1023.0,1010.0,1020.0,1020.0,1021.0,1020.0,1023.0,1016.0,1029.0,1021.0,1022.0,1010.0,1020.0,1019.0,1021.0,1019.0,1022.0,1016.0,1028.0,1020.0,1022.0,1010.0,1020.0,1019.0,1020.0,1018.0,1023.0,1017.0,1030.0,1021.0,1022.0,1010.0,1020.0,1020.0,1020.0,1019.0,1023.0,1018.0,1030.0,1021.0,1023.0,1010.0,1020.0,1019.0,1021.0,1019.0,1023.0,1018.0,1031.0,1021.0,1025.0,1012.0,1020.0,1021.0,1024.0,1024.0,1018.0,1031.0,1021.0,1025.0,1011.0,1020.0,1020.0,1024.0,1018.0,1030.0,1021.0,1024.0,1012.0,1019.0,1024.0,1017.0,1030.0,1021.0,1024.0,1012.0,1020.0,1023.0,1017.0,1030.0,1021.0,1024.0,1011.0,1020.0,1023.0,1017.0,1030.0,1021.0,1024.0,1011.0,1023.0,1018.0,1029.0,1020.0,1023.0,1011.0,1023.0,1017.0,1029.0,1022.0,1023.0,1012.0,1024.0,1018.0,1030.0,1022.0,1025.0,1013.0,1023.0,1018.0,1030.0,1021.0,1023.0,1012.0,1024.0,1018.0,1030.0,1022.0,1025.0,1014.0,1024.0,1018.0,1031.0,1021.0,1025.0,1014.0,1025.0,1018.0,1031.0,1021.0,1026.0,1015.0,1025.0,1019.0,1031.0,1021.0,1026.0,1016.0,1026.0,1020.0,1033.0,1022.0,1026.0,1018.0,1028.0,1022.0,1035.0,1022.0,1028.0,1022.0,1029.0,1022.0,1035.0,1022.0,1026.0,1022.0,1040.0,1033.0,1048.0,1025.0,1032.0,1106.0,1037.0,1031.0,1045.0,1024.0,1032.0,2272,2228,1902,	00:32:33.478,-0.0078125,0.044921875,1.021484375,-1.28173828125,-1.28173828125,0.18310546875,2.5433349609375,0.4339599609375,-37.9083251953125,39.0,-472.0,-4146.0,-0.94549560546875,-0.022216796875,0.00360107421875,0.3248291015625,2.5429466819055455,0.4364939962392113,-42.384141112477224,-0.9321069541558985,-0.02206546962159637,0.004470725174879938,0.36148271560477524,1,	00:32:33.479,0.03466796875,0.080078125,1.01904296875,1.40380859375,-0.42724609375,0.244140625,4.5428466796875,-1.966552734375,133.3245849609375,-82.0,676.0,-1773.0,0.3951416015625,0.031463623046875,0.02960205078125,0.9176025390625,4.544239016172266,-1.9670450933577923,126.20700265107327,0.4513510598562783,0.033228253064936146,0.027592771644426167,0.891300590663916,1
1782117462.615412,0.468,1020.0,1028.0,1019.0,1022.0,1016.0,1029.0,1020.0,1022.0,1010.0,1023.0,1016.0,1029.0,1020.0,1022.0,1010.0,1019.0,1022.0,1016.0,1028.0,1020.0,1023.0,1010.0,1020.0,1020.0,1022.0,1017.0,1029.0,1020.0,1022.0,1010.0,1019.0,1020.0,1020.0,1023.0,1016.0,1029.0,1021.0,1022.0,1010.0,1020.0,1019.0,1020.0,1023.0,1016.0,1028.0,1020.0,1022.0,1010.0,1020.0,1019.0,1020.0,1019.0,1022.0,1016.0,1029.0,1021.0,1022.0,1010.0,1019.0,1019.0,1020.0,1018.0,1022.0,1016.0,1028.0,1021.0,1023.0,1011.0,1020.0,1020.0,1021.0,1020.0,1022.0,1017.0,1029.0,1021.0,1022.0,1010.0,1020.0,1020.0,1020.0,1019.0,1023.0,1016.0,1029.0,1020.0,1022.0,1010.0,1020.0,1020.0,1020.0,1019.0,1023.0,1016.0,1029.0,1020.0,1022.0,1010.0,1020.0,1020.0,1021.0,1020.0,1023.0,1016.0,1029.0,1021.0,1023.0,1010.0,1020.0,1020.0,1020.0,1020.0,1024.0,1017.0,1029.0,1021.0,1024.0,1011.0,1020.0,1022.0,1023.0,1024.0,1016.0,1029.0,1022.0,1025.0,1012.0,1020.0,1020.0,1024.0,1017.0,1029.0,1021.0,1024.0,1012.0,1019.0,1023.0,1017.0,1030.0,1021.0,1024.0,1012.0,1020.0,1024.0,1017.0,1029.0,1021.0,1023.0,1011.0,1020.0,1023.0,1017.0,1029.0,1020.0,1023.0,1012.0,1024.0,1017.0,1029.0,1020.0,1023.0,1012.0,1024.0,1017.0,1030.0,1021.0,1024.0,1013.0,1024.0,1017.0,1030.0,1021.0,1024.0,1013.0,1024.0,1017.0,1029.0,1021.0,1024.0,1013.0,1025.0,1018.0,1030.0,1023.0,1026.0,1014.0,1024.0,1018.0,1031.0,1022.0,1024.0,1014.0,1024.0,1018.0,1031.0,1022.0,1025.0,1015.0,1024.0,1019.0,1032.0,1022.0,1025.0,1017.0,1026.0,1020.0,1033.0,1022.0,1026.0,1019.0,1028.0,1022.0,1035.0,1023.0,1027.0,1022.0,1029.0,1023.0,1035.0,1022.0,1026.0,1023.0,1039.0,1032.0,1046.0,1025.0,1031.0,1106.0,1035.0,1030.0,1045.0,1024.0,1030.0,2272,2227,1902,	00:32:33.488,-0.0068359375,0.044921875,1.02197265625,-1.0986328125,-1.0986328125,0.1220703125,2.493896484375,0.340576171875,-37.9083251953125,38.0,-471.0,-4143.0,-0.945526123046875,-0.02154541015625,0.004241943359375,0.324798583984375,2.4918921301945094,0.34304612896643355,-42.38367267343196,-0.9321271658347916,-0.021355534808968128,0.005069760108926227,0.3614653308109367,1,	00:32:33.489,0.03515625,0.08056640625,1.01904296875,1.46484375,-0.244140625,0.244140625,4.4659423828125,-1.9775390625,133.330078125,-81.0,674.0,-1778.0,0.395111083984375,0.031280517578125,0.028961181640625,0.917633056640625,4.467915057857814,-1.97995887366047,126.21237299061205,0.4513265249585509,0.03302673723684839,0.02694965899294056,0.8913401810624779,1
1782117462.627087,0.480,1020.0,1028.0,1020.0,1022.0,1015.0,1028.0,1020.0,1022.0,1011.0,1022.0,1016.0,1028.0,1020.0,1022.0,1010.0,1020.0,1022.0,1016.0,1028.0,1020.0,1023.0,1010.0,1020.0,1020.0,1023.0,1016.0,1029.0,1021.0,1022.0,1010.0,1019.0,1020.0,1020.0,1022.0,1016.0,1028.0,1020.0,1023.0,1010.0,1020.0,1020.0,1020.0,1023.0,1016.0,1029.0,1020.0,1022.0,1010.0,1020.0,1019.0,1020.0,1019.0,1023.0,1016.0,1028.0,1021.0,1022.0,1009.0,1019.0,1019.0,1020.0,1018.0,1023.0,1016.0,1029.0,1021.0,1023.0,1010.0,1020.0,1020.0,1021.0,1020.0,1023.0,1016.0,1029.0,1021.0,1022.0,1010.0,1019.0,1019.0,1020.0,1018.0,1023.0,1016.0,1029.0,1021.0,1022.0,1009.0,1019.0,1020.0,1020.0,1019.0,1023.0,1016.0,1029.0,1021.0,1022.0,1010.0,1019.0,1020.0,1021.0,1019.0,1023.0,1016.0,1029.0,1021.0,1023.0,1010.0,1020.0,1020.0,1021.0,1019.0,1024.0,1017.0,1029.0,1022.0,1025.0,1011.0,1020.0,1022.0,1023.0,1024.0,1017.0,1030.0,1022.0,1024.0,1012.0,1020.0,1021.0,1024.0,1016.0,1030.0,1022.0,1023.0,1012.0,1020.0,1024.0,1017.0,1030.0,1022.0,1024.0,1012.0,1020.0,1024.0,1017.0,1029.0,1022.0,1022.0,1011.0,1019.0,1024.0,1016.0,1029.0,1022.0,1023.0,1012.0,1023.0,1017.0,1030.0,1021.0,1022.0,1011.0,1024.0,1017.0,1030.0,1022.0,1023.0,1012.0,1024.0,1017.0,1030.0,1023.0,1024.0,1013.0,1023.0,1017.0,1031.0,1021.0,1022.0,1012.0,1024.0,1018.0,1031.0,1022.0,1024.0,1014.0,1024.0,1018.0,1030.0,1022.0,1024.0,1014.0,1024.0,1018.0,1031.0,1022.0,1024.0,1016.0,1024.0,1018.0,1032.0,1022.0,1024.0,1016.0,1026.0,1019.0,1033.0,1022.0,1025.0,1019.0,1029.0,1022.0,1035.0,1023.0,1025.0,1022.0,1030.0,1023.0,1036.0,1023.0,1025.0,1023.0,1040.0,1033.0,1048.0,1026.0,1031.0,1107.0,1035.0,1030.0,1046.0,1025.0,1031.0,2272,2226,1902,	00:32:33.498,-0.00732421875,0.04541015625,1.01953125,-1.15966796875,-0.91552734375,0.1220703125,2.537841796875,0.4010009765625,-37.9083251953125,38.0,-473.0,-4145.0,-0.945526123046875,-0.0220947265625,0.003875732421875,0.324798583984375,2.5399150759033913,0.4034223094806763,-42.38246895633236,-0.9321161104439661,-0.02193659784054509,0.0047298700098837064,0.3614636505316733,1,	00:32:33.499,0.03466796875,0.08203125,1.017578125,1.52587890625,0.1220703125,0.30517578125,4.5703125,-1.95556640625,133.330078125,-82.0,676.0,-1776.0,0.39508056640625,0.031463623046875,0.02984619140625,0.917633056640625,4.57188089304668,-1.956931055940951,126.21246455566016,0.4513043703664291,0.033257187516244846,0.027849300304059004,0.891315175030272,1
1782117462.635151,0.488,1020.0,1028.0,1020.0,1022.0,1016.0,1029.0,1020.0,1021.0,1011.0,1022.0,1016.0,1029.0,1020.0,1021.0,1010.0,1020.0,1022.0,1017.0,1029.0,1021.0,1022.0,1010.0,1020.0,1020.0,1023.0,1016.0,1029.0,1021.0,1022.0,1010.0,1020.0,1020.0,1019.0,1023.0,1016.0,1029.0,1020.0,1022.0,1011.0,1019.0,1019.0,1020.0,1023.0,1016.0,1029.0,1020.0,1022.0,1010.0,1020.0,1019.0,1020.0,1019.0,1022.0,1016.0,1029.0,1020.0,1022.0,1010.0,1020.0,1019.0,1019.0,1018.0,1024.0,1016.0,1029.0,1020.0,1022.0,1010.0,1020.0,1020.0,1020.0,1020.0,1023.0,1016.0,1029.0,1021.0,1022.0,1011.0,1019.0,1019.0,1020.0,1019.0,1023.0,1016.0,1029.0,1021.0,1022.0,1011.0,1019.0,1019.0,1020.0,1019.0,1023.0,1016.0,1029.0,1021.0,1022.0,1011.0,1019.0,1020.0,1020.0,1019.0,1023.0,1016.0,1029.0,1021.0,1022.0,1011.0,1019.0,1020.0,1020.0,1020.0,1025.0,1016.0,1030.0,1021.0,1025.0,1012.0,1020.0,1021.0,1023.0,1025.0,1017.0,1029.0,1022.0,1024.0,1012.0,1020.0,1020.0,1024.0,1016.0,1030.0,1022.0,1023.0,1012.0,1019.0,1025.0,1017.0,1030.0,1021.0,1023.0,1012.0,1019.0,1024.0,1017.0,1029.0,1021.0,1023.0,1012.0,1019.0,1024.0,1017.0,1029.0,1021.0,1023.0,1012.0,1024.0,1016.0,1029.0,1021.0,1022.0,1011.0,1024.0,1017.0,1029.0,1021.0,1023.0,1012.0,1024.0,1017.0,1029.0,1022.0,1024.0,1013.0,1024.0,1017.0,1030.0,1022.0,1022.0,1012.0,1025.0,1018.0,1030.0,1022.0,1024.0,1014.0,1024.0,1018.0,1030.0,1022.0,1024.0,1014.0,1025.0,1018.0,1032.0,1022.0,1024.0,1016.0,1025.0,1018.0,1032.0,1022.0,1025.0,1016.0,1026.0,1019.0,1032.0,1022.0,1025.0,1018.0,1028.0,1022.0,1035.0,1023.0,1026.0,1023.0,1029.0,1023.0,1035.0,1022.0,1026.0,1024.0,1040.0,1033.0,1048.0,1026.0,1032.0,1108.0,1036.0,1031.0,1047.0,1025.0,1031.0,2271,2225,1902,	00:32:33.508,-0.00537109375,0.0458984375,1.02294921875,-1.220703125,-0.42724609375,0.1220703125,2.5543212890625,0.3131103515625,-37.9083251953125,38.0,-471.0,-4144.0,-0.945526123046875,-0.021942138671875,0.004669189453125,0.32476806640625,2.5527035109298475,0.31089981716909504,-42.38127315082914,-0.9321262752556213,-0.021748941226624973,0.005522625434811294,0.3614375342184447,1,	00:32:33.509,0.03466796875,0.08203125,1.01806640625,1.40380859375,0.42724609375,0.30517578125,4.669189453125,-1.922607421875,133.330078125,-82.0,676.0,-1777.0,0.39508056640625,0.031524658203125,0.030792236328125,0.9176025390625,4.6716305352199905,-1.9211035049808558,126.21294926165305,0.4512852334863377,0.033371433869153234,0.028766782613036165,0.8912914549443368,1
1782117462.645612,0.498,1019.0,1028.0,1020.0,1021.0,1016.0,1029.0,1020.0,1021.0,1011.0,1022.0,1016.0,1028.0,1021.0,1022.0,1011.0,1019.0,1023.0,1017.0,1029.0,1021.0,1022.0,1010.0,1020.0,1019.0,1022.0,1016.0,1028.0,1020.0,1021.0,1011.0,1020.0,1019.0,1020.0,1023.0,1016.0,1029.0,1020.0,1021.0,1010.0,1019.0,1019.0,1020.0,1022.0,1017.0,1029.0,1021.0,1021.0,1010.0,1020.0,1020.0,1020.0,1018.0,1023.0,1016.0,1029.0,1020.0,1021.0,1010.0,1019.0,1019.0,1019.0,1018.0,1023.0,1016.0,1029.0,1021.0,1022.0,1011.0,1020.0,1020.0,1021.0,1020.0,1023.0,1016.0,1029.0,1021.0,1021.0,1011.0,1019.0,1019.0,1020.0,1019.0,1023.0,1016.0,1029.0,1021.0,1021.0,1010.0,1019.0,1019.0,1020.0,1019.0,1023.0,1016.0,1029.0,1021.0,1022.0,1011.0,1020.0,1019.0,1020.0,1019.0,1023.0,1016.0,1029.0,1021.0,1022.0,1011.0,1019.0,1019.0,1021.0,1020.0,1025.0,1017.0,1030.0,1021.0,1024.0,1012.0,1020.0,1021.0,1023.0,1024.0,1017.0,1030.0,1022.0,1024.0,1012.0,1020.0,1020.0,1024.0,1017.0,1029.0,1021.0,1023.0,1012.0,1020.0,1024.0,1016.0,1030.0,1022.0,1024.0,1012.0,1020.0,1023.0,1016.0,1030.0,1022.0,1023.0,1012.0,1019.0,1024.0,1017.0,1030.0,1021.0,1023.0,1012.0,1023.0,1017.0,1029.0,1021.0,1022.0,1012.0,1024.0,1017.0,1030.0,1021.0,1022.0,1012.0,1024.0,1017.0,1030.0,1022.0,1023.0,1013.0,1024.0,1017.0,1030.0,1021.0,1022.0,1012.0,1025.0,1018.0,1031.0,1022.0,1025.0,1014.0,1024.0,1018.0,1031.0,1022.0,1024.0,1014.0,1025.0,1019.0,1032.0,1023.0,1025.0,1015.0,1025.0,1019.0,1032.0,1022.0,1024.0,1017.0,1026.0,1019.0,1033.0,1022.0,1025.0,1018.0,1029.0,1021.0,1035.0,1023.0,1026.0,1023.0,1030.0,1022.0,1035.0,1022.0,1025.0,1023.0,1041.0,1032.0,1047.0,1026.0,1031.0,1107.0,1037.0,1030.0,1045.0,1025.0,1030.0,2271,2224,1902,	00:32:33.519,-0.00634765625,0.0458984375,1.02099609375,-1.46484375,-0.3662109375,0.1220703125,2.5762939453125,0.3900146484375,-37.9083251953125,37.0,-469.0,-4146.0,-0.945526123046875,-0.022369384765625,0.00408935546875,0.324798583984375,2.5772607866333437,0.3900260622012683,-42.3799871059142,-0.9321180677215807,-0.02219824390488011,0.004956165209797772,0.3614395969189588,1,	00:32:33.520,0.033203125,0.08203125,1.0185546875,1.3427734375,0.67138671875,0.30517578125,4.6142578125,-1.8511962890625,133.341064453125,-83.0,675.0,-1779.0,0.39508056640625,0.030792236328125,0.03057861328125,0.917633056640625,4.6168145258803595,-1.8537368063618638,126.2187914903848,0.4512811949430994,0.03263046300033797,0.028608101332880196,0.8913260416442681,1
