Unix_Time_s,RelativeTime_s,P_1,P_2,P_3,P_4,P_5,P_6,P_7,P_8,P_9,P_10,P_11,P_12,P_13,P_14,P_15,P_16,P_17,P_18,P_19,P_20,P_21,P_22,P_23,P_24,P_25,P_26,P_27,P_28,P_29,P_30,P_31,P_32,P_33,P_34,P_35,P_36,P_37,P_38,P_39,P_40,P_41,P_42,P_43,P_44,P_45,P_46,P_47,P_48,P_49,P_50,P_51,P_52,P_53,P_54,P_55,P_56,P_57,P_58,P_59,P_60,P_61,P_62,P_63,P_64,P_65,P_66,P_67,P_68,P_69,P_70,P_71,P_72,P_73,P_74,P_75,P_76,P_77,P_78,P_79,P_80,P_81,P_82,P_83,P_84,P_85,P_86,P_87,P_88,P_89,P_90,P_91,P_92,P_93,P_94,P_95,P_96,P_97,P_98,P_99,P_100,P_101,P_102,P_103,P_104,P_105,P_106,P_107,P_108,P_109,P_110,P_111,P_112,P_113,P_114,P_115,P_116,P_117,P_118,P_119,P_120,P_121,P_122,P_123,P_124,P_125,P_126,P_127,P_128,P_129,P_130,P_131,P_132,P_133,P_134,P_135,P_136,P_137,P_138,P_139,P_140,P_141,P_142,P_143,P_144,P_145,P_146,P_147,P_148,P_149,P_150,P_151,P_152,P_153,P_154,P_155,P_156,P_157,P_158,P_159,P_160,P_161,P_162,P_163,P_164,P_165,P_166,P_167,P_168,P_169,P_170,P_171,P_172,P_173,P_174,P_175,P_176,P_177,P_178,P_179,P_180,P_181,P_182,P_183,P_184,P_185,P_186,P_187,P_188,P_189,P_190,P_191,P_192,P_193,P_194,P_195,P_196,P_197,P_198,P_199,P_200,P_201,P_202,P_203,P_204,P_205,P_206,P_207,P_208,P_209,P_210,P_211,P_212,P_213,P_214,P_215,P_216,P_217,P_218,P_219,P_220,P_221,P_222,P_223,P_224,P_225,P_226,P_227,P_228,P_229,P_230,P_231,P_232,P_233,Flex1,Flex2,Bat,IMU1_RefTime,IMU1_Ax,IMU1_Ay,IMU1_Az,IMU1_Wx,IMU1_Wy,IMU1_Wz,IMU1_Roll,IMU1_Pitch,IMU1_Yaw,IMU1_Hx,IMU1_Hy,IMU1_Hz,IMU1_Q0,IMU1_Q1,IMU1_Q2,IMU1_Q3,IMU2_RefTime,IMU2_Ax,IMU2_Ay,IMU2_Az,IMU2_Wx,IMU2_Wy,IMU2_Wz,IMU2_Roll,IMU2_Pitch,IMU2_Yaw,IMU2_Hx,IMU2_Hy,IMU2_Hz,IMU2_Q0,IMU2_Q1,IMU2_Q2,IMU2_Q3,IMU1_FusedRoll,IMU1_FusedPitch,IMU1_FusedYaw,IMU1_FusedQ0,IMU1_FusedQ1,IMU1_FusedQ2,IMU1_FusedQ3,IMU1_MagValid,IMU2_FusedRoll,IMU2_FusedPitch,IMU2_FusedYaw,IMU2_FusedQ0,IMU2_FusedQ1,IMU2_FusedQ2,IMU2_FusedQ3,IMU2_MagValid
1782117462.158829,0.012,1024.0,1023.0,1024.0,1022.0,1023.0,1023.0,1023.0,1024.0,1023.0,1023.0,1023.0,1023.0,1023.0,1024.0,1023.0,1023.0,1023.0,1024.0,1023.0,1023.0,1024.0,1024.0,1023.0,1022.0,1023.0,1024.0,1023.0,1023.0,1024.0,1024.0,1023.0,1023.0,1022.0,1023.0,1023.0,1023.0,1023.0,1024.0,1024.0,1023.0,1023.0,1022.0,1023.0,1023.0,1023.0,1023.0,1024.0,1024.0,1024.0,1023.0,1022.0,1023.0,1023.0,1023.0,1023.0,1023.0,1024.0,1024.0,1023.0,1022.0,1022.0,1023.0,1022.0,1023.0,1023.0,1023.0,1024.0,1024.0,1023.0,1022.0,1022.0,1024.0,1022.0,1023.0,1023.0,1024.0,1024.0,1024.0,1023.0,1022.0,1022.0,1024.0,1022.0,1024.0,1024.0,1023.0,1024.0,1024.0,1023.0,1023.0,1022.0,1023.0,1023.0,1024.0,1024.0,1024.0,1024.0,1024.0,1023.0,1024.0,1023.0,1023.0,1023.0,1025.0,1024.0,1024.0,1024.0,1024.0,1023.0,1024.0,1023.0,1023.0,1022.0,1024.0,1023.0,1023.0,1024.0,1023.0,1023.0,1021.0,1022.0,1023.0,1023.0,1023.0,1024.0,1024.0,1024.0,1024.0,1023.0,1023.0,1024.0,1023.0,1023.0,1024.0,1023.0,1023.0,1023.0,1024.0,1024.0,1024.0,1025.0,1025.0,1024.0,1023.0,1024.0,1024.0,1024.0,1024.0,1024.0,1024.0,1023.0,1024.0,1024.0,1024.0,1025.0,1024.0,1024.0,1025.0,1024.0,1025.0,1026.0,1025.0,1023.0,1026.0,1025.0,1027.0,1028.0,1026.0,1024.0,1029.0,1027.0,1030.0,1033.0,1029.0,1025.0,1030.0,1029.0,1030.0,1035.0,1030.0,1025.0,1030.0,1030.0,1028.0,1035.0,1030.0,1028.0,1033.0,1032.0,1030.0,1039.0,1032.0,1029.0,1034.0,1034.0,1030.0,1040.0,1032.0,1028.0,1031.0,1031.0,1028.0,1037.0,1030.0,1030.0,1032.0,1031.0,1028.0,1035.0,1029.0,1023.0,1023.0,1023.0,1023.0,1024.0,1022.0,1034.0,1039.0,1035.0,1031.0,1041.0,1033.0,1031.0,1037.0,1035.0,1034.0,1042.0,1033.0,1028.0,1033.0,1030.0,1029.0,1035.0,1952,2010,1909,	00:32:34.940,0.056640625,0.04345703125,1.017578125,-0.244140625,0.18310546875,0.06103515625,2.384033203125,-3.218994140625,55.7171630859375,459.0,-1597.0,-2571.0,0.883270263671875,0.031524658203125,-0.015106201171875,0.467529296875,2.386380436589797,-3.22085751469395,51.10921370577619,0.901370232004015,0.03089954114099521,-0.016369691907807144,0.4316352121886578,1,	00:32:34.941,0.005859375,0.08349609375,1.00439453125,-0.8544921875,-1.15966796875,-0.54931640625,4.713134765625,-0.3460693359375,83.309326171875,-364.0,-1322.0,-1942.0,-0.7464599609375,-0.03271484375,-0.02508544921875,-0.664154052734375,4.714265968224177,-0.34373874757769707,84.66417979660137,-0.7385421400793726,-0.03242235448489921,-0.025481002247571237,-0.6729450325108992,1
1782117462.168673,0.021,1023.0,1023.0,1023.0,1023.0,1024.0,1023.0,1023.0,1024.0,1023.0,1023.0,1024.0,1023.0,1023.0,1024.0,1023.0,1024.0,1022.0,1023.0,1023.0,1023.0,1024.0,1023.0,1023.0,1023.0,1024.0,1023.0,1023.0,1023.0,1023.0,1024.0,1024.0,1023.0,1023.0,1023.0,1024.0,1023.0,1023.0,1024.0,1024.0,1023.0,1024.0,1023.0,1022.0,1023.0,1023.0,1023.0,1024.0,1024.0,1023.0,1022.0,1022.0,1023.0,1023.0,1024.0,1023.0,1023.0,1024.0,1024.0,1023.0,1022.0,1023.0,1023.0,1023.0,1024.0,1023.0,1023.0,1024.0,1024.0,1023.0,1022.0,1022.0,1023.0,1023.0,1023.0,1022.0,1023.0,1024.0,1024.0,1023.0,1022.0,1022.0,1023.0,1023.0,1024.0,1024.0,1023.0,1024.0,1024.0,1023.0,1023.0,1022.0,1023.0,1023.0,1025.0,1024.0,1024.0,1024.0,1025.0,1024.0,1024.0,1023.0,1024.0,1023.0,1025.0,1024.0,1024.0,1024.0,1024.0,1024.0,1023.0,1023.0,1023.0,1022.0,1024.0,1022.0,1023.0,1023.0,1024.0,1023.0,1021.0,1022.0,1023.0,1024.0,1023.0,1024.0,1024.0,1024.0,1023.0,1022.0,1023.0,1024.0,1023.0,1024.0,1024.0,1024.0,1023.0,1023.0,1024.0,1024.0,1024.0,1025.0,1024.0,1024.0,1023.0,1024.0,1024.0,1024.0,1025.0,1024.0,1024.0,1023.0,1024.0,1023.0,1024.0,1024.0,1024.0,1024.0,1025.0,1024.0,1025.0,1026.0,1025.0,1024.0,1027.0,1025.0,1028.0,1028.0,1027.0,1025.0,1029.0,1027.0,1030.0,1032.0,1028.0,1025.0,1030.0,1029.0,1030.0,1034.0,1029.0,1026.0,1030.0,1030.0,1029.0,1035.0,1030.0,1027.0,1033.0,1033.0,1031.0,1039.0,1032.0,1029.0,1034.0,1034.0,1030.0,1039.0,1032.0,1028.0,1032.0,1031.0,1028.0,1037.0,1030.0,1030.0,1032.0,1032.0,1028.0,1035.0,1029.0,1023.0,1024.0,1022.0,1023.0,1024.0,1022.0,1034.0,1039.0,1035.0,1032.0,1040.0,1033.0,1031.0,1038.0,1036.0,1034.0,1041.0,1033.0,1028.0,1033.0,1030.0,1030.0,1034.0,1952,2010,1909,	00:32:34.950,0.05615234375,0.0439453125,1.017578125,-0.30517578125,0.244140625,0.06103515625,2.4554443359375,-3.1640625,55.7171630859375,459.0,-1595.0,-2573.0,0.88330078125,0.031829833984375,-0.014373779296875,0.467529296875,2.4565256906723127,-3.163154009305933,51.10584675438461,0.9013811352692482,0.031234018705597638,-0.015652242118329586,0.4316149816362829,1,	00:32:34.951,0.0048828125,0.08251953125,1.00439453125,-0.79345703125,-1.220703125,-0.54931640625,4.6856689453125,-0.2691650390625,83.3038330078125,-361.0,-1322.0,-1939.0,-0.74652099609375,-0.032073974609375,-0.025421142578125,-0.664093017578125,4.682947813081733,-0.2668551870258309,84.65782121180229,-0.7386080925580701,-0.031770545950086014,-0.025790946065296316,-0.6728919267748869,1
1782117462.178454,0.031,1023.0,1023.0,1024.0,1023.0,1023.0,1022.0,1023.0,1024.0,1022.0,1023.0,1024.0,1023.0,1024.0,1024.0,1023.0,1023.0,1023.0,1024.0,1023.0,1023.0,1024.0,1023.0,1023.0,1022.0,1023.0,1024.0,1023.0,1024.0,1023.0,1024.0,1023.0,1023.0,1022.0,1023.0,1024.0,1024.0,1024.0,1024.0,1024.0,1023.0,1023.0,1022.0,1023.0,1024.0,1023.0,1023.0,1024.0,1024.0,1023.0,1022.0,1022.0,1023.0,1023.0,1023.0,1023.0,1023.0,1023.0,1023.0,1022.0,1022.0,1022.0,1023.0,1023.0,1024.0,1022.0,1023.0,1024.0,1023.0,1023.0,1022.0,1022.0,1023.0,1023.0,1023.0,1023.0,1024.0,1023.0,1023.0,1023.0,1022.0,1022.0,1023.0,1023.0,1024.0,1023.0,1024.0,1024.0,1024.0,1023.0,1023.0,1023.0,1023.0,1023.0,1025.0,1024.0,1024.0,1025.0,1024.0,1024.0,1024.0,1022.0,1023.0,1023.0,1025.0,1023.0,1024.0,1024.0,1024.0,1024.0,1023.0,1022.0,1023.0,1022.0,1024.0,1023.0,1024.0,1023.0,1023.0,1023.0,1021.0,1022.0,1023.0,1024.0,1024.0,1024.0,1024.0,1024.0,1023.0,1023.0,1023.0,1024.0,1023.0,1024.0,1024.0,1023.0,1023.0,1024.0,1025.0,1024.0,1024.0,1024.0,1024.0,1024.0,1023.0,1024.0,1023.0,1024.0,1025.0,1024.0,1024.0,1023.0,1024.0,1024.0,1025.0,1024.0,1024.0,1023.0,1025.0,1024.0,1026.0,1026.0,1025.0,1024.0,1026.0,1025.0,1028.0,1028.0,1026.0,1024.0,1029.0,1027.0,1031.0,1032.0,1029.0,1025.0,1030.0,1030.0,1031.0,1034.0,1029.0,1025.0,1030.0,1030.0,1029.0,1035.0,1030.0,1027.0,1033.0,1033.0,1031.0,1038.0,1032.0,1028.0,1034.0,1035.0,1030.0,1039.0,1032.0,1028.0,1032.0,1032.0,1029.0,1036.0,1030.0,1029.0,1032.0,1032.0,1028.0,1035.0,1029.0,1023.0,1023.0,1022.0,1023.0,1024.0,1022.0,1034.0,1039.0,1035.0,1032.0,1040.0,1033.0,1032.0,1038.0,1037.0,1034.0,1040.0,1033.0,1028.0,1033.0,1031.0,1031.0,1034.0,1952,2010,1909,	00:32:34.960,0.056640625,0.04296875,1.0185546875,-0.30517578125,0.244140625,0.06103515625,2.3675537109375,-3.197021484375,55.72265625,460.0,-1596.0,-2575.0,0.883270263671875,0.031280517578125,-0.014984130859375,0.467559814453125,2.3686135533223576,-3.195796402906153,51.11126765777322,0.9013747466032723,0.030665909267045367,-0.016238824852273105,0.4316473893841236,1,	00:32:34.961,0.00634765625,0.0830078125,1.0048828125,-0.8544921875,-1.15966796875,-0.48828125,4.7076416015625,-0.362548828125,83.29833984375,-363.0,-1321.0,-1940.0,-0.74652099609375,-0.032806396484375,-0.024932861328125,-0.664093017578125,4.7097621002239825,-0.36253978079542015,84.65182108019141,-0.7386110740471543,-0.03250643896314872,-0.025329846975002113,-0.6728710214989698,1
1782117462.189453,0.042,1023.0,1023.0,1024.0,1023.0,1023.0,1023.0,1023.0,1024.0,1023.0,1023.0,1023.0,1023.0,1023.0,1024.0,1023.0,1023.0,1023.0,1023.0,1023.0,1024.0,1023.0,1023.0,1023.0,1022.0,1023.0,1024.0,1023.0,1024.0,1024.0,1023.0,1024.0,1024.0,1022.0,1023.0,1024.0,1024.0,1024.0,1024.0,1024.0,1023.0,1023.0,1023.0,1023.0,1024.0,1023.0,1023.0,1024.0,1023.0,1023.0,1023.0,1022.0,1023.0,1023.0,1024.0,1023.0,1023.0,1023.0,1023.0,1023.0,1022.0,1023.0,1023.0,1023.0,1024.0,1023.0,1024.0,1023.0,1023.0,1023.0,1022.0,1023.0,1023.0,1023.0,1024.0,1023.0,1023.0,1023.0,1023.0,1023.0,1022.0,1022.0,1023.0,1023.0,1024.0,1023.0,1024.0,1024.0,1024.0,1023.0,1023.0,1022.0,1023.0,1023.0,1024.0,1024.0,1024.0,1024.0,1024.0,1024.0,1024.0,1023.0,1024.0,1023.0,1025.0,1024.0,1024.0,1024.0,1024.0,1024.0,1024.0,1023.0,1023.0,1022.0,1024.0,1022.0,1023.0,1024.0,1023.0,1023.0,1021.0,1022.0,1023.0,1024.0,1024.0,1023.0,1024.0,1024.0,1023.0,1023.0,1023.0,1024.0,1023.0,1023.0,1024.0,1024.0,1023.0,1024.0,1025.0,1023.0,1025.0,1024.0,1024.0,1023.0,1023.0,1024.0,1023.0,1024.0,1025.0,1024.0,1024.0,1023.0,1024.0,1024.0,1024.0,1025.0,1024.0,1024.0,1025.0,1024.0,1025.0,1026.0,1025.0,1024.0,1027.0,1025.0,1027.0,1028.0,1027.0,1025.0,1029.0,1028.0,1031.0,1032.0,1029.0,1025.0,1030.0,1029.0,1030.0,1034.0,1029.0,1026.0,1030.0,1030.0,1029.0,1035.0,1030.0,1027.0,1032.0,1033.0,1031.0,1038.0,1032.0,1029.0,1034.0,1035.0,1030.0,1038.0,1032.0,1027.0,1032.0,1032.0,1029.0,1036.0,1030.0,1029.0,1032.0,1032.0,1028.0,1035.0,1029.0,1023.0,1024.0,1023.0,1023.0,1024.0,1021.0,1034.0,1039.0,1035.0,1031.0,1041.0,1033.0,1031.0,1037.0,1037.0,1034.0,1041.0,1033.0,1028.0,1033.0,1030.0,1030.0,1034.0,1952,2009,1909,	00:32:34.971,0.05712890625,0.04296875,1.017578125,-0.30517578125,0.244140625,0.1220703125,2.4554443359375,-3.218994140625,55.7171630859375,460.0,-1598.0,-2572.0,0.883270263671875,0.03204345703125,-0.01483154296875,0.467529296875,2.4533452406449756,-3.2195364745126267,51.10767481141956,0.9013582163038553,0.03142109700342503,-0.016107475908179743,0.43163251706110034,1,	00:32:34.972,0.005859375,0.08251953125,1.00537109375,-0.8544921875,-1.220703125,-0.54931640625,4.6527099609375,-0.296630859375,83.287353515625,-362.0,-1322.0,-1942.0,-0.74658203125,-0.03204345703125,-0.025054931640625,-0.664031982421875,4.654774267641217,-0.29535495042889576,84.64560567686226,-0.7386803575559474,-0.03175898130568707,-0.025438390646617234,-0.6728265636467935,1
1782117462.199448,0.052,1024.0,1024.0,1023.0,1023.0,1023.0,1023.0,1023.0,1024.0,1022.0,1023.0,1024.0,1024.0,1023.0,1024.0,1023.0,1023.0,1023.0,1024.0,1022.0,1023.0,1024.0,1023.0,1023.0,1022.0,1023.0,1024.0,1024.0,1023.0,1024.0,1023.0,1023.0,1023.0,1023.0,1023.0,1024.0,1024.0,1023.0,1024.0,1024.0,1023.0,1023.0,1022.0,1023.0,1024.0,1023.0,1023.0,1024.0,1023.0,1023.0,1023.0,1023.0,1023.0,1023.0,1024.0,1023.0,1023.0,1024.0,1023.0,1023.0,1023.0,1023.0,1023.0,1023.0,1024.0,1023.0,1022.0,1024.0,1023.0,1023.0,1023.0,1022.0,1023.0,1023.0,1023.0,1023.0,1023.0,1024.0,1023.0,1023.0,1022.0,1022.0,1023.0,1023.0,1024.0,1024.0,1023.0,1024.0,1024.0,1023.0,1023.0,1022.0,1023.0,1023.0,1024.0,1023.0,1024.0,1024.0,1024.0,1023.0,1025.0,1023.0,1024.0,1023.0,1025.0,1024.0,1024.0,1024.0,1023.0,1023.0,1023.0,1023.0,1023.0,1023.0,1024.0,1022.0,1024.0,1023.0,1023.0,1023.0,1021.0,1022.0,1023.0,1024.0,1024.0,1023.0,1024.0,1024.0,1023.0,1023.0,1023.0,1024.0,1022.0,1023.0,1024.0,1024.0,1023.0,1024.0,1025.0,1024.0,1024.0,1025.0,1024.0,1024.0,1023.0,1024.0,1024.0,1024.0,1024.0,1024.0,1024.0,1023.0,1024.0,1023.0,1024.0,1024.0,1024.0,1024.0,1025.0,1024.0,1025.0,1026.0,1025.0,1024.0,1026.0,1025.0,1027.0,1028.0,1026.0,1025.0,1030.0,1027.0,1031.0,1032.0,1028.0,1025.0,1030.0,1029.0,1030.0,1034.0,1029.0,1026.0,1031.0,1030.0,1029.0,1035.0,1030.0,1027.0,1033.0,1033.0,1030.0,1039.0,1032.0,1029.0,1034.0,1035.0,1030.0,1039.0,1032.0,1029.0,1031.0,1032.0,1029.0,1036.0,1030.0,1030.0,1032.0,1032.0,1028.0,1035.0,1029.0,1023.0,1024.0,1022.0,1022.0,1024.0,1022.0,1034.0,1039.0,1034.0,1032.0,1040.0,1033.0,1031.0,1039.0,1036.0,1034.0,1042.0,1033.0,1028.0,1034.0,1030.0,1030.0,1034.0,1953,2009,1909,	00:32:34.981,0.05712890625,0.04296875,1.017578125,-0.30517578125,0.244140625,0.06103515625,2.362060546875,-3.197021484375,55.72265625,460.0,-1597.0,-2574.0,0.883270263671875,0.031219482421875,-0.0150146484375,0.467559814453125,2.3614495290020683,-3.1943730577082587,51.11335750932701,0.9013692124650142,0.03060450496487902,-0.016254050182118153,0.43166273055330134,1,	00:32:34.982,0.00537109375,0.0830078125,1.00439453125,-0.8544921875,-1.28173828125,-0.54931640625,4.735107421875,-0.318603515625,83.2818603515625,-363.0,-1323.0,-1938.0,-0.746612548828125,-0.032745361328125,-0.025360107421875,-0.663970947265625,4.736708007472285,-0.3206533882040415,84.63860649115958,-0.738691973626334,-0.03243720837319391,-0.025754372364710162,-0.6727694314674867,1
1782117462.210969,0.064,1024.0,1023.0,1023.0,1023.0,1023.0,1023.0,1023.0,1024.0,1023.0,1022.0,1024.0,1023.0,1023.0,1024.0,1023.0,1023.0,1022.0,1024.0,1023.0,1023.0,1024.0,1023.0,1023.0,1022.0,1023.0,1024.0,1023.0,1023.0,1023.0,1023.0,1023.0,1023.0,1023.0,1023.0,1024.0,1023.0,1023.0,1024.0,1024.0,1023.0,1023.0,1022.0,1022.0,1024.0,1023.0,1023.0,1024.0,1024.0,1023.0,1022.0,1023.0,1023.0,1023.0,1024.0,1023.0,1023.0,1023.0,1023.0,1023.0,1023.0,1023.0,1024.0,1022.0,1024.0,1022.0,1023.0,1023.0,1023.0,1023.0,1022.0,1022.0,1023.0,1022.0,1024.0,1023.0,1023.0,1023.0,1023.0,1023.0,1022.0,1022.0,1023.0,1023.0,1024.0,1024.0,1024.0,1023.0,1024.0,1023.0,1023.0,1022.0,1023.0,1023.0,1025.0,1024.0,1024.0,1024.0,1024.0,1024.0,1024.0,1023.0,1023.0,1023.0,1025.0,1024.0,1024.0,1025.0,1024.0,1024.0,1023.0,1023.0,1023.0,1022.0,1024.0,1023.0,1024.0,1024.0,1023.0,1023.0,1021.0,1021.0,1022.0,1024.0,1024.0,1024.0,1024.0,1024.0,1023.0,1023.0,1023.0,1024.0,1023.0,1024.0,1024.0,1023.0,1023.0,1023.0,1025.0,1024.0,1024.0,1025.0,1024.0,1024.0,1024.0,1024.0,1024.0,1024.0,1024.0,1024.0,1024.0,1023.0,1024.0,1024.0,1024.0,1025.0,1024.0,1023.0,1025.0,1023.0,1025.0,1026.0,1025.0,1024.0,1027.0,1025.0,1028.0,1028.0,1026.0,1024.0,1030.0,1028.0,1030.0,1032.0,1029.0,1025.0,1031.0,1029.0,1031.0,1035.0,1029.0,1026.0,1030.0,1029.0,1029.0,1035.0,1030.0,1028.0,1033.0,1033.0,1031.0,1038.0,1032.0,1029.0,1034.0,1034.0,1030.0,1039.0,1032.0,1029.0,1032.0,1032.0,1029.0,1037.0,1030.0,1030.0,1032.0,1032.0,1029.0,1035.0,1029.0,1023.0,1024.0,1023.0,1023.0,1024.0,1022.0,1036.0,1040.0,1035.0,1032.0,1040.0,1033.0,1032.0,1037.0,1036.0,1034.0,1041.0,1033.0,1029.0,1032.0,1030.0,1030.0,1034.0,1953,2009,1909,	00:32:34.991,0.05712890625,0.04345703125,1.017578125,-0.3662109375,0.244140625,0.06103515625,2.449951171875,-3.2080078125,55.7171630859375,459.0,-1597.0,-2574.0,0.883270263671875,0.031951904296875,-0.0147705078125,0.467529296875,2.447808752977304,-3.2091603803632767,51.10903938551111,0.9013577179702278,0.03133875325443854,-0.016046293301607176,0.43164182289398173,1,	00:32:34.992,0.0048828125,0.0830078125,1.00341796875,-0.8544921875,-1.28173828125,-0.54931640625,4.713134765625,-0.24169921875,83.2763671875,-362.0,-1322.0,-1937.0,-0.746673583984375,-0.032135009765625,-0.025726318359375,-0.6639404296875,4.712006189891918,-0.24275973551969232,84.63214729353005,-0.7387569166350476,-0.03182223317821546,-0.02610978339838894,-0.6727137896686212,1
1782117462.219965,0.073,1023.0,1024.0,1024.0,1023.0,1024.0,1023.0,1023.0,1024.0,1022.0,1023.0,1023.0,1023.0,1023.0,1024.0,1023.0,1024.0,1023.0,1023.0,1023.0,1023.0,1023.0,1023.0,1023.0,1022.0,1023.0,1024.0,1023.0,1024.0,1024.0,1023.0,1023.0,1023.0,1022.0,1022.0,1024.0,1024.0,1024.0,1024.0,1024.0,1022.0,1023.0,1022.0,1023.0,1024.0,1023.0,1023.0,1024.0,1023.0,1024.0,1023.0,1022.0,1023.0,1023.0,1024.0,1023.0,1023.0,1024.0,1023.0,1023.0,1022.0,1022.0,1023.0,1022.0,1023.0,1023.0,1024.0,1023.0,1023.0,1023.0,1022.0,1022.0,1023.0,1023.0,1023.0,1023.0,1023.0,1024.0,1023.0,1022.0,1022.0,1022.0,1023.0,1022.0,1024.0,1023.0,1023.0,1024.0,1023.0,1023.0,1023.0,1022.0,1023.0,1023.0,1025.0,1024.0,1024.0,1024.0,1024.0,1024.0,1024.0,1023.0,1023.0,1023.0,1025.0,1023.0,1024.0,1025.0,1023.0,1024.0,1024.0,1023.0,1023.0,1022.0,1024.0,1023.0,1023.0,1024.0,1023.0,1022.0,1021.0,1022.0,1022.0,1024.0,1023.0,1024.0,1024.0,1023.0,1023.0,1023.0,1023.0,1024.0,1023.0,1023.0,1024.0,1024.0,1023.0,1024.0,1024.0,1024.0,1024.0,1025.0,1024.0,1024.0,1023.0,1024.0,1024.0,1024.0,1024.0,1024.0,1024.0,1023.0,1024.0,1023.0,1024.0,1025.0,1024.0,1023.0,1025.0,1024.0,1025.0,1026.0,1025.0,1024.0,1027.0,1025.0,1027.0,1028.0,1025.0,1024.0,1030.0,1027.0,1030.0,1032.0,1028.0,1025.0,1031.0,1029.0,1030.0,1034.0,1029.0,1026.0,1030.0,1030.0,1029.0,1035.0,1029.0,1027.0,1033.0,1032.0,1031.0,1039.0,1032.0,1028.0,1034.0,1034.0,1031.0,1039.0,1031.0,1028.0,1031.0,1032.0,1029.0,1037.0,1030.0,1029.0,1032.0,1032.0,1029.0,1035.0,1029.0,1022.0,1023.0,1023.0,1023.0,1024.0,1022.0,1034.0,1039.0,1036.0,1033.0,1040.0,1033.0,1031.0,1038.0,1037.0,1036.0,1041.0,1033.0,1028.0,1033.0,1031.0,1031.0,1034.0,1953,2009,1909,	00:32:35.001,0.0576171875,0.04248046875,1.017578125,-0.30517578125,0.244140625,0.1220703125,2.362060546875,-3.2464599609375,55.72265625,459.0,-1597.0,-2573.0,0.883270263671875,0.031463623046875,-0.015411376953125,0.46759033203125,2.3626544915931125,-3.247948721727682,51.114986152533774,0.9013467463072051,0.030815549834099367,-0.016670725458705984,0.43167873670418067,1,	00:32:35.002,0.005859375,0.0830078125,1.00390625,-0.8544921875,-1.28173828125,-0.54931640625,4.7186279296875,-0.3460693359375,83.2708740234375,-362.0,-1322.0,-1937.0,-0.746673583984375,-0.03277587890625,-0.02508544921875,-0.663909912109375,4.718220880106935,-0.3455495007087779,84.62555182077578,-0.7387673502503112,-0.03246706620765399,-0.02548161179053821,-0.6726956067022875,1
1782117462.230094,0.083,1023.0,1024.0,1023.0,1022.0,1023.0,1023.0,1023.0,1023.0,1022.0,1023.0,1023.0,1024.0,1023.0,1024.0,1023.0,1023.0,1023.0,1024.0,1023.0,1024.0,1023.0,1023.0,1023.0,1023.0,1022.0,1024.0,1023.0,1023.0,1024.0,1023.0,1024.0,1023.0,1023.0,1023.0,1024.0,1024.0,1024.0,1023.0,1023.0,1023.0,1023.0,1022.0,1023.0,1024.0,1023.0,1023.0,1024.0,1024.0,1023.0,1022.0,1022.0,1023.0,1023.0,1024.0,1023.0,1023.0,1024.0,1023.0,1023.0,1022.0,1023.0,1023.0,1023.0,1023.0,1023.0,1023.0,1024.0,1023.0,1023.0,1022.0,1022.0,1023.0,1023.0,1023.0,1023.0,1023.0,1023.0,1023.0,1023.0,1022.0,1023.0,1023.0,1023.0,1024.0,1023.0,1024.0,1024.0,1024.0,1023.0,1023.0,1022.0,1023.0,1023.0,1024.0,1024.0,1024.0,1024.0,1024.0,1024.0,1024.0,1023.0,1024.0,1023.0,1025.0,1024.0,1024.0,1024.0,1024.0,1024.0,1023.0,1023.0,1024.0,1022.0,1023.0,1022.0,1023.0,1024.0,1023.0,1023.0,1021.0,1022.0,1022.0,1024.0,1023.0,1023.0,1024.0,1024.0,1024.0,1023.0,1022.0,1024.0,1023.0,1024.0,1024.0,1023.0,1023.0,1024.0,1024.0,1024.0,1024.0,1025.0,1024.0,1024.0,1023.0,1024.0,1024.0,1024.0,1025.0,1024.0,1024.0,1023.0,1024.0,1023.0,1024.0,1025.0,1024.0,1023.0,1024.0,1024.0,1025.0,1026.0,1025.0,1024.0,1027.0,1025.0,1027.0,1028.0,1026.0,1025.0,1030.0,1028.0,1031.0,1032.0,1028.0,1025.0,1030.0,1029.0,1030.0,1035.0,1029.0,1025.0,1030.0,1030.0,1029.0,1035.0,1029.0,1027.0,1033.0,1034.0,1031.0,1039.0,1031.0,1029.0,1034.0,1035.0,1030.0,1040.0,1031.0,1028.0,1032.0,1033.0,1029.0,1037.0,1030.0,1030.0,1032.0,1032.0,1029.0,1035.0,1028.0,1023.0,1024.0,1022.0,1023.0,1024.0,1022.0,1035.0,1039.0,1036.0,1032.0,1040.0,1033.0,1032.0,1038.0,1037.0,1034.0,1042.0,1032.0,1029.0,1033.0,1030.0,1030.0,1035.0,1953,2009,1909,	00:32:35.012,0.05712890625,0.04248046875,1.01708984375,-0.30517578125,0.18310546875,0.06103515625,2.4169921875,-3.175048828125,55.72265625,460.0,-1600.0,-2573.0,0.883270263671875,0.031585693359375,-0.014617919921875,0.467559814453125,2.417232040262385,-3.174826293390049,51.11244004037915,0.901363490429107,0.030969702558903252,-0.015890327605279118,0.43166217477729857,1,	00:32:35.013,0.005859375,0.08349609375,1.00341796875,-0.79345703125,-1.3427734375,-0.48828125,4.7955322265625,-0.32958984375,83.265380859375,-363.0,-1323.0,-1937.0,-0.7467041015625,-0.033203125,-0.025634765625,-0.663848876953125,4.797497167226291,-0.331054220453203,84.61906559132592,-0.7387866263394255,-0.032894556315290924,-0.026038594360881347,-0.6726323368011232,1
1782117462.241094,0.094,1023.0,1023.0,1024.0,1022.0,1023.0,1023.0,1024.0,1024.0,1022.0,1024.0,1023.0,1023.0,1023.0,1024.0,1022.0,1023.0,1023.0,1023.0,1023.0,1023.0,1024.0,1023.0,1023.0,1022.0,1023.0,1024.0,1023.0,1024.0,1024.0,1023.0,1023.0,1023.0,1023.0,1022.0,1024.0,1023.0,1023.0,1024.0,1023.0,1024.0,1023.0,1023.0,1023.0,1023.0,1023.0,1023.0,1024.0,1023.0,1024.0,1023.0,1022.0,1023.0,1023.0,1024.0,1023.0,1024.0,1024.0,1023.0,1023.0,1022.0,1023.0,1023.0,1023.0,1024.0,1023.0,1023.0,1024.0,1023.0,1023.0,1022.0,1022.0,1023.0,1022.0,1023.0,1022.0,1023.0,1024.0,1024.0,1023.0,1022.0,1022.0,1023.0,1023.0,1024.0,1023.0,1023.0,1023.0,1023.0,1023.0,1024.0,1023.0,1023.0,1023.0,1024.0,1024.0,1024.0,1024.0,1024.0,1024.0,1024.0,1023.0,1023.0,1023.0,1024.0,1024.0,1024.0,1024.0,1024.0,1024.0,1023.0,1023.0,1024.0,1022.0,1024.0,1023.0,1023.0,1024.0,1023.0,1023.0,1021.0,1022.0,1022.0,1024.0,1023.0,1023.0,1024.0,1023.0,1023.0,1022.0,1023.0,1024.0,1023.0,1024.0,1024.0,1023.0,1024.0,1023.0,1025.0,1024.0,1024.0,1025.0,1024.0,1024.0,1023.0,1024.0,1024.0,1024.0,1024.0,1024.0,1024.0,1023.0,1024.0,1023.0,1024.0,1025.0,1024.0,1024.0,1025.0,1024.0,1024.0,1026.0,1025.0,1024.0,1027.0,1026.0,1027.0,1028.0,1027.0,1024.0,1029.0,1028.0,1031.0,1032.0,1029.0,1025.0,1030.0,1030.0,1030.0,1035.0,1029.0,1026.0,1031.0,1029.0,1029.0,1034.0,1029.0,1027.0,1033.0,1034.0,1030.0,1038.0,1032.0,1028.0,1034.0,1035.0,1030.0,1040.0,1032.0,1028.0,1031.0,1032.0,1029.0,1037.0,1030.0,1029.0,1032.0,1032.0,1028.0,1036.0,1029.0,1023.0,1024.0,1022.0,1023.0,1024.0,1022.0,1034.0,1039.0,1036.0,1032.0,1041.0,1033.0,1032.0,1038.0,1036.0,1035.0,1041.0,1032.0,1028.0,1034.0,1031.0,1030.0,1034.0,1953,2009,1909,	00:32:35.022,0.0576171875,0.04296875,1.01708984375,-0.30517578125,0.244140625,0.0,2.4169921875,-3.262939453125,55.72265625,459.0,-1596.0,-2572.0,0.88323974609375,0.031951904296875,-0.01531982421875,0.467559814453125,2.416852682927951,-3.263871016724081,51.112395143687806,0.9013370072066227,0.031301311722148756,-0.01659257093042513,0.4316671332336992,1,	00:32:35.023,0.00537109375,0.0830078125,1.0048828125,-0.8544921875,-1.3427734375,-0.54931640625,4.7021484375,-0.3131103515625,83.2598876953125,-363.0,-1322.0,-1938.0,-0.74676513671875,-0.032501220703125,-0.02520751953125,-0.663818359375,4.702555218639758,-0.31432062996599913,84.61295366829484,-0.7388538390520154,-0.03218560574743088,-0.025587486878177353,-0.6726101187285459,1
1782117462.251452,0.104,1024.0,1023.0,1023.0,1022.0,1023.0,1022.0,1023.0,1024.0,1022.0,1023.0,1023.0,1023.0,1023.0,1024.0,1023.0,1023.0,1023.0,1024.0,1023.0,1023.0,1024.0,1023.0,1023.0,1022.0,1023.0,1024.0,1023.0,1023.0,1024.0,1024.0,1023.0,1023.0,1022.0,1023.0,1024.0,1024.0,1024.0,1024.0,1024.0,1023.0,1023.0,1022.0,1023.0,1024.0,1023.0,1023.0,1024.0,1023.0,1023.0,1022.0,1022.0,1023.0,1023.0,1024.0,1023.0,1023.0,1023.0,1023.0,1023.0,1023.0,1022.0,1023.0,1023.0,1024.0,1022.0,1023.0,1024.0,1022.0,1023.0,1022.0,1022.0,1024.0,1023.0,1024.0,1023.0,1023.0,1024.0,1023.0,1023.0,1022.0,1022.0,1023.0,1023.0,1024.0,1024.0,1024.0,1024.0,1023.0,1024.0,1023.0,1022.0,1023.0,1023.0,1024.0,1024.0,1024.0,1024.0,1024.0,1023.0,1024.0,1023.0,1024.0,1023.0,1025.0,1024.0,1024.0,1024.0,1024.0,1024.0,1024.0,1023.0,1023.0,1023.0,1024.0,1022.0,1023.0,1024.0,1022.0,1023.0,1021.0,1022.0,1023.0,1024.0,1023.0,1024.0,1024.0,1024.0,1023.0,1023.0,1023.0,1024.0,1023.0,1024.0,1024.0,1023.0,1023.0,1024.0,1025.0,1024.0,1024.0,1025.0,1024.0,1024.0,1023.0,1024.0,1024.0,1024.0,1025.0,1024.0,1024.0,1023.0,1024.0,1023.0,1024.0,1025.0,1024.0,1023.0,1025.0,1024.0,1025.0,1027.0,1024.0,1024.0,1026.0,1025.0,1027.0,1029.0,1026.0,1024.0,1029.0,1027.0,1030.0,1032.0,1029.0,1025.0,1030.0,1029.0,1030.0,1035.0,1029.0,1025.0,1030.0,1030.0,1030.0,1036.0,1030.0,1026.0,1033.0,1033.0,1031.0,1039.0,1031.0,1028.0,1034.0,1034.0,1031.0,1041.0,1032.0,1028.0,1031.0,1031.0,1029.0,1037.0,1029.0,1030.0,1033.0,1031.0,1029.0,1035.0,1028.0,1022.0,1023.0,1023.0,1023.0,1024.0,1022.0,1034.0,1039.0,1036.0,1033.0,1040.0,1033.0,1032.0,1038.0,1037.0,1034.0,1042.0,1033.0,1028.0,1033.0,1030.0,1031.0,1035.0,1953,2009,1909,	00:32:35.032,0.056640625,0.0419921875,1.017578125,-0.244140625,0.18310546875,0.06103515625,2.362060546875,-3.18603515625,55.7281494140625,459.0,-1598.0,-2571.0,0.883270263671875,0.031219482421875,-0.014923095703125,0.46759033203125,2.363613113629516,-3.185943704330439,51.11593710475747,0.9013614181155923,0.03059021086958658,-0.016178870213337988,0.43168284317334493,1,	00:32:35.034,0.00537109375,0.0830078125,1.00439453125,-0.8544921875,-1.3427734375,-0.54931640625,4.779052734375,-0.2911376953125,83.2489013671875,-361.0,-1323.0,-1944.0,-0.746795654296875,-0.032867431640625,-0.025787353515625,-0.66375732421875,4.778642692742404,-0.2925918081603413,84.60592878149582,-0.7388792279624146,-0.03255028814088836,-0.02617221707743635,-0.6725421773248597,1
1782117462.261691,0.114,1023.0,1024.0,1024.0,1023.0,1024.0,1023.0,1023.0,1024.0,1022.0,1023.0,1024.0,1023.0,1024.0,1024.0,1023.0,1023.0,1023.0,1024.0,1023.0,1023.0,1024.0,1023.0,1023.0,1022.0,1023.0,1024.0,1023.0,1023.0,1024.0,1023.0,1024.0,1023.0,1022.0,1023.0,1023.0,1023.0,1024.0,1024.0,1023.0,1023.0,1023.0,1023.0,1023.0,1024.0,1023.0,1023.0,1024.0,1023.0,1023.0,1023.0,1023.0,1023.0,1023.0,1023.0,1023.0,1023.0,1024.0,1023.0,1023.0,1022.0,1022.0,1023.0,1023.0,1024.0,1023.0,1024.0,1024.0,1023.0,1023.0,1022.0,1022.0,1023.0,1022.0,1024.0,1023.0,1023.0,1024.0,1023.0,1023.0,1022.0,1023.0,1023.0,1023.0,1024.0,1024.0,1024.0,1024.0,1024.0,1023.0,1023.0,1022.0,1023.0,1023.0,1025.0,1024.0,1023.0,1024.0,1024.0,1024.0,1024.0,1024.0,1024.0,1023.0,1025.0,1024.0,1024.0,1024.0,1023.0,1024.0,1024.0,1023.0,1023.0,1022.0,1024.0,1022.0,1023.0,1024.0,1023.0,1023.0,1021.0,1022.0,1023.0,1024.0,1024.0,1023.0,1024.0,1024.0,1023.0,1023.0,1023.0,1024.0,1023.0,1024.0,1024.0,1023.0,1023.0,1023.0,1025.0,1024.0,1024.0,1025.0,1024.0,1024.0,1023.0,1024.0,1024.0,1024.0,1025.0,1023.0,1024.0,1023.0,1024.0,1024.0,1024.0,1025.0,1024.0,1024.0,1025.0,1024.0,1025.0,1026.0,1025.0,1024.0,1026.0,1026.0,1027.0,1028.0,1026.0,1025.0,1029.0,1028.0,1031.0,1033.0,1029.0,1025.0,1030.0,1030.0,1031.0,1035.0,1029.0,1025.0,1030.0,1030.0,1029.0,1035.0,1029.0,1027.0,1032.0,1034.0,1030.0,1039.0,1031.0,1028.0,1033.0,1036.0,1031.0,1040.0,1031.0,1028.0,1031.0,1033.0,1028.0,1037.0,1029.0,1030.0,1031.0,1033.0,1029.0,1035.0,1029.0,1023.0,1023.0,1023.0,1023.0,1024.0,1022.0,1034.0,1039.0,1037.0,1032.0,1041.0,1033.0,1031.0,1037.0,1037.0,1034.0,1042.0,1033.0,1028.0,1033.0,1031.0,1031.0,1035.0,1953,2009,1909,	00:32:35.043,0.0576171875,0.04296875,1.01806640625,-0.30517578125,0.18310546875,0.06103515625,2.427978515625,-3.2464599609375,55.72265625,458.0,-1597.0,-2576.0,0.88323974609375,0.031951904296875,-0.01513671875,0.467559814453125,2.4269885984252473,-3.247072078920123,51.11289581163216,0.9013374437080259,0.03131798618064969,-0.016422041366195874,0.4316715335400711,1,	00:32:35.044,0.005859375,0.0830078125,1.00439453125,-0.8544921875,-1.3427734375,-0.54931640625,4.6966552734375,-0.362548828125,83.243408203125,-363.0,-1322.0,-1938.0,-0.746826171875,-0.03271484375,-0.024871826171875,-0.66375732421875,4.696858271977101,-0.36030759024862224,84.59975818257826,-0.7389209459841768,-0.032421639320642584,-0.02525374033735842,-0.6725376729140047,1
1782117462.270930,0.124,1023.0,1024.0,1023.0,1022.0,1023.0,1023.0,1023.0,1024.0,1023.0,1023.0,1024.0,1024.0,1023.0,1024.0,1023.0,1023.0,1023.0,1024.0,1023.0,1023.0,1024.0,1023.0,1023.0,1022.0,1023.0,1024.0,1023.0,1023.0,1024.0,1024.0,1023.0,1023.0,1022.0,1023.0,1024.0,1023.0,1023.0,1024.0,1023.0,1023.0,1023.0,1023.0,1023.0,1024.0,1023.0,1023.0,1024.0,1023.0,1023.0,1022.0,1022.0,1023.0,1023.0,1023.0,1023.0,1024.0,1024.0,1023.0,1023.0,1022.0,1023.0,1023.0,1023.0,1024.0,1023.0,1023.0,1024.0,1023.0,1023.0,1022.0,1023.0,1023.0,1023.0,1023.0,1023.0,1023.0,1023.0,1023.0,1023.0,1022.0,1023.0,1023.0,1023.0,1024.0,1024.0,1023.0,1024.0,1024.0,1024.0,1023.0,1023.0,1023.0,1023.0,1025.0,1024.0,1024.0,1024.0,1023.0,1024.0,1024.0,1023.0,1023.0,1024.0,1025.0,1024.0,1024.0,1024.0,1024.0,1024.0,1024.0,1023.0,1023.0,1022.0,1023.0,1023.0,1023.0,1024.0,1023.0,1022.0,1022.0,1022.0,1023.0,1024.0,1023.0,1024.0,1024.0,1023.0,1023.0,1023.0,1023.0,1024.0,1024.0,1023.0,1024.0,1023.0,1023.0,1023.0,1025.0,1024.0,1024.0,1025.0,1024.0,1024.0,1023.0,1024.0,1024.0,1024.0,1024.0,1024.0,1024.0,1023.0,1024.0,1024.0,1024.0,1024.0,1024.0,1023.0,1025.0,1024.0,1025.0,1026.0,1024.0,1024.0,1027.0,1025.0,1026.0,1028.0,1026.0,1025.0,1029.0,1028.0,1031.0,1032.0,1029.0,1025.0,1029.0,1030.0,1031.0,1035.0,1028.0,1026.0,1030.0,1030.0,1030.0,1036.0,1029.0,1027.0,1033.0,1033.0,1031.0,1040.0,1031.0,1029.0,1034.0,1034.0,1031.0,1040.0,1031.0,1028.0,1032.0,1032.0,1029.0,1038.0,1029.0,1030.0,1031.0,1032.0,1029.0,1036.0,1029.0,1023.0,1024.0,1023.0,1023.0,1024.0,1022.0,1034.0,1039.0,1036.0,1032.0,1041.0,1033.0,1031.0,1038.0,1037.0,1034.0,1042.0,1033.0,1028.0,1033.0,1031.0,1031.0,1035.0,1952,2008,1909,	00:32:35.053,0.0576171875,0.0439453125,1.017578125,-0.30517578125,0.244140625,0.06103515625,2.515869140625,-3.2244873046875,55.7171630859375,459.0,-1599.0,-2571.0,0.88323974609375,0.03253173828125,-0.0146484375,0.467559814453125,2.513816536081355,-3.226326469270707,51.10853259046547,0.9013362150311952,0.03192237952767704,-0.015932896688560013,0.43164815760251035,1,	00:32:35.054,0.0048828125,0.08349609375,1.0048828125,-0.91552734375,-1.40380859375,-0.54931640625,4.735107421875,-0.296630859375,83.2379150390625,-361.0,-1323.0,-1938.0,-0.746856689453125,-0.032623291015625,-0.0255126953125,-0.663665771484375,4.73707211355728,-0.2966619861846218,84.59284618740794,-0.7389667108374087,-0.032309081247547194,-0.02589829786412952,-0.6724682904872331,1
1782117462.281437,0.134,1023.0,1023.0,1024.0,1023.0,1023.0,1023.0,1023.0,1024.0,1022.0,1023.0,1024.0,1024.0,1023.0,1024.0,1023.0,1023.0,1023.0,1024.0,1023.0,1023.0,1024.0,1023.0,1023.0,1023.0,1023.0,1024.0,1023.0,1023.0,1024.0,1023.0,1024.0,1024.0,1022.0,1023.0,1024.0,1024.0,1023.0,1024.0,1023.0,1024.0,1023.0,1023.0,1023.0,1023.0,1023.0,1023.0,1024.0,1024.0,1023.0,1022.0,1023.0,1023.0,1022.0,1024.0,1022.0,1023.0,1024.0,1023.0,1024.0,1022.0,1022.0,1023.0,1023.0,1023.0,1023.0,1023.0,1023.0,1023.0,1023.0,1022.0,1023.0,1023.0,1023.0,1023.0,1023.0,1023.0,1024.0,1023.0,1023.0,1022.0,1023.0,1023.0,1023.0,1024.0,1024.0,1023.0,1024.0,1023.0,1023.0,1022.0,1023.0,1024.0,1024.0,1025.0,1024.0,1024.0,1024.0,1024.0,1024.0,1024.0,1024.0,1023.0,1023.0,1025.0,1024.0,1024.0,1024.0,1024.0,1024.0,1024.0,1023.0,1023.0,1023.0,1023.0,1023.0,1023.0,1024.0,1023.0,1023.0,1022.0,1022.0,1023.0,1024.0,1023.0,1023.0,1024.0,1023.0,1023.0,1023.0,1023.0,1024.0,1023.0,1024.0,1024.0,1024.0,1023.0,1023.0,1024.0,1024.0,1024.0,1025.0,1024.0,1024.0,1023.0,1024.0,1024.0,1024.0,1024.0,1024.0,1024.0,1023.0,1024.0,1024.0,1024.0,1025.0,1024.0,1024.0,1025.0,1024.0,1025.0,1026.0,1025.0,1024.0,1026.0,1025.0,1027.0,1028.0,1026.0,1025.0,1030.0,1028.0,1031.0,1032.0,1028.0,1025.0,1030.0,1029.0,1030.0,1035.0,1029.0,1025.0,1030.0,1030.0,1030.0,1035.0,1029.0,1028.0,1033.0,1032.0,1031.0,1039.0,1032.0,1029.0,1034.0,1034.0,1031.0,1040.0,1031.0,1029.0,1032.0,1032.0,1029.0,1038.0,1029.0,1030.0,1032.0,1032.0,1028.0,1035.0,1029.0,1023.0,1023.0,1023.0,1023.0,1024.0,1022.0,1034.0,1040.0,1035.0,1032.0,1041.0,1032.0,1031.0,1039.0,1037.0,1034.0,1042.0,1032.0,1028.0,1034.0,1031.0,1031.0,1035.0,1952,2008,1910,	00:32:35.063,0.0576171875,0.04248046875,1.01708984375,-0.30517578125,0.18310546875,0.0,2.4169921875,-3.2354736328125,55.72265625,458.0,-1595.0,-2572.0,0.88323974609375,0.031829833984375,-0.01507568359375,0.46759033203125,2.4195314337955294,-3.2343135358095307,51.11375397042528,0.9013401004344392,0.031211511175086918,-0.01634948700214593,0.431676451979685,1,	00:32:35.064,0.0048828125,0.08349609375,1.00390625,-0.91552734375,-1.3427734375,-0.54931640625,4.7900390625,-0.24169921875,83.232421875,-363.0,-1320.0,-1937.0,-0.746917724609375,-0.03265380859375,-0.02618408203125,-0.663604736328125,4.7897620344633065,-0.24206037662153784,84.58596813295658,-0.7390063640096739,-0.03233010805661932,-0.02655772852377039,-0.6723979812000527,1
1782117462.292436,0.145,1022.0,1023.0,1024.0,1022.0,1023.0,1023.0,1023.0,1023.0,1022.0,1024.0,1024.0,1023.0,1023.0,1024.0,1023.0,1023.0,1023.0,1024.0,1023.0,1023.0,1024.0,1023.0,1023.0,1023.0,1023.0,1024.0,1023.0,1023.0,1023.0,1023.0,1023.0,1023.0,1022.0,1023.0,1024.0,1023.0,1023.0,1024.0,1023.0,1023.0,1023.0,1023.0,1023.0,1023.0,1023.0,1023.0,1023.0,1023.0,1024.0,1023.0,1022.0,1023.0,1023.0,1023.0,1023.0,1023.0,1024.0,1023.0,1023.0,1023.0,1022.0,1023.0,1023.0,1024.0,1023.0,1023.0,1024.0,1023.0,1024.0,1022.0,1022.0,1024.0,1023.0,1024.0,1023.0,1023.0,1024.0,1023.0,1023.0,1022.0,1022.0,1023.0,1023.0,1024.0,1024.0,1023.0,1024.0,1024.0,1023.0,1022.0,1022.0,1023.0,1023.0,1024.0,1024.0,1024.0,1024.0,1024.0,1024.0,1024.0,1023.0,1023.0,1023.0,1025.0,1024.0,1024.0,1025.0,1023.0,1024.0,1024.0,1023.0,1023.0,1022.0,1024.0,1022.0,1023.0,1024.0,1023.0,1023.0,1021.0,1022.0,1023.0,1024.0,1023.0,1024.0,1024.0,1023.0,1023.0,1023.0,1023.0,1024.0,1024.0,1024.0,1024.0,1023.0,1024.0,1023.0,1024.0,1024.0,1024.0,1025.0,1024.0,1024.0,1023.0,1025.0,1023.0,1024.0,1025.0,1024.0,1024.0,1023.0,1024.0,1024.0,1024.0,1024.0,1024.0,1024.0,1025.0,1024.0,1025.0,1026.0,1025.0,1024.0,1028.0,1025.0,1027.0,1028.0,1027.0,1025.0,1029.0,1028.0,1031.0,1033.0,1028.0,1025.0,1030.0,1029.0,1030.0,1035.0,1029.0,1026.0,1031.0,1030.0,1029.0,1036.0,1029.0,1027.0,1033.0,1033.0,1031.0,1039.0,1031.0,1029.0,1034.0,1035.0,1031.0,1040.0,1031.0,1029.0,1032.0,1032.0,1029.0,1037.0,1029.0,1029.0,1032.0,1032.0,1028.0,1035.0,1029.0,1023.0,1024.0,1022.0,1023.0,1024.0,1021.0,1035.0,1041.0,1036.0,1032.0,1041.0,1033.0,1031.0,1039.0,1036.0,1035.0,1042.0,1032.0,1028.0,1034.0,1030.0,1031.0,1035.0,1952,2008,1909,	00:32:35.073,0.05712890625,0.04296875,1.01806640625,-0.244140625,0.244140625,0.06103515625,2.406005859375,-3.14208984375,55.72265625,460.0,-1596.0,-2573.0,0.883270263671875,0.0313720703125,-0.014404296875,0.46759033203125,2.4072734022129483,-3.1409119745191654,51.11500961027242,0.9013665351475695,0.03076427596622785,-0.015660235468438116,0.43167891501139155,1,	00:32:35.074,0.0048828125,0.0830078125,1.00341796875,-0.91552734375,-1.3427734375,-0.54931640625,4.7021484375,-0.3021240234375,83.2269287109375,-362.0,-1324.0,-1943.0,-0.7469482421875,-0.03240966796875,-0.0252685546875,-0.663604736328125,4.701850103086279,-0.3014302897055897,84.57975090169188,-0.7390522223407677,-0.03211285180975372,-0.025657174679895225,-0.6723929556362578,1
1782117462.302061,0.155,1023.0,1023.0,1023.0,1022.0,1023.0,1023.0,1023.0,1024.0,1022.0,1023.0,1024.0,1023.0,1023.0,1024.0,1023.0,1023.0,1023.0,1023.0,1023.0,1023.0,1024.0,1023.0,1023.0,1023.0,1023.0,1024.0,1023.0,1023.0,1024.0,1023.0,1023.0,1024.0,1023.0,1023.0,1024.0,1023.0,1023.0,1024.0,1023.0,1023.0,1023.0,1023.0,1023.0,1024.0,1023.0,1024.0,1024.0,1023.0,1023.0,1023.0,1023.0,1024.0,1023.0,1024.0,1023.0,1023.0,1024.0,1023.0,1024.0,1022.0,1023.0,1024.0,1023.0,1023.0,1023.0,1023.0,1024.0,1023.0,1023.0,1023.0,1023.0,1023.0,1023.0,1024.0,1022.0,1023.0,1023.0,1023.0,1023.0,1023.0,1023.0,1023.0,1023.0,1024.0,1024.0,1024.0,1024.0,1023.0,1023.0,1023.0,1023.0,1023.0,1023.0,1024.0,1024.0,1024.0,1024.0,1024.0,1024.0,1024.0,1023.0,1023.0,1023.0,1025.0,1024.0,1024.0,1024.0,1024.0,1023.0,1024.0,1023.0,1023.0,1022.0,1023.0,1022.0,1023.0,1023.0,1023.0,1023.0,1021.0,1022.0,1023.0,1024.0,1023.0,1023.0,1024.0,1023.0,1023.0,1023.0,1023.0,1024.0,1023.0,1023.0,1024.0,1023.0,1023.0,1024.0,1025.0,1024.0,1024.0,1025.0,1023.0,1024.0,1023.0,1024.0,1024.0,1024.0,1025.0,1023.0,1024.0,1023.0,1024.0,1024.0,1024.0,1025.0,1024.0,1023.0,1024.0,1024.0,1026.0,1026.0,1025.0,1024.0,1027.0,1025.0,1027.0,1028.0,1026.0,1025.0,1029.0,1027.0,1031.0,1032.0,1028.0,1025.0,1030.0,1029.0,1031.0,1034.0,1029.0,1026.0,1030.0,1030.0,1030.0,1035.0,1029.0,1027.0,1033.0,1033.0,1031.0,1039.0,1031.0,1029.0,1034.0,1033.0,1031.0,1041.0,1031.0,1028.0,1032.0,1032.0,1029.0,1037.0,1029.0,1030.0,1033.0,1032.0,1028.0,1036.0,1028.0,1023.0,1024.0,1023.0,1023.0,1025.0,1021.0,1035.0,1040.0,1036.0,1032.0,1041.0,1032.0,1032.0,1039.0,1036.0,1034.0,1042.0,1032.0,1028.0,1034.0,1030.0,1031.0,1035.0,1952,2008,1910,	00:32:35.084,0.05712890625,0.04345703125,1.01708984375,-0.30517578125,0.18310546875,0.06103515625,2.449951171875,-3.218994140625,55.72265625,458.0,-1596.0,-2574.0,0.88323974609375,0.032012939453125,-0.01483154296875,0.46759033203125,2.44848018873058,-3.2191584040394643,51.11324217177078,0.9013386918513422,0.031382192058835065,-0.016121300887562518,0.4316756007130662,1,	00:32:35.085,0.00537109375,0.08349609375,1.0029296875,-0.91552734375,-1.28173828125,-0.54931640625,4.7845458984375,-0.318603515625,83.2159423828125,-363.0,-1324.0,-1941.0,-0.746978759765625,-0.033050537109375,-0.025634765625,-0.663543701171875,4.783828460833344,-0.3206812335346439,84.57273287527313,-0.7390651827324677,-0.03275608036880062,-0.026012010086982805,-0.6723340465889937,1
1782117462.313062,0.166,1023.0,1023.0,1024.0,1023.0,1023.0,1023.0,1023.0,1024.0,1022.0,1022.0,1024.0,1023.0,1023.0,1024.0,1023.0,1023.0,1023.0,1024.0,1023.0,1023.0,1024.0,1023.0,1023.0,1023.0,1023.0,1023.0,1023.0,1024.0,1024.0,1023.0,1023.0,1023.0,1023.0,1023.0,1024.0,1023.0,1024.0,1024.0,1023.0,1023.0,1023.0,1022.0,1023.0,1023.0,1023.0,1024.0,1024.0,1023.0,1023.0,1022.0,1022.0,1024.0,1023.0,1024.0,1023.0,1023.0,1024.0,1023.0,1023.0,1022.0,1023.0,1024.0,1023.0,1024.0,1023.0,1023.0,1024.0,1022.0,1023.0,1023.0,1022.0,1023.0,1023.0,1023.0,1023.0,1023.0,1024.0,1023.0,1023.0,1023.0,1023.0,1023.0,1023.0,1024.0,1023.0,1023.0,1024.0,1023.0,1024.0,1023.0,1023.0,1023.0,1023.0,1024.0,1024.0,1024.0,1024.0,1024.0,1024.0,1024.0,1023.0,1024.0,1023.0,1025.0,1023.0,1024.0,1024.0,1024.0,1024.0,1024.0,1023.0,1023.0,1022.0,1024.0,1022.0,1023.0,1024.0,1023.0,1023.0,1021.0,1022.0,1023.0,1024.0,1023.0,1023.0,1024.0,1023.0,1023.0,1023.0,1023.0,1024.0,1024.0,1024.0,1024.0,1024.0,1024.0,1023.0,1024.0,1024.0,1024.0,1025.0,1024.0,1024.0,1023.0,1024.0,1024.0,1024.0,1025.0,1024.0,1024.0,1023.0,1024.0,1024.0,1024.0,1025.0,1024.0,1023.0,1025.0,1024.0,1025.0,1026.0,1024.0,1024.0,1026.0,1025.0,1027.0,1028.0,1026.0,1024.0,1029.0,1028.0,1030.0,1032.0,1029.0,1025.0,1030.0,1030.0,1030.0,1035.0,1028.0,1025.0,1030.0,1029.0,1029.0,1036.0,1029.0,1027.0,1032.0,1032.0,1030.0,1039.0,1032.0,1029.0,1034.0,1034.0,1030.0,1041.0,1031.0,1029.0,1032.0,1031.0,1029.0,1038.0,1029.0,1030.0,1033.0,1032.0,1028.0,1036.0,1029.0,1022.0,1024.0,1023.0,1023.0,1024.0,1022.0,1035.0,1040.0,1035.0,1032.0,1042.0,1033.0,1032.0,1039.0,1036.0,1034.0,1043.0,1032.0,1027.0,1034.0,1030.0,1031.0,1035.0,1952,2008,1909,	00:32:35.094,0.05712890625,0.04296875,1.0166015625,-0.30517578125,0.18310546875,0.0,2.3565673828125,-3.197021484375,55.7281494140625,459.0,-1596.0,-2575.0,0.883270263671875,0.031219482421875,-0.01507568359375,0.46759033203125,2.355501307966568,-3.199425846499963,51.11835417423494,0.9013504765214169,0.03057741610453917,-0.016314890366272865,0.43170147608193454,1,	00:32:35.095,0.00537109375,0.083984375,1.00341796875,-0.91552734375,-1.28173828125,-0.54931640625,4.779052734375,-0.24169921875,83.21044921875,-363.0,-1327.0,-1934.0,-0.747039794921875,-0.032562255859375,-0.026092529296875,-0.663482666015625,4.778228712621747,-0.2413907825648771,84.5661662364554,-0.739125969780293,-0.03225637852769554,-0.026488798716117645,-0.6722727648679488,1
1782117462.322064,0.175,1023.0,1023.0,1024.0,1022.0,1024.0,1023.0,1023.0,1024.0,1023.0,1024.0,1024.0,1024.0,1023.0,1024.0,1023.0,1023.0,1023.0,1024.0,1023.0,1023.0,1024.0,1023.0,1023.0,1023.0,1023.0,1024.0,1023.0,1023.0,1024.0,1023.0,1023.0,1023.0,1022.0,1023.0,1024.0,1023.0,1023.0,1024.0,1023.0,1023.0,1024.0,1023.0,1023.0,1024.0,1023.0,1023.0,1024.0,1023.0,1023.0,1023.0,1023.0,1023.0,1022.0,1024.0,1023.0,1023.0,1024.0,1023.0,1023.0,1022.0,1022.0,1023.0,1023.0,1023.0,1023.0,1023.0,1024.0,1023.0,1023.0,1022.0,1022.0,1023.0,1023.0,1023.0,1023.0,1023.0,1024.0,1023.0,1023.0,1023.0,1023.0,1023.0,1023.0,1024.0,1024.0,1023.0,1024.0,1024.0,1023.0,1024.0,1023.0,1023.0,1023.0,1024.0,1024.0,1024.0,1024.0,1024.0,1023.0,1024.0,1023.0,1024.0,1024.0,1025.0,1024.0,1024.0,1024.0,1024.0,1024.0,1024.0,1023.0,1023.0,1022.0,1024.0,1023.0,1023.0,1024.0,1023.0,1023.0,1021.0,1022.0,1022.0,1024.0,1023.0,1023.0,1024.0,1024.0,1024.0,1023.0,1022.0,1024.0,1023.0,1023.0,1024.0,1023.0,1024.0,1024.0,1025.0,1024.0,1024.0,1024.0,1024.0,1024.0,1023.0,1024.0,1023.0,1023.0,1025.0,1024.0,1024.0,1023.0,1024.0,1023.0,1024.0,1025.0,1024.0,1023.0,1025.0,1024.0,1025.0,1026.0,1025.0,1024.0,1026.0,1025.0,1027.0,1028.0,1027.0,1024.0,1029.0,1028.0,1030.0,1032.0,1028.0,1025.0,1030.0,1029.0,1030.0,1035.0,1029.0,1026.0,1030.0,1030.0,1029.0,1036.0,1029.0,1027.0,1033.0,1033.0,1030.0,1039.0,1031.0,1028.0,1034.0,1034.0,1030.0,1040.0,1031.0,1028.0,1033.0,1032.0,1029.0,1037.0,1030.0,1030.0,1033.0,1032.0,1028.0,1035.0,1029.0,1022.0,1024.0,1022.0,1022.0,1024.0,1022.0,1035.0,1041.0,1036.0,1031.0,1041.0,1033.0,1031.0,1039.0,1036.0,1034.0,1043.0,1032.0,1028.0,1034.0,1030.0,1030.0,1035.0,1951,2008,1909,	00:32:35.104,0.05712890625,0.04296875,1.01806640625,-0.30517578125,0.244140625,0.06103515625,2.4444580078125,-3.2135009765625,55.72265625,459.0,-1596.0,-2576.0,0.88323974609375,0.03192138671875,-0.014801025390625,0.46759033203125,2.4430243437158157,-3.211073561611512,51.113999224505555,0.9013397668943338,0.03130900435312005,-0.016078017382141235,0.43168028472278425,1,	00:32:35.105,0.0048828125,0.08251953125,1.0048828125,-0.91552734375,-1.28173828125,-0.54931640625,4.6856689453125,-0.2911376953125,83.2049560546875,-361.0,-1326.0,-1943.0,-0.7470703125,-0.032257080078125,-0.025238037109375,-0.663482666015625,4.685144260900113,-0.28989526564478885,84.56001714962353,-0.7391756382371122,-0.031941852892892995,-0.025628058071194802,-0.6722665368066644,1
1782117462.332605,0.185,1023.0,1023.0,1023.0,1022.0,1024.0,1022.0,1023.0,1024.0,1022.0,1023.0,1024.0,1022.0,1023.0,1024.0,1023.0,1023.0,1023.0,1023.0,1023.0,1024.0,1024.0,1023.0,1023.0,1023.0,1023.0,1024.0,1024.0,1023.0,1024.0,1023.0,1023.0,1024.0,1022.0,1023.0,1024.0,1024.0,1023.0,1024.0,1024.0,1024.0,1023.0,1022.0,1023.0,1024.0,1023.0,1023.0,1024.0,1024.0,1023.0,1023.0,1023.0,1023.0,1023.0,1023.0,1023.0,1023.0,1024.0,1023.0,1024.0,1023.0,1022.0,1023.0,1022.0,1023.0,1023.0,1023.0,1024.0,1023.0,1024.0,1022.0,1022.0,1023.0,1023.0,1023.0,1023.0,1023.0,1024.0,1023.0,1023.0,1022.0,1022.0,1023.0,1023.0,1024.0,1024.0,1023.0,1024.0,1023.0,1023.0,1023.0,1023.0,1023.0,1023.0,1025.0,1024.0,1024.0,1024.0,1024.0,1024.0,1024.0,1023.0,1023.0,1023.0,1025.0,1024.0,1023.0,1024.0,1024.0,1024.0,1024.0,1023.0,1023.0,1022.0,1023.0,1022.0,1023.0,1024.0,1023.0,1023.0,1021.0,1023.0,1023.0,1024.0,1023.0,1023.0,1024.0,1023.0,1023.0,1023.0,1023.0,1024.0,1023.0,1023.0,1024.0,1023.0,1023.0,1023.0,1024.0,1024.0,1024.0,1025.0,1024.0,1024.0,1023.0,1024.0,1023.0,1024.0,1025.0,1024.0,1024.0,1023.0,1024.0,1023.0,1024.0,1025.0,1025.0,1023.0,1025.0,1024.0,1025.0,1026.0,1024.0,1024.0,1027.0,1025.0,1027.0,1028.0,1026.0,1025.0,1029.0,1028.0,1030.0,1032.0,1029.0,1025.0,1030.0,1029.0,1030.0,1034.0,1029.0,1025.0,1031.0,1030.0,1029.0,1036.0,1030.0,1027.0,1033.0,1033.0,1031.0,1039.0,1031.0,1029.0,1035.0,1035.0,1030.0,1040.0,1032.0,1028.0,1033.0,1032.0,1029.0,1038.0,1030.0,1029.0,1033.0,1031.0,1028.0,1036.0,1029.0,1023.0,1024.0,1023.0,1023.0,1024.0,1022.0,1034.0,1041.0,1035.0,1032.0,1042.0,1033.0,1031.0,1040.0,1036.0,1034.0,1043.0,1032.0,1027.0,1034.0,1029.0,1030.0,1035.0,1951,2008,1909,	00:32:35.114,0.05712890625,0.04296875,1.017578125,-0.244140625,0.18310546875,0.06103515625,2.35107421875,-3.2080078125,55.7281494140625,459.0,-1596.0,-2573.0,0.88323974609375,0.03118896484375,-0.015167236328125,0.467620849609375,2.3488389606188473,-3.207070373700022,51.119821717574204,0.9013444525747809,0.030553951884041843,-0.01639976123250854,0.4317124988559551,1,	00:32:35.116,0.005859375,0.08349609375,1.00390625,-0.91552734375,-1.220703125,-0.54931640625,4.7515869140625,-0.3515625,83.199462890625,-363.0,-1322.0,-1940.0,-0.7470703125,-0.033050537109375,-0.025238037109375,-0.663421630859375,4.75352728537848,-0.3501209907497769,84.55311747302132,-0.7391811737133451,-0.032737725335790814,-0.02563870523182831,-0.6722217569832409,1
1782117462.343182,0.196,1023.0,1024.0,1023.0,1023.0,1023.0,1022.0,1023.0,1024.0,1023.0,1024.0,1023.0,1024.0,1023.0,1024.0,1023.0,1023.0,1023.0,1024.0,1023.0,1023.0,1024.0,1023.0,1023.0,1022.0,1023.0,1024.0,1023.0,1023.0,1024.0,1024.0,1024.0,1023.0,1023.0,1023.0,1024.0,1023.0,1023.0,1024.0,1024.0,1023.0,1023.0,1022.0,1023.0,1024.0,1023.0,1024.0,1024.0,1023.0,1023.0,1023.0,1023.0,1023.0,1023.0,1024.0,1023.0,1023.0,1024.0,1023.0,1023.0,1022.0,1023.0,1023.0,1023.0,1024.0,1023.0,1023.0,1024.0,1023.0,1023.0,1022.0,1022.0,1023.0,1022.0,1024.0,1023.0,1023.0,1024.0,1023.0,1023.0,1022.0,1023.0,1023.0,1023.0,1024.0,1024.0,1023.0,1024.0,1023.0,1024.0,1023.0,1022.0,1023.0,1023.0,1024.0,1024.0,1024.0,1024.0,1024.0,1024.0,1024.0,1023.0,1023.0,1023.0,1024.0,1024.0,1024.0,1024.0,1024.0,1024.0,1023.0,1023.0,1023.0,1022.0,1024.0,1022.0,1023.0,1023.0,1023.0,1023.0,1021.0,1022.0,1023.0,1024.0,1023.0,1024.0,1024.0,1023.0,1023.0,1022.0,1023.0,1024.0,1023.0,1023.0,1024.0,1023.0,1023.0,1023.0,1024.0,1023.0,1024.0,1024.0,1024.0,1023.0,1023.0,1025.0,1024.0,1024.0,1025.0,1024.0,1024.0,1024.0,1024.0,1024.0,1024.0,1025.0,1024.0,1023.0,1025.0,1024.0,1024.0,1026.0,1025.0,1024.0,1026.0,1025.0,1027.0,1028.0,1026.0,1025.0,1029.0,1028.0,1031.0,1032.0,1029.0,1025.0,1031.0,1029.0,1030.0,1035.0,1029.0,1025.0,1031.0,1030.0,1029.0,1035.0,1029.0,1027.0,1033.0,1033.0,1030.0,1038.0,1032.0,1028.0,1035.0,1034.0,1030.0,1040.0,1032.0,1027.0,1033.0,1032.0,1028.0,1037.0,1030.0,1029.0,1034.0,1032.0,1028.0,1036.0,1029.0,1023.0,1024.0,1023.0,1023.0,1024.0,1021.0,1034.0,1041.0,1035.0,1031.0,1042.0,1032.0,1031.0,1039.0,1036.0,1034.0,1043.0,1032.0,1027.0,1034.0,1031.0,1030.0,1035.0,1951,2008,1909,	00:32:35.125,0.05712890625,0.04248046875,1.01708984375,-0.244140625,0.244140625,0.06103515625,2.43896484375,-3.2135009765625,55.7281494140625,458.0,-1595.0,-2575.0,0.88323974609375,0.031890869140625,-0.014862060546875,0.46759033203125,2.437448392563319,-3.215295777722493,51.11543031583394,0.9013346284459384,0.031281213104878296,-0.016131861551251212,0.43169101949635313,1,	00:32:35.126,0.0048828125,0.0830078125,1.0029296875,-0.91552734375,-1.220703125,-0.54931640625,4.7186279296875,-0.274658203125,83.1884765625,-361.0,-1325.0,-1941.0,-0.747161865234375,-0.032379150390625,-0.025543212890625,-0.66339111328125,4.717443681918295,-0.27425620012186136,84.54677223814741,-0.7392483294250406,-0.03206146842666689,-0.02591473808520489,-0.6721699160439923,1
1782117462.353551,0.206,1023.0,1024.0,1024.0,1022.0,1024.0,1022.0,1022.0,1024.0,1022.0,1022.0,1023.0,1023.0,1024.0,1024.0,1023.0,1023.0,1023.0,1024.0,1023.0,1023.0,1024.0,1022.0,1023.0,1023.0,1024.0,1024.0,1023.0,1023.0,1024.0,1024.0,1024.0,1023.0,1022.0,1023.0,1024.0,1023.0,1024.0,1024.0,1023.0,1024.0,1023.0,1022.0,1022.0,1024.0,1024.0,1023.0,1024.0,1023.0,1024.0,1022.0,1022.0,1023.0,1023.0,1024.0,1023.0,1023.0,1023.0,1023.0,1023.0,1022.0,1022.0,1023.0,1023.0,1023.0,1023.0,1023.0,1023.0,1023.0,1023.0,1022.0,1022.0,1023.0,1023.0,1024.0,1023.0,1023.0,1024.0,1023.0,1023.0,1022.0,1023.0,1023.0,1023.0,1024.0,1023.0,1023.0,1024.0,1023.0,1023.0,1023.0,1022.0,1023.0,1023.0,1025.0,1024.0,1023.0,1024.0,1024.0,1023.0,1024.0,1023.0,1023.0,1023.0,1024.0,1024.0,1024.0,1024.0,1024.0,1024.0,1023.0,1023.0,1023.0,1022.0,1023.0,1023.0,1023.0,1024.0,1023.0,1023.0,1021.0,1022.0,1023.0,1024.0,1024.0,1023.0,1024.0,1024.0,1023.0,1022.0,1023.0,1024.0,1023.0,1024.0,1024.0,1024.0,1023.0,1023.0,1025.0,1024.0,1024.0,1025.0,1024.0,1024.0,1023.0,1024.0,1024.0,1024.0,1025.0,1024.0,1024.0,1023.0,1024.0,1024.0,1024.0,1025.0,1024.0,1023.0,1025.0,1024.0,1024.0,1025.0,1024.0,1024.0,1027.0,1026.0,1026.0,1028.0,1026.0,1025.0,1029.0,1028.0,1030.0,1032.0,1028.0,1025.0,1031.0,1029.0,1029.0,1035.0,1028.0,1025.0,1031.0,1030.0,1029.0,1036.0,1030.0,1027.0,1033.0,1033.0,1030.0,1039.0,1032.0,1028.0,1035.0,1034.0,1030.0,1040.0,1031.0,1028.0,1033.0,1032.0,1029.0,1037.0,1029.0,1030.0,1034.0,1032.0,1028.0,1036.0,1029.0,1023.0,1024.0,1023.0,1023.0,1024.0,1021.0,1034.0,1042.0,1035.0,1032.0,1042.0,1033.0,1031.0,1040.0,1036.0,1034.0,1043.0,1032.0,1028.0,1035.0,1030.0,1030.0,1036.0,1951,2008,1909,	00:32:35.135,0.05615234375,0.04248046875,1.017578125,-0.244140625,0.244140625,0.06103515625,2.3785400390625,-3.14208984375,55.7281494140625,460.0,-1596.0,-2573.0,0.883270263671875,0.031158447265625,-0.0145263671875,0.467620849609375,2.3783148614214955,-3.1410216664170534,51.11928433691811,0.9013581447634608,0.030537490305875378,-0.015769049095376925,0.4317085749032768,1,	00:32:35.136,0.0048828125,0.08349609375,1.00390625,-0.8544921875,-1.220703125,-0.54931640625,4.801025390625,-0.296630859375,83.1829833984375,-363.0,-1325.0,-1938.0,-0.747161865234375,-0.03302001953125,-0.02587890625,-0.663330078125,4.799893636525444,-0.2944737596048485,84.53984414727394,-0.7392604126626421,-0.032713507837423376,-0.026265940822483076,-0.6721115748352655,1
1782117462.363558,0.216,1023.0,1024.0,1023.0,1023.0,1024.0,1023.0,1023.0,1024.0,1023.0,1023.0,1024.0,1023.0,1023.0,1024.0,1023.0,1023.0,1023.0,1023.0,1022.0,1023.0,1024.0,1023.0,1023.0,1022.0,1023.0,1024.0,1023.0,1024.0,1024.0,1023.0,1023.0,1023.0,1022.0,1023.0,1024.0,1023.0,1023.0,1024.0,1024.0,1023.0,1023.0,1022.0,1024.0,1024.0,1023.0,1023.0,1023.0,1024.0,1023.0,1023.0,1022.0,1023.0,1023.0,1024.0,1023.0,1023.0,1024.0,1023.0,1023.0,1022.0,1023.0,1023.0,1023.0,1024.0,1023.0,1023.0,1023.0,1023.0,1024.0,1022.0,1022.0,1023.0,1023.0,1023.0,1023.0,1023.0,1024.0,1024.0,1023.0,1022.0,1023.0,1023.0,1023.0,1024.0,1024.0,1023.0,1024.0,1024.0,1023.0,1023.0,1022.0,1023.0,1023.0,1024.0,1024.0,1023.0,1024.0,1024.0,1024.0,1024.0,1023.0,1023.0,1022.0,1025.0,1024.0,1024.0,1024.0,1024.0,1024.0,1023.0,1023.0,1023.0,1023.0,1024.0,1023.0,1023.0,1024.0,1023.0,1022.0,1021.0,1021.0,1023.0,1024.0,1023.0,1023.0,1024.0,1023.0,1023.0,1023.0,1023.0,1024.0,1023.0,1024.0,1024.0,1023.0,1023.0,1023.0,1025.0,1024.0,1024.0,1025.0,1024.0,1024.0,1023.0,1024.0,1024.0,1024.0,1025.0,1024.0,1024.0,1023.0,1024.0,1023.0,1024.0,1025.0,1024.0,1023.0,1025.0,1024.0,1024.0,1026.0,1025.0,1024.0,1026.0,1025.0,1026.0,1028.0,1026.0,1024.0,1030.0,1028.0,1030.0,1033.0,1029.0,1025.0,1030.0,1029.0,1030.0,1035.0,1028.0,1025.0,1030.0,1030.0,1029.0,1036.0,1030.0,1027.0,1033.0,1032.0,1030.0,1039.0,1032.0,1028.0,1034.0,1034.0,1030.0,1041.0,1031.0,1028.0,1033.0,1032.0,1028.0,1038.0,1030.0,1029.0,1033.0,1031.0,1027.0,1036.0,1029.0,1022.0,1024.0,1022.0,1023.0,1024.0,1021.0,1034.0,1042.0,1035.0,1031.0,1043.0,1033.0,1031.0,1040.0,1036.0,1034.0,1044.0,1033.0,1027.0,1036.0,1030.0,1030.0,1036.0,1951,2008,1909,	00:32:35.145,0.05712890625,0.0419921875,1.01708984375,-0.30517578125,0.244140625,0.06103515625,2.3565673828125,-3.22998046875,55.733642578125,460.0,-1597.0,-2574.0,0.88323974609375,0.031341552734375,-0.015289306640625,0.467620849609375,2.357401129501286,-3.2284365918065787,51.12098904062551,0.9013313933552907,0.030701768996376434,-0.016535343770141115,0.43172410534866656,1,	00:32:35.146,0.00439453125,0.0830078125,1.00390625,-0.79345703125,-1.220703125,-0.6103515625,4.713134765625,-0.2581787109375,83.177490234375,-360.0,-1323.0,-1938.0,-0.747222900390625,-0.032257080078125,-0.025604248046875,-0.663299560546875,4.713890609260822,-0.25860218775768934,84.53311458442256,-0.7393334442965842,-0.031949841319251854,-0.025991093224635692,-0.6720786627004406,1
1782117462.372792,0.225,1023.0,1023.0,1023.0,1022.0,1023.0,1022.0,1023.0,1024.0,1023.0,1023.0,1024.0,1023.0,1023.0,1024.0,1023.0,1023.0,1024.0,1024.0,1023.0,1023.0,1024.0,1023.0,1023.0,1023.0,1023.0,1024.0,1023.0,1023.0,1024.0,1023.0,1024.0,1024.0,1023.0,1023.0,1024.0,1023.0,1023.0,1024.0,1024.0,1023.0,1023.0,1023.0,1023.0,1024.0,1023.0,1023.0,1024.0,1024.0,1023.0,1023.0,1022.0,1023.0,1023.0,1024.0,1023.0,1023.0,1023.0,1024.0,1023.0,1023.0,1022.0,1023.0,1023.0,1024.0,1023.0,1023.0,1024.0,1023.0,1023.0,1022.0,1022.0,1023.0,1023.0,1024.0,1023.0,1023.0,1024.0,1023.0,1022.0,1022.0,1022.0,1023.0,1022.0,1024.0,1024.0,1023.0,1024.0,1024.0,1023.0,1023.0,1022.0,1023.0,1023.0,1024.0,1024.0,1023.0,1024.0,1024.0,1024.0,1025.0,1023.0,1023.0,1023.0,1025.0,1024.0,1023.0,1024.0,1024.0,1023.0,1023.0,1023.0,1023.0,1022.0,1023.0,1023.0,1023.0,1024.0,1024.0,1023.0,1022.0,1022.0,1023.0,1024.0,1023.0,1023.0,1024.0,1023.0,1023.0,1023.0,1023.0,1024.0,1023.0,1023.0,1024.0,1024.0,1023.0,1023.0,1025.0,1024.0,1024.0,1025.0,1024.0,1024.0,1023.0,1024.0,1024.0,1024.0,1025.0,1024.0,1024.0,1023.0,1024.0,1023.0,1024.0,1025.0,1024.0,1023.0,1025.0,1024.0,1025.0,1026.0,1025.0,1024.0,1026.0,1025.0,1027.0,1028.0,1027.0,1024.0,1029.0,1027.0,1030.0,1033.0,1029.0,1025.0,1030.0,1029.0,1029.0,1035.0,1030.0,1025.0,1030.0,1030.0,1028.0,1036.0,1030.0,1027.0,1034.0,1033.0,1030.0,1039.0,1032.0,1028.0,1035.0,1034.0,1029.0,1040.0,1031.0,1028.0,1032.0,1032.0,1028.0,1038.0,1030.0,1029.0,1034.0,1032.0,1027.0,1037.0,1029.0,1022.0,1024.0,1023.0,1022.0,1025.0,1022.0,1034.0,1041.0,1035.0,1031.0,1042.0,1033.0,1031.0,1040.0,1036.0,1033.0,1045.0,1033.0,1028.0,1034.0,1030.0,1030.0,1036.0,1951,2007,1909,	00:32:35.155,0.056640625,0.04248046875,1.01708984375,-0.30517578125,0.244140625,0.06103515625,2.4114990234375,-3.153076171875,55.7281494140625,458.0,-1596.0,-2573.0,0.883270263671875,0.031463623046875,-0.014495849609375,0.467620849609375,2.4108480922184987,-3.1538110457483053,51.11855108882109,0.901348423943908,0.03084135579122989,-0.015747334744817792,0.4317080620919957,1,	00:32:35.156,0.00537109375,0.08251953125,1.00390625,-0.79345703125,-1.220703125,-0.54931640625,4.68017578125,-0.3570556640625,83.1719970703125,-363.0,-1324.0,-1936.0,-0.74725341796875,-0.0325927734375,-0.024749755859375,-0.66326904296875,4.678360018546474,-0.3577103161162909,84.52679206745208,-0.7393549355473451,-0.0323031326807536,-0.025141361919374928,-0.6720704567391945,1
1782117462.384072,0.237,1023.0,1024.0,1023.0,1022.0,1023.0,1022.0,1023.0,1024.0,1022.0,1023.0,1024.0,1023.0,1023.0,1024.0,1023.0,1023.0,1023.0,1023.0,1023.0,1023.0,1024.0,1023.0,1023.0,1022.0,1023.0,1024.0,1023.0,1023.0,1024.0,1024.0,1023.0,1024.0,1022.0,1022.0,1024.0,1023.0,1022.0,1024.0,1023.0,1023.0,1024.0,1022.0,1023.0,1024.0,1023.0,1023.0,1024.0,1023.0,1023.0,1023.0,1023.0,1023.0,1023.0,1024.0,1023.0,1024.0,1024.0,1024.0,1023.0,1023.0,1023.0,1023.0,1023.0,1024.0,1023.0,1022.0,1024.0,1023.0,1023.0,1022.0,1022.0,1023.0,1023.0,1024.0,1023.0,1022.0,1024.0,1024.0,1023.0,1022.0,1022.0,1023.0,1023.0,1024.0,1023.0,1024.0,1024.0,1024.0,1023.0,1023.0,1022.0,1024.0,1024.0,1025.0,1024.0,1023.0,1024.0,1024.0,1024.0,1024.0,1023.0,1023.0,1023.0,1024.0,1024.0,1023.0,1024.0,1024.0,1023.0,1024.0,1023.0,1023.0,1022.0,1023.0,1023.0,1023.0,1024.0,1023.0,1023.0,1021.0,1022.0,1023.0,1024.0,1024.0,1023.0,1024.0,1023.0,1023.0,1023.0,1023.0,1024.0,1023.0,1023.0,1024.0,1024.0,1023.0,1024.0,1025.0,1024.0,1023.0,1025.0,1024.0,1024.0,1023.0,1024.0,1024.0,1024.0,1025.0,1024.0,1024.0,1023.0,1024.0,1024.0,1024.0,1025.0,1024.0,1023.0,1025.0,1024.0,1025.0,1026.0,1024.0,1024.0,1027.0,1024.0,1027.0,1028.0,1026.0,1025.0,1030.0,1028.0,1030.0,1033.0,1029.0,1025.0,1030.0,1029.0,1029.0,1036.0,1029.0,1026.0,1030.0,1029.0,1028.0,1037.0,1030.0,1028.0,1033.0,1033.0,1030.0,1040.0,1032.0,1029.0,1034.0,1034.0,1029.0,1041.0,1031.0,1028.0,1032.0,1032.0,1028.0,1039.0,1030.0,1030.0,1033.0,1032.0,1027.0,1037.0,1030.0,1023.0,1024.0,1023.0,1023.0,1025.0,1022.0,1034.0,1041.0,1036.0,1031.0,1042.0,1033.0,1032.0,1040.0,1036.0,1034.0,1044.0,1032.0,1029.0,1035.0,1031.0,1031.0,1036.0,1951,2007,1910,	00:32:35.166,0.05615234375,0.04248046875,1.01708984375,-0.30517578125,0.18310546875,0.06103515625,2.318115234375,-3.1695556640625,55.733642578125,458.0,-1594.0,-2575.0,0.88323974609375,0.030792236328125,-0.014984130859375,0.4676513671875,2.317455716950504,-3.168323565780583,51.12421894006053,0.9013476518164165,0.030162091453542525,-0.01621189633623057,0.43174046975163616,1,	00:32:35.167,0.0048828125,0.083984375,1.00341796875,-0.732421875,-1.220703125,-0.54931640625,4.74609375,-0.3131103515625,83.16650390625,-363.0,-1323.0,-1939.0,-0.747283935546875,-0.03277587890625,-0.025421142578125,-0.6632080078125,4.744160725530212,-0.3143777300430777,84.51989036949048,-0.739388085523741,-0.03247516688674153,-0.02580496034596267,-0.6720005405821924,1
1782117462.394071,0.247,1023.0,1023.0,1024.0,1023.0,1024.0,1022.0,1023.0,1024.0,1022.0,1023.0,1024.0,1023.0,1023.0,1024.0,1023.0,1023.0,1023.0,1023.0,1023.0,1023.0,1024.0,1023.0,1023.0,1023.0,1023.0,1024.0,1023.0,1023.0,1024.0,1024.0,1024.0,1023.0,1022.0,1023.0,1024.0,1023.0,1024.0,1024.0,1023.0,1023.0,1023.0,1023.0,1022.0,1024.0,1023.0,1023.0,1024.0,1023.0,1023.0,1023.0,1022.0,1023.0,1023.0,1024.0,1023.0,1023.0,1024.0,1023.0,1023.0,1022.0,1022.0,1024.0,1022.0,1023.0,1023.0,1023.0,1024.0,1022.0,1023.0,1022.0,1022.0,1024.0,1023.0,1024.0,1023.0,1023.0,1024.0,1024.0,1023.0,1022.0,1022.0,1023.0,1022.0,1024.0,1024.0,1023.0,1024.0,1023.0,1023.0,1023.0,1023.0,1023.0,1023.0,1025.0,1024.0,1023.0,1024.0,1024.0,1024.0,1024.0,1023.0,1024.0,1023.0,1025.0,1024.0,1024.0,1024.0,1024.0,1024.0,1024.0,1022.0,1023.0,1022.0,1023.0,1022.0,1023.0,1024.0,1023.0,1023.0,1021.0,1022.0,1023.0,1024.0,1023.0,1023.0,1024.0,1024.0,1023.0,1023.0,1023.0,1024.0,1023.0,1023.0,1024.0,1023.0,1023.0,1023.0,1024.0,1024.0,1024.0,1025.0,1024.0,1024.0,1023.0,1025.0,1023.0,1024.0,1025.0,1024.0,1024.0,1023.0,1024.0,1024.0,1024.0,1025.0,1025.0,1024.0,1025.0,1024.0,1025.0,1026.0,1025.0,1024.0,1026.0,1025.0,1026.0,1028.0,1027.0,1025.0,1029.0,1028.0,1030.0,1032.0,1029.0,1026.0,1030.0,1029.0,1030.0,1035.0,1030.0,1025.0,1030.0,1030.0,1028.0,1036.0,1030.0,1027.0,1033.0,1033.0,1029.0,1038.0,1032.0,1029.0,1034.0,1035.0,1029.0,1040.0,1031.0,1028.0,1032.0,1032.0,1028.0,1037.0,1030.0,1030.0,1033.0,1033.0,1028.0,1036.0,1029.0,1023.0,1024.0,1023.0,1023.0,1024.0,1022.0,1035.0,1040.0,1036.0,1031.0,1042.0,1033.0,1032.0,1039.0,1036.0,1034.0,1043.0,1032.0,1028.0,1034.0,1031.0,1030.0,1035.0,1951,2007,1909,	00:32:35.176,0.05712890625,0.04248046875,1.017578125,-0.30517578125,0.244140625,0.1220703125,2.39501953125,-3.2135009765625,55.733642578125,459.0,-1597.0,-2572.0,0.88323974609375,0.03155517578125,-0.0150146484375,0.467620849609375,2.3936399024592556,-3.2117579033351813,51.121127129289626,0.9013261184164402,0.030924143169731907,-0.016267515425920014,0.4317294217116071,1,	00:32:35.177,0.005859375,0.08349609375,1.00341796875,-0.732421875,-1.15966796875,-0.54931640625,4.7845458984375,-0.4010009765625,83.155517578125,-362.0,-1321.0,-1940.0,-0.747283935546875,-0.0335693359375,-0.02508544921875,-0.663177490234375,4.78728809242883,-0.401904523401925,84.51314749527941,-0.7393921345107927,-0.03326807641827202,-0.02549104140478859,-0.6719692800441857,1
1782117462.404073,0.257,1023.0,1024.0,1024.0,1022.0,1023.0,1022.0,1023.0,1024.0,1023.0,1023.0,1024.0,1023.0,1023.0,1024.0,1023.0,1023.0,1023.0,1024.0,1023.0,1023.0,1024.0,1023.0,1023.0,1023.0,1023.0,1023.0,1023.0,1024.0,1024.0,1023.0,1024.0,1024.0,1022.0,1023.0,1024.0,1023.0,1023.0,1024.0,1023.0,1024.0,1023.0,1023.0,1023.0,1023.0,1024.0,1023.0,1024.0,1023.0,1023.0,1023.0,1023.0,1023.0,1023.0,1023.0,1023.0,1023.0,1024.0,1023.0,1024.0,1022.0,1023.0,1023.0,1023.0,1024.0,1023.0,1023.0,1024.0,1023.0,1023.0,1022.0,1022.0,1023.0,1023.0,1024.0,1023.0,1023.0,1023.0,1024.0,1023.0,1022.0,1022.0,1023.0,1023.0,1024.0,1023.0,1023.0,1024.0,1023.0,1023.0,1023.0,1022.0,1023.0,1023.0,1024.0,1024.0,1023.0,1024.0,1024.0,1024.0,1024.0,1023.0,1023.0,1023.0,1024.0,1024.0,1024.0,1025.0,1024.0,1024.0,1024.0,1023.0,1023.0,1022.0,1023.0,1022.0,1023.0,1024.0,1023.0,1023.0,1021.0,1022.0,1023.0,1024.0,1023.0,1024.0,1024.0,1023.0,1023.0,1023.0,1023.0,1024.0,1023.0,1023.0,1024.0,1023.0,1023.0,1023.0,1024.0,1024.0,1024.0,1025.0,1024.0,1024.0,1023.0,1024.0,1023.0,1024.0,1025.0,1024.0,1024.0,1023.0,1024.0,1024.0,1024.0,1025.0,1024.0,1024.0,1025.0,1024.0,1025.0,1026.0,1024.0,1024.0,1026.0,1025.0,1026.0,1028.0,1027.0,1024.0,1029.0,1028.0,1029.0,1032.0,1029.0,1025.0,1030.0,1029.0,1029.0,1035.0,1029.0,1026.0,1030.0,1029.0,1029.0,1036.0,1030.0,1027.0,1033.0,1033.0,1030.0,1039.0,1032.0,1029.0,1034.0,1034.0,1030.0,1039.0,1032.0,1029.0,1032.0,1032.0,1028.0,1038.0,1030.0,1031.0,1033.0,1033.0,1028.0,1036.0,1029.0,1022.0,1024.0,1022.0,1022.0,1024.0,1022.0,1035.0,1041.0,1036.0,1031.0,1042.0,1033.0,1032.0,1038.0,1037.0,1034.0,1043.0,1033.0,1029.0,1034.0,1031.0,1030.0,1035.0,1951,2007,1910,	00:32:35.186,0.0576171875,0.04248046875,1.01806640625,-0.3662109375,0.244140625,0.06103515625,2.373046875,-3.3013916015625,55.733642578125,459.0,-1597.0,-2574.0,0.883209228515625,0.031768798828125,-0.015777587890625,0.4676513671875,2.3742970163895003,-3.2995669047835676,51.12273111180417,0.901298802030726,0.03110224949560893,-0.01703100464492733,0.43174421179105044,1,	00:32:35.187,0.00537109375,0.08349609375,1.00439453125,-0.732421875,-1.0986328125,-0.54931640625,4.74609375,-0.3240966796875,83.1500244140625,-363.0,-1328.0,-1938.0,-0.747344970703125,-0.032867431640625,-0.025360107421875,-0.663116455078125,4.74864868665112,-0.32630959693611233,84.50695075862191,-0.7394595743128806,-0.03257698721368101,-0.025750595872783794,-0.6719190313373254,1
1782117462.415369,0.268,1023.0,1023.0,1023.0,1022.0,1024.0,1023.0,1023.0,1024.0,1022.0,1023.0,1023.0,1023.0,1023.0,1024.0,1023.0,1023.0,1023.0,1024.0,1023.0,1023.0,1024.0,1023.0,1023.0,1023.0,1023.0,1023.0,1024.0,1023.0,1024.0,1023.0,1024.0,1023.0,1023.0,1023.0,1024.0,1024.0,1023.0,1024.0,1024.0,1023.0,1023.0,1023.0,1023.0,1024.0,1023.0,1023.0,1024.0,1023.0,1023.0,1023.0,1022.0,1023.0,1023.0,1024.0,1023.0,1023.0,1024.0,1023.0,1023.0,1023.0,1023.0,1023.0,1022.0,1024.0,1022.0,1023.0,1024.0,1023.0,1023.0,1022.0,1023.0,1023.0,1023.0,1024.0,1023.0,1023.0,1024.0,1023.0,1023.0,1021.0,1022.0,1023.0,1022.0,1024.0,1023.0,1023.0,1024.0,1023.0,1023.0,1022.0,1022.0,1023.0,1023.0,1024.0,1024.0,1024.0,1024.0,1024.0,1024.0,1024.0,1023.0,1024.0,1023.0,1024.0,1024.0,1024.0,1024.0,1024.0,1024.0,1023.0,1023.0,1024.0,1022.0,1024.0,1022.0,1023.0,1024.0,1023.0,1023.0,1021.0,1022.0,1023.0,1024.0,1024.0,1023.0,1024.0,1023.0,1023.0,1023.0,1022.0,1024.0,1023.0,1024.0,1024.0,1023.0,1024.0,1024.0,1024.0,1024.0,1024.0,1025.0,1024.0,1024.0,1023.0,1024.0,1023.0,1024.0,1024.0,1024.0,1024.0,1023.0,1024.0,1023.0,1024.0,1026.0,1024.0,1024.0,1025.0,1024.0,1025.0,1026.0,1025.0,1024.0,1026.0,1025.0,1027.0,1028.0,1027.0,1025.0,1029.0,1028.0,1030.0,1032.0,1030.0,1025.0,1029.0,1029.0,1030.0,1035.0,1029.0,1025.0,1031.0,1030.0,1029.0,1035.0,1031.0,1027.0,1033.0,1033.0,1029.0,1039.0,1032.0,1028.0,1034.0,1035.0,1029.0,1039.0,1032.0,1028.0,1033.0,1032.0,1028.0,1037.0,1030.0,1031.0,1034.0,1033.0,1027.0,1037.0,1030.0,1022.0,1024.0,1022.0,1023.0,1024.0,1022.0,1034.0,1041.0,1036.0,1031.0,1041.0,1033.0,1031.0,1039.0,1036.0,1033.0,1042.0,1033.0,1028.0,1035.0,1031.0,1030.0,1035.0,1951,2007,1910,	00:32:35.196,0.056640625,0.04248046875,1.017578125,-0.30517578125,0.244140625,0.1220703125,2.384033203125,-3.2080078125,55.733642578125,459.0,-1596.0,-2573.0,0.88323974609375,0.031463623046875,-0.0150146484375,0.4676513671875,2.3838065485482822,-3.2064947589372323,51.12333449271373,0.9013220243005715,0.03082733072654212,-0.01626254840729178,0.43174507954381713,1,	00:32:35.197,0.00439453125,0.083984375,1.00390625,-0.732421875,-1.0986328125,-0.54931640625,4.779052734375,-0.252685546875,83.14453125,-360.0,-1324.0,-1939.0,-0.747406005859375,-0.03265380859375,-0.0260009765625,-0.663055419921875,4.778112274738673,-0.25286054549594006,84.50037657045272,-0.7395088830998332,-0.03233806346456141,-0.026395560956435263,-0.6718512750822121,1
1782117462.425887,0.279,1023.0,1023.0,1023.0,1022.0,1023.0,1022.0,1023.0,1023.0,1023.0,1023.0,1024.0,1023.0,1023.0,1024.0,1022.0,1023.0,1022.0,1024.0,1023.0,1023.0,1024.0,1023.0,1023.0,1023.0,1023.0,1024.0,1023.0,1023.0,1024.0,1024.0,1023.0,1023.0,1022.0,1023.0,1024.0,1023.0,1023.0,1024.0,1023.0,1023.0,1023.0,1023.0,1023.0,1024.0,1023.0,1023.0,1024.0,1023.0,1023.0,1022.0,1023.0,1023.0,1023.0,1023.0,1023.0,1022.0,1024.0,1023.0,1023.0,1023.0,1022.0,1023.0,1023.0,1024.0,1023.0,1023.0,1024.0,1023.0,1023.0,1021.0,1023.0,1023.0,1022.0,1024.0,1022.0,1023.0,1024.0,1023.0,1023.0,1022.0,1022.0,1023.0,1022.0,1024.0,1023.0,1023.0,1024.0,1023.0,1024.0,1023.0,1023.0,1023.0,1023.0,1024.0,1024.0,1023.0,1024.0,1023.0,1024.0,1024.0,1022.0,1023.0,1023.0,1025.0,1024.0,1024.0,1024.0,1024.0,1023.0,1024.0,1023.0,1023.0,1023.0,1024.0,1022.0,1023.0,1024.0,1023.0,1023.0,1021.0,1022.0,1023.0,1024.0,1023.0,1023.0,1024.0,1024.0,1023.0,1022.0,1023.0,1024.0,1024.0,1023.0,1024.0,1023.0,1023.0,1023.0,1024.0,1024.0,1024.0,1025.0,1024.0,1024.0,1023.0,1025.0,1024.0,1024.0,1025.0,1024.0,1024.0,1023.0,1024.0,1024.0,1024.0,1025.0,1024.0,1024.0,1025.0,1024.0,1025.0,1026.0,1025.0,1024.0,1026.0,1025.0,1027.0,1028.0,1026.0,1025.0,1029.0,1027.0,1030.0,1032.0,1029.0,1025.0,1030.0,1029.0,1030.0,1035.0,1029.0,1026.0,1030.0,1030.0,1028.0,1035.0,1030.0,1028.0,1033.0,1033.0,1030.0,1038.0,1032.0,1029.0,1035.0,1034.0,1030.0,1040.0,1032.0,1029.0,1033.0,1032.0,1028.0,1038.0,1031.0,1032.0,1036.0,1034.0,1029.0,1038.0,1031.0,1022.0,1024.0,1023.0,1023.0,1024.0,1021.0,1035.0,1042.0,1035.0,1031.0,1041.0,1033.0,1032.0,1040.0,1036.0,1034.0,1043.0,1032.0,1028.0,1035.0,1030.0,1029.0,1035.0,1951,2007,1909,	00:32:35.206,0.056640625,0.04345703125,1.01708984375,-0.3662109375,0.244140625,0.06103515625,2.4664306640625,-3.175048828125,55.7281494140625,460.0,-1595.0,-2577.0,0.88323974609375,0.031951904296875,-0.014434814453125,0.467620849609375,2.4667405027450835,-3.1737900911021075,51.11922464837791,0.9013247765533181,0.03135616286450731,-0.015693817929517552,0.4317222976640435,1,	00:32:35.207,0.00537109375,0.0830078125,1.00439453125,-0.732421875,-1.03759765625,-0.54931640625,4.7076416015625,-0.3240966796875,83.1390380859375,-361.0,-1323.0,-1939.0,-0.7474365234375,-0.0325927734375,-0.025115966796875,-0.663055419921875,4.705386978350591,-0.3267526815684945,84.49437350683614,-0.7395454501038446,-0.03230321240526413,-0.025490519464871585,-0.6718476487392162,1
1782117462.434884,0.288,1023.0,1024.0,1023.0,1023.0,1023.0,1022.0,1022.0,1023.0,1023.0,1023.0,1024.0,1023.0,1023.0,1024.0,1023.0,1023.0,1023.0,1024.0,1023.0,1023.0,1024.0,1023.0,1023.0,1023.0,1023.0,1024.0,1023.0,1024.0,1024.0,1023.0,1023.0,1023.0,1022.0,1022.0,1024.0,1024.0,1023.0,1024.0,1024.0,1023.0,1023.0,1022.0,1023.0,1024.0,1023.0,1023.0,1024.0,1023.0,1023.0,1023.0,1023.0,1023.0,1023.0,1023.0,1023.0,1023.0,1024.0,1023.0,1023.0,1022.0,1022.0,1023.0,1023.0,1024.0,1023.0,1023.0,1023.0,1024.0,1022.0,1022.0,1022.0,1023.0,1023.0,1023.0,1023.0,1023.0,1024.0,1023.0,1023.0,1022.0,1022.0,1023.0,1022.0,1023.0,1023.0,1023.0,1023.0,1023.0,1023.0,1023.0,1023.0,1023.0,1023.0,1024.0,1024.0,1024.0,1024.0,1024.0,1023.0,1024.0,1023.0,1024.0,1022.0,1024.0,1024.0,1024.0,1024.0,1024.0,1024.0,1023.0,1022.0,1023.0,1022.0,1024.0,1023.0,1023.0,1024.0,1023.0,1023.0,1021.0,1023.0,1023.0,1024.0,1023.0,1024.0,1024.0,1024.0,1023.0,1022.0,1023.0,1024.0,1023.0,1023.0,1024.0,1024.0,1024.0,1024.0,1024.0,1024.0,1024.0,1025.0,1024.0,1024.0,1023.0,1024.0,1023.0,1024.0,1025.0,1024.0,1024.0,1023.0,1024.0,1024.0,1024.0,1025.0,1024.0,1023.0,1025.0,1024.0,1025.0,1026.0,1025.0,1024.0,1026.0,1025.0,1027.0,1029.0,1027.0,1025.0,1029.0,1028.0,1030.0,1032.0,1029.0,1025.0,1030.0,1029.0,1030.0,1035.0,1030.0,1026.0,1030.0,1030.0,1029.0,1035.0,1030.0,1027.0,1033.0,1033.0,1030.0,1038.0,1032.0,1029.0,1035.0,1034.0,1029.0,1039.0,1032.0,1028.0,1033.0,1031.0,1028.0,1037.0,1030.0,1032.0,1037.0,1034.0,1029.0,1040.0,1031.0,1023.0,1023.0,1022.0,1022.0,1024.0,1021.0,1034.0,1042.0,1035.0,1031.0,1041.0,1033.0,1031.0,1040.0,1036.0,1033.0,1043.0,1033.0,1028.0,1036.0,1030.0,1030.0,1036.0,1951,2007,1909,	00:32:35.216,0.05712890625,0.04296875,1.01708984375,-0.3662109375,0.30517578125,0.06103515625,2.3895263671875,-3.22998046875,55.733642578125,459.0,-1592.0,-2571.0,0.883209228515625,0.0316162109375,-0.01513671875,0.4676513671875,2.3914745882800443,-3.228201571614396,51.12396465510496,0.9013110839269409,0.030969318549806727,-0.01640431738873041,0.4317523939366324,1,	00:32:35.218,0.00537109375,0.083984375,1.00390625,-0.732421875,-0.91552734375,-0.54931640625,4.7845458984375,-0.3131103515625,83.133544921875,-361.0,-1326.0,-1936.0,-0.747467041015625,-0.033050537109375,-0.025665283203125,-0.662994384765625,4.786166466258042,-0.31098985832095216,84.48765698462266,-0.7395660157057617,-0.032733672180454455,-0.026063950752470432,-0.6717821712354833,1
1782117462.446231,0.299,1023.0,1023.0,1024.0,1023.0,1023.0,1022.0,1023.0,1024.0,1023.0,1023.0,1024.0,1023.0,1023.0,1024.0,1023.0,1023.0,1022.0,1024.0,1023.0,1023.0,1024.0,1023.0,1023.0,1022.0,1023.0,1024.0,1023.0,1023.0,1023.0,1024.0,1023.0,1023.0,1022.0,1023.0,1024.0,1023.0,1023.0,1024.0,1023.0,1023.0,1023.0,1023.0,1023.0,1023.0,1023.0,1023.0,1023.0,1023.0,1023.0,1022.0,1023.0,1023.0,1023.0,1023.0,1023.0,1023.0,1024.0,1024.0,1023.0,1023.0,1022.0,1023.0,1023.0,1023.0,1023.0,1023.0,1024.0,1023.0,1023.0,1022.0,1022.0,1023.0,1023.0,1023.0,1023.0,1022.0,1024.0,1023.0,1023.0,1022.0,1022.0,1023.0,1022.0,1024.0,1023.0,1024.0,1024.0,1023.0,1024.0,1024.0,1023.0,1023.0,1023.0,1024.0,1024.0,1023.0,1024.0,1024.0,1024.0,1024.0,1023.0,1023.0,1023.0,1024.0,1023.0,1024.0,1024.0,1024.0,1024.0,1024.0,1022.0,1023.0,1022.0,1024.0,1023.0,1023.0,1024.0,1023.0,1023.0,1021.0,1022.0,1023.0,1024.0,1023.0,1024.0,1024.0,1024.0,1023.0,1022.0,1023.0,1024.0,1023.0,1023.0,1024.0,1023.0,1024.0,1023.0,1024.0,1024.0,1024.0,1025.0,1024.0,1024.0,1023.0,1024.0,1023.0,1024.0,1024.0,1024.0,1024.0,1023.0,1024.0,1024.0,1024.0,1025.0,1024.0,1024.0,1025.0,1024.0,1025.0,1026.0,1025.0,1024.0,1027.0,1025.0,1027.0,1028.0,1026.0,1025.0,1029.0,1027.0,1030.0,1032.0,1029.0,1026.0,1030.0,1029.0,1030.0,1035.0,1029.0,1025.0,1029.0,1030.0,1028.0,1035.0,1030.0,1027.0,1033.0,1033.0,1030.0,1039.0,1032.0,1029.0,1035.0,1034.0,1029.0,1040.0,1031.0,1028.0,1032.0,1032.0,1028.0,1038.0,1030.0,1032.0,1036.0,1034.0,1029.0,1039.0,1031.0,1022.0,1024.0,1022.0,1024.0,1024.0,1021.0,1035.0,1042.0,1036.0,1031.0,1042.0,1033.0,1031.0,1040.0,1035.0,1033.0,1043.0,1032.0,1028.0,1035.0,1031.0,1030.0,1035.0,1951,2007,1909,	00:32:35.227,0.056640625,0.04248046875,1.0185546875,-0.42724609375,0.30517578125,0.06103515625,2.3785400390625,-3.1365966796875,55.733642578125,460.0,-1597.0,-2575.0,0.88323974609375,0.0311279296875,-0.01446533203125,0.4676513671875,2.380998478482142,-3.1338661069103146,51.1250414044375,0.9013378406147282,0.030532494489173702,-0.015701089879036234,0.4317537951574461,1,	00:32:35.228,0.005859375,0.083984375,1.00341796875,-0.79345703125,-0.91552734375,-0.54931640625,4.7735595703125,-0.4119873046875,83.1280517578125,-360.0,-1322.0,-1941.0,-0.747467041015625,-0.03350830078125,-0.024932861328125,-0.6629638671875,4.771100007664719,-0.41104804255889504,84.48147103609563,-0.7395801095029731,-0.03322422739840126,-0.025327916533915557,-0.6717707265022796,1
1782117462.455688,0.308,1024.0,1023.0,1023.0,1022.0,1023.0,1022.0,1023.0,1024.0,1023.0,1023.0,1024.0,1023.0,1023.0,1024.0,1023.0,1023.0,1023.0,1024.0,1023.0,1023.0,1024.0,1023.0,1023.0,1023.0,1023.0,1024.0,1023.0,1024.0,1024.0,1023.0,1023.0,1024.0,1022.0,1023.0,1024.0,1023.0,1023.0,1024.0,1023.0,1023.0,1023.0,1023.0,1023.0,1024.0,1023.0,1023.0,1024.0,1023.0,1023.0,1023.0,1023.0,1023.0,1022.0,1024.0,1023.0,1023.0,1024.0,1023.0,1023.0,1023.0,1022.0,1023.0,1022.0,1023.0,1023.0,1023.0,1024.0,1023.0,1023.0,1022.0,1022.0,1023.0,1022.0,1023.0,1023.0,1023.0,1023.0,1023.0,1023.0,1022.0,1022.0,1023.0,1023.0,1024.0,1023.0,1023.0,1024.0,1023.0,1023.0,1022.0,1022.0,1023.0,1023.0,1024.0,1024.0,1024.0,1024.0,1024.0,1023.0,1024.0,1023.0,1023.0,1023.0,1024.0,1024.0,1024.0,1024.0,1024.0,1023.0,1024.0,1022.0,1023.0,1022.0,1023.0,1023.0,1023.0,1023.0,1023.0,1023.0,1021.0,1022.0,1023.0,1024.0,1023.0,1023.0,1024.0,1024.0,1024.0,1022.0,1023.0,1024.0,1023.0,1023.0,1024.0,1023.0,1023.0,1024.0,1025.0,1024.0,1024.0,1025.0,1024.0,1024.0,1023.0,1024.0,1023.0,1024.0,1025.0,1024.0,1024.0,1023.0,1024.0,1024.0,1024.0,1025.0,1024.0,1024.0,1024.0,1024.0,1025.0,1026.0,1025.0,1024.0,1027.0,1025.0,1027.0,1028.0,1026.0,1025.0,1029.0,1027.0,1030.0,1032.0,1029.0,1025.0,1030.0,1029.0,1030.0,1035.0,1029.0,1026.0,1030.0,1029.0,1029.0,1036.0,1030.0,1028.0,1032.0,1032.0,1030.0,1039.0,1032.0,1028.0,1034.0,1034.0,1030.0,1040.0,1032.0,1029.0,1032.0,1032.0,1028.0,1038.0,1030.0,1033.0,1036.0,1035.0,1030.0,1040.0,1032.0,1022.0,1024.0,1023.0,1022.0,1025.0,1021.0,1035.0,1040.0,1035.0,1031.0,1042.0,1033.0,1032.0,1038.0,1036.0,1034.0,1044.0,1033.0,1028.0,1034.0,1031.0,1031.0,1036.0,1950,2006,1909,	00:32:35.237,0.05712890625,0.0419921875,1.0166015625,-0.3662109375,0.3662109375,0.0,2.362060546875,-3.218994140625,55.733642578125,459.0,-1597.0,-2575.0,0.883209228515625,0.03131103515625,-0.01519775390625,0.4676513671875,2.3596955858567865,-3.2200736608293434,51.126173724956175,0.9013137441522963,0.03068912990483653,-0.016459494884716836,0.4317647472131012,1,	00:32:35.238,0.00537109375,0.08349609375,1.00439453125,-0.91552734375,-0.79345703125,-0.54931640625,4.74609375,-0.32958984375,83.12255859375,-361.0,-1324.0,-1940.0,-0.747528076171875,-0.032867431640625,-0.02532958984375,-0.662933349609375,4.7457833983597775,-0.3282896792499341,84.47543465620308,-0.7396446412464127,-0.032577177708181575,-0.02571205600353604,-0.6717167724153582,1
1782117462.465543,0.318,1023.0,1023.0,1023.0,1023.0,1023.0,1023.0,1023.0,1024.0,1022.0,1023.0,1024.0,1023.0,1023.0,1024.0,1023.0,1023.0,1023.0,1023.0,1023.0,1023.0,1024.0,1023.0,1023.0,1023.0,1023.0,1024.0,1024.0,1023.0,1024.0,1023.0,1023.0,1023.0,1023.0,1023.0,1024.0,1023.0,1023.0,1024.0,1024.0,1023.0,1024.0,1022.0,1023.0,1023.0,1023.0,1023.0,1024.0,1023.0,1024.0,1023.0,1022.0,1024.0,1024.0,1024.0,1023.0,1023.0,1024.0,1023.0,1023.0,1023.0,1023.0,1023.0,1023.0,1024.0,1023.0,1023.0,1024.0,1023.0,1023.0,1023.0,1022.0,1023.0,1023.0,1023.0,1023.0,1023.0,1024.0,1023.0,1023.0,1022.0,1023.0,1023.0,1023.0,1023.0,1023.0,1023.0,1024.0,1023.0,1023.0,1023.0,1022.0,1024.0,1023.0,1024.0,1024.0,1023.0,1024.0,1024.0,1024.0,1024.0,1023.0,1023.0,1023.0,1024.0,1024.0,1024.0,1024.0,1024.0,1024.0,1024.0,1022.0,1023.0,1022.0,1023.0,1023.0,1023.0,1024.0,1023.0,1023.0,1021.0,1022.0,1023.0,1024.0,1023.0,1023.0,1024.0,1024.0,1023.0,1023.0,1023.0,1024.0,1023.0,1024.0,1024.0,1023.0,1023.0,1024.0,1024.0,1024.0,1024.0,1025.0,1024.0,1024.0,1024.0,1024.0,1024.0,1024.0,1025.0,1024.0,1024.0,1023.0,1024.0,1024.0,1024.0,1025.0,1024.0,1023.0,1024.0,1024.0,1025.0,1026.0,1025.0,1025.0,1026.0,1025.0,1027.0,1028.0,1026.0,1024.0,1029.0,1027.0,1030.0,1032.0,1029.0,1026.0,1029.0,1029.0,1030.0,1035.0,1029.0,1026.0,1030.0,1030.0,1029.0,1036.0,1030.0,1028.0,1031.0,1033.0,1030.0,1039.0,1032.0,1029.0,1033.0,1034.0,1029.0,1040.0,1032.0,1029.0,1031.0,1032.0,1028.0,1038.0,1031.0,1034.0,1036.0,1036.0,1030.0,1042.0,1032.0,1023.0,1023.0,1023.0,1023.0,1025.0,1021.0,1035.0,1040.0,1036.0,1031.0,1042.0,1032.0,1032.0,1038.0,1036.0,1034.0,1044.0,1032.0,1028.0,1034.0,1031.0,1030.0,1036.0,1950,2006,1909,	00:32:35.247,0.05615234375,0.04345703125,1.0185546875,-0.3662109375,0.3662109375,0.06103515625,2.427978515625,-3.1585693359375,55.733642578125,459.0,-1595.0,-2577.0,0.88323974609375,0.031585693359375,-0.01446533203125,0.4676513671875,2.427328678638099,-3.1587287401061284,51.12296454302538,0.9013258931460816,0.030990074883964575,-0.015722755389076793,0.4317453468956901,1,	00:32:35.248,0.00390625,0.08447265625,1.00390625,-0.732421875,-0.79345703125,-0.54931640625,4.7845458984375,-0.2581787109375,83.111572265625,-361.0,-1325.0,-1938.0,-0.747589111328125,-0.032745361328125,-0.026031494140625,-0.662841796875,4.785784257613066,-0.2572873325521343,84.46905777248884,-0.7396891629039863,-0.03242074033705125,-0.026403109240433913,-0.6716485045772342,1
1782117462.476543,0.329,1023.0,1023.0,1023.0,1022.0,1023.0,1023.0,1022.0,1024.0,1022.0,1023.0,1023.0,1023.0,1023.0,1023.0,1023.0,1023.0,1023.0,1023.0,1023.0,1024.0,1023.0,1023.0,1023.0,1022.0,1023.0,1024.0,1023.0,1023.0,1024.0,1023.0,1022.0,1024.0,1022.0,1023.0,1024.0,1023.0,1023.0,1024.0,1023.0,1023.0,1023.0,1022.0,1023.0,1024.0,1022.0,1023.0,1024.0,1023.0,1023.0,1023.0,1022.0,1023.0,1023.0,1023.0,1023.0,1023.0,1024.0,1023.0,1023.0,1022.0,1023.0,1023.0,1023.0,1024.0,1023.0,1023.0,1024.0,1023.0,1022.0,1022.0,1022.0,1023.0,1023.0,1023.0,1023.0,1023.0,1024.0,1023.0,1023.0,1022.0,1022.0,1023.0,1023.0,1024.0,1024.0,1023.0,1024.0,1023.0,1023.0,1023.0,1022.0,1023.0,1023.0,1024.0,1024.0,1024.0,1024.0,1024.0,1023.0,1024.0,1023.0,1023.0,1023.0,1024.0,1024.0,1024.0,1025.0,1024.0,1024.0,1024.0,1023.0,1023.0,1022.0,1024.0,1022.0,1023.0,1024.0,1023.0,1022.0,1021.0,1022.0,1023.0,1024.0,1023.0,1023.0,1024.0,1024.0,1023.0,1023.0,1022.0,1024.0,1023.0,1023.0,1024.0,1024.0,1023.0,1023.0,1024.0,1024.0,1024.0,1024.0,1024.0,1024.0,1024.0,1024.0,1024.0,1023.0,1025.0,1024.0,1024.0,1023.0,1024.0,1024.0,1024.0,1025.0,1024.0,1024.0,1025.0,1024.0,1025.0,1026.0,1025.0,1024.0,1026.0,1025.0,1027.0,1028.0,1026.0,1025.0,1028.0,1028.0,1030.0,1032.0,1029.0,1025.0,1029.0,1030.0,1030.0,1035.0,1029.0,1025.0,1029.0,1030.0,1029.0,1036.0,1031.0,1027.0,1031.0,1033.0,1030.0,1039.0,1032.0,1028.0,1033.0,1035.0,1030.0,1040.0,1032.0,1030.0,1032.0,1032.0,1028.0,1037.0,1031.0,1034.0,1035.0,1035.0,1030.0,1042.0,1032.0,1024.0,1023.0,1023.0,1023.0,1025.0,1022.0,1036.0,1039.0,1036.0,1031.0,1042.0,1033.0,1032.0,1038.0,1036.0,1034.0,1043.0,1033.0,1029.0,1034.0,1031.0,1031.0,1035.0,1950,2006,1909,	00:32:35.257,0.05810546875,0.04150390625,1.01806640625,-0.42724609375,0.3662109375,0.06103515625,2.362060546875,-3.2244873046875,55.7391357421875,461.0,-1596.0,-2576.0,0.883209228515625,0.0313720703125,-0.015228271484375,0.467681884765625,2.3623084743269915,-3.2238602593375463,51.12711251807952,0.901308375201923,0.030724049269699173,-0.016479197951862035,0.43177271986799515,1,	00:32:35.259,0.005859375,0.08349609375,1.00439453125,-0.732421875,-0.67138671875,-0.48828125,4.7406005859375,-0.3460693359375,83.1060791015625,-360.0,-1321.0,-1938.0,-0.747589111328125,-0.032958984375,-0.025177001953125,-0.662841796875,4.741294148481866,-0.34731964322063674,84.4638336141842,-0.7397089374671407,-0.03266231014718193,-0.025559576046804047,-0.6716476527163558,1
1782117462.486089,0.339,1024.0,1023.0,1023.0,1022.0,1023.0,1022.0,1023.0,1023.0,1022.0,1023.0,1024.0,1023.0,1023.0,1024.0,1023.0,1023.0,1023.0,1023.0,1023.0,1023.0,1024.0,1023.0,1023.0,1023.0,1023.0,1024.0,1024.0,1023.0,1024.0,1023.0,1023.0,1023.0,1023.0,1023.0,1024.0,1023.0,1023.0,1024.0,1023.0,1023.0,1023.0,1023.0,1023.0,1023.0,1023.0,1023.0,1024.0,1023.0,1024.0,1022.0,1023.0,1023.0,1023.0,1023.0,1023.0,1023.0,1024.0,1023.0,1023.0,1023.0,1022.0,1023.0,1023.0,1023.0,1023.0,1023.0,1024.0,1024.0,1023.0,1022.0,1022.0,1023.0,1023.0,1024.0,1023.0,1023.0,1024.0,1023.0,1023.0,1022.0,1022.0,1023.0,1023.0,1024.0,1023.0,1023.0,1024.0,1023.0,1023.0,1023.0,1023.0,1023.0,1023.0,1024.0,1024.0,1023.0,1024.0,1024.0,1024.0,1024.0,1023.0,1023.0,1024.0,1024.0,1024.0,1024.0,1024.0,1024.0,1023.0,1024.0,1023.0,1023.0,1022.0,1024.0,1023.0,1023.0,1024.0,1023.0,1023.0,1021.0,1022.0,1023.0,1024.0,1024.0,1023.0,1024.0,1024.0,1023.0,1023.0,1023.0,1024.0,1023.0,1023.0,1024.0,1023.0,1023.0,1023.0,1024.0,1024.0,1024.0,1025.0,1024.0,1024.0,1023.0,1024.0,1024.0,1024.0,1025.0,1023.0,1024.0,1023.0,1024.0,1023.0,1024.0,1025.0,1025.0,1023.0,1025.0,1024.0,1025.0,1026.0,1025.0,1024.0,1026.0,1025.0,1027.0,1027.0,1026.0,1025.0,1028.0,1028.0,1030.0,1032.0,1029.0,1025.0,1029.0,1029.0,1030.0,1035.0,1029.0,1025.0,1029.0,1030.0,1029.0,1036.0,1030.0,1028.0,1032.0,1033.0,1030.0,1039.0,1031.0,1029.0,1033.0,1034.0,1030.0,1040.0,1032.0,1029.0,1031.0,1032.0,1028.0,1038.0,1031.0,1034.0,1035.0,1035.0,1030.0,1041.0,1032.0,1023.0,1023.0,1022.0,1023.0,1024.0,1022.0,1035.0,1040.0,1035.0,1031.0,1042.0,1033.0,1032.0,1039.0,1036.0,1033.0,1043.0,1033.0,1029.0,1035.0,1031.0,1030.0,1036.0,1951,2006,1910,	00:32:35.268,0.05859375,0.04248046875,1.0185546875,-0.48828125,0.48828125,0.1220703125,2.3895263671875,-3.3013916015625,55.7391357421875,461.0,-1598.0,-2575.0,0.8831787109375,0.03192138671875,-0.0157470703125,0.467681884765625,2.3909292437929115,-3.3041256255048714,51.12662696883764,0.9012782075926679,0.03125077773246159,-0.017003153330450698,0.4317775748999544,1,	00:32:35.269,0.00537109375,0.08349609375,1.0009765625,-0.48828125,-0.48828125,-0.732421875,4.7845458984375,-0.274658203125,83.1005859375,-361.0,-1324.0,-1939.0,-0.747650146484375,-0.0328369140625,-0.025909423828125,-0.66278076171875,4.786842138191498,-0.27508680917508493,84.45585425967668,-0.7397616210428832,-0.03253490343632227,-0.026290645582040473,-0.6715675885905115,1
1782117462.496266,0.349,1023.0,1023.0,1023.0,1023.0,1023.0,1023.0,1023.0,1024.0,1022.0,1023.0,1024.0,1023.0,1023.0,1023.0,1023.0,1023.0,1023.0,1024.0,1023.0,1022.0,1024.0,1023.0,1023.0,1023.0,1023.0,1024.0,1024.0,1023.0,1024.0,1023.0,1023.0,1024.0,1022.0,1023.0,1024.0,1023.0,1023.0,1024.0,1023.0,1023.0,1023.0,1022.0,1023.0,1024.0,1023.0,1023.0,1024.0,1024.0,1023.0,1023.0,1022.0,1023.0,1023.0,1024.0,1023.0,1023.0,1024.0,1023.0,1023.0,1022.0,1022.0,1023.0,1022.0,1023.0,1023.0,1023.0,1024.0,1023.0,1023.0,1022.0,1022.0,1024.0,1023.0,1024.0,1023.0,1023.0,1024.0,1023.0,1022.0,1022.0,1022.0,1023.0,1023.0,1024.0,1023.0,1023.0,1024.0,1023.0,1023.0,1022.0,1023.0,1023.0,1023.0,1024.0,1024.0,1024.0,1024.0,1024.0,1024.0,1024.0,1023.0,1023.0,1023.0,1025.0,1023.0,1024.0,1024.0,1024.0,1024.0,1024.0,1023.0,1024.0,1022.0,1023.0,1023.0,1023.0,1024.0,1023.0,1023.0,1020.0,1022.0,1023.0,1024.0,1023.0,1023.0,1024.0,1024.0,1023.0,1023.0,1023.0,1024.0,1023.0,1023.0,1024.0,1023.0,1023.0,1023.0,1025.0,1024.0,1024.0,1025.0,1024.0,1024.0,1023.0,1024.0,1024.0,1024.0,1025.0,1024.0,1024.0,1023.0,1024.0,1024.0,1024.0,1025.0,1024.0,1024.0,1025.0,1024.0,1025.0,1026.0,1026.0,1024.0,1026.0,1025.0,1026.0,1027.0,1027.0,1024.0,1028.0,1027.0,1030.0,1032.0,1029.0,1025.0,1028.0,1030.0,1030.0,1035.0,1030.0,1026.0,1029.0,1031.0,1029.0,1035.0,1031.0,1027.0,1031.0,1033.0,1030.0,1037.0,1032.0,1028.0,1032.0,1034.0,1029.0,1039.0,1032.0,1028.0,1031.0,1032.0,1028.0,1038.0,1030.0,1033.0,1035.0,1035.0,1030.0,1040.0,1032.0,1023.0,1023.0,1023.0,1023.0,1025.0,1021.0,1035.0,1040.0,1036.0,1031.0,1041.0,1033.0,1032.0,1039.0,1036.0,1033.0,1042.0,1033.0,1029.0,1034.0,1030.0,1030.0,1035.0,1951,2006,1910,	00:32:35.278,0.05810546875,0.04248046875,1.0166015625,-0.48828125,0.54931640625,0.1220703125,2.3895263671875,-3.2080078125,55.7391357421875,459.0,-1595.0,-2575.0,0.883209228515625,0.031524658203125,-0.014984130859375,0.467681884765625,2.390784495371658,-3.2072771932326885,51.12780020852882,0.9013030855246802,0.030885789576785238,-0.016241211708798504,0.43178123982885097,1,	00:32:35.279,0.00537109375,0.08251953125,1.00634765625,-0.48828125,-0.18310546875,-0.6103515625,4.6966552734375,-0.3021240234375,83.0950927734375,-359.0,-1324.0,-1935.0,-0.747711181640625,-0.03240966796875,-0.025177001953125,-0.662750244140625,4.694434045571894,-0.30262813117079795,84.45006134450063,-0.73981450337173,-0.03210100832940386,-0.025569618118720775,-0.671558054448265,1
1782117462.506109,0.359,1023.0,1023.0,1023.0,1023.0,1024.0,1023.0,1023.0,1024.0,1022.0,1023.0,1024.0,1023.0,1023.0,1024.0,1023.0,1023.0,1023.0,1024.0,1023.0,1023.0,1024.0,1023.0,1023.0,1023.0,1023.0,1024.0,1024.0,1023.0,1024.0,1023.0,1023.0,1023.0,1022.0,1022.0,1024.0,1023.0,1023.0,1024.0,1023.0,1023.0,1023.0,1023.0,1022.0,1024.0,1023.0,1023.0,1024.0,1024.0,1023.0,1023.0,1022.0,1023.0,1023.0,1024.0,1023.0,1023.0,1024.0,1023.0,1023.0,1023.0,1022.0,1023.0,1023.0,1024.0,1022.0,1023.0,1023.0,1023.0,1023.0,1021.0,1022.0,1023.0,1023.0,1024.0,1023.0,1023.0,1024.0,1023.0,1023.0,1022.0,1022.0,1023.0,1023.0,1024.0,1023.0,1023.0,1024.0,1024.0,1023.0,1023.0,1023.0,1023.0,1023.0,1025.0,1024.0,1023.0,1024.0,1023.0,1023.0,1023.0,1023.0,1023.0,1023.0,1025.0,1024.0,1023.0,1024.0,1023.0,1023.0,1023.0,1022.0,1023.0,1022.0,1024.0,1023.0,1023.0,1024.0,1023.0,1023.0,1021.0,1022.0,1023.0,1024.0,1023.0,1023.0,1024.0,1024.0,1023.0,1023.0,1023.0,1024.0,1023.0,1023.0,1024.0,1023.0,1024.0,1023.0,1024.0,1024.0,1024.0,1025.0,1024.0,1024.0,1023.0,1024.0,1024.0,1024.0,1025.0,1024.0,1024.0,1024.0,1024.0,1024.0,1023.0,1025.0,1024.0,1024.0,1024.0,1024.0,1025.0,1026.0,1025.0,1024.0,1026.0,1026.0,1026.0,1028.0,1026.0,1024.0,1028.0,1028.0,1029.0,1032.0,1029.0,1025.0,1029.0,1030.0,1029.0,1034.0,1030.0,1026.0,1028.0,1031.0,1028.0,1035.0,1031.0,1027.0,1031.0,1033.0,1029.0,1038.0,1032.0,1029.0,1033.0,1034.0,1029.0,1039.0,1032.0,1028.0,1031.0,1032.0,1028.0,1038.0,1031.0,1033.0,1036.0,1036.0,1030.0,1040.0,1032.0,1023.0,1024.0,1023.0,1022.0,1024.0,1021.0,1035.0,1041.0,1035.0,1030.0,1042.0,1034.0,1032.0,1039.0,1035.0,1033.0,1043.0,1033.0,1029.0,1034.0,1030.0,1030.0,1035.0,1951,2006,1910,	00:32:35.288,0.056640625,0.04345703125,1.017578125,-0.42724609375,0.54931640625,0.06103515625,2.471923828125,-3.1640625,55.733642578125,459.0,-1596.0,-2574.0,0.883209228515625,0.031951904296875,-0.01434326171875,0.4676513671875,2.4703481363566158,-3.1645702843240406,51.12397697083781,0.9013086385411891,0.03135053710442433,-0.015606365857151985,0.4317595664939282,1,	00:32:35.289,0.0048828125,0.08447265625,1.00341796875,-0.732421875,-0.48828125,-0.79345703125,4.779052734375,-0.28564453125,83.0841064453125,-360.0,-1323.0,-1941.0,-0.74774169921875,-0.032867431640625,-0.0257568359375,-0.662689208984375,4.77657214627501,-0.28799048559856344,84.44129238287441,-0.7398465106587837,-0.03254753217160876,-0.026143004942550428,-0.6714792194164568,1
1782117462.517722,0.370,1023.0,1023.0,1023.0,1023.0,1024.0,1023.0,1023.0,1023.0,1022.0,1023.0,1024.0,1023.0,1023.0,1024.0,1023.0,1023.0,1023.0,1024.0,1023.0,1023.0,1024.0,1023.0,1023.0,1023.0,1023.0,1023.0,1024.0,1023.0,1024.0,1024.0,1023.0,1023.0,1023.0,1023.0,1023.0,1023.0,1023.0,1024.0,1023.0,1024.0,1023.0,1023.0,1023.0,1024.0,1024.0,1023.0,1024.0,1023.0,1024.0,1023.0,1023.0,1023.0,1023.0,1024.0,1023.0,1023.0,1024.0,1024.0,1023.0,1022.0,1023.0,1023.0,1022.0,1023.0,1023.0,1023.0,1024.0,1023.0,1023.0,1022.0,1022.0,1023.0,1023.0,1024.0,1023.0,1023.0,1024.0,1023.0,1023.0,1023.0,1022.0,1023.0,1022.0,1024.0,1023.0,1023.0,1024.0,1023.0,1023.0,1023.0,1023.0,1023.0,1022.0,1024.0,1024.0,1024.0,1024.0,1024.0,1024.0,1024.0,1022.0,1023.0,1023.0,1024.0,1024.0,1023.0,1024.0,1024.0,1024.0,1024.0,1023.0,1023.0,1022.0,1023.0,1022.0,1023.0,1024.0,1023.0,1023.0,1021.0,1021.0,1023.0,1024.0,1024.0,1023.0,1024.0,1023.0,1023.0,1022.0,1023.0,1024.0,1023.0,1024.0,1024.0,1023.0,1023.0,1023.0,1024.0,1024.0,1024.0,1025.0,1024.0,1024.0,1023.0,1025.0,1024.0,1024.0,1025.0,1024.0,1024.0,1023.0,1024.0,1024.0,1024.0,1025.0,1024.0,1023.0,1024.0,1024.0,1025.0,1025.0,1025.0,1024.0,1026.0,1025.0,1026.0,1028.0,1026.0,1025.0,1028.0,1027.0,1029.0,1031.0,1029.0,1025.0,1030.0,1030.0,1029.0,1035.0,1029.0,1025.0,1029.0,1030.0,1028.0,1036.0,1030.0,1026.0,1031.0,1032.0,1029.0,1038.0,1032.0,1028.0,1033.0,1034.0,1030.0,1039.0,1032.0,1028.0,1031.0,1032.0,1028.0,1037.0,1030.0,1033.0,1036.0,1036.0,1031.0,1042.0,1033.0,1023.0,1023.0,1022.0,1023.0,1024.0,1022.0,1035.0,1040.0,1035.0,1030.0,1042.0,1033.0,1032.0,1039.0,1035.0,1033.0,1043.0,1033.0,1028.0,1034.0,1030.0,1030.0,1036.0,1951,2005,1909,	00:32:35.298,0.056640625,0.04296875,1.01708984375,-0.54931640625,0.6103515625,0.0,2.3785400390625,-3.1915283203125,55.7391357421875,459.0,-1596.0,-2576.0,0.883209228515625,0.0313720703125,-0.014923095703125,0.467681884765625,2.3793700263123116,-3.1919106118387037,51.12898043820146,0.9013062879810231,0.030738416271012606,-0.016162973391290292,0.4317880073626079,1,	00:32:35.299,0.00439453125,0.083984375,1.0048828125,-0.732421875,-0.06103515625,-0.54931640625,4.7735595703125,-0.19775390625,83.07861328125,-359.0,-1325.0,-1936.0,-0.747802734375,-0.03228759765625,-0.026336669921875,-0.662628173828125,4.771409506820992,-0.19649346720677868,84.43575254156777,-0.739904020238967,-0.0319794528661837,-0.02670205154406058,-0.6714211464289251,1
1782117462.527804,0.380,1023.0,1023.0,1024.0,1023.0,1023.0,1023.0,1023.0,1024.0,1022.0,1023.0,1024.0,1023.0,1023.0,1023.0,1022.0,1024.0,1022.0,1024.0,1023.0,1024.0,1023.0,1022.0,1023.0,1023.0,1023.0,1024.0,1023.0,1024.0,1023.0,1023.0,1024.0,1024.0,1023.0,1022.0,1024.0,1023.0,1023.0,1024.0,1023.0,1024.0,1024.0,1023.0,1023.0,1023.0,1023.0,1023.0,1024.0,1023.0,1023.0,1023.0,1023.0,1023.0,1023.0,1023.0,1023.0,1023.0,1024.0,1023.0,1023.0,1023.0,1022.0,1023.0,1022.0,1023.0,1023.0,1023.0,1024.0,1023.0,1023.0,1022.0,1022.0,1023.0,1023.0,1023.0,1023.0,1022.0,1023.0,1023.0,1023.0,1022.0,1022.0,1023.0,1023.0,1023.0,1023.0,1023.0,1024.0,1024.0,1024.0,1024.0,1022.0,1024.0,1023.0,1024.0,1024.0,1024.0,1024.0,1024.0,1024.0,1024.0,1023.0,1024.0,1023.0,1024.0,1024.0,1024.0,1024.0,1023.0,1024.0,1024.0,1023.0,1023.0,1022.0,1023.0,1023.0,1023.0,1024.0,1023.0,1023.0,1021.0,1022.0,1023.0,1024.0,1023.0,1023.0,1024.0,1023.0,1023.0,1023.0,1023.0,1024.0,1023.0,1024.0,1024.0,1023.0,1023.0,1023.0,1024.0,1023.0,1024.0,1024.0,1024.0,1024.0,1023.0,1024.0,1024.0,1024.0,1025.0,1024.0,1024.0,1023.0,1025.0,1024.0,1024.0,1025.0,1024.0,1023.0,1024.0,1024.0,1024.0,1026.0,1025.0,1024.0,1026.0,1025.0,1026.0,1028.0,1026.0,1024.0,1028.0,1028.0,1028.0,1032.0,1028.0,1025.0,1029.0,1029.0,1029.0,1035.0,1030.0,1026.0,1029.0,1030.0,1028.0,1036.0,1030.0,1027.0,1031.0,1033.0,1029.0,1038.0,1032.0,1028.0,1033.0,1033.0,1029.0,1039.0,1032.0,1028.0,1031.0,1031.0,1028.0,1037.0,1030.0,1033.0,1036.0,1036.0,1030.0,1041.0,1033.0,1023.0,1024.0,1023.0,1023.0,1024.0,1022.0,1035.0,1040.0,1035.0,1032.0,1041.0,1033.0,1032.0,1039.0,1036.0,1034.0,1043.0,1033.0,1028.0,1034.0,1030.0,1030.0,1036.0,1951,2005,1909,	00:32:35.309,0.0537109375,0.0400390625,1.0185546875,-0.54931640625,0.6103515625,0.1220703125,2.318115234375,-3.1146240234375,55.74462890625,459.0,-1597.0,-2572.0,0.88323974609375,0.03057861328125,-0.0145263671875,0.46771240234375,2.3198377804594688,-3.1119568603962167,51.13341871373865,0.9013288112315426,0.029970216296309936,-0.015756910347914738,0.4318100044642024,1,	00:32:35.310,0.0029296875,0.08447265625,1.00390625,-0.67138671875,-0.06103515625,-0.54931640625,4.8394775390625,-0.142822265625,83.0731201171875,-358.0,-1326.0,-1938.0,-0.747833251953125,-0.03240966796875,-0.027069091796875,-0.662567138671875,4.836883956308798,-0.1404219771347535,84.43001242973008,-0.739933664183955,-0.032075102145816686,-0.027446154223849346,-0.6713539074496865,1
1782117462.538087,0.391,1022.0,1023.0,1023.0,1023.0,1023.0,1023.0,1023.0,1024.0,1022.0,1023.0,1024.0,1022.0,1023.0,1024.0,1023.0,1023.0,1023.0,1024.0,1023.0,1023.0,1024.0,1023.0,1023.0,1023.0,1023.0,1024.0,1024.0,1023.0,1024.0,1023.0,1023.0,1023.0,1022.0,1023.0,1023.0,1023.0,1023.0,1024.0,1024.0,1023.0,1023.0,1022.0,1023.0,1024.0,1023.0,1023.0,1024.0,1023.0,1022.0,1023.0,1023.0,1023.0,1022.0,1024.0,1023.0,1023.0,1023.0,1023.0,1023.0,1023.0,1022.0,1023.0,1023.0,1023.0,1023.0,1023.0,1024.0,1023.0,1023.0,1022.0,1022.0,1023.0,1022.0,1024.0,1023.0,1023.0,1023.0,1023.0,1022.0,1022.0,1022.0,1023.0,1023.0,1023.0,1023.0,1023.0,1024.0,1023.0,1023.0,1023.0,1023.0,1023.0,1023.0,1024.0,1023.0,1024.0,1024.0,1024.0,1024.0,1024.0,1023.0,1023.0,1023.0,1024.0,1024.0,1024.0,1024.0,1024.0,1023.0,1023.0,1023.0,1023.0,1022.0,1024.0,1022.0,1024.0,1024.0,1023.0,1022.0,1021.0,1022.0,1023.0,1023.0,1023.0,1023.0,1024.0,1023.0,1023.0,1023.0,1023.0,1024.0,1023.0,1024.0,1024.0,1023.0,1024.0,1023.0,1024.0,1024.0,1024.0,1025.0,1024.0,1024.0,1023.0,1024.0,1024.0,1024.0,1025.0,1024.0,1024.0,1023.0,1024.0,1023.0,1024.0,1025.0,1024.0,1024.0,1025.0,1024.0,1025.0,1026.0,1025.0,1024.0,1025.0,1025.0,1026.0,1028.0,1026.0,1024.0,1027.0,1027.0,1029.0,1032.0,1029.0,1025.0,1028.0,1029.0,1029.0,1036.0,1029.0,1026.0,1029.0,1029.0,1027.0,1036.0,1030.0,1027.0,1032.0,1032.0,1029.0,1039.0,1032.0,1029.0,1032.0,1034.0,1029.0,1040.0,1032.0,1028.0,1030.0,1032.0,1028.0,1037.0,1030.0,1036.0,1037.0,1037.0,1032.0,1043.0,1032.0,1022.0,1023.0,1023.0,1023.0,1025.0,1021.0,1035.0,1040.0,1036.0,1032.0,1042.0,1032.0,1032.0,1040.0,1036.0,1034.0,1044.0,1032.0,1028.0,1035.0,1031.0,1031.0,1036.0,1951,2005,1909,	00:32:35.319,0.05615234375,0.04248046875,1.01806640625,-0.6103515625,0.6103515625,0.06103515625,2.3895263671875,-3.153076171875,55.7391357421875,460.0,-1596.0,-2574.0,0.883209228515625,0.03131103515625,-0.014556884765625,0.467681884765625,2.391933044973253,-3.1534869800144234,51.13000304879476,0.9013104502008363,0.030692936883069497,-0.01581297666638871,0.4317955138178324,1,	00:32:35.320,0.00244140625,0.0830078125,1.00390625,-0.79345703125,-0.18310546875,-0.54931640625,4.735107421875,-0.142822265625,83.067626953125,-360.0,-1325.0,-1939.0,-0.747894287109375,-0.03173828125,-0.0264892578125,-0.66253662109375,4.737616532297764,-0.1404961042136483,84.42460797684274,-0.7399928169320379,-0.03143580780391256,-0.0268626078314915,-0.671342551293447,1
1782117462.548141,0.401,1023.0,1023.0,1024.0,1023.0,1023.0,1023.0,1023.0,1024.0,1022.0,1023.0,1024.0,1023.0,1023.0,1024.0,1022.0,1023.0,1023.0,1024.0,1023.0,1023.0,1024.0,1023.0,1023.0,1022.0,1023.0,1023.0,1023.0,1023.0,1024.0,1023.0,1023.0,1023.0,1023.0,1023.0,1024.0,1023.0,1023.0,1024.0,1023.0,1023.0,1023.0,1022.0,1023.0,1023.0,1024.0,1023.0,1024.0,1023.0,1024.0,1023.0,1022.0,1023.0,1023.0,1023.0,1024.0,1022.0,1024.0,1023.0,1023.0,1023.0,1022.0,1023.0,1023.0,1023.0,1023.0,1023.0,1024.0,1023.0,1023.0,1022.0,1022.0,1023.0,1023.0,1023.0,1023.0,1023.0,1024.0,1023.0,1023.0,1021.0,1023.0,1023.0,1022.0,1023.0,1023.0,1023.0,1024.0,1023.0,1023.0,1022.0,1023.0,1023.0,1023.0,1024.0,1024.0,1024.0,1024.0,1024.0,1023.0,1024.0,1023.0,1023.0,1023.0,1024.0,1024.0,1023.0,1024.0,1024.0,1024.0,1023.0,1022.0,1023.0,1023.0,1023.0,1023.0,1023.0,1024.0,1023.0,1023.0,1021.0,1022.0,1023.0,1024.0,1023.0,1023.0,1024.0,1023.0,1023.0,1022.0,1023.0,1024.0,1023.0,1023.0,1024.0,1023.0,1024.0,1023.0,1024.0,1024.0,1023.0,1025.0,1024.0,1024.0,1023.0,1024.0,1024.0,1024.0,1025.0,1024.0,1024.0,1023.0,1024.0,1024.0,1024.0,1025.0,1024.0,1023.0,1025.0,1025.0,1025.0,1025.0,1024.0,1024.0,1025.0,1025.0,1026.0,1027.0,1026.0,1025.0,1027.0,1028.0,1028.0,1032.0,1028.0,1025.0,1028.0,1030.0,1029.0,1035.0,1029.0,1026.0,1028.0,1029.0,1028.0,1036.0,1029.0,1027.0,1031.0,1034.0,1029.0,1038.0,1032.0,1028.0,1032.0,1035.0,1030.0,1040.0,1032.0,1028.0,1030.0,1032.0,1028.0,1037.0,1030.0,1037.0,1038.0,1042.0,1034.0,1046.0,1034.0,1023.0,1023.0,1023.0,1023.0,1025.0,1021.0,1035.0,1039.0,1036.0,1032.0,1042.0,1032.0,1031.0,1038.0,1036.0,1035.0,1043.0,1032.0,1028.0,1034.0,1030.0,1031.0,1035.0,1951,2005,1909,	00:32:35.329,0.05712890625,0.04248046875,1.01708984375,-0.6103515625,0.54931640625,0.06103515625,2.384033203125,-3.240966796875,55.7391357421875,459.0,-1594.0,-2573.0,0.8831787109375,0.0316162109375,-0.0152587890625,0.46771240234375,2.3853632219354917,-3.239555341430377,51.13087141219341,0.9012832986498807,0.03096491859848568,-0.01651482957131515,0.431806495776997,1,	00:32:35.330,0.00048828125,0.0849609375,1.00341796875,-0.79345703125,-0.42724609375,-0.732421875,4.7900390625,-0.076904296875,83.0621337890625,-358.0,-1323.0,-1943.0,-0.7479248046875,-0.03173828125,-0.0272216796875,-0.6624755859375,4.791170733933044,-0.07632120257810314,84.4168354736935,-0.7400396964858835,-0.03140758183397715,-0.02758867104325651,-0.6712627478554803,1
1782117462.558229,0.411,1023.0,1023.0,1024.0,1023.0,1022.0,1022.0,1023.0,1024.0,1022.0,1023.0,1024.0,1024.0,1023.0,1024.0,1022.0,1023.0,1023.0,1024.0,1023.0,1023.0,1024.0,1023.0,1023.0,1023.0,1023.0,1024.0,1023.0,1023.0,1024.0,1023.0,1023.0,1023.0,1023.0,1023.0,1024.0,1024.0,1023.0,1024.0,1023.0,1023.0,1023.0,1022.0,1023.0,1023.0,1023.0,1023.0,1024.0,1024.0,1023.0,1023.0,1022.0,1023.0,1023.0,1024.0,1023.0,1023.0,1024.0,1023.0,1023.0,1023.0,1022.0,1023.0,1022.0,1023.0,1023.0,1023.0,1024.0,1023.0,1023.0,1022.0,1022.0,1023.0,1023.0,1023.0,1022.0,1023.0,1024.0,1023.0,1023.0,1022.0,1022.0,1023.0,1023.0,1023.0,1023.0,1023.0,1024.0,1023.0,1023.0,1023.0,1022.0,1023.0,1023.0,1024.0,1024.0,1024.0,1024.0,1024.0,1024.0,1024.0,1023.0,1024.0,1023.0,1024.0,1024.0,1023.0,1024.0,1024.0,1024.0,1023.0,1023.0,1024.0,1023.0,1023.0,1023.0,1023.0,1024.0,1023.0,1023.0,1021.0,1022.0,1023.0,1024.0,1023.0,1023.0,1024.0,1024.0,1023.0,1023.0,1023.0,1024.0,1024.0,1024.0,1024.0,1024.0,1023.0,1023.0,1024.0,1024.0,1024.0,1025.0,1024.0,1024.0,1023.0,1024.0,1024.0,1024.0,1024.0,1024.0,1024.0,1022.0,1024.0,1023.0,1024.0,1025.0,1024.0,1023.0,1024.0,1025.0,1025.0,1026.0,1025.0,1024.0,1025.0,1025.0,1026.0,1028.0,1026.0,1024.0,1027.0,1028.0,1029.0,1032.0,1028.0,1025.0,1028.0,1030.0,1030.0,1035.0,1029.0,1025.0,1028.0,1030.0,1029.0,1035.0,1029.0,1026.0,1030.0,1033.0,1031.0,1039.0,1032.0,1028.0,1031.0,1036.0,1030.0,1040.0,1032.0,1028.0,1030.0,1032.0,1029.0,1037.0,1030.0,1036.0,1039.0,1041.0,1034.0,1046.0,1034.0,1022.0,1023.0,1023.0,1023.0,1025.0,1021.0,1034.0,1040.0,1036.0,1032.0,1042.0,1033.0,1031.0,1038.0,1036.0,1035.0,1042.0,1032.0,1027.0,1033.0,1030.0,1031.0,1036.0,1951,2005,1910,	00:32:35.339,0.05615234375,0.0419921875,1.0166015625,-0.54931640625,0.54931640625,0.0,2.3565673828125,-3.1475830078125,55.74462890625,461.0,-1597.0,-2574.0,0.883209228515625,0.031005859375,-0.0146484375,0.46771240234375,2.357824925142292,-3.1452646977959726,51.1323228347416,0.9013132198626035,0.030394073276494335,-0.015876176953679766,0.43180855366227355,1,	00:32:35.340,0.0048828125,0.08251953125,1.00390625,-0.8544921875,-0.30517578125,-0.54931640625,4.74609375,-0.164794921875,83.056640625,-358.0,-1325.0,-1938.0,-0.747955322265625,-0.03192138671875,-0.026397705078125,-0.662445068359375,4.744532004817582,-0.1622303479427402,84.41119216750037,-0.7400640511907353,-0.03161091495263336,-0.026759056573199172,-0.6712599370454985,1
1782117462.567475,0.420,1023.0,1023.0,1023.0,1023.0,1023.0,1022.0,1023.0,1024.0,1022.0,1023.0,1023.0,1023.0,1023.0,1024.0,1022.0,1023.0,1023.0,1023.0,1023.0,1023.0,1024.0,1023.0,1023.0,1022.0,1023.0,1024.0,1023.0,1024.0,1024.0,1023.0,1024.0,1024.0,1022.0,1022.0,1023.0,1023.0,1023.0,1024.0,1023.0,1023.0,1023.0,1023.0,1023.0,1024.0,1023.0,1024.0,1024.0,1024.0,1023.0,1023.0,1022.0,1023.0,1023.0,1024.0,1023.0,1024.0,1024.0,1023.0,1024.0,1022.0,1023.0,1023.0,1022.0,1023.0,1023.0,1023.0,1024.0,1023.0,1024.0,1022.0,1023.0,1023.0,1022.0,1024.0,1023.0,1023.0,1024.0,1023.0,1023.0,1022.0,1022.0,1023.0,1022.0,1023.0,1023.0,1023.0,1024.0,1023.0,1023.0,1023.0,1022.0,1023.0,1023.0,1024.0,1024.0,1024.0,1024.0,1024.0,1024.0,1024.0,1023.0,1023.0,1023.0,1024.0,1023.0,1024.0,1024.0,1024.0,1024.0,1024.0,1022.0,1023.0,1023.0,1023.0,1022.0,1023.0,1024.0,1022.0,1023.0,1021.0,1022.0,1022.0,1024.0,1024.0,1023.0,1024.0,1023.0,1023.0,1023.0,1023.0,1023.0,1023.0,1023.0,1024.0,1023.0,1023.0,1023.0,1024.0,1024.0,1024.0,1025.0,1023.0,1024.0,1023.0,1024.0,1024.0,1024.0,1025.0,1024.0,1024.0,1023.0,1024.0,1023.0,1024.0,1025.0,1024.0,1024.0,1024.0,1024.0,1025.0,1026.0,1024.0,1024.0,1025.0,1025.0,1027.0,1028.0,1026.0,1024.0,1027.0,1028.0,1029.0,1032.0,1028.0,1025.0,1028.0,1030.0,1030.0,1035.0,1029.0,1025.0,1028.0,1030.0,1029.0,1035.0,1029.0,1027.0,1030.0,1034.0,1030.0,1039.0,1032.0,1028.0,1032.0,1035.0,1030.0,1040.0,1031.0,1027.0,1030.0,1033.0,1029.0,1037.0,1030.0,1036.0,1039.0,1042.0,1033.0,1046.0,1034.0,1022.0,1023.0,1023.0,1023.0,1024.0,1021.0,1033.0,1039.0,1037.0,1031.0,1042.0,1033.0,1030.0,1039.0,1036.0,1034.0,1043.0,1032.0,1028.0,1034.0,1031.0,1030.0,1036.0,1951,2004,1909,	00:32:35.350,0.05615234375,0.041015625,1.01708984375,-0.54931640625,0.42724609375,0.06103515625,2.26318359375,-3.1640625,55.7501220703125,460.0,-1596.0,-2574.0,0.883209228515625,0.030364990234375,-0.015167236328125,0.467742919921875,2.263282178153982,-3.1633873077898618,51.138008138890015,0.9013112921445302,0.02971938818219644,-0.01637357688058311,0.4318409644753134,1,	00:32:35.351,0.00244140625,0.0849609375,1.00341796875,-0.732421875,-0.48828125,-0.54931640625,4.8284912109375,-0.142822265625,83.0511474609375,-357.0,-1323.0,-1937.0,-0.747955322265625,-0.0323486328125,-0.0269775390625,-0.662384033203125,4.825980197990486,-0.14490477031219948,84.40507531182779,-0.74008165178548,-0.032036906999947726,-0.027346352585366156,-0.6711966643843136,1
1782117462.578132,0.431,1023.0,1023.0,1023.0,1022.0,1023.0,1022.0,1023.0,1024.0,1023.0,1023.0,1023.0,1024.0,1023.0,1023.0,1023.0,1023.0,1023.0,1023.0,1023.0,1023.0,1024.0,1023.0,1023.0,1023.0,1023.0,1024.0,1023.0,1023.0,1024.0,1023.0,1023.0,1023.0,1023.0,1023.0,1024.0,1024.0,1023.0,1024.0,1023.0,1024.0,1023.0,1023.0,1023.0,1023.0,1023.0,1024.0,1024.0,1023.0,1023.0,1023.0,1022.0,1023.0,1022.0,1023.0,1023.0,1023.0,1024.0,1023.0,1023.0,1022.0,1022.0,1023.0,1023.0,1022.0,1022.0,1023.0,1024.0,1023.0,1023.0,1022.0,1022.0,1023.0,1022.0,1024.0,1022.0,1023.0,1024.0,1023.0,1023.0,1023.0,1022.0,1022.0,1023.0,1024.0,1024.0,1023.0,1024.0,1023.0,1023.0,1023.0,1022.0,1023.0,1023.0,1024.0,1024.0,1023.0,1024.0,1024.0,1024.0,1024.0,1023.0,1023.0,1023.0,1024.0,1024.0,1024.0,1024.0,1023.0,1024.0,1024.0,1023.0,1023.0,1022.0,1023.0,1023.0,1023.0,1024.0,1023.0,1023.0,1021.0,1022.0,1022.0,1024.0,1023.0,1024.0,1024.0,1023.0,1023.0,1023.0,1023.0,1024.0,1023.0,1023.0,1024.0,1023.0,1023.0,1023.0,1024.0,1024.0,1023.0,1024.0,1024.0,1024.0,1023.0,1024.0,1024.0,1024.0,1025.0,1024.0,1024.0,1023.0,1024.0,1024.0,1024.0,1025.0,1024.0,1023.0,1024.0,1024.0,1025.0,1026.0,1025.0,1024.0,1025.0,1025.0,1026.0,1028.0,1026.0,1024.0,1027.0,1028.0,1029.0,1032.0,1029.0,1024.0,1028.0,1030.0,1029.0,1034.0,1029.0,1025.0,1028.0,1030.0,1029.0,1034.0,1029.0,1027.0,1031.0,1034.0,1030.0,1038.0,1032.0,1028.0,1032.0,1035.0,1030.0,1039.0,1032.0,1027.0,1030.0,1033.0,1029.0,1037.0,1030.0,1035.0,1040.0,1042.0,1034.0,1047.0,1035.0,1023.0,1023.0,1023.0,1023.0,1024.0,1021.0,1033.0,1041.0,1036.0,1032.0,1043.0,1033.0,1031.0,1038.0,1037.0,1034.0,1043.0,1033.0,1028.0,1035.0,1031.0,1030.0,1036.0,1951,2004,1910,	00:32:35.360,0.056640625,0.04150390625,1.0185546875,-0.54931640625,0.48828125,0.1220703125,2.3455810546875,-3.1805419921875,55.74462890625,458.0,-1596.0,-2575.0,0.883209228515625,0.03106689453125,-0.01495361328125,0.46771240234375,2.346853649399893,-3.1799845579534054,51.13449153822303,0.9012977357898722,0.03043860932456444,-0.016190177377317483,0.4318260768862011,1,	00:32:35.361,0.001953125,0.083984375,1.00390625,-0.79345703125,-0.6103515625,-0.6103515625,4.74609375,-0.0933837890625,83.045654296875,-359.0,-1326.0,-1942.0,-0.748046875,-0.03155517578125,-0.026824951171875,-0.662353515625,4.745610347450606,-0.09464595151319573,84.398627552567,-0.7401542419220583,-0.03122500836689892,-0.027198470132036384,-0.671160889980746,1
1782117462.588650,0.441,1023.0,1024.0,1023.0,1023.0,1024.0,1022.0,1022.0,1024.0,1022.0,1023.0,1023.0,1023.0,1023.0,1023.0,1023.0,1023.0,1023.0,1023.0,1023.0,1022.0,1024.0,1023.0,1023.0,1022.0,1024.0,1024.0,1024.0,1023.0,1024.0,1023.0,1023.0,1023.0,1023.0,1023.0,1024.0,1023.0,1023.0,1024.0,1023.0,1024.0,1023.0,1023.0,1023.0,1024.0,1024.0,1023.0,1024.0,1023.0,1023.0,1023.0,1022.0,1023.0,1023.0,1024.0,1023.0,1023.0,1024.0,1023.0,1023.0,1023.0,1022.0,1023.0,1023.0,1023.0,1023.0,1023.0,1024.0,1023.0,1023.0,1022.0,1022.0,1023.0,1022.0,1024.0,1023.0,1023.0,1023.0,1023.0,1022.0,1022.0,1022.0,1023.0,1023.0,1023.0,1023.0,1023.0,1023.0,1023.0,1023.0,1023.0,1023.0,1023.0,1023.0,1024.0,1024.0,1024.0,1024.0,1024.0,1024.0,1023.0,1023.0,1023.0,1023.0,1024.0,1024.0,1024.0,1024.0,1024.0,1024.0,1024.0,1022.0,1023.0,1023.0,1024.0,1023.0,1023.0,1024.0,1023.0,1022.0,1021.0,1022.0,1023.0,1024.0,1024.0,1023.0,1024.0,1023.0,1023.0,1022.0,1023.0,1024.0,1023.0,1023.0,1024.0,1023.0,1024.0,1023.0,1024.0,1024.0,1024.0,1025.0,1024.0,1024.0,1023.0,1024.0,1023.0,1024.0,1025.0,1024.0,1024.0,1023.0,1024.0,1024.0,1024.0,1025.0,1024.0,1023.0,1024.0,1024.0,1025.0,1026.0,1025.0,1023.0,1025.0,1025.0,1026.0,1028.0,1027.0,1024.0,1027.0,1028.0,1029.0,1031.0,1029.0,1024.0,1028.0,1030.0,1029.0,1035.0,1029.0,1025.0,1027.0,1030.0,1028.0,1035.0,1030.0,1026.0,1031.0,1033.0,1030.0,1039.0,1033.0,1028.0,1032.0,1034.0,1030.0,1039.0,1031.0,1027.0,1030.0,1031.0,1028.0,1038.0,1030.0,1036.0,1039.0,1040.0,1033.0,1046.0,1034.0,1022.0,1023.0,1023.0,1023.0,1025.0,1021.0,1034.0,1040.0,1036.0,1031.0,1043.0,1033.0,1031.0,1038.0,1036.0,1034.0,1044.0,1032.0,1028.0,1035.0,1031.0,1030.0,1036.0,1951,2004,1909,	00:32:35.370,0.056640625,0.04296875,1.01708984375,-0.6103515625,0.54931640625,0.06103515625,2.4334716796875,-3.1805419921875,55.7391357421875,461.0,-1594.0,-2575.0,0.883209228515625,0.03173828125,-0.014617919921875,0.46771240234375,2.43223667209793,-3.1803826948782543,51.13024971039272,0.9012906715042073,0.0311110736067157,-0.015872700894558087,0.431804682611067,1,	00:32:35.371,0.0,0.08544921875,1.00439453125,-0.79345703125,-0.79345703125,-0.67138671875,4.8065185546875,-0.0439453125,83.03466796875,-357.0,-1325.0,-1938.0,-0.748077392578125,-0.03167724609375,-0.02752685546875,-0.66229248046875,4.808845432993273,-0.04449736977997293,84.39119075144013,-0.7401929812513632,-0.03134155983586304,-0.027890721921941506,-0.6710843201595064,1
1782117462.598870,0.452,1023.0,1023.0,1023.0,1023.0,1023.0,1023.0,1023.0,1024.0,1022.0,1023.0,1023.0,1023.0,1023.0,1024.0,1023.0,1023.0,1022.0,1024.0,1023.0,1023.0,1024.0,1023.0,1023.0,1023.0,1024.0,1024.0,1023.0,1023.0,1024.0,1023.0,1023.0,1024.0,1022.0,1023.0,1023.0,1023.0,1024.0,1024.0,1023.0,1023.0,1024.0,1023.0,1023.0,1023.0,1023.0,1023.0,1024.0,1023.0,1023.0,1023.0,1022.0,1023.0,1023.0,1023.0,1023.0,1023.0,1024.0,1022.0,1023.0,1023.0,1023.0,1023.0,1023.0,1024.0,1022.0,1024.0,1023.0,1023.0,1023.0,1022.0,1022.0,1023.0,1022.0,1023.0,1022.0,1023.0,1024.0,1023.0,1023.0,1023.0,1022.0,1023.0,1023.0,1023.0,1023.0,1023.0,1024.0,1023.0,1023.0,1023.0,1023.0,1023.0,1023.0,1023.0,1024.0,1023.0,1024.0,1024.0,1024.0,1024.0,1023.0,1024.0,1023.0,1024.0,1024.0,1023.0,1024.0,1023.0,1023.0,1024.0,1023.0,1024.0,1022.0,1024.0,1022.0,1023.0,1024.0,1023.0,1023.0,1021.0,1022.0,1023.0,1024.0,1023.0,1023.0,1023.0,1023.0,1023.0,1023.0,1023.0,1024.0,1024.0,1023.0,1024.0,1024.0,1023.0,1024.0,1024.0,1024.0,1024.0,1025.0,1024.0,1024.0,1024.0,1024.0,1024.0,1024.0,1025.0,1024.0,1024.0,1023.0,1024.0,1023.0,1024.0,1025.0,1024.0,1024.0,1025.0,1024.0,1025.0,1026.0,1025.0,1023.0,1025.0,1025.0,1026.0,1027.0,1026.0,1025.0,1028.0,1027.0,1029.0,1031.0,1028.0,1025.0,1028.0,1029.0,1029.0,1034.0,1030.0,1025.0,1028.0,1030.0,1028.0,1035.0,1030.0,1027.0,1031.0,1034.0,1030.0,1038.0,1032.0,1028.0,1033.0,1034.0,1029.0,1039.0,1032.0,1027.0,1030.0,1032.0,1029.0,1037.0,1031.0,1035.0,1038.0,1038.0,1032.0,1045.0,1034.0,1023.0,1023.0,1023.0,1022.0,1024.0,1021.0,1034.0,1039.0,1036.0,1032.0,1042.0,1033.0,1031.0,1038.0,1036.0,1034.0,1043.0,1032.0,1028.0,1034.0,1031.0,1030.0,1034.0,1951,2003,1910,	00:32:35.380,0.05517578125,0.0400390625,1.01708984375,-0.54931640625,0.54931640625,0.06103515625,2.340087890625,-3.1365966796875,55.74462890625,461.0,-1592.0,-2577.0,0.883209228515625,0.030853271484375,-0.0146484375,0.467742919921875,2.3427154730042066,-3.1382848762456486,51.13572036766746,0.9013064597193217,0.030249461337438627,-0.01587728685681368,0.4318327772634727,1,	00:32:35.381,0.00439453125,0.0830078125,1.00439453125,-0.79345703125,-0.732421875,-0.54931640625,4.76806640625,-0.1373291015625,83.0291748046875,-358.0,-1324.0,-1937.0,-0.74810791015625,-0.03192138671875,-0.02667236328125,-0.662261962890625,4.766087062915381,-0.13608972841506214,84.38516399369179,-0.7402171311359785,-0.03160315960737805,-0.027046984100265216,-0.6710799503239032,1
1782117462.608890,0.462,1022.0,1023.0,1023.0,1022.0,1023.0,1023.0,1023.0,1023.0,1022.0,1023.0,1024.0,1023.0,1023.0,1024.0,1023.0,1023.0,1023.0,1023.0,1023.0,1024.0,1024.0,1023.0,1023.0,1022.0,1023.0,1023.0,1023.0,1023.0,1024.0,1023.0,1023.0,1023.0,1022.0,1023.0,1023.0,1023.0,1023.0,1024.0,1023.0,1023.0,1023.0,1022.0,1022.0,1023.0,1023.0,1023.0,1024.0,1023.0,1023.0,1023.0,1023.0,1023.0,1023.0,1023.0,1022.0,1023.0,1023.0,1023.0,1023.0,1023.0,1022.0,1023.0,1023.0,1023.0,1023.0,1023.0,1024.0,1023.0,1023.0,1022.0,1023.0,1023.0,1022.0,1023.0,1023.0,1023.0,1023.0,1023.0,1023.0,1022.0,1023.0,1024.0,1023.0,1023.0,1024.0,1023.0,1024.0,1023.0,1023.0,1023.0,1023.0,1023.0,1023.0,1024.0,1024.0,1023.0,1024.0,1023.0,1023.0,1024.0,1023.0,1023.0,1023.0,1024.0,1024.0,1024.0,1024.0,1024.0,1024.0,1024.0,1022.0,1023.0,1022.0,1023.0,1023.0,1023.0,1024.0,1023.0,1023.0,1021.0,1022.0,1023.0,1024.0,1023.0,1023.0,1024.0,1023.0,1023.0,1023.0,1023.0,1023.0,1023.0,1023.0,1024.0,1024.0,1024.0,1023.0,1024.0,1024.0,1023.0,1024.0,1024.0,1024.0,1024.0,1024.0,1024.0,1024.0,1025.0,1024.0,1024.0,1023.0,1025.0,1024.0,1024.0,1025.0,1024.0,1023.0,1025.0,1024.0,1025.0,1026.0,1025.0,1024.0,1026.0,1025.0,1026.0,1028.0,1026.0,1024.0,1028.0,1027.0,1029.0,1032.0,1029.0,1025.0,1028.0,1029.0,1029.0,1035.0,1029.0,1025.0,1029.0,1030.0,1029.0,1035.0,1030.0,1027.0,1030.0,1033.0,1030.0,1039.0,1032.0,1027.0,1030.0,1034.0,1030.0,1040.0,1032.0,1027.0,1030.0,1032.0,1029.0,1037.0,1031.0,1034.0,1037.0,1038.0,1032.0,1044.0,1033.0,1023.0,1023.0,1023.0,1023.0,1025.0,1021.0,1034.0,1039.0,1035.0,1032.0,1043.0,1033.0,1031.0,1039.0,1036.0,1034.0,1044.0,1032.0,1027.0,1034.0,1031.0,1031.0,1036.0,1951,2003,1909,	00:32:35.390,0.05712890625,0.04296875,1.01806640625,-0.54931640625,0.48828125,0.1220703125,2.406005859375,-3.197021484375,55.74462890625,460.0,-1595.0,-2576.0,0.8831787109375,0.03155517578125,-0.014862060546875,0.46771240234375,2.403385087115735,-3.196628655022422,51.13348446290051,0.9012814465841194,0.03094567096579937,-0.016108396193577432,0.43182709394361113,1,	00:32:35.392,0.00244140625,0.083984375,1.00341796875,-0.732421875,-0.67138671875,-0.54931640625,4.8504638671875,-0.15380859375,83.023681640625,-357.0,-1324.0,-1940.0,-0.74810791015625,-0.0325927734375,-0.027008056640625,-0.6622314453125,4.84906520709546,-0.1562658533539365,84.3789032995542,-0.7402255462745365,-0.03225879496455468,-0.027400819373349355,-0.6710251156906631,1
1782117462.619951,0.473,1023.0,1023.0,1024.0,1023.0,1023.0,1022.0,1023.0,1023.0,1023.0,1023.0,1023.0,1023.0,1023.0,1023.0,1023.0,1023.0,1023.0,1023.0,1023.0,1023.0,1024.0,1023.0,1023.0,1023.0,1023.0,1023.0,1023.0,1024.0,1024.0,1023.0,1023.0,1024.0,1022.0,1023.0,1024.0,1022.0,1023.0,1024.0,1023.0,1023.0,1023.0,1022.0,1023.0,1023.0,1023.0,1024.0,1024.0,1023.0,1023.0,1023.0,1023.0,1023.0,1022.0,1023.0,1023.0,1023.0,1024.0,1023.0,1023.0,1022.0,1023.0,1023.0,1022.0,1024.0,1022.0,1023.0,1024.0,1023.0,1023.0,1022.0,1022.0,1023.0,1023.0,1024.0,1022.0,1023.0,1024.0,1023.0,1023.0,1022.0,1022.0,1023.0,1023.0,1023.0,1023.0,1024.0,1024.0,1023.0,1023.0,1023.0,1023.0,1023.0,1023.0,1024.0,1024.0,1024.0,1024.0,1023.0,1023.0,1024.0,1023.0,1023.0,1022.0,1024.0,1024.0,1024.0,1024.0,1024.0,1024.0,1024.0,1023.0,1023.0,1022.0,1024.0,1023.0,1023.0,1023.0,1023.0,1022.0,1022.0,1022.0,1023.0,1023.0,1024.0,1023.0,1024.0,1023.0,1023.0,1022.0,1023.0,1023.0,1023.0,1024.0,1024.0,1023.0,1024.0,1023.0,1024.0,1024.0,1024.0,1025.0,1024.0,1024.0,1023.0,1024.0,1023.0,1023.0,1024.0,1024.0,1024.0,1023.0,1023.0,1024.0,1024.0,1024.0,1024.0,1023.0,1024.0,1024.0,1025.0,1026.0,1025.0,1023.0,1025.0,1025.0,1026.0,1028.0,1026.0,1024.0,1027.0,1028.0,1029.0,1031.0,1028.0,1025.0,1028.0,1030.0,1030.0,1035.0,1029.0,1025.0,1027.0,1030.0,1029.0,1036.0,1030.0,1027.0,1030.0,1033.0,1030.0,1039.0,1032.0,1028.0,1032.0,1035.0,1031.0,1040.0,1032.0,1028.0,1030.0,1032.0,1029.0,1038.0,1031.0,1036.0,1037.0,1039.0,1033.0,1045.0,1034.0,1022.0,1023.0,1022.0,1023.0,1025.0,1021.0,1034.0,1039.0,1036.0,1032.0,1042.0,1033.0,1031.0,1037.0,1036.0,1035.0,1044.0,1033.0,1028.0,1034.0,1030.0,1030.0,1035.0,1951,2003,1909,	00:32:35.401,0.056640625,0.041015625,1.01806640625,-0.54931640625,0.48828125,0.06103515625,2.30712890625,-3.1805419921875,55.7501220703125,460.0,-1593.0,-2575.0,0.8831787109375,0.03076171875,-0.015106201171875,0.467742919921875,2.3072102286482576,-3.1778392248939076,51.13933870683043,0.9012905765668323,0.03011942477830266,-0.016321411460432887,0.4318584587232145,1,	00:32:35.402,0.00244140625,0.0849609375,1.00439453125,-0.79345703125,-0.67138671875,-0.54931640625,4.7845458984375,-0.0933837890625,83.0181884765625,-358.0,-1323.0,-1937.0,-0.7481689453125,-0.031768798828125,-0.027069091796875,-0.66217041015625,4.7840145861943695,-0.09097019467968706,84.3729807311375,-0.7402948463089922,-0.03145767729999308,-0.02744010480481255,-0.6709850935121704,1
1782117462.629613,0.482,1023.0,1023.0,1023.0,1023.0,1023.0,1023.0,1024.0,1024.0,1022.0,1023.0,1024.0,1024.0,1023.0,1024.0,1023.0,1023.0,1023.0,1023.0,1023.0,1023.0,1023.0,1023.0,1024.0,1022.0,1023.0,1023.0,1024.0,1024.0,1023.0,1023.0,1023.0,1024.0,1023.0,1023.0,1023.0,1023.0,1023.0,1024.0,1023.0,1023.0,1023.0,1023.0,1023.0,1023.0,1023.0,1023.0,1024.0,1023.0,1023.0,1023.0,1022.0,1023.0,1023.0,1023.0,1023.0,1023.0,1023.0,1023.0,1023.0,1023.0,1022.0,1023.0,1023.0,1023.0,1023.0,1023.0,1024.0,1023.0,1023.0,1022.0,1022.0,1023.0,1023.0,1024.0,1023.0,1023.0,1024.0,1022.0,1023.0,1022.0,1023.0,1023.0,1023.0,1024.0,1023.0,1023.0,1024.0,1023.0,1024.0,1023.0,1022.0,1023.0,1022.0,1024.0,1024.0,1024.0,1024.0,1024.0,1023.0,1024.0,1023.0,1023.0,1023.0,1024.0,1024.0,1024.0,1024.0,1024.0,1024.0,1023.0,1022.0,1023.0,1023.0,1023.0,1023.0,1023.0,1024.0,1023.0,1023.0,1021.0,1022.0,1023.0,1024.0,1023.0,1023.0,1024.0,1024.0,1024.0,1023.0,1023.0,1024.0,1023.0,1023.0,1024.0,1023.0,1023.0,1023.0,1024.0,1024.0,1024.0,1024.0,1024.0,1024.0,1023.0,1024.0,1024.0,1024.0,1024.0,1024.0,1024.0,1024.0,1024.0,1023.0,1024.0,1025.0,1024.0,1023.0,1025.0,1024.0,1025.0,1026.0,1025.0,1024.0,1026.0,1025.0,1026.0,1028.0,1026.0,1024.0,1027.0,1028.0,1029.0,1032.0,1028.0,1026.0,1028.0,1030.0,1030.0,1035.0,1029.0,1026.0,1028.0,1030.0,1029.0,1035.0,1029.0,1027.0,1030.0,1033.0,1030.0,1039.0,1032.0,1028.0,1032.0,1035.0,1030.0,1040.0,1032.0,1027.0,1029.0,1032.0,1029.0,1037.0,1030.0,1036.0,1038.0,1040.0,1034.0,1046.0,1033.0,1023.0,1023.0,1023.0,1023.0,1025.0,1021.0,1034.0,1039.0,1035.0,1033.0,1042.0,1033.0,1032.0,1037.0,1036.0,1034.0,1043.0,1033.0,1028.0,1033.0,1030.0,1030.0,1035.0,1952,2002,1910,	00:32:35.411,0.056640625,0.04248046875,1.01806640625,-0.48828125,0.48828125,0.06103515625,2.39501953125,-3.175048828125,55.74462890625,462.0,-1594.0,-2576.0,0.8831787109375,0.031402587890625,-0.014739990234375,0.467742919921875,2.393912062645465,-3.1772165448815177,51.13506732006704,0.901283811890859,0.03079841006971672,-0.015990903594600772,0.4318370518643441,1,	00:32:35.412,0.001953125,0.083984375,1.00341796875,-0.79345703125,-0.732421875,-0.6103515625,4.779052734375,-0.186767578125,83.0126953125,-357.0,-1324.0,-1937.0,-0.748199462890625,-0.032318115234375,-0.026397705078125,-0.66217041015625,4.777883225589434,-0.18941530655580985,84.36629007067559,-0.7403108797686285,-0.031996017593253746,-0.026766301030112887,-0.6709691656727131,1
1782117462.639669,0.492,1024.0,1023.0,1023.0,1022.0,1023.0,1023.0,1023.0,1024.0,1022.0,1023.0,1023.0,1023.0,1023.0,1024.0,1023.0,1022.0,1023.0,1023.0,1023.0,1024.0,1024.0,1023.0,1023.0,1023.0,1023.0,1023.0,1023.0,1023.0,1024.0,1023.0,1023.0,1023.0,1023.0,1023.0,1023.0,1023.0,1023.0,1024.0,1023.0,1023.0,1023.0,1023.0,1023.0,1023.0,1023.0,1023.0,1024.0,1023.0,1023.0,1023.0,1022.0,1023.0,1023.0,1023.0,1023.0,1023.0,1024.0,1023.0,1023.0,1023.0,1022.0,1023.0,1023.0,1023.0,1023.0,1023.0,1024.0,1023.0,1023.0,1022.0,1023.0,1023.0,1023.0,1023.0,1023.0,1023.0,1024.0,1023.0,1023.0,1022.0,1022.0,1023.0,1023.0,1023.0,1023.0,1023.0,1024.0,1024.0,1024.0,1023.0,1022.0,1023.0,1023.0,1024.0,1023.0,1023.0,1024.0,1024.0,1023.0,1024.0,1023.0,1023.0,1023.0,1024.0,1023.0,1024.0,1024.0,1023.0,1024.0,1024.0,1023.0,1023.0,1022.0,1023.0,1022.0,1023.0,1024.0,1023.0,1023.0,1021.0,1023.0,1023.0,1024.0,1023.0,1023.0,1024.0,1023.0,1023.0,1023.0,1023.0,1024.0,1023.0,1023.0,1024.0,1024.0,1024.0,1023.0,1024.0,1024.0,1024.0,1025.0,1024.0,1024.0,1024.0,1024.0,1023.0,1024.0,1025.0,1024.0,1024.0,1023.0,1024.0,1024.0,1024.0,1025.0,1024.0,1023.0,1025.0,1024.0,1025.0,1026.0,1025.0,1024.0,1025.0,1025.0,1026.0,1028.0,1026.0,1025.0,1027.0,1028.0,1029.0,1031.0,1029.0,1024.0,1028.0,1030.0,1030.0,1035.0,1029.0,1025.0,1028.0,1030.0,1029.0,1035.0,1029.0,1027.0,1031.0,1033.0,1031.0,1038.0,1032.0,1028.0,1031.0,1034.0,1031.0,1039.0,1032.0,1028.0,1030.0,1031.0,1029.0,1037.0,1030.0,1036.0,1039.0,1040.0,1035.0,1047.0,1035.0,1022.0,1023.0,1022.0,1023.0,1024.0,1021.0,1034.0,1039.0,1035.0,1033.0,1042.0,1033.0,1031.0,1038.0,1036.0,1035.0,1043.0,1032.0,1028.0,1034.0,1031.0,1031.0,1035.0,1952,2002,1909,	00:32:35.422,0.05517578125,0.041015625,1.017578125,-0.48828125,0.6103515625,0.0,2.318115234375,-3.109130859375,55.7501220703125,461.0,-1593.0,-2578.0,0.883209228515625,0.03057861328125,-0.0145263671875,0.467742919921875,2.320527075077113,-3.110375079159563,51.13907582585404,0.9013077709524852,0.029970468234768663,-0.015740385186518227,0.4318545048145628,1,	00:32:35.423,0.00390625,0.08447265625,1.00341796875,-0.8544921875,-0.91552734375,-0.67138671875,4.833984375,-0.263671875,83.001708984375,-356.0,-1326.0,-1937.0,-0.748199462890625,-0.033111572265625,-0.0262451171875,-0.662109375,4.835364493924703,-0.2613404233216062,84.35858301923622,-0.7403211691254502,-0.032790223000353724,-0.026635941803404287,-0.6709246562949965,1
