Unix_Time_s,IMU1_RefTime,ax_g,ay_g,az_g,gx_dps,gy_dps,gz_dps,mx_uT,my_uT,mz_uT,temp_C,qw,qx,qy,qz
1782117235.655575,1739011,-0.972656,0.035645,-0.248535,-1.280488,-0.304878,0.426829,-3.781250,39.812500,-1.406250,0.0,1.000000,0.000000,0.000000,0.000000
1782117235.664575,1739020,-0.970703,0.033203,-0.247070,-1.280488,-0.304878,0.426829,-3.625000,40.037502,-1.387500,0.0,1.000000,0.000000,0.000000,0.000000
1782117235.674575,1739030,-0.972168,0.032715,-0.246094,-1.219512,-0.487805,0.426829,-3.625000,40.037502,-1.387500,0.0,1.000000,0.000000,0.000000,0.000000
1782117235.685575,1739041,-0.972656,0.033691,-0.246582,-1.158537,-0.609756,0.548781,-3.800000,39.850002,-1.393750,0.0,1.000000,0.000000,0.000000,0.000000
1782117235.694575,1739050,-0.973633,0.031738,-0.248535,-1.158537,-0.731707,0.670732,-3.800000,39.850002,-1.393750,0.0,1.000000,0.000000,0.000000,0.000000
1782117235.704575,1739060,-0.973145,0.031250,-0.248047,-1.036585,-0.670732,0.670732,-3.912500,39.799999,-1.393750,0.0,1.000000,0.000000,0.000000,0.000000
1782117235.714575,1739070,-0.971191,0.032227,-0.250000,-0.792683,-0.609756,0.609756,-3.912500,39.799999,-1.393750,0.0,1.000000,0.000000,0.000000,0.000000
1782117235.724575,1739080,-0.971191,0.031738,-0.251465,-0.548781,-0.548781,0.609756,-3.862500,39.743752,-1.462500,0.0,1.000000,0.000000,0.000000,0.000000
1782117235.734575,1739090,-0.972168,0.030273,-0.251953,-0.182927,-0.487805,0.670732,-3.862500,39.743752,-1.462500,0.0,1.000000,0.000000,0.000000,0.000000
1782117235.744575,1739100,-0.973633,0.028809,-0.249023,0.182927,-0.609756,0.731707,-3.887500,39.793751,-1.387500,0.0,1.000000,0.000000,0.000000,0.000000
1782117235.754575,1739110,-0.975586,0.028320,-0.245117,0.731707,-0.792683,0.853659,-3.887500,39.793751,-1.387500,0.0,1.000000,0.000000,0.000000,0.000000
1782117235.764575,1739120,-0.979980,0.029297,-0.242676,1.341463,-1.036585,0.975610,-3.918750,39.768749,-1.418750,0.0,1.000000,0.000000,0.000000,0.000000
1782117235.774575,1739130,-0.979980,0.029297,-0.238770,1.768293,-1.585366,1.036585,-3.918750,39.768749,-1.418750,0.0,1.000000,0.000000,0.000000,0.000000
1782117235.784575,1739140,-0.977051,0.029297,-0.239746,1.829268,-1.829268,0.975610,-3.937500,39.762501,-1.412500,0.0,1.000000,0.000000,0.000000,0.000000
1782117235.794575,1739150,-0.974609,0.031250,-0.245117,1.829268,-1.707317,0.975610,-3.937500,39.762501,-1.412500,0.0,1.000000,0.000000,0.000000,0.000000
1782117235.805575,1739161,-0.971680,0.035645,-0.247070,2.012195,-1.463415,1.158537,-3.950000,39.725002,-1.362500,0.0,1.000000,0.000000,0.000000,0.000000
1782117235.814575,1739170,-0.968750,0.039551,-0.248047,2.012195,-1.158537,1.219512,-3.950000,39.725002,-1.362500,0.0,1.000000,0.000000,0.000000,0.000000
1782117235.825575,1739181,-0.968750,0.042480,-0.250488,1.707317,-0.792683,1.402439,-3.906250,39.762501,-1.318750,0.0,1.000000,0.000000,0.000000,0.000000
1782117235.835575,1739191,-0.969727,0.042480,-0.250977,1.585366,-0.731707,1.463415,-3.906250,39.762501,-1.318750,0.0,1.000000,0.000000,0.000000,0.000000
1782117235.844575,1739200,-0.970703,0.043457,-0.252930,1.646341,-0.670732,1.402439,-3.900000,39.718750,-1.243750,0.0,1.000000,0.000000,0.000000,0.000000
1782117235.855575,1739211,-0.972168,0.041016,-0.251953,1.768293,-0.731707,1.280488,-3.400000,40.299999,-1.150000,0.0,1.000000,0.000000,0.000000,0.000000
1782117235.865575,1739221,-0.972656,0.040039,-0.250488,1.768293,-0.792683,1.158537,-3.400000,40.299999,-1.150000,0.0,1.000000,0.000000,0.000000,0.000000
1782117235.874575,1739230,-0.973145,0.036621,-0.247559,2.012195,-0.792683,1.158537,-3.887500,39.737499,-1.300000,0.0,1.000000,0.000000,0.000000,0.000000
1782117235.884575,1739240,-0.973633,0.035156,-0.244629,2.073171,-0.792683,1.158537,-3.887500,39.737499,-1.300000,0.0,1.000000,0.000000,0.000000,0.000000
1782117235.894575,1739250,-0.970703,0.035156,-0.243164,2.134146,-0.731707,1.158537,-3.737500,39.843750,-1.212500,0.0,1.000000,0.000000,0.000000,0.000000
1782117235.904575,1739260,-0.969238,0.034668,-0.244141,1.829268,-0.548781,1.097561,-3.737500,39.843750,-1.212500,0.0,1.000000,0.000000,0.000000,0.000000
1782117235.914575,1739270,-0.967285,0.034180,-0.248535,1.463415,-0.304878,1.036585,-3.787500,39.799999,-1.237500,0.0,1.000000,0.000000,0.000000,0.000000
1782117235.925575,1739281,-0.971191,0.035645,-0.251953,0.914634,0.121951,0.975610,-3.787500,39.799999,-1.237500,0.0,1.000000,0.000000,0.000000,0.000000
1782117235.934575,1739290,-0.971680,0.039062,-0.252441,0.243902,0.365854,0.853659,-3.781250,39.799999,-1.250000,0.0,1.000000,0.000000,0.000000,0.000000
1782117235.944575,1739300,-0.967285,0.040527,-0.250000,-0.121951,0.426829,0.731707,-3.781250,39.799999,-1.250000,0.0,1.000000,0.000000,0.000000,0.000000
1782117235.954575,1739310,-0.966797,0.042480,-0.250000,-0.304878,0.792683,0.548781,-3.800000,39.831249,-1.231250,0.0,1.000000,0.000000,0.000000,0.000000
1782117235.964575,1739320,-0.968262,0.041992,-0.249512,-0.731707,0.975610,0.609756,-3.800000,39.831249,-1.231250,0.0,1.000000,0.000000,0.000000,0.000000
1782117235.974575,1739330,-0.970215,0.040527,-0.250488,-1.097561,1.097561,0.609756,-3.737500,39.912502,-1.281250,0.0,1.000000,0.000000,0.000000,0.000000
1782117235.984575,1739340,-0.969727,0.040039,-0.251465,-1.158537,1.036585,0.609756,-3.737500,39.912502,-1.281250,0.0,1.000000,0.000000,0.000000,0.000000
1782117235.994575,1739350,-0.969238,0.037598,-0.250000,-1.036585,0.975610,0.609756,-3.900000,39.750000,-1.318750,0.0,1.000000,0.000000,0.000000,0.000000
1782117236.005575,1739361,-0.971680,0.030762,-0.249023,-0.853659,0.975610,0.487805,-3.900000,39.750000,-1.318750,0.0,1.000000,0.000000,0.000000,0.000000
1782117236.014575,1739370,-0.972168,0.027344,-0.247070,-0.548781,0.975610,0.487805,-3.750000,39.868752,-1.306250,0.0,1.000000,0.000000,0.000000,0.000000
1782117236.024575,1739380,-0.973633,0.024414,-0.247070,-0.121951,0.914634,0.426829,-3.750000,39.868752,-1.306250,0.0,1.000000,0.000000,0.000000,0.000000
1782117236.034575,1739390,-0.975586,0.022949,-0.244629,0.426829,0.853659,0.365854,-3.893750,39.900002,-1.343750,0.0,1.000000,0.000000,0.000000,0.000000
1782117236.044575,1739400,-0.977051,0.022949,-0.244141,0.853659,0.731707,0.426829,-3.893750,39.900002,-1.343750,0.0,1.000000,0.000000,0.000000,0.000000
1782117236.054575,1739410,-0.975586,0.024414,-0.247070,1.036585,0.487805,0.365854,-3.825000,39.793751,-1.356250,0.0,1.000000,0.000000,0.000000,0.000000
1782117236.065575,1739421,-0.974121,0.028809,-0.250977,0.975610,0.548781,0.243902,-3.825000,39.793751,-1.356250,0.0,1.000000,0.000000,0.000000,0.000000
1782117236.074575,1739430,-0.972168,0.038086,-0.250488,0.548781,0.609756,0.243902,-3.887500,39.775002,-1.362500,0.0,1.000000,0.000000,0.000000,0.000000
1782117236.085575,1739441,-0.969238,0.041992,-0.249512,0.304878,0.670732,0.243902,-3.887500,39.775002,-1.362500,0.0,1.000000,0.000000,0.000000,0.000000
1782117236.094575,1739450,-0.969238,0.043457,-0.249512,0.243902,0.853659,0.304878,-3.743750,39.868752,-1.350000,0.0,1.000000,0.000000,0.000000,0.000000
1782117236.104575,1739460,-0.970703,0.044434,-0.248047,0.182927,0.975610,0.365854,-3.743750,39.868752,-1.350000,0.0,1.000000,0.000000,0.000000,0.000000
1782117236.114575,1739470,-0.972168,0.042969,-0.246582,0.182927,0.975610,0.426829,-3.900000,39.831249,-1.368750,0.0,1.000000,0.000000,0.000000,0.000000
1782117236.124575,1739480,-0.972168,0.041504,-0.246582,0.000000,0.853659,0.365854,-3.900000,39.831249,-1.368750,0.0,1.000000,0.000000,0.000000,0.000000
1782117236.134575,1739490,-0.975098,0.039551,-0.248535,-0.304878,0.914634,0.304878,-3.912500,39.837502,-1.393750,0.0,1.000000,0.000000,0.000000,0.000000
1782117236.144575,1739500,-0.974609,0.037598,-0.250977,-0.548781,0.914634,0.243902,-3.912500,39.837502,-1.393750,0.0,1.000000,0.000000,0.000000,0.000000
1782117236.154575,1739510,-0.975586,0.034668,-0.250977,-0.853659,0.731707,0.121951,-3.993750,39.743752,-1.406250,0.0,1.000000,0.000000,0.000000,0.000000
1782117236.164575,1739520,-0.974609,0.033203,-0.250977,-0.914634,0.670732,0.121951,-3.856250,39.937500,-1.456250,0.0,1.000000,0.000000,0.000000,0.000000
1782117236.174575,1739530,-0.973633,0.031738,-0.249512,-0.609756,0.548781,0.182927,-3.856250,39.937500,-1.456250,0.0,1.000000,0.000000,0.000000,0.000000
1782117236.184575,1739540,-0.973633,0.031738,-0.249512,-0.609756,0.548781,0.182927,-3.725000,40.068752,-1.431250,0.0,1.000000,0.000000,0.000000,0.000000
1782117236.194575,1739550,-0.970703,0.028320,-0.252441,0.121951,0.365854,0.426829,-3.725000,40.068752,-1.431250,0.0,1.000000,0.000000,0.000000,0.000000
1782117236.204575,1739560,-0.971680,0.028809,-0.254883,0.426829,0.426829,0.487805,-3.925000,39.818752,-1.450000,0.0,1.000000,0.000000,0.000000,0.000000
1782117236.214575,1739570,-0.971680,0.028809,-0.254883,0.426829,0.426829,0.487805,-3.925000,39.818752,-1.450000,0.0,1.000000,0.000000,0.000000,0.000000
1782117236.224575,1739580,-0.972656,0.028809,-0.254883,0.670732,0.365854,0.548781,-3.912500,39.862499,-1.456250,0.0,1.000000,0.000000,0.000000,0.000000
1782117236.234575,1739590,-0.972168,0.029785,-0.255859,0.914634,0.304878,0.670732,-3.912500,39.862499,-1.456250,0.0,1.000000,0.000000,0.000000,0.000000
1782117236.245575,1739601,-0.971191,0.029785,-0.255371,1.280488,0.182927,0.731707,-3.875000,39.843750,-1.400000,0.0,1.000000,0.000000,0.000000,0.000000
1782117236.254575,1739610,-0.970215,0.031250,-0.253906,1.585366,0.243902,0.731707,-3.875000,39.843750,-1.400000,0.0,1.000000,0.000000,0.000000,0.000000
1782117236.264575,1739620,-0.970703,0.031250,-0.255371,1.646341,0.243902,0.731707,-3.950000,39.837502,-1.456250,0.0,1.000000,0.000000,0.000000,0.000000
1782117236.274575,1739630,-0.971680,0.031738,-0.256348,1.768293,0.182927,0.792683,-3.950000,39.837502,-1.456250,0.0,1.000000,0.000000,0.000000,0.000000
1782117236.284575,1739640,-0.971680,0.031738,-0.256348,1.646341,0.182927,0.670732,-3.912500,39.825001,-1.425000,0.0,1.000000,0.000000,0.000000,0.000000
1782117236.294575,1739650,-0.970703,0.033203,-0.256348,1.585366,0.121951,0.670732,-3.912500,39.825001,-1.425000,0.0,1.000000,0.000000,0.000000,0.000000
1782117236.304575,1739660,-0.969238,0.034668,-0.254883,1.463415,0.182927,0.670732,-3.862500,39.893749,-1.481250,0.0,1.000000,0.000000,0.000000,0.000000
1782117236.314575,1739670,-0.969727,0.036133,-0.254395,1.219512,0.304878,0.731707,-3.862500,39.893749,-1.481250,0.0,1.000000,0.000000,0.000000,0.000000
1782117236.324575,1739680,-0.970703,0.035156,-0.254395,0.853659,0.243902,0.731707,-3.887500,39.893749,-1.418750,0.0,1.000000,0.000000,0.000000,0.000000
1782117236.334575,1739690,-0.970215,0.034668,-0.253906,0.609756,0.243902,0.731707,-3.887500,39.893749,-1.418750,0.0,1.000000,0.000000,0.000000,0.000000
1782117236.344575,1739700,-0.971680,0.032715,-0.255371,0.487805,0.365854,0.731707,-3.787500,39.956249,-1.400000,0.0,1.000000,0.000000,0.000000,0.000000
1782117236.355575,1739711,-0.971191,0.031738,-0.254395,0.548781,0.304878,0.670732,-3.787500,39.956249,-1.400000,0.0,1.000000,0.000000,0.000000,0.000000
1782117236.366575,1739722,-0.970703,0.029297,-0.253906,0.548781,0.304878,0.670732,-3.968750,39.799999,-1.475000,0.0,1.000000,0.000000,0.000000,0.000000
1782117236.375575,1739731,-0.973145,0.030273,-0.253418,0.609756,0.243902,0.548781,-3.968750,39.799999,-1.475000,0.0,1.000000,0.000000,0.000000,0.000000
1782117236.384575,1739740,-0.972168,0.029785,-0.253418,0.670732,0.121951,0.609756,-3.706250,40.037502,-1.406250,0.0,1.000000,0.000000,0.000000,0.000000
1782117236.394575,1739750,-0.972656,0.031250,-0.252441,0.731707,0.060976,0.609756,-3.706250,40.037502,-1.406250,0.0,1.000000,0.000000,0.000000,0.000000
1782117236.405575,1739761,-0.972168,0.032227,-0.252930,0.731707,0.060976,0.670732,-3.987500,39.806252,-1.481250,0.0,1.000000,0.000000,0.000000,0.000000
1782117236.415575,1739771,-0.971680,0.033203,-0.254883,0.731707,0.000000,0.670732,-3.987500,39.806252,-1.481250,0.0,1.000000,0.000000,0.000000,0.000000
1782117236.426575,1739782,-0.971680,0.032715,-0.256348,0.548781,-0.060976,0.670732,-3.875000,39.843750,-1.418750,0.0,1.000000,0.000000,0.000000,0.000000
1782117236.435575,1739791,-0.972656,0.034668,-0.256348,0.243902,-0.060976,0.548781,-3.937500,39.843750,-1.450000,0.0,1.000000,0.000000,0.000000,0.000000
1782117236.446575,1739802,-0.974121,0.035645,-0.254395,0.182927,0.000000,0.487805,-3.937500,39.843750,-1.450000,0.0,1.000000,0.000000,0.000000,0.000000
1782117236.454575,1739810,-0.971191,0.034668,-0.251465,0.243902,-0.060976,0.426829,-3.937500,39.843750,-1.450000,0.0,1.000000,0.000000,0.000000,0.000000
1782117236.465575,1739821,-0.971680,0.033203,-0.249512,0.182927,0.060976,0.365854,-3.875000,39.900002,-1.487500,0.0,1.000000,0.000000,0.000000,0.000000
1782117236.474575,1739830,-0.971680,0.033203,-0.250488,0.243902,0.060976,0.487805,-3.975000,39.856251,-1.431250,0.0,1.000000,0.000000,0.000000,0.000000
1782117236.485575,1739841,-0.971680,0.032227,-0.252441,0.121951,0.060976,0.548781,-3.975000,39.856251,-1.431250,0.0,1.000000,0.000000,0.000000,0.000000
1782117236.494575,1739850,-0.970215,0.031738,-0.252441,-0.121951,0.060976,0.609756,-3.806250,39.962502,-1.456250,0.0,1.000000,0.000000,0.000000,0.000000
1782117236.504575,1739860,-0.972168,0.033203,-0.254883,-0.426829,0.121951,0.548781,-3.806250,39.962502,-1.456250,0.0,1.000000,0.000000,0.000000,0.000000
1782117236.514575,1739870,-0.971680,0.033203,-0.254883,-0.609756,0.060976,0.548781,-3.956250,39.837502,-1.425000,0.0,1.000000,0.000000,0.000000,0.000000
1782117236.525575,1739881,-0.970703,0.033203,-0.255371,-0.426829,0.000000,0.487805,-3.956250,39.837502,-1.425000,0.0,1.000000,0.000000,0.000000,0.000000
1782117236.535575,1739891,-0.969727,0.031738,-0.255371,-0.182927,0.000000,0.487805,-3.956250,39.806252,-1.493750,0.0,1.000000,0.000000,0.000000,0.000000
1782117236.545575,1739901,-0.968750,0.030273,-0.256836,0.182927,0.060976,0.548781,-3.956250,39.806252,-1.493750,0.0,1.000000,0.000000,0.000000,0.000000
1782117236.555575,1739911,-0.968262,0.028809,-0.254395,0.487805,0.060976,0.609756,-3.975000,39.806252,-1.493750,0.0,1.000000,0.000000,0.000000,0.000000
1782117236.564575,1739920,-0.968750,0.027832,-0.254883,0.548781,0.121951,0.731707,-3.975000,39.806252,-1.493750,0.0,1.000000,0.000000,0.000000,0.000000
1782117236.575575,1739931,-0.970703,0.027344,-0.255371,0.548781,0.121951,0.792683,-3.418750,40.375000,-1.412500,0.0,1.000000,0.000000,0.000000,0.000000
1782117236.585575,1739941,-0.973145,0.028320,-0.254883,0.731707,0.182927,0.792683,-3.418750,40.375000,-1.412500,0.0,1.000000,0.000000,0.000000,0.000000
1782117236.595575,1739951,-0.973145,0.028809,-0.253906,0.853659,0.060976,0.792683,-3.925000,39.799999,-1.518750,0.0,1.000000,0.000000,0.000000,0.000000
1782117236.606575,1739962,-0.973145,0.030273,-0.252930,1.219512,-0.060976,0.853659,-3.925000,39.799999,-1.518750,0.0,1.000000,0.000000,0.000000,0.000000
1782117236.615575,1739971,-0.972168,0.030273,-0.250000,1.524390,-0.060976,0.853659,-3.862500,39.931252,-1.525000,0.0,1.000000,0.000000,0.000000,0.000000
1782117236.624575,1739980,-0.971680,0.031250,-0.249512,1.646341,-0.121951,0.914634,-3.862500,39.931252,-1.525000,0.0,1.000000,0.000000,0.000000,0.000000
1782117236.634575,1739990,-0.971680,0.030762,-0.249512,1.585366,-0.182927,0.975610,-3.887500,39.868752,-1.512500,0.0,1.000000,0.000000,0.000000,0.000000
1782117236.644575,1740000,-0.972656,0.031738,-0.248047,1.463415,-0.060976,0.914634,-3.887500,39.868752,-1.512500,0.0,1.000000,0.000000,0.000000,0.000000
1782117236.654575,1740010,-0.974609,0.032715,-0.248535,1.280488,-0.060976,0.914634,-3.650000,40.125000,-1.450000,0.0,1.000000,0.000000,0.000000,0.000000
1782117236.664575,1740020,-0.974609,0.036133,-0.249512,1.097561,-0.182927,0.853659,-3.650000,40.125000,-1.450000,0.0,1.000000,0.000000,0.000000,0.000000
1782117236.674575,1740030,-0.973633,0.034668,-0.251465,0.975610,-0.243902,0.853659,-3.968750,39.781250,-1.525000,0.0,1.000000,0.000000,0.000000,0.000000
1782117236.686575,1740042,-0.971191,0.033691,-0.252930,0.792683,-0.243902,0.853659,-3.925000,39.843750,-1.512500,0.0,1.000000,0.000000,0.000000,0.000000
1782117236.694575,1740050,-0.969727,0.033691,-0.253418,0.792683,-0.182927,0.792683,-3.925000,39.843750,-1.512500,0.0,1.000000,0.000000,0.000000,0.000000
1782117236.704575,1740060,-0.968262,0.032715,-0.252930,0.975610,-0.182927,0.792683,-3.925000,39.843750,-1.512500,0.0,1.000000,0.000000,0.000000,0.000000
1782117236.714575,1740070,-0.970215,0.032227,-0.252441,1.219512,-0.060976,0.914634,-3.981250,39.793751,-1.493750,0.0,1.000000,0.000000,0.000000,0.000000
1782117236.724575,1740080,-0.969727,0.028809,-0.253906,1.402439,-0.121951,0.975610,-3.981250,39.793751,-1.493750,0.0,1.000000,0.000000,0.000000,0.000000
1782117236.734575,1740090,-0.970703,0.027832,-0.255371,1.341463,-0.121951,0.914634,-3.925000,39.856251,-1.512500,0.0,1.000000,0.000000,0.000000,0.000000
1782117236.744575,1740100,-0.971191,0.029297,-0.256348,1.219512,0.121951,0.792683,-3.993750,39.787502,-1.550000,0.0,1.000000,0.000000,0.000000,0.000000
1782117236.754575,1740110,-0.972168,0.030273,-0.254395,1.097561,0.182927,0.731707,-3.993750,39.787502,-1.550000,0.0,1.000000,0.000000,0.000000,0.000000
1782117236.765575,1740121,-0.969727,0.031738,-0.252930,1.097561,0.182927,0.731707,-3.925000,39.825001,-1.487500,0.0,1.000000,0.000000,0.000000,0.000000
1782117236.774575,1740130,-0.968750,0.034668,-0.252930,1.463415,0.182927,0.792683,-3.925000,39.825001,-1.487500,0.0,1.000000,0.000000,0.000000,0.000000
1782117236.785575,1740141,-0.968750,0.035645,-0.253906,1.707317,0.182927,0.975610,-3.918750,39.818752,-1.462500,0.0,1.000000,0.000000,0.000000,0.000000
1782117236.794575,1740150,-0.970703,0.034668,-0.256836,1.707317,0.121951,1.097561,-3.918750,39.818752,-1.462500,0.0,1.000000,0.000000,0.000000,0.000000
1782117236.805575,1740161,-0.971191,0.034668,-0.255859,1.402439,0.121951,1.036585,-3.875000,39.812500,-1.518750,0.0,1.000000,0.000000,0.000000,0.000000
1782117236.815575,1740171,-0.970703,0.033691,-0.256348,1.219512,0.121951,0.914634,-3.875000,39.812500,-1.518750,0.0,1.000000,0.000000,0.000000,0.000000
1782117236.825575,1740181,-0.971191,0.033203,-0.254883,1.158537,0.182927,0.792683,-3.862500,39.862499,-1.487500,0.0,1.000000,0.000000,0.000000,0.000000
1782117236.834575,1740190,-0.972168,0.033203,-0.253906,1.158537,0.182927,0.853659,-3.862500,39.862499,-1.487500,0.0,1.000000,0.000000,0.000000,0.000000
1782117236.847575,1740203,-0.971680,0.031250,-0.253418,1.158537,0.000000,0.792683,-3.887500,39.887501,-1.500000,0.0,1.000000,0.000000,0.000000,0.000000
1782117236.854575,1740210,-0.970703,0.030762,-0.255859,1.158537,-0.060976,0.792683,-3.887500,39.887501,-1.500000,0.0,1.000000,0.000000,0.000000,0.000000
1782117236.864575,1740220,-0.970703,0.030273,-0.255859,1.036585,0.000000,0.792683,-3.875000,39.875000,-1.518750,0.0,1.000000,0.000000,0.000000,0.000000
1782117236.875575,1740231,-0.970215,0.029785,-0.255859,0.853659,0.121951,0.792683,-3.875000,39.875000,-1.518750,0.0,1.000000,0.000000,0.000000,0.000000
1782117236.887575,1740243,-0.973145,0.029297,-0.254883,0.670732,0.182927,0.670732,-3.800000,39.943752,-1.506250,0.0,1.000000,0.000000,0.000000,0.000000
1782117236.894575,1740250,-0.973145,0.031250,-0.252441,0.609756,0.121951,0.609756,-3.800000,39.943752,-1.506250,0.0,1.000000,0.000000,0.000000,0.000000
1782117236.904575,1740260,-0.973633,0.031250,-0.250000,0.731707,0.000000,0.548781,-3.887500,39.893749,-1.493750,0.0,1.000000,0.000000,0.000000,0.000000
1782117236.914575,1740270,-0.972168,0.031738,-0.249023,0.670732,-0.060976,0.548781,-3.887500,39.893749,-1.493750,0.0,1.000000,0.000000,0.000000,0.000000
1782117236.926575,1740282,-0.972168,0.033203,-0.249512,0.548781,-0.060976,0.548781,-3.943750,39.843750,-1.493750,0.0,1.000000,0.000000,0.000000,0.000000
1782117236.934575,1740290,-0.970703,0.035156,-0.252441,0.243902,-0.060976,0.548781,-3.943750,39.843750,-1.493750,0.0,1.000000,0.000000,0.000000,0.000000
1782117236.944575,1740300,-0.971191,0.035645,-0.252930,0.121951,0.000000,0.548781,-3.862500,39.887501,-1.487500,0.0,1.000000,0.000000,0.000000,0.000000
1782117236.954575,1740310,-0.972168,0.036621,-0.252441,-0.060976,0.000000,0.670732,-3.862500,39.887501,-1.487500,0.0,1.000000,0.000000,0.000000,0.000000
1782117236.966575,1740322,-0.971680,0.036133,-0.253906,-0.243902,0.060976,0.548781,-3.937500,39.806252,-1.462500,0.0,1.000000,0.000000,0.000000,0.000000
1782117236.974575,1740330,-0.970703,0.035156,-0.254395,-0.304878,0.060976,0.548781,-3.937500,39.806252,-1.462500,0.0,1.000000,0.000000,0.000000,0.000000
1782117236.984575,1740340,-0.970215,0.032227,-0.253418,-0.182927,0.121951,0.548781,-3.993750,39.818752,-1.512500,0.0,1.000000,0.000000,0.000000,0.000000
1782117236.994575,1740350,-0.970215,0.030273,-0.254883,0.060976,0.182927,0.548781,-3.993750,39.818752,-1.512500,0.0,1.000000,0.000000,0.000000,0.000000
1782117237.007575,1740363,-0.970703,0.026855,-0.254883,0.182927,0.243902,0.609756,-3.893750,39.887501,-1.531250,0.0,1.000000,0.000000,0.000000,0.000000
1782117237.014575,1740370,-0.972168,0.024902,-0.255371,0.243902,0.121951,0.548781,-3.893750,39.887501,-1.531250,0.0,1.000000,0.000000,0.000000,0.000000
1782117237.024575,1740380,-0.973145,0.024902,-0.253418,0.365854,0.060976,0.548781,-3.968750,39.812500,-1.518750,0.0,1.000000,0.000000,0.000000,0.000000
1782117237.034575,1740390,-0.972168,0.027344,-0.252930,0.670732,0.000000,0.548781,-3.968750,39.812500,-1.518750,0.0,1.000000,0.000000,0.000000,0.000000
1782117237.044575,1740400,-0.972168,0.027344,-0.252930,0.670732,0.000000,0.548781,-4.006250,39.775002,-1.506250,0.0,1.000000,0.000000,0.000000,0.000000
1782117237.054575,1740410,-0.972168,0.027832,-0.251465,0.792683,0.000000,0.609756,-3.918750,39.812500,-1.568750,0.0,1.000000,0.000000,0.000000,0.000000
1782117237.064575,1740420,-0.971680,0.029297,-0.251465,0.975610,-0.060976,0.731707,-3.918750,39.812500,-1.568750,0.0,1.000000,0.000000,0.000000,0.000000
1782117237.075575,1740431,-0.970703,0.033203,-0.254883,0.975610,0.000000,0.731707,-3.868750,39.918751,-1.462500,0.0,1.000000,0.000000,0.000000,0.000000
1782117237.084575,1740440,-0.970703,0.033203,-0.254883,0.975610,0.000000,0.731707,-3.868750,39.918751,-1.462500,0.0,1.000000,0.000000,0.000000,0.000000
1782117237.094575,1740450,-0.971191,0.034180,-0.257324,0.853659,0.060976,0.731707,-3.862500,39.893749,-1.481250,0.0,1.000000,0.000000,0.000000,0.000000
1782117237.105575,1740461,-0.973145,0.035156,-0.252441,0.670732,-0.060976,0.609756,-3.862500,39.893749,-1.481250,0.0,1.000000,0.000000,0.000000,0.000000
1782117237.114575,1740470,-0.973145,0.035156,-0.252441,0.670732,-0.060976,0.609756,-3.681250,40.056252,-1.493750,0.0,1.000000,0.000000,0.000000,0.000000
1782117237.126575,1740482,-0.971680,0.035156,-0.250977,0.731707,-0.121951,0.731707,-3.681250,40.056252,-1.493750,0.0,1.000000,0.000000,0.000000,0.000000
1782117237.134575,1740490,-0.972168,0.035645,-0.250000,0.731707,-0.243902,0.853659,-3.887500,39.868752,-1.493750,0.0,1.000000,0.000000,0.000000,0.000000
1782117237.144575,1740500,-0.970215,0.031738,-0.251953,0.731707,-0.243902,0.914634,-3.887500,39.868752,-1.493750,0.0,1.000000,0.000000,0.000000,0.000000
1782117237.154575,1740510,-0.969727,0.031738,-0.254883,0.731707,-0.243902,0.853659,-3.956250,39.806252,-1.525000,0.0,1.000000,0.000000,0.000000,0.000000
1782117237.166575,1740522,-0.970215,0.029297,-0.257812,0.731707,-0.060976,0.853659,-3.956250,39.806252,-1.525000,0.0,1.000000,0.000000,0.000000,0.000000
1782117237.174575,1740530,-0.972168,0.027344,-0.258789,0.853659,0.060976,0.792683,-3.862500,39.875000,-1.500000,0.0,1.000000,0.000000,0.000000,0.000000
1782117237.184575,1740540,-0.972168,0.027344,-0.254883,0.975610,0.000000,0.731707,-3.862500,39.875000,-1.500000,0.0,1.000000,0.000000,0.000000,0.000000
1782117237.194575,1740550,-0.970703,0.028320,-0.253418,1.036585,-0.060976,0.670732,-3.968750,39.812500,-1.518750,0.0,1.000000,0.000000,0.000000,0.000000
1782117237.205575,1740561,-0.972656,0.028809,-0.255859,1.036585,0.000000,0.731707,-3.968750,39.812500,-1.518750,0.0,1.000000,0.000000,0.000000,0.000000
1782117237.214575,1740570,-0.972656,0.031250,-0.254883,1.036585,-0.121951,0.731707,-3.937500,39.837502,-1.506250,0.0,1.000000,0.000000,0.000000,0.000000
1782117237.225575,1740581,-0.970703,0.032227,-0.254883,0.975610,-0.182927,0.731707,-3.937500,39.837502,-1.506250,0.0,1.000000,0.000000,0.000000,0.000000
1782117237.236575,1740592,-0.970215,0.031250,-0.253906,0.975610,-0.182927,0.731707,-3.975000,39.787502,-1.506250,0.0,1.000000,0.000000,0.000000,0.000000
1782117237.246575,1740602,-0.970703,0.031250,-0.254883,0.914634,-0.243902,0.670732,-3.975000,39.787502,-1.506250,0.0,1.000000,0.000000,0.000000,0.000000
1782117237.254575,1740610,-0.969727,0.031738,-0.253906,0.975610,-0.060976,0.670732,-3.893750,39.856251,-1.512500,0.0,1.000000,0.000000,0.000000,0.000000
1782117237.264575,1740620,-0.968750,0.032227,-0.252441,1.158537,0.000000,0.609756,-3.893750,39.856251,-1.512500,0.0,1.000000,0.000000,0.000000,0.000000
1782117237.274575,1740630,-0.969727,0.031250,-0.251465,1.280488,0.243902,0.670732,-3.950000,39.781250,-1.481250,0.0,1.000000,0.000000,0.000000,0.000000
1782117237.285575,1740641,-0.970215,0.032227,-0.251953,1.158537,0.365854,0.731707,-3.950000,39.781250,-1.481250,0.0,1.000000,0.000000,0.000000,0.000000
1782117237.294575,1740650,-0.969727,0.034180,-0.253906,0.975610,0.426829,0.792683,-4.012500,39.756252,-1.543750,0.0,1.000000,0.000000,0.000000,0.000000
1782117237.304575,1740660,-0.970703,0.031250,-0.255371,0.853659,0.487805,0.792683,-4.012500,39.756252,-1.543750,0.0,1.000000,0.000000,0.000000,0.000000
1782117237.314575,1740670,-0.973145,0.029297,-0.256348,0.731707,0.487805,0.731707,-3.993750,39.787502,-1.487500,0.0,1.000000,0.000000,0.000000,0.000000
1782117237.328575,1740684,-0.975098,0.030762,-0.254395,0.426829,0.304878,0.731707,-4.056250,39.787502,-1.581250,0.0,1.000000,0.000000,0.000000,0.000000
1782117237.334575,1740690,-0.973633,0.029785,-0.251465,0.487805,-0.060976,0.670732,-4.056250,39.787502,-1.581250,0.0,1.000000,0.000000,0.000000,0.000000
1782117237.344575,1740700,-0.969727,0.030273,-0.250000,0.914634,-0.182927,0.670732,-3.962500,39.806252,-1.512500,0.0,1.000000,0.000000,0.000000,0.000000
1782117237.354575,1740710,-0.969238,0.030273,-0.251953,1.219512,-0.060976,0.731707,-3.962500,39.806252,-1.512500,0.0,1.000000,0.000000,0.000000,0.000000
1782117237.367575,1740723,-0.970703,0.028809,-0.252930,1.463415,0.000000,0.792683,-3.937500,39.818752,-1.481250,0.0,1.000000,0.000000,0.000000,0.000000
1782117237.375575,1740731,-0.970703,0.030273,-0.256348,1.463415,0.060976,0.792683,-3.937500,39.818752,-1.481250,0.0,1.000000,0.000000,0.000000,0.000000
1782117237.384575,1740740,-0.969727,0.030273,-0.258301,1.341463,0.121951,0.853659,-3.918750,39.862499,-1.475000,0.0,1.000000,0.000000,0.000000,0.000000
1782117237.394575,1740750,-0.968262,0.030273,-0.260742,1.158537,0.243902,0.731707,-3.918750,39.862499,-1.475000,0.0,1.000000,0.000000,0.000000,0.000000
1782117237.405575,1740761,-0.968750,0.031250,-0.260742,0.975610,0.365854,0.792683,-3.906250,39.812500,-1.506250,0.0,1.000000,0.000000,0.000000,0.000000
1782117237.414575,1740770,-0.968750,0.033203,-0.258789,0.914634,0.365854,0.792683,-3.906250,39.812500,-1.506250,0.0,1.000000,0.000000,0.000000,0.000000
1782117237.424575,1740780,-0.967773,0.032715,-0.257812,0.914634,0.304878,0.792683,-3.856250,39.968750,-1.543750,0.0,1.000000,0.000000,0.000000,0.000000
1782117237.434575,1740790,-0.967773,0.032227,-0.258301,0.975610,0.365854,0.792683,-3.856250,39.968750,-1.543750,0.0,1.000000,0.000000,0.000000,0.000000
1782117237.444575,1740800,-0.969238,0.029785,-0.256348,0.975610,0.487805,0.792683,-3.943750,39.831249,-1.525000,0.0,1.000000,0.000000,0.000000,0.000000
1782117237.454575,1740810,-0.971680,0.028320,-0.257812,0.914634,0.426829,0.731707,-3.943750,39.831249,-1.525000,0.0,1.000000,0.000000,0.000000,0.000000
1782117237.464575,1740820,-0.972168,0.028320,-0.257812,0.914634,0.304878,0.792683,-3.731250,40.012501,-1.418750,0.0,1.000000,0.000000,0.000000,0.000000
1782117237.474575,1740830,-0.972168,0.029297,-0.256836,1.036585,0.182927,0.731707,-3.731250,40.012501,-1.418750,0.0,1.000000,0.000000,0.000000,0.000000
1782117237.484575,1740840,-0.972168,0.029297,-0.254395,1.097561,0.121951,0.731707,-3.918750,39.856251,-1.512500,0.0,1.000000,0.000000,0.000000,0.000000
1782117237.494575,1740850,-0.970703,0.030273,-0.252441,1.097561,0.182927,0.731707,-3.918750,39.856251,-1.512500,0.0,1.000000,0.000000,0.000000,0.000000
1782117237.504575,1740860,-0.971191,0.031738,-0.252441,1.219512,0.060976,0.731707,-3.850000,39.937500,-1.518750,0.0,1.000000,0.000000,0.000000,0.000000
1782117237.514575,1740870,-0.970703,0.033691,-0.252441,1.280488,0.182927,0.792683,-3.850000,39.937500,-1.518750,0.0,1.000000,0.000000,0.000000,0.000000
1782117237.524575,1740880,-0.969727,0.035156,-0.256348,1.036585,0.304878,0.853659,-3.962500,39.781250,-1.493750,0.0,1.000000,0.000000,0.000000,0.000000
1782117237.534575,1740890,-0.970703,0.035156,-0.258789,0.731707,0.304878,0.853659,-3.962500,39.781250,-1.493750,0.0,1.000000,0.000000,0.000000,0.000000
1782117237.544575,1740900,-0.970703,0.033691,-0.259766,0.548781,0.304878,0.853659,-3.918750,39.831249,-1.543750,0.0,1.000000,0.000000,0.000000,0.000000
1782117237.555575,1740911,-0.972168,0.032715,-0.256348,0.487805,0.060976,0.731707,-3.918750,39.831249,-1.543750,0.0,1.000000,0.000000,0.000000,0.000000
1782117237.564575,1740920,-0.969727,0.029297,-0.254883,0.487805,-0.121951,0.670732,-3.918750,39.850002,-1.518750,0.0,1.000000,0.000000,0.000000,0.000000
1782117237.575575,1740931,-0.968750,0.027832,-0.255859,0.487805,-0.060976,0.609756,-3.918750,39.850002,-1.518750,0.0,1.000000,0.000000,0.000000,0.000000
1782117237.585575,1740941,-0.968262,0.027344,-0.255859,0.792683,0.182927,0.670732,-3.943750,39.862499,-1.518750,0.0,1.000000,0.000000,0.000000,0.000000
1782117237.594575,1740950,-0.969238,0.026855,-0.257812,0.731707,0.304878,0.609756,-3.943750,39.862499,-1.518750,0.0,1.000000,0.000000,0.000000,0.000000
1782117237.605575,1740961,-0.969238,0.026855,-0.258301,0.609756,0.365854,0.548781,-3.981250,39.799999,-1.518750,0.0,1.000000,0.000000,0.000000,0.000000
1782117237.614575,1740970,-0.970215,0.028320,-0.257324,0.548781,0.548781,0.548781,-3.981250,39.799999,-1.518750,0.0,1.000000,0.000000,0.000000,0.000000
1782117237.625575,1740981,-0.972656,0.029785,-0.257324,0.426829,0.548781,0.548781,-3.900000,39.806252,-1.575000,0.0,1.000000,0.000000,0.000000,0.000000
1782117237.634575,1740990,-0.972656,0.031738,-0.254395,0.548781,0.304878,0.609756,-3.900000,39.806252,-1.575000,0.0,1.000000,0.000000,0.000000,0.000000
1782117237.644575,1741000,-0.972656,0.033691,-0.252441,0.853659,0.121951,0.731707,-3.868750,39.900002,-1.581250,0.0,1.000000,0.000000,0.000000,0.000000
1782117237.654575,1741010,-0.973145,0.032715,-0.251953,1.097561,0.000000,0.853659,-3.887500,39.900002,-1.550000,0.0,1.000000,0.000000,0.000000,0.000000
1782117237.664575,1741020,-0.974609,0.031738,-0.251953,1.158537,-0.121951,0.975610,-3.887500,39.900002,-1.550000,0.0,1.000000,0.000000,0.000000,0.000000
1782117237.674575,1741030,-0.973633,0.031250,-0.252441,1.158537,-0.304878,0.914634,-3.893750,39.868752,-1.587500,0.0,1.000000,0.000000,0.000000,0.000000
1782117237.684575,1741040,-0.971680,0.030762,-0.252441,1.036585,-0.304878,0.792683,-3.893750,39.868752,-1.587500,0.0,1.000000,0.000000,0.000000,0.000000
1782117237.695575,1741051,-0.969727,0.029297,-0.254395,0.914634,-0.304878,0.731707,-3.956250,39.850002,-1.550000,0.0,1.000000,0.000000,0.000000,0.000000
1782117237.704575,1741060,-0.968750,0.028320,-0.255859,0.792683,-0.182927,0.609756,-3.956250,39.850002,-1.550000,0.0,1.000000,0.000000,0.000000,0.000000
1782117237.714575,1741070,-0.967285,0.030273,-0.257812,0.609756,0.121951,0.548781,-3.912500,39.812500,-1.550000,0.0,1.000000,0.000000,0.000000,0.000000
1782117237.724575,1741080,-0.966309,0.030762,-0.260742,0.426829,0.304878,0.487805,-3.912500,39.812500,-1.550000,0.0,1.000000,0.000000,0.000000,0.000000
1782117237.734575,1741090,-0.966309,0.031250,-0.260742,0.243902,0.426829,0.487805,-3.875000,39.825001,-1.581250,0.0,1.000000,0.000000,0.000000,0.000000
1782117237.745575,1741101,-0.968750,0.030762,-0.258301,0.121951,0.487805,0.548781,-3.875000,39.825001,-1.581250,0.0,1.000000,0.000000,0.000000,0.000000
1782117237.755575,1741111,-0.968750,0.029297,-0.257812,0.000000,0.548781,0.548781,-3.843750,39.906250,-1.543750,0.0,1.000000,0.000000,0.000000,0.000000
1782117237.764575,1741120,-0.972168,0.028809,-0.258301,0.000000,0.365854,0.609756,-3.843750,39.906250,-1.543750,0.0,1.000000,0.000000,0.000000,0.000000
1782117237.774575,1741130,-0.972168,0.027344,-0.258301,0.000000,0.243902,0.670732,-3.943750,39.862499,-1.581250,0.0,1.000000,0.000000,0.000000,0.000000
1782117237.784575,1741140,-0.973145,0.027832,-0.256836,0.060976,0.060976,0.731707,-3.943750,39.862499,-1.581250,0.0,1.000000,0.000000,0.000000,0.000000
1782117237.794575,1741150,-0.970703,0.027832,-0.255371,0.243902,-0.121951,0.670732,-3.943750,39.837502,-1.550000,0.0,1.000000,0.000000,0.000000,0.000000
1782117237.806575,1741162,-0.969238,0.028320,-0.257324,0.426829,-0.060976,0.609756,-3.943750,39.837502,-1.550000,0.0,1.000000,0.000000,0.000000,0.000000
1782117237.815575,1741171,-0.967773,0.027832,-0.258789,0.609756,0.243902,0.609756,-3.943750,39.906250,-1.575000,0.0,1.000000,0.000000,0.000000,0.000000
1782117237.824575,1741180,-0.968262,0.029297,-0.259766,0.670732,0.304878,0.609756,-3.943750,39.906250,-1.575000,0.0,1.000000,0.000000,0.000000,0.000000
1782117237.834575,1741190,-0.968750,0.029297,-0.260254,0.609756,0.426829,0.609756,-3.956250,39.799999,-1.550000,0.0,1.000000,0.000000,0.000000,0.000000
1782117237.844575,1741200,-0.970703,0.028320,-0.261230,0.487805,0.548781,0.487805,-3.956250,39.799999,-1.550000,0.0,1.000000,0.000000,0.000000,0.000000
1782117237.854575,1741210,-0.970703,0.027832,-0.260742,0.304878,0.365854,0.548781,-4.018750,39.750000,-1.612500,0.0,1.000000,0.000000,0.000000,0.000000
1782117237.864575,1741220,-0.969727,0.029297,-0.260254,0.243902,0.304878,0.609756,-4.018750,39.750000,-1.612500,0.0,1.000000,0.000000,0.000000,0.000000
1782117237.874575,1741230,-0.969727,0.029297,-0.260254,0.243902,0.304878,0.609756,-3.993750,39.850002,-1.662500,0.0,1.000000,0.000000,0.000000,0.000000
1782117237.884575,1741240,-0.970703,0.030273,-0.258301,0.121951,0.060976,0.670732,-3.993750,39.850002,-1.662500,0.0,1.000000,0.000000,0.000000,0.000000
1782117237.894575,1741250,-0.970703,0.030273,-0.258301,0.121951,0.060976,0.670732,-4.031250,39.787502,-1.600000,0.0,1.000000,0.000000,0.000000,0.000000
1782117237.904575,1741260,-0.968750,0.029297,-0.255859,0.304878,0.000000,0.670732,-4.031250,39.787502,-1.600000,0.0,1.000000,0.000000,0.000000,0.000000
1782117237.914575,1741270,-0.966797,0.028320,-0.256348,0.365854,0.182927,0.670732,-4.018750,39.762501,-1.631250,0.0,1.000000,0.000000,0.000000,0.000000
1782117237.924575,1741280,-0.967773,0.027832,-0.257812,0.487805,0.365854,0.731707,-4.018750,39.762501,-1.631250,0.0,1.000000,0.000000,0.000000,0.000000
1782117237.934575,1741290,-0.970215,0.027832,-0.257812,0.487805,0.426829,0.853659,-4.081250,39.737499,-1.643750,0.0,1.000000,0.000000,0.000000,0.000000
1782117237.944575,1741300,-0.971191,0.026367,-0.260254,0.548781,0.365854,0.792683,-4.031250,39.850002,-1.643750,0.0,1.000000,0.000000,0.000000,0.000000
1782117237.954575,1741310,-0.972656,0.028320,-0.260742,0.487805,0.365854,0.670732,-4.031250,39.850002,-1.643750,0.0,1.000000,0.000000,0.000000,0.000000
1782117237.964575,1741320,-0.972168,0.028320,-0.259766,0.670732,0.243902,0.609756,-3.993750,39.856251,-1.668750,0.0,1.000000,0.000000,0.000000,0.000000
1782117237.974575,1741330,-0.971680,0.030762,-0.255859,0.853659,0.182927,0.548781,-3.993750,39.856251,-1.668750,0.0,1.000000,0.000000,0.000000,0.000000
1782117237.984575,1741340,-0.970215,0.031250,-0.255859,1.158537,0.182927,0.670732,-3.756250,40.043751,-1.618750,0.0,1.000000,0.000000,0.000000,0.000000
1782117237.995575,1741351,-0.969238,0.029785,-0.256348,1.280488,0.121951,0.792683,-3.756250,40.043751,-1.618750,0.0,1.000000,0.000000,0.000000,0.000000
1782117238.004575,1741360,-0.970215,0.029297,-0.255859,1.158537,0.121951,0.792683,-3.981250,39.793751,-1.650000,0.0,1.000000,0.000000,0.000000,0.000000
1782117238.015575,1741371,-0.969238,0.031250,-0.257812,0.914634,0.121951,0.853659,-3.981250,39.793751,-1.650000,0.0,1.000000,0.000000,0.000000,0.000000
1782117238.025575,1741381,-0.970703,0.030273,-0.258789,0.731707,0.304878,0.853659,-3.937500,39.900002,-1.612500,0.0,1.000000,0.000000,0.000000,0.000000
1782117238.034575,1741390,-0.972168,0.031250,-0.259766,0.548781,0.304878,0.792683,-3.937500,39.900002,-1.612500,0.0,1.000000,0.000000,0.000000,0.000000
1782117238.044575,1741400,-0.971680,0.032227,-0.260742,0.365854,0.304878,0.731707,-4.012500,39.775002,-1.662500,0.0,1.000000,0.000000,0.000000,0.000000
1782117238.054575,1741410,-0.969238,0.030273,-0.259766,0.426829,0.182927,0.670732,-4.012500,39.775002,-1.662500,0.0,1.000000,0.000000,0.000000,0.000000
1782117238.064575,1741420,-0.967773,0.029785,-0.258789,0.731707,0.121951,0.609756,-3.925000,39.924999,-1.675000,0.0,1.000000,0.000000,0.000000,0.000000
1782117238.074575,1741430,-0.968750,0.028320,-0.258789,0.914634,0.304878,0.670732,-3.925000,39.924999,-1.675000,0.0,1.000000,0.000000,0.000000,0.000000
1782117238.084575,1741440,-0.970215,0.028809,-0.260742,1.036585,0.243902,0.792683,-3.737500,40.025002,-1.606250,0.0,1.000000,0.000000,0.000000,0.000000
1782117238.094575,1741450,-0.969727,0.027344,-0.259766,0.792683,0.121951,0.792683,-3.737500,40.025002,-1.606250,0.0,1.000000,0.000000,0.000000,0.000000
1782117238.104575,1741460,-0.971680,0.027832,-0.261230,0.792683,0.182927,0.731707,-3.937500,39.856251,-1.650000,0.0,1.000000,0.000000,0.000000,0.000000
1782117238.114575,1741470,-0.971680,0.029297,-0.261719,0.670732,0.121951,0.792683,-3.937500,39.856251,-1.650000,0.0,1.000000,0.000000,0.000000,0.000000
1782117238.124575,1741480,-0.969727,0.029297,-0.259766,0.792683,0.121951,0.731707,-4.006250,39.843750,-1.650000,0.0,1.000000,0.000000,0.000000,0.000000
1782117238.134575,1741490,-0.968750,0.029297,-0.259277,1.097561,0.304878,0.731707,-4.006250,39.843750,-1.650000,0.0,1.000000,0.000000,0.000000,0.000000
1782117238.144575,1741500,-0.968262,0.028320,-0.258301,1.280488,0.243902,0.853659,-3.956250,39.818752,-1.700000,0.0,1.000000,0.000000,0.000000,0.000000
1782117238.154575,1741510,-0.970215,0.029297,-0.258301,1.402439,0.243902,0.853659,-3.956250,39.818752,-1.700000,0.0,1.000000,0.000000,0.000000,0.000000
1782117238.164575,1741520,-0.970703,0.029297,-0.257812,1.402439,0.243902,0.853659,-4.037500,39.812500,-1.675000,0.0,1.000000,0.000000,0.000000,0.000000
1782117238.174575,1741530,-0.969727,0.029785,-0.258301,1.158537,0.243902,0.792683,-4.037500,39.812500,-1.675000,0.0,1.000000,0.000000,0.000000,0.000000
1782117238.185575,1741541,-0.972168,0.031250,-0.258789,0.914634,0.243902,0.731707,-3.837500,39.937500,-1.656250,0.0,1.000000,0.000000,0.000000,0.000000
1782117238.194575,1741550,-0.972168,0.032227,-0.260254,0.853659,0.182927,0.792683,-3.837500,39.937500,-1.656250,0.0,1.000000,0.000000,0.000000,0.000000
1782117238.204575,1741560,-0.970215,0.031250,-0.259766,0.792683,0.060976,0.731707,-3.818750,40.006252,-1.650000,0.0,1.000000,0.000000,0.000000,0.000000
1782117238.214575,1741570,-0.968750,0.031250,-0.259277,0.609756,0.060976,0.670732,-3.818750,40.006252,-1.650000,0.0,1.000000,0.000000,0.000000,0.000000
1782117238.224575,1741580,-0.968262,0.030273,-0.259766,0.609756,0.182927,0.731707,-3.981250,39.893749,-1.668750,0.0,1.000000,0.000000,0.000000,0.000000
1782117238.234575,1741590,-0.968750,0.028809,-0.261230,0.609756,0.243902,0.670732,-3.981250,39.893749,-1.668750,0.0,1.000000,0.000000,0.000000,0.000000
1782117238.244575,1741600,-0.968750,0.027344,-0.260742,0.548781,0.304878,0.670732,-4.043750,39.768749,-1.700000,0.0,1.000000,0.000000,0.000000,0.000000
1782117238.254575,1741610,-0.971191,0.026855,-0.259766,0.731707,0.304878,0.731707,-4.018750,39.875000,-1.706250,0.0,1.000000,0.000000,0.000000,0.000000
1782117238.264575,1741620,-0.969727,0.027344,-0.259766,0.914634,0.182927,0.792683,-4.018750,39.875000,-1.706250,0.0,1.000000,0.000000,0.000000,0.000000
1782117238.275575,1741631,-0.969727,0.027344,-0.259766,0.975610,0.060976,0.731707,-3.993750,39.868752,-1.681250,0.0,1.000000,0.000000,0.000000,0.000000
1782117238.284575,1741640,-0.969727,0.029785,-0.259766,0.914634,0.121951,0.731707,-3.993750,39.868752,-1.681250,0.0,1.000000,0.000000,0.000000,0.000000
1782117238.296575,1741652,-0.968750,0.029785,-0.262695,0.853659,0.182927,0.731707,-3.975000,39.856251,-1.681250,0.0,1.000000,0.000000,0.000000,0.000000
1782117238.304575,1741660,-0.970215,0.031250,-0.262207,0.853659,0.243902,0.792683,-3.975000,39.856251,-1.681250,0.0,1.000000,0.000000,0.000000,0.000000
1782117238.314575,1741670,-0.970703,0.030762,-0.261719,0.792683,0.121951,0.731707,-3.956250,39.918751,-1.700000,0.0,1.000000,0.000000,0.000000,0.000000
1782117238.324575,1741680,-0.971191,0.030762,-0.262695,0.548781,0.121951,0.731707,-3.956250,39.918751,-1.700000,0.0,1.000000,0.000000,0.000000,0.000000
1782117238.335575,1741691,-0.972168,0.031250,-0.261230,0.304878,0.121951,0.609756,-3.950000,39.906250,-1.681250,0.0,1.000000,0.000000,0.000000,0.000000
1782117238.344575,1741700,-0.971191,0.031738,-0.259766,0.182927,0.060976,0.548781,-3.950000,39.906250,-1.681250,0.0,1.000000,0.000000,0.000000,0.000000
1782117238.354575,1741710,-0.969238,0.029785,-0.258789,0.304878,0.000000,0.609756,-3.968750,39.868752,-1.731250,0.0,1.000000,0.000000,0.000000,0.000000
1782117238.364575,1741720,-0.969238,0.028809,-0.258301,0.304878,0.060976,0.548781,-3.968750,39.868752,-1.731250,0.0,1.000000,0.000000,0.000000,0.000000
1782117238.374575,1741730,-0.969727,0.026855,-0.258301,0.304878,0.000000,0.548781,-3.918750,39.918751,-1.700000,0.0,1.000000,0.000000,0.000000,0.000000
1782117238.385575,1741741,-0.971191,0.026855,-0.258789,0.243902,0.000000,0.548781,-3.918750,39.918751,-1.700000,0.0,1.000000,0.000000,0.000000,0.000000
1782117238.395575,1741751,-0.973145,0.025879,-0.257324,0.121951,0.000000,0.609756,-3.956250,39.856251,-1.712500,0.0,1.000000,0.000000,0.000000,0.000000
1782117238.404575,1741760,-0.974609,0.026367,-0.257324,0.121951,0.000000,0.670732,-3.956250,39.856251,-1.712500,0.0,1.000000,0.000000,0.000000,0.000000
1782117238.414575,1741770,-0.974121,0.030273,-0.256836,0.243902,-0.060976,0.731707,-4.018750,39.831249,-1.743750,0.0,1.000000,0.000000,0.000000,0.000000
1782117238.424575,1741780,-0.984375,0.032227,-0.257812,0.609756,0.243902,0.975610,-4.018750,39.831249,-1.743750,0.0,1.000000,0.000000,0.000000,0.000000
1782117238.434575,1741790,-0.975586,0.025391,-0.247070,1.219512,-0.487805,0.792683,-4.050000,39.812500,-1.737500,0.0,1.000000,0.000000,0.000000,0.000000
1782117238.444575,1741800,-0.963867,0.018555,-0.252441,0.670732,0.000000,-0.121951,-4.050000,39.812500,-1.737500,0.0,1.000000,0.000000,0.000000,0.000000
1782117238.456575,1741812,-0.968262,0.026855,-0.250488,1.097561,0.487805,-0.182927,-4.018750,39.799999,-1.737500,0.0,1.000000,0.000000,0.000000,0.000000
1782117238.464575,1741820,-0.972656,0.027344,-0.248535,1.890244,0.426829,0.243902,-4.018750,39.799999,-1.737500,0.0,1.000000,0.000000,0.000000,0.000000
1782117238.474575,1741830,-0.975098,0.029785,-0.244141,2.073171,0.304878,0.426829,-3.993750,39.825001,-1.693750,0.0,1.000000,0.000000,0.000000,0.000000
1782117238.484575,1741840,-0.971680,0.034180,-0.247070,1.768293,-0.060976,0.609756,-3.993750,39.825001,-1.693750,0.0,1.000000,0.000000,0.000000,0.000000
1782117238.494575,1741850,-0.969727,0.036621,-0.249512,1.402439,-0.121951,0.792683,-4.081250,39.768749,-1.687500,0.0,1.000000,0.000000,0.000000,0.000000
1782117238.504575,1741860,-0.968262,0.038086,-0.250977,0.731707,-0.121951,0.853659,-4.081250,39.768749,-1.687500,0.0,1.000000,0.000000,0.000000,0.000000
1782117238.515575,1741871,-0.966797,0.037109,-0.256348,0.121951,0.060976,0.792683,-4.018750,39.799999,-1.725000,0.0,1.000000,0.000000,0.000000,0.000000
1782117238.525575,1741881,-0.969238,0.033203,-0.260742,-0.365854,0.365854,0.731707,-3.800000,40.043751,-1.662500,0.0,1.000000,0.000000,0.000000,0.000000
1782117238.535575,1741891,-0.970703,0.030762,-0.263184,-0.670732,0.487805,0.609756,-3.800000,40.043751,-1.662500,0.0,1.000000,0.000000,0.000000,0.000000
1782117238.545575,1741901,-0.971680,0.028320,-0.265137,-0.487805,0.304878,0.487805,-3.987500,39.937500,-1.737500,0.0,1.000000,0.000000,0.000000,0.000000
1782117238.554575,1741910,-0.968750,0.026367,-0.262695,-0.060976,0.121951,0.426829,-3.987500,39.937500,-1.737500,0.0,1.000000,0.000000,0.000000,0.000000
1782117238.565575,1741921,-0.967285,0.024414,-0.265625,0.243902,0.121951,0.304878,-3.956250,39.924999,-1.725000,0.0,1.000000,0.000000,0.000000,0.000000
1782117238.575575,1741931,-0.966797,0.022949,-0.266602,0.426829,0.182927,0.243902,-3.956250,39.924999,-1.725000,0.0,1.000000,0.000000,0.000000,0.000000
1782117238.584575,1741940,-0.964844,0.024414,-0.270020,0.548781,0.182927,0.243902,-3.975000,39.887501,-1.756250,0.0,1.000000,0.000000,0.000000,0.000000
1782117238.594575,1741950,-0.964355,0.025391,-0.271973,0.670732,0.426829,0.365854,-3.975000,39.887501,-1.756250,0.0,1.000000,0.000000,0.000000,0.000000
1782117238.604575,1741960,-0.965820,0.027344,-0.269531,0.792683,0.548781,0.609756,-3.837500,40.100002,-1.675000,0.0,1.000000,0.000000,0.000000,0.000000
1782117238.615575,1741971,-0.965820,0.027344,-0.268555,0.914634,0.487805,0.670732,-3.837500,40.100002,-1.675000,0.0,1.000000,0.000000,0.000000,0.000000
1782117238.624575,1741980,-0.964844,0.027832,-0.269043,1.097561,0.304878,0.792683,-4.050000,39.843750,-1.731250,0.0,1.000000,0.000000,0.000000,0.000000
1782117238.634575,1741990,-0.964844,0.028320,-0.269531,1.219512,0.182927,0.731707,-4.050000,39.843750,-1.731250,0.0,1.000000,0.000000,0.000000,0.000000
1782117238.644575,1742000,-0.964355,0.026855,-0.272949,1.036585,0.182927,0.670732,-4.000000,39.912502,-1.725000,0.0,1.000000,0.000000,0.000000,0.000000
1782117238.656575,1742012,-0.966309,0.025391,-0.272949,0.792683,0.304878,0.548781,-4.000000,39.912502,-1.725000,0.0,1.000000,0.000000,0.000000,0.000000
1782117238.664575,1742020,-0.967285,0.026367,-0.270508,0.426829,0.365854,0.365854,-3.950000,39.956249,-1.700000,0.0,1.000000,0.000000,0.000000,0.000000
1782117238.674575,1742030,-0.966797,0.025391,-0.268555,0.304878,0.426829,0.243902,-3.950000,39.956249,-1.700000,0.0,1.000000,0.000000,0.000000,0.000000
1782117238.684575,1742040,-0.965820,0.024902,-0.264160,0.487805,0.426829,0.243902,-3.937500,39.950001,-1.675000,0.0,1.000000,0.000000,0.000000,0.000000
1782117238.695575,1742051,-0.965820,0.024902,-0.265137,0.487805,0.548781,0.304878,-3.937500,39.950001,-1.675000,0.0,1.000000,0.000000,0.000000,0.000000
1782117238.705575,1742061,-0.967773,0.025879,-0.264648,0.487805,0.609756,0.487805,-3.981250,39.906250,-1.637500,0.0,1.000000,0.000000,0.000000,0.000000
1782117238.714575,1742070,-0.968750,0.025391,-0.266113,0.487805,0.487805,0.548781,-3.981250,39.906250,-1.637500,0.0,1.000000,0.000000,0.000000,0.000000
1782117238.724575,1742080,-0.969238,0.026367,-0.268555,0.609756,0.426829,0.609756,-4.093750,39.818752,-1.750000,0.0,1.000000,0.000000,0.000000,0.000000
1782117238.737575,1742093,-0.969238,0.025391,-0.270020,0.609756,0.304878,0.670732,-4.093750,39.818752,-1.750000,0.0,1.000000,0.000000,0.000000,0.000000
1782117238.744575,1742100,-0.969238,0.025391,-0.270020,0.609756,0.304878,0.670732,-4.012500,39.862499,-1.768750,0.0,1.000000,0.000000,0.000000,0.000000
1782117238.755575,1742111,-0.969727,0.025391,-0.270020,0.731707,0.243902,0.670732,-4.012500,39.862499,-1.768750,0.0,1.000000,0.000000,0.000000,0.000000
1782117238.764575,1742120,-0.971191,0.024902,-0.267578,0.670732,0.121951,0.609756,-4.156250,39.768749,-1.781250,0.0,1.000000,0.000000,0.000000,0.000000
1782117238.775575,1742131,-0.966797,0.024414,-0.261719,1.280488,0.000000,0.548781,-4.156250,39.768749,-1.781250,0.0,1.000000,0.000000,0.000000,0.000000
1782117238.784575,1742140,-0.966797,0.024414,-0.261719,1.280488,0.000000,0.548781,-4.050000,39.850002,-1.756250,0.0,1.000000,0.000000,0.000000,0.000000
1782117238.794575,1742150,-0.965820,0.022461,-0.261230,1.585366,0.243902,0.548781,-4.050000,39.850002,-1.756250,0.0,1.000000,0.000000,0.000000,0.000000
1782117238.805575,1742161,-0.968262,0.023926,-0.261719,1.585366,0.304878,0.670732,-4.150000,39.812500,-1.806250,0.0,1.000000,0.000000,0.000000,0.000000
1782117238.816575,1742172,-0.968750,0.024414,-0.262695,1.341463,0.243902,0.731707,-4.150000,39.812500,-1.806250,0.0,1.000000,0.000000,0.000000,0.000000
1782117238.824575,1742180,-0.969727,0.025879,-0.263184,1.158537,0.243902,0.731707,-4.143750,39.781250,-1.825000,0.0,1.000000,0.000000,0.000000,0.000000
1782117238.834575,1742190,-0.970703,0.027832,-0.262695,1.036585,0.365854,0.670732,-4.087500,39.837502,-1.800000,0.0,1.000000,0.000000,0.000000,0.000000
1782117238.844575,1742200,-0.969238,0.029785,-0.259277,0.975610,0.243902,0.609756,-4.087500,39.837502,-1.800000,0.0,1.000000,0.000000,0.000000,0.000000
1782117238.857575,1742213,-0.970703,0.029297,-0.259277,1.097561,0.243902,0.609756,-4.106250,39.818752,-1.781250,0.0,1.000000,0.000000,0.000000,0.000000
1782117238.865575,1742221,-0.970703,0.029297,-0.259277,1.097561,0.243902,0.609756,-4.106250,39.818752,-1.781250,0.0,1.000000,0.000000,0.000000,0.000000
1782117238.874575,1742230,-0.970215,0.028809,-0.261719,1.036585,0.182927,0.670732,-4.075000,39.900002,-1.831250,0.0,1.000000,0.000000,0.000000,0.000000
1782117238.884575,1742240,-0.967773,0.027344,-0.264648,0.731707,0.060976,0.670732,-4.075000,39.900002,-1.831250,0.0,1.000000,0.000000,0.000000,0.000000
1782117238.898575,1742254,-0.969727,0.028320,-0.264648,-0.121951,0.121951,0.365854,-4.068750,39.887501,-1.725000,0.0,1.000000,0.000000,0.000000,0.000000
1782117238.904575,1742260,-0.969727,0.028320,-0.264648,-0.121951,0.121951,0.365854,-4.068750,39.887501,-1.725000,0.0,1.000000,0.000000,0.000000,0.000000
1782117238.914575,1742270,-0.968262,0.026855,-0.264160,0.060976,0.243902,0.304878,-3.993750,39.924999,-1.787500,0.0,1.000000,0.000000,0.000000,0.000000
1782117238.924575,1742280,-0.969238,0.025391,-0.262207,0.304878,0.365854,0.243902,-3.993750,39.924999,-1.787500,0.0,1.000000,0.000000,0.000000,0.000000
1782117238.936575,1742292,-0.970703,0.024902,-0.262207,0.426829,0.304878,0.426829,-4.087500,39.831249,-1.762500,0.0,1.000000,0.000000,0.000000,0.000000
1782117238.945575,1742301,-0.971191,0.024414,-0.262695,0.548781,0.121951,0.548781,-4.087500,39.831249,-1.762500,0.0,1.000000,0.000000,0.000000,0.000000
1782117238.954575,1742310,-0.970703,0.025391,-0.263184,0.426829,0.000000,0.670732,-4.062500,39.850002,-1.756250,0.0,1.000000,0.000000,0.000000,0.000000
1782117238.965575,1742321,-0.970215,0.027344,-0.260254,0.243902,-0.121951,0.670732,-4.062500,39.850002,-1.756250,0.0,1.000000,0.000000,0.000000,0.000000
1782117238.977575,1742333,-0.967773,0.027344,-0.259277,0.243902,-0.182927,0.609756,-4.087500,39.862499,-1.862500,0.0,1.000000,0.000000,0.000000,0.000000
1782117238.984575,1742340,-0.966309,0.027344,-0.260254,0.487805,-0.121951,0.670732,-4.087500,39.862499,-1.862500,0.0,1.000000,0.000000,0.000000,0.000000
1782117238.994575,1742350,-0.968262,0.024902,-0.261230,0.609756,0.060976,0.670732,-3.800000,40.131252,-1.712500,0.0,1.000000,0.000000,0.000000,0.000000
1782117239.004575,1742360,-0.968750,0.024902,-0.263184,0.548781,0.121951,0.548781,-3.800000,40.131252,-1.712500,0.0,1.000000,0.000000,0.000000,0.000000
1782117239.016575,1742372,-0.968262,0.024414,-0.268066,0.243902,0.243902,0.487805,-4.075000,39.850002,-1.800000,0.0,1.000000,0.000000,0.000000,0.000000
1782117239.025575,1742381,-0.970215,0.024902,-0.267578,0.060976,0.365854,0.426829,-4.075000,39.850002,-1.800000,0.0,1.000000,0.000000,0.000000,0.000000
1782117239.034575,1742390,-0.968750,0.024902,-0.263672,0.000000,0.304878,0.304878,-4.106250,39.887501,-1.768750,0.0,1.000000,0.000000,0.000000,0.000000
1782117239.044575,1742400,-0.968750,0.024414,-0.262207,0.060976,0.243902,0.304878,-4.106250,39.887501,-1.768750,0.0,1.000000,0.000000,0.000000,0.000000
1782117239.057575,1742413,-0.968750,0.024414,-0.261230,0.182927,0.121951,0.426829,-4.118750,39.762501,-1.818750,0.0,1.000000,0.000000,0.000000,0.000000
1782117239.064575,1742420,-0.967285,0.023438,-0.260742,0.365854,0.060976,0.426829,-4.118750,39.762501,-1.818750,0.0,1.000000,0.000000,0.000000,0.000000
1782117239.074575,1742430,-0.965820,0.021973,-0.262207,0.426829,0.182927,0.487805,-4.100000,39.893749,-1.793750,0.0,1.000000,0.000000,0.000000,0.000000
1782117239.084575,1742440,-0.968262,0.021973,-0.263672,0.426829,0.243902,0.609756,-4.100000,39.893749,-1.793750,0.0,1.000000,0.000000,0.000000,0.000000
1782117239.098575,1742454,-0.969727,0.022461,-0.263184,0.487805,0.304878,0.609756,-4.168750,39.750000,-1.850000,0.0,1.000000,0.000000,0.000000,0.000000
1782117239.104575,1742460,-0.971680,0.021973,-0.264648,0.609756,0.243902,0.609756,-4.168750,39.750000,-1.850000,0.0,1.000000,0.000000,0.000000,0.000000
1782117239.114575,1742470,-0.973145,0.023438,-0.266113,0.670732,0.182927,0.548781,-4.043750,39.918751,-1.806250,0.0,1.000000,0.000000,0.000000,0.000000
1782117239.124575,1742480,-0.970703,0.025879,-0.265137,0.731707,0.000000,0.487805,-4.187500,39.825001,-1.850000,0.0,1.000000,0.000000,0.000000,0.000000
1782117239.136575,1742492,-0.968750,0.026367,-0.264160,0.853659,-0.060976,0.487805,-4.187500,39.825001,-1.850000,0.0,1.000000,0.000000,0.000000,0.000000
1782117239.145575,1742501,-0.968262,0.026855,-0.261719,0.792683,0.000000,0.487805,-4.137500,39.862499,-1.800000,0.0,1.000000,0.000000,0.000000,0.000000
1782117239.154575,1742510,-0.967285,0.026367,-0.261719,0.731707,0.121951,0.609756,-4.137500,39.862499,-1.800000,0.0,1.000000,0.000000,0.000000,0.000000
1782117239.164575,1742520,-0.966797,0.025879,-0.263184,0.670732,0.121951,0.731707,-4.181250,39.843750,-1.875000,0.0,1.000000,0.000000,0.000000,0.000000
1782117239.177575,1742533,-0.965332,0.022461,-0.265625,0.487805,0.182927,0.731707,-4.181250,39.843750,-1.875000,0.0,1.000000,0.000000,0.000000,0.000000
1782117239.185575,1742541,-0.967773,0.021973,-0.266113,0.365854,0.304878,0.731707,-3.681250,40.293751,-1.768750,0.0,1.000000,0.000000,0.000000,0.000000
1782117239.194575,1742550,-0.967285,0.022461,-0.267578,0.182927,0.426829,0.548781,-3.681250,40.293751,-1.768750,0.0,1.000000,0.000000,0.000000,0.000000
1782117239.204575,1742560,-0.966797,0.020508,-0.269043,0.182927,0.426829,0.426829,-3.793750,40.174999,-1.781250,0.0,1.000000,0.000000,0.000000,0.000000
1782117239.214575,1742570,-0.966797,0.021973,-0.266113,0.365854,0.487805,0.365854,-3.793750,40.174999,-1.781250,0.0,1.000000,0.000000,0.000000,0.000000
1782117239.224575,1742580,-0.967285,0.022461,-0.264648,0.487805,0.487805,0.426829,-4.156250,39.818752,-1.937500,0.0,1.000000,0.000000,0.000000,0.000000
1782117239.234575,1742590,-0.968262,0.021973,-0.265137,0.609756,0.365854,0.487805,-4.156250,39.818752,-1.937500,0.0,1.000000,0.000000,0.000000,0.000000
1782117239.245575,1742601,-0.969238,0.024414,-0.265137,0.548781,0.304878,0.609756,-4.175000,39.831249,-1.825000,0.0,1.000000,0.000000,0.000000,0.000000
1782117239.257575,1742613,-0.969727,0.024902,-0.264648,0.609756,0.182927,0.731707,-4.175000,39.831249,-1.825000,0.0,1.000000,0.000000,0.000000,0.000000
1782117239.264575,1742620,-0.969238,0.024902,-0.266602,0.609756,0.000000,0.792683,-4.081250,39.906250,-1.856250,0.0,1.000000,0.000000,0.000000,0.000000
1782117239.274575,1742630,-0.970215,0.024414,-0.264648,0.609756,0.000000,0.731707,-4.081250,39.906250,-1.856250,0.0,1.000000,0.000000,0.000000,0.000000
1782117239.284575,1742640,-0.969727,0.024902,-0.264160,0.731707,-0.121951,0.792683,-4.187500,39.856251,-1.887500,0.0,1.000000,0.000000,0.000000,0.000000
1782117239.295575,1742651,-0.968262,0.023926,-0.264160,0.853659,-0.060976,0.792683,-4.187500,39.856251,-1.887500,0.0,1.000000,0.000000,0.000000,0.000000
1782117239.305575,1742661,-0.965820,0.021973,-0.263184,0.853659,0.060976,0.609756,-4.143750,39.818752,-1.875000,0.0,1.000000,0.000000,0.000000,0.000000
1782117239.314575,1742670,-0.964355,0.023926,-0.265625,0.731707,0.304878,0.670732,-4.143750,39.818752,-1.875000,0.0,1.000000,0.000000,0.000000,0.000000
1782117239.325575,1742681,-0.965820,0.022949,-0.267578,0.609756,0.487805,0.731707,-4.143750,39.856251,-1.875000,0.0,1.000000,0.000000,0.000000,0.000000
1782117239.337575,1742693,-0.968262,0.023926,-0.267578,0.487805,0.609756,0.731707,-4.143750,39.856251,-1.875000,0.0,1.000000,0.000000,0.000000,0.000000
1782117239.345575,1742701,-0.970703,0.023438,-0.270508,0.548781,0.487805,0.792683,-4.175000,39.843750,-1.843750,0.0,1.000000,0.000000,0.000000,0.000000
1782117239.354575,1742710,-0.971680,0.020996,-0.269043,0.853659,0.304878,0.853659,-4.175000,39.843750,-1.843750,0.0,1.000000,0.000000,0.000000,0.000000
1782117239.365575,1742721,-0.970215,0.020996,-0.266113,1.036585,0.060976,0.792683,-4.193750,39.843750,-1.887500,0.0,1.000000,0.000000,0.000000,0.000000
1782117239.374575,1742730,-0.968750,0.022949,-0.264160,1.097561,-0.121951,0.731707,-4.193750,39.843750,-1.887500,0.0,1.000000,0.000000,0.000000,0.000000
1782117239.384575,1742740,-0.966309,0.022461,-0.261719,1.341463,-0.121951,0.792683,-4.193750,39.850002,-1.912500,0.0,1.000000,0.000000,0.000000,0.000000
1782117239.394575,1742750,-0.966309,0.022949,-0.262207,1.585366,0.000000,0.914634,-4.193750,39.850002,-1.912500,0.0,1.000000,0.000000,0.000000,0.000000
1782117239.404575,1742760,-0.968262,0.023926,-0.264648,1.585366,0.182927,0.914634,-4.193750,39.831249,-1.918750,0.0,1.000000,0.000000,0.000000,0.000000
1782117239.414575,1742770,-0.969238,0.024902,-0.266602,1.463415,0.243902,0.975610,-4.193750,39.831249,-1.918750,0.0,1.000000,0.000000,0.000000,0.000000
1782117239.424575,1742780,-0.970215,0.024414,-0.268555,1.219512,0.243902,0.975610,-4.168750,39.843750,-1.856250,0.0,1.000000,0.000000,0.000000,0.000000
1782117239.435575,1742791,-0.970703,0.025879,-0.267090,1.036585,0.121951,0.853659,-4.212500,39.825001,-1.881250,0.0,1.000000,0.000000,0.000000,0.000000
1782117239.445575,1742801,-0.968750,0.027344,-0.265625,0.853659,0.060976,0.731707,-4.212500,39.825001,-1.881250,0.0,1.000000,0.000000,0.000000,0.000000
1782117239.454575,1742810,-0.966309,0.027344,-0.264648,0.670732,0.000000,0.670732,-3.925000,40.112499,-1.800000,0.0,1.000000,0.000000,0.000000,0.000000
1782117239.464575,1742820,-0.965332,0.026367,-0.264648,0.548781,0.121951,0.731707,-3.925000,40.112499,-1.800000,0.0,1.000000,0.000000,0.000000,0.000000
1782117239.474575,1742830,-0.965820,0.024414,-0.267578,0.609756,0.243902,0.792683,-3.937500,40.056252,-1.868750,0.0,1.000000,0.000000,0.000000,0.000000
1782117239.484575,1742840,-0.967285,0.022461,-0.267090,0.670732,0.182927,0.853659,-3.937500,40.056252,-1.868750,0.0,1.000000,0.000000,0.000000,0.000000
1782117239.494575,1742850,-0.968750,0.021973,-0.267090,0.792683,0.121951,0.853659,-3.956250,40.018749,-1.887500,0.0,1.000000,0.000000,0.000000,0.000000
1782117239.504575,1742860,-0.968750,0.021484,-0.268066,0.853659,0.060976,0.853659,-3.956250,40.018749,-1.887500,0.0,1.000000,0.000000,0.000000,0.000000
1782117239.514575,1742870,-0.969727,0.024414,-0.267578,0.975610,0.000000,0.853659,-3.937500,40.093750,-1.868750,0.0,1.000000,0.000000,0.000000,0.000000
1782117239.524575,1742880,-0.968262,0.025879,-0.266113,1.097561,0.000000,0.853659,-3.937500,40.093750,-1.868750,0.0,1.000000,0.000000,0.000000,0.000000
1782117239.534575,1742890,-0.968750,0.025391,-0.265137,1.097561,0.000000,0.853659,-4.100000,39.862499,-1.881250,0.0,1.000000,0.000000,0.000000,0.000000
1782117239.544575,1742900,-0.966797,0.026367,-0.266113,1.219512,0.060976,0.792683,-4.100000,39.862499,-1.881250,0.0,1.000000,0.000000,0.000000,0.000000
1782117239.554575,1742910,-0.966797,0.026367,-0.265625,1.219512,0.243902,0.792683,-4.087500,39.956249,-1.900000,0.0,1.000000,0.000000,0.000000,0.000000
1782117239.564575,1742920,-0.968750,0.025879,-0.266602,1.097561,0.304878,0.792683,-4.087500,39.956249,-1.900000,0.0,1.000000,0.000000,0.000000,0.000000
1782117239.574575,1742930,-0.968750,0.025879,-0.266602,1.097561,0.304878,0.792683,-4.125000,39.887501,-1.912500,0.0,1.000000,0.000000,0.000000,0.000000
1782117239.584575,1742940,-0.969727,0.025879,-0.268066,0.853659,0.182927,0.792683,-4.125000,39.887501,-1.912500,0.0,1.000000,0.000000,0.000000,0.000000
1782117239.594575,1742950,-0.969238,0.026367,-0.267578,0.548781,0.000000,0.792683,-4.087500,39.868752,-1.875000,0.0,1.000000,0.000000,0.000000,0.000000
1782117239.604575,1742960,-0.968750,0.027344,-0.265625,0.304878,-0.060976,0.792683,-4.087500,39.868752,-1.875000,0.0,1.000000,0.000000,0.000000,0.000000
1782117239.614575,1742970,-0.967285,0.025391,-0.265625,0.243902,-0.121951,0.853659,-4.156250,39.875000,-1.925000,0.0,1.000000,0.000000,0.000000,0.000000
1782117239.626575,1742982,-0.964844,0.021973,-0.269531,0.670732,-0.060976,0.792683,-4.156250,39.875000,-1.925000,0.0,1.000000,0.000000,0.000000,0.000000
1782117239.634575,1742990,-0.964844,0.021973,-0.269531,0.670732,-0.060976,0.792683,-4.112500,39.900002,-1.850000,0.0,1.000000,0.000000,0.000000,0.000000
1782117239.644575,1743000,-0.966309,0.021973,-0.270508,0.792683,0.000000,0.731707,-4.112500,39.900002,-1.850000,0.0,1.000000,0.000000,0.000000,0.000000
1782117239.654575,1743010,-0.968262,0.020508,-0.269531,0.731707,0.000000,0.792683,-4.262500,39.775002,-1.912500,0.0,1.000000,0.000000,0.000000,0.000000
1782117239.664575,1743020,-0.969238,0.021973,-0.270508,0.792683,0.000000,0.792683,-4.262500,39.775002,-1.912500,0.0,1.000000,0.000000,0.000000,0.000000
1782117239.674575,1743030,-0.969238,0.021973,-0.269531,0.792683,-0.060976,0.792683,-4.143750,39.900002,-1.912500,0.0,1.000000,0.000000,0.000000,0.000000
1782117239.684575,1743040,-0.968262,0.024414,-0.265625,0.792683,-0.121951,0.731707,-4.143750,39.900002,-1.912500,0.0,1.000000,0.000000,0.000000,0.000000
1782117239.694575,1743050,-0.968262,0.025879,-0.266602,0.975610,-0.060976,0.853659,-4.200000,39.850002,-1.931250,0.0,1.000000,0.000000,0.000000,0.000000
1782117239.704575,1743060,-0.967773,0.024902,-0.265625,1.097561,-0.060976,0.914634,-4.200000,39.850002,-1.931250,0.0,1.000000,0.000000,0.000000,0.000000
1782117239.715575,1743071,-0.967285,0.025391,-0.267090,0.853659,-0.121951,0.853659,-4.137500,39.881252,-1.937500,0.0,1.000000,0.000000,0.000000,0.000000
1782117239.724575,1743080,-0.966309,0.025879,-0.268555,0.548781,-0.121951,0.853659,-4.206250,39.806252,-1.906250,0.0,1.000000,0.000000,0.000000,0.000000
1782117239.735575,1743091,-0.967285,0.025391,-0.269043,0.426829,-0.060976,0.792683,-4.206250,39.806252,-1.906250,0.0,1.000000,0.000000,0.000000,0.000000
1782117239.747575,1743103,-0.966797,0.024902,-0.269043,0.121951,0.000000,0.609756,-4.118750,39.875000,-1.956250,0.0,1.000000,0.000000,0.000000,0.000000
1782117239.755575,1743111,-0.966797,0.024902,-0.269043,0.121951,0.000000,0.609756,-4.118750,39.875000,-1.956250,0.0,1.000000,0.000000,0.000000,0.000000
1782117239.765575,1743121,-0.969238,0.026367,-0.267090,0.121951,-0.060976,0.609756,-4.150000,39.856251,-1.875000,0.0,1.000000,0.000000,0.000000,0.000000
1782117239.774575,1743130,-0.967773,0.023926,-0.265625,0.121951,0.000000,0.609756,-4.150000,39.856251,-1.875000,0.0,1.000000,0.000000,0.000000,0.000000
1782117239.784575,1743140,-0.968262,0.023438,-0.266113,0.060976,-0.060976,0.609756,-4.156250,39.856251,-1.950000,0.0,1.000000,0.000000,0.000000,0.000000
1782117239.794575,1743150,-0.967773,0.022949,-0.266113,0.060976,0.000000,0.670732,-4.156250,39.856251,-1.950000,0.0,1.000000,0.000000,0.000000,0.000000
1782117239.804575,1743160,-0.968262,0.022949,-0.266602,0.060976,-0.060976,0.731707,-4.093750,39.862499,-1.925000,0.0,1.000000,0.000000,0.000000,0.000000
1782117239.814575,1743170,-0.968750,0.023926,-0.265625,0.182927,-0.182927,0.853659,-4.093750,39.862499,-1.925000,0.0,1.000000,0.000000,0.000000,0.000000
1782117239.824575,1743180,-0.968750,0.024902,-0.266602,0.365854,-0.243902,0.731707,-4.162500,39.856251,-1.875000,0.0,1.000000,0.000000,0.000000,0.000000
1782117239.834575,1743190,-0.969727,0.023926,-0.266113,0.365854,-0.243902,0.792683,-4.162500,39.856251,-1.875000,0.0,1.000000,0.000000,0.000000,0.000000
1782117239.844575,1743200,-0.969727,0.024902,-0.267578,0.426829,-0.243902,0.792683,-4.125000,39.843750,-1.950000,0.0,1.000000,0.000000,0.000000,0.000000
1782117239.854575,1743210,-0.968262,0.024414,-0.265625,0.426829,-0.304878,0.609756,-4.125000,39.843750,-1.950000,0.0,1.000000,0.000000,0.000000,0.000000
1782117239.865575,1743221,-0.967773,0.025879,-0.264648,0.243902,-0.243902,0.548781,-4.200000,39.856251,-1.906250,0.0,1.000000,0.000000,0.000000,0.000000
1782117239.874575,1743230,-0.967773,0.025391,-0.265625,0.000000,-0.121951,0.548781,-4.200000,39.856251,-1.906250,0.0,1.000000,0.000000,0.000000,0.000000
1782117239.884575,1743240,-0.967773,0.025391,-0.266113,-0.121951,-0.182927,0.609756,-4.168750,39.868752,-1.950000,0.0,1.000000,0.000000,0.000000,0.000000
1782117239.894575,1743250,-0.966309,0.025879,-0.266113,-0.182927,-0.182927,0.609756,-4.168750,39.868752,-1.950000,0.0,1.000000,0.000000,0.000000,0.000000
1782117239.904575,1743260,-0.966797,0.026367,-0.268555,-0.304878,-0.121951,0.670732,-4.143750,39.868752,-1.950000,0.0,1.000000,0.000000,0.000000,0.000000
1782117239.914575,1743270,-0.966309,0.025391,-0.269531,-0.182927,-0.121951,0.792683,-4.143750,39.868752,-1.950000,0.0,1.000000,0.000000,0.000000,0.000000
1782117239.925575,1743281,-0.967285,0.023926,-0.269043,-0.060976,-0.121951,0.731707,-4.237500,39.737499,-1.900000,0.0,1.000000,0.000000,0.000000,0.000000
1782117239.934575,1743290,-0.966797,0.020508,-0.270020,-0.121951,-0.121951,0.731707,-4.237500,39.737499,-1.900000,0.0,1.000000,0.000000,0.000000,0.000000
1782117239.944575,1743300,-0.967773,0.021973,-0.270020,0.000000,-0.060976,0.731707,-4.031250,39.950001,-1.912500,0.0,1.000000,0.000000,0.000000,0.000000
1782117239.954575,1743310,-0.969238,0.021484,-0.268555,0.060976,-0.121951,0.731707,-4.031250,39.950001,-1.912500,0.0,1.000000,0.000000,0.000000,0.000000
1782117239.964575,1743320,-0.969727,0.021973,-0.268066,0.243902,-0.182927,0.731707,-3.993750,40.006252,-1.931250,0.0,1.000000,0.000000,0.000000,0.000000
1782117239.974575,1743330,-0.967285,0.021484,-0.266113,0.365854,-0.182927,0.609756,-3.993750,40.006252,-1.931250,0.0,1.000000,0.000000,0.000000,0.000000
1782117239.985575,1743341,-0.967285,0.022949,-0.264648,0.670732,-0.182927,0.731707,-4.256250,39.781250,-1.925000,0.0,1.000000,0.000000,0.000000,0.000000
1782117239.994575,1743350,-0.967285,0.023926,-0.266602,0.609756,-0.182927,0.731707,-4.256250,39.781250,-1.925000,0.0,1.000000,0.000000,0.000000,0.000000
1782117240.004575,1743360,-0.967285,0.022461,-0.268066,0.487805,-0.121951,0.853659,-4.125000,39.924999,-1.956250,0.0,1.000000,0.000000,0.000000,0.000000
1782117240.014575,1743370,-0.968750,0.022949,-0.269043,0.365854,-0.182927,0.853659,-4.262500,39.750000,-1.962500,0.0,1.000000,0.000000,0.000000,0.000000
1782117240.025575,1743381,-0.969238,0.023926,-0.268555,0.243902,-0.121951,0.853659,-4.262500,39.750000,-1.962500,0.0,1.000000,0.000000,0.000000,0.000000
1782117240.034575,1743390,-0.971191,0.021973,-0.265625,0.365854,-0.243902,0.792683,-4.012500,40.081249,-1.931250,0.0,1.000000,0.000000,0.000000,0.000000
1782117240.044575,1743400,-0.970215,0.021484,-0.263672,0.670732,-0.365854,0.792683,-4.012500,40.081249,-1.931250,0.0,1.000000,0.000000,0.000000,0.000000
1782117240.054575,1743410,-0.969238,0.020996,-0.264160,0.914634,-0.304878,0.853659,-4.200000,39.812500,-1.962500,0.0,1.000000,0.000000,0.000000,0.000000
1782117240.064575,1743420,-0.969238,0.021484,-0.263184,1.036585,-0.243902,0.914634,-4.200000,39.812500,-1.962500,0.0,1.000000,0.000000,0.000000,0.000000
1782117240.074575,1743430,-0.967773,0.022461,-0.263672,0.975610,-0.243902,0.914634,-4.237500,39.762501,-1.975000,0.0,1.000000,0.000000,0.000000,0.000000
1782117240.084575,1743440,-0.967773,0.022461,-0.265625,0.731707,-0.243902,0.914634,-4.237500,39.762501,-1.975000,0.0,1.000000,0.000000,0.000000,0.000000
1782117240.094575,1743450,-0.968750,0.023926,-0.266602,0.487805,-0.182927,0.914634,-4.137500,39.843750,-1.906250,0.0,1.000000,0.000000,0.000000,0.000000
1782117240.105575,1743461,-0.969727,0.025391,-0.266602,0.548781,-0.182927,0.914634,-4.137500,39.843750,-1.906250,0.0,1.000000,0.000000,0.000000,0.000000
1782117240.114575,1743470,-0.968262,0.023926,-0.265625,0.731707,-0.243902,0.914634,-4.162500,39.831249,-1.937500,0.0,1.000000,0.000000,0.000000,0.000000
1782117240.125575,1743481,-0.968750,0.024414,-0.265625,0.853659,-0.243902,0.914634,-4.162500,39.831249,-1.937500,0.0,1.000000,0.000000,0.000000,0.000000
1782117240.134575,1743490,-0.968750,0.022949,-0.266602,1.036585,-0.243902,0.975610,-4.212500,39.856251,-1.950000,0.0,1.000000,0.000000,0.000000,0.000000
1782117240.145575,1743501,-0.968750,0.020996,-0.267578,1.097561,-0.304878,0.975610,-4.212500,39.856251,-1.950000,0.0,1.000000,0.000000,0.000000,0.000000
1782117240.154575,1743510,-0.969238,0.022461,-0.267578,0.914634,-0.365854,0.853659,-4.112500,39.887501,-1.881250,0.0,1.000000,0.000000,0.000000,0.000000
1782117240.164575,1743520,-0.967285,0.022949,-0.267578,0.792683,-0.487805,0.853659,-4.112500,39.887501,-1.881250,0.0,1.000000,0.000000,0.000000,0.000000
1782117240.174575,1743530,-0.966797,0.023926,-0.267090,0.853659,-0.487805,0.914634,-4.200000,39.812500,-1.900000,0.0,1.000000,0.000000,0.000000,0.000000
1782117240.186575,1743542,-0.965332,0.024414,-0.268555,0.975610,-0.304878,0.975610,-4.200000,39.812500,-1.900000,0.0,1.000000,0.000000,0.000000,0.000000
1782117240.194575,1743550,-0.965332,0.024414,-0.268066,1.036585,-0.182927,0.975610,-4.100000,39.931252,-1.856250,0.0,1.000000,0.000000,0.000000,0.000000
1782117240.204575,1743560,-0.966797,0.024414,-0.267578,1.036585,0.060976,0.975610,-4.100000,39.931252,-1.856250,0.0,1.000000,0.000000,0.000000,0.000000
1782117240.214575,1743570,-0.968750,0.024414,-0.268066,0.975610,0.121951,0.975610,-4.187500,39.750000,-1.868750,0.0,1.000000,0.000000,0.000000,0.000000
1782117240.227575,1743583,-0.970215,0.023926,-0.269531,0.914634,-0.060976,0.975610,-4.187500,39.750000,-1.868750,0.0,1.000000,0.000000,0.000000,0.000000
1782117240.234575,1743590,-0.970703,0.024902,-0.266602,0.731707,-0.060976,0.914634,-4.131250,39.862499,-1.893750,0.0,1.000000,0.000000,0.000000,0.000000
1782117240.244575,1743600,-0.970703,0.026855,-0.264648,0.487805,-0.426829,0.914634,-4.131250,39.862499,-1.893750,0.0,1.000000,0.000000,0.000000,0.000000
1782117240.254575,1743610,-0.968262,0.027344,-0.262207,0.609756,-0.548781,0.853659,-4.218750,39.731251,-1.968750,0.0,1.000000,0.000000,0.000000,0.000000
1782117240.266575,1743622,-0.968262,0.025391,-0.263184,0.792683,-0.487805,0.975610,-4.212500,39.806252,-1.918750,0.0,1.000000,0.000000,0.000000,0.000000
1782117240.274575,1743630,-0.968750,0.025391,-0.265625,0.975610,-0.426829,0.975610,-4.212500,39.806252,-1.918750,0.0,1.000000,0.000000,0.000000,0.000000
1782117240.284575,1743640,-0.967285,0.024902,-0.266602,0.975610,-0.365854,0.975610,-4.212500,39.806252,-1.918750,0.0,1.000000,0.000000,0.000000,0.000000
1782117240.294575,1743650,-0.968750,0.024902,-0.267090,0.792683,-0.304878,0.914634,-4.243750,39.762501,-1.912500,0.0,1.000000,0.000000,0.000000,0.000000
1782117240.306575,1743662,-0.969727,0.023926,-0.267578,0.670732,-0.365854,0.914634,-4.125000,39.768749,-1.906250,0.0,1.000000,0.000000,0.000000,0.000000
1782117240.315575,1743671,-0.968750,0.023438,-0.266602,0.548781,-0.365854,0.853659,-4.125000,39.768749,-1.906250,0.0,1.000000,0.000000,0.000000,0.000000
1782117240.325575,1743681,-0.968750,0.024414,-0.265137,0.426829,-0.426829,0.853659,-4.212500,39.743752,-1.887500,0.0,1.000000,0.000000,0.000000,0.000000
1782117240.334575,1743690,-0.966797,0.024902,-0.266113,0.426829,-0.548781,0.853659,-4.212500,39.743752,-1.887500,0.0,1.000000,0.000000,0.000000,0.000000
1782117240.345575,1743701,-0.965820,0.025391,-0.267090,0.487805,-0.487805,0.914634,-4.187500,39.737499,-1.931250,0.0,1.000000,0.000000,0.000000,0.000000
1782117240.354575,1743710,-0.966309,0.024902,-0.268555,0.487805,-0.365854,0.975610,-4.187500,39.737499,-1.931250,0.0,1.000000,0.000000,0.000000,0.000000
1782117240.364575,1743720,-0.966309,0.024414,-0.268555,0.365854,-0.365854,1.036585,-4.168750,39.825001,-1.868750,0.0,1.000000,0.000000,0.000000,0.000000
1782117240.374575,1743730,-0.966309,0.023926,-0.268555,0.304878,-0.365854,0.975610,-4.168750,39.825001,-1.868750,0.0,1.000000,0.000000,0.000000,0.000000
1782117240.386575,1743742,-0.966309,0.023438,-0.269531,0.243902,-0.487805,0.975610,-4.137500,39.843750,-1.856250,0.0,1.000000,0.000000,0.000000,0.000000
1782117240.396575,1743752,-0.969238,0.025391,-0.268555,0.182927,-0.426829,0.914634,-4.137500,39.843750,-1.856250,0.0,1.000000,0.000000,0.000000,0.000000
1782117240.404575,1743760,-0.969238,0.024414,-0.268066,0.243902,-0.426829,0.853659,-4.018750,39.993752,-1.856250,0.0,1.000000,0.000000,0.000000,0.000000
1782117240.414575,1743770,-0.966309,0.023438,-0.264648,0.426829,-0.426829,0.792683,-4.018750,39.993752,-1.856250,0.0,1.000000,0.000000,0.000000,0.000000
1782117240.426575,1743782,-0.968262,0.024414,-0.264648,0.609756,-0.426829,0.914634,-3.900000,40.031250,-1.825000,0.0,1.000000,0.000000,0.000000,0.000000
1782117240.434575,1743790,-0.968262,0.024414,-0.264648,0.609756,-0.426829,0.914634,-3.900000,40.031250,-1.825000,0.0,1.000000,0.000000,0.000000,0.000000
1782117240.444575,1743800,-0.967773,0.023438,-0.264160,0.731707,-0.426829,0.975610,-4.043750,39.912502,-1.881250,0.0,1.000000,0.000000,0.000000,0.000000
1782117240.454575,1743810,-0.968750,0.021973,-0.264648,0.792683,-0.487805,0.975610,-4.043750,39.912502,-1.881250,0.0,1.000000,0.000000,0.000000,0.000000
1782117240.466575,1743822,-0.970215,0.023926,-0.263184,0.426829,-0.365854,0.853659,-4.206250,39.837502,-1.837500,0.0,1.000000,0.000000,0.000000,0.000000
1782117240.475575,1743831,-0.970215,0.023926,-0.263184,0.426829,-0.365854,0.853659,-4.206250,39.837502,-1.837500,0.0,1.000000,0.000000,0.000000,0.000000
1782117240.484575,1743840,-0.968262,0.025879,-0.263672,0.487805,-0.426829,0.853659,-4.137500,39.850002,-1.850000,0.0,1.000000,0.000000,0.000000,0.000000
1782117240.494575,1743850,-0.967773,0.026855,-0.263184,0.548781,-0.365854,0.731707,-4.137500,39.850002,-1.850000,0.0,1.000000,0.000000,0.000000,0.000000
1782117240.506575,1743862,-0.966797,0.028320,-0.261719,0.609756,-0.243902,0.792683,-4.150000,39.793751,-1.825000,0.0,1.000000,0.000000,0.000000,0.000000
1782117240.514575,1743870,-0.968262,0.028809,-0.263672,0.609756,-0.182927,0.853659,-4.150000,39.793751,-1.825000,0.0,1.000000,0.000000,0.000000,0.000000
1782117240.524575,1743880,-0.969238,0.028320,-0.264160,0.365854,-0.182927,0.914634,-4.131250,39.850002,-1.818750,0.0,1.000000,0.000000,0.000000,0.000000
1782117240.535575,1743891,-0.971191,0.027832,-0.262207,0.304878,-0.304878,0.975610,-4.131250,39.850002,-1.818750,0.0,1.000000,0.000000,0.000000,0.000000
1782117240.547575,1743903,-0.970703,0.026367,-0.263672,0.182927,-0.304878,0.914634,-3.906250,40.056252,-1.806250,0.0,1.000000,0.000000,0.000000,0.000000
1782117240.554575,1743910,-0.968750,0.027344,-0.262695,0.243902,-0.365854,0.853659,-3.906250,40.056252,-1.806250,0.0,1.000000,0.000000,0.000000,0.000000
1782117240.564575,1743920,-0.968750,0.026367,-0.262207,0.365854,-0.304878,0.914634,-3.925000,40.049999,-1.862500,0.0,1.000000,0.000000,0.000000,0.000000
1782117240.574575,1743930,-0.968750,0.024902,-0.261719,0.426829,-0.304878,0.853659,-3.925000,40.049999,-1.862500,0.0,1.000000,0.000000,0.000000,0.000000
1782117240.587575,1743943,-0.968750,0.023926,-0.261719,0.609756,-0.365854,0.853659,-4.250000,39.756252,-1.875000,0.0,1.000000,0.000000,0.000000,0.000000
1782117240.594575,1743950,-0.968750,0.023438,-0.263184,0.670732,-0.243902,0.853659,-4.250000,39.756252,-1.875000,0.0,1.000000,0.000000,0.000000,0.000000
1782117240.604575,1743960,-0.969238,0.024414,-0.263672,0.609756,-0.243902,0.914634,-4.181250,39.831249,-1.793750,0.0,1.000000,0.000000,0.000000,0.000000
1782117240.614575,1743970,-0.969238,0.025391,-0.263672,0.487805,-0.304878,0.792683,-4.225000,39.756252,-1.825000,0.0,1.000000,0.000000,0.000000,0.000000
1782117240.627575,1743983,-0.967773,0.025391,-0.265625,0.487805,-0.304878,0.792683,-4.225000,39.756252,-1.825000,0.0,1.000000,0.000000,0.000000,0.000000
1782117240.635575,1743991,-0.967773,0.026367,-0.264160,0.365854,-0.304878,0.731707,-4.162500,39.875000,-1.831250,0.0,1.000000,0.000000,0.000000,0.000000
1782117240.644575,1744000,-0.968750,0.025879,-0.263672,0.487805,-0.365854,0.731707,-4.162500,39.875000,-1.831250,0.0,1.000000,0.000000,0.000000,0.000000
1782117240.655575,1744011,-0.967773,0.024902,-0.265625,0.365854,-0.304878,0.792683,-4.162500,39.793751,-1.875000,0.0,1.000000,0.000000,0.000000,0.000000
1782117240.669575,1744025,-0.968262,0.025391,-0.266113,0.243902,-0.243902,0.853659,-4.162500,39.793751,-1.875000,0.0,1.000000,0.000000,0.000000,0.000000
1782117240.674575,1744030,-0.968262,0.026367,-0.266113,0.121951,-0.243902,0.853659,-4.093750,39.825001,-1.831250,0.0,1.000000,0.000000,0.000000,0.000000
1782117240.684575,1744040,-0.966309,0.025391,-0.267090,0.060976,-0.304878,0.731707,-4.093750,39.825001,-1.831250,0.0,1.000000,0.000000,0.000000,0.000000
1782117240.694575,1744050,-0.966309,0.023926,-0.267090,0.121951,-0.182927,0.792683,-4.100000,39.862499,-1.831250,0.0,1.000000,0.000000,0.000000,0.000000
1782117240.707575,1744063,-0.967285,0.023438,-0.265625,0.243902,-0.182927,0.792683,-4.100000,39.862499,-1.831250,0.0,1.000000,0.000000,0.000000,0.000000
1782117240.715575,1744071,-0.967773,0.023926,-0.266113,0.548781,-0.182927,0.914634,-4.056250,39.887501,-1.787500,0.0,1.000000,0.000000,0.000000,0.000000
1782117240.725575,1744081,-0.968262,0.021973,-0.266113,0.914634,-0.182927,0.914634,-4.056250,39.887501,-1.787500,0.0,1.000000,0.000000,0.000000,0.000000
1782117240.735575,1744091,-0.969238,0.020996,-0.264160,1.158537,-0.243902,0.914634,-4.168750,39.793751,-1.793750,0.0,1.000000,0.000000,0.000000,0.000000
1782117240.747575,1744103,-0.970215,0.021973,-0.262695,1.402439,-0.304878,0.853659,-4.168750,39.793751,-1.793750,0.0,1.000000,0.000000,0.000000,0.000000
1782117240.754575,1744110,-0.969727,0.023926,-0.261719,1.341463,-0.243902,0.975610,-4.068750,39.900002,-1.818750,0.0,1.000000,0.000000,0.000000,0.000000
1782117240.764575,1744120,-0.970215,0.024902,-0.262207,1.097561,-0.243902,1.036585,-4.068750,39.900002,-1.818750,0.0,1.000000,0.000000,0.000000,0.000000
1782117240.774575,1744130,-0.971680,0.026855,-0.261719,1.097561,-0.304878,0.975610,-4.100000,39.850002,-1.831250,0.0,1.000000,0.000000,0.000000,0.000000
1782117240.784575,1744140,-0.969727,0.028320,-0.261719,1.097561,-0.365854,0.975610,-4.100000,39.850002,-1.831250,0.0,1.000000,0.000000,0.000000,0.000000
1782117240.794575,1744150,-0.968750,0.027832,-0.261719,1.036585,-0.426829,0.853659,-4.112500,39.862499,-1.831250,0.0,1.000000,0.000000,0.000000,0.000000
1782117240.804575,1744160,-0.969238,0.027832,-0.260254,1.097561,-0.426829,0.914634,-4.112500,39.862499,-1.831250,0.0,1.000000,0.000000,0.000000,0.000000
1782117240.814575,1744170,-0.968750,0.026367,-0.260254,0.975610,-0.365854,0.853659,-4.131250,39.831249,-1.731250,0.0,1.000000,0.000000,0.000000,0.000000
1782117240.825575,1744181,-0.968750,0.026855,-0.262695,0.731707,-0.243902,0.853659,-4.131250,39.831249,-1.731250,0.0,1.000000,0.000000,0.000000,0.000000
1782117240.837575,1744193,-0.969727,0.026855,-0.263672,0.487805,-0.243902,0.792683,-4.156250,39.793751,-1.781250,0.0,1.000000,0.000000,0.000000,0.000000
1782117240.844575,1744200,-0.969727,0.026367,-0.264648,0.365854,-0.060976,0.853659,-4.156250,39.793751,-1.781250,0.0,1.000000,0.000000,0.000000,0.000000
1782117240.854575,1744210,-0.970215,0.024902,-0.263672,0.243902,-0.182927,0.792683,-4.037500,39.900002,-1.756250,0.0,1.000000,0.000000,0.000000,0.000000
1782117240.867575,1744223,-0.967285,0.024902,-0.263672,0.182927,-0.243902,0.792683,-4.175000,39.775002,-1.850000,0.0,1.000000,0.000000,0.000000,0.000000
1782117240.874575,1744230,-0.967285,0.024414,-0.264648,0.304878,-0.304878,0.792683,-4.175000,39.775002,-1.850000,0.0,1.000000,0.000000,0.000000,0.000000
1782117240.884575,1744240,-0.967285,0.024414,-0.265137,0.426829,-0.304878,0.792683,-4.175000,39.775002,-1.850000,0.0,1.000000,0.000000,0.000000,0.000000
1782117240.894575,1744250,-0.967773,0.023926,-0.266602,0.548781,-0.243902,0.792683,-4.181250,39.756252,-1.812500,0.0,1.000000,0.000000,0.000000,0.000000
1782117240.907575,1744263,-0.967773,0.024902,-0.266602,0.609756,-0.182927,0.853659,-4.187500,39.775002,-1.837500,0.0,1.000000,0.000000,0.000000,0.000000
1782117240.915575,1744271,-0.970703,0.024414,-0.265625,0.548781,-0.121951,0.731707,-4.187500,39.775002,-1.837500,0.0,1.000000,0.000000,0.000000,0.000000
1782117240.924575,1744280,-0.969238,0.023926,-0.262695,0.548781,-0.060976,0.670732,-4.081250,39.837502,-1.787500,0.0,1.000000,0.000000,0.000000,0.000000
1782117240.935575,1744291,-0.968750,0.024902,-0.259277,0.792683,-0.243902,0.670732,-4.081250,39.837502,-1.787500,0.0,1.000000,0.000000,0.000000,0.000000
1782117240.948575,1744304,-0.967285,0.023926,-0.256836,0.914634,-0.243902,0.731707,-4.150000,39.775002,-1.818750,0.0,1.000000,0.000000,0.000000,0.000000
1782117240.954575,1744310,-0.968262,0.024414,-0.259766,0.853659,-0.243902,0.853659,-4.150000,39.775002,-1.818750,0.0,1.000000,0.000000,0.000000,0.000000
1782117240.965575,1744321,-0.968262,0.024414,-0.262207,0.731707,-0.182927,0.792683,-4.162500,39.818752,-1.843750,0.0,1.000000,0.000000,0.000000,0.000000
1782117240.974575,1744330,-0.968750,0.026367,-0.263672,0.548781,-0.121951,0.792683,-4.162500,39.818752,-1.843750,0.0,1.000000,0.000000,0.000000,0.000000
1782117240.984575,1744340,-0.969238,0.025879,-0.264648,0.548781,0.000000,0.792683,-4.100000,39.787502,-1.818750,0.0,1.000000,0.000000,0.000000,0.000000
1782117240.994575,1744350,-0.970215,0.025879,-0.264160,0.487805,-0.060976,0.731707,-4.100000,39.787502,-1.818750,0.0,1.000000,0.000000,0.000000,0.000000
1782117241.004575,1744360,-0.969727,0.027832,-0.263672,0.426829,-0.243902,0.670732,-4.081250,39.918751,-1.781250,0.0,1.000000,0.000000,0.000000,0.000000
1782117241.014575,1744370,-0.968262,0.026855,-0.264160,0.243902,-0.304878,0.670732,-4.081250,39.918751,-1.781250,0.0,1.000000,0.000000,0.000000,0.000000
1782117241.026575,1744382,-0.967773,0.025879,-0.264648,0.182927,-0.243902,0.731707,-4.106250,39.831249,-1.843750,0.0,1.000000,0.000000,0.000000,0.000000
1782117241.034575,1744390,-0.966309,0.025879,-0.264648,0.182927,-0.182927,0.731707,-4.106250,39.831249,-1.843750,0.0,1.000000,0.000000,0.000000,0.000000
1782117241.044575,1744400,-0.968750,0.024414,-0.265137,0.182927,-0.121951,0.792683,-4.068750,39.875000,-1.800000,0.0,1.000000,0.000000,0.000000,0.000000
1782117241.054575,1744410,-0.970215,0.023438,-0.264648,0.304878,-0.121951,0.853659,-4.068750,39.875000,-1.800000,0.0,1.000000,0.000000,0.000000,0.000000
1782117241.067575,1744423,-0.969727,0.022949,-0.264648,0.487805,-0.182927,0.853659,-4.081250,39.812500,-1.850000,0.0,1.000000,0.000000,0.000000,0.000000
1782117241.074575,1744430,-0.967773,0.022949,-0.265137,0.609756,-0.304878,0.792683,-4.081250,39.812500,-1.850000,0.0,1.000000,0.000000,0.000000,0.000000
1782117241.084575,1744440,-0.968262,0.023438,-0.263672,0.670732,-0.304878,0.731707,-4.068750,39.843750,-1.762500,0.0,1.000000,0.000000,0.000000,0.000000
1782117241.094575,1744450,-0.966309,0.024414,-0.264648,0.670732,-0.304878,0.731707,-4.068750,39.843750,-1.762500,0.0,1.000000,0.000000,0.000000,0.000000
1782117241.108575,1744464,-0.966797,0.027344,-0.264160,0.609756,-0.182927,0.731707,-4.106250,39.793751,-1.781250,0.0,1.000000,0.000000,0.000000,0.000000
1782117241.115575,1744471,-0.968262,0.027832,-0.266113,0.548781,-0.182927,0.792683,-4.106250,39.793751,-1.781250,0.0,1.000000,0.000000,0.000000,0.000000
1782117241.125575,1744481,-0.967773,0.026855,-0.267578,0.365854,-0.243902,0.792683,-4.075000,39.875000,-1.800000,0.0,1.000000,0.000000,0.000000,0.000000
1782117241.134575,1744490,-0.967773,0.026855,-0.267090,0.060976,-0.182927,0.731707,-4.075000,39.875000,-1.800000,0.0,1.000000,0.000000,0.000000,0.000000
1782117241.147575,1744503,-0.968750,0.028320,-0.266602,-0.243902,-0.182927,0.670732,-4.156250,39.756252,-1.843750,0.0,1.000000,0.000000,0.000000,0.000000
1782117241.154575,1744510,-0.968750,0.026367,-0.264648,-0.426829,-0.182927,0.670732,-4.156250,39.756252,-1.843750,0.0,1.000000,0.000000,0.000000,0.000000
1782117241.164575,1744520,-0.968750,0.024902,-0.263672,-0.182927,-0.182927,0.731707,-4.131250,39.831249,-1.781250,0.0,1.000000,0.000000,0.000000,0.000000
1782117241.175575,1744531,-0.969238,0.022949,-0.262695,0.060976,-0.121951,0.731707,-4.131250,39.831249,-1.781250,0.0,1.000000,0.000000,0.000000,0.000000
1782117241.184575,1744540,-0.971191,0.021484,-0.260742,0.243902,-0.182927,0.670732,-4.218750,39.818752,-1.843750,0.0,1.000000,0.000000,0.000000,0.000000
1782117241.195575,1744551,-0.970215,0.022461,-0.261230,0.365854,-0.243902,0.609756,-3.956250,39.993752,-1.775000,0.0,1.000000,0.000000,0.000000,0.000000
1782117241.204575,1744560,-0.969238,0.021973,-0.261719,0.487805,-0.243902,0.670732,-3.956250,39.993752,-1.775000,0.0,1.000000,0.000000,0.000000,0.000000
1782117241.214575,1744570,-0.969727,0.024414,-0.260742,0.487805,-0.243902,0.731707,-4.243750,39.718750,-1.862500,0.0,1.000000,0.000000,0.000000,0.000000
1782117241.225575,1744581,-0.968750,0.026367,-0.261230,0.426829,-0.243902,0.731707,-4.243750,39.718750,-1.862500,0.0,1.000000,0.000000,0.000000,0.000000
1782117241.234575,1744590,-0.968750,0.027832,-0.261719,0.304878,-0.182927,0.731707,-4.100000,39.875000,-1.787500,0.0,1.000000,0.000000,0.000000,0.000000
1782117241.245575,1744601,-0.968262,0.028320,-0.261230,0.243902,-0.060976,0.731707,-4.100000,39.875000,-1.787500,0.0,1.000000,0.000000,0.000000,0.000000
1782117241.255575,1744611,-0.969238,0.027832,-0.263184,0.304878,-0.060976,0.670732,-4.150000,39.825001,-1.818750,0.0,1.000000,0.000000,0.000000,0.000000
1782117241.267575,1744623,-0.969238,0.027832,-0.263184,0.304878,-0.060976,0.670732,-4.150000,39.825001,-1.818750,0.0,1.000000,0.000000,0.000000,0.000000
1782117241.274575,1744630,-0.968750,0.026367,-0.262207,0.365854,-0.121951,0.731707,-4.093750,39.856251,-1.793750,0.0,1.000000,0.000000,0.000000,0.000000
1782117241.284575,1744640,-0.969238,0.026367,-0.262695,0.243902,-0.121951,0.670732,-4.093750,39.856251,-1.793750,0.0,1.000000,0.000000,0.000000,0.000000
1782117241.294575,1744650,-0.969238,0.024902,-0.261719,0.304878,-0.121951,0.670732,-3.900000,40.106251,-1.693750,0.0,1.000000,0.000000,0.000000,0.000000
1782117241.305575,1744661,-0.969238,0.024902,-0.258789,0.304878,-0.243902,0.670732,-3.900000,40.106251,-1.693750,0.0,1.000000,0.000000,0.000000,0.000000
1782117241.314575,1744670,-0.969727,0.023438,-0.260254,0.426829,-0.121951,0.670732,-4.081250,39.893749,-1.781250,0.0,1.000000,0.000000,0.000000,0.000000
1782117241.324575,1744680,-0.969238,0.023926,-0.260742,0.548781,-0.182927,0.670732,-4.081250,39.893749,-1.781250,0.0,1.000000,0.000000,0.000000,0.000000
1782117241.334575,1744690,-0.969238,0.024414,-0.261719,0.670732,-0.060976,0.731707,-4.150000,39.825001,-1.787500,0.0,1.000000,0.000000,0.000000,0.000000
1782117241.344575,1744700,-0.970215,0.024902,-0.262695,0.670732,-0.060976,0.731707,-4.150000,39.825001,-1.787500,0.0,1.000000,0.000000,0.000000,0.000000
1782117241.354575,1744710,-0.969238,0.026367,-0.264648,0.670732,-0.121951,0.792683,-3.975000,39.956249,-1.793750,0.0,1.000000,0.000000,0.000000,0.000000
1782117241.364575,1744720,-0.968750,0.024414,-0.264160,0.792683,-0.121951,0.792683,-3.975000,39.956249,-1.793750,0.0,1.000000,0.000000,0.000000,0.000000
1782117241.374575,1744730,-0.969727,0.024414,-0.264160,0.853659,-0.060976,0.792683,-4.162500,39.812500,-1.837500,0.0,1.000000,0.000000,0.000000,0.000000
1782117241.384575,1744740,-0.969727,0.025391,-0.263184,0.731707,-0.121951,0.792683,-4.162500,39.812500,-1.837500,0.0,1.000000,0.000000,0.000000,0.000000
1782117241.394575,1744750,-0.968262,0.024902,-0.263672,0.548781,-0.121951,0.731707,-4.168750,39.775002,-1.756250,0.0,1.000000,0.000000,0.000000,0.000000
1782117241.404575,1744760,-0.967773,0.026855,-0.262695,0.487805,-0.121951,0.670732,-4.168750,39.775002,-1.756250,0.0,1.000000,0.000000,0.000000,0.000000
1782117241.414575,1744770,-0.967773,0.025879,-0.263672,0.426829,0.000000,0.548781,-4.175000,39.737499,-1.787500,0.0,1.000000,0.000000,0.000000,0.000000
1782117241.424575,1744780,-0.968262,0.025391,-0.264160,0.548781,-0.060976,0.670732,-4.175000,39.737499,-1.787500,0.0,1.000000,0.000000,0.000000,0.000000
1782117241.434575,1744790,-0.970703,0.025391,-0.262207,0.731707,0.000000,0.731707,-4.200000,39.743752,-1.793750,0.0,1.000000,0.000000,0.000000,0.000000
1782117241.444575,1744800,-0.970703,0.023926,-0.262695,0.792683,-0.121951,0.792683,-4.200000,39.743752,-1.793750,0.0,1.000000,0.000000,0.000000,0.000000
1782117241.454575,1744810,-0.970703,0.022461,-0.262207,0.792683,-0.304878,0.731707,-4.206250,39.731251,-1.812500,0.0,1.000000,0.000000,0.000000,0.000000
1782117241.464575,1744820,-0.969727,0.022949,-0.262695,0.731707,-0.304878,0.792683,-4.206250,39.731251,-1.812500,0.0,1.000000,0.000000,0.000000,0.000000
1782117241.474575,1744830,-0.969727,0.024414,-0.261719,0.731707,-0.243902,0.792683,-4.193750,39.768749,-1.812500,0.0,1.000000,0.000000,0.000000,0.000000
1782117241.484575,1744840,-0.969238,0.025391,-0.262207,0.792683,-0.121951,0.792683,-4.193750,39.768749,-1.812500,0.0,1.000000,0.000000,0.000000,0.000000
1782117241.494575,1744850,-0.966309,0.023926,-0.261230,0.792683,-0.060976,0.731707,-4.187500,39.793751,-1.762500,0.0,1.000000,0.000000,0.000000,0.000000
1782117241.504575,1744860,-0.965820,0.023438,-0.262207,0.731707,-0.060976,0.731707,-4.243750,39.712502,-1.787500,0.0,1.000000,0.000000,0.000000,0.000000
1782117241.515575,1744871,-0.967285,0.023438,-0.264648,0.609756,0.060976,0.670732,-4.243750,39.712502,-1.787500,0.0,1.000000,0.000000,0.000000,0.000000
1782117241.525575,1744881,-0.968750,0.025391,-0.264648,0.548781,0.000000,0.731707,-4.056250,39.937500,-1.787500,0.0,1.000000,0.000000,0.000000,0.000000
1782117241.535575,1744891,-0.969238,0.024902,-0.265137,0.426829,0.000000,0.670732,-4.056250,39.937500,-1.787500,0.0,1.000000,0.000000,0.000000,0.000000
1782117241.544575,1744900,-0.969238,0.025391,-0.263672,0.609756,0.000000,0.792683,-4.131250,39.862499,-1.818750,0.0,1.000000,0.000000,0.000000,0.000000
1782117241.556575,1744912,-0.969238,0.023438,-0.264160,0.731707,-0.060976,0.792683,-4.131250,39.862499,-1.818750,0.0,1.000000,0.000000,0.000000,0.000000
1782117241.564575,1744920,-0.970703,0.022461,-0.262207,0.731707,-0.121951,0.731707,-4.150000,39.818752,-1.843750,0.0,1.000000,0.000000,0.000000,0.000000
1782117241.574575,1744930,-0.969238,0.023438,-0.263672,0.670732,-0.121951,0.731707,-4.150000,39.818752,-1.843750,0.0,1.000000,0.000000,0.000000,0.000000
1782117241.584575,1744940,-0.969238,0.021484,-0.262695,0.731707,-0.121951,0.792683,-4.131250,39.818752,-1.793750,0.0,1.000000,0.000000,0.000000,0.000000
1782117241.594575,1744950,-0.969238,0.023926,-0.262207,0.792683,-0.060976,0.792683,-4.131250,39.818752,-1.793750,0.0,1.000000,0.000000,0.000000,0.000000
1782117241.604575,1744960,-0.967773,0.024902,-0.264160,0.975610,0.000000,0.853659,-4.043750,39.924999,-1.787500,0.0,1.000000,0.000000,0.000000,0.000000
1782117241.614575,1744970,-0.967285,0.024414,-0.264648,0.975610,0.060976,0.792683,-4.043750,39.924999,-1.787500,0.0,1.000000,0.000000,0.000000,0.000000
1782117241.624575,1744980,-0.970215,0.024902,-0.262695,0.853659,0.121951,0.731707,-4.125000,39.831249,-1.812500,0.0,1.000000,0.000000,0.000000,0.000000
1782117241.636575,1744992,-0.970215,0.025391,-0.261230,0.670732,0.060976,0.670732,-4.125000,39.831249,-1.812500,0.0,1.000000,0.000000,0.000000,0.000000
1782117241.644575,1745000,-0.970215,0.024902,-0.258789,0.731707,-0.060976,0.731707,-4.081250,39.881252,-1.781250,0.0,1.000000,0.000000,0.000000,0.000000
1782117241.655575,1745011,-0.968750,0.026367,-0.257324,0.731707,-0.182927,0.792683,-4.081250,39.881252,-1.781250,0.0,1.000000,0.000000,0.000000,0.000000
1782117241.665575,1745021,-0.969238,0.026367,-0.259277,0.792683,-0.182927,0.853659,-4.156250,39.781250,-1.812500,0.0,1.000000,0.000000,0.000000,0.000000
1782117241.675575,1745031,-0.969238,0.024414,-0.261719,0.670732,-0.182927,0.914634,-4.156250,39.781250,-1.812500,0.0,1.000000,0.000000,0.000000,0.000000
1782117241.684575,1745040,-0.969238,0.023926,-0.263672,0.670732,-0.121951,0.853659,-4.118750,39.818752,-1.793750,0.0,1.000000,0.000000,0.000000,0.000000
1782117241.695575,1745051,-0.969727,0.024902,-0.264648,0.548781,0.060976,0.792683,-4.118750,39.818752,-1.793750,0.0,1.000000,0.000000,0.000000,0.000000
1782117241.705575,1745061,-0.968750,0.026855,-0.264160,0.670732,0.000000,0.670732,-4.200000,39.743752,-1.781250,0.0,1.000000,0.000000,0.000000,0.000000
1782117241.714575,1745070,-0.967773,0.025391,-0.265625,0.731707,-0.060976,0.670732,-4.200000,39.743752,-1.781250,0.0,1.000000,0.000000,0.000000,0.000000
1782117241.724575,1745080,-0.968262,0.024414,-0.265137,0.731707,0.000000,0.670732,-4.187500,39.818752,-1.781250,0.0,1.000000,0.000000,0.000000,0.000000
1782117241.734575,1745090,-0.968262,0.025391,-0.265137,0.426829,0.060976,0.670732,-4.187500,39.818752,-1.781250,0.0,1.000000,0.000000,0.000000,0.000000
1782117241.744575,1745100,-0.968262,0.024902,-0.264160,0.426829,0.060976,0.731707,-4.193750,39.743752,-1.781250,0.0,1.000000,0.000000,0.000000,0.000000
1782117241.755575,1745111,-0.965820,0.024414,-0.264648,0.487805,0.060976,0.792683,-4.193750,39.743752,-1.781250,0.0,1.000000,0.000000,0.000000,0.000000
1782117241.764575,1745120,-0.968750,0.024414,-0.264648,0.609756,0.060976,0.792683,-4.150000,39.837502,-1.800000,0.0,1.000000,0.000000,0.000000,0.000000
1782117241.774575,1745130,-0.970215,0.023438,-0.264648,0.670732,-0.060976,0.914634,-4.150000,39.837502,-1.800000,0.0,1.000000,0.000000,0.000000,0.000000
1782117241.784575,1745140,-0.969238,0.024414,-0.264160,0.670732,-0.182927,0.853659,-4.237500,39.756252,-1.812500,0.0,1.000000,0.000000,0.000000,0.000000
1782117241.794575,1745150,-0.968750,0.023926,-0.263672,0.609756,-0.121951,0.792683,-4.237500,39.756252,-1.812500,0.0,1.000000,0.000000,0.000000,0.000000
1782117241.804575,1745160,-0.967285,0.024414,-0.263184,0.609756,-0.060976,0.731707,-4.056250,39.950001,-1.800000,0.0,1.000000,0.000000,0.000000,0.000000
1782117241.814575,1745170,-0.968262,0.023438,-0.264160,0.487805,0.000000,0.670732,-4.150000,39.812500,-1.806250,0.0,1.000000,0.000000,0.000000,0.000000
1782117241.824575,1745180,-0.970215,0.024414,-0.262207,0.548781,0.060976,0.792683,-4.150000,39.812500,-1.806250,0.0,1.000000,0.000000,0.000000,0.000000
1782117241.834575,1745190,-0.968750,0.023926,-0.264160,0.487805,0.000000,0.731707,-4.087500,39.843750,-1.793750,0.0,1.000000,0.000000,0.000000,0.000000
1782117241.844575,1745200,-0.970215,0.025391,-0.264160,0.243902,0.060976,0.670732,-4.087500,39.843750,-1.793750,0.0,1.000000,0.000000,0.000000,0.000000
1782117241.854575,1745210,-0.967773,0.024902,-0.263672,0.121951,0.060976,0.670732,-4.181250,39.756252,-1.825000,0.0,1.000000,0.000000,0.000000,0.000000
1782117241.865575,1745221,-0.966797,0.023438,-0.264648,0.365854,0.060976,0.670732,-4.181250,39.756252,-1.825000,0.0,1.000000,0.000000,0.000000,0.000000
1782117241.875575,1745231,-0.968262,0.022461,-0.264648,0.731707,0.060976,0.731707,-4.187500,39.887501,-1.768750,0.0,1.000000,0.000000,0.000000,0.000000
1782117241.884575,1745240,-0.968750,0.022461,-0.264648,0.914634,-0.060976,0.792683,-4.187500,39.887501,-1.768750,0.0,1.000000,0.000000,0.000000,0.000000
1782117241.895575,1745251,-0.968262,0.022461,-0.262695,0.792683,-0.121951,0.792683,-4.175000,39.781250,-1.762500,0.0,1.000000,0.000000,0.000000,0.000000
1782117241.904575,1745260,-0.970215,0.020996,-0.263184,0.609756,-0.121951,0.731707,-4.175000,39.781250,-1.762500,0.0,1.000000,0.000000,0.000000,0.000000
1782117241.914575,1745270,-0.968750,0.021973,-0.263672,0.548781,-0.060976,0.731707,-4.150000,39.850002,-1.800000,0.0,1.000000,0.000000,0.000000,0.000000
1782117241.926575,1745282,-0.968750,0.021973,-0.263672,0.731707,0.000000,0.731707,-4.150000,39.850002,-1.800000,0.0,1.000000,0.000000,0.000000,0.000000
1782117241.935575,1745291,-0.967773,0.024414,-0.262207,0.792683,0.000000,0.731707,-4.100000,39.900002,-1.787500,0.0,1.000000,0.000000,0.000000,0.000000
1782117241.944575,1745300,-0.966797,0.026367,-0.262695,0.914634,0.060976,0.731707,-4.100000,39.900002,-1.787500,0.0,1.000000,0.000000,0.000000,0.000000
1782117241.954575,1745310,-0.967773,0.025391,-0.264648,0.792683,0.182927,0.731707,-4.156250,39.837502,-1.768750,0.0,1.000000,0.000000,0.000000,0.000000
1782117241.965575,1745321,-0.969238,0.024902,-0.263672,0.670732,0.182927,0.792683,-4.156250,39.837502,-1.768750,0.0,1.000000,0.000000,0.000000,0.000000
1782117241.974575,1745330,-0.969727,0.023926,-0.263184,0.609756,0.060976,0.731707,-4.162500,39.875000,-1.818750,0.0,1.000000,0.000000,0.000000,0.000000
1782117241.984575,1745340,-0.968750,0.023438,-0.262207,0.792683,0.060976,0.792683,-4.162500,39.875000,-1.818750,0.0,1.000000,0.000000,0.000000,0.000000
1782117241.994575,1745350,-0.969727,0.020996,-0.262695,0.975610,0.000000,0.853659,-4.206250,39.806252,-1.843750,0.0,1.000000,0.000000,0.000000,0.000000
1782117242.004575,1745360,-0.970215,0.020508,-0.264648,1.097561,-0.243902,0.914634,-4.206250,39.806252,-1.843750,0.0,1.000000,0.000000,0.000000,0.000000
1782117242.014575,1745370,-0.967285,0.021484,-0.264648,1.280488,-0.243902,0.853659,-3.900000,40.100002,-1.687500,0.0,1.000000,0.000000,0.000000,0.000000
1782117242.024575,1745380,-0.968262,0.021973,-0.264648,1.341463,-0.060976,0.914634,-3.900000,40.100002,-1.687500,0.0,1.000000,0.000000,0.000000,0.000000
1782117242.034575,1745390,-0.970703,0.020996,-0.265137,1.402439,0.000000,0.853659,-4.175000,39.762501,-1.775000,0.0,1.000000,0.000000,0.000000,0.000000
1782117242.044575,1745400,-0.970215,0.020996,-0.264160,1.463415,0.000000,0.914634,-4.175000,39.762501,-1.775000,0.0,1.000000,0.000000,0.000000,0.000000
1782117242.055575,1745411,-0.970703,0.022949,-0.263184,1.585366,0.060976,0.975610,-4.143750,39.793751,-1.762500,0.0,1.000000,0.000000,0.000000,0.000000
1782117242.065575,1745421,-0.969238,0.024414,-0.263672,1.524390,0.000000,0.975610,-4.143750,39.793751,-1.762500,0.0,1.000000,0.000000,0.000000,0.000000
1782117242.075575,1745431,-0.967285,0.024902,-0.266113,1.402439,-0.060976,0.975610,-4.125000,39.868752,-1.731250,0.0,1.000000,0.000000,0.000000,0.000000
1782117242.085575,1745441,-0.966797,0.026855,-0.267090,1.280488,0.000000,0.975610,-4.068750,39.900002,-1.756250,0.0,1.000000,0.000000,0.000000,0.000000
1782117242.094575,1745450,-0.964844,0.027832,-0.268555,1.341463,0.060976,1.036585,-4.068750,39.900002,-1.756250,0.0,1.000000,0.000000,0.000000,0.000000
1782117242.104575,1745460,-0.965332,0.024414,-0.269043,1.463415,0.000000,1.036585,-4.231250,39.725002,-1.787500,0.0,1.000000,0.000000,0.000000,0.000000
1782117242.114575,1745470,-0.964355,0.023438,-0.271484,1.585366,-0.060976,1.097561,-4.231250,39.725002,-1.787500,0.0,1.000000,0.000000,0.000000,0.000000
1782117242.124575,1745480,-0.965820,0.020996,-0.273926,1.707317,-0.182927,1.158537,-4.106250,39.918751,-1.731250,0.0,1.000000,0.000000,0.000000,0.000000
1782117242.134575,1745490,-0.965820,0.020996,-0.273926,1.707317,-0.182927,1.158537,-4.106250,39.918751,-1.731250,0.0,1.000000,0.000000,0.000000,0.000000
1782117242.144575,1745500,-0.965332,0.022461,-0.272949,1.829268,-0.182927,1.097561,-4.156250,39.862499,-1.756250,0.0,1.000000,0.000000,0.000000,0.000000
1782117242.156575,1745512,-0.965820,0.021484,-0.272461,2.073171,-0.060976,1.036585,-4.156250,39.862499,-1.756250,0.0,1.000000,0.000000,0.000000,0.000000
1782117242.164575,1745520,-0.968262,0.019531,-0.269531,2.560976,-0.060976,1.158537,-3.868750,40.081249,-1.712500,0.0,1.000000,0.000000,0.000000,0.000000
1782117242.174575,1745530,-0.968750,0.020020,-0.267090,3.048780,-0.243902,1.219512,-3.868750,40.081249,-1.712500,0.0,1.000000,0.000000,0.000000,0.000000
1782117242.184575,1745540,-0.969238,0.019531,-0.265137,3.475610,-0.487805,1.280488,-4.062500,39.918751,-1.731250,0.0,1.000000,0.000000,0.000000,0.000000
1782117242.194575,1745550,-0.972656,0.019043,-0.264160,3.902439,-0.609756,1.402439,-4.062500,39.918751,-1.731250,0.0,1.000000,0.000000,0.000000,0.000000
1782117242.204575,1745560,-0.975586,0.020508,-0.264160,4.146341,-0.853659,1.524390,-4.000000,39.931252,-1.700000,0.0,1.000000,0.000000,0.000000,0.000000
1782117242.214575,1745570,-0.984375,0.023926,-0.267090,4.146341,-0.853659,1.829268,-4.000000,39.931252,-1.700000,0.0,1.000000,0.000000,0.000000,0.000000
1782117242.224575,1745580,-0.978516,0.019531,-0.274902,3.841464,-1.158537,2.073171,-4.043750,39.893749,-1.712500,0.0,1.000000,0.000000,0.000000,0.000000
1782117242.236575,1745592,-0.962891,0.011719,-0.300293,2.682927,0.426829,1.890244,-4.043750,39.893749,-1.712500,0.0,1.000000,0.000000,0.000000,0.000000
1782117242.244575,1745600,-0.962891,0.011719,-0.300293,2.682927,0.426829,1.890244,-3.743750,40.106251,-1.587500,0.0,1.000000,0.000000,0.000000,0.000000
1782117242.254575,1745610,-0.959473,-0.006348,-0.307129,3.414634,1.402439,1.768293,-3.743750,40.106251,-1.587500,0.0,1.000000,0.000000,0.000000,0.000000
1782117242.264575,1745620,-0.976074,-0.013672,-0.316406,4.085366,2.256098,1.524390,-4.006250,39.818752,-1.681250,0.0,1.000000,0.000000,0.000000,0.000000
1782117242.275575,1745631,-0.991211,-0.021973,-0.324219,5.426829,1.463415,1.646341,-4.006250,39.818752,-1.681250,0.0,1.000000,0.000000,0.000000,0.000000
1782117242.285575,1745641,-0.978516,-0.020020,-0.331055,6.158537,0.060976,1.158537,-3.925000,39.868752,-1.637500,0.0,1.000000,0.000000,0.000000,0.000000
1782117242.294575,1745650,-0.963379,-0.009766,-0.331543,7.317073,-1.158537,0.853659,-3.925000,39.868752,-1.637500,0.0,1.000000,0.000000,0.000000,0.000000
1782117242.305575,1745661,-0.949219,0.004883,-0.328613,8.353659,-2.073171,0.975610,-3.937500,39.781250,-1.618750,0.0,1.000000,0.000000,0.000000,0.000000
1782117242.315575,1745671,-0.934082,0.017578,-0.327148,8.658537,-2.682927,1.524390,-3.937500,39.781250,-1.618750,0.0,1.000000,0.000000,0.000000,0.000000
1782117242.324575,1745680,-0.929199,0.020020,-0.325684,8.719512,-3.048780,2.317073,-3.793750,39.937500,-1.500000,0.0,1.000000,0.000000,0.000000,0.000000
1782117242.334575,1745690,-0.937012,0.015137,-0.325684,9.329268,-3.719512,3.231707,-3.793750,39.937500,-1.500000,0.0,1.000000,0.000000,0.000000,0.000000
1782117242.344575,1745700,-0.948730,0.017090,-0.330078,9.878049,-6.036585,3.963415,-3.843750,39.781250,-1.450000,0.0,1.000000,0.000000,0.000000,0.000000
1782117242.356575,1745712,-0.940430,0.021484,-0.338867,10.060976,-8.048780,4.451220,-3.843750,39.781250,-1.450000,0.0,1.000000,0.000000,0.000000,0.000000
1782117242.364575,1745720,-0.924316,0.016113,-0.339844,7.987805,-8.902439,4.573171,-3.550000,40.000000,-1.200000,0.0,1.000000,0.000000,0.000000,0.000000
1782117242.375575,1745731,-0.922363,0.009766,-0.350098,4.024390,-8.170732,4.451220,-3.606250,39.868752,-1.212500,0.0,1.000000,0.000000,0.000000,0.000000
1782117242.384575,1745740,-0.914062,0.007324,-0.356934,-0.304878,-7.865854,3.963415,-3.606250,39.868752,-1.212500,0.0,1.000000,0.000000,0.000000,0.000000
1782117242.394575,1745750,-0.902344,0.009766,-0.356934,-3.292683,-7.439024,3.109756,-3.593750,39.843750,-1.118750,0.0,1.000000,0.000000,0.000000,0.000000
1782117242.405575,1745761,-0.905762,0.008789,-0.342773,-4.451220,-6.890244,2.926829,-3.593750,39.843750,-1.118750,0.0,1.000000,0.000000,0.000000,0.000000
1782117242.414575,1745770,-0.916504,0.003906,-0.330078,-5.426829,-7.500000,3.170732,-3.587500,39.775002,-1.050000,0.0,1.000000,0.000000,0.000000,0.000000
1782117242.424575,1745780,-0.923340,0.001953,-0.316895,-5.853659,-8.536586,3.719512,-3.587500,39.775002,-1.050000,0.0,1.000000,0.000000,0.000000,0.000000
1782117242.435575,1745791,-0.940430,0.006836,-0.301758,-6.341464,-10.304878,4.024390,-3.500000,39.775002,-1.043750,0.0,1.000000,0.000000,0.000000,0.000000
1782117242.444575,1745800,-0.966797,0.016602,-0.281738,-6.768293,-12.682927,4.329268,-3.500000,39.775002,-1.043750,0.0,1.000000,0.000000,0.000000,0.000000
1782117242.454575,1745810,-0.990723,0.018555,-0.267578,-7.439024,-15.609756,4.573171,-3.443750,39.712502,-1.000000,0.0,1.000000,0.000000,0.000000,0.000000
1782117242.464575,1745820,-1.010254,0.015625,-0.261230,-7.987805,-17.865854,4.329268,-3.443750,39.712502,-1.000000,0.0,1.000000,0.000000,0.000000,0.000000
1782117242.474575,1745830,-1.026367,0.011230,-0.259277,-8.109756,-19.817074,3.231707,-3.537500,39.549999,-0.906250,0.0,1.000000,0.000000,0.000000,0.000000
1782117242.485575,1745841,-1.025391,0.007812,-0.257812,-7.256098,-21.097561,1.402439,-3.537500,39.549999,-0.906250,0.0,1.000000,0.000000,0.000000,0.000000
1782117242.494575,1745850,-1.006836,0.006836,-0.266602,-5.000000,-20.853659,-0.182927,-3.618750,39.362499,-0.787500,0.0,1.000000,0.000000,0.000000,0.000000
1782117242.504575,1745860,-0.991699,0.002930,-0.262695,-2.500000,-18.780489,-1.707317,-3.618750,39.362499,-0.787500,0.0,1.000000,0.000000,0.000000,0.000000
1782117242.514575,1745870,-0.977051,-0.006348,-0.261230,-1.829268,-17.195122,-3.109756,-3.687500,39.212502,-0.675000,0.0,1.000000,0.000000,0.000000,0.000000
1782117242.524575,1745880,-0.969727,-0.014648,-0.267578,-1.524390,-14.756098,-3.536585,-3.687500,39.212502,-0.675000,0.0,1.000000,0.000000,0.000000,0.000000
1782117242.534575,1745890,-0.974121,-0.013672,-0.274902,-0.914634,-13.292684,-2.865854,-3.762500,39.081249,-0.625000,0.0,1.000000,0.000000,0.000000,0.000000
1782117242.544575,1745900,-0.975098,-0.002441,-0.270020,0.609756,-13.475610,-1.463415,-3.762500,39.081249,-0.625000,0.0,1.000000,0.000000,0.000000,0.000000
1782117242.556575,1745912,-0.966309,0.003906,-0.260742,2.560976,-14.207317,0.000000,-3.875000,39.049999,-0.493750,0.0,1.000000,0.000000,0.000000,0.000000
1782117242.564575,1745920,-0.951660,0.008301,-0.250977,4.573171,-14.756098,0.975610,-3.875000,39.049999,-0.493750,0.0,1.000000,0.000000,0.000000,0.000000
1782117242.574575,1745930,-0.941895,0.007812,-0.249512,6.524390,-13.536586,1.158537,-3.975000,39.043751,-0.343750,0.0,1.000000,0.000000,0.000000,0.000000
1782117242.584575,1745940,-0.946289,0.009766,-0.244141,8.414635,-11.219512,1.158537,-3.975000,39.043751,-0.343750,0.0,1.000000,0.000000,0.000000,0.000000
1782117242.594575,1745950,-0.967285,0.006836,-0.240723,10.304878,-9.390244,1.280488,-3.900000,39.156250,-0.300000,0.0,1.000000,0.000000,0.000000,0.000000
1782117242.604575,1745960,-0.992188,0.010254,-0.238770,12.743903,-8.841464,2.012195,-3.900000,39.156250,-0.300000,0.0,1.000000,0.000000,0.000000,0.000000
1782117242.614575,1745970,-1.012695,0.022461,-0.226074,14.939025,-10.121951,3.231707,-3.775000,39.343750,-0.125000,0.0,1.000000,0.000000,0.000000,0.000000
1782117242.625575,1745981,-1.007812,0.026367,-0.209961,16.890244,-12.195122,4.146341,-3.775000,39.343750,-0.125000,0.0,1.000000,0.000000,0.000000,0.000000
1782117242.636575,1745992,-0.989746,0.028809,-0.199707,18.841463,-14.024390,3.719512,-3.725000,39.406250,-0.075000,0.0,1.000000,0.000000,0.000000,0.000000
1782117242.645575,1746001,-0.968750,0.031738,-0.188965,20.000000,-13.841464,2.987805,-3.725000,39.406250,-0.075000,0.0,1.000000,0.000000,0.000000,0.000000
1782117242.654575,1746010,-0.955566,0.028320,-0.181152,20.182928,-13.048780,2.317073,-3.475000,39.662502,0.143750,0.0,1.000000,0.000000,0.000000,0.000000
1782117242.665575,1746021,-0.957520,0.027832,-0.172852,20.060976,-12.134147,2.073171,-3.700000,39.337502,0.137500,0.0,1.000000,0.000000,0.000000,0.000000
1782117242.675575,1746031,-0.966797,0.032227,-0.164551,20.426830,-10.914635,2.500000,-3.700000,39.337502,0.137500,0.0,1.000000,0.000000,0.000000,0.000000
1782117242.685575,1746041,-0.984863,0.039062,-0.159668,21.097561,-8.963415,3.231707,-3.525000,39.456249,0.331250,0.0,1.000000,0.000000,0.000000,0.000000
1782117242.695575,1746051,-1.005371,0.056152,-0.155762,21.463415,-7.317073,4.085366,-3.525000,39.456249,0.331250,0.0,1.000000,0.000000,0.000000,0.000000
1782117242.705575,1746061,-1.020020,0.073242,-0.146484,21.402439,-6.829268,4.695122,-3.693750,39.206249,0.312500,0.0,1.000000,0.000000,0.000000,0.000000
1782117242.716575,1746072,-1.013672,0.076660,-0.133301,20.853659,-7.439024,4.756098,-3.693750,39.206249,0.312500,0.0,1.000000,0.000000,0.000000,0.000000
1782117242.724575,1746080,-1.000977,0.083008,-0.125977,19.634148,-7.804878,3.780488,-3.531250,39.231251,0.412500,0.0,1.000000,0.000000,0.000000,0.000000
1782117242.735575,1746091,-0.988770,0.085449,-0.125488,17.987804,-7.439024,2.560976,-3.531250,39.231251,0.412500,0.0,1.000000,0.000000,0.000000,0.000000
1782117242.744575,1746100,-0.982910,0.083984,-0.127930,16.890244,-6.280488,1.768293,-3.475000,39.193752,0.475000,0.0,1.000000,0.000000,0.000000,0.000000
1782117242.756575,1746112,-0.983398,0.077148,-0.125488,15.853659,-5.121951,1.341463,-3.475000,39.193752,0.475000,0.0,1.000000,0.000000,0.000000,0.000000
1782117242.764575,1746120,-0.990234,0.074219,-0.112305,14.634147,-3.902439,0.731707,-3.381250,39.250000,0.593750,0.0,1.000000,0.000000,0.000000,0.000000
1782117242.774575,1746130,-1.002441,0.078613,-0.097168,13.109756,-3.048780,0.000000,-3.381250,39.250000,0.593750,0.0,1.000000,0.000000,0.000000,0.000000
1782117242.784575,1746140,-1.018555,0.081055,-0.075195,11.402439,-2.743902,-0.731707,-3.437500,39.187500,0.637500,0.0,1.000000,0.000000,0.000000,0.000000
1782117242.795575,1746151,-1.034180,0.078125,-0.054688,9.451220,-3.231707,-1.463415,-3.437500,39.187500,0.637500,0.0,1.000000,0.000000,0.000000,0.000000
1782117242.804575,1746160,-1.047852,0.077148,-0.040039,7.439024,-4.146341,-1.951220,-2.950000,39.650002,0.756250,0.0,1.000000,0.000000,0.000000,0.000000
1782117242.814575,1746170,-1.045410,0.084473,-0.033203,5.487805,-5.426829,-1.402439,-2.950000,39.650002,0.756250,0.0,1.000000,0.000000,0.000000,0.000000
1782117242.824575,1746180,-1.037598,0.090332,-0.028809,3.963415,-6.585366,-0.060976,-3.425000,39.218750,0.706250,0.0,1.000000,0.000000,0.000000,0.000000
1782117242.836575,1746192,-1.017578,0.094727,-0.023438,3.048780,-7.804878,1.280488,-3.425000,39.218750,0.706250,0.0,1.000000,0.000000,0.000000,0.000000
1782117242.845575,1746201,-1.002441,0.096191,-0.013184,2.012195,-7.743903,1.829268,-3.400000,39.312500,0.843750,0.0,1.000000,0.000000,0.000000,0.000000
1782117242.854575,1746210,-1.001465,0.094727,-0.021484,0.304878,-5.792683,1.463415,-3.400000,39.312500,0.843750,0.0,1.000000,0.000000,0.000000,0.000000
1782117242.864575,1746220,-1.013184,0.096191,-0.044922,-1.341463,-3.109756,1.463415,-3.300000,39.462502,0.925000,0.0,1.000000,0.000000,0.000000,0.000000
1782117242.876575,1746232,-1.025879,0.093262,-0.061523,-2.865854,-1.585366,1.585366,-3.300000,39.462502,0.925000,0.0,1.000000,0.000000,0.000000,0.000000
1782117242.884575,1746240,-1.024414,0.092285,-0.067383,-4.329268,-0.853659,0.914634,-3.337500,39.268749,1.006250,0.0,1.000000,0.000000,0.000000,0.000000
1782117242.896575,1746252,-1.006348,0.086426,-0.069336,-5.365854,-0.365854,-0.243902,-3.337500,39.268749,1.006250,0.0,1.000000,0.000000,0.000000,0.000000
1782117242.905575,1746261,-0.984863,0.077148,-0.069336,-5.792683,0.426829,-1.585366,-3.275000,39.325001,0.925000,0.0,1.000000,0.000000,0.000000,0.000000
1782117242.915575,1746271,-0.966797,0.064453,-0.069336,-5.792683,1.524390,-2.439024,-3.275000,39.325001,0.925000,0.0,1.000000,0.000000,0.000000,0.000000
1782117242.924575,1746280,-0.969238,0.057129,-0.071777,-5.731708,3.170732,-2.134146,-3.512500,39.137501,0.918750,0.0,1.000000,0.000000,0.000000,0.000000
1782117242.934575,1746290,-0.994629,0.047852,-0.078125,-5.060976,4.207317,-0.609756,-3.512500,39.137501,0.918750,0.0,1.000000,0.000000,0.000000,0.000000
1782117242.944575,1746300,-1.023926,0.044922,-0.085938,-3.963415,4.451220,1.219512,-3.425000,39.181252,0.912500,0.0,1.000000,0.000000,0.000000,0.000000
1782117242.957575,1746313,-1.031250,0.044434,-0.087402,-2.378049,3.475610,2.256098,-3.581250,39.043751,0.781250,0.0,1.000000,0.000000,0.000000,0.000000
1782117242.964575,1746320,-1.005371,0.041504,-0.077148,-0.365854,1.768293,1.951220,-3.581250,39.043751,0.781250,0.0,1.000000,0.000000,0.000000,0.000000
1782117242.974575,1746330,-1.005371,0.041504,-0.077148,-0.365854,1.768293,1.951220,-3.581250,39.043751,0.781250,0.0,1.000000,0.000000,0.000000,0.000000
1782117242.985575,1746341,-0.968262,0.033691,-0.071289,0.792683,1.280488,0.487805,-3.443750,39.150002,0.856250,0.0,1.000000,0.000000,0.000000,0.000000
1782117242.997575,1746353,-0.952148,0.024414,-0.075684,1.158537,2.987805,-0.487805,-3.393750,39.168751,0.881250,0.0,1.000000,0.000000,0.000000,0.000000
1782117243.004575,1746360,-0.967285,0.022461,-0.095703,1.402439,5.670732,0.487805,-3.393750,39.168751,0.881250,0.0,1.000000,0.000000,0.000000,0.000000
1782117243.016575,1746372,-1.049805,0.044922,-0.114258,2.012195,7.865854,5.426829,-3.143750,39.450001,0.875000,0.0,1.000000,0.000000,0.000000,0.000000
1782117243.024575,1746380,-1.049805,0.044922,-0.114258,2.012195,7.865854,5.426829,-3.143750,39.450001,0.875000,0.0,1.000000,0.000000,0.000000,0.000000
1782117243.036575,1746392,-1.060059,0.056641,-0.108398,2.621951,5.975610,6.341464,-3.231250,39.256252,0.900000,0.0,1.000000,0.000000,0.000000,0.000000
1782117243.044575,1746400,-1.034180,0.059570,-0.100098,2.804878,3.658537,5.121951,-3.231250,39.256252,0.900000,0.0,1.000000,0.000000,0.000000,0.000000
1782117243.054575,1746410,-0.995117,0.056152,-0.101074,1.829268,3.597561,2.987805,-3.150000,39.200001,0.812500,0.0,1.000000,0.000000,0.000000,0.000000
1782117243.064575,1746420,-0.976562,0.055664,-0.114746,0.548781,5.853659,1.524390,-3.150000,39.200001,0.812500,0.0,1.000000,0.000000,0.000000,0.000000
1782117243.076575,1746432,-1.005859,0.063477,-0.143066,-2.073171,8.597561,2.012195,-3.150000,39.218750,0.806250,0.0,1.000000,0.000000,0.000000,0.000000
1782117243.084575,1746440,-1.005859,0.063477,-0.143066,-2.073171,8.597561,2.012195,-3.150000,39.218750,0.806250,0.0,1.000000,0.000000,0.000000,0.000000
1782117243.096575,1746452,-1.017578,0.070801,-0.144043,-3.231707,7.682927,2.317073,-3.137500,39.150002,0.800000,0.0,1.000000,0.000000,0.000000,0.000000
1782117243.105575,1746461,-1.017578,0.073730,-0.135742,-4.512195,5.853659,1.585366,-3.137500,39.150002,0.800000,0.0,1.000000,0.000000,0.000000,0.000000
1782117243.117575,1746473,-1.002441,0.059082,-0.134277,-7.439024,4.024390,-0.914634,-3.156250,39.112499,0.731250,0.0,1.000000,0.000000,0.000000,0.000000
1782117243.125575,1746481,-1.002441,0.059082,-0.134277,-7.439024,4.024390,-0.914634,-3.156250,39.112499,0.731250,0.0,1.000000,0.000000,0.000000,0.000000
1782117243.135575,1746491,-0.998047,0.044434,-0.146484,-8.048780,3.597561,-1.402439,-3.175000,39.200001,0.718750,0.0,1.000000,0.000000,0.000000,0.000000
1782117243.144575,1746500,-1.000000,0.038574,-0.159668,-7.865854,3.597561,-0.914634,-3.175000,39.200001,0.718750,0.0,1.000000,0.000000,0.000000,0.000000
1782117243.157575,1746513,-0.999023,0.031250,-0.161621,-7.378049,2.621951,-0.426829,-3.156250,39.131252,0.725000,0.0,1.000000,0.000000,0.000000,0.000000
1782117243.164575,1746520,-0.995605,0.024902,-0.155273,-6.829268,1.280488,-0.304878,-3.156250,39.131252,0.725000,0.0,1.000000,0.000000,0.000000,0.000000
1782117243.174575,1746530,-0.985840,0.020996,-0.157715,-6.463415,0.426829,-0.304878,-3.118750,39.100002,0.831250,0.0,1.000000,0.000000,0.000000,0.000000
1782117243.184575,1746540,-0.977539,0.017090,-0.164551,-6.341464,1.280488,-0.182927,-3.118750,39.100002,0.831250,0.0,1.000000,0.000000,0.000000,0.000000
1782117243.198575,1746554,-0.978027,0.010254,-0.173828,-6.402439,2.500000,0.182927,-3.106250,39.125000,0.875000,0.0,1.000000,0.000000,0.000000,0.000000
1782117243.204575,1746560,-0.989258,0.005371,-0.181641,-6.158537,2.743902,0.731707,-3.106250,39.125000,0.875000,0.0,1.000000,0.000000,0.000000,0.000000
1782117243.214575,1746570,-0.998047,0.014160,-0.187500,-5.792683,2.256098,1.036585,-2.981250,39.193752,0.931250,0.0,1.000000,0.000000,0.000000,0.000000
1782117243.224575,1746580,-1.000000,0.019531,-0.186523,-5.365854,1.341463,1.280488,-2.981250,39.193752,0.931250,0.0,1.000000,0.000000,0.000000,0.000000
1782117243.236575,1746592,-1.002441,0.021973,-0.187500,-5.243903,0.304878,1.158537,-3.193750,38.906250,1.018750,0.0,1.000000,0.000000,0.000000,0.000000
1782117243.244575,1746600,-1.002441,0.018555,-0.187012,-5.731708,-1.097561,0.670732,-3.193750,38.906250,1.018750,0.0,1.000000,0.000000,0.000000,0.000000
1782117243.255575,1746611,-0.990723,0.013672,-0.191406,-5.609756,-1.402439,0.487805,-2.931250,39.212502,1.175000,0.0,1.000000,0.000000,0.000000,0.000000
1782117243.264575,1746620,-0.981934,0.012695,-0.193359,-4.268293,-0.182927,0.304878,-2.931250,39.212502,1.175000,0.0,1.000000,0.000000,0.000000,0.000000
1782117243.276575,1746632,-0.984863,0.016602,-0.194336,-3.414634,-0.121951,-0.121951,-3.206250,38.924999,1.137500,0.0,1.000000,0.000000,0.000000,0.000000
1782117243.285575,1746641,-0.984375,0.020020,-0.193848,-3.048780,0.121951,0.000000,-3.031250,39.156250,1.325000,0.0,1.000000,0.000000,0.000000,0.000000
1782117243.294575,1746650,-0.979980,0.021484,-0.194336,-3.597561,-0.182927,-0.243902,-3.031250,39.156250,1.325000,0.0,1.000000,0.000000,0.000000,0.000000
1782117243.305575,1746661,-0.978027,0.025391,-0.197266,-4.329268,-0.426829,-0.548781,-3.281250,38.918751,1.225000,0.0,1.000000,0.000000,0.000000,0.000000
1782117243.316575,1746672,-0.969238,0.031738,-0.198242,-5.182927,-0.426829,-0.548781,-3.281250,38.918751,1.225000,0.0,1.000000,0.000000,0.000000,0.000000
1782117243.324575,1746680,-0.966797,0.036133,-0.198730,-5.731708,0.243902,0.060976,-3.175000,39.137501,1.281250,0.0,1.000000,0.000000,0.000000,0.000000
1782117243.334575,1746690,-0.965332,0.037109,-0.202637,-5.548780,1.036585,0.609756,-3.175000,39.137501,1.281250,0.0,1.000000,0.000000,0.000000,0.000000
1782117243.344575,1746700,-0.968750,0.032715,-0.209961,-5.487805,1.341463,0.670732,-3.093750,39.193752,1.337500,0.0,1.000000,0.000000,0.000000,0.000000
1782117243.354575,1746710,-0.972656,0.028320,-0.215820,-5.121951,1.402439,0.487805,-3.093750,39.193752,1.337500,0.0,1.000000,0.000000,0.000000,0.000000
1782117243.364575,1746720,-0.973145,0.029785,-0.216797,-4.878049,0.914634,0.182927,-3.168750,39.250000,1.393750,0.0,1.000000,0.000000,0.000000,0.000000
1782117243.374575,1746730,-0.974121,0.028809,-0.217773,-4.939024,1.036585,-0.304878,-3.168750,39.250000,1.393750,0.0,1.000000,0.000000,0.000000,0.000000
1782117243.384575,1746740,-0.969238,0.027832,-0.222656,-5.548780,1.036585,-1.280488,-3.475000,39.000000,1.293750,0.0,1.000000,0.000000,0.000000,0.000000
1782117243.395575,1746751,-0.966797,0.032227,-0.226074,-6.463415,1.707317,-2.317073,-3.475000,39.000000,1.293750,0.0,1.000000,0.000000,0.000000,0.000000
1782117243.404575,1746760,-0.954102,0.032227,-0.227539,-7.865854,3.414634,-2.500000,-3.518750,38.987499,1.356250,0.0,1.000000,0.000000,0.000000,0.000000
1782117243.414575,1746770,-0.947266,0.026367,-0.227051,-8.963415,6.097561,-2.804878,-3.518750,38.987499,1.356250,0.0,1.000000,0.000000,0.000000,0.000000
1782117243.424575,1746780,-0.952637,0.022949,-0.230957,-9.939025,8.536586,-2.682927,-3.400000,39.162502,1.250000,0.0,1.000000,0.000000,0.000000,0.000000
1782117243.436575,1746792,-0.954102,0.014160,-0.240234,-10.548780,10.243902,-2.317073,-3.400000,39.162502,1.250000,0.0,1.000000,0.000000,0.000000,0.000000
1782117243.444575,1746800,-0.959961,0.007324,-0.244141,-11.036586,11.951220,-1.829268,-3.681250,39.012501,1.100000,0.0,1.000000,0.000000,0.000000,0.000000
1782117243.454575,1746810,-0.964844,-0.001465,-0.248535,-11.768293,12.621951,-2.012195,-3.681250,39.012501,1.100000,0.0,1.000000,0.000000,0.000000,0.000000
1782117243.464575,1746820,-0.966797,-0.004883,-0.257324,-11.524390,12.560976,-2.378049,-3.831250,38.950001,0.881250,0.0,1.000000,0.000000,0.000000,0.000000
1782117243.476575,1746832,-0.958008,-0.006348,-0.270020,-9.146341,13.658537,-2.012195,-3.831250,38.950001,0.881250,0.0,1.000000,0.000000,0.000000,0.000000
1782117243.485575,1746841,-0.979004,-0.006348,-0.262695,-6.829268,14.085366,-2.317073,-3.881250,39.043751,0.700000,0.0,1.000000,0.000000,0.000000,0.000000
1782117243.494575,1746850,-0.952637,0.007812,-0.263672,-4.878049,15.670732,-2.012195,-3.881250,39.043751,0.700000,0.0,1.000000,0.000000,0.000000,0.000000
