Unix_Time_s,RelativeTime_s,Target_Position_Deg,Measured_Position_Deg,Is_Bursting
1782117235.668031,0.012,7.000,7.000,0
1782117235.675738,0.020,7.000,7.000,0
1782117235.687166,0.032,7.000,7.000,0
1782117235.695279,0.040,7.000,7.000,0
1782117235.711056,0.055,7.000,7.000,0
1782117235.715746,0.060,7.000,7.000,0
1782117235.725169,0.070,7.000,7.000,0
1782117235.735953,0.080,7.000,7.000,0
1782117235.745300,0.090,7.000,7.000,0
1782117235.755626,0.100,7.000,7.000,0
1782117235.766055,0.110,7.000,7.000,0
1782117235.776730,0.121,7.000,7.000,0
1782117235.787837,0.132,7.000,7.000,0
1782117235.796656,0.141,7.000,7.000,0
1782117235.878788,0.223,7.000,7.000,0
1782117235.880294,0.225,7.000,7.000,0
1782117235.880294,0.225,7.000,7.000,0
1782117235.880294,0.225,7.000,7.000,0
1782117235.894279,0.239,7.000,7.000,0
1782117235.894279,0.239,7.000,7.000,0
1782117235.895382,0.240,7.000,7.000,0
1782117235.895382,0.240,7.000,7.000,0
1782117235.895382,0.240,7.000,7.000,0
1782117235.896382,0.241,7.000,7.000,0
1782117235.931877,0.276,7.000,7.000,0
1782117235.931877,0.276,7.000,7.000,0
1782117235.932901,0.277,7.000,7.000,0
1782117235.935982,0.280,7.000,7.000,0
1782117235.949245,0.294,7.000,7.000,0
1782117235.955863,0.300,7.000,7.000,0
1782117235.966353,0.311,7.000,7.000,0
1782117235.980472,0.325,7.000,7.000,0
1782117235.987070,0.331,7.000,7.000,0
1782117235.996099,0.341,7.000,7.000,0
1782117236.006642,0.351,7.000,7.000,0
1782117236.017658,0.362,7.000,7.000,0
1782117236.025374,0.370,7.000,7.000,0
1782117236.034747,0.379,7.000,7.000,0
1782117236.047695,0.392,7.000,7.000,0
1782117236.057763,0.402,7.000,7.000,0
1782117236.070502,0.415,7.000,7.000,0
1782117236.075134,0.420,7.000,7.000,0
1782117236.084770,0.429,7.000,7.000,0
1782117236.094786,0.439,7.000,7.000,0
1782117236.104945,0.449,7.000,7.000,0
1782117236.124084,0.469,7.000,7.000,0
1782117236.125084,0.470,7.000,7.000,0
1782117236.153022,0.497,7.000,7.000,0
1782117236.155539,0.500,7.000,7.000,0
1782117236.156301,0.501,7.000,7.000,0
1782117236.167087,0.512,7.000,7.000,0
1782117236.176861,0.521,7.000,7.000,0
1782117236.187090,0.532,7.000,7.000,0
1782117236.195083,0.540,7.000,7.000,0
1782117236.206642,0.551,7.000,7.000,0
1782117236.223687,0.568,7.000,7.000,0
1782117236.226348,0.571,7.000,7.000,0
1782117236.235342,0.580,7.000,7.000,0
1782117236.247322,0.592,7.000,7.000,0
1782117236.256016,0.600,7.000,7.000,0
1782117236.265004,0.609,7.000,7.000,0
1782117236.275602,0.620,7.000,7.000,0
1782117236.285117,0.630,7.000,7.000,0
1782117236.296139,0.641,7.000,7.000,0
1782117236.306032,0.650,7.000,7.000,0
1782117236.318238,0.663,7.000,7.000,0
1782117236.326998,0.671,7.000,7.000,0
1782117236.335630,0.680,7.000,7.000,0
1782117236.347401,0.692,7.000,7.000,0
1782117236.357416,0.702,7.000,7.000,0
1782117236.368474,0.713,7.000,7.000,0
1782117236.375575,0.720,7.000,7.000,0
1782117236.386541,0.731,7.000,7.000,0
1782117236.396904,0.741,7.000,7.000,0
1782117236.405229,0.750,7.000,7.000,0
1782117236.426167,0.771,7.000,7.000,0
1782117236.430190,0.775,7.000,7.000,0
1782117236.437190,0.782,7.000,7.000,0
1782117236.446229,0.791,7.000,7.000,0
1782117236.458124,0.803,7.000,7.000,0
1782117236.466728,0.811,7.000,7.000,0
1782117236.475736,0.820,7.000,7.000,0
1782117236.489439,0.834,7.000,7.000,0
1782117236.495946,0.840,7.000,7.000,0
1782117236.506742,0.851,7.000,7.000,0
1782117236.515547,0.860,7.000,7.000,0
1782117236.531668,0.876,7.000,7.000,0
1782117236.535743,0.880,7.000,7.000,0
1782117236.546265,0.891,7.000,7.000,0
1782117236.563614,0.908,7.000,7.000,0
1782117236.566816,0.911,7.000,7.000,0
1782117236.578026,0.922,7.000,7.000,0
1782117236.584540,0.929,7.000,7.000,0
1782117236.594857,0.939,7.000,7.000,0
1782117236.607534,0.952,7.000,7.000,0
1782117236.614625,0.959,7.000,7.000,0
1782117236.640630,0.985,7.000,7.000,0
1782117236.640630,0.985,7.000,7.000,0
1782117236.645630,0.990,7.000,7.000,0
1782117236.655630,1.000,7.000,7.000,0
1782117236.665632,1.010,7.000,7.000,0
1782117236.676594,1.021,7.000,7.000,0
1782117236.685992,1.030,7.000,7.000,0
1782117236.696313,1.041,7.000,7.000,0
1782117236.705318,1.050,7.000,7.000,0
1782117236.715851,1.060,7.000,7.000,0
1782117236.732339,1.077,7.000,7.000,0
1782117236.736338,1.081,7.000,7.000,0
1782117236.745338,1.090,7.000,7.000,0
1782117236.758771,1.103,7.000,7.000,0
1782117236.766774,1.111,7.000,7.000,0
1782117236.774771,1.119,7.000,7.000,0
1782117236.785804,1.130,7.000,7.000,0
1782117236.798216,1.143,7.000,7.000,0
1782117236.806222,1.151,7.000,7.000,0
1782117236.817732,1.162,7.000,7.000,0
1782117236.825733,1.170,7.000,7.000,0
1782117236.837125,1.182,7.000,7.000,0
1782117236.858661,1.203,7.000,7.000,0
1782117236.859661,1.204,7.000,7.000,0
1782117236.868147,1.213,7.000,7.000,0
1782117236.875986,1.220,7.000,7.000,0
1782117236.884498,1.229,7.000,7.000,0
1782117236.897244,1.242,7.000,7.000,0
1782117236.905213,1.250,7.000,7.000,0
1782117236.918850,1.263,7.000,7.000,0
1782117236.927243,1.272,7.000,7.000,0
1782117236.939698,1.284,7.000,7.000,0
1782117236.946785,1.291,7.000,7.000,0
1782117236.956689,1.301,7.000,7.000,0
1782117236.964789,1.309,7.000,7.000,0
1782117236.976692,1.321,7.000,7.000,0
1782117236.985832,1.330,7.000,7.000,0
1782117236.995939,1.340,7.000,7.000,0
1782117237.005006,1.349,7.000,7.000,0
1782117237.016609,1.361,7.000,7.000,0
1782117237.026023,1.370,7.000,7.000,0
1782117237.042736,1.387,7.000,7.000,0
1782117237.046877,1.391,7.000,7.000,0
1782117237.055728,1.400,7.000,7.000,0
1782117237.070955,1.415,7.000,7.000,0
1782117237.075697,1.420,7.000,7.000,0
1782117237.089038,1.433,7.000,7.000,0
1782117237.097036,1.441,7.000,7.000,0
1782117237.106091,1.451,7.000,7.000,0
1782117237.116630,1.461,7.000,7.000,0
1782117237.125065,1.469,7.000,7.000,0
1782117237.145591,1.490,7.000,7.000,0
1782117237.145591,1.490,7.000,7.000,0
1782117237.156812,1.501,7.000,7.000,0
1782117237.169229,1.514,7.000,7.000,0
1782117237.176113,1.521,7.000,7.000,0
1782117237.195112,1.540,7.000,7.000,0
1782117237.197111,1.542,7.000,7.000,0
1782117237.207291,1.552,7.000,7.000,0
1782117237.216204,1.561,7.000,7.000,0
1782117237.228105,1.573,7.000,7.000,0
1782117237.238107,1.583,7.000,7.000,0
1782117237.246107,1.591,7.000,7.000,0
1782117237.256955,1.601,7.000,7.000,0
1782117237.268287,1.613,7.000,7.000,0
1782117237.282940,1.627,7.000,7.000,0
1782117237.289289,1.634,7.000,7.000,0
1782117237.298311,1.643,7.000,7.000,0
1782117237.305833,1.650,7.000,7.000,0
1782117237.318157,1.663,7.000,7.000,0
1782117237.327871,1.672,7.000,7.000,0
1782117237.337734,1.682,7.000,7.000,0
1782117237.347086,1.692,7.000,7.000,0
1782117237.360683,1.705,7.000,7.000,0
1782117237.364691,1.709,7.000,7.000,0
1782117237.381674,1.726,7.000,7.000,0
1782117237.386497,1.731,7.000,7.000,0
1782117237.395688,1.740,7.000,7.000,0
1782117237.406646,1.751,7.000,7.000,0
1782117237.415165,1.760,7.000,7.000,0
1782117237.425191,1.770,7.000,7.000,0
1782117237.438219,1.783,7.000,7.000,0
1782117237.455275,1.800,7.000,7.000,0
1782117237.455275,1.800,7.000,7.000,0
1782117237.466186,1.811,7.000,7.000,0
1782117237.476218,1.821,7.000,7.000,0
1782117237.485285,1.830,7.000,7.000,0
1782117237.495418,1.840,7.000,7.000,0
1782117237.505419,1.850,7.000,7.000,0
1782117237.517230,1.862,7.000,7.000,0
1782117237.523883,1.868,7.000,7.000,0
1782117237.537956,1.882,7.000,7.000,0
1782117237.556539,1.901,7.000,7.000,0
1782117237.558624,1.903,7.000,7.000,0
1782117237.564901,1.909,7.000,7.000,0
1782117237.578952,1.923,7.000,7.000,0
1782117237.585513,1.930,7.000,7.000,0
1782117237.596868,1.941,7.000,7.000,0
1782117237.606086,1.951,7.000,7.000,0
1782117237.616929,1.961,7.000,7.000,0
1782117237.625505,1.970,7.000,7.000,0
1782117237.636544,1.981,7.000,7.000,0
1782117237.645620,1.990,7.000,7.000,0
1782117237.656502,2.001,7.000,7.000,0
1782117237.665762,2.010,7.000,7.000,0
1782117237.677602,2.022,7.000,7.000,0
1782117237.688502,2.033,7.000,7.000,0
1782117237.694776,2.039,7.000,7.000,0
1782117237.705387,2.050,7.000,7.000,0
1782117237.716069,2.060,7.000,7.000,0
1782117237.726097,2.071,7.000,7.000,0
1782117237.738613,2.083,7.000,7.000,0
1782117237.747255,2.092,7.000,7.000,0
1782117237.758853,2.103,7.000,7.000,0
1782117237.768784,2.113,7.000,7.000,0
1782117237.775373,2.120,7.000,7.000,0
1782117237.789577,2.134,7.000,7.000,0
1782117237.798128,2.143,7.000,7.000,0
1782117237.807272,2.152,7.000,7.000,0
1782117237.815480,2.160,7.000,7.000,0
1782117237.825662,2.170,7.000,7.000,0
1782117237.835471,2.180,7.000,7.000,0
1782117237.845920,2.190,7.000,7.000,0
1782117237.861914,2.206,7.000,7.000,0
1782117237.865413,2.210,7.000,7.000,0
1782117237.876105,2.221,7.000,7.000,0
1782117237.884932,2.229,7.000,7.000,0
1782117237.896040,2.240,7.000,7.000,0
1782117237.906749,2.251,7.000,7.000,0
1782117237.916494,2.261,7.000,7.000,0
1782117237.925640,2.270,7.000,7.000,0
1782117237.935111,2.280,7.000,7.000,0
1782117237.946021,2.290,7.000,7.000,0
1782117237.969152,2.314,7.000,7.000,0
1782117237.969152,2.314,7.000,7.000,0
1782117237.977894,2.322,7.000,7.000,0
1782117237.985910,2.330,7.000,7.000,0
1782117237.997463,2.342,7.000,7.000,0
1782117238.005487,2.350,7.000,7.000,0
1782117238.016866,2.361,7.000,7.000,0
1782117238.027680,2.372,7.000,7.000,0
1782117238.045193,2.390,7.000,7.000,0
1782117238.046180,2.391,7.000,7.000,0
1782117238.055583,2.400,7.000,7.000,0
1782117238.067127,2.412,7.000,7.000,0
1782117238.075405,2.420,7.000,7.000,0
1782117238.088341,2.433,7.000,7.000,0
1782117238.096212,2.441,7.000,7.000,0
1782117238.107664,2.452,7.000,7.000,0
1782117238.116377,2.461,7.000,7.000,0
1782117238.125826,2.470,7.000,7.000,0
1782117238.136159,2.481,7.000,7.000,0
1782117238.146381,2.491,7.000,7.000,0
1782117238.172455,2.517,7.000,7.000,0
1782117238.172455,2.517,7.000,7.000,0
1782117238.176069,2.520,7.000,7.000,0
1782117238.186402,2.531,7.000,7.000,0
1782117238.197230,2.542,7.000,7.000,0
1782117238.206676,2.551,7.000,7.000,0
1782117238.220111,2.565,7.000,7.000,0
1782117238.228232,2.573,7.000,7.000,0
1782117238.236261,2.581,7.000,7.000,0
1782117238.245576,2.590,7.000,7.000,0
1782117238.255027,2.599,7.000,7.000,0
1782117238.271667,2.616,7.000,7.000,0
1782117238.276289,2.621,7.000,7.000,0
1782117238.284999,2.629,7.000,7.000,0
1782117238.302290,2.647,7.000,7.000,0
1782117238.304463,2.649,7.000,7.000,0
1782117238.315817,2.660,7.000,7.000,0
1782117238.325348,2.670,7.000,7.000,0
1782117238.336900,2.681,7.000,7.000,0
1782117238.346107,2.691,7.000,7.000,0
1782117238.356776,2.701,7.000,7.000,0
1782117238.374431,2.719,7.000,7.000,0
1782117238.374431,2.719,7.000,7.000,0
1782117238.387095,2.732,7.000,7.000,0
1782117238.396277,2.741,7.000,7.000,0
1782117238.417718,2.762,7.000,7.000,0
1782117238.417718,2.762,7.000,7.000,0
1782117238.431778,2.776,7.000,7.000,0
1782117238.436297,2.781,7.000,7.000,0
1782117238.446105,2.791,7.000,7.000,0
1782117238.457016,2.801,7.000,7.000,0
1782117238.475422,2.820,7.000,7.000,0
1782117238.477927,2.822,7.000,7.000,0
1782117238.485991,2.830,7.000,7.000,0
1782117238.497014,2.841,7.000,7.000,0
1782117238.516550,2.861,7.000,7.000,0
1782117238.516550,2.861,7.000,7.000,0
1782117238.527290,2.872,7.000,7.000,0
1782117238.537004,2.881,7.000,7.000,0
1782117238.548027,2.892,7.000,7.000,0
1782117238.557479,2.902,7.000,7.000,0
1782117238.566012,2.910,7.000,7.000,0
1782117238.576882,2.921,7.000,7.000,0
1782117238.586559,2.931,7.000,7.000,0
1782117238.598384,2.943,7.000,7.000,0
1782117238.613596,2.958,7.000,7.000,0
1782117238.615107,2.960,7.000,7.000,0
1782117238.625557,2.970,7.000,7.000,0
1782117238.635911,2.980,7.000,7.000,0
1782117238.644974,2.989,7.000,7.000,0
1782117238.656682,3.001,7.000,7.000,0
1782117238.666699,3.011,7.000,7.000,0
1782117238.679724,3.024,7.000,7.000,0
1782117238.685308,3.030,7.000,7.000,0
1782117238.716403,3.061,7.000,7.000,0
1782117238.716403,3.061,7.000,7.000,0
1782117238.716403,3.061,7.000,7.000,0
1782117238.725921,3.070,7.000,7.000,0
1782117238.736956,3.081,7.000,7.000,0
1782117238.748180,3.093,7.000,7.000,0
1782117238.758881,3.103,7.000,7.000,0
1782117238.766390,3.111,7.000,7.000,0
1782117238.781921,3.126,7.000,7.000,0
1782117238.785439,3.130,7.000,7.000,0
1782117238.796196,3.141,7.000,7.000,0
1782117238.807240,3.152,7.000,7.000,0
1782117238.815567,3.160,7.000,7.000,0
1782117238.824592,3.169,7.000,7.000,0
1782117238.836651,3.181,7.000,7.000,0
1782117238.846674,3.191,7.000,7.000,0
1782117238.857281,3.202,7.000,7.000,0
1782117238.870431,3.215,7.000,7.000,0
1782117238.884413,3.229,7.000,7.000,0
1782117238.886924,3.231,7.000,7.000,0
1782117238.894432,3.239,7.000,7.000,0
1782117238.908241,3.253,7.000,7.000,0
1782117238.916764,3.261,7.000,7.000,0
1782117238.925248,3.270,7.000,7.000,0
1782117238.936980,3.281,7.000,7.000,0
1782117238.948004,3.292,7.000,7.000,0
1782117238.956465,3.301,7.000,7.000,0
1782117238.976587,3.321,7.000,7.000,0
1782117238.976587,3.321,7.000,7.000,0
1782117238.987573,3.332,7.000,7.000,0
1782117239.123107,3.468,7.000,7.000,0
1782117239.123107,3.468,7.000,7.000,0
1782117239.123107,3.468,7.000,7.000,0
1782117239.124093,3.469,7.000,7.000,0
1782117239.124093,3.469,7.000,7.000,0
1782117239.124093,3.469,7.000,7.000,0
1782117239.124093,3.469,7.000,7.000,0
1782117239.125096,3.470,7.000,7.000,0
1782117239.125096,3.470,7.000,7.000,0
1782117239.125096,3.470,7.000,7.000,0
1782117239.125096,3.470,7.000,7.000,0
1782117239.126104,3.471,7.000,7.000,0
1782117239.126104,3.471,7.000,7.000,0
1782117239.126104,3.471,7.000,7.000,0
1782117239.135075,3.480,7.000,7.000,0
1782117239.147305,3.492,7.000,7.000,0
1782117239.155617,3.500,7.000,7.000,0
1782117239.166635,3.511,7.000,7.000,0
1782117239.177654,3.522,7.000,7.000,0
1782117239.190221,3.535,7.000,7.000,0
1782117239.196357,3.541,7.000,7.000,0
1782117239.205170,3.550,7.000,7.000,0
1782117239.217211,3.562,7.000,7.000,0
1782117239.225787,3.570,7.000,7.000,0
1782117239.236941,3.581,7.000,7.000,0
1782117239.245578,3.590,7.000,7.000,0
1782117239.256397,3.601,7.000,7.000,0
1782117239.270925,3.615,7.000,7.000,0
1782117239.276439,3.621,7.000,7.000,0
1782117239.296940,3.641,7.000,7.000,0
1782117239.298446,3.643,7.000,7.000,0
1782117239.305968,3.650,7.000,7.000,0
1782117239.317587,3.662,7.000,7.000,0
1782117239.326097,3.671,7.000,7.000,0
1782117239.336083,3.681,7.000,7.000,0
1782117239.349107,3.694,7.000,7.000,0
1782117239.357855,3.702,7.000,7.000,0
1782117239.365366,3.710,7.000,7.000,0
1782117239.376728,3.721,7.000,7.000,0
1782117239.386506,3.731,7.000,7.000,0
1782117239.396872,3.741,7.000,7.000,0
1782117239.405070,3.749,7.000,7.000,0
1782117239.417217,3.762,7.000,7.000,0
1782117239.428239,3.773,7.000,7.000,0
1782117239.434752,3.779,7.000,7.000,0
1782117239.444777,3.789,7.000,7.000,0
1782117239.456317,3.801,7.000,7.000,0
1782117239.464896,3.809,7.000,7.000,0
1782117239.476567,3.821,7.000,7.000,0
1782117239.484839,3.829,7.000,7.000,0
1782117239.501038,3.845,7.000,7.000,0
1782117239.505235,3.850,7.000,7.000,0
1782117239.516332,3.861,7.000,7.000,0
1782117239.527698,3.872,7.000,7.000,0
1782117239.535211,3.880,7.000,7.000,0
1782117239.545593,3.890,7.000,7.000,0
1782117239.555920,3.900,7.000,7.000,0
1782117239.565431,3.910,7.000,7.000,0
1782117239.576585,3.921,7.000,7.000,0
1782117239.586000,3.930,7.000,7.000,0
1782117239.600479,3.945,7.000,7.000,0
1782117239.604783,3.949,7.000,7.000,0
1782117239.616325,3.961,7.000,7.000,0
1782117239.625977,3.970,7.000,7.000,0
1782117239.635978,3.980,7.000,7.000,0
1782117239.645975,3.990,7.000,7.000,0
1782117239.655977,4.000,7.000,7.000,0
1782117239.668977,4.013,7.000,7.000,0
1782117239.675429,4.020,7.000,7.000,0
1782117239.687549,4.032,7.000,7.000,0
1782117239.697549,4.042,7.000,7.000,0
1782117239.707992,4.052,7.000,7.000,0
1782117239.716881,4.061,7.000,7.000,0
1782117239.727205,4.072,7.000,7.000,0
1782117239.737211,4.082,7.000,7.000,0
1782117239.754169,4.099,7.000,7.000,0
1782117239.759231,4.104,7.000,7.000,0
1782117239.765232,4.110,7.000,7.000,0
1782117239.778233,4.123,7.000,7.000,0
1782117239.785325,4.130,7.000,7.000,0
1782117239.796005,4.140,7.000,7.000,0
1782117239.805309,4.150,7.000,7.000,0
1782117239.817308,4.162,7.000,7.000,0
1782117239.827307,4.172,7.000,7.000,0
1782117239.840310,4.185,7.000,7.000,0
1782117239.846135,4.191,7.000,7.000,0
1782117239.856528,4.201,7.000,7.000,0
1782117239.867536,4.212,7.000,7.000,0
1782117239.879571,4.224,7.000,7.000,0
1782117239.886236,4.231,7.000,7.000,0
1782117239.896246,4.241,7.000,7.000,0
1782117239.939868,4.284,7.000,7.000,0
1782117239.939868,4.284,7.000,7.000,0
1782117239.939868,4.284,7.000,7.000,0
1782117239.940970,4.285,7.000,7.000,0
1782117239.947878,4.292,7.000,7.000,0
1782117239.956883,4.301,7.000,7.000,0
1782117239.967994,4.312,7.000,7.000,0
1782117239.976879,4.321,7.000,7.000,0
1782117239.986054,4.330,7.000,7.000,0
1782117239.996657,4.341,7.000,7.000,0
1782117240.017558,4.362,7.000,7.000,0
1782117240.022556,4.367,7.000,7.000,0
1782117240.026559,4.371,7.000,7.000,0
1782117240.037248,4.382,7.000,7.000,0
1782117240.051912,4.396,7.000,7.000,0
1782117240.078147,4.423,7.000,7.000,0
1782117240.078147,4.423,7.000,7.000,0
1782117240.078147,4.423,7.000,7.000,0
1782117240.092093,4.437,7.000,7.000,0
1782117240.097032,4.441,7.000,7.000,0
1782117240.107446,4.452,7.000,7.000,0
1782117240.116268,4.461,7.000,7.000,0
1782117240.125171,4.470,7.000,7.000,0
1782117240.136175,4.481,7.000,7.000,0
1782117240.146820,4.491,7.000,7.000,0
1782117240.155882,4.500,7.000,7.000,0
1782117240.165857,4.510,7.000,7.000,0
1782117240.177717,4.522,7.000,7.000,0
1782117240.186321,4.531,7.000,7.000,0
1782117240.196323,4.541,7.000,7.000,0
1782117240.209739,4.554,7.000,7.000,0
1782117240.221208,4.566,7.000,7.000,0
1782117240.225137,4.570,7.000,7.000,0
1782117240.238331,4.583,7.000,7.000,0
1782117240.246033,4.590,7.000,7.000,0
1782117240.256444,4.601,7.000,7.000,0
1782117240.265855,4.610,7.000,7.000,0
1782117240.275339,4.620,7.000,7.000,0
1782117240.286169,4.631,7.000,7.000,0
1782117240.298608,4.643,7.000,7.000,0
1782117240.306783,4.651,7.000,7.000,0
1782117240.318122,4.663,7.000,7.000,0
1782117240.324354,4.669,7.000,7.000,0
1782117240.335472,4.680,7.000,7.000,0
1782117240.351343,4.696,7.000,7.000,0
1782117240.355360,4.700,7.000,7.000,0
1782117240.364859,4.709,7.000,7.000,0
1782117240.375053,4.719,7.000,7.000,0
1782117240.384891,4.729,7.000,7.000,0
1782117240.395383,4.740,7.000,7.000,0
1782117240.406347,4.751,7.000,7.000,0
1782117240.421306,4.766,7.000,7.000,0
1782117240.425289,4.770,7.000,7.000,0
1782117240.435399,4.780,7.000,7.000,0
1782117240.454111,4.799,7.000,7.000,0
1782117240.456397,4.801,7.000,7.000,0
1782117240.465948,4.810,7.000,7.000,0
1782117240.475623,4.820,7.000,7.000,0
1782117240.485698,4.830,7.000,7.000,0
1782117240.495812,4.840,7.000,7.000,0
1782117240.505991,4.850,7.000,7.000,0
1782117240.523097,4.868,7.000,7.000,0
1782117240.525202,4.870,7.000,7.000,0
1782117240.536241,4.881,7.000,7.000,0
1782117240.552352,4.897,7.000,7.000,0
1782117240.555634,4.900,7.000,7.000,0
1782117240.567284,4.912,7.000,7.000,0
1782117240.576991,4.921,7.000,7.000,0
1782117240.586486,4.931,7.000,7.000,0
1782117240.596468,4.941,7.000,7.000,0
1782117240.606510,4.951,7.000,7.000,0
1782117240.618654,4.963,7.000,7.000,0
1782117240.625605,4.970,7.000,7.000,0
1782117240.638196,4.983,7.000,7.000,0
1782117240.647968,4.992,7.000,7.000,0
1782117240.656077,5.001,7.000,7.000,0
1782117240.666421,5.011,7.000,7.000,0
1782117240.676223,5.021,7.000,7.000,0
1782117240.684689,5.029,7.000,7.000,0
1782117240.695004,5.039,7.000,7.000,0
1782117240.704833,5.049,7.000,7.000,0
1782117240.717251,5.062,7.000,7.000,0
1782117240.729706,5.074,7.000,7.000,0
1782117240.735431,5.080,7.000,7.000,0
1782117240.744858,5.089,7.000,7.000,0
1782117240.762032,5.106,7.000,7.000,0
1782117240.765035,5.109,7.000,7.000,0
1782117240.777460,5.122,7.000,7.000,0
1782117240.787881,5.132,7.000,7.000,0
1782117240.796585,5.141,7.000,7.000,0
1782117240.806010,5.150,7.000,7.000,0
1782117240.816323,5.161,7.000,7.000,0
1782117240.844304,5.189,7.000,7.000,0
1782117240.845905,5.190,7.000,7.000,0
1782117240.847011,5.191,7.000,7.000,0
1782117240.864134,5.209,7.000,7.000,0
1782117240.867143,5.212,7.000,7.000,0
1782117240.876569,5.221,7.000,7.000,0
1782117240.889025,5.233,7.000,7.000,0
1782117240.895725,5.240,7.000,7.000,0
1782117240.906166,5.251,7.000,7.000,0
1782117240.916515,5.261,7.000,7.000,0
1782117240.934547,5.279,7.000,7.000,0
1782117240.935801,5.280,7.000,7.000,0
1782117240.944501,5.289,7.000,7.000,0
1782117240.958654,5.303,7.000,7.000,0
1782117240.965113,5.310,7.000,7.000,0
1782117240.976010,5.320,7.000,7.000,0
1782117240.986362,5.331,7.000,7.000,0
1782117240.995783,5.340,7.000,7.000,0
1782117241.006084,5.351,7.000,7.000,0
1782117241.016894,5.361,7.000,7.000,0
1782117241.035617,5.380,7.000,7.000,0
1782117241.038615,5.383,7.000,7.000,0
1782117241.047700,5.392,7.000,7.000,0
1782117241.057784,5.402,7.000,7.000,0
1782117241.065830,5.410,7.000,7.000,0
1782117241.075902,5.420,7.000,7.000,0
1782117241.086312,5.431,7.000,7.000,0
1782117241.098727,5.443,7.000,7.000,0
1782117241.105423,5.450,7.000,7.000,0
1782117241.116859,5.461,7.000,7.000,0
1782117241.126197,5.471,7.000,7.000,0
1782117241.137009,5.481,7.000,7.000,0
1782117241.145458,5.490,7.000,7.000,0
1782117241.163273,5.508,7.000,7.000,0
1782117241.168589,5.513,7.000,7.000,0
1782117241.174906,5.519,7.000,7.000,0
1782117241.188440,5.533,7.000,7.000,0
1782117241.195154,5.540,7.000,7.000,0
1782117241.207586,5.552,7.000,7.000,0
1782117241.217029,5.561,7.000,7.000,0
1782117241.224740,5.569,7.000,7.000,0
1782117241.239786,5.584,7.000,7.000,0
1782117241.246299,5.591,7.000,7.000,0
1782117241.257935,5.602,7.000,7.000,0
1782117241.268763,5.613,7.000,7.000,0
1782117241.276192,5.621,7.000,7.000,0
1782117241.285911,5.630,7.000,7.000,0
1782117241.295330,5.640,7.000,7.000,0
1782117241.305520,5.650,7.000,7.000,0
1782117241.316348,5.661,7.000,7.000,0
1782117241.329296,5.674,7.000,7.000,0
1782117241.344526,5.689,7.000,7.000,0
1782117241.347128,5.692,7.000,7.000,0
1782117241.355937,5.700,7.000,7.000,0
1782117241.368368,5.713,7.000,7.000,0
1782117241.376088,5.721,7.000,7.000,0
1782117241.385529,5.730,7.000,7.000,0
1782117241.400527,5.745,7.000,7.000,0
1782117241.412329,5.757,7.000,7.000,0
1782117241.416051,5.760,7.000,7.000,0
1782117241.426479,5.771,7.000,7.000,0
1782117241.444614,5.789,7.000,7.000,0
1782117241.444614,5.789,7.000,7.000,0
1782117241.454955,5.799,7.000,7.000,0
1782117241.466995,5.811,7.000,7.000,0
1782117241.482961,5.827,7.000,7.000,0
1782117241.485590,5.830,7.000,7.000,0
1782117241.495396,5.840,7.000,7.000,0
1782117241.505862,5.850,7.000,7.000,0
1782117241.516276,5.861,7.000,7.000,0
1782117241.524992,5.869,7.000,7.000,0
1782117241.536408,5.881,7.000,7.000,0
1782117241.546838,5.891,7.000,7.000,0
1782117241.559257,5.904,7.000,7.000,0
1782117241.570695,5.915,7.000,7.000,0
1782117241.580042,5.924,7.000,7.000,0
1782117241.587875,5.932,7.000,7.000,0
1782117241.594579,5.939,7.000,7.000,0
1782117241.604952,5.949,7.000,7.000,0
1782117241.615708,5.960,7.000,7.000,0
1782117241.626117,5.971,7.000,7.000,0
1782117241.634244,5.979,7.000,7.000,0
1782117241.657274,6.002,7.000,7.000,0
1782117241.657812,6.002,7.000,7.000,0
1782117241.666098,6.011,7.000,7.000,0
1782117241.678549,6.023,7.000,7.000,0
1782117241.685265,6.030,7.000,7.000,0
1782117241.695590,6.040,7.000,7.000,0
1782117241.705014,6.049,7.000,7.000,0
1782117241.717458,6.062,7.000,7.000,0
1782117241.726270,6.071,8.200,7.000,1
1782117241.736690,6.081,8.200,7.000,1
1782117241.751141,6.096,8.200,7.000,1
1782117241.754841,6.099,8.200,7.000,1
1782117241.765156,6.110,8.200,7.001,1
1782117241.775994,6.120,8.200,7.003,1
1782117241.785419,6.130,8.200,7.008,1
1782117241.795847,6.140,8.200,7.011,1
1782117241.807281,6.152,8.200,7.017,1
1782117241.816008,6.160,8.200,7.022,1
1782117241.827414,6.172,8.200,7.030,1
1782117241.836835,6.181,8.200,7.041,1
1782117241.848217,6.193,8.200,7.048,1
1782117241.858583,6.203,8.200,7.061,1
1782117241.866349,6.211,8.200,7.070,1
1782117241.877692,6.222,8.200,7.084,1
1782117241.885512,6.230,8.200,7.100,1
1782117241.895588,6.240,8.200,7.112,1
1782117241.905626,6.250,8.200,7.131,1
1782117241.916040,6.260,8.200,7.144,1
1782117241.929457,6.274,8.200,7.163,1
1782117241.936151,6.281,8.200,7.178,1
1782117241.945569,6.290,8.200,7.201,1
1782117241.958001,6.302,8.200,7.217,1
1782117241.966725,6.311,8.200,7.243,1
1782117241.989979,6.334,8.200,7.243,1
1782117241.991485,6.336,8.200,7.287,1
1782117241.996113,6.341,8.200,7.316,1
1782117242.005705,6.350,8.200,7.337,1
1782117242.015741,6.360,8.200,7.368,1
1782117242.025429,6.370,8.200,7.391,1
1782117242.040868,6.385,8.200,7.424,1
1782117242.045452,6.390,8.200,7.445,1
1782117242.061139,6.406,8.200,7.482,1
1782117242.065147,6.410,8.200,7.507,1
1782117242.074723,6.419,8.200,7.546,1
1782117242.087754,6.432,8.200,7.583,1
1782117242.098817,6.443,8.200,7.610,1
1782117242.105334,6.450,8.200,7.650,1
1782117242.115057,6.459,8.200,7.676,1
1782117242.126095,6.471,8.200,7.715,1
1782117242.136471,6.481,8.200,7.739,1
1782117242.148399,6.493,8.200,7.772,1
1782117242.161091,6.506,8.200,7.794,1
1782117242.165100,6.510,8.200,7.828,1
1782117242.175428,6.520,8.200,7.849,1
1782117242.184921,6.529,8.200,7.879,1
1782117242.195688,6.540,8.200,7.907,1
1782117242.204949,6.549,8.200,7.924,1
1782117242.214589,6.559,8.200,7.951,1
1782117242.225621,6.570,8.200,7.968,1
1782117242.236753,6.581,8.200,7.993,1
1782117242.245326,6.590,8.200,8.015,1
1782117242.262692,6.607,8.200,8.030,1
1782117242.267156,6.612,8.200,8.051,1
1782117242.276962,6.621,8.200,8.065,1
1782117242.287530,6.632,8.200,8.084,1
1782117242.295601,6.640,8.200,8.095,1
1782117242.315288,6.660,8.200,8.111,1
1782117242.317287,6.662,8.200,8.121,1
1782117242.324622,6.669,8.200,8.135,1
1782117242.340146,6.685,8.200,8.144,1
1782117242.346864,6.691,8.200,8.156,1
1782117242.355291,6.700,8.200,8.166,1
1782117242.365614,6.710,8.200,8.171,1
1782117242.375427,6.720,8.200,8.179,1
1782117242.478586,6.823,8.200,8.184,1
1782117242.537698,6.882,8.200,8.190,1
1782117242.537698,6.882,8.200,8.192,1
1782117242.538685,6.883,8.200,8.196,1
1782117242.538685,6.883,8.200,8.197,1
1782117242.539694,6.884,8.200,8.198,1
1782117242.539694,6.884,8.200,8.198,1
1782117242.540686,6.885,8.200,8.198,1
1782117242.540686,6.885,8.200,8.198,1
1782117242.540686,6.885,8.200,8.198,1
1782117242.541702,6.886,8.200,8.198,1
1782117242.542307,6.887,8.200,8.199,1
1782117242.542307,6.887,8.200,8.199,1
1782117242.543406,6.888,8.200,8.199,1
1782117242.543406,6.888,7.000,8.199,0
1782117242.544411,6.889,7.000,8.199,0
1782117242.546410,6.891,7.000,8.199,0
1782117242.555830,6.900,7.000,8.199,0
1782117242.569235,6.914,7.000,8.198,0
1782117242.576571,6.921,7.000,8.197,0
1782117242.585387,6.930,7.000,8.194,0
1782117242.596379,6.941,7.000,8.189,0
1782117242.605542,6.950,7.000,8.185,0
1782117242.614951,6.959,7.000,8.178,0
1782117242.624950,6.969,7.000,8.171,0
1782117242.637955,6.982,7.000,8.164,0
1782117242.646964,6.991,7.000,8.152,0
1782117242.656964,7.001,7.000,8.144,0
1782117242.672961,7.017,7.000,8.131,0
1782117242.676957,7.021,7.000,8.121,0
1782117242.684958,7.029,7.000,8.105,0
1782117242.697951,7.042,7.000,8.094,0
1782117242.704957,7.049,7.000,8.075,0
1782117242.723969,7.068,7.000,8.063,0
1782117242.725974,7.070,7.000,8.042,0
1782117242.735950,7.080,7.000,8.028,0
1782117242.745955,7.090,7.000,8.006,0
1782117242.761955,7.106,7.000,7.982,0
1782117242.766958,7.111,7.000,7.964,0
1782117242.780971,7.125,7.000,7.938,0
1782117242.784858,7.129,7.000,7.920,0
1782117242.797859,7.142,7.000,7.893,0
1782117242.808860,7.153,7.000,7.873,0
1782117242.815973,7.160,7.000,7.840,0
1782117242.826956,7.171,7.000,7.818,0
1782117242.837861,7.182,7.000,7.785,0
1782117242.846874,7.191,7.000,7.755,0
1782117242.856942,7.201,7.000,7.731,0
1782117242.867779,7.212,7.000,7.694,0
1782117242.878640,7.223,7.000,7.668,0
1782117242.888562,7.233,7.000,7.627,0
1782117242.896078,7.241,7.000,7.600,0
1782117242.908176,7.253,7.000,7.562,0
1782117242.920528,7.265,7.000,7.523,0
1782117242.926588,7.271,7.000,7.498,0
1782117242.936777,7.281,7.000,7.461,0
1782117242.945923,7.290,7.000,7.438,0
1782117242.955327,7.300,7.000,7.406,0
1782117242.965536,7.310,7.000,7.384,0
1782117242.981570,7.326,7.000,7.351,0
1782117242.984848,7.329,7.000,7.330,0
1782117242.995395,7.340,7.000,7.299,0
1782117243.009558,7.354,7.000,7.271,0
1782117243.015491,7.360,7.000,7.255,0
1782117243.025830,7.370,7.000,7.229,0
1782117243.035626,7.380,7.000,7.213,0
1782117243.046295,7.391,7.000,7.189,0
1782117243.055929,7.400,7.000,7.189,0
1782117243.066866,7.411,7.000,7.153,0
1782117243.087102,7.432,7.000,7.140,0
1782117243.088170,7.433,7.000,7.120,0
1782117243.096115,7.441,7.000,7.108,0
1782117243.105120,7.450,7.000,7.093,0
1782117243.116738,7.461,7.000,7.079,0
1782117243.126358,7.471,7.000,7.069,0
1782117243.137357,7.482,7.000,7.056,0
1782117243.145354,7.490,7.000,7.048,0
1782117243.156000,7.500,7.000,7.037,0
1782117243.167155,7.512,7.000,7.028,0
1782117243.175565,7.520,7.000,7.023,0
1782117243.186581,7.531,7.000,7.016,0
1782117243.195469,7.540,7.000,7.012,0
1782117243.210603,7.555,7.000,7.007,0
1782117243.219469,7.564,7.000,7.004,0
1782117243.224892,7.569,7.000,7.002,0
1782117243.237069,7.581,7.000,7.001,0
1782117243.246953,7.591,7.000,7.000,0
1782117243.258419,7.603,7.000,7.000,0
1782117243.264912,7.609,7.000,7.001,0
1782117243.277634,7.622,7.000,7.000,0
1782117243.288893,7.633,7.000,7.001,0
1782117243.295442,7.640,7.000,7.000,0
1782117243.305118,7.650,7.000,7.000,0
1782117243.320089,7.665,7.000,7.000,0
1782117243.326590,7.671,7.000,7.000,0
1782117243.336456,7.681,7.000,7.000,0
1782117243.346696,7.691,7.000,7.000,0
1782117243.355589,7.700,7.000,7.000,0
1782117243.365356,7.710,7.000,7.000,0
1782117243.374777,7.719,7.000,7.000,0
1782117243.389204,7.734,7.000,7.000,0
1782117243.395083,7.740,7.000,7.000,0
1782117243.406267,7.751,7.000,7.000,0
1782117243.415451,7.760,7.000,7.000,0
1782117243.424966,7.769,7.000,7.000,0
1782117243.437019,7.781,7.000,7.000,0
1782117243.445267,7.790,7.000,7.000,0
1782117243.456316,7.801,7.000,7.000,0
1782117243.466488,7.811,7.000,7.000,0
1782117243.476811,7.821,7.000,7.000,0
1782117243.495804,7.840,7.000,7.000,0
1782117243.495804,7.840,7.000,7.000,0
1782117243.505688,7.850,7.000,7.000,0
1782117243.522875,7.867,7.000,7.000,0
1782117243.525816,7.870,7.000,7.000,0
1782117243.535950,7.880,7.000,7.000,0
1782117243.545637,7.890,7.000,7.000,0
1782117243.555259,7.900,7.000,7.000,0
1782117243.566357,7.911,7.000,7.000,0
1782117243.579525,7.924,7.000,7.000,0
1782117243.595931,7.940,7.000,7.000,0
1782117243.595931,7.940,7.000,7.000,0
1782117243.605792,7.950,7.000,7.000,0
1782117243.617629,7.962,7.000,7.000,0
1782117243.628642,7.973,7.000,7.000,0
1782117243.636318,7.981,7.000,7.000,0
1782117243.645946,7.990,7.000,7.000,0
1782117243.657233,8.002,7.000,7.000,0
1782117243.665870,8.010,7.000,7.000,0
1782117243.678478,8.023,7.000,7.000,0
1782117243.686942,8.031,7.000,7.000,0
1782117243.698675,8.043,7.000,7.000,0
1782117243.705257,8.050,7.000,7.000,0
1782117243.715037,8.059,7.000,7.000,0
1782117243.730492,8.075,7.000,7.000,0
1782117243.736272,8.081,7.000,7.000,0
1782117243.746325,8.091,7.000,7.000,0
1782117243.757694,8.102,7.000,7.000,0
1782117243.766301,8.111,7.000,7.000,0
1782117243.777369,8.122,7.000,7.000,0
1782117243.785819,8.130,7.000,7.000,0
1782117243.804133,8.149,7.000,7.000,0
1782117243.805125,8.150,7.000,7.000,0
1782117243.816519,8.161,7.000,7.000,0
1782117243.829011,8.173,7.000,7.000,0
1782117243.838590,8.183,7.000,7.000,0
1782117243.845104,8.190,7.000,7.000,0
1782117243.857651,8.202,7.000,7.000,0
1782117243.867955,8.212,7.000,7.000,0
1782117243.878138,8.223,7.000,7.000,0
1782117243.885780,8.230,7.000,7.000,0
1782117243.905601,8.250,7.000,7.000,0
1782117243.905601,8.250,7.000,7.000,0
1782117243.915203,8.260,7.000,7.000,0
1782117243.924617,8.269,7.000,7.000,0
1782117243.936094,8.281,7.000,7.000,0
1782117243.945885,8.290,7.000,7.000,0
1782117243.956397,8.301,7.000,7.000,0
1782117243.965777,8.310,7.000,7.000,0
1782117243.977775,8.322,7.000,7.000,0
1782117243.987025,8.331,7.000,7.000,0
1782117244.010230,8.355,7.000,7.000,0
1782117244.010230,8.355,7.000,7.000,0
1782117244.015740,8.360,7.000,7.000,0
1782117244.029286,8.374,7.000,7.000,0
1782117244.034688,8.379,7.000,7.000,0
1782117244.046845,8.391,7.000,7.000,0
1782117244.056892,8.401,7.000,7.000,0
1782117244.064470,8.409,7.000,7.000,0
1782117244.075506,8.420,7.000,7.000,0
1782117244.086308,8.431,7.000,7.000,0
1782117244.097160,8.442,7.000,7.000,0
1782117244.108510,8.453,7.000,7.000,0
1782117244.115708,8.460,7.000,7.000,0
1782117244.126448,8.471,7.000,7.000,0
1782117244.139185,8.484,7.000,7.000,0
1782117244.146763,8.491,7.000,7.000,0
1782117244.159134,8.504,7.000,7.000,0
1782117244.165668,8.510,7.000,7.000,0
1782117244.175520,8.520,7.000,7.000,0
1782117244.185034,8.529,7.000,7.000,0
1782117244.199351,8.544,7.000,7.000,0
1782117244.210399,8.555,7.000,7.000,0
1782117244.215923,8.560,7.000,7.000,0
1782117244.225440,8.570,7.000,7.000,0
1782117244.238893,8.583,7.000,7.000,0
1782117244.244401,8.589,7.000,7.000,0
1782117244.256576,8.601,7.000,7.000,0
1782117244.266346,8.611,7.000,7.000,0
1782117244.277751,8.622,7.000,7.000,0
1782117244.287088,8.632,7.000,7.000,0
1782117244.297105,8.642,7.000,7.000,0
1782117244.312117,8.657,7.000,7.000,0
1782117244.318163,8.663,7.000,7.000,0
1782117244.325695,8.670,7.000,7.000,0
1782117244.335739,8.680,7.000,7.000,0
1782117244.346650,8.691,7.000,7.000,0
1782117244.365123,8.710,7.000,7.000,0
1782117244.366123,8.711,7.000,7.000,0
1782117244.377152,8.722,7.000,7.000,0
1782117244.387362,8.732,7.000,7.000,0
1782117244.395877,8.740,7.000,7.000,0
1782117244.425738,8.770,7.000,7.000,0
1782117244.425738,8.770,7.000,7.000,0
1782117244.426744,8.771,7.000,7.000,0
1782117244.437789,8.782,7.000,7.000,0
1782117244.447444,8.792,7.000,7.000,0
1782117244.457640,8.802,7.000,7.000,0
1782117244.465402,8.810,7.000,7.000,0
1782117244.476022,8.820,7.000,7.000,0
1782117244.486058,8.830,7.000,7.000,0
1782117244.497121,8.842,7.000,7.000,0
1782117244.506811,8.851,7.000,7.000,0
1782117244.519943,8.864,7.000,7.000,0
1782117244.526096,8.871,7.000,7.000,0
1782117244.539634,8.884,7.000,7.000,0
1782117244.548174,8.893,7.000,7.000,0
1782117244.554671,8.899,7.000,7.000,0
1782117244.565294,8.910,7.000,7.000,0
1782117244.575312,8.920,7.000,7.000,0
1782117244.585359,8.930,7.000,7.000,0
1782117244.596391,8.941,7.000,7.000,0
1782117244.607406,8.952,7.000,7.000,0
1782117244.620281,8.965,7.000,7.000,0
1782117244.625792,8.970,7.000,7.000,0
1782117244.635644,8.980,7.000,7.000,0
1782117244.648603,8.993,7.000,7.000,0
1782117244.656118,9.001,7.000,7.000,0
1782117244.666906,9.011,7.000,7.000,0
1782117244.678936,9.023,7.000,7.000,0
1782117244.686980,9.031,7.000,7.000,0
1782117244.697574,9.042,7.000,7.000,0
1782117244.705639,9.050,7.000,7.000,0
1782117244.720166,9.065,7.000,7.000,0
1782117244.724984,9.069,7.000,7.000,0
1782117244.737885,9.082,7.000,7.000,0
1782117244.751950,9.096,7.000,7.000,0
1782117244.755466,9.100,7.000,7.000,0
1782117244.765576,9.110,7.000,7.000,0
1782117244.777101,9.122,7.000,7.000,0
1782117244.785563,9.130,7.000,7.000,0
1782117244.797343,9.142,7.000,7.000,0
1782117244.806469,9.151,7.000,7.000,0
1782117244.824836,9.169,7.000,7.000,0
1782117244.824836,9.169,7.000,7.000,0
1782117244.840781,9.185,7.000,7.000,0
1782117244.857357,9.202,7.000,7.000,0
1782117244.858356,9.203,7.000,7.000,0
1782117244.875257,9.220,7.000,7.000,0
1782117244.877755,9.222,7.000,7.000,0
1782117244.889184,9.234,7.000,7.000,0
1782117244.896304,9.241,7.000,7.000,0
1782117244.906872,9.251,7.000,7.000,0
1782117244.916093,9.261,7.000,7.000,0
1782117244.929335,9.274,7.000,7.000,0
1782117244.937680,9.282,7.000,7.000,0
1782117244.946933,9.291,7.000,7.000,0
1782117244.957862,9.302,7.000,7.000,0
1782117244.966932,9.311,7.000,7.000,0
1782117244.975401,9.320,7.000,7.000,0
1782117244.986530,9.331,7.000,7.000,0
1782117244.994636,9.339,7.000,7.000,0
1782117245.006884,9.351,7.000,7.000,0
1782117245.016944,9.361,7.000,7.000,0
1782117245.029746,9.374,7.000,7.000,0
1782117245.035267,9.380,7.000,7.000,0
1782117245.049040,9.393,7.000,7.000,0
1782117245.058199,9.403,7.000,7.000,0
1782117245.066319,9.411,7.000,7.000,0
1782117245.075109,9.420,7.000,7.000,0
1782117245.085919,9.430,7.000,7.000,0
1782117245.095553,9.440,7.000,7.000,0
1782117245.107928,9.452,7.000,7.000,0
1782117245.116436,9.461,7.000,7.000,0
1782117245.271329,9.616,7.000,7.000,0
1782117245.272216,9.617,7.000,7.000,0
1782117245.272216,9.617,7.000,7.000,0
1782117245.272216,9.617,7.000,7.000,0
1782117245.272722,9.617,7.000,7.000,0
1782117245.272722,9.617,7.000,7.000,0
1782117245.272722,9.617,7.000,7.000,0
1782117245.272722,9.617,7.000,7.000,0
1782117245.273729,9.618,7.000,7.000,0
1782117245.273729,9.618,7.000,7.000,0
1782117245.273729,9.618,7.000,7.000,0
1782117245.273729,9.618,7.000,7.000,0
1782117245.273729,9.618,7.000,7.000,0
1782117245.273729,9.618,7.000,7.000,0
1782117245.274731,9.619,7.000,7.000,0
1782117245.275729,9.620,7.000,7.000,0
1782117245.285908,9.630,7.000,7.000,0
1782117245.295085,9.640,7.000,7.000,0
1782117245.305459,9.650,7.000,7.000,0
1782117245.315784,9.660,7.000,7.000,0
1782117245.325870,9.670,7.000,7.000,0
1782117245.339375,9.684,7.000,7.000,0
1782117245.346613,9.691,7.000,7.000,0
1782117245.361562,9.706,7.000,7.000,0
1782117245.366051,9.710,7.000,7.000,0
1782117245.378260,9.723,7.000,7.000,0
1782117245.386447,9.731,7.000,7.000,0
1782117245.396516,9.741,7.000,7.000,0
1782117245.407309,9.752,7.000,7.000,0
1782117245.418356,9.763,7.000,7.000,0
1782117245.427049,9.771,7.000,7.000,0
1782117245.439077,9.784,7.000,7.000,0
1782117245.446591,9.791,7.000,7.000,0
1782117245.455033,9.799,7.000,7.000,0
1782117245.469788,9.814,7.000,7.000,0
1782117245.475031,9.819,7.000,7.000,0
1782117245.484837,9.829,7.000,7.000,0
1782117245.495814,9.840,7.000,7.000,0
1782117245.506583,9.851,7.000,7.000,0
1782117245.516556,9.861,7.000,7.000,0
1782117245.527579,9.872,7.000,7.000,0
1782117245.540107,9.885,7.000,7.000,0
1782117245.546392,9.891,7.000,7.000,0
1782117245.555906,9.900,7.000,7.000,0
1782117245.565930,9.910,7.000,7.000,0
1782117245.576472,9.921,7.000,7.000,0
1782117245.585967,9.930,7.000,7.000,0
1782117245.595483,9.940,7.000,7.000,0
1782117245.605505,9.950,7.000,7.000,0
1782117245.615598,9.960,7.000,7.000,0
1782117245.626852,9.971,7.000,7.000,0
1782117245.644922,9.989,7.000,7.000,0
1782117245.648916,9.993,7.000,7.000,0
1782117245.655421,10.000,7.000,7.000,0
1782117245.667397,10.012,7.000,7.000,0
1782117245.677403,10.022,7.000,7.000,0
1782117245.685398,10.030,7.000,7.000,0
1782117245.696397,10.041,7.000,7.000,0
1782117245.705529,10.050,7.000,7.000,0
1782117245.716631,10.061,7.000,7.000,0
1782117245.725531,10.070,7.000,7.000,0
1782117245.744725,10.089,7.000,7.000,0
1782117245.748724,10.093,7.000,7.000,0
1782117245.756723,10.101,7.000,7.000,0
1782117245.770821,10.115,7.000,7.000,0
1782117245.776441,10.121,7.000,7.000,0
1782117245.786335,10.131,7.000,7.000,0
1782117245.796338,10.141,7.000,7.000,0
1782117245.805334,10.150,7.000,7.000,0
1782117245.816365,10.161,7.000,7.000,0
1782117245.826153,10.171,7.000,7.000,0
1782117245.835469,10.180,7.000,7.000,0
1782117245.847528,10.192,7.000,7.000,0
1782117245.856527,10.201,7.000,7.000,0
1782117245.872531,10.217,7.000,7.000,0
1782117245.882734,10.227,7.000,7.000,0
1782117245.885735,10.230,7.000,7.000,0
1782117245.895733,10.240,7.000,7.000,0
1782117245.905735,10.250,7.000,7.000,0
1782117245.916736,10.261,7.000,7.000,0
1782117245.927735,10.272,7.000,7.000,0
1782117245.936733,10.281,7.000,7.000,0
1782117245.950748,10.295,7.000,7.000,0
1782117245.955736,10.300,7.000,7.000,0
1782117245.966167,10.311,7.000,7.000,0
1782117245.975269,10.320,7.000,7.000,0
1782117245.987481,10.332,7.000,7.000,0
1782117245.995483,10.340,7.000,7.000,0
1782117246.006918,10.351,7.000,7.000,0
1782117246.015925,10.360,7.000,7.000,0
1782117246.027936,10.372,7.000,7.000,0
1782117246.039385,10.384,7.000,7.000,0
1782117246.051387,10.396,7.000,7.000,0
1782117246.056384,10.401,7.000,7.000,0
1782117246.067662,10.412,7.000,7.000,0
1782117246.074896,10.419,7.000,7.000,0
1782117246.086283,10.431,7.000,7.000,0
1782117246.095285,10.440,7.000,7.000,0
1782117246.105797,10.450,7.000,7.000,0
1782117246.116788,10.461,7.000,7.000,0
1782117246.126975,10.471,7.000,7.000,0
1782117246.134974,10.479,7.000,7.000,0
1782117246.157120,10.502,7.000,7.000,0
1782117246.161116,10.506,7.000,7.000,0
1782117246.169116,10.514,7.000,7.000,0
1782117246.187336,10.532,7.000,7.000,0
1782117246.187336,10.532,7.000,7.000,0
1782117246.198038,10.542,7.000,7.000,0
1782117246.206945,10.551,7.000,7.000,0
1782117246.218038,10.562,7.000,7.000,0
1782117246.226038,10.570,7.000,7.000,0
1782117246.236352,10.581,7.000,7.000,0
1782117246.246665,10.591,7.000,7.000,0
1782117246.258827,10.603,7.000,7.000,0
1782117246.265474,10.610,7.000,7.000,0
1782117246.280906,10.625,7.000,7.000,0
1782117246.287688,10.632,7.000,7.000,0
1782117246.297552,10.642,7.000,7.000,0
1782117246.303913,10.648,7.000,7.000,0
1782117246.315560,10.660,7.000,7.000,0
1782117246.325748,10.670,7.000,7.000,0
1782117246.335900,10.680,7.000,7.000,0
1782117246.348253,10.693,7.000,7.000,0
1782117246.364076,10.709,7.000,7.000,0
1782117246.367478,10.712,7.000,7.000,0
1782117246.376195,10.721,7.000,7.000,0
1782117246.385758,10.730,7.000,7.000,0
1782117246.394988,10.739,7.000,7.000,0
1782117246.406319,10.751,7.000,7.000,0
1782117246.415043,10.759,7.000,7.000,0
1782117246.425462,10.770,7.000,7.000,0
1782117246.434756,10.779,7.000,7.000,0
1782117246.445804,10.790,7.000,7.000,0
1782117246.462848,10.807,7.000,7.000,0
1782117246.464892,10.809,7.000,7.000,0
1782117246.476381,10.821,7.000,7.000,0
1782117246.486138,10.831,7.000,7.000,0
1782117246.495858,10.840,7.000,7.000,0
1782117246.510178,10.855,7.000,7.000,0
1782117246.515204,10.860,7.000,7.000,0
1782117246.526524,10.871,7.000,7.000,0
1782117246.535547,10.880,7.000,7.000,0
1782117246.548282,10.893,7.000,7.000,0
1782117246.558475,10.903,7.000,7.000,0
1782117246.568670,10.913,7.000,7.000,0
1782117246.580037,10.924,7.000,7.000,0
1782117246.585658,10.930,7.000,7.000,0
1782117246.599260,10.944,7.000,7.000,0
1782117246.606387,10.951,7.000,7.000,0
1782117246.619159,10.964,7.000,7.000,0
1782117246.629331,10.974,7.000,7.000,0
1782117246.637616,10.982,7.000,7.000,0
1782117246.646773,10.991,7.000,7.000,0
1782117246.656789,11.001,7.000,7.000,0
1782117246.666930,11.011,7.000,7.000,0
1782117246.675405,11.020,7.000,7.000,0
1782117246.689845,11.034,7.000,7.000,0
1782117246.698010,11.042,7.000,7.000,0
1782117246.707597,11.052,7.000,7.000,0
1782117246.715749,11.060,7.000,7.000,0
1782117246.726837,11.071,7.000,7.000,0
1782117246.736629,11.081,7.000,7.000,0
1782117246.746062,11.090,7.000,7.000,0
1782117246.756288,11.101,7.000,7.000,0
1782117246.768020,11.112,7.000,7.000,0
1782117246.779114,11.124,7.000,7.000,0
1782117246.786622,11.131,7.000,7.000,0
1782117246.798358,11.143,7.000,7.000,0
1782117246.804867,11.149,7.000,7.000,0
1782117246.814903,11.159,7.000,7.000,0
1782117246.828581,11.173,7.000,7.000,0
1782117246.835718,11.180,7.000,7.000,0
1782117246.845765,11.190,7.000,7.000,0
1782117246.854870,11.199,7.000,7.000,0
1782117246.872268,11.217,7.000,7.000,0
1782117246.875495,11.220,7.000,7.000,0
1782117246.887519,11.232,7.000,7.000,0
1782117246.895510,11.240,7.000,7.000,0
1782117246.907931,11.252,7.000,7.000,0
1782117246.918602,11.263,7.000,7.000,0
1782117246.927113,11.272,7.000,7.000,0
1782117246.935674,11.280,7.000,7.000,0
1782117246.946740,11.291,7.000,7.000,0
1782117246.955486,11.300,7.000,7.000,0
1782117246.979224,11.324,7.000,7.000,0
1782117246.981077,11.326,7.000,7.000,0
1782117246.984739,11.329,7.000,7.000,0
1782117246.999114,11.344,7.000,7.000,0
1782117247.012156,11.357,7.000,7.000,0
1782117247.017676,11.362,7.000,7.000,0
1782117247.024203,11.369,7.000,7.000,0
1782117247.037534,11.382,7.000,7.000,0
1782117247.046060,11.390,7.000,7.000,0
1782117247.057545,11.402,7.000,7.000,0
1782117247.075069,11.419,7.000,7.000,0
1782117247.076573,11.421,7.000,7.000,0
1782117247.090609,11.435,7.000,7.000,0
1782117247.106658,11.451,7.000,7.000,0
1782117247.108657,11.453,7.000,7.000,0
1782117247.117170,11.462,7.000,7.000,0
1782117247.125321,11.470,7.000,7.000,0
1782117247.136116,11.481,7.000,7.000,0
1782117247.146944,11.491,7.000,7.000,0
1782117247.156965,11.501,7.000,7.000,0
1782117247.167223,11.512,7.000,7.000,0
1782117247.180877,11.525,7.000,7.000,0
1782117247.184383,11.529,7.000,7.000,0
1782117247.197361,11.542,7.000,7.000,0
1782117247.210387,11.555,7.000,7.000,0
1782117247.214907,11.559,7.000,7.000,0
1782117247.224936,11.569,7.000,7.000,0
1782117247.235197,11.580,7.000,7.000,0
1782117247.246799,11.591,7.000,7.000,0
1782117247.256721,11.601,7.000,7.000,0
1782117247.265936,11.610,7.000,7.000,0
1782117247.287820,11.632,7.000,7.000,0
1782117247.288939,11.633,7.000,7.000,0
1782117247.297249,11.642,7.000,7.000,0
1782117247.305301,11.650,7.000,7.000,0
1782117247.315293,11.660,7.000,7.000,0
1782117247.325807,11.670,7.000,7.000,0
1782117247.337088,11.682,7.000,7.000,0
1782117247.346060,11.690,7.000,7.000,0
1782117247.356529,11.701,7.000,7.000,0
1782117247.366567,11.711,7.000,7.000,0
1782117247.384356,11.729,7.000,7.000,0
1782117247.386370,11.731,7.000,7.000,0
1782117247.395373,11.740,7.000,7.000,0
1782117247.417426,11.762,7.000,7.000,0
1782117247.418433,11.763,7.000,7.000,0
1782117247.434373,11.779,7.000,7.000,0
1782117247.435740,11.780,7.000,7.000,0
1782117247.448193,11.793,7.000,7.000,0
1782117247.455818,11.800,7.000,7.000,0
1782117247.466070,11.810,7.000,7.000,0
1782117247.476249,11.821,7.000,7.000,0
1782117247.486175,11.831,7.000,7.000,0
1782117247.498008,11.842,7.000,7.000,0
1782117247.507428,11.852,7.000,7.000,0
1782117247.516399,11.861,7.000,7.000,0
1782117247.525548,11.870,7.000,7.000,0
1782117247.535732,11.880,7.000,7.000,0
1782117247.546155,11.891,7.000,7.000,0
1782117247.556219,11.901,7.000,7.000,0
1782117247.564426,11.909,7.000,7.000,0
1782117247.576966,11.921,7.000,7.000,0
1782117247.590749,11.935,7.000,7.000,0
1782117247.595949,11.940,7.000,7.000,0
1782117247.607371,11.952,7.000,7.000,0
1782117247.620008,11.964,7.000,7.000,0
1782117247.626517,11.971,7.000,7.000,0
1782117247.636917,11.981,7.000,7.000,0
