Unix_Time_s,RelativeTime_s,P_1,P_2,P_3,P_4,P_5,P_6,P_7,P_8,P_9,P_10,P_11,P_12,P_13,P_14,P_15,P_16,P_17,P_18,P_19,P_20,P_21,P_22,P_23,P_24,P_25,P_26,P_27,P_28,P_29,P_30,P_31,P_32,P_33,P_34,P_35,P_36,P_37,P_38,P_39,P_40,P_41,P_42,P_43,P_44,P_45,P_46,P_47,P_48,P_49,P_50,P_51,P_52,P_53,P_54,P_55,P_56,P_57,P_58,P_59,P_60,P_61,P_62,P_63,P_64,P_65,P_66,P_67,P_68,P_69,P_70,P_71,P_72,P_73,P_74,P_75,P_76,P_77,P_78,P_79,P_80,P_81,P_82,P_83,P_84,P_85,P_86,P_87,P_88,P_89,P_90,P_91,P_92,P_93,P_94,P_95,P_96,P_97,P_98,P_99,P_100,P_101,P_102,P_103,P_104,P_105,P_106,P_107,P_108,P_109,P_110,P_111,P_112,P_113,P_114,P_115,P_116,P_117,P_118,P_119,P_120,P_121,P_122,P_123,P_124,P_125,P_126,P_127,P_128,P_129,P_130,P_131,P_132,P_133,P_134,P_135,P_136,P_137,P_138,P_139,P_140,P_141,P_142,P_143,P_144,P_145,P_146,P_147,P_148,P_149,P_150,P_151,P_152,P_153,P_154,P_155,P_156,P_157,P_158,P_159,P_160,P_161,P_162,P_163,P_164,P_165,P_166,P_167,P_168,P_169,P_170,P_171,P_172,P_173,P_174,P_175,P_176,P_177,P_178,P_179,P_180,P_181,P_182,P_183,P_184,P_185,P_186,P_187,P_188,P_189,P_190,P_191,P_192,P_193,P_194,P_195,P_196,P_197,P_198,P_199,P_200,P_201,P_202,P_203,P_204,P_205,P_206,P_207,P_208,P_209,P_210,P_211,P_212,P_213,P_214,P_215,P_216,P_217,P_218,P_219,P_220,P_221,P_222,P_223,P_224,P_225,P_226,P_227,P_228,P_229,P_230,P_231,P_232,P_233,Flex1,Flex2,Bat,IMU1_RefTime,IMU1_Ax,IMU1_Ay,IMU1_Az,IMU1_Wx,IMU1_Wy,IMU1_Wz,IMU1_Roll,IMU1_Pitch,IMU1_Yaw,IMU1_Hx,IMU1_Hy,IMU1_Hz,IMU1_Q0,IMU1_Q1,IMU1_Q2,IMU1_Q3,IMU2_RefTime,IMU2_Ax,IMU2_Ay,IMU2_Az,IMU2_Wx,IMU2_Wy,IMU2_Wz,IMU2_Roll,IMU2_Pitch,IMU2_Yaw,IMU2_Hx,IMU2_Hy,IMU2_Hz,IMU2_Q0,IMU2_Q1,IMU2_Q2,IMU2_Q3,IMU1_FusedRoll,IMU1_FusedPitch,IMU1_FusedYaw,IMU1_FusedQ0,IMU1_FusedQ1,IMU1_FusedQ2,IMU1_FusedQ3,IMU1_MagValid,IMU2_FusedRoll,IMU2_FusedPitch,IMU2_FusedYaw,IMU2_FusedQ0,IMU2_FusedQ1,IMU2_FusedQ2,IMU2_FusedQ3,IMU2_MagValid
1782117235.662293,0.007,1018.0,1022.0,1020.0,1020.0,1021.0,1023.0,1020.0,1022.0,1013.0,1020.0,1022.0,1022.0,1020.0,1021.0,1012.0,1020.0,1021.0,1022.0,1023.0,1020.0,1022.0,1012.0,1020.0,1020.0,1021.0,1021.0,1023.0,1020.0,1021.0,1012.0,1020.0,1019.0,1021.0,1021.0,1021.0,1023.0,1021.0,1022.0,1012.0,1020.0,1020.0,1021.0,1021.0,1022.0,1023.0,1020.0,1021.0,1012.0,1020.0,1020.0,1021.0,1019.0,1021.0,1022.0,1023.0,1020.0,1022.0,1012.0,1020.0,1020.0,1021.0,1019.0,1022.0,1022.0,1023.0,1021.0,1023.0,1013.0,1020.0,1020.0,1022.0,1020.0,1022.0,1023.0,1023.0,1021.0,1023.0,1013.0,1020.0,1020.0,1022.0,1019.0,1022.0,1022.0,1023.0,1021.0,1022.0,1013.0,1020.0,1020.0,1021.0,1019.0,1022.0,1022.0,1023.0,1021.0,1022.0,1013.0,1020.0,1019.0,1021.0,1019.0,1021.0,1023.0,1023.0,1021.0,1022.0,1012.0,1020.0,1019.0,1021.0,1019.0,1023.0,1023.0,1024.0,1021.0,1024.0,1013.0,1021.0,1022.0,1024.0,1022.0,1023.0,1024.0,1021.0,1024.0,1014.0,1021.0,1021.0,1022.0,1023.0,1024.0,1021.0,1022.0,1014.0,1021.0,1023.0,1023.0,1024.0,1021.0,1024.0,1014.0,1020.0,1022.0,1024.0,1023.0,1021.0,1023.0,1014.0,1021.0,1022.0,1023.0,1024.0,1021.0,1023.0,1014.0,1022.0,1023.0,1024.0,1021.0,1021.0,1013.0,1022.0,1024.0,1024.0,1022.0,1023.0,1015.0,1023.0,1025.0,1025.0,1023.0,1026.0,1018.0,1022.0,1024.0,1024.0,1022.0,1024.0,1015.0,1024.0,1027.0,1026.0,1024.0,1026.0,1019.0,1025.0,1030.0,1029.0,1026.0,1030.0,1023.0,1025.0,1031.0,1029.0,1025.0,1029.0,1024.0,1025.0,1031.0,1031.0,1025.0,1029.0,1025.0,1029.0,1033.0,1033.0,1025.0,1031.0,1031.0,1029.0,1035.0,1038.0,1028.0,1033.0,1038.0,1026.0,1032.0,1036.0,1027.0,1028.0,1037.0,1028.0,1032.0,1045.0,1030.0,1031.0,1106.0,1027.0,1032.0,1043.0,1029.0,1031.0,2327,2211,1902,	00:28:46.534,-0.01171875,0.07763671875,1.01904296875,0.06103515625,0.42724609375,0.18310546875,4.339599609375,0.6976318359375,-75.8221435546875,61.0,-573.0,-3999.0,-0.788238525390625,-0.033599853515625,0.0184326171875,0.614166259765625,4.33849063517659,0.6992530567197677,-80.0304919931672,-0.7651617705526211,-0.032909645564780016,0.01966760709580732,0.6426955775051696,1,	00:28:46.535,0.04150390625,0.01416015625,1.01953125,-0.1220703125,0.42724609375,0.48828125,0.7745361328125,-2.373046875,31.1572265625,-60.0,730.0,-1824.0,0.9630126953125,0.0120849609375,-0.01812744140625,0.26861572265625,0.7752615526926098,-2.374194451698287,24.652810136464417,0.9766853418690029,0.011030638273132214,-0.018795252424883755,0.21356686654020404,1
1782117235.673748,0.018,1018.0,1022.0,1019.0,1020.0,1022.0,1023.0,1020.0,1021.0,1012.0,1020.0,1022.0,1023.0,1020.0,1021.0,1013.0,1020.0,1021.0,1022.0,1023.0,1021.0,1022.0,1012.0,1020.0,1020.0,1021.0,1022.0,1023.0,1020.0,1022.0,1012.0,1019.0,1020.0,1020.0,1022.0,1022.0,1023.0,1021.0,1022.0,1012.0,1020.0,1020.0,1021.0,1021.0,1022.0,1023.0,1020.0,1022.0,1012.0,1020.0,1020.0,1021.0,1019.0,1021.0,1021.0,1023.0,1021.0,1022.0,1012.0,1020.0,1019.0,1021.0,1019.0,1022.0,1022.0,1023.0,1021.0,1023.0,1012.0,1020.0,1020.0,1022.0,1020.0,1022.0,1022.0,1023.0,1020.0,1022.0,1013.0,1021.0,1020.0,1022.0,1020.0,1022.0,1022.0,1023.0,1021.0,1022.0,1012.0,1020.0,1020.0,1021.0,1019.0,1021.0,1021.0,1023.0,1021.0,1022.0,1012.0,1020.0,1019.0,1021.0,1019.0,1021.0,1022.0,1023.0,1020.0,1022.0,1012.0,1020.0,1020.0,1021.0,1019.0,1022.0,1022.0,1024.0,1021.0,1024.0,1014.0,1021.0,1022.0,1025.0,1022.0,1022.0,1024.0,1021.0,1024.0,1014.0,1021.0,1021.0,1023.0,1022.0,1024.0,1021.0,1023.0,1014.0,1021.0,1022.0,1022.0,1024.0,1021.0,1024.0,1014.0,1021.0,1022.0,1023.0,1024.0,1021.0,1023.0,1014.0,1021.0,1022.0,1022.0,1024.0,1021.0,1023.0,1014.0,1021.0,1022.0,1024.0,1021.0,1022.0,1013.0,1022.0,1023.0,1025.0,1022.0,1024.0,1015.0,1023.0,1025.0,1026.0,1022.0,1026.0,1018.0,1022.0,1023.0,1025.0,1022.0,1024.0,1016.0,1023.0,1026.0,1026.0,1024.0,1026.0,1019.0,1025.0,1029.0,1029.0,1026.0,1030.0,1023.0,1024.0,1029.0,1029.0,1025.0,1029.0,1023.0,1025.0,1031.0,1031.0,1024.0,1030.0,1025.0,1027.0,1033.0,1034.0,1025.0,1032.0,1031.0,1029.0,1035.0,1038.0,1028.0,1033.0,1038.0,1026.0,1031.0,1036.0,1026.0,1029.0,1036.0,1027.0,1032.0,1045.0,1030.0,1031.0,1106.0,1027.0,1031.0,1043.0,1029.0,1030.0,2326,2211,1901,	00:28:46.544,-0.01220703125,0.0771484375,1.01953125,0.1220703125,0.42724609375,0.244140625,4.28466796875,0.6317138671875,-75.8221435546875,60.0,-576.0,-4000.0,-0.78826904296875,-0.032867431640625,0.018646240234375,0.614166259765625,4.285703612039127,0.6294386108855214,-80.02836141352697,-0.7652061491731886,-0.032166178075099534,0.019837302933279243,0.6426751649689865,1,	00:28:46.545,0.041015625,0.01513671875,1.01904296875,-0.1220703125,0.42724609375,0.42724609375,0.8404541015625,-2.30712890625,31.1572265625,-60.0,731.0,-1822.0,0.9630126953125,0.012481689453125,-0.017425537109375,0.268646240234375,0.841391661345302,-2.307941805029036,24.65438450918904,0.976688323455784,0.011471211605346848,-0.018107122935387503,0.2135894712490251,1
1782117235.681455,0.026,1017.0,1022.0,1020.0,1020.0,1021.0,1023.0,1020.0,1022.0,1012.0,1020.0,1022.0,1023.0,1020.0,1022.0,1012.0,1019.0,1021.0,1022.0,1023.0,1021.0,1022.0,1012.0,1020.0,1021.0,1021.0,1021.0,1023.0,1020.0,1021.0,1012.0,1020.0,1019.0,1021.0,1021.0,1022.0,1023.0,1020.0,1022.0,1012.0,1020.0,1020.0,1021.0,1021.0,1022.0,1023.0,1021.0,1022.0,1012.0,1020.0,1020.0,1021.0,1019.0,1021.0,1021.0,1023.0,1021.0,1022.0,1012.0,1020.0,1020.0,1021.0,1019.0,1022.0,1022.0,1023.0,1020.0,1022.0,1012.0,1021.0,1021.0,1022.0,1020.0,1022.0,1022.0,1023.0,1020.0,1022.0,1012.0,1020.0,1021.0,1022.0,1019.0,1021.0,1022.0,1023.0,1021.0,1022.0,1012.0,1021.0,1020.0,1022.0,1019.0,1021.0,1022.0,1023.0,1020.0,1022.0,1012.0,1020.0,1020.0,1021.0,1019.0,1021.0,1022.0,1023.0,1020.0,1022.0,1012.0,1020.0,1020.0,1021.0,1019.0,1022.0,1022.0,1024.0,1021.0,1024.0,1013.0,1021.0,1022.0,1024.0,1022.0,1022.0,1024.0,1021.0,1023.0,1014.0,1020.0,1021.0,1022.0,1022.0,1024.0,1021.0,1023.0,1013.0,1020.0,1023.0,1023.0,1024.0,1021.0,1024.0,1014.0,1021.0,1022.0,1023.0,1024.0,1021.0,1023.0,1014.0,1021.0,1022.0,1023.0,1025.0,1021.0,1023.0,1015.0,1021.0,1023.0,1023.0,1021.0,1022.0,1013.0,1022.0,1024.0,1024.0,1021.0,1024.0,1015.0,1023.0,1025.0,1025.0,1023.0,1026.0,1018.0,1022.0,1024.0,1024.0,1022.0,1024.0,1015.0,1024.0,1026.0,1026.0,1024.0,1026.0,1019.0,1024.0,1029.0,1029.0,1026.0,1030.0,1023.0,1024.0,1030.0,1030.0,1024.0,1029.0,1023.0,1025.0,1031.0,1031.0,1025.0,1030.0,1025.0,1027.0,1034.0,1035.0,1026.0,1031.0,1031.0,1028.0,1035.0,1039.0,1027.0,1033.0,1038.0,1026.0,1032.0,1037.0,1026.0,1028.0,1037.0,1028.0,1032.0,1045.0,1031.0,1031.0,1106.0,1026.0,1031.0,1044.0,1030.0,1031.0,2326,2211,1901,	00:28:46.554,-0.01171875,0.07763671875,1.01953125,0.1220703125,0.42724609375,0.18310546875,4.37255859375,0.6646728515625,-75.816650390625,61.0,-578.0,-3999.0,-0.78826904296875,-0.033660888671875,0.01885986328125,0.6141357421875,4.371991911122412,0.6671216798627844,-80.02525356382428,-0.7651896516711801,-0.03295414853312629,0.02006862545081388,0.6426477039111785,1,	00:28:46.555,0.04052734375,0.01416015625,1.02001953125,0.0,0.48828125,0.48828125,0.76904296875,-2.252197265625,31.1627197265625,-59.0,729.0,-1825.0,0.9630126953125,0.01171875,-0.017120361328125,0.268707275390625,0.7665983129356325,-2.2498535830907143,24.662308685567645,0.9766914028013794,0.010726823322790553,-0.0177506526432987,0.21364398724516445,1
1782117235.692885,0.037,1018.0,1022.0,1019.0,1020.0,1022.0,1023.0,1020.0,1022.0,1012.0,1021.0,1022.0,1023.0,1020.0,1022.0,1011.0,1020.0,1021.0,1022.0,1023.0,1020.0,1022.0,1011.0,1020.0,1020.0,1021.0,1022.0,1023.0,1020.0,1022.0,1012.0,1020.0,1020.0,1021.0,1021.0,1021.0,1023.0,1021.0,1022.0,1012.0,1020.0,1020.0,1021.0,1021.0,1022.0,1023.0,1021.0,1022.0,1011.0,1020.0,1020.0,1020.0,1018.0,1021.0,1022.0,1023.0,1021.0,1022.0,1012.0,1020.0,1020.0,1021.0,1019.0,1022.0,1022.0,1023.0,1021.0,1022.0,1012.0,1020.0,1021.0,1022.0,1020.0,1022.0,1022.0,1023.0,1021.0,1022.0,1012.0,1020.0,1021.0,1022.0,1019.0,1021.0,1022.0,1023.0,1021.0,1022.0,1012.0,1020.0,1020.0,1021.0,1019.0,1021.0,1022.0,1023.0,1021.0,1022.0,1012.0,1020.0,1020.0,1021.0,1019.0,1021.0,1022.0,1023.0,1021.0,1022.0,1012.0,1020.0,1020.0,1021.0,1019.0,1022.0,1022.0,1024.0,1021.0,1023.0,1013.0,1021.0,1023.0,1024.0,1022.0,1023.0,1024.0,1021.0,1023.0,1013.0,1021.0,1022.0,1022.0,1022.0,1024.0,1021.0,1023.0,1013.0,1020.0,1022.0,1023.0,1025.0,1022.0,1024.0,1014.0,1020.0,1022.0,1023.0,1024.0,1021.0,1023.0,1014.0,1021.0,1021.0,1022.0,1024.0,1021.0,1023.0,1014.0,1021.0,1022.0,1024.0,1021.0,1021.0,1013.0,1022.0,1023.0,1024.0,1021.0,1024.0,1015.0,1023.0,1025.0,1026.0,1023.0,1026.0,1017.0,1021.0,1024.0,1025.0,1022.0,1023.0,1015.0,1023.0,1026.0,1027.0,1024.0,1026.0,1019.0,1024.0,1030.0,1029.0,1025.0,1029.0,1023.0,1024.0,1030.0,1029.0,1024.0,1029.0,1023.0,1025.0,1031.0,1031.0,1024.0,1030.0,1025.0,1027.0,1034.0,1034.0,1025.0,1032.0,1031.0,1028.0,1036.0,1039.0,1028.0,1032.0,1037.0,1026.0,1031.0,1037.0,1026.0,1028.0,1036.0,1027.0,1032.0,1045.0,1031.0,1031.0,1106.0,1026.0,1031.0,1044.0,1030.0,1031.0,2325,2211,1902,	00:28:46.564,-0.01123046875,0.0771484375,1.02001953125,0.06103515625,0.42724609375,0.18310546875,4.3011474609375,0.615234375,-75.816650390625,61.0,-580.0,-4001.0,-0.788299560546875,-0.03289794921875,0.018829345703125,0.614105224609375,4.301752770188266,0.6134029673895429,-80.02389416340594,-0.765230647576054,-0.03218423993501298,0.020033175380317562,0.6426390142174067,1,	00:28:46.565,0.041015625,0.01513671875,1.01953125,-0.1220703125,0.48828125,0.48828125,0.8404541015625,-2.296142578125,31.168212890625,-59.0,728.0,-1825.0,0.962982177734375,0.012451171875,-0.017303466796875,0.26873779296875,0.8424385486127661,-2.2943898106612353,24.66419779391227,0.9766724293837706,0.01145644926985962,-0.017988676458313677,0.21367293457761252,1
1782117235.708030,0.052,1018.0,1023.0,1019.0,1020.0,1022.0,1023.0,1020.0,1022.0,1011.0,1020.0,1021.0,1023.0,1020.0,1022.0,1012.0,1020.0,1021.0,1022.0,1023.0,1021.0,1022.0,1012.0,1020.0,1020.0,1021.0,1021.0,1023.0,1020.0,1022.0,1012.0,1020.0,1019.0,1021.0,1021.0,1022.0,1023.0,1020.0,1022.0,1012.0,1020.0,1020.0,1021.0,1021.0,1021.0,1023.0,1021.0,1022.0,1012.0,1020.0,1020.0,1021.0,1019.0,1021.0,1022.0,1023.0,1021.0,1022.0,1011.0,1020.0,1020.0,1021.0,1019.0,1022.0,1021.0,1023.0,1020.0,1023.0,1012.0,1020.0,1021.0,1023.0,1020.0,1021.0,1022.0,1023.0,1020.0,1023.0,1012.0,1020.0,1021.0,1022.0,1019.0,1021.0,1022.0,1023.0,1021.0,1022.0,1012.0,1020.0,1020.0,1021.0,1019.0,1021.0,1022.0,1023.0,1021.0,1022.0,1012.0,1020.0,1020.0,1021.0,1019.0,1021.0,1022.0,1023.0,1021.0,1022.0,1012.0,1020.0,1020.0,1021.0,1019.0,1022.0,1022.0,1024.0,1021.0,1024.0,1013.0,1021.0,1022.0,1024.0,1022.0,1022.0,1024.0,1021.0,1024.0,1014.0,1021.0,1022.0,1022.0,1022.0,1024.0,1021.0,1023.0,1013.0,1020.0,1022.0,1023.0,1024.0,1021.0,1024.0,1014.0,1021.0,1022.0,1023.0,1024.0,1021.0,1023.0,1014.0,1021.0,1021.0,1022.0,1025.0,1021.0,1024.0,1014.0,1022.0,1022.0,1024.0,1020.0,1022.0,1013.0,1022.0,1024.0,1025.0,1021.0,1024.0,1015.0,1023.0,1024.0,1025.0,1022.0,1026.0,1018.0,1021.0,1024.0,1024.0,1022.0,1024.0,1016.0,1023.0,1026.0,1027.0,1024.0,1026.0,1018.0,1024.0,1029.0,1029.0,1025.0,1030.0,1023.0,1024.0,1030.0,1029.0,1024.0,1030.0,1023.0,1024.0,1031.0,1031.0,1024.0,1030.0,1025.0,1027.0,1034.0,1035.0,1025.0,1031.0,1032.0,1028.0,1036.0,1039.0,1028.0,1033.0,1038.0,1026.0,1032.0,1036.0,1026.0,1028.0,1036.0,1026.0,1032.0,1045.0,1031.0,1031.0,1106.0,1026.0,1032.0,1043.0,1029.0,1031.0,2325,2211,1902,	00:28:46.575,-0.01220703125,0.07666015625,1.01904296875,0.1220703125,0.42724609375,0.18310546875,4.3011474609375,0.7086181640625,-75.816650390625,61.0,-578.0,-4002.0,-0.788299560546875,-0.033416748046875,0.0181884765625,0.6141357421875,4.303473397915704,0.7091915509307933,-80.02174114470508,-0.7652183679632159,-0.03273301610302426,0.01940232092785007,0.6426452745730915,1,	00:28:46.576,0.041015625,0.01513671875,1.0205078125,0.0,0.48828125,0.42724609375,0.9063720703125,-2.35107421875,31.168212890625,-59.0,729.0,-1822.0,0.96295166015625,0.013153076171875,-0.01763916015625,0.26873779296875,0.9089697894638167,-2.3524113887329614,24.665840800291527,0.9766516634084718,0.012131797720263966,-0.01835899297310905,0.21369907632592386,1
1782117235.712642,0.057,1018.0,1022.0,1019.0,1020.0,1022.0,1022.0,1020.0,1022.0,1013.0,1020.0,1022.0,1023.0,1021.0,1022.0,1012.0,1020.0,1021.0,1022.0,1023.0,1021.0,1022.0,1012.0,1020.0,1021.0,1020.0,1022.0,1022.0,1020.0,1021.0,1012.0,1020.0,1020.0,1021.0,1021.0,1022.0,1023.0,1020.0,1022.0,1012.0,1020.0,1020.0,1022.0,1021.0,1022.0,1023.0,1021.0,1022.0,1012.0,1020.0,1020.0,1021.0,1019.0,1021.0,1022.0,1024.0,1021.0,1022.0,1012.0,1020.0,1020.0,1021.0,1019.0,1022.0,1022.0,1024.0,1020.0,1022.0,1012.0,1020.0,1021.0,1022.0,1020.0,1022.0,1022.0,1023.0,1021.0,1023.0,1012.0,1021.0,1021.0,1022.0,1020.0,1021.0,1022.0,1023.0,1020.0,1022.0,1012.0,1020.0,1020.0,1022.0,1019.0,1022.0,1022.0,1023.0,1021.0,1022.0,1012.0,1020.0,1020.0,1021.0,1019.0,1021.0,1021.0,1023.0,1021.0,1022.0,1012.0,1020.0,1020.0,1021.0,1019.0,1022.0,1022.0,1024.0,1021.0,1024.0,1013.0,1021.0,1022.0,1024.0,1022.0,1023.0,1024.0,1021.0,1024.0,1013.0,1021.0,1022.0,1022.0,1022.0,1024.0,1020.0,1023.0,1014.0,1021.0,1022.0,1023.0,1024.0,1021.0,1024.0,1014.0,1021.0,1022.0,1023.0,1024.0,1021.0,1023.0,1014.0,1021.0,1022.0,1023.0,1024.0,1021.0,1023.0,1014.0,1021.0,1023.0,1024.0,1021.0,1022.0,1013.0,1022.0,1024.0,1025.0,1022.0,1024.0,1015.0,1022.0,1025.0,1026.0,1022.0,1026.0,1018.0,1022.0,1024.0,1025.0,1021.0,1024.0,1015.0,1023.0,1026.0,1026.0,1024.0,1026.0,1019.0,1024.0,1029.0,1029.0,1026.0,1030.0,1023.0,1025.0,1030.0,1030.0,1024.0,1029.0,1023.0,1026.0,1030.0,1031.0,1024.0,1030.0,1024.0,1028.0,1034.0,1034.0,1026.0,1031.0,1030.0,1028.0,1035.0,1039.0,1028.0,1033.0,1037.0,1026.0,1032.0,1036.0,1026.0,1028.0,1036.0,1027.0,1032.0,1045.0,1030.0,1031.0,1106.0,1026.0,1031.0,1043.0,1030.0,1031.0,2324,2211,1901,	00:28:46.585,-0.0126953125,0.07763671875,1.0185546875,0.1220703125,0.42724609375,0.18310546875,4.39453125,0.7196044921875,-75.8111572265625,62.0,-579.0,-4001.0,-0.78826904296875,-0.03411865234375,0.01861572265625,0.61407470703125,4.396014430396887,0.7180046061858117,-80.01845751727662,-0.7652078355072509,-0.03340093963551437,0.019861467113657428,0.6426094209034491,1,	00:28:46.586,0.041015625,0.015625,1.0185546875,0.0,0.48828125,0.48828125,0.85693359375,-2.2686767578125,31.1737060546875,-58.0,729.0,-1823.0,0.96295166015625,0.012542724609375,-0.017059326171875,0.268798828125,0.8591495064766904,-2.2705924856431112,24.672805820629026,0.9766590675900257,0.01155589805131842,-0.01775380845783557,0.2137482846706644,1
1782117235.723471,0.068,1018.0,1022.0,1019.0,1020.0,1022.0,1022.0,1021.0,1021.0,1012.0,1020.0,1022.0,1023.0,1020.0,1021.0,1011.0,1020.0,1021.0,1022.0,1023.0,1021.0,1022.0,1012.0,1020.0,1020.0,1021.0,1022.0,1023.0,1021.0,1022.0,1012.0,1020.0,1019.0,1021.0,1021.0,1022.0,1022.0,1021.0,1022.0,1012.0,1020.0,1020.0,1021.0,1021.0,1022.0,1023.0,1021.0,1022.0,1012.0,1021.0,1019.0,1021.0,1019.0,1021.0,1021.0,1023.0,1021.0,1022.0,1012.0,1020.0,1020.0,1021.0,1019.0,1022.0,1022.0,1023.0,1021.0,1023.0,1012.0,1020.0,1021.0,1023.0,1021.0,1022.0,1022.0,1023.0,1021.0,1022.0,1012.0,1021.0,1020.0,1022.0,1020.0,1021.0,1022.0,1023.0,1021.0,1022.0,1012.0,1020.0,1020.0,1022.0,1019.0,1021.0,1022.0,1023.0,1020.0,1022.0,1012.0,1020.0,1019.0,1021.0,1018.0,1021.0,1022.0,1023.0,1021.0,1022.0,1012.0,1020.0,1020.0,1022.0,1018.0,1022.0,1022.0,1023.0,1021.0,1024.0,1014.0,1021.0,1022.0,1024.0,1023.0,1023.0,1024.0,1021.0,1024.0,1013.0,1021.0,1021.0,1023.0,1022.0,1023.0,1021.0,1023.0,1014.0,1021.0,1022.0,1023.0,1024.0,1022.0,1025.0,1015.0,1021.0,1022.0,1023.0,1024.0,1021.0,1024.0,1014.0,1021.0,1022.0,1023.0,1024.0,1021.0,1024.0,1014.0,1022.0,1022.0,1023.0,1021.0,1022.0,1014.0,1022.0,1023.0,1024.0,1022.0,1025.0,1015.0,1023.0,1025.0,1025.0,1023.0,1027.0,1017.0,1022.0,1024.0,1024.0,1022.0,1024.0,1015.0,1023.0,1026.0,1025.0,1024.0,1027.0,1018.0,1024.0,1030.0,1028.0,1026.0,1031.0,1023.0,1024.0,1030.0,1029.0,1025.0,1030.0,1023.0,1025.0,1030.0,1030.0,1024.0,1030.0,1025.0,1028.0,1034.0,1034.0,1025.0,1032.0,1031.0,1029.0,1036.0,1038.0,1028.0,1034.0,1037.0,1026.0,1032.0,1035.0,1026.0,1028.0,1035.0,1027.0,1032.0,1043.0,1031.0,1031.0,1105.0,1026.0,1031.0,1042.0,1030.0,1031.0,2323,2211,1901,	00:28:46.595,-0.01123046875,0.0771484375,1.0185546875,0.06103515625,0.3662109375,0.1220703125,4.3450927734375,0.648193359375,-75.8111572265625,61.0,-576.0,-3997.0,-0.788330078125,-0.033355712890625,0.018829345703125,0.61407470703125,4.342551375556369,0.6477148527822284,-80.01760457183914,-0.7652458570248982,-0.032650113557703336,0.020030977259003255,0.6425974699148351,1,	00:28:46.596,0.041015625,0.01513671875,1.01904296875,0.06103515625,0.42724609375,0.48828125,0.8404541015625,-2.3565673828125,31.17919921875,-59.0,730.0,-1823.0,0.962921142578125,0.0125732421875,-0.017822265625,0.26885986328125,0.8382157163314617,-2.3554904531797503,24.67861717788135,0.9766345556467646,0.011536564391470048,-0.01851589535376446,0.21379666512351556,1
1782117235.733870,0.078,1018.0,1022.0,1020.0,1019.0,1022.0,1023.0,1021.0,1022.0,1012.0,1020.0,1021.0,1023.0,1020.0,1021.0,1012.0,1020.0,1021.0,1022.0,1023.0,1020.0,1023.0,1012.0,1020.0,1020.0,1020.0,1021.0,1023.0,1020.0,1022.0,1011.0,1020.0,1020.0,1021.0,1021.0,1022.0,1023.0,1021.0,1022.0,1012.0,1020.0,1020.0,1021.0,1021.0,1022.0,1023.0,1021.0,1022.0,1012.0,1020.0,1019.0,1021.0,1019.0,1021.0,1022.0,1023.0,1021.0,1022.0,1012.0,1020.0,1020.0,1021.0,1019.0,1022.0,1022.0,1023.0,1021.0,1023.0,1012.0,1021.0,1021.0,1022.0,1021.0,1022.0,1022.0,1023.0,1021.0,1022.0,1012.0,1021.0,1019.0,1021.0,1020.0,1021.0,1022.0,1023.0,1021.0,1022.0,1012.0,1020.0,1020.0,1021.0,1019.0,1022.0,1022.0,1023.0,1021.0,1022.0,1012.0,1020.0,1020.0,1021.0,1019.0,1021.0,1021.0,1023.0,1021.0,1022.0,1012.0,1020.0,1019.0,1021.0,1019.0,1022.0,1022.0,1023.0,1021.0,1024.0,1013.0,1021.0,1022.0,1024.0,1022.0,1022.0,1024.0,1021.0,1024.0,1013.0,1021.0,1021.0,1022.0,1022.0,1024.0,1021.0,1023.0,1013.0,1021.0,1023.0,1023.0,1024.0,1021.0,1024.0,1014.0,1021.0,1022.0,1023.0,1024.0,1021.0,1024.0,1014.0,1021.0,1022.0,1023.0,1024.0,1021.0,1023.0,1015.0,1021.0,1022.0,1024.0,1021.0,1022.0,1013.0,1022.0,1024.0,1024.0,1021.0,1025.0,1016.0,1023.0,1025.0,1025.0,1022.0,1027.0,1018.0,1022.0,1024.0,1024.0,1022.0,1024.0,1016.0,1023.0,1026.0,1026.0,1023.0,1027.0,1019.0,1024.0,1030.0,1028.0,1026.0,1031.0,1023.0,1024.0,1030.0,1029.0,1024.0,1030.0,1023.0,1024.0,1031.0,1031.0,1024.0,1030.0,1025.0,1027.0,1033.0,1034.0,1026.0,1032.0,1031.0,1027.0,1035.0,1038.0,1027.0,1033.0,1038.0,1025.0,1031.0,1036.0,1026.0,1028.0,1035.0,1027.0,1032.0,1043.0,1030.0,1031.0,1105.0,1026.0,1031.0,1041.0,1030.0,1031.0,2323,2211,1901,	00:28:46.605,-0.01171875,0.078125,1.01953125,0.0,0.30517578125,0.1220703125,4.4329833984375,0.670166015625,-75.8056640625,60.0,-577.0,-4001.0,-0.788299560546875,-0.034088134765625,0.019134521484375,0.614044189453125,4.431723786139629,0.6708279671168861,-80.01513044089275,-0.7652281897756223,-0.033375580082002296,0.02037590253009625,0.6425703936713844,1,	00:28:46.606,0.0419921875,0.01611328125,1.01904296875,0.1220703125,0.42724609375,0.48828125,0.9283447265625,-2.3565673828125,31.1846923828125,-58.0,729.0,-1824.0,0.962921142578125,0.013336181640625,-0.017608642578125,0.26885986328125,0.9308174560347232,-2.3565629629426654,24.67980114405345,0.9766225006591536,0.012327969200281702,-0.018352133611474218,0.21382168171999114,1
1782117235.744318,0.089,1018.0,1022.0,1019.0,1019.0,1021.0,1022.0,1021.0,1022.0,1012.0,1020.0,1021.0,1022.0,1020.0,1022.0,1012.0,1020.0,1021.0,1022.0,1022.0,1021.0,1022.0,1013.0,1021.0,1020.0,1021.0,1021.0,1023.0,1020.0,1022.0,1012.0,1020.0,1019.0,1020.0,1021.0,1022.0,1023.0,1021.0,1022.0,1012.0,1020.0,1020.0,1021.0,1021.0,1021.0,1023.0,1021.0,1022.0,1012.0,1020.0,1020.0,1021.0,1018.0,1021.0,1022.0,1023.0,1021.0,1022.0,1012.0,1020.0,1020.0,1021.0,1019.0,1022.0,1022.0,1023.0,1021.0,1023.0,1013.0,1020.0,1021.0,1022.0,1020.0,1022.0,1022.0,1023.0,1021.0,1022.0,1013.0,1020.0,1020.0,1021.0,1019.0,1022.0,1022.0,1023.0,1020.0,1022.0,1013.0,1020.0,1020.0,1021.0,1019.0,1021.0,1022.0,1022.0,1021.0,1022.0,1012.0,1021.0,1020.0,1021.0,1019.0,1022.0,1021.0,1023.0,1020.0,1022.0,1013.0,1020.0,1019.0,1021.0,1019.0,1023.0,1022.0,1024.0,1021.0,1024.0,1014.0,1020.0,1022.0,1024.0,1022.0,1023.0,1024.0,1021.0,1024.0,1014.0,1021.0,1021.0,1022.0,1023.0,1024.0,1021.0,1023.0,1014.0,1020.0,1022.0,1023.0,1024.0,1021.0,1024.0,1015.0,1021.0,1021.0,1023.0,1024.0,1021.0,1023.0,1015.0,1020.0,1022.0,1023.0,1024.0,1021.0,1023.0,1014.0,1021.0,1022.0,1024.0,1020.0,1022.0,1014.0,1022.0,1023.0,1024.0,1021.0,1024.0,1016.0,1022.0,1025.0,1025.0,1022.0,1027.0,1019.0,1022.0,1024.0,1024.0,1022.0,1024.0,1016.0,1023.0,1026.0,1026.0,1024.0,1026.0,1020.0,1024.0,1030.0,1028.0,1026.0,1031.0,1024.0,1024.0,1030.0,1029.0,1025.0,1030.0,1024.0,1024.0,1031.0,1030.0,1024.0,1030.0,1026.0,1027.0,1033.0,1033.0,1025.0,1032.0,1031.0,1028.0,1035.0,1038.0,1028.0,1033.0,1038.0,1026.0,1031.0,1035.0,1026.0,1028.0,1036.0,1027.0,1032.0,1042.0,1031.0,1031.0,1106.0,1025.0,1031.0,1041.0,1030.0,1030.0,2323,2210,1901,	00:28:46.616,-0.01171875,0.078125,1.01904296875,-0.1220703125,0.30517578125,0.18310546875,4.3450927734375,0.648193359375,-75.8056640625,59.0,-579.0,-4000.0,-0.788330078125,-0.033355712890625,0.018829345703125,0.614044189453125,4.342762715592444,0.6481692248474744,-80.01407872651819,-0.7652654546581151,-0.03265468784000712,0.020028122256615797,0.6425739876371078,1,	00:28:46.617,0.04150390625,0.01513671875,1.017578125,0.1220703125,0.54931640625,0.42724609375,0.845947265625,-2.3291015625,31.190185546875,-59.0,728.0,-1823.0,0.962921142578125,0.012542724609375,-0.017578125,0.2689208984375,0.8433092530917492,-2.3272546389337494,24.687784693086225,0.9766222399215022,0.011528828464825317,-0.018264806927658295,0.21387492474068007,1
1782117235.754636,0.099,1018.0,1022.0,1020.0,1020.0,1021.0,1022.0,1021.0,1022.0,1013.0,1021.0,1022.0,1022.0,1021.0,1022.0,1013.0,1020.0,1021.0,1021.0,1022.0,1021.0,1022.0,1012.0,1020.0,1020.0,1021.0,1022.0,1022.0,1021.0,1022.0,1013.0,1020.0,1019.0,1020.0,1021.0,1021.0,1023.0,1021.0,1022.0,1012.0,1020.0,1021.0,1021.0,1021.0,1022.0,1023.0,1021.0,1022.0,1013.0,1020.0,1020.0,1020.0,1019.0,1021.0,1022.0,1023.0,1020.0,1022.0,1013.0,1020.0,1020.0,1021.0,1019.0,1022.0,1022.0,1022.0,1021.0,1022.0,1013.0,1020.0,1021.0,1022.0,1020.0,1021.0,1022.0,1023.0,1020.0,1022.0,1013.0,1020.0,1020.0,1021.0,1019.0,1021.0,1022.0,1022.0,1021.0,1022.0,1013.0,1020.0,1020.0,1021.0,1019.0,1021.0,1022.0,1022.0,1021.0,1023.0,1013.0,1020.0,1020.0,1021.0,1019.0,1021.0,1022.0,1022.0,1021.0,1022.0,1013.0,1020.0,1019.0,1021.0,1019.0,1022.0,1022.0,1023.0,1022.0,1024.0,1014.0,1021.0,1022.0,1024.0,1022.0,1023.0,1024.0,1021.0,1024.0,1014.0,1021.0,1022.0,1022.0,1023.0,1023.0,1021.0,1023.0,1014.0,1020.0,1022.0,1023.0,1024.0,1021.0,1024.0,1014.0,1021.0,1022.0,1023.0,1024.0,1022.0,1023.0,1015.0,1020.0,1021.0,1023.0,1023.0,1021.0,1023.0,1015.0,1021.0,1023.0,1023.0,1021.0,1021.0,1014.0,1022.0,1023.0,1024.0,1022.0,1024.0,1016.0,1022.0,1025.0,1024.0,1023.0,1026.0,1018.0,1021.0,1024.0,1024.0,1022.0,1024.0,1016.0,1023.0,1026.0,1025.0,1024.0,1027.0,1020.0,1024.0,1029.0,1028.0,1026.0,1030.0,1023.0,1024.0,1030.0,1028.0,1025.0,1029.0,1024.0,1024.0,1031.0,1030.0,1024.0,1030.0,1025.0,1026.0,1033.0,1032.0,1026.0,1031.0,1031.0,1027.0,1035.0,1036.0,1028.0,1033.0,1038.0,1025.0,1031.0,1034.0,1027.0,1028.0,1036.0,1026.0,1032.0,1041.0,1031.0,1032.0,1105.0,1025.0,1030.0,1040.0,1030.0,1030.0,2322,2210,1902,	00:28:46.626,-0.01220703125,0.07763671875,1.01953125,-0.1220703125,0.42724609375,0.18310546875,4.37255859375,0.7415771484375,-75.8056640625,61.0,-578.0,-3998.0,-0.788330078125,-0.0340576171875,0.018341064453125,0.614044189453125,4.370387825468584,0.7392559660458988,-80.01158132884866,-0.7652483969688398,-0.03335009296220081,0.019573787071713356,0.6425725866357079,1,	00:28:46.627,0.04052734375,0.015625,1.01953125,0.06103515625,0.54931640625,0.48828125,0.8953857421875,-2.2467041015625,31.1956787109375,-59.0,730.0,-1822.0,0.962921142578125,0.012786865234375,-0.01678466796875,0.268951416015625,0.8951965404061807,-2.24598459057093,24.690698394145752,0.9766264886173371,0.011820015788349987,-0.017474977574881957,0.2139056196468218,1
1782117235.764343,0.109,1017.0,1022.0,1020.0,1019.0,1022.0,1022.0,1021.0,1021.0,1013.0,1020.0,1021.0,1022.0,1021.0,1022.0,1013.0,1020.0,1020.0,1022.0,1022.0,1021.0,1022.0,1013.0,1020.0,1020.0,1021.0,1022.0,1022.0,1020.0,1022.0,1012.0,1019.0,1019.0,1020.0,1021.0,1022.0,1023.0,1021.0,1022.0,1013.0,1020.0,1020.0,1021.0,1020.0,1022.0,1022.0,1021.0,1022.0,1013.0,1020.0,1020.0,1021.0,1019.0,1021.0,1021.0,1023.0,1021.0,1022.0,1012.0,1019.0,1020.0,1021.0,1019.0,1022.0,1022.0,1022.0,1021.0,1023.0,1013.0,1021.0,1020.0,1021.0,1020.0,1021.0,1022.0,1023.0,1021.0,1022.0,1013.0,1020.0,1020.0,1022.0,1020.0,1021.0,1022.0,1023.0,1021.0,1022.0,1013.0,1020.0,1019.0,1021.0,1019.0,1021.0,1022.0,1023.0,1021.0,1022.0,1013.0,1020.0,1020.0,1021.0,1018.0,1021.0,1022.0,1022.0,1021.0,1022.0,1014.0,1020.0,1020.0,1020.0,1019.0,1022.0,1022.0,1023.0,1022.0,1024.0,1014.0,1022.0,1022.0,1023.0,1022.0,1023.0,1023.0,1021.0,1023.0,1014.0,1021.0,1020.0,1022.0,1023.0,1023.0,1022.0,1023.0,1015.0,1020.0,1022.0,1023.0,1023.0,1021.0,1024.0,1015.0,1021.0,1022.0,1022.0,1024.0,1022.0,1024.0,1015.0,1021.0,1022.0,1023.0,1023.0,1022.0,1024.0,1016.0,1022.0,1022.0,1023.0,1021.0,1021.0,1015.0,1022.0,1024.0,1024.0,1022.0,1024.0,1016.0,1022.0,1024.0,1025.0,1023.0,1026.0,1019.0,1022.0,1023.0,1024.0,1022.0,1024.0,1016.0,1023.0,1026.0,1025.0,1024.0,1026.0,1019.0,1024.0,1030.0,1028.0,1027.0,1031.0,1023.0,1024.0,1030.0,1028.0,1025.0,1030.0,1024.0,1024.0,1031.0,1030.0,1025.0,1030.0,1026.0,1027.0,1033.0,1032.0,1026.0,1031.0,1031.0,1028.0,1034.0,1037.0,1029.0,1033.0,1037.0,1025.0,1031.0,1034.0,1027.0,1028.0,1036.0,1026.0,1032.0,1041.0,1031.0,1031.0,1105.0,1025.0,1030.0,1039.0,1030.0,1031.0,2323,2210,1902,	00:28:46.636,-0.01171875,0.0771484375,1.01904296875,-0.1220703125,0.3662109375,0.1220703125,4.32861328125,0.6591796875,-75.8056640625,60.0,-577.0,-4001.0,-0.788360595703125,-0.0333251953125,0.018646240234375,0.614044189453125,4.328363311778971,0.660833063454438,-80.01058287514108,-0.7652859887691418,-0.03263010800303493,0.019861779189513214,0.642555944002368,1,	00:28:46.637,0.0400390625,0.01513671875,1.01953125,0.0,0.48828125,0.42724609375,0.802001953125,-2.2467041015625,31.201171875,-58.0,731.0,-1826.0,0.962921142578125,0.01202392578125,-0.016998291015625,0.269012451171875,0.8034614008265327,-2.246776119434854,24.698639040242174,0.976620671445781,0.011040882222222903,-0.017652193359084127,0.21395925568705887,1
1782117235.775790,0.120,1018.0,1021.0,1020.0,1019.0,1022.0,1022.0,1021.0,1022.0,1014.0,1020.0,1022.0,1022.0,1021.0,1022.0,1013.0,1020.0,1021.0,1022.0,1022.0,1021.0,1022.0,1013.0,1019.0,1020.0,1021.0,1022.0,1022.0,1021.0,1022.0,1013.0,1020.0,1019.0,1020.0,1021.0,1022.0,1022.0,1022.0,1022.0,1012.0,1020.0,1020.0,1021.0,1021.0,1022.0,1022.0,1021.0,1022.0,1013.0,1020.0,1019.0,1020.0,1019.0,1021.0,1021.0,1022.0,1021.0,1022.0,1013.0,1020.0,1020.0,1021.0,1019.0,1021.0,1022.0,1023.0,1022.0,1023.0,1013.0,1020.0,1020.0,1021.0,1020.0,1021.0,1022.0,1022.0,1021.0,1022.0,1013.0,1020.0,1020.0,1021.0,1020.0,1022.0,1021.0,1022.0,1021.0,1022.0,1013.0,1020.0,1019.0,1020.0,1019.0,1021.0,1022.0,1023.0,1021.0,1022.0,1013.0,1020.0,1019.0,1021.0,1019.0,1021.0,1022.0,1023.0,1021.0,1022.0,1013.0,1020.0,1019.0,1021.0,1019.0,1022.0,1022.0,1023.0,1022.0,1024.0,1014.0,1020.0,1022.0,1024.0,1022.0,1023.0,1023.0,1022.0,1023.0,1014.0,1021.0,1021.0,1021.0,1022.0,1024.0,1022.0,1023.0,1014.0,1020.0,1021.0,1023.0,1024.0,1022.0,1023.0,1015.0,1022.0,1022.0,1023.0,1024.0,1022.0,1024.0,1015.0,1021.0,1022.0,1022.0,1024.0,1021.0,1023.0,1016.0,1021.0,1022.0,1023.0,1021.0,1022.0,1014.0,1022.0,1023.0,1024.0,1022.0,1024.0,1016.0,1023.0,1025.0,1025.0,1024.0,1026.0,1018.0,1021.0,1023.0,1024.0,1023.0,1023.0,1016.0,1023.0,1026.0,1026.0,1025.0,1026.0,1020.0,1024.0,1030.0,1029.0,1027.0,1030.0,1024.0,1024.0,1030.0,1028.0,1025.0,1029.0,1024.0,1024.0,1030.0,1030.0,1025.0,1030.0,1026.0,1027.0,1033.0,1032.0,1027.0,1031.0,1031.0,1028.0,1035.0,1036.0,1029.0,1032.0,1038.0,1025.0,1031.0,1033.0,1027.0,1028.0,1036.0,1026.0,1032.0,1041.0,1031.0,1031.0,1105.0,1025.0,1031.0,1039.0,1030.0,1030.0,2323,2210,1901,	00:28:46.646,-0.01171875,0.07763671875,1.01904296875,-0.18310546875,0.42724609375,0.18310546875,4.41650390625,0.6536865234375,-75.8001708984375,60.0,-577.0,-4001.0,-0.788360595703125,-0.033905029296875,0.019195556640625,0.613983154296875,4.417142522515443,0.6525621634605545,-80.00739621732082,-0.7652804517328209,-0.03317721487738049,0.02041392236569385,0.6425172171873972,1,	00:28:46.647,0.041015625,0.01513671875,1.0205078125,0.0,0.48828125,0.3662109375,0.8624267578125,-2.3126220703125,31.201171875,-58.0,727.0,-1825.0,0.962890625,0.012664794921875,-0.01739501953125,0.26904296875,0.8626344710252511,-2.3117843959033224,24.70001293507982,0.9766003394638463,0.01166662716551956,-0.018095637023364464,0.2139818092511601,1
1782117235.785217,0.130,1017.0,1021.0,1020.0,1020.0,1022.0,1021.0,1021.0,1022.0,1013.0,1020.0,1022.0,1022.0,1021.0,1022.0,1013.0,1020.0,1020.0,1022.0,1021.0,1021.0,1021.0,1013.0,1020.0,1019.0,1020.0,1022.0,1022.0,1021.0,1022.0,1013.0,1020.0,1020.0,1020.0,1021.0,1023.0,1022.0,1021.0,1022.0,1013.0,1020.0,1020.0,1021.0,1021.0,1022.0,1021.0,1021.0,1022.0,1013.0,1020.0,1019.0,1020.0,1019.0,1021.0,1022.0,1022.0,1021.0,1022.0,1013.0,1020.0,1020.0,1020.0,1019.0,1022.0,1022.0,1022.0,1021.0,1022.0,1013.0,1021.0,1021.0,1022.0,1020.0,1022.0,1022.0,1022.0,1021.0,1022.0,1013.0,1020.0,1020.0,1021.0,1020.0,1021.0,1022.0,1022.0,1021.0,1023.0,1013.0,1020.0,1020.0,1020.0,1019.0,1021.0,1022.0,1023.0,1021.0,1022.0,1013.0,1020.0,1019.0,1020.0,1019.0,1021.0,1022.0,1022.0,1021.0,1022.0,1013.0,1020.0,1020.0,1021.0,1019.0,1022.0,1023.0,1023.0,1022.0,1024.0,1014.0,1021.0,1022.0,1023.0,1022.0,1022.0,1023.0,1021.0,1024.0,1014.0,1021.0,1021.0,1022.0,1023.0,1023.0,1021.0,1023.0,1014.0,1021.0,1022.0,1024.0,1023.0,1021.0,1025.0,1016.0,1021.0,1022.0,1023.0,1023.0,1022.0,1024.0,1015.0,1021.0,1022.0,1023.0,1023.0,1022.0,1024.0,1015.0,1021.0,1022.0,1022.0,1021.0,1022.0,1014.0,1022.0,1024.0,1023.0,1022.0,1024.0,1016.0,1023.0,1024.0,1024.0,1023.0,1026.0,1019.0,1022.0,1024.0,1024.0,1022.0,1024.0,1017.0,1024.0,1026.0,1025.0,1025.0,1027.0,1020.0,1025.0,1029.0,1027.0,1027.0,1031.0,1024.0,1025.0,1029.0,1028.0,1025.0,1030.0,1024.0,1026.0,1030.0,1029.0,1025.0,1029.0,1026.0,1029.0,1033.0,1032.0,1026.0,1031.0,1032.0,1029.0,1034.0,1035.0,1028.0,1033.0,1039.0,1026.0,1030.0,1032.0,1027.0,1029.0,1036.0,1028.0,1031.0,1039.0,1031.0,1031.0,1105.0,1026.0,1031.0,1038.0,1030.0,1030.0,2324,2210,1901,	00:28:46.657,-0.01220703125,0.07763671875,1.01904296875,-0.244140625,0.42724609375,0.18310546875,4.3341064453125,0.6976318359375,-75.8001708984375,61.0,-572.0,-4004.0,-0.788360595703125,-0.0335693359375,0.018402099609375,0.614013671875,4.33373206268418,0.6992567050278943,-80.00619773017286,-0.7652993748084711,-0.03288205486614827,0.019633923089546836,0.6425341597531267,1,	00:28:46.658,0.04052734375,0.0146484375,1.02001953125,0.0,0.42724609375,0.3662109375,0.7965087890625,-2.2467041015625,31.212158203125,-58.0,728.0,-1823.0,0.962890625,0.011962890625,-0.016998291015625,0.269073486328125,0.7950942519951643,-2.2454556059673023,24.70642136234047,0.9766071798432562,0.01096830871588532,-0.01765581623077811,0.21402426179230258,1
1782117235.795679,0.140,1018.0,1021.0,1020.0,1020.0,1022.0,1022.0,1021.0,1022.0,1014.0,1020.0,1022.0,1022.0,1021.0,1022.0,1013.0,1020.0,1021.0,1022.0,1022.0,1021.0,1022.0,1013.0,1019.0,1020.0,1020.0,1022.0,1022.0,1021.0,1022.0,1013.0,1020.0,1020.0,1020.0,1021.0,1022.0,1022.0,1021.0,1022.0,1013.0,1020.0,1020.0,1020.0,1021.0,1022.0,1022.0,1020.0,1022.0,1013.0,1020.0,1020.0,1020.0,1019.0,1021.0,1021.0,1022.0,1021.0,1022.0,1013.0,1020.0,1020.0,1021.0,1020.0,1022.0,1022.0,1022.0,1021.0,1023.0,1013.0,1020.0,1020.0,1021.0,1020.0,1021.0,1022.0,1022.0,1021.0,1022.0,1014.0,1020.0,1020.0,1021.0,1019.0,1021.0,1021.0,1022.0,1022.0,1022.0,1013.0,1020.0,1019.0,1021.0,1019.0,1021.0,1022.0,1023.0,1021.0,1022.0,1013.0,1020.0,1019.0,1020.0,1019.0,1021.0,1021.0,1022.0,1021.0,1023.0,1014.0,1020.0,1020.0,1020.0,1019.0,1022.0,1022.0,1022.0,1021.0,1024.0,1014.0,1021.0,1022.0,1024.0,1022.0,1022.0,1022.0,1021.0,1024.0,1015.0,1021.0,1021.0,1022.0,1022.0,1023.0,1021.0,1023.0,1015.0,1020.0,1022.0,1023.0,1023.0,1022.0,1025.0,1015.0,1021.0,1021.0,1023.0,1023.0,1022.0,1024.0,1015.0,1021.0,1021.0,1023.0,1022.0,1022.0,1024.0,1015.0,1021.0,1022.0,1022.0,1021.0,1022.0,1014.0,1022.0,1023.0,1023.0,1022.0,1024.0,1017.0,1022.0,1024.0,1024.0,1023.0,1026.0,1019.0,1022.0,1024.0,1023.0,1023.0,1024.0,1017.0,1023.0,1026.0,1025.0,1024.0,1027.0,1019.0,1023.0,1029.0,1027.0,1027.0,1031.0,1024.0,1024.0,1030.0,1028.0,1025.0,1030.0,1025.0,1025.0,1030.0,1029.0,1025.0,1029.0,1026.0,1027.0,1032.0,1032.0,1026.0,1032.0,1031.0,1028.0,1034.0,1034.0,1029.0,1032.0,1037.0,1026.0,1031.0,1032.0,1027.0,1028.0,1036.0,1026.0,1031.0,1039.0,1032.0,1031.0,1105.0,1025.0,1031.0,1037.0,1030.0,1031.0,2324,2210,1901,	00:28:46.667,-0.01123046875,0.07666015625,1.0205078125,-0.18310546875,0.3662109375,0.1220703125,4.2901611328125,0.6207275390625,-75.8001708984375,62.0,-577.0,-4002.0,-0.788421630859375,-0.032867431640625,0.018707275390625,0.613983154296875,4.288688536988379,0.6220826993401445,-80.00520087515032,-0.7653370011389985,-0.032148897789672455,0.01989668356532736,0.6425183616376849,1,	00:28:46.668,0.0400390625,0.01513671875,1.02001953125,0.0,0.42724609375,0.42724609375,0.8843994140625,-2.2467041015625,31.212158203125,-59.0,729.0,-1827.0,0.962890625,0.012725830078125,-0.01678466796875,0.26910400390625,0.8865836264427998,-2.244884854357783,24.70716516923196,0.9765968257659188,0.01174707269061533,-0.01747999387307274,0.2140446121754304,1
1782117235.806980,0.151,1018.0,1021.0,1020.0,1020.0,1022.0,1021.0,1021.0,1022.0,1014.0,1020.0,1022.0,1021.0,1021.0,1022.0,1014.0,1020.0,1020.0,1022.0,1022.0,1021.0,1022.0,1014.0,1020.0,1020.0,1020.0,1022.0,1022.0,1021.0,1022.0,1013.0,1020.0,1020.0,1020.0,1021.0,1022.0,1021.0,1021.0,1022.0,1014.0,1020.0,1020.0,1021.0,1020.0,1022.0,1021.0,1021.0,1021.0,1013.0,1020.0,1019.0,1020.0,1019.0,1021.0,1022.0,1021.0,1021.0,1022.0,1014.0,1020.0,1020.0,1021.0,1019.0,1022.0,1022.0,1022.0,1021.0,1023.0,1014.0,1020.0,1021.0,1021.0,1020.0,1021.0,1022.0,1022.0,1021.0,1022.0,1014.0,1020.0,1020.0,1021.0,1020.0,1021.0,1022.0,1022.0,1021.0,1022.0,1013.0,1020.0,1020.0,1021.0,1019.0,1021.0,1022.0,1022.0,1021.0,1022.0,1013.0,1020.0,1020.0,1021.0,1019.0,1021.0,1022.0,1022.0,1021.0,1022.0,1013.0,1020.0,1019.0,1021.0,1019.0,1022.0,1023.0,1023.0,1022.0,1024.0,1015.0,1021.0,1022.0,1023.0,1022.0,1023.0,1023.0,1021.0,1024.0,1015.0,1020.0,1021.0,1022.0,1022.0,1022.0,1021.0,1024.0,1014.0,1021.0,1022.0,1023.0,1023.0,1022.0,1025.0,1016.0,1021.0,1021.0,1023.0,1023.0,1022.0,1024.0,1015.0,1021.0,1021.0,1023.0,1023.0,1022.0,1024.0,1016.0,1021.0,1022.0,1022.0,1021.0,1022.0,1015.0,1022.0,1023.0,1023.0,1022.0,1024.0,1017.0,1023.0,1025.0,1024.0,1023.0,1027.0,1019.0,1021.0,1024.0,1023.0,1022.0,1024.0,1017.0,1023.0,1026.0,1024.0,1024.0,1026.0,1021.0,1024.0,1029.0,1026.0,1027.0,1030.0,1025.0,1024.0,1029.0,1027.0,1025.0,1029.0,1026.0,1024.0,1030.0,1028.0,1025.0,1030.0,1027.0,1028.0,1033.0,1031.0,1025.0,1030.0,1032.0,1028.0,1034.0,1034.0,1028.0,1032.0,1038.0,1026.0,1031.0,1032.0,1027.0,1028.0,1037.0,1027.0,1032.0,1040.0,1031.0,1029.0,1106.0,1025.0,1030.0,1038.0,1030.0,1029.0,2325,2210,1902,	00:28:46.677,-0.01171875,0.0771484375,1.01953125,-0.244140625,0.30517578125,0.18310546875,4.3560791015625,0.6866455078125,-75.794677734375,62.0,-576.0,-4002.0,-0.78839111328125,-0.033660888671875,0.01861572265625,0.613983154296875,4.3544637472782055,0.6859817680042466,-80.00236964134331,-0.7653182424675724,-0.0329467800737491,0.019837758521425813,0.6425021095420338,1,	00:28:46.678,0.03955078125,0.0146484375,1.01953125,-0.1220703125,0.244140625,0.3662109375,0.7965087890625,-2.208251953125,31.2176513671875,-58.0,727.0,-1824.0,0.962890625,0.01190185546875,-0.016693115234375,0.269134521484375,0.7992526193125441,-2.2105812983148914,24.71420873019315,0.9765984681216786,0.010939872831243655,-0.017350071208293766,0.21409046282796906,1
1782117235.815504,0.160,1018.0,1020.0,1019.0,1020.0,1021.0,1021.0,1020.0,1021.0,1013.0,1020.0,1022.0,1021.0,1021.0,1021.0,1014.0,1020.0,1021.0,1022.0,1021.0,1021.0,1022.0,1014.0,1020.0,1020.0,1020.0,1022.0,1021.0,1020.0,1022.0,1014.0,1020.0,1019.0,1021.0,1021.0,1022.0,1022.0,1021.0,1022.0,1013.0,1020.0,1020.0,1021.0,1021.0,1022.0,1022.0,1021.0,1022.0,1013.0,1020.0,1020.0,1021.0,1018.0,1021.0,1022.0,1022.0,1021.0,1021.0,1013.0,1020.0,1020.0,1021.0,1019.0,1022.0,1022.0,1022.0,1021.0,1023.0,1014.0,1020.0,1020.0,1022.0,1020.0,1021.0,1022.0,1022.0,1021.0,1022.0,1014.0,1020.0,1020.0,1022.0,1019.0,1021.0,1022.0,1022.0,1021.0,1023.0,1013.0,1020.0,1019.0,1021.0,1019.0,1021.0,1022.0,1022.0,1020.0,1022.0,1014.0,1020.0,1020.0,1021.0,1019.0,1021.0,1022.0,1022.0,1021.0,1022.0,1013.0,1020.0,1019.0,1021.0,1019.0,1022.0,1022.0,1023.0,1021.0,1024.0,1014.0,1021.0,1022.0,1024.0,1021.0,1022.0,1023.0,1021.0,1024.0,1015.0,1021.0,1021.0,1022.0,1022.0,1023.0,1021.0,1023.0,1014.0,1020.0,1022.0,1023.0,1023.0,1021.0,1024.0,1016.0,1021.0,1022.0,1023.0,1023.0,1021.0,1023.0,1016.0,1020.0,1021.0,1023.0,1023.0,1021.0,1024.0,1015.0,1021.0,1022.0,1023.0,1021.0,1022.0,1015.0,1022.0,1023.0,1023.0,1021.0,1024.0,1016.0,1022.0,1024.0,1024.0,1023.0,1026.0,1019.0,1021.0,1024.0,1023.0,1022.0,1023.0,1017.0,1023.0,1026.0,1025.0,1024.0,1026.0,1020.0,1024.0,1029.0,1027.0,1026.0,1031.0,1024.0,1024.0,1029.0,1027.0,1025.0,1029.0,1024.0,1025.0,1030.0,1028.0,1024.0,1029.0,1027.0,1027.0,1033.0,1031.0,1025.0,1031.0,1032.0,1028.0,1034.0,1035.0,1027.0,1032.0,1038.0,1026.0,1032.0,1032.0,1026.0,1028.0,1036.0,1027.0,1032.0,1040.0,1030.0,1030.0,1105.0,1026.0,1031.0,1038.0,1030.0,1030.0,2325,2210,1901,	00:28:46.687,-0.01171875,0.0771484375,1.01904296875,-0.30517578125,0.1220703125,0.1220703125,4.2901611328125,0.615234375,-75.794677734375,62.0,-577.0,-4002.0,-0.788421630859375,-0.032867431640625,0.01873779296875,0.61395263671875,4.291610297865991,0.6178365188685185,-80.00173840100705,-0.7653566403062022,-0.03214521731372485,0.019940463813926234,0.6424937945583145,1,	00:28:46.688,0.04052734375,0.01513671875,1.0205078125,-0.1220703125,0.18310546875,0.3662109375,0.85693359375,-2.2796630859375,31.2176513671875,-58.0,729.0,-1825.0,0.962860107421875,0.012542724609375,-0.01715087890625,0.2691650390625,0.8550182327439159,-2.2804403777902276,24.715661100105418,0.9765776732618487,0.011545704865641652,-0.017841136458557505,0.21411314447155338,1
1782117235.826212,0.171,1018.0,1021.0,1019.0,1020.0,1022.0,1021.0,1020.0,1022.0,1013.0,1020.0,1023.0,1021.0,1020.0,1021.0,1013.0,1019.0,1021.0,1023.0,1021.0,1021.0,1022.0,1013.0,1020.0,1020.0,1020.0,1022.0,1021.0,1020.0,1022.0,1013.0,1020.0,1019.0,1020.0,1021.0,1023.0,1022.0,1021.0,1022.0,1013.0,1020.0,1019.0,1021.0,1021.0,1023.0,1022.0,1021.0,1022.0,1013.0,1020.0,1020.0,1020.0,1019.0,1021.0,1023.0,1022.0,1021.0,1022.0,1013.0,1019.0,1020.0,1020.0,1019.0,1022.0,1023.0,1022.0,1021.0,1023.0,1013.0,1020.0,1021.0,1021.0,1020.0,1022.0,1023.0,1022.0,1021.0,1022.0,1013.0,1020.0,1020.0,1021.0,1019.0,1021.0,1023.0,1021.0,1021.0,1022.0,1013.0,1020.0,1020.0,1020.0,1019.0,1021.0,1023.0,1022.0,1021.0,1022.0,1013.0,1020.0,1020.0,1020.0,1018.0,1021.0,1022.0,1022.0,1020.0,1022.0,1013.0,1020.0,1020.0,1021.0,1019.0,1022.0,1023.0,1022.0,1021.0,1024.0,1015.0,1021.0,1022.0,1023.0,1021.0,1023.0,1023.0,1021.0,1024.0,1015.0,1021.0,1020.0,1021.0,1023.0,1023.0,1021.0,1023.0,1014.0,1020.0,1022.0,1024.0,1023.0,1022.0,1024.0,1015.0,1021.0,1021.0,1024.0,1023.0,1022.0,1024.0,1015.0,1020.0,1021.0,1023.0,1023.0,1022.0,1024.0,1015.0,1021.0,1024.0,1022.0,1021.0,1021.0,1015.0,1022.0,1025.0,1023.0,1021.0,1024.0,1016.0,1021.0,1026.0,1024.0,1023.0,1026.0,1019.0,1020.0,1024.0,1023.0,1023.0,1024.0,1016.0,1022.0,1028.0,1025.0,1024.0,1026.0,1020.0,1023.0,1031.0,1027.0,1027.0,1030.0,1024.0,1023.0,1031.0,1027.0,1025.0,1029.0,1024.0,1024.0,1033.0,1029.0,1025.0,1030.0,1025.0,1027.0,1035.0,1031.0,1026.0,1031.0,1032.0,1028.0,1037.0,1035.0,1028.0,1032.0,1037.0,1025.0,1033.0,1032.0,1027.0,1027.0,1036.0,1026.0,1034.0,1040.0,1030.0,1030.0,1105.0,1025.0,1033.0,1038.0,1030.0,1029.0,2326,2210,1901,	00:28:46.698,-0.01220703125,0.07666015625,1.01953125,-0.42724609375,0.0,0.1220703125,4.3011474609375,0.7086181640625,-75.794677734375,60.0,-578.0,-3996.0,-0.788421630859375,-0.03338623046875,0.018157958984375,0.613983154296875,4.298965014116247,0.7086596503720166,-80.00039000616793,-0.7653395160646839,-0.032703539210560094,0.019374497473428193,0.6425033326922367,1,	00:28:46.699,0.0400390625,0.015625,1.0205078125,-0.1220703125,0.1220703125,0.42724609375,0.9063720703125,-2.2027587890625,31.22314453125,-57.0,729.0,-1825.0,0.962860107421875,0.01275634765625,-0.016387939453125,0.269195556640625,0.9038121575601116,-2.2025744146931645,24.717991001789557,0.9765824441205256,0.011816593837514558,-0.01708608430979611,0.21413818825379574,1
1782117235.837222,0.182,1017.0,1021.0,1020.0,1020.0,1023.0,1021.0,1021.0,1021.0,1013.0,1020.0,1023.0,1021.0,1021.0,1021.0,1012.0,1020.0,1020.0,1023.0,1021.0,1020.0,1022.0,1013.0,1020.0,1020.0,1020.0,1023.0,1022.0,1021.0,1021.0,1012.0,1020.0,1019.0,1020.0,1021.0,1023.0,1021.0,1021.0,1021.0,1012.0,1021.0,1020.0,1020.0,1021.0,1022.0,1021.0,1021.0,1021.0,1013.0,1020.0,1020.0,1020.0,1019.0,1021.0,1023.0,1021.0,1021.0,1022.0,1013.0,1020.0,1019.0,1021.0,1019.0,1021.0,1023.0,1021.0,1022.0,1023.0,1013.0,1020.0,1020.0,1022.0,1021.0,1020.0,1023.0,1022.0,1021.0,1022.0,1013.0,1020.0,1020.0,1021.0,1019.0,1021.0,1023.0,1022.0,1021.0,1022.0,1013.0,1020.0,1020.0,1021.0,1019.0,1020.0,1023.0,1022.0,1022.0,1022.0,1013.0,1020.0,1020.0,1020.0,1019.0,1021.0,1023.0,1022.0,1021.0,1021.0,1013.0,1020.0,1019.0,1020.0,1019.0,1021.0,1023.0,1023.0,1022.0,1024.0,1014.0,1021.0,1022.0,1023.0,1021.0,1024.0,1023.0,1022.0,1024.0,1015.0,1021.0,1021.0,1022.0,1024.0,1022.0,1022.0,1023.0,1014.0,1020.0,1022.0,1024.0,1023.0,1022.0,1024.0,1015.0,1021.0,1021.0,1023.0,1022.0,1022.0,1023.0,1015.0,1021.0,1021.0,1024.0,1022.0,1022.0,1023.0,1015.0,1021.0,1023.0,1022.0,1021.0,1021.0,1014.0,1022.0,1024.0,1023.0,1023.0,1024.0,1016.0,1023.0,1026.0,1024.0,1024.0,1026.0,1019.0,1022.0,1024.0,1023.0,1022.0,1024.0,1017.0,1023.0,1027.0,1024.0,1025.0,1025.0,1020.0,1025.0,1031.0,1026.0,1027.0,1030.0,1024.0,1024.0,1031.0,1027.0,1026.0,1028.0,1024.0,1025.0,1032.0,1028.0,1026.0,1029.0,1025.0,1027.0,1034.0,1031.0,1026.0,1031.0,1031.0,1029.0,1037.0,1035.0,1028.0,1030.0,1038.0,1025.0,1033.0,1032.0,1027.0,1027.0,1035.0,1027.0,1033.0,1041.0,1031.0,1029.0,1103.0,1025.0,1032.0,1039.0,1031.0,1028.0,2326,2210,1902,	00:28:46.708,-0.01220703125,0.0771484375,1.01953125,-0.79345703125,-0.06103515625,0.1220703125,4.361572265625,0.648193359375,-75.7891845703125,60.0,-577.0,-4004.0,-0.788421630859375,-0.033477783203125,0.0189208984375,0.61395263671875,4.3602008122218745,0.6479449399712994,-79.99839556307367,-0.765348468867623,-0.032772639902720065,0.020122919657836233,0.642466141816233,1,	00:28:46.709,0.04052734375,0.01513671875,1.01953125,-0.18310546875,0.1220703125,0.42724609375,0.845947265625,-2.274169921875,31.2286376953125,-58.0,728.0,-1823.0,0.96282958984375,0.012481689453125,-0.017120361328125,0.26922607421875,0.8480677798999419,-2.275685467471938,24.72438651672545,0.9765629370940343,0.011478955193657868,-0.017812724093010154,0.2141862982133111,1
1782117235.846653,0.191,1018.0,1021.0,1020.0,1020.0,1023.0,1021.0,1020.0,1021.0,1013.0,1020.0,1023.0,1021.0,1021.0,1022.0,1012.0,1020.0,1020.0,1023.0,1022.0,1022.0,1022.0,1013.0,1020.0,1020.0,1020.0,1022.0,1022.0,1021.0,1021.0,1012.0,1020.0,1019.0,1020.0,1020.0,1023.0,1022.0,1021.0,1022.0,1013.0,1020.0,1020.0,1021.0,1021.0,1023.0,1022.0,1021.0,1022.0,1013.0,1020.0,1019.0,1019.0,1019.0,1020.0,1023.0,1022.0,1021.0,1022.0,1012.0,1020.0,1020.0,1020.0,1019.0,1021.0,1023.0,1022.0,1021.0,1023.0,1013.0,1020.0,1021.0,1022.0,1021.0,1020.0,1023.0,1022.0,1021.0,1022.0,1013.0,1021.0,1020.0,1022.0,1019.0,1020.0,1023.0,1022.0,1021.0,1022.0,1013.0,1020.0,1019.0,1020.0,1019.0,1020.0,1023.0,1022.0,1021.0,1022.0,1013.0,1020.0,1020.0,1021.0,1019.0,1021.0,1023.0,1022.0,1021.0,1022.0,1012.0,1020.0,1020.0,1021.0,1019.0,1021.0,1024.0,1023.0,1022.0,1023.0,1014.0,1021.0,1022.0,1023.0,1021.0,1024.0,1023.0,1022.0,1023.0,1014.0,1020.0,1021.0,1021.0,1024.0,1023.0,1021.0,1022.0,1014.0,1020.0,1021.0,1024.0,1023.0,1021.0,1024.0,1014.0,1021.0,1021.0,1024.0,1022.0,1022.0,1023.0,1015.0,1021.0,1021.0,1024.0,1023.0,1022.0,1023.0,1015.0,1021.0,1024.0,1022.0,1021.0,1022.0,1013.0,1021.0,1024.0,1023.0,1023.0,1024.0,1016.0,1022.0,1026.0,1024.0,1023.0,1026.0,1018.0,1021.0,1025.0,1023.0,1022.0,1023.0,1016.0,1023.0,1027.0,1025.0,1024.0,1026.0,1020.0,1024.0,1031.0,1026.0,1027.0,1029.0,1024.0,1024.0,1031.0,1027.0,1025.0,1028.0,1024.0,1024.0,1032.0,1029.0,1024.0,1028.0,1026.0,1027.0,1035.0,1031.0,1026.0,1030.0,1032.0,1028.0,1037.0,1034.0,1027.0,1031.0,1038.0,1026.0,1032.0,1032.0,1027.0,1027.0,1036.0,1026.0,1034.0,1039.0,1031.0,1030.0,1105.0,1025.0,1033.0,1037.0,1031.0,1029.0,2327,2210,1902,	00:28:46.718,-0.01123046875,0.07666015625,1.01904296875,-0.9765625,-0.244140625,0.18310546875,4.2626953125,0.615234375,-75.7891845703125,59.0,-575.0,-4000.0,-0.7884521484375,-0.03265380859375,0.018585205078125,0.61395263671875,4.26326436226759,0.6178777082872583,-79.99771575923563,-0.7653871123266272,-0.031956819140713584,0.019780135753267362,0.6424718485850542,1,	00:28:46.719,0.04052734375,0.0146484375,1.02001953125,-0.244140625,-0.06103515625,0.42724609375,0.7525634765625,-2.274169921875,31.234130859375,-57.0,727.0,-1822.0,0.96282958984375,0.011688232421875,-0.017333984375,0.269287109375,0.7537516133301754,-2.274016659142336,24.732292935932204,0.9765575776916756,0.010673302658006076,-0.01797404792207121,0.21423891258273492,1
1782117235.856169,0.201,1018.0,1021.0,1020.0,1020.0,1023.0,1022.0,1021.0,1021.0,1013.0,1020.0,1023.0,1022.0,1021.0,1021.0,1013.0,1020.0,1021.0,1023.0,1022.0,1021.0,1022.0,1013.0,1020.0,1020.0,1020.0,1023.0,1022.0,1021.0,1021.0,1012.0,1019.0,1020.0,1020.0,1020.0,1023.0,1022.0,1021.0,1021.0,1012.0,1020.0,1020.0,1020.0,1020.0,1023.0,1022.0,1021.0,1022.0,1013.0,1020.0,1020.0,1020.0,1019.0,1021.0,1023.0,1022.0,1021.0,1022.0,1013.0,1020.0,1020.0,1020.0,1019.0,1020.0,1023.0,1022.0,1021.0,1022.0,1013.0,1020.0,1021.0,1021.0,1021.0,1020.0,1023.0,1021.0,1021.0,1022.0,1014.0,1020.0,1020.0,1021.0,1019.0,1021.0,1023.0,1022.0,1021.0,1022.0,1013.0,1020.0,1020.0,1020.0,1019.0,1021.0,1023.0,1022.0,1021.0,1021.0,1013.0,1020.0,1019.0,1020.0,1019.0,1021.0,1023.0,1022.0,1021.0,1022.0,1013.0,1020.0,1020.0,1020.0,1019.0,1022.0,1024.0,1022.0,1022.0,1024.0,1015.0,1021.0,1022.0,1023.0,1022.0,1024.0,1023.0,1022.0,1023.0,1014.0,1021.0,1021.0,1021.0,1024.0,1023.0,1022.0,1022.0,1014.0,1020.0,1021.0,1024.0,1022.0,1022.0,1024.0,1015.0,1021.0,1021.0,1024.0,1022.0,1021.0,1024.0,1015.0,1021.0,1021.0,1024.0,1022.0,1021.0,1023.0,1015.0,1021.0,1024.0,1022.0,1021.0,1022.0,1014.0,1022.0,1025.0,1023.0,1021.0,1024.0,1016.0,1022.0,1026.0,1024.0,1023.0,1026.0,1018.0,1021.0,1025.0,1023.0,1022.0,1024.0,1017.0,1023.0,1028.0,1024.0,1024.0,1026.0,1020.0,1025.0,1031.0,1026.0,1026.0,1029.0,1024.0,1024.0,1031.0,1026.0,1024.0,1028.0,1024.0,1025.0,1032.0,1028.0,1025.0,1028.0,1026.0,1028.0,1034.0,1031.0,1025.0,1030.0,1032.0,1029.0,1036.0,1034.0,1028.0,1031.0,1038.0,1025.0,1033.0,1032.0,1027.0,1027.0,1036.0,1027.0,1033.0,1039.0,1031.0,1029.0,1104.0,1025.0,1032.0,1037.0,1031.0,1029.0,2327,2210,1901,	00:28:46.728,-0.01171875,0.0771484375,1.01953125,-1.03759765625,-0.244140625,0.1220703125,4.32861328125,0.6646728515625,-75.7891845703125,59.0,-574.0,-4002.0,-0.788421630859375,-0.033355712890625,0.018646240234375,0.613922119140625,4.331140629774696,0.662704745705825,-79.99580964302857,-0.7653675611717992,-0.032661706427153187,0.0198606376223519,0.6424572081566461,1,	00:28:46.729,0.04052734375,0.015625,1.0205078125,-0.18310546875,-0.1220703125,0.42724609375,0.845947265625,-2.274169921875,31.234130859375,-60.0,729.0,-1824.0,0.96282958984375,0.012420654296875,-0.01715087890625,0.269317626953125,0.8434881940785125,-2.2752270108588224,24.73291134440559,0.9765475423192945,0.011440397098089762,-0.017816525598875005,0.2142582234593771,1
1782117235.866739,0.211,1017.0,1021.0,1020.0,1019.0,1023.0,1022.0,1021.0,1021.0,1014.0,1020.0,1023.0,1021.0,1021.0,1022.0,1014.0,1019.0,1020.0,1022.0,1022.0,1020.0,1022.0,1013.0,1020.0,1020.0,1020.0,1023.0,1021.0,1021.0,1021.0,1013.0,1020.0,1020.0,1020.0,1021.0,1023.0,1022.0,1021.0,1022.0,1013.0,1020.0,1020.0,1020.0,1020.0,1022.0,1022.0,1021.0,1021.0,1014.0,1020.0,1019.0,1020.0,1019.0,1020.0,1023.0,1021.0,1021.0,1022.0,1013.0,1020.0,1020.0,1020.0,1019.0,1020.0,1023.0,1022.0,1021.0,1022.0,1014.0,1020.0,1021.0,1021.0,1021.0,1020.0,1023.0,1023.0,1021.0,1022.0,1013.0,1020.0,1020.0,1021.0,1019.0,1020.0,1023.0,1022.0,1021.0,1022.0,1013.0,1020.0,1020.0,1020.0,1019.0,1020.0,1023.0,1022.0,1021.0,1022.0,1014.0,1020.0,1019.0,1020.0,1019.0,1020.0,1023.0,1022.0,1021.0,1022.0,1013.0,1020.0,1020.0,1020.0,1019.0,1021.0,1023.0,1023.0,1021.0,1024.0,1015.0,1021.0,1022.0,1024.0,1021.0,1024.0,1023.0,1021.0,1023.0,1015.0,1021.0,1020.0,1021.0,1023.0,1022.0,1022.0,1023.0,1015.0,1021.0,1021.0,1023.0,1023.0,1022.0,1024.0,1016.0,1021.0,1021.0,1024.0,1023.0,1021.0,1022.0,1015.0,1021.0,1020.0,1024.0,1023.0,1021.0,1023.0,1016.0,1021.0,1024.0,1022.0,1021.0,1021.0,1014.0,1022.0,1025.0,1024.0,1022.0,1024.0,1017.0,1022.0,1026.0,1024.0,1022.0,1025.0,1019.0,1021.0,1024.0,1023.0,1022.0,1023.0,1017.0,1023.0,1027.0,1025.0,1023.0,1026.0,1021.0,1023.0,1030.0,1027.0,1025.0,1029.0,1024.0,1024.0,1030.0,1027.0,1024.0,1028.0,1024.0,1024.0,1032.0,1028.0,1024.0,1028.0,1027.0,1026.0,1034.0,1032.0,1025.0,1029.0,1032.0,1027.0,1036.0,1035.0,1027.0,1030.0,1039.0,1024.0,1032.0,1031.0,1026.0,1027.0,1036.0,1026.0,1033.0,1038.0,1030.0,1029.0,1106.0,1024.0,1032.0,1037.0,1029.0,1029.0,2328,2210,1902,	00:28:46.739,-0.0107421875,0.0771484375,1.01953125,-1.03759765625,-0.18310546875,0.1220703125,4.317626953125,0.5712890625,-75.7891845703125,58.0,-575.0,-4001.0,-0.788482666015625,-0.032745361328125,0.019195556640625,0.6138916015625,4.3150733555396075,0.569302037153456,-79.99478349589057,-0.7654009638119367,-0.032031170821909496,0.02039433997405339,0.642432439707522,1,	00:28:46.740,0.04150390625,0.015625,1.01904296875,-0.30517578125,-0.30517578125,0.42724609375,0.889892578125,-2.3565673828125,31.2396240234375,-57.0,729.0,-1825.0,0.962799072265625,0.01300048828125,-0.0177001953125,0.269317626953125,0.8883036771304184,-2.356349775782812,24.73520292893967,0.9765235600237145,0.011974150376289454,-0.018423856707228736,0.21428699901162512,1
1782117235.876804,0.221,1017.0,1020.0,1020.0,1019.0,1023.0,1021.0,1020.0,1021.0,1014.0,1020.0,1022.0,1021.0,1021.0,1021.0,1013.0,1020.0,1020.0,1023.0,1022.0,1021.0,1022.0,1013.0,1020.0,1020.0,1020.0,1023.0,1021.0,1021.0,1021.0,1013.0,1020.0,1019.0,1021.0,1020.0,1022.0,1022.0,1021.0,1022.0,1013.0,1020.0,1019.0,1022.0,1020.0,1023.0,1022.0,1021.0,1022.0,1013.0,1020.0,1019.0,1021.0,1019.0,1020.0,1022.0,1021.0,1021.0,1022.0,1013.0,1020.0,1019.0,1021.0,1019.0,1020.0,1023.0,1021.0,1021.0,1022.0,1014.0,1020.0,1020.0,1023.0,1020.0,1021.0,1023.0,1022.0,1021.0,1022.0,1014.0,1020.0,1019.0,1022.0,1020.0,1021.0,1023.0,1022.0,1021.0,1022.0,1013.0,1020.0,1020.0,1021.0,1019.0,1020.0,1023.0,1021.0,1021.0,1022.0,1014.0,1020.0,1020.0,1021.0,1019.0,1021.0,1023.0,1022.0,1020.0,1021.0,1014.0,1020.0,1019.0,1021.0,1019.0,1021.0,1023.0,1022.0,1021.0,1024.0,1015.0,1020.0,1022.0,1024.0,1021.0,1023.0,1022.0,1021.0,1023.0,1015.0,1020.0,1021.0,1022.0,1023.0,1023.0,1022.0,1023.0,1015.0,1021.0,1022.0,1023.0,1022.0,1021.0,1024.0,1016.0,1021.0,1021.0,1023.0,1022.0,1021.0,1023.0,1016.0,1020.0,1021.0,1023.0,1022.0,1021.0,1023.0,1016.0,1021.0,1023.0,1022.0,1021.0,1021.0,1015.0,1022.0,1024.0,1023.0,1022.0,1024.0,1017.0,1022.0,1024.0,1024.0,1022.0,1026.0,1020.0,1021.0,1024.0,1023.0,1022.0,1024.0,1017.0,1023.0,1027.0,1024.0,1023.0,1027.0,1021.0,1024.0,1030.0,1027.0,1025.0,1030.0,1025.0,1024.0,1029.0,1027.0,1024.0,1029.0,1025.0,1025.0,1031.0,1028.0,1024.0,1029.0,1026.0,1026.0,1033.0,1030.0,1026.0,1030.0,1032.0,1028.0,1035.0,1034.0,1026.0,1031.0,1039.0,1025.0,1031.0,1031.0,1026.0,1028.0,1036.0,1026.0,1032.0,1037.0,1030.0,1030.0,1105.0,1025.0,1031.0,1036.0,1030.0,1029.0,2328,2209,1902,	00:28:46.749,-0.0126953125,0.0751953125,1.02099609375,-1.0986328125,-0.18310546875,0.06103515625,4.251708984375,0.6427001953125,-75.7891845703125,60.0,-572.0,-4004.0,-0.788482666015625,-0.032684326171875,0.01837158203125,0.613922119140625,4.250124535319805,0.6414660563460847,-79.99488972394306,-0.765400844048413,-0.03200172442118004,0.019548069483289694,0.6424603571766309,1,	00:28:46.750,0.0419921875,0.015625,1.0205078125,-0.18310546875,-0.3662109375,0.3662109375,0.7965087890625,-2.3565673828125,31.2451171875,-58.0,727.0,-1821.0,0.962799072265625,0.01220703125,-0.0179443359375,0.269378662109375,0.7946252754495039,-2.357344454617983,24.742581891067115,0.9765190355428857,0.01117889582715527,-0.018606787013930225,0.2143347684989447,1
1782117235.887608,0.232,1018.0,1021.0,1020.0,1019.0,1022.0,1021.0,1020.0,1021.0,1014.0,1020.0,1023.0,1022.0,1021.0,1021.0,1013.0,1020.0,1020.0,1022.0,1022.0,1021.0,1022.0,1013.0,1020.0,1020.0,1020.0,1022.0,1022.0,1021.0,1021.0,1013.0,1020.0,1019.0,1020.0,1020.0,1022.0,1022.0,1021.0,1022.0,1013.0,1020.0,1020.0,1021.0,1020.0,1022.0,1022.0,1021.0,1022.0,1013.0,1020.0,1020.0,1020.0,1019.0,1021.0,1021.0,1022.0,1021.0,1021.0,1014.0,1019.0,1020.0,1021.0,1019.0,1020.0,1022.0,1022.0,1021.0,1022.0,1013.0,1020.0,1020.0,1022.0,1020.0,1021.0,1021.0,1022.0,1021.0,1022.0,1014.0,1020.0,1020.0,1021.0,1019.0,1021.0,1022.0,1022.0,1021.0,1022.0,1013.0,1020.0,1019.0,1020.0,1019.0,1021.0,1022.0,1022.0,1020.0,1021.0,1013.0,1020.0,1019.0,1020.0,1019.0,1021.0,1022.0,1022.0,1021.0,1022.0,1013.0,1021.0,1020.0,1021.0,1019.0,1021.0,1022.0,1023.0,1021.0,1024.0,1015.0,1021.0,1022.0,1024.0,1021.0,1023.0,1022.0,1021.0,1023.0,1014.0,1021.0,1021.0,1022.0,1022.0,1023.0,1021.0,1022.0,1015.0,1021.0,1021.0,1023.0,1023.0,1021.0,1024.0,1016.0,1021.0,1022.0,1023.0,1023.0,1021.0,1023.0,1015.0,1021.0,1021.0,1023.0,1022.0,1021.0,1023.0,1015.0,1021.0,1023.0,1023.0,1021.0,1021.0,1014.0,1022.0,1024.0,1023.0,1021.0,1024.0,1017.0,1023.0,1025.0,1024.0,1023.0,1026.0,1019.0,1021.0,1024.0,1023.0,1021.0,1023.0,1017.0,1023.0,1027.0,1024.0,1024.0,1026.0,1021.0,1024.0,1030.0,1026.0,1026.0,1029.0,1024.0,1024.0,1030.0,1026.0,1024.0,1028.0,1024.0,1025.0,1031.0,1028.0,1024.0,1029.0,1026.0,1027.0,1033.0,1031.0,1025.0,1029.0,1032.0,1028.0,1035.0,1035.0,1027.0,1032.0,1038.0,1026.0,1032.0,1032.0,1026.0,1027.0,1036.0,1026.0,1032.0,1039.0,1029.0,1030.0,1104.0,1026.0,1031.0,1037.0,1029.0,1029.0,2328,2209,1901,	00:28:46.759,-0.009765625,0.0771484375,1.0205078125,-1.03759765625,-0.1220703125,0.1220703125,4.295654296875,0.5657958984375,-75.78369140625,59.0,-572.0,-4005.0,-0.788482666015625,-0.032623291015625,0.01910400390625,0.6138916015625,4.295719938357373,0.56762318735835,-79.99316570610549,-0.7654158409649716,-0.03189278004200169,0.02029660600431152,0.6424246950155198,1,	00:28:46.760,0.04150390625,0.01513671875,1.02099609375,-0.244140625,-0.244140625,0.42724609375,0.8734130859375,-2.318115234375,31.2451171875,-60.0,728.0,-1825.0,0.962799072265625,0.012786865234375,-0.017425537109375,0.2694091796875,0.872587898092547,-2.31600984395077,24.74353745498746,0.9765171887787764,0.011766212921520327,-0.01810859623892128,0.21435441445264633,1
1782117235.897381,0.242,1017.0,1020.0,1020.0,1020.0,1021.0,1022.0,1020.0,1021.0,1013.0,1020.0,1022.0,1022.0,1021.0,1021.0,1012.0,1020.0,1020.0,1022.0,1022.0,1021.0,1022.0,1013.0,1020.0,1020.0,1020.0,1022.0,1022.0,1020.0,1021.0,1013.0,1020.0,1019.0,1021.0,1020.0,1021.0,1022.0,1021.0,1021.0,1013.0,1020.0,1020.0,1021.0,1021.0,1022.0,1023.0,1021.0,1021.0,1012.0,1020.0,1020.0,1021.0,1019.0,1020.0,1021.0,1022.0,1021.0,1021.0,1013.0,1020.0,1020.0,1022.0,1020.0,1020.0,1022.0,1023.0,1021.0,1023.0,1013.0,1020.0,1020.0,1022.0,1020.0,1020.0,1022.0,1023.0,1021.0,1022.0,1013.0,1020.0,1020.0,1021.0,1019.0,1021.0,1022.0,1022.0,1021.0,1021.0,1013.0,1020.0,1019.0,1021.0,1019.0,1020.0,1022.0,1023.0,1021.0,1021.0,1013.0,1020.0,1019.0,1021.0,1019.0,1020.0,1022.0,1022.0,1021.0,1022.0,1014.0,1020.0,1019.0,1022.0,1019.0,1021.0,1023.0,1023.0,1022.0,1024.0,1014.0,1021.0,1021.0,1024.0,1021.0,1022.0,1023.0,1021.0,1023.0,1014.0,1020.0,1020.0,1021.0,1022.0,1023.0,1021.0,1022.0,1015.0,1020.0,1022.0,1023.0,1023.0,1021.0,1024.0,1015.0,1021.0,1021.0,1023.0,1023.0,1021.0,1023.0,1015.0,1021.0,1021.0,1022.0,1023.0,1021.0,1023.0,1015.0,1021.0,1023.0,1024.0,1021.0,1021.0,1014.0,1022.0,1024.0,1024.0,1022.0,1024.0,1016.0,1022.0,1024.0,1025.0,1023.0,1025.0,1019.0,1021.0,1024.0,1024.0,1022.0,1023.0,1016.0,1023.0,1027.0,1025.0,1024.0,1026.0,1020.0,1024.0,1030.0,1028.0,1026.0,1029.0,1024.0,1024.0,1029.0,1028.0,1024.0,1028.0,1024.0,1024.0,1030.0,1030.0,1024.0,1028.0,1026.0,1027.0,1033.0,1032.0,1025.0,1029.0,1031.0,1028.0,1033.0,1036.0,1027.0,1030.0,1038.0,1025.0,1031.0,1033.0,1026.0,1026.0,1036.0,1026.0,1031.0,1041.0,1030.0,1030.0,1104.0,1025.0,1031.0,1040.0,1030.0,1029.0,2328,2209,1901,	00:28:46.769,-0.01123046875,0.076171875,1.0205078125,-0.9765625,0.06103515625,0.1220703125,4.2462158203125,0.6536865234375,-75.78369140625,58.0,-574.0,-4003.0,-0.788482666015625,-0.032745361328125,0.018280029296875,0.613922119140625,4.248921641747416,0.6519754500259914,-79.99230407310769,-0.765413094881142,-0.03205302106834253,0.019470381351678917,0.6424455636665917,1,	00:28:46.770,0.04052734375,0.01416015625,1.01953125,-0.30517578125,-0.18310546875,0.42724609375,0.7855224609375,-2.274169921875,31.256103515625,-59.0,726.0,-1821.0,0.962799072265625,0.011962890625,-0.01727294921875,0.269439697265625,0.7879753437970713,-2.2756893905850575,24.75104437992689,0.9765189705229027,0.01097101573306941,-0.017922523788999185,0.2144041048200986,1
1782117235.908927,0.253,1018.0,1022.0,1020.0,1019.0,1021.0,1022.0,1020.0,1021.0,1013.0,1020.0,1022.0,1022.0,1020.0,1021.0,1013.0,1020.0,1020.0,1022.0,1022.0,1021.0,1022.0,1013.0,1021.0,1020.0,1020.0,1021.0,1022.0,1021.0,1021.0,1012.0,1020.0,1019.0,1021.0,1020.0,1021.0,1023.0,1021.0,1022.0,1012.0,1020.0,1020.0,1021.0,1020.0,1022.0,1023.0,1020.0,1022.0,1013.0,1020.0,1020.0,1021.0,1019.0,1021.0,1022.0,1023.0,1021.0,1022.0,1013.0,1020.0,1020.0,1021.0,1019.0,1021.0,1022.0,1023.0,1021.0,1022.0,1013.0,1020.0,1021.0,1022.0,1021.0,1020.0,1022.0,1023.0,1021.0,1021.0,1013.0,1020.0,1020.0,1022.0,1019.0,1021.0,1022.0,1023.0,1021.0,1021.0,1013.0,1020.0,1019.0,1022.0,1019.0,1020.0,1022.0,1023.0,1021.0,1022.0,1013.0,1020.0,1020.0,1021.0,1019.0,1021.0,1022.0,1023.0,1021.0,1022.0,1014.0,1020.0,1020.0,1022.0,1019.0,1021.0,1022.0,1023.0,1022.0,1024.0,1014.0,1021.0,1022.0,1024.0,1021.0,1022.0,1024.0,1021.0,1023.0,1015.0,1020.0,1021.0,1021.0,1022.0,1024.0,1021.0,1022.0,1014.0,1020.0,1021.0,1022.0,1024.0,1021.0,1024.0,1015.0,1021.0,1021.0,1022.0,1024.0,1021.0,1023.0,1015.0,1021.0,1021.0,1022.0,1024.0,1022.0,1023.0,1015.0,1021.0,1022.0,1023.0,1021.0,1021.0,1014.0,1022.0,1024.0,1024.0,1022.0,1024.0,1017.0,1023.0,1024.0,1025.0,1023.0,1025.0,1019.0,1021.0,1023.0,1024.0,1022.0,1022.0,1016.0,1023.0,1026.0,1026.0,1024.0,1025.0,1020.0,1024.0,1029.0,1028.0,1026.0,1029.0,1024.0,1024.0,1029.0,1028.0,1025.0,1028.0,1024.0,1025.0,1031.0,1029.0,1025.0,1028.0,1026.0,1026.0,1032.0,1032.0,1025.0,1030.0,1031.0,1027.0,1034.0,1036.0,1027.0,1030.0,1037.0,1025.0,1031.0,1034.0,1026.0,1027.0,1035.0,1026.0,1031.0,1042.0,1029.0,1030.0,1103.0,1025.0,1030.0,1041.0,1029.0,1030.0,2328,2209,1901,	00:28:46.780,-0.0107421875,0.07568359375,1.0205078125,-0.54931640625,0.54931640625,0.0,4.229736328125,0.5657958984375,-75.78369140625,57.0,-570.0,-4000.0,-0.78851318359375,-0.03216552734375,0.018768310546875,0.6138916015625,4.23001693809173,0.5667882318537463,-79.99203565955423,-0.7654405372140298,-0.03144942835435555,0.0199335264723069,0.642428495607145,1,	00:28:46.781,0.04296875,0.0146484375,1.02099609375,-0.3662109375,-0.18310546875,0.48828125,0.8074951171875,-2.3675537109375,31.256103515625,-59.0,727.0,-1822.0,0.9627685546875,0.0123291015625,-0.017974853515625,0.26947021484375,0.8066530877850615,-2.366366811803925,24.754995725825903,0.9764929280095241,0.01130026860700054,-0.018659956627044744,0.21444269979524233,1
1782117235.918505,0.263,1018.0,1022.0,1019.0,1019.0,1021.0,1023.0,1020.0,1021.0,1013.0,1020.0,1022.0,1022.0,1021.0,1022.0,1012.0,1020.0,1020.0,1021.0,1023.0,1020.0,1022.0,1012.0,1020.0,1021.0,1020.0,1021.0,1023.0,1020.0,1021.0,1013.0,1020.0,1020.0,1021.0,1020.0,1021.0,1022.0,1020.0,1021.0,1013.0,1020.0,1021.0,1022.0,1020.0,1021.0,1023.0,1020.0,1022.0,1013.0,1020.0,1020.0,1021.0,1019.0,1020.0,1022.0,1023.0,1020.0,1022.0,1012.0,1020.0,1020.0,1021.0,1019.0,1021.0,1022.0,1023.0,1021.0,1023.0,1013.0,1020.0,1021.0,1022.0,1021.0,1021.0,1022.0,1022.0,1021.0,1022.0,1013.0,1020.0,1020.0,1021.0,1019.0,1021.0,1021.0,1023.0,1021.0,1021.0,1013.0,1020.0,1020.0,1021.0,1019.0,1021.0,1022.0,1023.0,1021.0,1021.0,1013.0,1019.0,1020.0,1021.0,1020.0,1020.0,1022.0,1022.0,1021.0,1022.0,1013.0,1020.0,1020.0,1021.0,1020.0,1021.0,1022.0,1023.0,1021.0,1024.0,1014.0,1021.0,1022.0,1024.0,1021.0,1022.0,1023.0,1021.0,1024.0,1014.0,1021.0,1022.0,1021.0,1022.0,1023.0,1021.0,1023.0,1015.0,1020.0,1021.0,1023.0,1024.0,1021.0,1023.0,1015.0,1021.0,1021.0,1022.0,1024.0,1021.0,1023.0,1015.0,1020.0,1021.0,1023.0,1024.0,1021.0,1023.0,1015.0,1021.0,1022.0,1024.0,1021.0,1021.0,1014.0,1021.0,1023.0,1024.0,1022.0,1023.0,1016.0,1022.0,1024.0,1024.0,1023.0,1025.0,1019.0,1021.0,1023.0,1024.0,1022.0,1023.0,1017.0,1022.0,1025.0,1026.0,1024.0,1025.0,1020.0,1024.0,1029.0,1028.0,1027.0,1030.0,1024.0,1023.0,1029.0,1028.0,1025.0,1027.0,1025.0,1024.0,1030.0,1030.0,1024.0,1028.0,1026.0,1026.0,1032.0,1032.0,1025.0,1029.0,1032.0,1027.0,1034.0,1036.0,1028.0,1031.0,1039.0,1025.0,1030.0,1034.0,1026.0,1027.0,1036.0,1026.0,1031.0,1042.0,1030.0,1029.0,1105.0,1025.0,1030.0,1040.0,1029.0,1029.0,2328,2209,1902,	00:28:46.790,-0.00927734375,0.07470703125,1.0185546875,-0.6103515625,0.42724609375,0.06103515625,4.1693115234375,0.4998779296875,-75.78369140625,60.0,-572.0,-4005.0,-0.788543701171875,-0.0313720703125,0.0189208984375,0.6138916015625,4.168630768223742,0.49803323273922223,-79.9916218699472,-0.7654757543545246,-0.03065414929629155,0.02004867693742033,0.6424213906614188,1,	00:28:46.791,0.041015625,0.0146484375,1.0205078125,-0.30517578125,-0.30517578125,0.42724609375,0.823974609375,-2.2796630859375,31.2615966796875,-58.0,728.0,-1823.0,0.9627685546875,0.012298583984375,-0.0172119140625,0.269500732421875,0.8249490548060343,-2.2804243150271524,24.758353594771453,0.9765008356971702,0.011296084541284649,-0.017892975638892698,0.21447227741493888,1
1782117235.928707,0.273,1017.0,1022.0,1019.0,1019.0,1022.0,1022.0,1020.0,1021.0,1013.0,1019.0,1022.0,1022.0,1021.0,1021.0,1013.0,1020.0,1020.0,1022.0,1023.0,1021.0,1021.0,1013.0,1020.0,1020.0,1020.0,1022.0,1023.0,1021.0,1022.0,1013.0,1020.0,1019.0,1021.0,1020.0,1022.0,1022.0,1021.0,1021.0,1013.0,1020.0,1020.0,1021.0,1020.0,1021.0,1023.0,1021.0,1021.0,1013.0,1020.0,1020.0,1021.0,1019.0,1021.0,1021.0,1023.0,1021.0,1021.0,1013.0,1020.0,1020.0,1021.0,1019.0,1021.0,1021.0,1023.0,1021.0,1022.0,1013.0,1020.0,1021.0,1022.0,1021.0,1020.0,1022.0,1023.0,1021.0,1022.0,1013.0,1020.0,1021.0,1021.0,1020.0,1020.0,1022.0,1023.0,1021.0,1022.0,1013.0,1020.0,1020.0,1021.0,1020.0,1020.0,1022.0,1023.0,1021.0,1022.0,1013.0,1019.0,1020.0,1021.0,1019.0,1020.0,1022.0,1023.0,1021.0,1022.0,1013.0,1020.0,1020.0,1021.0,1019.0,1021.0,1022.0,1023.0,1021.0,1023.0,1014.0,1021.0,1022.0,1024.0,1021.0,1022.0,1024.0,1021.0,1023.0,1015.0,1021.0,1021.0,1021.0,1022.0,1024.0,1021.0,1022.0,1015.0,1020.0,1021.0,1023.0,1024.0,1021.0,1023.0,1015.0,1021.0,1021.0,1022.0,1024.0,1021.0,1023.0,1015.0,1021.0,1021.0,1022.0,1024.0,1022.0,1023.0,1015.0,1021.0,1022.0,1024.0,1021.0,1021.0,1014.0,1022.0,1023.0,1024.0,1022.0,1024.0,1017.0,1022.0,1024.0,1025.0,1023.0,1025.0,1019.0,1021.0,1023.0,1025.0,1022.0,1023.0,1016.0,1022.0,1026.0,1026.0,1024.0,1026.0,1019.0,1023.0,1029.0,1028.0,1026.0,1029.0,1024.0,1023.0,1029.0,1029.0,1024.0,1028.0,1024.0,1024.0,1030.0,1030.0,1024.0,1028.0,1026.0,1026.0,1032.0,1033.0,1026.0,1029.0,1032.0,1027.0,1034.0,1036.0,1027.0,1030.0,1039.0,1025.0,1031.0,1034.0,1027.0,1027.0,1037.0,1026.0,1031.0,1042.0,1030.0,1029.0,1105.0,1025.0,1030.0,1040.0,1029.0,1030.0,2329,2208,1901,	00:28:46.800,-0.01123046875,0.0751953125,1.01904296875,-0.6103515625,0.30517578125,0.1220703125,4.19677734375,0.5877685546875,-75.78369140625,58.0,-569.0,-4001.0,-0.78851318359375,-0.03204345703125,0.018463134765625,0.6138916015625,4.195961233827513,0.5862911441275683,-79.98987098884156,-0.7654573255492217,-0.03133160603832752,0.019611693420978005,0.6424241548286097,1,	00:28:46.801,0.04052734375,0.0146484375,1.01904296875,-0.30517578125,-0.42724609375,0.42724609375,0.7855224609375,-2.2027587890625,31.26708984375,-60.0,728.0,-1825.0,0.9627685546875,0.01177978515625,-0.016632080078125,0.269561767578125,0.7851614508945086,-2.200767247528684,24.763995001403796,0.9765084352855611,0.010808980622765243,-0.017288058397396607,0.2145123884322074,1
1782117235.939514,0.284,1017.0,1022.0,1020.0,1020.0,1022.0,1022.0,1021.0,1021.0,1013.0,1020.0,1022.0,1022.0,1021.0,1021.0,1013.0,1020.0,1021.0,1022.0,1022.0,1021.0,1022.0,1013.0,1020.0,1020.0,1021.0,1022.0,1022.0,1021.0,1021.0,1013.0,1020.0,1020.0,1020.0,1020.0,1022.0,1022.0,1020.0,1022.0,1013.0,1021.0,1020.0,1021.0,1020.0,1022.0,1022.0,1020.0,1021.0,1013.0,1020.0,1020.0,1021.0,1019.0,1020.0,1022.0,1023.0,1021.0,1022.0,1013.0,1019.0,1020.0,1021.0,1019.0,1021.0,1022.0,1023.0,1021.0,1022.0,1013.0,1021.0,1021.0,1022.0,1020.0,1021.0,1022.0,1022.0,1021.0,1022.0,1014.0,1020.0,1020.0,1021.0,1019.0,1021.0,1022.0,1023.0,1021.0,1022.0,1013.0,1020.0,1020.0,1021.0,1019.0,1020.0,1022.0,1022.0,1020.0,1021.0,1013.0,1020.0,1020.0,1021.0,1019.0,1021.0,1022.0,1023.0,1020.0,1022.0,1013.0,1020.0,1020.0,1021.0,1020.0,1021.0,1023.0,1023.0,1021.0,1023.0,1014.0,1021.0,1022.0,1024.0,1021.0,1023.0,1024.0,1021.0,1023.0,1015.0,1021.0,1021.0,1021.0,1023.0,1023.0,1021.0,1022.0,1014.0,1020.0,1021.0,1023.0,1024.0,1021.0,1023.0,1016.0,1021.0,1021.0,1023.0,1024.0,1022.0,1023.0,1015.0,1021.0,1021.0,1023.0,1023.0,1021.0,1023.0,1015.0,1021.0,1023.0,1023.0,1021.0,1021.0,1014.0,1021.0,1024.0,1024.0,1022.0,1024.0,1016.0,1022.0,1025.0,1024.0,1023.0,1026.0,1019.0,1021.0,1024.0,1024.0,1021.0,1022.0,1016.0,1022.0,1026.0,1026.0,1023.0,1026.0,1020.0,1024.0,1030.0,1028.0,1026.0,1030.0,1024.0,1024.0,1030.0,1029.0,1024.0,1028.0,1024.0,1024.0,1031.0,1030.0,1024.0,1028.0,1026.0,1026.0,1034.0,1033.0,1025.0,1030.0,1033.0,1028.0,1035.0,1036.0,1027.0,1031.0,1038.0,1025.0,1032.0,1034.0,1026.0,1027.0,1036.0,1026.0,1031.0,1042.0,1030.0,1029.0,1104.0,1026.0,1031.0,1041.0,1028.0,1029.0,2328,2208,1901,	00:28:46.811,-0.00927734375,0.07568359375,1.02001953125,-0.54931640625,0.30517578125,0.06103515625,4.2462158203125,0.516357421875,-75.78369140625,59.0,-571.0,-4000.0,-0.788543701171875,-0.031982421875,0.019195556640625,0.613861083984375,4.243672213738464,0.5146962749501143,-79.98852444467735,-0.7654689279947374,-0.03124935049778364,0.020357187034374998,0.642391145100944,1,	00:28:46.812,0.04150390625,0.015625,1.0205078125,-0.3662109375,-0.42724609375,0.42724609375,0.8349609375,-2.2796630859375,31.26708984375,-60.0,729.0,-1822.0,0.962738037109375,0.012359619140625,-0.017181396484375,0.26959228515625,0.834848962613919,-2.2794714392498516,24.76612248891468,0.9764854879258733,0.011379877492435825,-0.017865554682516504,0.2145400014316958,1
1782117235.949245,0.294,1017.0,1022.0,1019.0,1019.0,1022.0,1022.0,1020.0,1022.0,1013.0,1020.0,1022.0,1023.0,1020.0,1021.0,1013.0,1020.0,1020.0,1021.0,1022.0,1021.0,1021.0,1013.0,1020.0,1020.0,1020.0,1022.0,1022.0,1021.0,1022.0,1013.0,1020.0,1020.0,1020.0,1021.0,1021.0,1023.0,1020.0,1022.0,1013.0,1020.0,1021.0,1021.0,1020.0,1022.0,1023.0,1021.0,1022.0,1013.0,1019.0,1020.0,1021.0,1019.0,1020.0,1022.0,1023.0,1021.0,1022.0,1013.0,1020.0,1020.0,1020.0,1019.0,1021.0,1022.0,1023.0,1021.0,1023.0,1013.0,1020.0,1021.0,1022.0,1020.0,1021.0,1022.0,1023.0,1021.0,1022.0,1013.0,1020.0,1020.0,1021.0,1019.0,1020.0,1022.0,1023.0,1021.0,1022.0,1013.0,1020.0,1020.0,1021.0,1019.0,1020.0,1021.0,1023.0,1021.0,1022.0,1013.0,1019.0,1020.0,1021.0,1019.0,1020.0,1022.0,1022.0,1020.0,1022.0,1013.0,1020.0,1020.0,1021.0,1019.0,1021.0,1022.0,1023.0,1021.0,1024.0,1014.0,1021.0,1022.0,1024.0,1021.0,1022.0,1023.0,1021.0,1023.0,1014.0,1021.0,1022.0,1021.0,1022.0,1023.0,1021.0,1023.0,1014.0,1021.0,1021.0,1023.0,1024.0,1021.0,1024.0,1015.0,1021.0,1021.0,1022.0,1024.0,1021.0,1023.0,1015.0,1020.0,1021.0,1023.0,1024.0,1021.0,1023.0,1015.0,1021.0,1023.0,1023.0,1021.0,1021.0,1014.0,1022.0,1023.0,1024.0,1021.0,1024.0,1016.0,1022.0,1024.0,1024.0,1023.0,1026.0,1019.0,1021.0,1024.0,1024.0,1022.0,1023.0,1016.0,1023.0,1026.0,1026.0,1024.0,1026.0,1020.0,1024.0,1030.0,1028.0,1026.0,1029.0,1024.0,1024.0,1030.0,1028.0,1025.0,1028.0,1024.0,1024.0,1030.0,1030.0,1025.0,1029.0,1027.0,1027.0,1032.0,1033.0,1026.0,1029.0,1032.0,1027.0,1033.0,1037.0,1028.0,1031.0,1039.0,1025.0,1030.0,1034.0,1026.0,1026.0,1037.0,1026.0,1031.0,1042.0,1030.0,1030.0,1104.0,1025.0,1030.0,1041.0,1030.0,1030.0,2328,2208,1901,	00:28:46.821,-0.01123046875,0.07421875,1.0205078125,-0.42724609375,0.244140625,0.06103515625,4.185791015625,0.59326171875,-75.7781982421875,57.0,-571.0,-4004.0,-0.788543701171875,-0.031982421875,0.01837158203125,0.6138916015625,4.185093374261381,0.5908662021251063,-79.98826188582788,-0.7654682205806724,-0.03128492140112859,0.019519756005992615,0.6424162483152576,1,	00:28:46.822,0.04052734375,0.01513671875,1.02001953125,-0.3662109375,-0.42724609375,0.42724609375,0.9173583984375,-2.2576904296875,31.2725830078125,-60.0,727.0,-1825.0,0.962738037109375,0.013031005859375,-0.016815185546875,0.26959228515625,0.9191301756928513,-2.258261373192724,24.766846652344213,0.9764793955711704,0.012058527961219489,-0.017526929387209008,0.2145585903072306,1
1782117235.959999,0.304,1018.0,1022.0,1020.0,1019.0,1022.0,1023.0,1021.0,1021.0,1013.0,1020.0,1021.0,1023.0,1020.0,1021.0,1012.0,1020.0,1020.0,1022.0,1023.0,1021.0,1022.0,1012.0,1020.0,1020.0,1020.0,1022.0,1023.0,1020.0,1021.0,1013.0,1020.0,1020.0,1021.0,1020.0,1022.0,1023.0,1021.0,1021.0,1013.0,1020.0,1020.0,1021.0,1021.0,1022.0,1023.0,1021.0,1022.0,1013.0,1020.0,1020.0,1021.0,1019.0,1021.0,1022.0,1022.0,1021.0,1021.0,1013.0,1020.0,1020.0,1021.0,1019.0,1021.0,1022.0,1023.0,1021.0,1022.0,1013.0,1020.0,1021.0,1022.0,1020.0,1021.0,1022.0,1023.0,1021.0,1022.0,1013.0,1020.0,1020.0,1021.0,1020.0,1021.0,1022.0,1023.0,1021.0,1021.0,1013.0,1020.0,1021.0,1021.0,1019.0,1020.0,1022.0,1022.0,1021.0,1022.0,1013.0,1019.0,1020.0,1021.0,1019.0,1020.0,1022.0,1023.0,1021.0,1022.0,1013.0,1020.0,1020.0,1021.0,1018.0,1021.0,1023.0,1023.0,1021.0,1023.0,1014.0,1021.0,1023.0,1023.0,1021.0,1023.0,1023.0,1021.0,1023.0,1014.0,1021.0,1022.0,1022.0,1022.0,1024.0,1021.0,1022.0,1014.0,1020.0,1021.0,1023.0,1024.0,1021.0,1023.0,1015.0,1021.0,1021.0,1022.0,1024.0,1021.0,1023.0,1015.0,1021.0,1021.0,1023.0,1024.0,1021.0,1023.0,1015.0,1021.0,1023.0,1024.0,1021.0,1020.0,1014.0,1022.0,1023.0,1024.0,1022.0,1023.0,1016.0,1022.0,1025.0,1025.0,1023.0,1025.0,1019.0,1021.0,1024.0,1024.0,1022.0,1023.0,1017.0,1023.0,1026.0,1026.0,1024.0,1025.0,1020.0,1024.0,1030.0,1028.0,1026.0,1029.0,1024.0,1024.0,1030.0,1029.0,1024.0,1028.0,1024.0,1024.0,1031.0,1030.0,1025.0,1029.0,1026.0,1027.0,1033.0,1034.0,1025.0,1029.0,1032.0,1028.0,1035.0,1037.0,1028.0,1031.0,1038.0,1025.0,1031.0,1034.0,1026.0,1027.0,1036.0,1027.0,1031.0,1043.0,1030.0,1030.0,1105.0,1025.0,1030.0,1041.0,1029.0,1030.0,2328,2208,1902,	00:28:46.831,-0.0107421875,0.076171875,1.01953125,-0.3662109375,0.18310546875,0.1220703125,4.273681640625,0.604248046875,-75.7781982421875,58.0,-570.0,-4002.0,-0.78851318359375,-0.03265380859375,0.01873779296875,0.613861083984375,4.27214340458588,0.6041090310167201,-79.98596544568268,-0.7654538780305639,-0.03194100828813765,0.01991863721072412,0.642388807879757,1,	00:28:46.832,0.041015625,0.01416015625,1.01953125,-0.30517578125,-0.42724609375,0.42724609375,0.8294677734375,-2.296142578125,31.278076171875,-59.0,727.0,-1822.0,0.962738037109375,0.012359619140625,-0.017333984375,0.2696533203125,0.8297881872889104,-2.2941977341875517,24.774474936569703,0.9764676451692264,0.011365598810470529,-0.017999698289927136,0.21461074521751472,1
1782117235.969254,0.314,1017.0,1022.0,1020.0,1019.0,1021.0,1023.0,1020.0,1022.0,1013.0,1019.0,1021.0,1022.0,1020.0,1021.0,1013.0,1020.0,1020.0,1022.0,1023.0,1021.0,1022.0,1013.0,1020.0,1020.0,1020.0,1021.0,1022.0,1020.0,1022.0,1013.0,1020.0,1020.0,1020.0,1020.0,1021.0,1023.0,1020.0,1022.0,1013.0,1021.0,1020.0,1021.0,1020.0,1021.0,1023.0,1020.0,1021.0,1013.0,1020.0,1020.0,1021.0,1019.0,1020.0,1021.0,1023.0,1021.0,1021.0,1013.0,1020.0,1020.0,1020.0,1019.0,1021.0,1022.0,1023.0,1021.0,1022.0,1013.0,1020.0,1021.0,1021.0,1020.0,1021.0,1022.0,1023.0,1021.0,1021.0,1013.0,1020.0,1020.0,1020.0,1019.0,1020.0,1022.0,1023.0,1021.0,1021.0,1013.0,1020.0,1020.0,1021.0,1020.0,1021.0,1021.0,1023.0,1021.0,1021.0,1013.0,1020.0,1019.0,1020.0,1019.0,1020.0,1022.0,1023.0,1021.0,1021.0,1013.0,1020.0,1020.0,1020.0,1019.0,1021.0,1023.0,1024.0,1021.0,1023.0,1014.0,1021.0,1022.0,1023.0,1021.0,1022.0,1024.0,1021.0,1023.0,1015.0,1021.0,1022.0,1021.0,1023.0,1023.0,1021.0,1022.0,1015.0,1021.0,1021.0,1023.0,1024.0,1022.0,1023.0,1015.0,1021.0,1021.0,1023.0,1024.0,1022.0,1023.0,1015.0,1021.0,1021.0,1023.0,1023.0,1021.0,1023.0,1016.0,1021.0,1022.0,1023.0,1021.0,1021.0,1014.0,1022.0,1023.0,1024.0,1022.0,1024.0,1016.0,1022.0,1025.0,1025.0,1023.0,1025.0,1018.0,1021.0,1024.0,1024.0,1022.0,1023.0,1016.0,1023.0,1026.0,1026.0,1024.0,1026.0,1020.0,1024.0,1030.0,1029.0,1026.0,1030.0,1024.0,1024.0,1030.0,1029.0,1025.0,1028.0,1024.0,1024.0,1031.0,1031.0,1024.0,1028.0,1026.0,1027.0,1033.0,1034.0,1026.0,1030.0,1032.0,1027.0,1034.0,1037.0,1027.0,1031.0,1038.0,1025.0,1030.0,1035.0,1026.0,1027.0,1035.0,1026.0,1030.0,1044.0,1032.0,1030.0,1105.0,1025.0,1030.0,1042.0,1030.0,1029.0,2328,2208,1902,	00:28:46.841,-0.01123046875,0.07568359375,1.01904296875,-0.244140625,0.30517578125,0.1220703125,4.207763671875,0.6756591796875,-75.7781982421875,57.0,-571.0,-4002.0,-0.78851318359375,-0.032562255859375,0.017913818359375,0.6138916015625,4.206178210374644,0.6730278526099465,-79.98523025961609,-0.7654595091104844,-0.03188666303931133,0.019088103969004004,0.642410013090878,1,	00:28:46.842,0.04248046875,0.01611328125,1.01953125,-0.244140625,-0.30517578125,0.48828125,0.8843994140625,-2.3675537109375,31.278076171875,-59.0,729.0,-1825.0,0.96270751953125,0.01300048828125,-0.017822265625,0.269683837890625,0.8855641432975543,-2.367915330812319,24.776942682911915,0.976443528626433,0.011979148739586939,-0.018523183366270863,0.21464255653764178,1
1782117235.979531,0.324,1017.0,1022.0,1019.0,1019.0,1022.0,1022.0,1020.0,1021.0,1013.0,1020.0,1022.0,1023.0,1020.0,1022.0,1012.0,1020.0,1020.0,1022.0,1022.0,1021.0,1021.0,1013.0,1020.0,1020.0,1020.0,1022.0,1022.0,1021.0,1021.0,1012.0,1020.0,1020.0,1020.0,1021.0,1022.0,1023.0,1020.0,1022.0,1013.0,1021.0,1021.0,1020.0,1021.0,1022.0,1023.0,1021.0,1021.0,1013.0,1020.0,1020.0,1021.0,1019.0,1020.0,1021.0,1023.0,1022.0,1022.0,1013.0,1020.0,1020.0,1021.0,1019.0,1020.0,1022.0,1023.0,1021.0,1023.0,1013.0,1020.0,1021.0,1021.0,1021.0,1021.0,1022.0,1023.0,1022.0,1022.0,1013.0,1020.0,1021.0,1021.0,1019.0,1021.0,1022.0,1023.0,1021.0,1021.0,1012.0,1020.0,1020.0,1021.0,1019.0,1021.0,1022.0,1023.0,1021.0,1022.0,1013.0,1021.0,1020.0,1020.0,1019.0,1020.0,1021.0,1023.0,1021.0,1022.0,1013.0,1020.0,1020.0,1020.0,1019.0,1021.0,1022.0,1023.0,1021.0,1024.0,1014.0,1021.0,1023.0,1023.0,1021.0,1022.0,1023.0,1021.0,1024.0,1014.0,1021.0,1022.0,1021.0,1022.0,1023.0,1021.0,1022.0,1014.0,1020.0,1022.0,1023.0,1023.0,1022.0,1024.0,1014.0,1021.0,1021.0,1023.0,1024.0,1022.0,1023.0,1015.0,1021.0,1021.0,1023.0,1023.0,1022.0,1023.0,1015.0,1021.0,1022.0,1024.0,1021.0,1021.0,1014.0,1022.0,1023.0,1024.0,1022.0,1023.0,1016.0,1022.0,1024.0,1025.0,1024.0,1025.0,1018.0,1020.0,1024.0,1024.0,1023.0,1023.0,1016.0,1022.0,1026.0,1025.0,1024.0,1026.0,1019.0,1024.0,1029.0,1028.0,1027.0,1029.0,1024.0,1024.0,1029.0,1028.0,1025.0,1028.0,1024.0,1024.0,1030.0,1030.0,1025.0,1029.0,1026.0,1027.0,1032.0,1033.0,1026.0,1030.0,1032.0,1027.0,1034.0,1037.0,1028.0,1031.0,1038.0,1026.0,1030.0,1034.0,1027.0,1027.0,1036.0,1027.0,1030.0,1043.0,1031.0,1030.0,1105.0,1025.0,1030.0,1042.0,1030.0,1030.0,2327,2208,1902,	00:28:46.851,-0.01025390625,0.0751953125,1.01953125,-0.06103515625,0.3662109375,0.06103515625,4.21875,0.5877685546875,-75.7781982421875,58.0,-569.0,-4001.0,-0.788543701171875,-0.03216552734375,0.0185546875,0.613861083984375,4.216700036995537,0.5856393296308061,-79.98423027225263,-0.7654834212999951,-0.031467456871925946,0.019730765586669963,0.64238277355657,1,	00:28:46.853,0.04150390625,0.0166015625,1.01904296875,-0.244140625,-0.30517578125,0.42724609375,0.955810546875,-2.318115234375,31.2835693359375,-59.0,727.0,-1822.0,0.96270751953125,0.01348876953125,-0.0172119140625,0.26971435546875,0.9562340212993771,-2.315887805951515,24.77817528220827,0.9764435208602793,0.012484216164743711,-0.0179473105450679,0.21466273305101666,1
1782117235.990788,0.335,1017.0,1022.0,1020.0,1020.0,1022.0,1022.0,1021.0,1021.0,1014.0,1019.0,1021.0,1022.0,1020.0,1021.0,1014.0,1020.0,1020.0,1022.0,1022.0,1020.0,1022.0,1013.0,1020.0,1020.0,1020.0,1021.0,1022.0,1021.0,1021.0,1013.0,1020.0,1020.0,1020.0,1020.0,1022.0,1022.0,1021.0,1022.0,1013.0,1020.0,1020.0,1021.0,1021.0,1021.0,1023.0,1021.0,1022.0,1013.0,1020.0,1020.0,1020.0,1019.0,1020.0,1021.0,1023.0,1021.0,1022.0,1013.0,1020.0,1020.0,1020.0,1019.0,1021.0,1021.0,1022.0,1021.0,1022.0,1013.0,1020.0,1021.0,1021.0,1021.0,1020.0,1022.0,1022.0,1021.0,1022.0,1013.0,1020.0,1020.0,1021.0,1020.0,1021.0,1021.0,1023.0,1021.0,1022.0,1013.0,1020.0,1021.0,1020.0,1019.0,1021.0,1022.0,1022.0,1021.0,1022.0,1013.0,1020.0,1020.0,1020.0,1019.0,1021.0,1022.0,1023.0,1021.0,1022.0,1013.0,1020.0,1020.0,1020.0,1019.0,1021.0,1022.0,1023.0,1021.0,1023.0,1014.0,1021.0,1023.0,1023.0,1021.0,1023.0,1023.0,1022.0,1024.0,1015.0,1021.0,1022.0,1021.0,1022.0,1023.0,1021.0,1023.0,1014.0,1021.0,1021.0,1023.0,1024.0,1021.0,1023.0,1015.0,1021.0,1021.0,1023.0,1024.0,1022.0,1023.0,1015.0,1021.0,1021.0,1022.0,1024.0,1021.0,1023.0,1015.0,1020.0,1022.0,1023.0,1021.0,1022.0,1014.0,1021.0,1023.0,1024.0,1022.0,1023.0,1017.0,1022.0,1024.0,1024.0,1023.0,1026.0,1019.0,1021.0,1023.0,1024.0,1023.0,1023.0,1017.0,1022.0,1027.0,1025.0,1025.0,1026.0,1020.0,1024.0,1029.0,1028.0,1027.0,1030.0,1024.0,1024.0,1029.0,1029.0,1026.0,1029.0,1025.0,1025.0,1030.0,1029.0,1025.0,1029.0,1027.0,1027.0,1032.0,1033.0,1026.0,1030.0,1032.0,1027.0,1034.0,1037.0,1028.0,1031.0,1039.0,1025.0,1030.0,1034.0,1027.0,1027.0,1036.0,1027.0,1031.0,1043.0,1031.0,1030.0,1106.0,1025.0,1030.0,1041.0,1031.0,1030.0,2327,2208,1902,	00:28:46.862,-0.01123046875,0.07470703125,1.01953125,0.0,0.42724609375,0.06103515625,4.1693115234375,0.670166015625,-75.7781982421875,57.0,-570.0,-3998.0,-0.788543701171875,-0.03228759765625,0.017730712890625,0.613861083984375,4.170193348560643,0.6688113314315512,-79.98381655628417,-0.7654784353378883,-0.03162289337112176,0.018914155089872122,0.6424056447329315,1,	00:28:46.863,0.04150390625,0.01611328125,1.01953125,-0.30517578125,-0.244140625,0.48828125,0.8624267578125,-2.3455810546875,31.2890625,-61.0,731.0,-1824.0,0.962677001953125,0.012786865234375,-0.017669677734375,0.269744873046875,0.8649910713064518,-2.344362328860806,24.786599094499227,0.9764320329934627,0.011761336718611971,-0.018360016113137576,0.2147209018963223,1
1782117236.002127,0.347,1017.0,1022.0,1021.0,1020.0,1022.0,1022.0,1021.0,1022.0,1013.0,1020.0,1021.0,1022.0,1021.0,1021.0,1012.0,1020.0,1020.0,1022.0,1023.0,1021.0,1022.0,1013.0,1019.0,1020.0,1020.0,1022.0,1022.0,1021.0,1022.0,1012.0,1020.0,1019.0,1020.0,1021.0,1022.0,1022.0,1021.0,1022.0,1013.0,1020.0,1020.0,1021.0,1020.0,1022.0,1022.0,1022.0,1022.0,1012.0,1020.0,1020.0,1020.0,1019.0,1020.0,1022.0,1023.0,1021.0,1021.0,1012.0,1021.0,1020.0,1020.0,1019.0,1021.0,1022.0,1023.0,1021.0,1023.0,1012.0,1020.0,1021.0,1021.0,1020.0,1020.0,1021.0,1022.0,1022.0,1022.0,1013.0,1020.0,1020.0,1021.0,1019.0,1021.0,1022.0,1023.0,1022.0,1022.0,1013.0,1020.0,1020.0,1021.0,1019.0,1020.0,1022.0,1023.0,1021.0,1022.0,1013.0,1020.0,1020.0,1021.0,1019.0,1021.0,1022.0,1023.0,1022.0,1022.0,1013.0,1020.0,1020.0,1021.0,1019.0,1021.0,1022.0,1023.0,1022.0,1024.0,1014.0,1021.0,1022.0,1024.0,1021.0,1022.0,1023.0,1022.0,1024.0,1015.0,1020.0,1022.0,1021.0,1022.0,1023.0,1022.0,1022.0,1015.0,1020.0,1022.0,1023.0,1024.0,1022.0,1023.0,1015.0,1021.0,1021.0,1023.0,1023.0,1022.0,1023.0,1015.0,1021.0,1021.0,1023.0,1024.0,1022.0,1023.0,1015.0,1021.0,1022.0,1023.0,1021.0,1021.0,1013.0,1022.0,1023.0,1023.0,1023.0,1023.0,1016.0,1022.0,1024.0,1025.0,1024.0,1026.0,1018.0,1021.0,1024.0,1024.0,1023.0,1023.0,1016.0,1023.0,1026.0,1026.0,1025.0,1026.0,1020.0,1024.0,1030.0,1028.0,1028.0,1030.0,1024.0,1024.0,1029.0,1029.0,1026.0,1029.0,1024.0,1024.0,1029.0,1030.0,1026.0,1030.0,1026.0,1028.0,1032.0,1034.0,1027.0,1031.0,1032.0,1029.0,1034.0,1038.0,1029.0,1032.0,1039.0,1026.0,1030.0,1035.0,1027.0,1028.0,1036.0,1027.0,1030.0,1043.0,1032.0,1031.0,1106.0,1025.0,1030.0,1041.0,1031.0,1030.0,2327,2208,1901,	00:28:46.872,-0.01123046875,0.0751953125,1.02001953125,0.06103515625,0.42724609375,0.1220703125,4.24072265625,0.615234375,-75.772705078125,58.0,-571.0,-4002.0,-0.788543701171875,-0.032470703125,0.01849365234375,0.61383056640625,4.240129607278237,0.6131380438930978,-79.98151331151742,-0.765485535831664,-0.0317785169105054,0.019677602720138868,0.6423665715513748,1,	00:28:46.873,0.0419921875,0.0146484375,1.0205078125,-0.244140625,-0.1220703125,0.42724609375,0.7745361328125,-2.3675537109375,31.300048828125,-60.0,728.0,-1822.0,0.962677001953125,0.0120849609375,-0.018096923828125,0.269805908203125,0.7738975199927275,-2.369912814501057,24.79449574126063,0.9764214737276388,0.011034231598483926,-0.018747670322365132,0.21477401200811314,1
1782117236.010708,0.355,1018.0,1022.0,1020.0,1020.0,1021.0,1023.0,1021.0,1022.0,1013.0,1021.0,1021.0,1023.0,1021.0,1021.0,1012.0,1020.0,1020.0,1022.0,1023.0,1021.0,1022.0,1013.0,1020.0,1020.0,1021.0,1021.0,1023.0,1020.0,1021.0,1012.0,1020.0,1020.0,1020.0,1021.0,1021.0,1023.0,1021.0,1022.0,1013.0,1020.0,1020.0,1021.0,1021.0,1021.0,1023.0,1021.0,1022.0,1013.0,1020.0,1020.0,1021.0,1019.0,1021.0,1021.0,1022.0,1021.0,1022.0,1013.0,1020.0,1019.0,1021.0,1019.0,1020.0,1022.0,1023.0,1021.0,1022.0,1013.0,1020.0,1021.0,1022.0,1020.0,1021.0,1022.0,1023.0,1021.0,1022.0,1012.0,1020.0,1020.0,1021.0,1020.0,1020.0,1022.0,1023.0,1021.0,1022.0,1013.0,1020.0,1020.0,1021.0,1019.0,1020.0,1021.0,1023.0,1021.0,1022.0,1013.0,1020.0,1020.0,1021.0,1019.0,1020.0,1022.0,1023.0,1021.0,1022.0,1013.0,1020.0,1019.0,1021.0,1019.0,1022.0,1022.0,1023.0,1021.0,1023.0,1014.0,1020.0,1022.0,1024.0,1021.0,1022.0,1023.0,1022.0,1023.0,1015.0,1021.0,1021.0,1021.0,1022.0,1023.0,1022.0,1023.0,1014.0,1020.0,1021.0,1022.0,1024.0,1022.0,1024.0,1015.0,1021.0,1021.0,1022.0,1024.0,1021.0,1023.0,1015.0,1021.0,1021.0,1023.0,1023.0,1021.0,1022.0,1015.0,1022.0,1022.0,1023.0,1021.0,1021.0,1014.0,1023.0,1024.0,1024.0,1022.0,1024.0,1016.0,1023.0,1024.0,1025.0,1023.0,1025.0,1019.0,1021.0,1023.0,1024.0,1023.0,1023.0,1016.0,1023.0,1026.0,1025.0,1024.0,1026.0,1020.0,1025.0,1029.0,1029.0,1028.0,1030.0,1024.0,1025.0,1030.0,1029.0,1025.0,1029.0,1025.0,1026.0,1030.0,1031.0,1025.0,1029.0,1026.0,1028.0,1033.0,1034.0,1027.0,1031.0,1032.0,1029.0,1034.0,1038.0,1029.0,1032.0,1039.0,1026.0,1029.0,1035.0,1027.0,1027.0,1037.0,1027.0,1030.0,1044.0,1031.0,1030.0,1107.0,1026.0,1030.0,1042.0,1030.0,1030.0,2327,2207,1901,	00:28:46.882,-0.01171875,0.07373046875,1.0205078125,0.1220703125,0.48828125,0.1220703125,4.1583251953125,0.6536865234375,-75.772705078125,58.0,-570.0,-4002.0,-0.78857421875,-0.0321044921875,0.017791748046875,0.613861083984375,4.156409640007666,0.6518717134215469,-79.98087219355634,-0.765502836885964,-0.031436387019169135,0.01894927333201233,0.642384686407538,1,	00:28:46.883,0.04296875,0.01611328125,1.02001953125,-0.18310546875,0.18310546875,0.42724609375,0.85693359375,-2.39501953125,31.300048828125,-60.0,730.0,-1820.0,0.962646484375,0.012847900390625,-0.018096923828125,0.26983642578125,0.8592359072614655,-2.3961010187407537,24.79516475345963,0.9764067225042584,0.011810513929321621,-0.018810809591240298,0.21479426773482485,1
1782117236.020658,0.365,1018.0,1022.0,1019.0,1020.0,1021.0,1023.0,1021.0,1021.0,1013.0,1020.0,1021.0,1023.0,1020.0,1022.0,1012.0,1020.0,1020.0,1021.0,1022.0,1021.0,1022.0,1013.0,1020.0,1021.0,1020.0,1021.0,1023.0,1021.0,1022.0,1012.0,1020.0,1020.0,1020.0,1020.0,1022.0,1022.0,1021.0,1022.0,1013.0,1020.0,1020.0,1021.0,1021.0,1022.0,1023.0,1021.0,1021.0,1012.0,1020.0,1020.0,1020.0,1019.0,1021.0,1021.0,1022.0,1021.0,1021.0,1013.0,1020.0,1020.0,1020.0,1019.0,1021.0,1022.0,1023.0,1021.0,1022.0,1013.0,1020.0,1022.0,1022.0,1020.0,1021.0,1021.0,1023.0,1021.0,1021.0,1013.0,1020.0,1020.0,1021.0,1020.0,1020.0,1021.0,1023.0,1021.0,1022.0,1013.0,1020.0,1020.0,1021.0,1019.0,1021.0,1021.0,1023.0,1021.0,1022.0,1012.0,1020.0,1020.0,1021.0,1019.0,1021.0,1022.0,1023.0,1021.0,1021.0,1013.0,1020.0,1020.0,1021.0,1019.0,1021.0,1022.0,1023.0,1022.0,1024.0,1013.0,1021.0,1022.0,1024.0,1022.0,1022.0,1023.0,1022.0,1023.0,1014.0,1020.0,1022.0,1022.0,1022.0,1023.0,1022.0,1023.0,1014.0,1021.0,1021.0,1022.0,1023.0,1022.0,1023.0,1015.0,1021.0,1022.0,1023.0,1023.0,1022.0,1022.0,1015.0,1021.0,1021.0,1022.0,1024.0,1022.0,1023.0,1015.0,1021.0,1021.0,1023.0,1021.0,1021.0,1014.0,1022.0,1023.0,1024.0,1022.0,1024.0,1016.0,1023.0,1024.0,1025.0,1023.0,1025.0,1019.0,1022.0,1023.0,1024.0,1023.0,1023.0,1016.0,1023.0,1026.0,1026.0,1024.0,1026.0,1020.0,1025.0,1030.0,1028.0,1027.0,1030.0,1024.0,1024.0,1030.0,1029.0,1026.0,1029.0,1024.0,1025.0,1030.0,1031.0,1025.0,1029.0,1026.0,1028.0,1033.0,1034.0,1026.0,1030.0,1033.0,1029.0,1034.0,1038.0,1029.0,1031.0,1040.0,1026.0,1030.0,1035.0,1027.0,1027.0,1038.0,1027.0,1030.0,1044.0,1031.0,1030.0,1107.0,1026.0,1029.0,1042.0,1030.0,1030.0,2327,2207,1901,	00:28:46.893,-0.01025390625,0.07568359375,1.0205078125,0.244140625,0.54931640625,0.1220703125,4.2242431640625,0.59326171875,-75.772705078125,55.0,-571.0,-4002.0,-0.78857421875,-0.03228759765625,0.0185546875,0.613800048828125,4.226445925313105,0.5954578466790773,-79.97852216799647,-0.7655103715012481,-0.031588558656347195,0.019718216688892044,0.6423450988500226,1,	00:28:46.894,0.04248046875,0.01513671875,1.01953125,-0.244140625,0.30517578125,0.48828125,0.7965087890625,-2.3236083984375,31.3055419921875,-59.0,730.0,-1823.0,0.962646484375,0.012176513671875,-0.01763916015625,0.269866943359375,0.798095923982168,-2.3225935943837315,24.80250349830806,0.9764129849232278,0.011153127108382784,-0.018298308762788793,0.21484520596335935,1
1782117236.030975,0.375,1017.0,1021.0,1020.0,1019.0,1022.0,1022.0,1020.0,1021.0,1012.0,1020.0,1021.0,1023.0,1021.0,1021.0,1013.0,1020.0,1020.0,1021.0,1023.0,1020.0,1021.0,1012.0,1020.0,1020.0,1020.0,1022.0,1023.0,1021.0,1021.0,1012.0,1020.0,1019.0,1020.0,1021.0,1021.0,1023.0,1021.0,1021.0,1012.0,1020.0,1020.0,1020.0,1020.0,1022.0,1022.0,1021.0,1022.0,1013.0,1020.0,1020.0,1021.0,1019.0,1021.0,1021.0,1023.0,1021.0,1022.0,1013.0,1020.0,1020.0,1020.0,1019.0,1021.0,1021.0,1023.0,1021.0,1022.0,1013.0,1020.0,1021.0,1022.0,1020.0,1021.0,1022.0,1022.0,1021.0,1022.0,1013.0,1020.0,1021.0,1021.0,1020.0,1021.0,1022.0,1023.0,1021.0,1022.0,1013.0,1020.0,1020.0,1021.0,1019.0,1021.0,1021.0,1022.0,1021.0,1022.0,1013.0,1020.0,1020.0,1021.0,1019.0,1021.0,1021.0,1023.0,1021.0,1022.0,1012.0,1020.0,1020.0,1021.0,1019.0,1022.0,1022.0,1023.0,1022.0,1024.0,1014.0,1021.0,1022.0,1024.0,1021.0,1022.0,1023.0,1022.0,1023.0,1014.0,1021.0,1022.0,1021.0,1022.0,1023.0,1021.0,1023.0,1014.0,1020.0,1022.0,1023.0,1024.0,1022.0,1024.0,1014.0,1021.0,1021.0,1023.0,1024.0,1022.0,1022.0,1015.0,1021.0,1022.0,1022.0,1024.0,1022.0,1023.0,1015.0,1021.0,1022.0,1023.0,1021.0,1021.0,1014.0,1022.0,1023.0,1024.0,1023.0,1024.0,1016.0,1023.0,1024.0,1025.0,1023.0,1026.0,1019.0,1021.0,1023.0,1024.0,1023.0,1023.0,1017.0,1023.0,1025.0,1026.0,1025.0,1025.0,1020.0,1024.0,1029.0,1029.0,1028.0,1030.0,1024.0,1024.0,1029.0,1029.0,1026.0,1029.0,1024.0,1025.0,1029.0,1031.0,1026.0,1029.0,1026.0,1028.0,1032.0,1034.0,1027.0,1030.0,1032.0,1028.0,1034.0,1038.0,1029.0,1031.0,1039.0,1026.0,1030.0,1036.0,1027.0,1028.0,1036.0,1027.0,1030.0,1044.0,1032.0,1031.0,1106.0,1025.0,1030.0,1042.0,1032.0,1030.0,2327,2207,1902,	00:28:46.903,-0.0107421875,0.07568359375,1.01953125,0.30517578125,0.6103515625,0.1220703125,4.317626953125,0.6317138671875,-75.7672119140625,56.0,-575.0,-4002.0,-0.788543701171875,-0.033111572265625,0.018768310546875,0.613800048828125,4.315967972508946,0.6312053932738724,-79.9759285805522,-0.765491170896895,-0.032387322303978394,0.019980417716577117,0.6423201005267931,1,	00:28:46.904,0.04150390625,0.01513671875,1.0205078125,-0.18310546875,0.42724609375,0.42724609375,0.889892578125,-2.3291015625,31.3055419921875,-60.0,730.0,-1822.0,0.962646484375,0.012939453125,-0.017486572265625,0.2698974609375,0.8871917332745457,-2.32909734999523,24.803141496476986,0.976401602564907,0.011924570581678787,-0.018186613632685415,0.21486498600213877,1
1782117236.042171,0.387,1018.0,1022.0,1020.0,1020.0,1021.0,1023.0,1021.0,1022.0,1012.0,1020.0,1021.0,1023.0,1021.0,1022.0,1012.0,1020.0,1020.0,1022.0,1023.0,1021.0,1022.0,1012.0,1020.0,1020.0,1021.0,1022.0,1023.0,1021.0,1021.0,1012.0,1020.0,1019.0,1020.0,1021.0,1021.0,1023.0,1021.0,1022.0,1012.0,1020.0,1020.0,1021.0,1021.0,1021.0,1023.0,1021.0,1021.0,1012.0,1020.0,1020.0,1021.0,1019.0,1021.0,1021.0,1023.0,1021.0,1021.0,1013.0,1020.0,1020.0,1020.0,1019.0,1021.0,1021.0,1023.0,1021.0,1023.0,1012.0,1020.0,1021.0,1022.0,1021.0,1021.0,1021.0,1023.0,1021.0,1022.0,1013.0,1019.0,1020.0,1021.0,1019.0,1021.0,1021.0,1023.0,1022.0,1023.0,1012.0,1020.0,1020.0,1020.0,1019.0,1021.0,1021.0,1023.0,1021.0,1022.0,1013.0,1020.0,1020.0,1021.0,1019.0,1021.0,1022.0,1023.0,1021.0,1021.0,1013.0,1020.0,1020.0,1020.0,1019.0,1021.0,1022.0,1023.0,1022.0,1023.0,1013.0,1021.0,1022.0,1023.0,1022.0,1022.0,1024.0,1022.0,1024.0,1014.0,1021.0,1022.0,1021.0,1022.0,1024.0,1021.0,1022.0,1014.0,1020.0,1022.0,1022.0,1024.0,1022.0,1023.0,1015.0,1021.0,1022.0,1022.0,1024.0,1022.0,1023.0,1014.0,1021.0,1021.0,1022.0,1024.0,1022.0,1023.0,1015.0,1022.0,1022.0,1024.0,1021.0,1021.0,1014.0,1022.0,1023.0,1025.0,1022.0,1023.0,1016.0,1022.0,1024.0,1026.0,1024.0,1026.0,1019.0,1022.0,1023.0,1025.0,1022.0,1023.0,1016.0,1023.0,1025.0,1026.0,1025.0,1026.0,1019.0,1025.0,1029.0,1029.0,1028.0,1031.0,1024.0,1025.0,1028.0,1030.0,1026.0,1029.0,1024.0,1025.0,1030.0,1031.0,1026.0,1029.0,1026.0,1029.0,1032.0,1035.0,1027.0,1030.0,1032.0,1029.0,1033.0,1039.0,1030.0,1032.0,1039.0,1026.0,1029.0,1037.0,1028.0,1027.0,1037.0,1027.0,1030.0,1045.0,1032.0,1030.0,1106.0,1026.0,1029.0,1043.0,1032.0,1029.0,2327,2207,1902,	00:28:46.913,-0.0107421875,0.0751953125,1.02001953125,0.54931640625,0.67138671875,0.1220703125,4.2352294921875,0.6097412109375,-75.7672119140625,57.0,-572.0,-4001.0,-0.78857421875,-0.032440185546875,0.018463134765625,0.613800048828125,4.233796668559818,0.61192300858527,-79.97515800067146,-0.7655232108829444,-0.03173049389259007,0.019648461632711178,0.6423249390396323,1,	00:28:46.914,0.041015625,0.015625,1.02001953125,-0.244140625,0.54931640625,0.42724609375,0.8514404296875,-2.2357177734375,31.31103515625,-60.0,729.0,-1822.0,0.962646484375,0.012451171875,-0.01678466796875,0.269927978515625,0.8536392050993391,-2.23745407044256,24.80873256948085,0.976411408878668,0.01146793224093048,-0.017468039575387666,0.214904896954641,1
1782117236.053259,0.398,1018.0,1023.0,1021.0,1020.0,1021.0,1023.0,1020.0,1021.0,1012.0,1020.0,1021.0,1023.0,1021.0,1021.0,1012.0,1020.0,1020.0,1021.0,1023.0,1021.0,1022.0,1012.0,1020.0,1020.0,1021.0,1021.0,1023.0,1021.0,1021.0,1012.0,1020.0,1020.0,1020.0,1021.0,1021.0,1023.0,1021.0,1022.0,1012.0,1020.0,1020.0,1020.0,1021.0,1021.0,1023.0,1021.0,1022.0,1012.0,1020.0,1020.0,1020.0,1019.0,1021.0,1021.0,1023.0,1021.0,1021.0,1012.0,1020.0,1020.0,1020.0,1019.0,1021.0,1022.0,1023.0,1020.0,1022.0,1013.0,1020.0,1022.0,1022.0,1020.0,1021.0,1021.0,1024.0,1022.0,1021.0,1012.0,1020.0,1020.0,1021.0,1020.0,1021.0,1022.0,1024.0,1021.0,1022.0,1012.0,1020.0,1020.0,1020.0,1019.0,1021.0,1022.0,1023.0,1021.0,1022.0,1013.0,1020.0,1020.0,1021.0,1019.0,1021.0,1021.0,1023.0,1021.0,1021.0,1012.0,1020.0,1020.0,1021.0,1019.0,1021.0,1022.0,1024.0,1022.0,1023.0,1013.0,1021.0,1022.0,1023.0,1021.0,1022.0,1024.0,1022.0,1023.0,1013.0,1021.0,1022.0,1021.0,1022.0,1024.0,1022.0,1023.0,1013.0,1020.0,1022.0,1022.0,1024.0,1022.0,1024.0,1014.0,1021.0,1022.0,1022.0,1024.0,1022.0,1024.0,1015.0,1021.0,1022.0,1022.0,1024.0,1022.0,1023.0,1014.0,1021.0,1022.0,1023.0,1021.0,1021.0,1013.0,1022.0,1023.0,1024.0,1022.0,1024.0,1016.0,1023.0,1024.0,1025.0,1024.0,1026.0,1018.0,1022.0,1023.0,1025.0,1022.0,1024.0,1016.0,1024.0,1025.0,1027.0,1024.0,1026.0,1019.0,1025.0,1029.0,1029.0,1028.0,1030.0,1024.0,1025.0,1029.0,1029.0,1026.0,1029.0,1024.0,1025.0,1029.0,1031.0,1026.0,1029.0,1025.0,1028.0,1032.0,1035.0,1027.0,1030.0,1032.0,1029.0,1034.0,1038.0,1029.0,1031.0,1039.0,1026.0,1029.0,1036.0,1028.0,1027.0,1036.0,1028.0,1030.0,1045.0,1032.0,1030.0,1107.0,1027.0,1028.0,1044.0,1031.0,1030.0,2327,2207,1901,	00:28:46.923,-0.01171875,0.0751953125,1.0185546875,0.732421875,0.79345703125,0.18310546875,4.21875,0.7086181640625,-75.7672119140625,57.0,-572.0,-4000.0,-0.78857421875,-0.0328369140625,0.017730712890625,0.613800048828125,4.218545892354547,0.7085422339617452,-79.97300024043197,-0.7655158606779963,-0.03217028857495736,0.018916686523294084,0.6423337906061067,1,	00:28:46.924,0.04150390625,0.01513671875,1.01953125,-0.244140625,0.67138671875,0.42724609375,0.845947265625,-2.3236083984375,31.3165283203125,-60.0,728.0,-1825.0,0.962615966796875,0.012603759765625,-0.01751708984375,0.269989013671875,0.8480394418881159,-2.3223584779160764,24.81322856773332,0.9763879618651518,0.01157994867608383,-0.018201581781548386,0.21494453967040797,1
1782117236.061466,0.406,1018.0,1023.0,1020.0,1020.0,1021.0,1023.0,1020.0,1021.0,1012.0,1020.0,1021.0,1023.0,1021.0,1021.0,1012.0,1020.0,1020.0,1021.0,1023.0,1021.0,1022.0,1012.0,1020.0,1021.0,1020.0,1021.0,1023.0,1021.0,1022.0,1012.0,1019.0,1019.0,1020.0,1021.0,1021.0,1023.0,1021.0,1022.0,1012.0,1020.0,1021.0,1021.0,1020.0,1021.0,1023.0,1021.0,1021.0,1012.0,1020.0,1020.0,1020.0,1019.0,1021.0,1021.0,1023.0,1022.0,1021.0,1011.0,1020.0,1020.0,1021.0,1019.0,1021.0,1022.0,1023.0,1022.0,1023.0,1012.0,1020.0,1021.0,1021.0,1021.0,1021.0,1021.0,1023.0,1022.0,1022.0,1012.0,1020.0,1021.0,1021.0,1020.0,1021.0,1022.0,1023.0,1021.0,1022.0,1013.0,1020.0,1020.0,1021.0,1019.0,1021.0,1021.0,1023.0,1021.0,1022.0,1012.0,1020.0,1019.0,1020.0,1019.0,1021.0,1021.0,1024.0,1022.0,1021.0,1012.0,1020.0,1020.0,1021.0,1018.0,1022.0,1022.0,1024.0,1021.0,1024.0,1013.0,1021.0,1022.0,1023.0,1021.0,1022.0,1024.0,1022.0,1024.0,1013.0,1021.0,1023.0,1022.0,1022.0,1024.0,1022.0,1023.0,1014.0,1020.0,1022.0,1022.0,1024.0,1023.0,1024.0,1014.0,1021.0,1022.0,1023.0,1024.0,1022.0,1023.0,1014.0,1021.0,1021.0,1022.0,1024.0,1022.0,1023.0,1014.0,1021.0,1022.0,1024.0,1021.0,1021.0,1013.0,1022.0,1023.0,1025.0,1023.0,1024.0,1016.0,1023.0,1024.0,1025.0,1024.0,1026.0,1018.0,1022.0,1024.0,1025.0,1023.0,1023.0,1017.0,1023.0,1025.0,1027.0,1024.0,1025.0,1019.0,1025.0,1029.0,1029.0,1028.0,1031.0,1024.0,1025.0,1029.0,1030.0,1026.0,1029.0,1024.0,1026.0,1029.0,1031.0,1026.0,1029.0,1026.0,1028.0,1032.0,1036.0,1027.0,1031.0,1032.0,1029.0,1034.0,1040.0,1029.0,1031.0,1039.0,1026.0,1030.0,1037.0,1028.0,1028.0,1036.0,1027.0,1030.0,1046.0,1032.0,1030.0,1106.0,1026.0,1029.0,1044.0,1031.0,1030.0,2327,2208,1901,	00:28:46.934,-0.01220703125,0.07421875,1.02001953125,0.8544921875,0.79345703125,0.1220703125,4.141845703125,0.68115234375,-75.7672119140625,59.0,-572.0,-3999.0,-0.788604736328125,-0.03216552734375,0.01751708984375,0.613800048828125,4.143225281407813,0.6799664973333758,-79.97221751601025,-0.7655481776640634,-0.03150714089243377,0.01868523685822059,0.6423349201713761,1,	00:28:46.935,0.04150390625,0.0146484375,1.02001953125,-0.1220703125,0.79345703125,0.42724609375,0.758056640625,-2.340087890625,31.322021484375,-60.0,730.0,-1822.0,0.962615966796875,0.011871337890625,-0.01788330078125,0.27001953125,0.7586331661288874,-2.34039825516245,24.82120189470955,0.9763783905760678,0.010853233997381426,-0.0185222442791296,0.2149985399828328,1
1782117236.072437,0.417,1018.0,1022.0,1020.0,1019.0,1021.0,1023.0,1021.0,1021.0,1012.0,1021.0,1021.0,1023.0,1021.0,1021.0,1012.0,1020.0,1020.0,1021.0,1023.0,1021.0,1021.0,1012.0,1020.0,1021.0,1021.0,1021.0,1023.0,1021.0,1021.0,1012.0,1020.0,1020.0,1020.0,1021.0,1021.0,1024.0,1021.0,1022.0,1012.0,1020.0,1021.0,1021.0,1021.0,1021.0,1023.0,1021.0,1021.0,1011.0,1020.0,1020.0,1020.0,1019.0,1021.0,1021.0,1024.0,1021.0,1021.0,1012.0,1020.0,1020.0,1020.0,1019.0,1021.0,1021.0,1024.0,1021.0,1022.0,1012.0,1020.0,1021.0,1022.0,1021.0,1021.0,1021.0,1023.0,1021.0,1022.0,1012.0,1020.0,1021.0,1021.0,1020.0,1021.0,1021.0,1024.0,1021.0,1022.0,1012.0,1020.0,1020.0,1021.0,1019.0,1021.0,1021.0,1023.0,1021.0,1022.0,1012.0,1020.0,1020.0,1021.0,1019.0,1021.0,1021.0,1024.0,1021.0,1021.0,1013.0,1020.0,1020.0,1021.0,1019.0,1022.0,1022.0,1024.0,1022.0,1023.0,1013.0,1021.0,1022.0,1024.0,1022.0,1022.0,1024.0,1022.0,1023.0,1013.0,1021.0,1022.0,1022.0,1022.0,1024.0,1021.0,1022.0,1013.0,1021.0,1022.0,1022.0,1024.0,1022.0,1024.0,1014.0,1021.0,1022.0,1022.0,1025.0,1022.0,1023.0,1014.0,1020.0,1021.0,1022.0,1025.0,1021.0,1023.0,1014.0,1022.0,1022.0,1024.0,1021.0,1021.0,1013.0,1022.0,1023.0,1025.0,1022.0,1024.0,1015.0,1022.0,1024.0,1026.0,1023.0,1025.0,1018.0,1021.0,1023.0,1025.0,1023.0,1023.0,1016.0,1023.0,1025.0,1027.0,1025.0,1026.0,1019.0,1025.0,1028.0,1030.0,1027.0,1031.0,1024.0,1025.0,1029.0,1030.0,1025.0,1029.0,1023.0,1025.0,1029.0,1032.0,1026.0,1029.0,1025.0,1028.0,1032.0,1036.0,1027.0,1030.0,1032.0,1029.0,1033.0,1041.0,1029.0,1032.0,1039.0,1026.0,1029.0,1038.0,1028.0,1027.0,1036.0,1027.0,1030.0,1046.0,1032.0,1030.0,1106.0,1026.0,1029.0,1045.0,1031.0,1030.0,2327,2208,1902,	00:28:46.944,-0.009765625,0.0751953125,1.01806640625,0.8544921875,0.9765625,0.1220703125,4.2022705078125,0.6097412109375,-75.76171875,58.0,-568.0,-4000.0,-0.78863525390625,-0.032196044921875,0.018280029296875,0.61376953125,4.199762391899344,0.6115386918575761,-79.96975883045853,-0.7655629575333326,-0.031501891829956455,0.01945877103217476,0.6422945936981472,1,	00:28:46.945,0.041015625,0.01513671875,1.01904296875,-0.1220703125,0.732421875,0.42724609375,0.8404541015625,-2.3016357421875,31.3275146484375,-61.0,731.0,-1823.0,0.962615966796875,0.01251220703125,-0.017333984375,0.270050048828125,0.8427771122507475,-2.2999901810229604,24.822110989484322,0.9763759816595796,0.011494606877282616,-0.018019957524819098,0.21501883076101178,1
1782117236.082674,0.427,1018.0,1023.0,1020.0,1020.0,1021.0,1023.0,1021.0,1021.0,1012.0,1020.0,1021.0,1023.0,1021.0,1021.0,1012.0,1020.0,1020.0,1022.0,1024.0,1021.0,1021.0,1012.0,1021.0,1020.0,1020.0,1021.0,1024.0,1021.0,1021.0,1011.0,1020.0,1020.0,1020.0,1020.0,1021.0,1023.0,1021.0,1021.0,1012.0,1020.0,1020.0,1020.0,1020.0,1021.0,1024.0,1021.0,1022.0,1011.0,1020.0,1020.0,1020.0,1019.0,1021.0,1021.0,1023.0,1021.0,1021.0,1012.0,1020.0,1020.0,1020.0,1019.0,1021.0,1021.0,1024.0,1021.0,1022.0,1012.0,1020.0,1021.0,1022.0,1020.0,1021.0,1022.0,1024.0,1022.0,1022.0,1012.0,1020.0,1020.0,1021.0,1020.0,1021.0,1021.0,1024.0,1021.0,1022.0,1012.0,1020.0,1020.0,1021.0,1019.0,1021.0,1021.0,1024.0,1021.0,1022.0,1012.0,1020.0,1020.0,1020.0,1019.0,1020.0,1022.0,1024.0,1021.0,1022.0,1012.0,1020.0,1020.0,1021.0,1019.0,1021.0,1022.0,1024.0,1022.0,1023.0,1014.0,1021.0,1022.0,1024.0,1022.0,1022.0,1024.0,1022.0,1023.0,1013.0,1020.0,1021.0,1022.0,1022.0,1024.0,1022.0,1022.0,1014.0,1020.0,1022.0,1022.0,1024.0,1022.0,1024.0,1015.0,1021.0,1022.0,1023.0,1024.0,1021.0,1023.0,1014.0,1021.0,1022.0,1022.0,1024.0,1022.0,1023.0,1015.0,1021.0,1022.0,1024.0,1021.0,1021.0,1013.0,1022.0,1023.0,1025.0,1022.0,1024.0,1016.0,1023.0,1024.0,1026.0,1024.0,1026.0,1018.0,1022.0,1023.0,1025.0,1022.0,1023.0,1016.0,1023.0,1025.0,1027.0,1024.0,1026.0,1019.0,1024.0,1029.0,1030.0,1027.0,1031.0,1024.0,1024.0,1029.0,1031.0,1026.0,1029.0,1024.0,1025.0,1029.0,1032.0,1025.0,1029.0,1026.0,1028.0,1032.0,1036.0,1027.0,1031.0,1032.0,1029.0,1034.0,1040.0,1029.0,1031.0,1039.0,1026.0,1030.0,1037.0,1027.0,1028.0,1037.0,1027.0,1030.0,1046.0,1031.0,1030.0,1106.0,1025.0,1030.0,1045.0,1030.0,1030.0,2327,2208,1901,	00:28:46.954,-0.01123046875,0.0751953125,1.01953125,0.91552734375,0.91552734375,0.18310546875,4.273681640625,0.6866455078125,-75.76171875,59.0,-572.0,-4000.0,-0.788604736328125,-0.033111572265625,0.0181884765625,0.613739013671875,4.274677205372269,0.6841957751832783,-79.96651311233245,-0.7655424519855019,-0.032409965614080445,0.019392191998098926,0.6422758684758665,1,	00:28:46.955,0.041015625,0.01513671875,1.02001953125,-0.244140625,0.67138671875,0.42724609375,0.9283447265625,-2.3236083984375,31.3275146484375,-60.0,727.0,-1822.0,0.96258544921875,0.013275146484375,-0.017333984375,0.27008056640625,0.9273506726384422,-2.321764448228876,24.822970019502094,0.9763615478001836,0.012256146060623509,-0.018046706152396355,0.2150400689592979,1
1782117236.092862,0.437,1018.0,1023.0,1020.0,1019.0,1021.0,1024.0,1020.0,1021.0,1013.0,1020.0,1021.0,1024.0,1021.0,1022.0,1012.0,1019.0,1020.0,1021.0,1024.0,1021.0,1021.0,1012.0,1020.0,1021.0,1020.0,1022.0,1023.0,1021.0,1021.0,1012.0,1020.0,1020.0,1020.0,1021.0,1021.0,1023.0,1021.0,1021.0,1012.0,1020.0,1020.0,1020.0,1020.0,1022.0,1023.0,1020.0,1021.0,1012.0,1020.0,1021.0,1021.0,1019.0,1021.0,1022.0,1023.0,1021.0,1021.0,1012.0,1020.0,1020.0,1021.0,1019.0,1020.0,1022.0,1023.0,1020.0,1022.0,1012.0,1020.0,1022.0,1022.0,1020.0,1020.0,1021.0,1023.0,1021.0,1021.0,1012.0,1020.0,1020.0,1021.0,1019.0,1021.0,1022.0,1024.0,1021.0,1022.0,1012.0,1020.0,1021.0,1021.0,1019.0,1020.0,1022.0,1024.0,1021.0,1022.0,1013.0,1020.0,1020.0,1021.0,1019.0,1020.0,1022.0,1023.0,1021.0,1022.0,1013.0,1020.0,1020.0,1020.0,1019.0,1021.0,1022.0,1024.0,1021.0,1023.0,1014.0,1021.0,1023.0,1024.0,1021.0,1022.0,1024.0,1021.0,1023.0,1014.0,1021.0,1022.0,1021.0,1022.0,1024.0,1022.0,1022.0,1014.0,1021.0,1022.0,1022.0,1025.0,1021.0,1024.0,1015.0,1021.0,1021.0,1022.0,1025.0,1022.0,1023.0,1015.0,1021.0,1021.0,1022.0,1024.0,1021.0,1023.0,1015.0,1021.0,1022.0,1024.0,1021.0,1021.0,1014.0,1021.0,1023.0,1025.0,1022.0,1023.0,1016.0,1023.0,1024.0,1026.0,1023.0,1026.0,1019.0,1021.0,1024.0,1025.0,1022.0,1023.0,1016.0,1023.0,1026.0,1027.0,1024.0,1026.0,1019.0,1024.0,1029.0,1030.0,1027.0,1031.0,1024.0,1024.0,1029.0,1030.0,1025.0,1029.0,1025.0,1024.0,1030.0,1032.0,1026.0,1029.0,1026.0,1028.0,1033.0,1036.0,1027.0,1030.0,1032.0,1028.0,1034.0,1041.0,1029.0,1031.0,1040.0,1026.0,1030.0,1038.0,1027.0,1028.0,1036.0,1026.0,1030.0,1047.0,1031.0,1029.0,1107.0,1026.0,1030.0,1045.0,1030.0,1029.0,2328,2208,1902,	00:28:46.964,-0.01171875,0.076171875,1.02001953125,0.8544921875,0.8544921875,0.18310546875,4.2681884765625,0.604248046875,-75.7562255859375,57.0,-572.0,-3998.0,-0.78863525390625,-0.032623291015625,0.01873779296875,0.61370849609375,4.2704052720171415,0.6018328865116253,-79.9642003417708,-0.7655769172128639,-0.031920427691226425,0.019918040234187126,0.6422432107855143,1,	00:28:46.966,0.04150390625,0.015625,1.01953125,-0.18310546875,0.67138671875,0.42724609375,0.8349609375,-2.3291015625,31.3330078125,-61.0,729.0,-1823.0,0.96258544921875,0.01251220703125,-0.017608642578125,0.2701416015625,0.8351265209933048,-2.331793217004711,24.831017026846023,0.9763541207928655,0.011490437671241577,-0.01830441436668104,0.21509427948601223,1
1782117236.103366,0.448,1017.0,1023.0,1020.0,1020.0,1022.0,1023.0,1020.0,1021.0,1012.0,1020.0,1022.0,1023.0,1021.0,1021.0,1012.0,1020.0,1020.0,1022.0,1023.0,1021.0,1022.0,1012.0,1020.0,1020.0,1020.0,1022.0,1024.0,1021.0,1021.0,1012.0,1020.0,1020.0,1020.0,1021.0,1022.0,1023.0,1021.0,1021.0,1012.0,1020.0,1021.0,1020.0,1020.0,1022.0,1023.0,1021.0,1021.0,1012.0,1020.0,1020.0,1021.0,1019.0,1020.0,1022.0,1024.0,1021.0,1022.0,1012.0,1020.0,1020.0,1021.0,1019.0,1021.0,1021.0,1023.0,1021.0,1022.0,1013.0,1021.0,1021.0,1022.0,1021.0,1021.0,1021.0,1024.0,1022.0,1022.0,1013.0,1020.0,1021.0,1021.0,1019.0,1020.0,1021.0,1024.0,1021.0,1021.0,1012.0,1020.0,1020.0,1021.0,1019.0,1020.0,1021.0,1024.0,1021.0,1022.0,1012.0,1020.0,1020.0,1020.0,1019.0,1021.0,1021.0,1024.0,1021.0,1021.0,1013.0,1020.0,1020.0,1021.0,1019.0,1021.0,1022.0,1024.0,1022.0,1023.0,1014.0,1021.0,1023.0,1023.0,1021.0,1023.0,1024.0,1021.0,1023.0,1014.0,1021.0,1022.0,1021.0,1022.0,1024.0,1022.0,1022.0,1014.0,1021.0,1021.0,1022.0,1024.0,1021.0,1024.0,1015.0,1021.0,1022.0,1023.0,1024.0,1022.0,1022.0,1014.0,1021.0,1021.0,1022.0,1025.0,1022.0,1023.0,1014.0,1021.0,1022.0,1025.0,1021.0,1021.0,1013.0,1022.0,1023.0,1025.0,1022.0,1024.0,1016.0,1022.0,1025.0,1026.0,1023.0,1025.0,1018.0,1021.0,1024.0,1026.0,1022.0,1024.0,1017.0,1022.0,1025.0,1027.0,1024.0,1025.0,1020.0,1024.0,1029.0,1030.0,1027.0,1030.0,1024.0,1024.0,1029.0,1030.0,1025.0,1029.0,1024.0,1024.0,1030.0,1032.0,1026.0,1029.0,1027.0,1028.0,1033.0,1036.0,1026.0,1031.0,1032.0,1028.0,1034.0,1041.0,1029.0,1032.0,1040.0,1025.0,1030.0,1037.0,1027.0,1027.0,1037.0,1026.0,1031.0,1047.0,1031.0,1030.0,1107.0,1025.0,1030.0,1045.0,1030.0,1029.0,2328,2208,1902,	00:28:46.975,-0.01171875,0.0771484375,1.0185546875,0.79345703125,0.79345703125,0.18310546875,4.3450927734375,0.670166015625,-75.7562255859375,59.0,-575.0,-4001.0,-0.788604736328125,-0.03350830078125,0.018646240234375,0.613677978515625,4.346105618719081,0.6711111811123954,-79.96102622287043,-0.7655561521272178,-0.03281479986928182,0.019878411066214262,0.6422241163512857,1,	00:28:46.976,0.041015625,0.015625,1.01953125,-0.244140625,0.6103515625,0.48828125,0.9063720703125,-2.274169921875,31.3385009765625,-59.0,730.0,-1823.0,0.96258544921875,0.01300048828125,-0.0169677734375,0.2701416015625,0.9090446945464786,-2.2752541592324613,24.8329138606634,0.9763534716232821,0.012014554298585134,-0.017683701215190105,0.215120514236795,1
1782117236.113507,0.458,1017.0,1024.0,1019.0,1019.0,1022.0,1023.0,1021.0,1021.0,1012.0,1020.0,1021.0,1024.0,1021.0,1021.0,1012.0,1020.0,1020.0,1021.0,1024.0,1021.0,1021.0,1013.0,1020.0,1020.0,1020.0,1021.0,1023.0,1021.0,1021.0,1012.0,1020.0,1020.0,1021.0,1020.0,1022.0,1024.0,1021.0,1021.0,1011.0,1020.0,1020.0,1021.0,1021.0,1022.0,1023.0,1021.0,1021.0,1012.0,1020.0,1020.0,1021.0,1019.0,1020.0,1021.0,1024.0,1021.0,1021.0,1013.0,1020.0,1020.0,1021.0,1019.0,1021.0,1022.0,1024.0,1021.0,1022.0,1013.0,1020.0,1021.0,1022.0,1020.0,1021.0,1022.0,1024.0,1021.0,1022.0,1013.0,1020.0,1021.0,1021.0,1019.0,1021.0,1021.0,1024.0,1021.0,1022.0,1012.0,1020.0,1020.0,1021.0,1019.0,1021.0,1021.0,1023.0,1022.0,1022.0,1012.0,1020.0,1020.0,1021.0,1019.0,1021.0,1022.0,1024.0,1021.0,1022.0,1013.0,1020.0,1020.0,1021.0,1019.0,1021.0,1022.0,1024.0,1021.0,1023.0,1014.0,1021.0,1023.0,1024.0,1021.0,1022.0,1024.0,1022.0,1023.0,1014.0,1021.0,1022.0,1021.0,1022.0,1025.0,1022.0,1023.0,1013.0,1020.0,1021.0,1022.0,1024.0,1021.0,1024.0,1015.0,1021.0,1021.0,1022.0,1025.0,1021.0,1023.0,1014.0,1021.0,1021.0,1023.0,1024.0,1022.0,1023.0,1014.0,1021.0,1023.0,1024.0,1021.0,1021.0,1013.0,1021.0,1023.0,1025.0,1022.0,1024.0,1016.0,1022.0,1025.0,1026.0,1023.0,1026.0,1019.0,1021.0,1023.0,1025.0,1022.0,1024.0,1016.0,1023.0,1025.0,1027.0,1024.0,1026.0,1019.0,1024.0,1029.0,1030.0,1027.0,1031.0,1024.0,1024.0,1029.0,1031.0,1025.0,1029.0,1024.0,1025.0,1030.0,1032.0,1025.0,1029.0,1026.0,1028.0,1032.0,1037.0,1026.0,1031.0,1032.0,1029.0,1034.0,1041.0,1029.0,1032.0,1040.0,1025.0,1030.0,1038.0,1027.0,1027.0,1037.0,1026.0,1031.0,1047.0,1031.0,1030.0,1106.0,1025.0,1030.0,1045.0,1030.0,1029.0,2328,2208,1901,	00:28:46.985,-0.01220703125,0.07666015625,1.02001953125,0.79345703125,0.732421875,0.18310546875,4.2681884765625,0.703125,-75.750732421875,57.0,-572.0,-3999.0,-0.78863525390625,-0.03314208984375,0.01800537109375,0.61370849609375,4.265602547411599,0.7014797614262733,-79.95970261924921,-0.7655788822464087,-0.032447307537432094,0.019223889467424322,0.6422356182629979,1,	00:28:46.986,0.041015625,0.015625,1.02001953125,-0.244140625,0.54931640625,0.48828125,0.8349609375,-2.3291015625,31.343994140625,-60.0,730.0,-1824.0,0.962554931640625,0.01251220703125,-0.017608642578125,0.27020263671875,0.8369802626415037,-2.3297554776978266,24.840677535611167,0.9763361791429945,0.011503953646542497,-0.018282601752704904,0.215176836160653,1
1782117236.125084,0.470,1018.0,1023.0,1020.0,1019.0,1022.0,1023.0,1020.0,1021.0,1012.0,1019.0,1021.0,1023.0,1021.0,1022.0,1012.0,1020.0,1020.0,1021.0,1023.0,1021.0,1021.0,1012.0,1020.0,1020.0,1020.0,1021.0,1023.0,1021.0,1021.0,1012.0,1020.0,1020.0,1021.0,1020.0,1021.0,1023.0,1021.0,1022.0,1012.0,1020.0,1020.0,1021.0,1020.0,1021.0,1023.0,1021.0,1022.0,1012.0,1020.0,1020.0,1020.0,1019.0,1020.0,1021.0,1024.0,1021.0,1021.0,1012.0,1020.0,1020.0,1020.0,1019.0,1021.0,1021.0,1024.0,1021.0,1022.0,1013.0,1020.0,1021.0,1022.0,1021.0,1021.0,1022.0,1024.0,1021.0,1022.0,1013.0,1020.0,1020.0,1021.0,1019.0,1020.0,1021.0,1024.0,1021.0,1022.0,1012.0,1020.0,1021.0,1021.0,1020.0,1020.0,1021.0,1023.0,1021.0,1022.0,1012.0,1020.0,1021.0,1020.0,1019.0,1021.0,1021.0,1024.0,1021.0,1022.0,1013.0,1020.0,1020.0,1021.0,1019.0,1021.0,1021.0,1024.0,1022.0,1023.0,1013.0,1021.0,1022.0,1023.0,1021.0,1022.0,1024.0,1021.0,1023.0,1014.0,1021.0,1022.0,1021.0,1022.0,1024.0,1022.0,1023.0,1014.0,1020.0,1021.0,1023.0,1024.0,1021.0,1024.0,1014.0,1021.0,1021.0,1023.0,1025.0,1022.0,1023.0,1015.0,1021.0,1021.0,1022.0,1025.0,1021.0,1023.0,1015.0,1021.0,1023.0,1024.0,1021.0,1021.0,1014.0,1021.0,1023.0,1025.0,1021.0,1024.0,1016.0,1022.0,1024.0,1027.0,1023.0,1026.0,1018.0,1021.0,1024.0,1025.0,1022.0,1024.0,1016.0,1023.0,1025.0,1027.0,1024.0,1026.0,1019.0,1023.0,1029.0,1030.0,1027.0,1031.0,1024.0,1023.0,1029.0,1030.0,1025.0,1030.0,1024.0,1024.0,1030.0,1033.0,1025.0,1029.0,1026.0,1028.0,1032.0,1037.0,1027.0,1031.0,1032.0,1028.0,1034.0,1041.0,1029.0,1032.0,1039.0,1026.0,1030.0,1038.0,1027.0,1028.0,1037.0,1026.0,1030.0,1047.0,1030.0,1030.0,1107.0,1026.0,1030.0,1046.0,1030.0,1030.0,2328,2208,1901,	00:28:46.995,-0.01123046875,0.076171875,1.02001953125,0.67138671875,0.732421875,0.1220703125,4.2791748046875,0.615234375,-75.750732421875,59.0,-574.0,-3995.0,-0.788665771484375,-0.03277587890625,0.0186767578125,0.613677978515625,4.278826601780545,0.617251167410105,-79.95787066079778,-0.7656062683377014,-0.03206415973849998,0.0198604254676257,0.6422028457135084,1,	00:28:46.996,0.04150390625,0.015625,1.01904296875,-0.244140625,0.48828125,0.42724609375,0.9283447265625,-2.3291015625,31.343994140625,-59.0,728.0,-1823.0,0.962554931640625,0.013275146484375,-0.01739501953125,0.270233154296875,0.9259629777793178,-2.32989093867421,24.841300659200325,0.9763257560293828,0.012262447850511818,-0.01811659453361847,0.21519628130818627,1
1782117236.136503,0.481,1017.0,1023.0,1020.0,1019.0,1021.0,1023.0,1020.0,1022.0,1012.0,1020.0,1021.0,1023.0,1021.0,1022.0,1012.0,1020.0,1020.0,1021.0,1024.0,1021.0,1022.0,1012.0,1020.0,1021.0,1020.0,1022.0,1024.0,1021.0,1021.0,1011.0,1020.0,1021.0,1020.0,1020.0,1022.0,1023.0,1021.0,1022.0,1012.0,1020.0,1020.0,1020.0,1020.0,1021.0,1023.0,1021.0,1022.0,1012.0,1020.0,1020.0,1020.0,1019.0,1020.0,1021.0,1024.0,1021.0,1022.0,1012.0,1020.0,1020.0,1020.0,1019.0,1021.0,1022.0,1023.0,1021.0,1022.0,1012.0,1020.0,1022.0,1022.0,1021.0,1021.0,1021.0,1024.0,1021.0,1022.0,1013.0,1020.0,1021.0,1021.0,1020.0,1020.0,1021.0,1024.0,1021.0,1022.0,1012.0,1020.0,1021.0,1021.0,1020.0,1021.0,1022.0,1024.0,1021.0,1022.0,1012.0,1020.0,1020.0,1021.0,1019.0,1020.0,1022.0,1023.0,1021.0,1022.0,1012.0,1020.0,1020.0,1021.0,1019.0,1021.0,1022.0,1024.0,1022.0,1024.0,1014.0,1021.0,1023.0,1023.0,1021.0,1022.0,1024.0,1022.0,1023.0,1015.0,1020.0,1022.0,1021.0,1022.0,1024.0,1022.0,1022.0,1013.0,1020.0,1022.0,1023.0,1025.0,1022.0,1023.0,1014.0,1021.0,1021.0,1022.0,1025.0,1022.0,1023.0,1015.0,1021.0,1021.0,1022.0,1024.0,1022.0,1023.0,1014.0,1021.0,1022.0,1024.0,1022.0,1021.0,1013.0,1022.0,1023.0,1025.0,1022.0,1024.0,1016.0,1022.0,1024.0,1026.0,1023.0,1026.0,1018.0,1022.0,1023.0,1025.0,1023.0,1024.0,1016.0,1023.0,1025.0,1027.0,1024.0,1026.0,1019.0,1024.0,1028.0,1030.0,1028.0,1031.0,1024.0,1024.0,1030.0,1030.0,1026.0,1029.0,1024.0,1024.0,1031.0,1032.0,1026.0,1030.0,1026.0,1028.0,1033.0,1036.0,1027.0,1031.0,1032.0,1028.0,1034.0,1040.0,1030.0,1032.0,1039.0,1026.0,1031.0,1037.0,1028.0,1027.0,1036.0,1026.0,1031.0,1046.0,1031.0,1030.0,1107.0,1025.0,1030.0,1045.0,1031.0,1030.0,2328,2209,1901,	00:28:47.005,-0.01123046875,0.076171875,1.02001953125,0.6103515625,0.67138671875,0.1220703125,4.2352294921875,0.6976318359375,-75.750732421875,58.0,-572.0,-3997.0,-0.788665771484375,-0.03289794921875,0.017852783203125,0.613677978515625,4.233170268305006,0.6994493181742231,-79.95674284218879,-0.765605126517473,-0.03221974672524317,0.019054858320113145,0.6422208269322365,1,	00:28:47.006,0.041015625,0.01513671875,1.01953125,-0.30517578125,0.3662109375,0.48828125,0.8349609375,-2.296142578125,31.35498046875,-57.0,729.0,-1825.0,0.962554931640625,0.012451171875,-0.017303466796875,0.270294189453125,0.8361578208333635,-2.296004336354451,24.84973829789465,0.9763255119163639,0.011435077205953097,-0.017995657921657793,0.21525308380255687,1
1782117236.145502,0.490,1018.0,1023.0,1020.0,1019.0,1021.0,1023.0,1021.0,1021.0,1012.0,1020.0,1022.0,1023.0,1021.0,1021.0,1012.0,1020.0,1020.0,1022.0,1023.0,1021.0,1022.0,1012.0,1020.0,1021.0,1021.0,1022.0,1023.0,1021.0,1021.0,1012.0,1020.0,1020.0,1020.0,1020.0,1022.0,1023.0,1021.0,1022.0,1012.0,1020.0,1020.0,1020.0,1020.0,1021.0,1023.0,1021.0,1022.0,1012.0,1020.0,1020.0,1020.0,1019.0,1020.0,1021.0,1023.0,1021.0,1021.0,1012.0,1020.0,1020.0,1020.0,1019.0,1021.0,1021.0,1023.0,1021.0,1022.0,1012.0,1020.0,1021.0,1021.0,1021.0,1021.0,1021.0,1024.0,1021.0,1022.0,1012.0,1020.0,1021.0,1021.0,1020.0,1020.0,1022.0,1024.0,1021.0,1022.0,1013.0,1020.0,1021.0,1021.0,1019.0,1020.0,1022.0,1023.0,1021.0,1022.0,1012.0,1020.0,1021.0,1020.0,1019.0,1021.0,1022.0,1023.0,1021.0,1022.0,1013.0,1021.0,1020.0,1021.0,1019.0,1021.0,1022.0,1024.0,1022.0,1023.0,1014.0,1021.0,1022.0,1023.0,1021.0,1022.0,1024.0,1022.0,1023.0,1014.0,1020.0,1022.0,1020.0,1022.0,1024.0,1022.0,1022.0,1015.0,1021.0,1021.0,1023.0,1025.0,1022.0,1024.0,1015.0,1021.0,1021.0,1023.0,1024.0,1022.0,1023.0,1015.0,1020.0,1021.0,1023.0,1024.0,1022.0,1023.0,1015.0,1021.0,1022.0,1024.0,1021.0,1021.0,1014.0,1022.0,1024.0,1025.0,1022.0,1024.0,1015.0,1022.0,1024.0,1025.0,1023.0,1026.0,1018.0,1021.0,1023.0,1025.0,1022.0,1024.0,1017.0,1022.0,1026.0,1027.0,1025.0,1026.0,1020.0,1024.0,1029.0,1029.0,1028.0,1031.0,1024.0,1024.0,1029.0,1030.0,1026.0,1030.0,1025.0,1025.0,1030.0,1031.0,1026.0,1030.0,1026.0,1028.0,1033.0,1036.0,1027.0,1031.0,1033.0,1028.0,1034.0,1039.0,1029.0,1032.0,1040.0,1025.0,1031.0,1037.0,1027.0,1028.0,1037.0,1026.0,1030.0,1046.0,1031.0,1031.0,1108.0,1025.0,1030.0,1044.0,1031.0,1030.0,2328,2209,1901,	00:28:47.016,-0.01123046875,0.07666015625,1.01953125,0.54931640625,0.6103515625,0.18310546875,4.3011474609375,0.63720703125,-75.7452392578125,60.0,-574.0,-4000.0,-0.788665771484375,-0.033050537109375,0.018646240234375,0.6136474609375,4.301914724649106,0.6391296858140113,-79.95373054266815,-0.7656175888039436,-0.032341684561290725,0.01984242589052295,0.6421759893429156,1,	00:28:47.017,0.041015625,0.01416015625,1.0205078125,-0.244140625,0.42724609375,0.42724609375,0.7415771484375,-2.3016357421875,31.3604736328125,-59.0,730.0,-1824.0,0.9625244140625,0.01165771484375,-0.017608642578125,0.27032470703125,0.7425587239255156,-2.303566671763727,24.85772734699501,0.9763181328714042,0.010653063720199963,-0.018235164990717895,0.2153065127153138,1
1782117236.155539,0.500,1017.0,1023.0,1020.0,1020.0,1021.0,1023.0,1021.0,1022.0,1013.0,1020.0,1021.0,1022.0,1021.0,1022.0,1013.0,1020.0,1020.0,1021.0,1023.0,1021.0,1022.0,1013.0,1020.0,1020.0,1020.0,1022.0,1023.0,1021.0,1022.0,1012.0,1020.0,1020.0,1021.0,1020.0,1021.0,1022.0,1021.0,1021.0,1012.0,1020.0,1020.0,1021.0,1021.0,1021.0,1023.0,1021.0,1021.0,1012.0,1020.0,1020.0,1020.0,1019.0,1020.0,1021.0,1023.0,1021.0,1021.0,1012.0,1020.0,1021.0,1020.0,1019.0,1020.0,1021.0,1023.0,1021.0,1022.0,1013.0,1020.0,1022.0,1022.0,1021.0,1021.0,1022.0,1023.0,1022.0,1022.0,1013.0,1020.0,1021.0,1021.0,1020.0,1020.0,1021.0,1023.0,1021.0,1022.0,1013.0,1020.0,1020.0,1020.0,1019.0,1021.0,1021.0,1023.0,1021.0,1022.0,1013.0,1020.0,1020.0,1020.0,1019.0,1020.0,1022.0,1023.0,1021.0,1022.0,1013.0,1020.0,1021.0,1021.0,1019.0,1021.0,1022.0,1024.0,1022.0,1023.0,1014.0,1021.0,1022.0,1023.0,1021.0,1022.0,1024.0,1022.0,1023.0,1015.0,1021.0,1022.0,1021.0,1022.0,1024.0,1022.0,1023.0,1014.0,1020.0,1021.0,1023.0,1024.0,1022.0,1024.0,1015.0,1021.0,1021.0,1022.0,1024.0,1022.0,1023.0,1015.0,1021.0,1021.0,1022.0,1024.0,1022.0,1024.0,1014.0,1020.0,1022.0,1024.0,1022.0,1022.0,1013.0,1022.0,1023.0,1025.0,1023.0,1024.0,1016.0,1022.0,1024.0,1026.0,1024.0,1026.0,1019.0,1022.0,1023.0,1025.0,1022.0,1024.0,1017.0,1023.0,1025.0,1026.0,1025.0,1026.0,1020.0,1024.0,1029.0,1029.0,1028.0,1032.0,1024.0,1024.0,1029.0,1030.0,1026.0,1029.0,1025.0,1026.0,1030.0,1032.0,1026.0,1029.0,1027.0,1028.0,1033.0,1036.0,1028.0,1031.0,1033.0,1028.0,1034.0,1040.0,1029.0,1032.0,1040.0,1026.0,1030.0,1037.0,1027.0,1028.0,1038.0,1027.0,1030.0,1045.0,1031.0,1030.0,1107.0,1025.0,1029.0,1044.0,1031.0,1030.0,2328,2209,1901,	00:28:47.026,-0.0126953125,0.0771484375,1.0185546875,0.42724609375,0.67138671875,0.18310546875,4.339599609375,0.7305908203125,-75.7452392578125,59.0,-578.0,-3996.0,-0.788665771484375,-0.0338134765625,0.018218994140625,0.6136474609375,4.340635961964819,0.730576771454577,-79.95098607698007,-0.7655989284543602,-0.03311305490073264,0.01944742999012534,0.6421710082302499,1,	00:28:47.027,0.04052734375,0.0146484375,1.02001953125,-0.18310546875,0.3662109375,0.42724609375,0.8294677734375,-2.2686767578125,31.3604736328125,-59.0,729.0,-1824.0,0.9625244140625,0.012298583984375,-0.017120361328125,0.270355224609375,0.8269891793655498,-2.2692221719578884,24.858601512023352,0.9763146809232857,0.011308092859876502,-0.017783805445794502,0.21532651279719697,1
