Unix_Time_s,RelativeTime_s,P_1,P_2,P_3,P_4,P_5,P_6,P_7,P_8,P_9,P_10,P_11,P_12,P_13,P_14,P_15,P_16,P_17,P_18,P_19,P_20,P_21,P_22,P_23,P_24,P_25,P_26,P_27,P_28,P_29,P_30,P_31,P_32,P_33,P_34,P_35,P_36,P_37,P_38,P_39,P_40,P_41,P_42,P_43,P_44,P_45,P_46,P_47,P_48,P_49,P_50,P_51,P_52,P_53,P_54,P_55,P_56,P_57,P_58,P_59,P_60,P_61,P_62,P_63,P_64,P_65,P_66,P_67,P_68,P_69,P_70,P_71,P_72,P_73,P_74,P_75,P_76,P_77,P_78,P_79,P_80,P_81,P_82,P_83,P_84,P_85,P_86,P_87,P_88,P_89,P_90,P_91,P_92,P_93,P_94,P_95,P_96,P_97,P_98,P_99,P_100,P_101,P_102,P_103,P_104,P_105,P_106,P_107,P_108,P_109,P_110,P_111,P_112,P_113,P_114,P_115,P_116,P_117,P_118,P_119,P_120,P_121,P_122,P_123,P_124,P_125,P_126,P_127,P_128,P_129,P_130,P_131,P_132,P_133,P_134,P_135,P_136,P_137,P_138,P_139,P_140,P_141,P_142,P_143,P_144,P_145,P_146,P_147,P_148,P_149,P_150,P_151,P_152,P_153,P_154,P_155,P_156,P_157,P_158,P_159,P_160,P_161,P_162,P_163,P_164,P_165,P_166,P_167,P_168,P_169,P_170,P_171,P_172,P_173,P_174,P_175,P_176,P_177,P_178,P_179,P_180,P_181,P_182,P_183,P_184,P_185,P_186,P_187,P_188,P_189,P_190,P_191,P_192,P_193,P_194,P_195,P_196,P_197,P_198,P_199,P_200,P_201,P_202,P_203,P_204,P_205,P_206,P_207,P_208,P_209,P_210,P_211,P_212,P_213,P_214,P_215,P_216,P_217,P_218,P_219,P_220,P_221,P_222,P_223,P_224,P_225,P_226,P_227,P_228,P_229,P_230,P_231,P_232,P_233,Flex1,Flex2,Bat,IMU1_RefTime,IMU1_Ax,IMU1_Ay,IMU1_Az,IMU1_Wx,IMU1_Wy,IMU1_Wz,IMU1_Roll,IMU1_Pitch,IMU1_Yaw,IMU1_Hx,IMU1_Hy,IMU1_Hz,IMU1_Q0,IMU1_Q1,IMU1_Q2,IMU1_Q3,IMU2_RefTime,IMU2_Ax,IMU2_Ay,IMU2_Az,IMU2_Wx,IMU2_Wy,IMU2_Wz,IMU2_Roll,IMU2_Pitch,IMU2_Yaw,IMU2_Hx,IMU2_Hy,IMU2_Hz,IMU2_Q0,IMU2_Q1,IMU2_Q2,IMU2_Q3,IMU1_FusedRoll,IMU1_FusedPitch,IMU1_FusedYaw,IMU1_FusedQ0,IMU1_FusedQ1,IMU1_FusedQ2,IMU1_FusedQ3,IMU1_MagValid,IMU2_FusedRoll,IMU2_FusedPitch,IMU2_FusedYaw,IMU2_FusedQ0,IMU2_FusedQ1,IMU2_FusedQ2,IMU2_FusedQ3,IMU2_MagValid
1782117235.667041,0.011,1023.0,1023.0,1023.0,1023.0,1024.0,1023.0,1022.0,1024.0,1023.0,1024.0,1024.0,1024.0,1024.0,1024.0,1024.0,1024.0,1023.0,1023.0,1023.0,1024.0,1024.0,1024.0,1023.0,1023.0,1023.0,1023.0,1023.0,1024.0,1024.0,1024.0,1023.0,1023.0,1023.0,1023.0,1024.0,1023.0,1023.0,1024.0,1023.0,1022.0,1022.0,1022.0,1023.0,1024.0,1024.0,1024.0,1024.0,1024.0,1023.0,1024.0,1023.0,1024.0,1023.0,1024.0,1023.0,1023.0,1024.0,1023.0,1023.0,1023.0,1023.0,1023.0,1023.0,1024.0,1023.0,1024.0,1024.0,1024.0,1023.0,1022.0,1022.0,1023.0,1023.0,1023.0,1023.0,1024.0,1024.0,1023.0,1023.0,1022.0,1022.0,1023.0,1023.0,1024.0,1023.0,1024.0,1024.0,1024.0,1023.0,1024.0,1023.0,1023.0,1023.0,1023.0,1023.0,1024.0,1024.0,1024.0,1023.0,1022.0,1023.0,1023.0,1023.0,1024.0,1023.0,1024.0,1025.0,1023.0,1023.0,1022.0,1023.0,1023.0,1023.0,1023.0,1022.0,1024.0,1024.0,1023.0,1022.0,1021.0,1022.0,1024.0,1024.0,1023.0,1024.0,1024.0,1024.0,1023.0,1023.0,1023.0,1024.0,1023.0,1023.0,1024.0,1024.0,1022.0,1023.0,1025.0,1024.0,1024.0,1025.0,1024.0,1023.0,1023.0,1024.0,1024.0,1024.0,1025.0,1024.0,1024.0,1024.0,1025.0,1024.0,1025.0,1026.0,1025.0,1024.0,1025.0,1025.0,1026.0,1027.0,1025.0,1025.0,1028.0,1027.0,1029.0,1029.0,1025.0,1027.0,1034.0,1032.0,1034.0,1035.0,1028.0,1031.0,1041.0,1040.0,1038.0,1045.0,1030.0,1035.0,1047.0,1039.0,1035.0,1044.0,1032.0,1042.0,1053.0,1041.0,1035.0,1048.0,1035.0,1042.0,1051.0,1042.0,1034.0,1049.0,1036.0,1036.0,1045.0,1038.0,1032.0,1046.0,1034.0,1036.0,1044.0,1037.0,1032.0,1044.0,1034.0,1023.0,1024.0,1022.0,1022.0,1025.0,1022.0,1034.0,1042.0,1035.0,1033.0,1043.0,1035.0,1029.0,1034.0,1031.0,1030.0,1039.0,1031.0,1024.0,1026.0,1025.0,1025.0,1027.0,2074,1972,1909,	00:28:48.445,0.05078125,0.0634765625,1.017578125,-0.48828125,0.3662109375,0.1220703125,3.5760498046875,-2.7960205078125,40.4241943359375,436.0,-1588.0,-2559.0,0.93743896484375,0.037689208984375,-0.012115478515625,0.345916748046875,3.5748515224632027,-2.7965789409646717,35.92160755397228,0.9502869919592164,0.03718373576505914,-0.013586341947685402,0.30884852925040646,1,	00:28:48.446,0.03271484375,-0.00927734375,1.0068359375,-0.67138671875,-0.9765625,-0.48828125,-0.582275390625,-1.8841552734375,-145.5084228515625,-441.0,-1125.0,-2004.0,0.296356201171875,-0.017242431640625,0.0,-0.954925537109375,-0.5847583964173934,-1.886438078966695,-144.97658469606625,0.30077587414245327,-0.017233703335664714,-8.741821193581538e-05,-0.953539126287557,1
1782117235.676745,0.021,1023.0,1023.0,1024.0,1023.0,1023.0,1023.0,1023.0,1023.0,1023.0,1023.0,1023.0,1024.0,1024.0,1024.0,1024.0,1024.0,1022.0,1023.0,1024.0,1023.0,1024.0,1024.0,1023.0,1024.0,1023.0,1023.0,1023.0,1023.0,1024.0,1024.0,1023.0,1023.0,1022.0,1023.0,1023.0,1023.0,1024.0,1024.0,1023.0,1023.0,1022.0,1022.0,1023.0,1024.0,1024.0,1023.0,1024.0,1024.0,1023.0,1023.0,1023.0,1024.0,1023.0,1024.0,1024.0,1024.0,1024.0,1024.0,1023.0,1023.0,1023.0,1023.0,1023.0,1024.0,1023.0,1024.0,1024.0,1024.0,1022.0,1022.0,1022.0,1023.0,1023.0,1024.0,1023.0,1024.0,1024.0,1023.0,1023.0,1022.0,1022.0,1023.0,1023.0,1024.0,1023.0,1024.0,1024.0,1023.0,1023.0,1024.0,1023.0,1023.0,1023.0,1024.0,1023.0,1024.0,1024.0,1024.0,1023.0,1023.0,1022.0,1023.0,1023.0,1024.0,1023.0,1024.0,1024.0,1024.0,1023.0,1022.0,1023.0,1023.0,1023.0,1023.0,1023.0,1023.0,1024.0,1023.0,1022.0,1021.0,1022.0,1023.0,1023.0,1024.0,1024.0,1024.0,1023.0,1023.0,1022.0,1023.0,1024.0,1023.0,1024.0,1024.0,1024.0,1023.0,1024.0,1024.0,1024.0,1024.0,1025.0,1024.0,1024.0,1024.0,1024.0,1024.0,1024.0,1025.0,1024.0,1023.0,1024.0,1025.0,1024.0,1025.0,1027.0,1025.0,1024.0,1025.0,1024.0,1026.0,1027.0,1025.0,1025.0,1027.0,1027.0,1029.0,1030.0,1025.0,1028.0,1034.0,1032.0,1035.0,1036.0,1028.0,1031.0,1041.0,1040.0,1039.0,1045.0,1029.0,1035.0,1046.0,1039.0,1035.0,1044.0,1032.0,1042.0,1053.0,1041.0,1036.0,1048.0,1036.0,1041.0,1051.0,1041.0,1035.0,1049.0,1036.0,1036.0,1044.0,1038.0,1032.0,1046.0,1035.0,1035.0,1043.0,1038.0,1033.0,1044.0,1034.0,1022.0,1024.0,1023.0,1023.0,1024.0,1022.0,1034.0,1042.0,1036.0,1033.0,1044.0,1035.0,1029.0,1033.0,1031.0,1031.0,1039.0,1031.0,1024.0,1026.0,1024.0,1025.0,1026.0,2074,1972,1909,	00:28:48.455,0.05078125,0.06396484375,1.017578125,-0.54931640625,0.30517578125,0.1220703125,3.603515625,-2.87841796875,40.4241943359375,437.0,-1586.0,-2557.0,0.937408447265625,0.038177490234375,-0.0126953125,0.345947265625,3.603438018910438,-2.8784659973014866,35.921331271910816,0.9502546823606899,0.03764041574360409,-0.014188788075731434,0.30886553068799255,1,	00:28:48.456,0.03271484375,-0.00927734375,1.0068359375,-0.732421875,-0.91552734375,-0.42724609375,-0.5108642578125,-1.856689453125,-145.513916015625,-444.0,-1123.0,-2005.0,0.29632568359375,-0.016815185546875,-0.000579833984375,-0.954925537109375,-0.5082766771423888,-1.8581257975522951,-144.9835012024506,0.3007320146392204,-0.01679741045758861,-0.0006484735387462472,-0.9535605286792362,1
1782117235.687166,0.032,1023.0,1023.0,1023.0,1022.0,1023.0,1023.0,1023.0,1024.0,1023.0,1023.0,1023.0,1024.0,1024.0,1024.0,1024.0,1023.0,1023.0,1023.0,1023.0,1024.0,1024.0,1024.0,1023.0,1023.0,1022.0,1024.0,1023.0,1024.0,1024.0,1023.0,1023.0,1023.0,1022.0,1023.0,1023.0,1023.0,1024.0,1024.0,1024.0,1023.0,1022.0,1022.0,1023.0,1024.0,1023.0,1023.0,1024.0,1024.0,1023.0,1024.0,1022.0,1023.0,1023.0,1023.0,1023.0,1024.0,1024.0,1024.0,1023.0,1023.0,1022.0,1023.0,1022.0,1024.0,1023.0,1024.0,1024.0,1024.0,1023.0,1022.0,1022.0,1023.0,1023.0,1023.0,1024.0,1024.0,1024.0,1023.0,1022.0,1022.0,1022.0,1024.0,1023.0,1024.0,1023.0,1024.0,1024.0,1024.0,1023.0,1024.0,1023.0,1023.0,1023.0,1024.0,1023.0,1024.0,1024.0,1023.0,1023.0,1022.0,1023.0,1023.0,1023.0,1024.0,1023.0,1024.0,1024.0,1024.0,1023.0,1022.0,1022.0,1023.0,1022.0,1023.0,1023.0,1023.0,1024.0,1023.0,1023.0,1022.0,1022.0,1023.0,1024.0,1023.0,1023.0,1024.0,1023.0,1023.0,1022.0,1023.0,1024.0,1023.0,1024.0,1024.0,1024.0,1023.0,1024.0,1024.0,1024.0,1025.0,1026.0,1024.0,1024.0,1023.0,1024.0,1024.0,1025.0,1025.0,1024.0,1024.0,1024.0,1025.0,1024.0,1025.0,1027.0,1024.0,1024.0,1025.0,1024.0,1026.0,1028.0,1024.0,1024.0,1027.0,1026.0,1029.0,1029.0,1025.0,1028.0,1034.0,1032.0,1034.0,1036.0,1027.0,1031.0,1041.0,1041.0,1039.0,1045.0,1030.0,1034.0,1044.0,1039.0,1035.0,1044.0,1031.0,1042.0,1053.0,1041.0,1036.0,1049.0,1035.0,1041.0,1052.0,1041.0,1034.0,1049.0,1036.0,1035.0,1044.0,1037.0,1032.0,1047.0,1035.0,1036.0,1044.0,1037.0,1032.0,1046.0,1034.0,1023.0,1024.0,1023.0,1024.0,1024.0,1022.0,1034.0,1042.0,1036.0,1033.0,1044.0,1035.0,1029.0,1034.0,1030.0,1030.0,1039.0,1031.0,1024.0,1026.0,1024.0,1024.0,1027.0,2075,1972,1909,	00:28:48.465,0.05029296875,0.06396484375,1.017578125,-0.54931640625,0.42724609375,0.1220703125,3.5870361328125,-2.7850341796875,40.4241943359375,436.0,-1587.0,-2557.0,0.937408447265625,0.037750244140625,-0.011962890625,0.345947265625,3.5869333380024613,-2.7834051141008667,35.9233555642692,0.950282125146241,0.037248793317821216,-0.013443908677411832,0.3088618968784975,1,	00:28:48.467,0.03173828125,-0.00927734375,1.0078125,-0.732421875,-0.8544921875,-0.48828125,-0.5438232421875,-1.77978515625,-145.5194091796875,-441.0,-1121.0,-2006.0,0.296295166015625,-0.0162353515625,-6.103515625e-05,-0.9549560546875,-0.5458525326924564,-1.7802605135391134,-144.98735022321418,0.30070079232204744,-0.01624810792937578,-0.0001307999210591809,-0.95358010433156,1
1782117235.697625,0.042,1022.0,1023.0,1023.0,1023.0,1023.0,1023.0,1024.0,1024.0,1023.0,1023.0,1024.0,1024.0,1023.0,1024.0,1024.0,1024.0,1023.0,1023.0,1023.0,1024.0,1024.0,1024.0,1023.0,1023.0,1023.0,1024.0,1023.0,1024.0,1024.0,1024.0,1023.0,1022.0,1022.0,1022.0,1024.0,1023.0,1023.0,1024.0,1023.0,1023.0,1023.0,1022.0,1023.0,1024.0,1024.0,1024.0,1024.0,1023.0,1023.0,1023.0,1022.0,1023.0,1023.0,1024.0,1023.0,1023.0,1024.0,1024.0,1023.0,1023.0,1023.0,1023.0,1022.0,1024.0,1023.0,1024.0,1024.0,1024.0,1023.0,1022.0,1022.0,1023.0,1023.0,1024.0,1023.0,1024.0,1024.0,1023.0,1023.0,1023.0,1023.0,1023.0,1023.0,1024.0,1023.0,1024.0,1024.0,1024.0,1023.0,1024.0,1023.0,1024.0,1023.0,1024.0,1023.0,1024.0,1024.0,1024.0,1023.0,1023.0,1023.0,1023.0,1023.0,1024.0,1023.0,1024.0,1024.0,1024.0,1023.0,1022.0,1022.0,1023.0,1022.0,1023.0,1022.0,1023.0,1024.0,1023.0,1022.0,1021.0,1021.0,1023.0,1023.0,1023.0,1024.0,1024.0,1023.0,1023.0,1023.0,1022.0,1023.0,1024.0,1024.0,1024.0,1023.0,1023.0,1023.0,1024.0,1024.0,1024.0,1025.0,1024.0,1024.0,1023.0,1024.0,1023.0,1024.0,1026.0,1024.0,1024.0,1024.0,1025.0,1024.0,1026.0,1027.0,1024.0,1024.0,1025.0,1025.0,1027.0,1028.0,1025.0,1025.0,1027.0,1026.0,1030.0,1030.0,1025.0,1027.0,1034.0,1032.0,1035.0,1036.0,1027.0,1031.0,1040.0,1041.0,1039.0,1046.0,1030.0,1034.0,1045.0,1039.0,1035.0,1045.0,1031.0,1043.0,1052.0,1041.0,1036.0,1050.0,1036.0,1041.0,1050.0,1042.0,1034.0,1049.0,1035.0,1035.0,1044.0,1037.0,1032.0,1047.0,1036.0,1035.0,1043.0,1037.0,1033.0,1045.0,1034.0,1023.0,1024.0,1023.0,1023.0,1024.0,1022.0,1033.0,1041.0,1035.0,1032.0,1044.0,1036.0,1029.0,1034.0,1031.0,1031.0,1040.0,1031.0,1024.0,1026.0,1025.0,1024.0,1027.0,2075,1972,1909,	00:28:48.476,0.05078125,0.064453125,1.0185546875,-0.54931640625,0.3662109375,0.06103515625,3.62548828125,-2.8619384765625,40.4241943359375,437.0,-1588.0,-2560.0,0.9373779296875,0.03826904296875,-0.012481689453125,0.345947265625,3.6236032189177463,-2.860924493330075,35.92212057571457,0.9502510528770636,0.0377606819476921,-0.013988637603879365,0.3088711469575373,1,	00:28:48.477,0.03271484375,-0.0087890625,1.00830078125,-0.732421875,-0.67138671875,-0.42724609375,-0.50537109375,-1.86767578125,-145.52490234375,-441.0,-1123.0,-2005.0,0.296234130859375,-0.016845703125,-0.0006103515625,-0.9549560546875,-0.5061582789378167,-1.8657772186140014,-144.993046723683,0.30065228457818655,-0.01685557557829807,-0.0006847868644972107,-0.9535846183830735,1
1782117235.706932,0.051,1023.0,1023.0,1023.0,1023.0,1023.0,1023.0,1024.0,1023.0,1023.0,1023.0,1023.0,1024.0,1024.0,1024.0,1024.0,1024.0,1023.0,1024.0,1023.0,1023.0,1024.0,1023.0,1023.0,1023.0,1023.0,1023.0,1024.0,1024.0,1024.0,1024.0,1023.0,1023.0,1023.0,1023.0,1023.0,1022.0,1023.0,1024.0,1024.0,1023.0,1022.0,1022.0,1023.0,1023.0,1023.0,1024.0,1024.0,1024.0,1023.0,1023.0,1023.0,1023.0,1023.0,1023.0,1023.0,1024.0,1024.0,1024.0,1023.0,1023.0,1022.0,1023.0,1022.0,1024.0,1023.0,1024.0,1024.0,1023.0,1023.0,1022.0,1022.0,1023.0,1023.0,1024.0,1023.0,1023.0,1024.0,1024.0,1023.0,1023.0,1022.0,1023.0,1023.0,1023.0,1024.0,1024.0,1024.0,1024.0,1023.0,1024.0,1023.0,1023.0,1023.0,1024.0,1024.0,1024.0,1025.0,1024.0,1023.0,1023.0,1022.0,1023.0,1023.0,1024.0,1023.0,1024.0,1024.0,1024.0,1022.0,1022.0,1022.0,1023.0,1023.0,1024.0,1022.0,1023.0,1024.0,1023.0,1023.0,1021.0,1022.0,1023.0,1024.0,1023.0,1024.0,1024.0,1024.0,1023.0,1022.0,1023.0,1024.0,1024.0,1024.0,1024.0,1023.0,1023.0,1023.0,1024.0,1024.0,1025.0,1025.0,1024.0,1023.0,1023.0,1024.0,1024.0,1025.0,1025.0,1024.0,1024.0,1024.0,1024.0,1024.0,1026.0,1027.0,1025.0,1023.0,1025.0,1025.0,1027.0,1028.0,1025.0,1024.0,1027.0,1026.0,1029.0,1031.0,1026.0,1028.0,1033.0,1033.0,1036.0,1037.0,1028.0,1031.0,1040.0,1041.0,1039.0,1046.0,1030.0,1034.0,1045.0,1039.0,1035.0,1046.0,1032.0,1042.0,1051.0,1041.0,1036.0,1050.0,1036.0,1041.0,1050.0,1041.0,1034.0,1050.0,1036.0,1036.0,1043.0,1038.0,1032.0,1047.0,1035.0,1036.0,1042.0,1037.0,1032.0,1045.0,1035.0,1022.0,1023.0,1022.0,1023.0,1024.0,1022.0,1034.0,1041.0,1035.0,1033.0,1043.0,1036.0,1029.0,1033.0,1031.0,1030.0,1040.0,1031.0,1024.0,1025.0,1024.0,1025.0,1027.0,2075,1972,1909,	00:28:48.486,0.0517578125,0.06201171875,1.017578125,-0.54931640625,0.3662109375,0.1220703125,3.5321044921875,-2.8839111328125,40.4296875,437.0,-1589.0,-2556.0,0.937408447265625,0.03759765625,-0.012969970703125,0.345977783203125,3.531058514364559,-2.8863615551101627,35.927933942363005,0.95025816779281,0.03706221031657591,-0.014447247275359293,0.3089127452140266,1,	00:28:48.487,0.03271484375,-0.00927734375,1.0078125,-0.79345703125,-0.79345703125,-0.48828125,-0.604248046875,-1.845703125,-145.52490234375,-441.0,-1121.0,-2004.0,0.29620361328125,-0.016937255859375,0.000244140625,-0.954986572265625,-0.6015098933713899,-1.8464999124346146,-144.99502659495448,0.30062334074882113,-0.016945330087540525,0.0001595862805012285,-0.9535923853080317,1
1782117235.717769,0.062,1022.0,1024.0,1023.0,1022.0,1023.0,1022.0,1024.0,1024.0,1024.0,1023.0,1024.0,1024.0,1024.0,1024.0,1024.0,1024.0,1023.0,1023.0,1024.0,1024.0,1024.0,1023.0,1023.0,1023.0,1022.0,1023.0,1023.0,1024.0,1024.0,1023.0,1022.0,1022.0,1023.0,1023.0,1023.0,1023.0,1024.0,1024.0,1024.0,1023.0,1022.0,1022.0,1023.0,1024.0,1023.0,1024.0,1024.0,1024.0,1023.0,1024.0,1023.0,1023.0,1023.0,1024.0,1024.0,1024.0,1024.0,1024.0,1023.0,1023.0,1022.0,1024.0,1023.0,1023.0,1023.0,1024.0,1024.0,1024.0,1023.0,1022.0,1022.0,1023.0,1023.0,1023.0,1023.0,1024.0,1024.0,1023.0,1023.0,1023.0,1022.0,1023.0,1024.0,1024.0,1024.0,1024.0,1024.0,1024.0,1023.0,1023.0,1023.0,1023.0,1023.0,1024.0,1023.0,1024.0,1024.0,1024.0,1023.0,1023.0,1022.0,1023.0,1023.0,1024.0,1023.0,1024.0,1024.0,1023.0,1023.0,1022.0,1022.0,1023.0,1023.0,1023.0,1022.0,1024.0,1023.0,1023.0,1023.0,1021.0,1021.0,1023.0,1023.0,1023.0,1024.0,1024.0,1023.0,1023.0,1023.0,1023.0,1024.0,1024.0,1024.0,1024.0,1024.0,1023.0,1024.0,1024.0,1024.0,1025.0,1025.0,1024.0,1024.0,1023.0,1024.0,1024.0,1025.0,1026.0,1024.0,1023.0,1023.0,1024.0,1024.0,1026.0,1027.0,1024.0,1024.0,1025.0,1024.0,1026.0,1028.0,1024.0,1025.0,1027.0,1027.0,1030.0,1030.0,1025.0,1028.0,1033.0,1033.0,1036.0,1037.0,1028.0,1031.0,1040.0,1040.0,1039.0,1046.0,1030.0,1034.0,1045.0,1039.0,1036.0,1045.0,1032.0,1042.0,1051.0,1041.0,1036.0,1050.0,1037.0,1041.0,1049.0,1041.0,1034.0,1050.0,1036.0,1036.0,1043.0,1037.0,1031.0,1047.0,1035.0,1036.0,1042.0,1038.0,1032.0,1045.0,1035.0,1022.0,1024.0,1023.0,1023.0,1024.0,1022.0,1034.0,1041.0,1035.0,1033.0,1044.0,1036.0,1029.0,1033.0,1031.0,1030.0,1040.0,1032.0,1024.0,1026.0,1024.0,1025.0,1027.0,2075,1971,1910,	00:28:48.496,0.05078125,0.06396484375,1.01806640625,-0.54931640625,0.42724609375,0.1220703125,3.603515625,-2.83447265625,40.4241943359375,436.0,-1587.0,-2556.0,0.937408447265625,0.038055419921875,-0.012359619140625,0.345947265625,3.6052362255591093,-2.8368602640017797,35.92543371876017,0.9502551624521633,0.03754422361069465,-0.013837402473038158,0.30889170238010927,1,	00:28:48.497,0.03271484375,-0.009765625,1.00634765625,-0.79345703125,-0.79345703125,-0.48828125,-0.5218505859375,-1.8841552734375,-145.5303955078125,-440.0,-1122.0,-2002.0,0.296142578125,-0.017059326171875,-0.000518798828125,-0.954986572265625,-0.5223812171980431,-1.8837938966543095,-145.00265443163693,0.30056848588962853,-0.0170481096027334,-0.000595648745651477,-0.953607672185769,1
1782117235.728175,0.073,1023.0,1023.0,1023.0,1023.0,1023.0,1023.0,1023.0,1023.0,1023.0,1023.0,1024.0,1023.0,1024.0,1024.0,1024.0,1023.0,1023.0,1023.0,1024.0,1024.0,1025.0,1023.0,1023.0,1023.0,1023.0,1023.0,1023.0,1024.0,1024.0,1024.0,1022.0,1023.0,1023.0,1022.0,1023.0,1023.0,1023.0,1024.0,1023.0,1022.0,1022.0,1022.0,1023.0,1023.0,1024.0,1024.0,1024.0,1024.0,1022.0,1024.0,1023.0,1023.0,1023.0,1023.0,1023.0,1024.0,1024.0,1023.0,1023.0,1023.0,1023.0,1023.0,1022.0,1023.0,1023.0,1024.0,1024.0,1023.0,1023.0,1022.0,1023.0,1023.0,1023.0,1024.0,1024.0,1024.0,1024.0,1023.0,1023.0,1022.0,1023.0,1023.0,1023.0,1023.0,1024.0,1024.0,1024.0,1024.0,1023.0,1024.0,1023.0,1023.0,1022.0,1024.0,1024.0,1024.0,1024.0,1023.0,1023.0,1023.0,1023.0,1023.0,1023.0,1024.0,1023.0,1024.0,1024.0,1023.0,1023.0,1022.0,1022.0,1023.0,1023.0,1023.0,1022.0,1023.0,1024.0,1023.0,1022.0,1021.0,1022.0,1023.0,1024.0,1024.0,1024.0,1024.0,1023.0,1023.0,1022.0,1023.0,1024.0,1023.0,1024.0,1024.0,1024.0,1023.0,1023.0,1024.0,1024.0,1025.0,1025.0,1024.0,1024.0,1024.0,1024.0,1024.0,1025.0,1025.0,1024.0,1023.0,1023.0,1024.0,1024.0,1026.0,1026.0,1024.0,1024.0,1025.0,1025.0,1027.0,1028.0,1025.0,1024.0,1027.0,1027.0,1030.0,1030.0,1026.0,1028.0,1033.0,1033.0,1036.0,1037.0,1028.0,1031.0,1040.0,1040.0,1039.0,1046.0,1030.0,1034.0,1044.0,1039.0,1035.0,1045.0,1032.0,1043.0,1051.0,1041.0,1037.0,1049.0,1036.0,1041.0,1049.0,1042.0,1035.0,1049.0,1036.0,1036.0,1042.0,1038.0,1032.0,1046.0,1035.0,1036.0,1041.0,1038.0,1033.0,1045.0,1035.0,1022.0,1023.0,1023.0,1023.0,1024.0,1022.0,1034.0,1040.0,1035.0,1033.0,1044.0,1036.0,1029.0,1033.0,1031.0,1031.0,1040.0,1032.0,1024.0,1026.0,1025.0,1024.0,1027.0,2075,1971,1909,	00:28:48.506,0.05078125,0.06298828125,1.0185546875,-0.54931640625,0.42724609375,0.1220703125,3.5101318359375,-2.8509521484375,40.4296875,439.0,-1588.0,-2560.0,0.937408447265625,0.037322998046875,-0.012725830078125,0.34600830078125,3.509442391983194,-2.8488002529906304,35.93139805539318,0.9502666964529253,0.0367826087135049,-0.014192768626302098,0.3089317248639149,1,	00:28:48.507,0.033203125,-0.0087890625,1.00732421875,-0.67138671875,-0.79345703125,-0.48828125,-0.439453125,-1.9061279296875,-145.5413818359375,-442.0,-1125.0,-2003.0,0.296112060546875,-0.01702880859375,-0.00128173828125,-0.95501708984375,-0.43864435127014856,-1.9079041094112625,-145.01045306317152,0.30051414971206325,-0.017029191090682724,-0.0013545986041383713,-0.95362435871587,1
1782117235.738614,0.083,1023.0,1023.0,1023.0,1022.0,1023.0,1023.0,1024.0,1023.0,1023.0,1023.0,1023.0,1024.0,1024.0,1024.0,1024.0,1024.0,1023.0,1023.0,1024.0,1024.0,1024.0,1024.0,1023.0,1023.0,1023.0,1024.0,1023.0,1024.0,1024.0,1024.0,1023.0,1023.0,1022.0,1022.0,1023.0,1023.0,1024.0,1024.0,1023.0,1023.0,1022.0,1022.0,1023.0,1024.0,1024.0,1024.0,1024.0,1024.0,1023.0,1023.0,1023.0,1023.0,1023.0,1024.0,1024.0,1024.0,1024.0,1024.0,1023.0,1023.0,1023.0,1023.0,1022.0,1024.0,1022.0,1024.0,1024.0,1023.0,1022.0,1022.0,1022.0,1023.0,1023.0,1023.0,1023.0,1024.0,1024.0,1024.0,1023.0,1022.0,1023.0,1022.0,1023.0,1024.0,1024.0,1024.0,1024.0,1024.0,1023.0,1023.0,1023.0,1024.0,1023.0,1024.0,1023.0,1024.0,1024.0,1024.0,1023.0,1023.0,1022.0,1023.0,1023.0,1024.0,1023.0,1024.0,1024.0,1024.0,1023.0,1022.0,1022.0,1024.0,1023.0,1024.0,1022.0,1023.0,1024.0,1023.0,1022.0,1020.0,1022.0,1023.0,1024.0,1023.0,1024.0,1024.0,1024.0,1023.0,1023.0,1023.0,1024.0,1024.0,1024.0,1024.0,1023.0,1023.0,1024.0,1024.0,1024.0,1025.0,1025.0,1024.0,1024.0,1024.0,1024.0,1024.0,1024.0,1025.0,1024.0,1023.0,1024.0,1025.0,1024.0,1025.0,1027.0,1024.0,1024.0,1025.0,1025.0,1028.0,1028.0,1025.0,1025.0,1027.0,1027.0,1030.0,1030.0,1026.0,1027.0,1034.0,1032.0,1036.0,1037.0,1028.0,1031.0,1040.0,1041.0,1039.0,1046.0,1030.0,1034.0,1044.0,1039.0,1035.0,1045.0,1032.0,1043.0,1051.0,1042.0,1036.0,1050.0,1036.0,1041.0,1049.0,1042.0,1034.0,1050.0,1036.0,1035.0,1042.0,1038.0,1032.0,1046.0,1035.0,1036.0,1042.0,1038.0,1033.0,1045.0,1035.0,1023.0,1023.0,1023.0,1023.0,1024.0,1022.0,1033.0,1040.0,1036.0,1033.0,1044.0,1035.0,1029.0,1033.0,1031.0,1031.0,1040.0,1031.0,1024.0,1026.0,1025.0,1025.0,1027.0,2075,1971,1909,	00:28:48.517,0.05078125,0.06396484375,1.017578125,-0.48828125,0.42724609375,0.06103515625,3.5980224609375,-2.845458984375,40.4296875,437.0,-1587.0,-2559.0,0.9373779296875,0.03802490234375,-0.012451171875,0.345977783203125,3.5960814393967917,-2.8471939800559305,35.927720218816745,0.9502489965618658,0.037496307296212575,-0.013947067962412336,0.3089115581644152,1,	00:28:48.518,0.03173828125,-0.00830078125,1.0078125,-0.67138671875,-0.732421875,-0.42724609375,-0.472412109375,-1.8292236328125,-145.5413818359375,-442.0,-1121.0,-2006.0,0.29608154296875,-0.016448974609375,-0.00079345703125,-0.95501708984375,-0.47308816584080043,-1.827961828774488,-145.01376789467082,0.3004875962235754,-0.016454292783234743,-0.00085774791126969,-0.953643395108099,1
1782117235.747935,0.092,1022.0,1023.0,1023.0,1022.0,1023.0,1023.0,1024.0,1024.0,1023.0,1023.0,1023.0,1024.0,1024.0,1024.0,1024.0,1024.0,1023.0,1023.0,1023.0,1024.0,1024.0,1024.0,1023.0,1023.0,1023.0,1023.0,1023.0,1023.0,1024.0,1024.0,1023.0,1023.0,1023.0,1023.0,1023.0,1023.0,1024.0,1023.0,1023.0,1023.0,1022.0,1022.0,1023.0,1024.0,1023.0,1024.0,1024.0,1024.0,1024.0,1023.0,1022.0,1024.0,1022.0,1023.0,1024.0,1024.0,1024.0,1024.0,1023.0,1023.0,1022.0,1023.0,1023.0,1023.0,1023.0,1024.0,1024.0,1023.0,1023.0,1022.0,1023.0,1023.0,1023.0,1024.0,1023.0,1024.0,1024.0,1024.0,1023.0,1023.0,1022.0,1023.0,1023.0,1023.0,1024.0,1024.0,1024.0,1024.0,1023.0,1024.0,1022.0,1023.0,1023.0,1024.0,1024.0,1024.0,1024.0,1024.0,1023.0,1023.0,1023.0,1023.0,1023.0,1024.0,1023.0,1024.0,1024.0,1023.0,1022.0,1022.0,1023.0,1023.0,1023.0,1023.0,1022.0,1024.0,1024.0,1023.0,1023.0,1021.0,1022.0,1023.0,1023.0,1023.0,1024.0,1024.0,1023.0,1023.0,1022.0,1023.0,1023.0,1023.0,1024.0,1024.0,1023.0,1023.0,1023.0,1024.0,1024.0,1024.0,1025.0,1024.0,1024.0,1023.0,1024.0,1024.0,1025.0,1025.0,1024.0,1023.0,1023.0,1024.0,1024.0,1026.0,1026.0,1025.0,1024.0,1025.0,1025.0,1028.0,1028.0,1025.0,1025.0,1027.0,1027.0,1030.0,1030.0,1026.0,1027.0,1033.0,1032.0,1036.0,1037.0,1028.0,1030.0,1040.0,1040.0,1039.0,1047.0,1031.0,1034.0,1044.0,1039.0,1035.0,1045.0,1032.0,1043.0,1050.0,1041.0,1036.0,1050.0,1037.0,1042.0,1049.0,1042.0,1034.0,1050.0,1036.0,1036.0,1042.0,1037.0,1032.0,1046.0,1035.0,1036.0,1041.0,1037.0,1033.0,1045.0,1035.0,1022.0,1023.0,1023.0,1024.0,1024.0,1022.0,1034.0,1040.0,1035.0,1032.0,1043.0,1035.0,1029.0,1033.0,1031.0,1030.0,1040.0,1031.0,1025.0,1025.0,1025.0,1024.0,1027.0,2075,1971,1909,	00:28:48.527,0.05078125,0.0625,1.0185546875,-0.48828125,0.3662109375,0.1220703125,3.4991455078125,-2.845458984375,40.4351806640625,437.0,-1587.0,-2558.0,0.937408447265625,0.0372314453125,-0.012725830078125,0.34600830078125,3.4995272942259854,-2.8453892229300703,35.933718509022604,0.9502646029546388,0.03669152066698036,-0.014190455580892153,0.3089491020427375,1,	00:28:48.528,0.0322265625,-0.0087890625,1.00830078125,-0.732421875,-0.8544921875,-0.48828125,-0.5712890625,-1.845703125,-145.546875,-442.0,-1126.0,-2004.0,0.296051025390625,-0.016845703125,0.0,-0.95501708984375,-0.5715308071010662,-1.8455298626740486,-145.01565586196065,0.300456170207348,-0.01685862479941286,-8.430843061194087e-05,-0.9536466166491098,1
1782117235.758645,0.103,1023.0,1023.0,1023.0,1023.0,1023.0,1023.0,1023.0,1024.0,1023.0,1023.0,1023.0,1024.0,1024.0,1024.0,1024.0,1024.0,1023.0,1024.0,1023.0,1024.0,1024.0,1024.0,1023.0,1023.0,1023.0,1023.0,1023.0,1024.0,1024.0,1023.0,1023.0,1023.0,1022.0,1023.0,1023.0,1023.0,1024.0,1023.0,1023.0,1023.0,1022.0,1022.0,1023.0,1023.0,1024.0,1024.0,1024.0,1024.0,1022.0,1023.0,1023.0,1023.0,1023.0,1024.0,1023.0,1024.0,1024.0,1024.0,1023.0,1023.0,1023.0,1023.0,1023.0,1024.0,1022.0,1024.0,1024.0,1023.0,1023.0,1022.0,1022.0,1024.0,1023.0,1024.0,1023.0,1024.0,1024.0,1023.0,1023.0,1023.0,1022.0,1023.0,1023.0,1024.0,1023.0,1024.0,1024.0,1024.0,1023.0,1024.0,1022.0,1023.0,1023.0,1024.0,1023.0,1024.0,1024.0,1023.0,1023.0,1023.0,1023.0,1023.0,1023.0,1024.0,1024.0,1024.0,1024.0,1024.0,1023.0,1022.0,1022.0,1023.0,1022.0,1023.0,1022.0,1024.0,1024.0,1024.0,1022.0,1021.0,1022.0,1023.0,1024.0,1023.0,1024.0,1024.0,1024.0,1023.0,1022.0,1023.0,1024.0,1023.0,1024.0,1024.0,1024.0,1023.0,1024.0,1024.0,1024.0,1024.0,1025.0,1024.0,1023.0,1023.0,1024.0,1024.0,1025.0,1025.0,1024.0,1023.0,1024.0,1024.0,1024.0,1025.0,1027.0,1024.0,1024.0,1025.0,1024.0,1027.0,1028.0,1024.0,1025.0,1027.0,1027.0,1030.0,1031.0,1026.0,1027.0,1034.0,1032.0,1036.0,1037.0,1028.0,1030.0,1040.0,1041.0,1039.0,1047.0,1030.0,1034.0,1045.0,1039.0,1035.0,1045.0,1032.0,1043.0,1051.0,1041.0,1036.0,1050.0,1036.0,1042.0,1050.0,1042.0,1034.0,1051.0,1037.0,1036.0,1043.0,1038.0,1031.0,1046.0,1035.0,1036.0,1041.0,1038.0,1032.0,1045.0,1035.0,1023.0,1023.0,1022.0,1023.0,1025.0,1022.0,1033.0,1040.0,1035.0,1032.0,1044.0,1036.0,1029.0,1033.0,1031.0,1030.0,1040.0,1032.0,1024.0,1025.0,1024.0,1024.0,1027.0,2074,1971,1909,	00:28:48.537,0.05078125,0.06201171875,1.01806640625,-0.54931640625,0.3662109375,0.06103515625,3.40576171875,-2.8729248046875,40.440673828125,436.0,-1585.0,-2559.0,0.937408447265625,0.03656005859375,-0.01324462890625,0.3460693359375,3.4075032718267613,-2.8722432539764062,35.93886726857958,0.950272173029625,0.03600111519056583,-0.014659741930357578,0.30898512721023563,1,	00:28:48.538,0.03125,-0.009765625,1.00634765625,-0.732421875,-0.91552734375,-0.48828125,-0.560302734375,-1.7633056640625,-145.5523681640625,-441.0,-1124.0,-2008.0,0.2960205078125,-0.016143798828125,9.1552734375e-05,-0.955047607421875,-0.5579870378918053,-1.765479667923794,-145.02110735538193,0.30041934382534224,-0.01615695285638743,1.3742613965046026e-05,-0.9536703678635966,1
1782117235.769064,0.113,1024.0,1023.0,1023.0,1023.0,1023.0,1023.0,1023.0,1023.0,1023.0,1023.0,1023.0,1024.0,1024.0,1025.0,1025.0,1023.0,1022.0,1024.0,1023.0,1024.0,1024.0,1024.0,1023.0,1023.0,1023.0,1023.0,1023.0,1024.0,1024.0,1024.0,1022.0,1023.0,1023.0,1023.0,1024.0,1023.0,1024.0,1024.0,1023.0,1023.0,1023.0,1022.0,1024.0,1023.0,1024.0,1024.0,1024.0,1024.0,1023.0,1023.0,1023.0,1024.0,1023.0,1023.0,1023.0,1024.0,1024.0,1024.0,1023.0,1023.0,1023.0,1023.0,1023.0,1024.0,1023.0,1024.0,1024.0,1024.0,1023.0,1023.0,1022.0,1023.0,1023.0,1023.0,1023.0,1023.0,1024.0,1023.0,1023.0,1023.0,1022.0,1023.0,1023.0,1023.0,1024.0,1024.0,1025.0,1024.0,1023.0,1024.0,1022.0,1024.0,1023.0,1024.0,1023.0,1024.0,1024.0,1024.0,1023.0,1023.0,1022.0,1023.0,1023.0,1024.0,1023.0,1024.0,1024.0,1024.0,1022.0,1023.0,1022.0,1023.0,1023.0,1023.0,1022.0,1024.0,1024.0,1023.0,1022.0,1021.0,1022.0,1022.0,1024.0,1023.0,1024.0,1024.0,1024.0,1023.0,1023.0,1023.0,1024.0,1023.0,1024.0,1024.0,1024.0,1023.0,1023.0,1024.0,1024.0,1024.0,1025.0,1024.0,1023.0,1024.0,1024.0,1024.0,1025.0,1025.0,1024.0,1024.0,1023.0,1025.0,1024.0,1025.0,1027.0,1024.0,1024.0,1025.0,1024.0,1028.0,1028.0,1025.0,1025.0,1027.0,1027.0,1030.0,1030.0,1026.0,1028.0,1033.0,1033.0,1037.0,1036.0,1028.0,1031.0,1039.0,1041.0,1039.0,1047.0,1031.0,1034.0,1044.0,1039.0,1036.0,1045.0,1032.0,1043.0,1051.0,1041.0,1036.0,1049.0,1037.0,1042.0,1048.0,1042.0,1034.0,1049.0,1037.0,1036.0,1042.0,1038.0,1032.0,1045.0,1035.0,1036.0,1042.0,1038.0,1032.0,1044.0,1035.0,1022.0,1024.0,1023.0,1023.0,1024.0,1022.0,1033.0,1040.0,1036.0,1033.0,1043.0,1036.0,1029.0,1033.0,1031.0,1030.0,1040.0,1032.0,1024.0,1025.0,1024.0,1025.0,1027.0,2074,1971,1909,	00:28:48.547,0.05126953125,0.06396484375,1.01904296875,-0.54931640625,0.42724609375,0.1220703125,3.49365234375,-2.867431640625,40.4351806640625,438.0,-1586.0,-2558.0,0.9373779296875,0.0372314453125,-0.012939453125,0.346038818359375,3.4935479986662497,-2.86920705151416,35.935753243208055,0.950254149276932,0.03670610711905465,-0.014403533921336123,0.30896966144383087,1,	00:28:48.548,0.03125,-0.00927734375,1.00537109375,-0.6103515625,-0.91552734375,-0.48828125,-0.4833984375,-1.8182373046875,-145.557861328125,-441.0,-1125.0,-2008.0,0.29595947265625,-0.016387939453125,-0.00067138671875,-0.955047607421875,-0.48208757804399616,-1.8160349744914297,-145.02845834402814,0.30036495987378803,-0.01637873517363189,-0.0007494657285982109,-0.9536834203315331,1
1782117235.779517,0.124,1023.0,1023.0,1023.0,1023.0,1023.0,1024.0,1023.0,1023.0,1023.0,1023.0,1023.0,1024.0,1024.0,1024.0,1024.0,1023.0,1023.0,1023.0,1023.0,1024.0,1024.0,1024.0,1023.0,1023.0,1023.0,1023.0,1023.0,1024.0,1024.0,1024.0,1023.0,1022.0,1022.0,1023.0,1023.0,1023.0,1024.0,1023.0,1023.0,1022.0,1022.0,1023.0,1023.0,1024.0,1024.0,1023.0,1024.0,1023.0,1023.0,1024.0,1023.0,1023.0,1023.0,1023.0,1023.0,1024.0,1024.0,1024.0,1023.0,1023.0,1022.0,1024.0,1023.0,1023.0,1023.0,1024.0,1024.0,1024.0,1023.0,1022.0,1022.0,1023.0,1023.0,1023.0,1023.0,1023.0,1024.0,1024.0,1023.0,1022.0,1022.0,1024.0,1023.0,1024.0,1023.0,1024.0,1024.0,1024.0,1023.0,1024.0,1022.0,1023.0,1023.0,1024.0,1023.0,1024.0,1024.0,1024.0,1023.0,1023.0,1023.0,1023.0,1023.0,1024.0,1024.0,1024.0,1024.0,1024.0,1023.0,1023.0,1023.0,1023.0,1023.0,1024.0,1023.0,1023.0,1024.0,1023.0,1023.0,1021.0,1023.0,1023.0,1024.0,1024.0,1024.0,1024.0,1023.0,1023.0,1023.0,1023.0,1024.0,1024.0,1024.0,1024.0,1024.0,1023.0,1023.0,1024.0,1024.0,1025.0,1026.0,1024.0,1023.0,1024.0,1024.0,1024.0,1025.0,1025.0,1024.0,1024.0,1023.0,1025.0,1024.0,1026.0,1027.0,1025.0,1024.0,1024.0,1025.0,1028.0,1028.0,1025.0,1025.0,1027.0,1027.0,1030.0,1030.0,1026.0,1027.0,1033.0,1032.0,1037.0,1037.0,1028.0,1031.0,1039.0,1040.0,1040.0,1047.0,1031.0,1034.0,1044.0,1039.0,1035.0,1044.0,1033.0,1043.0,1050.0,1042.0,1037.0,1050.0,1037.0,1041.0,1048.0,1041.0,1035.0,1049.0,1037.0,1036.0,1042.0,1038.0,1032.0,1045.0,1036.0,1036.0,1042.0,1038.0,1033.0,1044.0,1035.0,1023.0,1024.0,1023.0,1023.0,1024.0,1022.0,1033.0,1041.0,1036.0,1033.0,1043.0,1036.0,1029.0,1034.0,1031.0,1031.0,1039.0,1032.0,1025.0,1026.0,1025.0,1025.0,1027.0,2073,1971,1909,	00:28:48.558,0.05029296875,0.0625,1.01806640625,-0.6103515625,0.42724609375,0.1220703125,3.5211181640625,-2.779541015625,40.4351806640625,439.0,-1586.0,-2559.0,0.937408447265625,0.0372314453125,-0.01214599609375,0.346038818359375,3.5228754444871435,-2.780503590581141,35.93547932715249,0.9502709415139301,0.036711223227748176,-0.013588605800395509,0.3089543228306617,1,	00:28:48.559,0.033203125,-0.0087890625,1.00537109375,-0.48828125,-0.91552734375,-0.54931640625,-0.5108642578125,-1.91162109375,-145.5633544921875,-440.0,-1122.0,-2006.0,0.2958984375,-0.01727294921875,-0.000701904296875,-0.955047607421875,-0.5089336715659243,-1.9141465072439876,-145.0331524150617,0.30031423527149254,-0.01726562208946545,-0.0007826122677980916,-0.9536837242530674,1
1782117235.788948,0.133,1023.0,1023.0,1023.0,1022.0,1023.0,1023.0,1023.0,1023.0,1023.0,1024.0,1024.0,1024.0,1024.0,1024.0,1024.0,1024.0,1023.0,1023.0,1023.0,1024.0,1024.0,1024.0,1023.0,1023.0,1022.0,1023.0,1023.0,1024.0,1024.0,1024.0,1023.0,1023.0,1023.0,1022.0,1023.0,1023.0,1024.0,1024.0,1023.0,1023.0,1022.0,1022.0,1023.0,1024.0,1024.0,1023.0,1024.0,1023.0,1023.0,1024.0,1023.0,1024.0,1023.0,1023.0,1023.0,1024.0,1024.0,1024.0,1023.0,1023.0,1022.0,1023.0,1023.0,1024.0,1022.0,1024.0,1024.0,1024.0,1023.0,1022.0,1022.0,1023.0,1023.0,1024.0,1023.0,1023.0,1024.0,1023.0,1023.0,1023.0,1022.0,1023.0,1023.0,1024.0,1023.0,1024.0,1024.0,1024.0,1024.0,1023.0,1023.0,1023.0,1023.0,1024.0,1024.0,1024.0,1024.0,1024.0,1023.0,1022.0,1023.0,1023.0,1023.0,1024.0,1024.0,1024.0,1024.0,1024.0,1023.0,1022.0,1023.0,1023.0,1023.0,1023.0,1022.0,1023.0,1024.0,1023.0,1022.0,1021.0,1022.0,1023.0,1024.0,1024.0,1024.0,1024.0,1024.0,1023.0,1023.0,1023.0,1023.0,1023.0,1023.0,1024.0,1024.0,1023.0,1024.0,1024.0,1024.0,1025.0,1025.0,1024.0,1024.0,1023.0,1024.0,1024.0,1025.0,1025.0,1024.0,1023.0,1023.0,1024.0,1024.0,1026.0,1027.0,1025.0,1024.0,1025.0,1025.0,1028.0,1028.0,1025.0,1025.0,1028.0,1027.0,1031.0,1030.0,1025.0,1027.0,1033.0,1033.0,1036.0,1037.0,1028.0,1031.0,1040.0,1041.0,1040.0,1047.0,1031.0,1035.0,1044.0,1039.0,1035.0,1045.0,1033.0,1043.0,1051.0,1041.0,1037.0,1049.0,1038.0,1042.0,1049.0,1041.0,1035.0,1049.0,1037.0,1036.0,1042.0,1038.0,1031.0,1045.0,1036.0,1036.0,1042.0,1038.0,1032.0,1045.0,1036.0,1023.0,1024.0,1022.0,1023.0,1024.0,1022.0,1033.0,1041.0,1035.0,1033.0,1042.0,1036.0,1029.0,1033.0,1031.0,1030.0,1039.0,1032.0,1024.0,1026.0,1025.0,1024.0,1027.0,2073,1971,1909,	00:28:48.568,0.05029296875,0.0634765625,1.01806640625,-0.6103515625,0.42724609375,0.1220703125,3.58154296875,-2.8399658203125,40.4351806640625,438.0,-1587.0,-2560.0,0.9373779296875,0.037872314453125,-0.012420654296875,0.346038818359375,3.5833668255928894,-2.8389120693351204,35.93369712802255,0.9502394391076159,0.0373693776669826,-0.013910681739884117,0.30895797596235913,1,	00:28:48.569,0.03271484375,-0.00830078125,1.00732421875,-0.42724609375,-0.91552734375,-0.54931640625,-0.46142578125,-1.845703125,-145.56884765625,-440.0,-1125.0,-2005.0,0.295867919921875,-0.0166015625,-0.00091552734375,-0.955078125,-0.46146349834428,-1.8475892750625422,-145.0402619145997,0.3002672868735041,-0.016587376936304247,-0.0010021439208386048,-0.9537103391845764,1
1782117235.799259,0.144,1023.0,1023.0,1024.0,1023.0,1023.0,1023.0,1023.0,1023.0,1024.0,1023.0,1024.0,1024.0,1023.0,1024.0,1024.0,1024.0,1022.0,1024.0,1024.0,1024.0,1024.0,1023.0,1023.0,1023.0,1023.0,1024.0,1022.0,1024.0,1024.0,1023.0,1024.0,1022.0,1022.0,1023.0,1024.0,1023.0,1024.0,1024.0,1023.0,1023.0,1023.0,1022.0,1023.0,1024.0,1023.0,1024.0,1024.0,1023.0,1023.0,1024.0,1022.0,1023.0,1023.0,1024.0,1023.0,1024.0,1024.0,1023.0,1023.0,1023.0,1022.0,1024.0,1023.0,1024.0,1023.0,1023.0,1024.0,1023.0,1023.0,1022.0,1023.0,1024.0,1023.0,1024.0,1023.0,1024.0,1023.0,1023.0,1023.0,1022.0,1022.0,1023.0,1023.0,1024.0,1024.0,1024.0,1024.0,1024.0,1023.0,1024.0,1023.0,1023.0,1023.0,1024.0,1023.0,1024.0,1024.0,1023.0,1023.0,1023.0,1022.0,1023.0,1022.0,1024.0,1023.0,1024.0,1024.0,1023.0,1023.0,1022.0,1022.0,1023.0,1023.0,1024.0,1022.0,1023.0,1024.0,1023.0,1023.0,1021.0,1022.0,1023.0,1024.0,1023.0,1024.0,1024.0,1024.0,1023.0,1022.0,1023.0,1024.0,1024.0,1024.0,1024.0,1023.0,1023.0,1024.0,1024.0,1024.0,1025.0,1025.0,1024.0,1024.0,1023.0,1024.0,1024.0,1024.0,1025.0,1024.0,1024.0,1023.0,1025.0,1024.0,1025.0,1027.0,1025.0,1024.0,1026.0,1025.0,1027.0,1028.0,1025.0,1025.0,1027.0,1027.0,1030.0,1030.0,1026.0,1028.0,1034.0,1033.0,1036.0,1037.0,1028.0,1030.0,1040.0,1041.0,1040.0,1047.0,1031.0,1034.0,1044.0,1040.0,1035.0,1045.0,1033.0,1043.0,1051.0,1041.0,1037.0,1050.0,1037.0,1041.0,1048.0,1041.0,1035.0,1049.0,1037.0,1036.0,1042.0,1038.0,1032.0,1045.0,1036.0,1036.0,1042.0,1039.0,1032.0,1044.0,1035.0,1022.0,1024.0,1023.0,1023.0,1024.0,1022.0,1034.0,1040.0,1036.0,1032.0,1043.0,1036.0,1029.0,1033.0,1031.0,1031.0,1039.0,1032.0,1025.0,1026.0,1025.0,1024.0,1027.0,2073,1971,1909,	00:28:48.578,0.05126953125,0.06298828125,1.017578125,-0.6103515625,0.42724609375,0.06103515625,3.5101318359375,-2.900390625,40.440673828125,438.0,-1586.0,-2558.0,0.9373779296875,0.0374755859375,-0.01312255859375,0.3460693359375,3.5112992964187693,-2.8984711770500122,35.937876731338676,0.9502342031979011,0.03693211105813787,-0.014597779711110048,0.3089949563878757,1,	00:28:48.579,0.03173828125,-0.00927734375,1.00927734375,-0.54931640625,-0.9765625,-0.54931640625,-0.5438232421875,-1.8017578125,-145.5743408203125,-440.0,-1124.0,-2006.0,0.29583740234375,-0.016448974609375,-0.000152587890625,-0.955108642578125,-0.541433540995356,-1.8041480998765411,-145.04330258455929,0.30023385361621024,-0.016435394815843517,-0.00022226077157206205,-0.9537239965210883,1
1782117235.809978,0.154,1023.0,1023.0,1023.0,1023.0,1023.0,1023.0,1023.0,1024.0,1023.0,1023.0,1024.0,1024.0,1023.0,1024.0,1024.0,1023.0,1022.0,1024.0,1023.0,1024.0,1024.0,1024.0,1024.0,1023.0,1023.0,1023.0,1023.0,1024.0,1024.0,1024.0,1023.0,1022.0,1022.0,1022.0,1023.0,1023.0,1024.0,1024.0,1023.0,1023.0,1023.0,1022.0,1023.0,1024.0,1024.0,1023.0,1024.0,1023.0,1023.0,1023.0,1023.0,1023.0,1024.0,1024.0,1024.0,1024.0,1024.0,1023.0,1023.0,1023.0,1023.0,1023.0,1022.0,1024.0,1023.0,1024.0,1024.0,1023.0,1023.0,1022.0,1022.0,1023.0,1023.0,1023.0,1023.0,1024.0,1024.0,1023.0,1023.0,1022.0,1022.0,1023.0,1023.0,1023.0,1023.0,1024.0,1024.0,1023.0,1023.0,1024.0,1023.0,1024.0,1023.0,1024.0,1024.0,1024.0,1024.0,1024.0,1023.0,1023.0,1022.0,1024.0,1023.0,1024.0,1023.0,1024.0,1024.0,1023.0,1023.0,1022.0,1022.0,1023.0,1023.0,1023.0,1023.0,1023.0,1024.0,1023.0,1023.0,1021.0,1022.0,1023.0,1023.0,1023.0,1023.0,1024.0,1024.0,1023.0,1023.0,1023.0,1023.0,1023.0,1024.0,1024.0,1024.0,1023.0,1024.0,1024.0,1024.0,1025.0,1025.0,1024.0,1024.0,1024.0,1024.0,1024.0,1025.0,1025.0,1024.0,1024.0,1024.0,1025.0,1024.0,1026.0,1027.0,1024.0,1024.0,1024.0,1025.0,1027.0,1028.0,1025.0,1025.0,1027.0,1027.0,1030.0,1031.0,1026.0,1027.0,1033.0,1032.0,1036.0,1038.0,1028.0,1030.0,1039.0,1041.0,1039.0,1047.0,1031.0,1034.0,1044.0,1039.0,1035.0,1045.0,1033.0,1042.0,1051.0,1041.0,1037.0,1051.0,1038.0,1041.0,1048.0,1041.0,1035.0,1051.0,1037.0,1035.0,1042.0,1037.0,1032.0,1047.0,1036.0,1036.0,1042.0,1038.0,1033.0,1045.0,1036.0,1022.0,1023.0,1022.0,1023.0,1024.0,1022.0,1034.0,1040.0,1036.0,1033.0,1044.0,1036.0,1029.0,1033.0,1030.0,1030.0,1041.0,1032.0,1024.0,1026.0,1025.0,1025.0,1028.0,2072,1971,1909,	00:28:48.588,0.048828125,0.06298828125,1.017578125,-0.6103515625,0.42724609375,0.1220703125,3.5211181640625,-2.8070068359375,40.440673828125,435.0,-1590.0,-2558.0,0.9373779296875,0.03729248046875,-0.0123291015625,0.346038818359375,3.522814519597677,-2.804391064622488,35.938473480858896,0.9502560826130064,0.03677518552650847,-0.013785995929478198,0.30898367190307385,1,	00:28:48.589,0.0322265625,-0.00927734375,1.0087890625,-0.67138671875,-0.9765625,-0.54931640625,-0.4998779296875,-1.8951416015625,-145.579833984375,-439.0,-1124.0,-2006.0,0.2957763671875,-0.01708984375,-0.000701904296875,-0.955108642578125,-0.5026156791823833,-1.893613808603912,-145.05016421504556,0.30017524686914837,-0.017078305127720225,-0.0007788221310646841,-0.9537308562152628,1
1782117235.819676,0.164,1023.0,1023.0,1023.0,1022.0,1023.0,1023.0,1023.0,1024.0,1023.0,1023.0,1023.0,1024.0,1024.0,1024.0,1024.0,1024.0,1023.0,1023.0,1023.0,1024.0,1024.0,1024.0,1023.0,1022.0,1023.0,1023.0,1023.0,1023.0,1024.0,1023.0,1023.0,1022.0,1022.0,1023.0,1024.0,1023.0,1023.0,1024.0,1024.0,1023.0,1022.0,1022.0,1023.0,1023.0,1024.0,1024.0,1024.0,1024.0,1023.0,1024.0,1022.0,1023.0,1022.0,1024.0,1023.0,1024.0,1024.0,1024.0,1023.0,1023.0,1022.0,1023.0,1023.0,1023.0,1023.0,1024.0,1024.0,1024.0,1023.0,1022.0,1023.0,1024.0,1023.0,1023.0,1023.0,1023.0,1024.0,1023.0,1023.0,1022.0,1022.0,1023.0,1023.0,1024.0,1024.0,1024.0,1024.0,1024.0,1024.0,1024.0,1023.0,1023.0,1023.0,1023.0,1023.0,1024.0,1024.0,1024.0,1022.0,1023.0,1022.0,1023.0,1023.0,1023.0,1023.0,1024.0,1024.0,1023.0,1023.0,1023.0,1022.0,1023.0,1023.0,1024.0,1023.0,1023.0,1024.0,1023.0,1023.0,1021.0,1022.0,1023.0,1023.0,1023.0,1024.0,1024.0,1023.0,1023.0,1022.0,1023.0,1023.0,1023.0,1024.0,1024.0,1023.0,1023.0,1023.0,1024.0,1024.0,1025.0,1025.0,1024.0,1024.0,1023.0,1024.0,1024.0,1025.0,1025.0,1024.0,1024.0,1024.0,1024.0,1024.0,1026.0,1027.0,1025.0,1024.0,1025.0,1024.0,1027.0,1028.0,1025.0,1025.0,1026.0,1027.0,1030.0,1030.0,1026.0,1027.0,1033.0,1033.0,1037.0,1038.0,1028.0,1030.0,1040.0,1041.0,1040.0,1047.0,1030.0,1033.0,1043.0,1039.0,1035.0,1045.0,1032.0,1042.0,1050.0,1042.0,1037.0,1051.0,1037.0,1040.0,1049.0,1042.0,1035.0,1050.0,1037.0,1036.0,1042.0,1038.0,1032.0,1047.0,1036.0,1035.0,1042.0,1038.0,1033.0,1045.0,1035.0,1023.0,1024.0,1023.0,1023.0,1024.0,1022.0,1033.0,1040.0,1036.0,1033.0,1043.0,1035.0,1029.0,1033.0,1032.0,1031.0,1040.0,1032.0,1024.0,1025.0,1025.0,1025.0,1028.0,2072,1971,1909,	00:28:48.599,0.05078125,0.0625,1.01708984375,-0.48828125,0.3662109375,0.06103515625,3.504638671875,-2.889404296875,40.440673828125,437.0,-1585.0,-2558.0,0.9373779296875,0.03741455078125,-0.013092041015625,0.3460693359375,3.505875881422196,-2.8915796425001394,35.93990940248106,0.9502324806620228,0.036868901839245176,-0.014554573975214879,0.30900983988939007,1,	00:28:48.600,0.03076171875,-0.009765625,1.0078125,-0.732421875,-0.9765625,-0.48828125,-0.538330078125,-1.8182373046875,-145.5853271484375,-440.0,-1126.0,-2002.0,0.295745849609375,-0.01654052734375,-0.00018310546875,-0.95513916015625,-0.5409429180501405,-1.8172383465840405,-145.05395974157167,0.30014416891549534,-0.016543075990898774,-0.0002591187104158935,-0.9537503537930037,1
1782117235.829707,0.174,1023.0,1023.0,1023.0,1023.0,1023.0,1023.0,1023.0,1023.0,1023.0,1023.0,1024.0,1024.0,1024.0,1024.0,1024.0,1024.0,1022.0,1023.0,1023.0,1023.0,1024.0,1024.0,1024.0,1023.0,1023.0,1023.0,1023.0,1024.0,1024.0,1023.0,1023.0,1023.0,1022.0,1022.0,1023.0,1022.0,1023.0,1024.0,1023.0,1023.0,1022.0,1022.0,1023.0,1024.0,1023.0,1024.0,1024.0,1024.0,1023.0,1023.0,1022.0,1023.0,1024.0,1023.0,1023.0,1024.0,1024.0,1024.0,1023.0,1023.0,1022.0,1024.0,1022.0,1023.0,1023.0,1024.0,1024.0,1023.0,1023.0,1023.0,1022.0,1024.0,1023.0,1023.0,1024.0,1023.0,1024.0,1024.0,1023.0,1023.0,1022.0,1023.0,1023.0,1024.0,1024.0,1024.0,1025.0,1024.0,1023.0,1024.0,1023.0,1023.0,1022.0,1024.0,1023.0,1024.0,1024.0,1023.0,1023.0,1023.0,1023.0,1023.0,1023.0,1023.0,1023.0,1024.0,1024.0,1024.0,1023.0,1022.0,1022.0,1023.0,1022.0,1023.0,1023.0,1023.0,1024.0,1023.0,1023.0,1021.0,1022.0,1023.0,1024.0,1024.0,1023.0,1024.0,1024.0,1023.0,1023.0,1023.0,1024.0,1023.0,1024.0,1024.0,1023.0,1023.0,1023.0,1024.0,1024.0,1025.0,1025.0,1024.0,1024.0,1024.0,1024.0,1024.0,1024.0,1025.0,1024.0,1024.0,1024.0,1024.0,1024.0,1026.0,1027.0,1025.0,1024.0,1025.0,1025.0,1027.0,1028.0,1025.0,1024.0,1027.0,1027.0,1031.0,1031.0,1026.0,1026.0,1034.0,1033.0,1037.0,1038.0,1028.0,1030.0,1039.0,1042.0,1040.0,1047.0,1031.0,1034.0,1044.0,1040.0,1035.0,1045.0,1033.0,1042.0,1051.0,1042.0,1037.0,1051.0,1037.0,1040.0,1048.0,1043.0,1035.0,1050.0,1036.0,1036.0,1041.0,1039.0,1032.0,1046.0,1036.0,1036.0,1042.0,1040.0,1033.0,1044.0,1035.0,1023.0,1024.0,1023.0,1023.0,1024.0,1022.0,1034.0,1040.0,1036.0,1032.0,1043.0,1035.0,1029.0,1033.0,1032.0,1030.0,1040.0,1031.0,1025.0,1025.0,1025.0,1024.0,1027.0,2072,1971,1909,	00:28:48.609,0.04931640625,0.0625,1.0185546875,-0.48828125,0.3662109375,0.1220703125,3.504638671875,-2.7960205078125,40.440673828125,435.0,-1587.0,-2561.0,0.9373779296875,0.037109375,-0.0123291015625,0.3460693359375,3.504934575122004,-2.796513756581076,35.941150357613544,0.9502568365482299,0.03660609402705091,-0.013767996838338051,0.3090022341933677,1,	00:28:48.610,0.0322265625,-0.00830078125,1.0078125,-0.79345703125,-1.03759765625,-0.54931640625,-0.46142578125,-1.845703125,-145.5908203125,-441.0,-1125.0,-2003.0,0.295684814453125,-0.016571044921875,-0.000946044921875,-0.95513916015625,-0.4588691732184367,-1.846148854598212,-145.0622269928036,0.30008495704237587,-0.016568786465974008,-0.0010167838562472394,-0.9537680326067288,1
1782117235.841486,0.186,1023.0,1023.0,1023.0,1022.0,1023.0,1023.0,1024.0,1024.0,1023.0,1023.0,1024.0,1024.0,1024.0,1024.0,1024.0,1024.0,1022.0,1023.0,1023.0,1024.0,1024.0,1024.0,1023.0,1023.0,1023.0,1024.0,1023.0,1024.0,1024.0,1023.0,1023.0,1023.0,1022.0,1023.0,1023.0,1023.0,1023.0,1024.0,1024.0,1023.0,1022.0,1022.0,1023.0,1024.0,1024.0,1024.0,1024.0,1024.0,1023.0,1024.0,1023.0,1023.0,1023.0,1024.0,1024.0,1024.0,1024.0,1024.0,1024.0,1022.0,1022.0,1023.0,1022.0,1024.0,1023.0,1023.0,1024.0,1023.0,1023.0,1022.0,1022.0,1023.0,1023.0,1024.0,1023.0,1023.0,1024.0,1023.0,1023.0,1022.0,1022.0,1023.0,1023.0,1024.0,1024.0,1024.0,1024.0,1024.0,1024.0,1024.0,1022.0,1023.0,1023.0,1024.0,1024.0,1024.0,1025.0,1024.0,1023.0,1023.0,1023.0,1023.0,1023.0,1024.0,1023.0,1023.0,1024.0,1023.0,1023.0,1022.0,1022.0,1023.0,1022.0,1023.0,1023.0,1023.0,1023.0,1023.0,1023.0,1021.0,1022.0,1022.0,1024.0,1023.0,1024.0,1024.0,1023.0,1023.0,1023.0,1023.0,1023.0,1024.0,1024.0,1024.0,1023.0,1023.0,1023.0,1024.0,1024.0,1024.0,1026.0,1024.0,1024.0,1023.0,1024.0,1024.0,1024.0,1025.0,1024.0,1024.0,1023.0,1025.0,1025.0,1026.0,1027.0,1025.0,1024.0,1025.0,1025.0,1027.0,1028.0,1025.0,1024.0,1027.0,1027.0,1030.0,1031.0,1025.0,1027.0,1033.0,1033.0,1036.0,1038.0,1028.0,1030.0,1039.0,1041.0,1039.0,1047.0,1031.0,1034.0,1043.0,1039.0,1035.0,1045.0,1032.0,1042.0,1050.0,1042.0,1037.0,1050.0,1037.0,1040.0,1048.0,1043.0,1034.0,1050.0,1037.0,1035.0,1042.0,1038.0,1032.0,1047.0,1036.0,1036.0,1042.0,1038.0,1032.0,1046.0,1036.0,1022.0,1024.0,1023.0,1022.0,1025.0,1021.0,1034.0,1040.0,1036.0,1032.0,1043.0,1036.0,1029.0,1033.0,1031.0,1029.0,1040.0,1032.0,1025.0,1026.0,1025.0,1024.0,1028.0,2072,1971,1909,	00:28:48.619,0.05078125,0.06298828125,1.01708984375,-0.48828125,0.3662109375,0.1220703125,3.5540771484375,-2.867431640625,40.440673828125,439.0,-1589.0,-2560.0,0.937347412109375,0.0377197265625,-0.01275634765625,0.3460693359375,3.551918482410183,-2.8682020321718635,35.94003098597994,0.9502240863745537,0.0371879759846505,-0.014236423118197297,0.3090122398427114,1,	00:28:48.620,0.03173828125,-0.00927734375,1.00732421875,-0.732421875,-1.0986328125,-0.54931640625,-0.5438232421875,-1.8072509765625,-145.5963134765625,-440.0,-1126.0,-2005.0,0.295654296875,-0.0164794921875,-0.0001220703125,-0.955169677734375,-0.5445086543740031,-1.8097562351504388,-145.06513342763307,0.3000512595782194,-0.01649016491850189,-0.00020822611393269444,-0.9537805160142296,1
1782117235.851160,0.196,1022.0,1024.0,1023.0,1023.0,1023.0,1023.0,1023.0,1023.0,1023.0,1023.0,1023.0,1024.0,1024.0,1024.0,1024.0,1023.0,1023.0,1023.0,1023.0,1024.0,1024.0,1024.0,1023.0,1023.0,1023.0,1023.0,1023.0,1024.0,1024.0,1023.0,1023.0,1022.0,1022.0,1023.0,1023.0,1022.0,1023.0,1024.0,1023.0,1023.0,1022.0,1023.0,1023.0,1023.0,1023.0,1023.0,1024.0,1024.0,1023.0,1024.0,1023.0,1023.0,1023.0,1024.0,1024.0,1024.0,1024.0,1024.0,1023.0,1023.0,1023.0,1023.0,1023.0,1024.0,1023.0,1023.0,1024.0,1023.0,1023.0,1022.0,1022.0,1023.0,1023.0,1023.0,1023.0,1024.0,1024.0,1023.0,1023.0,1023.0,1022.0,1023.0,1023.0,1024.0,1024.0,1024.0,1024.0,1024.0,1024.0,1023.0,1023.0,1023.0,1023.0,1024.0,1023.0,1024.0,1024.0,1023.0,1023.0,1023.0,1023.0,1024.0,1023.0,1023.0,1023.0,1024.0,1024.0,1023.0,1022.0,1022.0,1023.0,1023.0,1023.0,1023.0,1023.0,1023.0,1024.0,1023.0,1023.0,1021.0,1022.0,1023.0,1024.0,1024.0,1024.0,1024.0,1024.0,1023.0,1023.0,1023.0,1024.0,1023.0,1024.0,1024.0,1024.0,1023.0,1024.0,1024.0,1024.0,1025.0,1025.0,1024.0,1024.0,1023.0,1024.0,1024.0,1024.0,1025.0,1024.0,1024.0,1024.0,1025.0,1024.0,1025.0,1027.0,1024.0,1024.0,1025.0,1024.0,1027.0,1029.0,1026.0,1025.0,1027.0,1027.0,1029.0,1031.0,1026.0,1027.0,1033.0,1033.0,1036.0,1038.0,1028.0,1030.0,1039.0,1041.0,1039.0,1048.0,1030.0,1034.0,1043.0,1040.0,1034.0,1045.0,1032.0,1042.0,1050.0,1043.0,1037.0,1050.0,1038.0,1041.0,1048.0,1043.0,1034.0,1050.0,1037.0,1036.0,1041.0,1038.0,1032.0,1047.0,1036.0,1037.0,1042.0,1039.0,1032.0,1046.0,1036.0,1023.0,1024.0,1023.0,1022.0,1024.0,1022.0,1034.0,1040.0,1035.0,1032.0,1043.0,1036.0,1029.0,1033.0,1031.0,1030.0,1039.0,1031.0,1024.0,1025.0,1025.0,1025.0,1028.0,2071,1971,1909,	00:28:48.629,0.05029296875,0.06201171875,1.0185546875,-0.48828125,0.42724609375,0.1220703125,3.4716796875,-2.8125,40.4461669921875,438.0,-1587.0,-2557.0,0.9373779296875,0.036895751953125,-0.012542724609375,0.346099853515625,3.4715512436468994,-2.812246770494415,35.945250202475144,0.9502519274178673,0.036371990766971195,-0.013987245712136318,0.30903512694136204,1,	00:28:48.631,0.0302734375,-0.00830078125,1.00634765625,-0.6103515625,-1.03759765625,-0.54931640625,-0.494384765625,-1.7523193359375,-145.601806640625,-440.0,-1125.0,-2006.0,0.29559326171875,-0.015869140625,-0.00042724609375,-0.955169677734375,-0.4919431206297907,-1.7496301514307069,-145.07235043958445,0.30000331627712074,-0.015852125633370885,-0.00048723817040940997,-0.9538063131132017,1
1782117235.860681,0.205,1023.0,1023.0,1022.0,1023.0,1023.0,1023.0,1023.0,1023.0,1023.0,1023.0,1024.0,1024.0,1024.0,1024.0,1024.0,1024.0,1023.0,1024.0,1023.0,1023.0,1024.0,1024.0,1023.0,1023.0,1023.0,1024.0,1023.0,1023.0,1024.0,1023.0,1023.0,1022.0,1022.0,1022.0,1023.0,1023.0,1023.0,1024.0,1023.0,1023.0,1022.0,1022.0,1023.0,1024.0,1024.0,1024.0,1024.0,1024.0,1023.0,1024.0,1023.0,1023.0,1024.0,1024.0,1023.0,1024.0,1024.0,1024.0,1023.0,1023.0,1022.0,1023.0,1023.0,1023.0,1023.0,1023.0,1024.0,1023.0,1023.0,1022.0,1022.0,1023.0,1023.0,1024.0,1023.0,1024.0,1024.0,1024.0,1023.0,1023.0,1022.0,1023.0,1023.0,1024.0,1023.0,1024.0,1025.0,1024.0,1023.0,1024.0,1023.0,1023.0,1023.0,1024.0,1023.0,1024.0,1024.0,1024.0,1023.0,1023.0,1022.0,1024.0,1023.0,1024.0,1023.0,1024.0,1024.0,1023.0,1023.0,1022.0,1023.0,1023.0,1022.0,1024.0,1023.0,1023.0,1024.0,1023.0,1022.0,1021.0,1021.0,1023.0,1024.0,1023.0,1024.0,1024.0,1024.0,1023.0,1023.0,1023.0,1024.0,1023.0,1024.0,1024.0,1023.0,1023.0,1024.0,1024.0,1024.0,1025.0,1026.0,1024.0,1023.0,1023.0,1024.0,1024.0,1024.0,1026.0,1024.0,1024.0,1024.0,1025.0,1024.0,1026.0,1027.0,1025.0,1024.0,1025.0,1025.0,1027.0,1029.0,1025.0,1024.0,1027.0,1027.0,1030.0,1031.0,1026.0,1027.0,1033.0,1033.0,1036.0,1038.0,1028.0,1030.0,1039.0,1042.0,1039.0,1047.0,1031.0,1033.0,1043.0,1039.0,1035.0,1046.0,1033.0,1042.0,1051.0,1042.0,1037.0,1051.0,1037.0,1040.0,1048.0,1042.0,1035.0,1051.0,1037.0,1036.0,1042.0,1038.0,1032.0,1046.0,1036.0,1036.0,1042.0,1039.0,1033.0,1045.0,1035.0,1023.0,1024.0,1023.0,1024.0,1025.0,1022.0,1034.0,1041.0,1036.0,1032.0,1042.0,1036.0,1029.0,1033.0,1031.0,1030.0,1040.0,1031.0,1024.0,1025.0,1025.0,1024.0,1028.0,2071,1971,1909,	00:28:48.640,0.04931640625,0.0634765625,1.017578125,-0.42724609375,0.42724609375,0.1220703125,3.548583984375,-2.7685546875,40.440673828125,436.0,-1584.0,-2560.0,0.9373779296875,0.03741455078125,-0.011962890625,0.3460693359375,3.5511794848310485,-2.7712049843015185,35.94263760297156,0.9502451873517592,0.03692182296155218,-0.013432840180497972,0.30901524510726164,1,	00:28:48.641,0.03173828125,-0.00830078125,1.00732421875,-0.67138671875,-1.15966796875,-0.6103515625,-0.4669189453125,-1.845703125,-145.6072998046875,-439.0,-1126.0,-2005.0,0.2955322265625,-0.0166015625,-0.000885009765625,-0.9552001953125,-0.4673882426412719,-1.8474922549918582,-145.07932689447185,0.299941292957589,-0.016602418018830355,-0.0009469199501847135,-0.9538127089934719,1
1782117235.871276,0.216,1022.0,1023.0,1023.0,1022.0,1023.0,1023.0,1023.0,1024.0,1023.0,1023.0,1024.0,1024.0,1024.0,1024.0,1024.0,1023.0,1023.0,1024.0,1024.0,1024.0,1024.0,1024.0,1023.0,1023.0,1023.0,1023.0,1023.0,1023.0,1024.0,1023.0,1023.0,1022.0,1023.0,1022.0,1023.0,1023.0,1023.0,1024.0,1023.0,1023.0,1022.0,1022.0,1023.0,1024.0,1024.0,1023.0,1024.0,1024.0,1023.0,1024.0,1022.0,1024.0,1023.0,1024.0,1023.0,1024.0,1024.0,1024.0,1023.0,1023.0,1022.0,1023.0,1022.0,1024.0,1023.0,1023.0,1024.0,1024.0,1023.0,1022.0,1022.0,1023.0,1022.0,1023.0,1023.0,1024.0,1024.0,1024.0,1023.0,1022.0,1022.0,1024.0,1023.0,1024.0,1023.0,1024.0,1025.0,1024.0,1023.0,1024.0,1023.0,1024.0,1023.0,1024.0,1023.0,1024.0,1024.0,1024.0,1023.0,1023.0,1022.0,1024.0,1023.0,1024.0,1023.0,1024.0,1024.0,1024.0,1023.0,1022.0,1023.0,1023.0,1022.0,1023.0,1022.0,1023.0,1024.0,1023.0,1023.0,1021.0,1022.0,1023.0,1024.0,1023.0,1024.0,1024.0,1024.0,1023.0,1023.0,1023.0,1024.0,1023.0,1024.0,1024.0,1023.0,1023.0,1023.0,1024.0,1024.0,1025.0,1025.0,1024.0,1024.0,1024.0,1024.0,1024.0,1024.0,1025.0,1024.0,1024.0,1023.0,1024.0,1024.0,1025.0,1027.0,1025.0,1024.0,1025.0,1025.0,1027.0,1029.0,1025.0,1024.0,1028.0,1027.0,1029.0,1031.0,1026.0,1027.0,1034.0,1033.0,1035.0,1038.0,1028.0,1030.0,1039.0,1042.0,1038.0,1047.0,1031.0,1034.0,1043.0,1040.0,1034.0,1046.0,1033.0,1043.0,1051.0,1042.0,1036.0,1051.0,1037.0,1041.0,1048.0,1043.0,1035.0,1051.0,1037.0,1036.0,1042.0,1038.0,1032.0,1046.0,1036.0,1036.0,1042.0,1038.0,1033.0,1046.0,1035.0,1023.0,1023.0,1023.0,1023.0,1024.0,1021.0,1034.0,1040.0,1036.0,1032.0,1044.0,1035.0,1029.0,1033.0,1031.0,1030.0,1040.0,1031.0,1024.0,1026.0,1025.0,1025.0,1028.0,2071,1971,1909,	00:28:48.650,0.04931640625,0.06201171875,1.01806640625,-0.48828125,0.42724609375,0.06103515625,3.4552001953125,-2.7630615234375,40.4461669921875,439.0,-1587.0,-2559.0,0.937408447265625,0.03662109375,-0.01220703125,0.34613037109375,3.4547545694062425,-2.76276446612407,35.94792919583629,0.9502640250375763,0.03610018149921535,-0.013621166204298747,0.3090461509974571,1,	00:28:48.651,0.03173828125,-0.0078125,1.0068359375,-0.67138671875,-1.0986328125,-0.54931640625,-0.428466796875,-1.77978515625,-145.6182861328125,-439.0,-1127.0,-2006.0,0.29547119140625,-0.01593017578125,-0.001007080078125,-0.9552001953125,-0.43020968889710076,-1.7779855885781046,-145.08612011097594,0.2998951696711664,-0.015926641154424846,-0.0010734286902230857,-0.9538386011586486,1
1782117235.881094,0.226,1023.0,1023.0,1023.0,1022.0,1023.0,1023.0,1023.0,1024.0,1023.0,1023.0,1024.0,1024.0,1024.0,1024.0,1024.0,1024.0,1022.0,1023.0,1023.0,1024.0,1024.0,1023.0,1023.0,1023.0,1023.0,1023.0,1023.0,1023.0,1024.0,1024.0,1023.0,1023.0,1022.0,1023.0,1023.0,1023.0,1023.0,1024.0,1023.0,1023.0,1022.0,1022.0,1023.0,1024.0,1024.0,1023.0,1024.0,1024.0,1023.0,1024.0,1022.0,1023.0,1024.0,1024.0,1024.0,1024.0,1024.0,1024.0,1023.0,1023.0,1022.0,1023.0,1023.0,1023.0,1023.0,1024.0,1024.0,1023.0,1023.0,1022.0,1022.0,1023.0,1023.0,1024.0,1023.0,1024.0,1024.0,1023.0,1023.0,1022.0,1023.0,1023.0,1022.0,1023.0,1023.0,1024.0,1024.0,1024.0,1024.0,1024.0,1023.0,1024.0,1023.0,1024.0,1023.0,1024.0,1024.0,1023.0,1023.0,1023.0,1022.0,1023.0,1023.0,1024.0,1024.0,1024.0,1024.0,1024.0,1023.0,1022.0,1022.0,1023.0,1022.0,1024.0,1023.0,1023.0,1024.0,1023.0,1022.0,1021.0,1022.0,1023.0,1023.0,1024.0,1024.0,1024.0,1024.0,1023.0,1023.0,1023.0,1024.0,1023.0,1024.0,1024.0,1024.0,1023.0,1024.0,1024.0,1024.0,1025.0,1026.0,1024.0,1024.0,1023.0,1024.0,1023.0,1024.0,1026.0,1024.0,1024.0,1023.0,1025.0,1024.0,1025.0,1027.0,1025.0,1024.0,1025.0,1025.0,1027.0,1030.0,1025.0,1025.0,1027.0,1027.0,1030.0,1032.0,1026.0,1027.0,1033.0,1032.0,1035.0,1038.0,1028.0,1030.0,1039.0,1041.0,1038.0,1048.0,1030.0,1033.0,1043.0,1039.0,1034.0,1046.0,1032.0,1042.0,1050.0,1043.0,1036.0,1051.0,1036.0,1041.0,1047.0,1043.0,1034.0,1051.0,1036.0,1035.0,1041.0,1039.0,1032.0,1048.0,1035.0,1036.0,1041.0,1039.0,1032.0,1047.0,1036.0,1022.0,1023.0,1023.0,1023.0,1025.0,1022.0,1034.0,1040.0,1036.0,1033.0,1045.0,1035.0,1029.0,1033.0,1032.0,1030.0,1041.0,1031.0,1025.0,1026.0,1025.0,1024.0,1029.0,2071,1971,1909,	00:28:48.660,0.04931640625,0.06298828125,1.01806640625,-0.48828125,0.3662109375,0.06103515625,3.5430908203125,-2.7630615234375,40.4461669921875,436.0,-1585.0,-2561.0,0.9373779296875,0.037322998046875,-0.011962890625,0.346099853515625,3.5412522482299167,-2.7647630350304477,35.94435201655765,0.9502455858153,0.03682241036387632,-0.013405613991969911,0.30902706393943874,1,	00:28:48.661,0.0322265625,-0.0078125,1.00830078125,-0.67138671875,-1.0986328125,-0.54931640625,-0.46142578125,-1.878662109375,-145.6182861328125,-439.0,-1126.0,-2009.0,0.295440673828125,-0.016845703125,-0.001007080078125,-0.9552001953125,-0.45988452620477155,-1.877672725774686,-145.09078967469262,0.29984467437162754,-0.016834084861455382,-0.0010867234290999484,-0.9538388773110681,1
1782117235.892122,0.237,1023.0,1023.0,1023.0,1023.0,1023.0,1023.0,1024.0,1024.0,1023.0,1024.0,1023.0,1024.0,1023.0,1024.0,1024.0,1024.0,1023.0,1024.0,1023.0,1024.0,1024.0,1023.0,1023.0,1022.0,1023.0,1023.0,1023.0,1023.0,1024.0,1024.0,1023.0,1023.0,1022.0,1022.0,1024.0,1023.0,1023.0,1024.0,1023.0,1023.0,1022.0,1022.0,1023.0,1023.0,1024.0,1024.0,1024.0,1024.0,1023.0,1024.0,1023.0,1023.0,1023.0,1024.0,1024.0,1024.0,1024.0,1024.0,1023.0,1023.0,1022.0,1024.0,1023.0,1023.0,1023.0,1024.0,1024.0,1024.0,1023.0,1022.0,1023.0,1023.0,1023.0,1024.0,1023.0,1023.0,1024.0,1024.0,1023.0,1022.0,1022.0,1023.0,1023.0,1024.0,1024.0,1024.0,1024.0,1024.0,1023.0,1024.0,1022.0,1024.0,1023.0,1024.0,1023.0,1024.0,1024.0,1024.0,1023.0,1022.0,1023.0,1023.0,1022.0,1024.0,1023.0,1023.0,1024.0,1024.0,1023.0,1022.0,1022.0,1023.0,1023.0,1023.0,1023.0,1023.0,1024.0,1023.0,1023.0,1021.0,1022.0,1023.0,1023.0,1023.0,1023.0,1024.0,1023.0,1023.0,1023.0,1023.0,1024.0,1023.0,1024.0,1024.0,1024.0,1023.0,1023.0,1024.0,1024.0,1024.0,1026.0,1024.0,1024.0,1023.0,1024.0,1024.0,1024.0,1026.0,1024.0,1024.0,1024.0,1024.0,1024.0,1026.0,1027.0,1024.0,1024.0,1025.0,1025.0,1027.0,1029.0,1025.0,1025.0,1027.0,1027.0,1029.0,1031.0,1026.0,1028.0,1033.0,1032.0,1035.0,1038.0,1028.0,1030.0,1039.0,1041.0,1038.0,1047.0,1030.0,1034.0,1042.0,1039.0,1034.0,1046.0,1032.0,1044.0,1050.0,1043.0,1037.0,1051.0,1037.0,1041.0,1048.0,1043.0,1035.0,1050.0,1037.0,1036.0,1041.0,1039.0,1032.0,1048.0,1036.0,1036.0,1041.0,1038.0,1033.0,1047.0,1035.0,1023.0,1023.0,1023.0,1023.0,1024.0,1022.0,1034.0,1040.0,1036.0,1032.0,1045.0,1036.0,1030.0,1032.0,1031.0,1030.0,1041.0,1030.0,1025.0,1025.0,1025.0,1024.0,1028.0,2070,1971,1909,	00:28:48.670,0.04931640625,0.0625,1.017578125,-0.42724609375,0.42724609375,0.06103515625,3.4442138671875,-2.7740478515625,40.45166015625,436.0,-1585.0,-2558.0,0.9373779296875,0.036590576171875,-0.0123291015625,0.34613037109375,3.4466664998574212,-2.7764030119514564,35.949590015862015,0.9502582525486972,0.036069927276801264,-0.01375560911625705,0.309061477747039,1,	00:28:48.672,0.03125,-0.0078125,1.00830078125,-0.79345703125,-1.0986328125,-0.54931640625,-0.4559326171875,-1.7962646484375,-145.623779296875,-440.0,-1128.0,-2005.0,0.295379638671875,-0.01617431640625,-0.0008544921875,-0.955230712890625,-0.4535583924250427,-1.7981671693256356,-145.09665460630433,0.2998027408175169,-0.016155812812450893,-0.0009304300764348466,-0.9538639528835056,1
1782117235.901893,0.246,1023.0,1023.0,1023.0,1023.0,1024.0,1023.0,1023.0,1024.0,1022.0,1023.0,1024.0,1024.0,1023.0,1024.0,1023.0,1023.0,1023.0,1024.0,1023.0,1024.0,1024.0,1024.0,1023.0,1023.0,1023.0,1024.0,1023.0,1024.0,1024.0,1024.0,1023.0,1022.0,1022.0,1023.0,1024.0,1023.0,1023.0,1024.0,1023.0,1023.0,1022.0,1023.0,1023.0,1024.0,1024.0,1024.0,1024.0,1024.0,1023.0,1024.0,1022.0,1023.0,1023.0,1024.0,1023.0,1024.0,1024.0,1024.0,1023.0,1023.0,1022.0,1023.0,1022.0,1024.0,1023.0,1023.0,1024.0,1024.0,1023.0,1023.0,1023.0,1023.0,1022.0,1024.0,1023.0,1023.0,1024.0,1023.0,1023.0,1023.0,1022.0,1023.0,1023.0,1024.0,1024.0,1024.0,1024.0,1023.0,1023.0,1023.0,1023.0,1023.0,1023.0,1023.0,1024.0,1024.0,1024.0,1024.0,1023.0,1023.0,1023.0,1024.0,1023.0,1023.0,1023.0,1024.0,1024.0,1024.0,1024.0,1022.0,1022.0,1023.0,1023.0,1023.0,1022.0,1023.0,1024.0,1023.0,1023.0,1021.0,1022.0,1023.0,1024.0,1024.0,1024.0,1024.0,1023.0,1023.0,1023.0,1023.0,1024.0,1023.0,1023.0,1024.0,1023.0,1023.0,1024.0,1024.0,1024.0,1024.0,1025.0,1024.0,1024.0,1023.0,1024.0,1024.0,1024.0,1026.0,1024.0,1024.0,1023.0,1024.0,1025.0,1025.0,1027.0,1025.0,1024.0,1025.0,1025.0,1027.0,1028.0,1026.0,1025.0,1027.0,1027.0,1030.0,1031.0,1026.0,1027.0,1032.0,1033.0,1035.0,1038.0,1028.0,1030.0,1038.0,1042.0,1038.0,1048.0,1031.0,1034.0,1042.0,1039.0,1035.0,1045.0,1032.0,1043.0,1049.0,1043.0,1036.0,1052.0,1036.0,1041.0,1048.0,1044.0,1035.0,1051.0,1037.0,1036.0,1041.0,1039.0,1032.0,1048.0,1036.0,1036.0,1041.0,1038.0,1032.0,1046.0,1035.0,1023.0,1023.0,1023.0,1023.0,1024.0,1022.0,1034.0,1040.0,1036.0,1033.0,1044.0,1035.0,1029.0,1032.0,1032.0,1029.0,1040.0,1031.0,1025.0,1026.0,1025.0,1024.0,1028.0,2070,1971,1909,	00:28:48.681,0.048828125,0.06298828125,1.0185546875,-0.42724609375,0.3662109375,0.06103515625,3.526611328125,-2.7410888671875,40.4461669921875,437.0,-1587.0,-2559.0,0.9373779296875,0.037139892578125,-0.01177978515625,0.346099853515625,3.5274194151397618,-2.7385476147022114,35.94632658553943,0.9502520932677713,0.036637555415606766,-0.01322479011003912,0.30903681609143696,1,	00:28:48.682,0.03076171875,-0.00732421875,1.00830078125,-0.79345703125,-1.0986328125,-0.54931640625,-0.406494140625,-1.73583984375,-145.634765625,-438.0,-1126.0,-2003.0,0.29534912109375,-0.0155029296875,-0.001068115234375,-0.95526123046875,-0.4069789090678502,-1.7353975481539072,-145.10374318643554,0.29975466489397595,-0.015511537973829098,-0.001152915177764333,-0.9538895134398844,1
1782117235.914130,0.259,1023.0,1023.0,1023.0,1022.0,1023.0,1023.0,1023.0,1024.0,1023.0,1023.0,1023.0,1024.0,1024.0,1024.0,1024.0,1024.0,1023.0,1023.0,1023.0,1023.0,1024.0,1024.0,1023.0,1023.0,1023.0,1023.0,1023.0,1024.0,1024.0,1024.0,1023.0,1022.0,1022.0,1023.0,1023.0,1022.0,1023.0,1024.0,1024.0,1023.0,1022.0,1022.0,1022.0,1023.0,1023.0,1024.0,1024.0,1023.0,1023.0,1023.0,1023.0,1023.0,1023.0,1023.0,1023.0,1024.0,1024.0,1024.0,1023.0,1023.0,1022.0,1023.0,1023.0,1023.0,1022.0,1024.0,1024.0,1023.0,1023.0,1022.0,1022.0,1023.0,1023.0,1023.0,1023.0,1024.0,1024.0,1023.0,1023.0,1023.0,1022.0,1023.0,1023.0,1024.0,1023.0,1024.0,1024.0,1024.0,1023.0,1024.0,1023.0,1023.0,1023.0,1024.0,1024.0,1024.0,1025.0,1024.0,1023.0,1023.0,1022.0,1024.0,1023.0,1024.0,1023.0,1024.0,1024.0,1023.0,1023.0,1021.0,1023.0,1023.0,1022.0,1024.0,1022.0,1023.0,1024.0,1023.0,1023.0,1021.0,1022.0,1023.0,1024.0,1024.0,1024.0,1024.0,1024.0,1023.0,1023.0,1023.0,1023.0,1024.0,1023.0,1024.0,1023.0,1023.0,1024.0,1024.0,1024.0,1025.0,1025.0,1024.0,1024.0,1023.0,1024.0,1024.0,1024.0,1026.0,1024.0,1024.0,1024.0,1024.0,1024.0,1025.0,1028.0,1025.0,1024.0,1025.0,1025.0,1027.0,1029.0,1025.0,1025.0,1027.0,1027.0,1030.0,1031.0,1026.0,1027.0,1032.0,1033.0,1036.0,1038.0,1028.0,1030.0,1038.0,1042.0,1040.0,1048.0,1030.0,1034.0,1042.0,1039.0,1035.0,1046.0,1033.0,1042.0,1049.0,1043.0,1037.0,1051.0,1037.0,1041.0,1047.0,1044.0,1036.0,1051.0,1037.0,1035.0,1042.0,1038.0,1033.0,1047.0,1035.0,1036.0,1041.0,1039.0,1033.0,1046.0,1035.0,1023.0,1023.0,1023.0,1022.0,1024.0,1022.0,1034.0,1040.0,1036.0,1033.0,1044.0,1035.0,1029.0,1032.0,1032.0,1030.0,1041.0,1031.0,1025.0,1026.0,1025.0,1025.0,1028.0,2070,1971,1909,	00:28:48.691,0.05078125,0.06298828125,1.017578125,-0.42724609375,0.3662109375,0.1220703125,3.53759765625,-2.823486328125,40.4461669921875,437.0,-1586.0,-2561.0,0.937347412109375,0.037445068359375,-0.012481689453125,0.34613037109375,3.534877028488198,-2.825735580820246,35.94720247552554,0.950222544302598,0.03693356066240407,-0.013927743461200447,0.3090615575544336,1,	00:28:48.692,0.03125,-0.0087890625,1.0078125,-0.91552734375,-1.0986328125,-0.48828125,-0.4998779296875,-1.7852783203125,-145.634765625,-439.0,-1124.0,-2006.0,0.295318603515625,-0.016143798828125,-0.00042724609375,-0.95526123046875,-0.4999808078760368,-1.7831977081727923,-145.1059675905549,0.29971980439793827,-0.016152705039166056,-0.0005035151327113559,-0.9538903896381862,1
1782117235.922540,0.267,1023.0,1023.0,1023.0,1022.0,1023.0,1023.0,1023.0,1024.0,1023.0,1023.0,1023.0,1024.0,1024.0,1024.0,1024.0,1024.0,1023.0,1023.0,1024.0,1024.0,1024.0,1024.0,1023.0,1023.0,1023.0,1023.0,1023.0,1023.0,1024.0,1024.0,1023.0,1022.0,1022.0,1024.0,1023.0,1023.0,1023.0,1024.0,1023.0,1022.0,1022.0,1022.0,1023.0,1024.0,1023.0,1024.0,1024.0,1024.0,1023.0,1023.0,1023.0,1024.0,1023.0,1024.0,1023.0,1024.0,1024.0,1024.0,1023.0,1023.0,1023.0,1023.0,1022.0,1023.0,1023.0,1024.0,1024.0,1024.0,1023.0,1023.0,1023.0,1023.0,1023.0,1024.0,1023.0,1023.0,1024.0,1023.0,1023.0,1022.0,1023.0,1023.0,1023.0,1023.0,1024.0,1024.0,1024.0,1024.0,1023.0,1024.0,1023.0,1024.0,1023.0,1024.0,1023.0,1024.0,1024.0,1024.0,1023.0,1023.0,1022.0,1023.0,1022.0,1023.0,1023.0,1024.0,1024.0,1024.0,1023.0,1022.0,1022.0,1023.0,1022.0,1023.0,1022.0,1024.0,1024.0,1023.0,1023.0,1021.0,1022.0,1023.0,1024.0,1023.0,1023.0,1024.0,1023.0,1023.0,1023.0,1023.0,1023.0,1023.0,1024.0,1024.0,1024.0,1023.0,1023.0,1024.0,1024.0,1025.0,1025.0,1024.0,1024.0,1023.0,1024.0,1024.0,1024.0,1026.0,1024.0,1024.0,1023.0,1024.0,1024.0,1026.0,1028.0,1025.0,1024.0,1025.0,1025.0,1027.0,1029.0,1025.0,1025.0,1027.0,1027.0,1030.0,1031.0,1027.0,1027.0,1033.0,1033.0,1036.0,1038.0,1029.0,1030.0,1039.0,1042.0,1040.0,1046.0,1030.0,1033.0,1043.0,1040.0,1034.0,1045.0,1032.0,1042.0,1049.0,1043.0,1037.0,1050.0,1037.0,1041.0,1049.0,1044.0,1035.0,1051.0,1037.0,1036.0,1042.0,1039.0,1032.0,1047.0,1036.0,1036.0,1042.0,1039.0,1033.0,1046.0,1035.0,1022.0,1023.0,1023.0,1023.0,1025.0,1022.0,1033.0,1040.0,1036.0,1032.0,1045.0,1035.0,1029.0,1033.0,1032.0,1029.0,1042.0,1031.0,1024.0,1026.0,1025.0,1025.0,1029.0,2070,1971,1909,	00:28:48.701,0.05078125,0.06201171875,1.01806640625,-0.3662109375,0.30517578125,0.1220703125,3.44970703125,-2.8619384765625,40.45166015625,438.0,-1583.0,-2561.0,0.937347412109375,0.036865234375,-0.013031005859375,0.346160888671875,3.449064910840522,-2.863685962044526,35.952685587356676,0.9502242559500855,0.03632454874956572,-0.014472297043651784,0.30910345061245587,1,	00:28:48.702,0.0322265625,-0.00927734375,1.0078125,-0.91552734375,-1.0986328125,-0.54931640625,-0.5548095703125,-1.8731689453125,-145.6402587890625,-438.0,-1125.0,-2007.0,0.295257568359375,-0.017059326171875,-0.000213623046875,-0.95526123046875,-0.554273307510854,-1.8738857713328667,-145.10991440965103,0.2996718260861361,-0.01704958842128273,-0.00028828933592047135,-0.9538899439003036,1
1782117235.932901,0.277,1022.0,1023.0,1023.0,1023.0,1023.0,1023.0,1023.0,1024.0,1022.0,1023.0,1024.0,1024.0,1024.0,1024.0,1024.0,1024.0,1023.0,1023.0,1024.0,1024.0,1024.0,1024.0,1023.0,1023.0,1022.0,1023.0,1023.0,1023.0,1024.0,1024.0,1023.0,1022.0,1022.0,1023.0,1023.0,1022.0,1023.0,1024.0,1023.0,1023.0,1022.0,1022.0,1023.0,1023.0,1023.0,1024.0,1024.0,1024.0,1023.0,1023.0,1022.0,1023.0,1023.0,1024.0,1024.0,1023.0,1024.0,1024.0,1023.0,1024.0,1022.0,1023.0,1023.0,1023.0,1023.0,1024.0,1024.0,1023.0,1023.0,1022.0,1022.0,1023.0,1023.0,1023.0,1023.0,1023.0,1024.0,1024.0,1023.0,1023.0,1022.0,1022.0,1023.0,1024.0,1024.0,1024.0,1024.0,1024.0,1024.0,1024.0,1023.0,1023.0,1023.0,1023.0,1023.0,1024.0,1024.0,1024.0,1023.0,1023.0,1022.0,1023.0,1024.0,1023.0,1023.0,1023.0,1025.0,1023.0,1023.0,1022.0,1023.0,1023.0,1023.0,1024.0,1022.0,1023.0,1023.0,1023.0,1023.0,1021.0,1022.0,1023.0,1024.0,1023.0,1024.0,1024.0,1023.0,1024.0,1023.0,1023.0,1023.0,1023.0,1023.0,1024.0,1023.0,1023.0,1024.0,1024.0,1024.0,1025.0,1026.0,1024.0,1024.0,1023.0,1024.0,1024.0,1024.0,1025.0,1024.0,1024.0,1023.0,1024.0,1024.0,1025.0,1027.0,1025.0,1024.0,1025.0,1025.0,1028.0,1029.0,1025.0,1024.0,1027.0,1027.0,1030.0,1032.0,1026.0,1026.0,1033.0,1033.0,1036.0,1038.0,1029.0,1029.0,1039.0,1041.0,1038.0,1047.0,1030.0,1033.0,1043.0,1040.0,1035.0,1046.0,1032.0,1042.0,1050.0,1043.0,1037.0,1051.0,1037.0,1041.0,1049.0,1044.0,1035.0,1051.0,1037.0,1035.0,1042.0,1039.0,1032.0,1047.0,1036.0,1036.0,1041.0,1039.0,1032.0,1046.0,1036.0,1023.0,1023.0,1023.0,1023.0,1025.0,1022.0,1034.0,1040.0,1037.0,1032.0,1045.0,1036.0,1029.0,1032.0,1031.0,1029.0,1041.0,1031.0,1024.0,1025.0,1025.0,1024.0,1028.0,2070,1971,1909,	00:28:48.711,0.04931640625,0.0625,1.017578125,-0.3662109375,0.30517578125,0.1220703125,3.4991455078125,-2.7850341796875,40.45166015625,437.0,-1585.0,-2560.0,0.9373779296875,0.037017822265625,-0.012237548828125,0.346160888671875,3.4977466721824473,-2.785459249067473,35.95150402683236,0.9502343497873151,0.03651805268495854,-0.013692365190854408,0.309085152422204,1,	00:28:48.713,0.03076171875,-0.0078125,1.0087890625,-1.03759765625,-1.15966796875,-0.42724609375,-0.50537109375,-1.8182373046875,-145.645751953125,-439.0,-1124.0,-2004.0,0.29522705078125,-0.016448974609375,-0.00048828125,-0.955291748046875,-0.5044209428960783,-1.8163211609871648,-145.11601679007023,0.299632950494252,-0.016440082688522414,-0.0005517861315932702,-0.9539127392960892,1
1782117235.943737,0.288,1023.0,1023.0,1023.0,1023.0,1023.0,1023.0,1023.0,1023.0,1023.0,1023.0,1023.0,1024.0,1024.0,1024.0,1024.0,1023.0,1023.0,1024.0,1023.0,1024.0,1024.0,1024.0,1023.0,1023.0,1023.0,1023.0,1024.0,1023.0,1024.0,1024.0,1023.0,1023.0,1023.0,1022.0,1023.0,1023.0,1023.0,1024.0,1024.0,1023.0,1022.0,1022.0,1023.0,1023.0,1024.0,1023.0,1025.0,1024.0,1023.0,1024.0,1022.0,1023.0,1023.0,1024.0,1023.0,1023.0,1024.0,1024.0,1023.0,1023.0,1023.0,1023.0,1022.0,1023.0,1023.0,1023.0,1024.0,1024.0,1023.0,1022.0,1022.0,1023.0,1023.0,1024.0,1023.0,1024.0,1023.0,1023.0,1022.0,1022.0,1022.0,1022.0,1023.0,1024.0,1023.0,1024.0,1024.0,1024.0,1024.0,1023.0,1022.0,1023.0,1023.0,1024.0,1023.0,1024.0,1025.0,1024.0,1023.0,1023.0,1023.0,1023.0,1022.0,1023.0,1023.0,1024.0,1024.0,1023.0,1023.0,1022.0,1022.0,1023.0,1022.0,1023.0,1023.0,1023.0,1024.0,1023.0,1023.0,1021.0,1022.0,1023.0,1024.0,1024.0,1024.0,1024.0,1024.0,1023.0,1023.0,1023.0,1023.0,1023.0,1024.0,1024.0,1024.0,1023.0,1023.0,1024.0,1024.0,1025.0,1026.0,1024.0,1024.0,1024.0,1024.0,1024.0,1025.0,1025.0,1024.0,1024.0,1024.0,1024.0,1024.0,1025.0,1027.0,1025.0,1024.0,1025.0,1025.0,1027.0,1029.0,1025.0,1024.0,1027.0,1028.0,1030.0,1031.0,1026.0,1027.0,1033.0,1033.0,1035.0,1037.0,1029.0,1030.0,1039.0,1042.0,1038.0,1047.0,1031.0,1034.0,1043.0,1040.0,1035.0,1046.0,1033.0,1042.0,1050.0,1044.0,1036.0,1050.0,1037.0,1041.0,1048.0,1044.0,1035.0,1050.0,1037.0,1035.0,1042.0,1039.0,1032.0,1047.0,1037.0,1036.0,1041.0,1039.0,1033.0,1045.0,1036.0,1023.0,1024.0,1024.0,1023.0,1024.0,1022.0,1034.0,1040.0,1036.0,1032.0,1044.0,1036.0,1029.0,1033.0,1032.0,1030.0,1041.0,1031.0,1025.0,1026.0,1025.0,1024.0,1029.0,2069,1971,1909,	00:28:48.722,0.05029296875,0.06201171875,1.01708984375,-0.244140625,0.18310546875,0.06103515625,3.4771728515625,-2.8729248046875,40.45166015625,436.0,-1586.0,-2561.0,0.937347412109375,0.037109375,-0.013031005859375,0.34619140625,3.4757482086030187,-2.8731864553821502,35.953191306182184,0.9502116589916152,0.03657138440620248,-0.01447897744577093,0.3091127564031298,1,	00:28:48.723,0.03076171875,-0.00830078125,1.0087890625,-1.15966796875,-1.220703125,-0.48828125,-0.4779052734375,-1.746826171875,-145.6512451171875,-439.0,-1124.0,-2007.0,0.295166015625,-0.015777587890625,-0.000518798828125,-0.955322265625,-0.4767082930057424,-1.7457236955959132,-145.12201854375516,0.2995922701350848,-0.015779986389061383,-0.0005969747639995002,-0.9539366369555152,1
1782117235.952251,0.297,1023.0,1023.0,1023.0,1023.0,1022.0,1023.0,1023.0,1024.0,1023.0,1023.0,1023.0,1024.0,1023.0,1024.0,1024.0,1023.0,1023.0,1023.0,1024.0,1023.0,1024.0,1024.0,1023.0,1023.0,1022.0,1023.0,1024.0,1023.0,1024.0,1023.0,1022.0,1022.0,1022.0,1022.0,1024.0,1024.0,1023.0,1024.0,1024.0,1023.0,1022.0,1022.0,1023.0,1023.0,1024.0,1024.0,1024.0,1024.0,1023.0,1023.0,1023.0,1023.0,1022.0,1023.0,1024.0,1024.0,1024.0,1024.0,1023.0,1023.0,1023.0,1023.0,1023.0,1023.0,1023.0,1023.0,1024.0,1023.0,1023.0,1022.0,1022.0,1023.0,1023.0,1023.0,1024.0,1023.0,1024.0,1023.0,1023.0,1023.0,1022.0,1024.0,1023.0,1024.0,1023.0,1024.0,1024.0,1024.0,1023.0,1023.0,1023.0,1023.0,1022.0,1023.0,1023.0,1024.0,1025.0,1024.0,1023.0,1023.0,1022.0,1024.0,1023.0,1023.0,1023.0,1024.0,1024.0,1024.0,1023.0,1022.0,1022.0,1024.0,1023.0,1023.0,1023.0,1023.0,1023.0,1023.0,1023.0,1021.0,1022.0,1023.0,1024.0,1024.0,1024.0,1024.0,1023.0,1023.0,1023.0,1023.0,1024.0,1023.0,1024.0,1024.0,1024.0,1023.0,1022.0,1024.0,1024.0,1025.0,1025.0,1024.0,1024.0,1023.0,1024.0,1024.0,1024.0,1026.0,1024.0,1024.0,1024.0,1024.0,1024.0,1026.0,1027.0,1025.0,1024.0,1025.0,1025.0,1027.0,1030.0,1025.0,1024.0,1027.0,1028.0,1029.0,1031.0,1026.0,1027.0,1032.0,1033.0,1035.0,1038.0,1028.0,1030.0,1038.0,1042.0,1039.0,1047.0,1031.0,1034.0,1042.0,1041.0,1035.0,1046.0,1033.0,1043.0,1050.0,1043.0,1037.0,1051.0,1037.0,1042.0,1047.0,1044.0,1034.0,1050.0,1037.0,1036.0,1041.0,1039.0,1032.0,1047.0,1036.0,1036.0,1041.0,1039.0,1032.0,1045.0,1035.0,1023.0,1023.0,1023.0,1023.0,1025.0,1022.0,1034.0,1041.0,1037.0,1032.0,1044.0,1036.0,1029.0,1032.0,1032.0,1030.0,1041.0,1032.0,1025.0,1025.0,1025.0,1025.0,1029.0,2069,1971,1908,	00:28:48.732,0.04931640625,0.060546875,1.017578125,-0.244140625,0.1220703125,0.1220703125,3.4222412109375,-2.7960205078125,40.4571533203125,436.0,-1585.0,-2563.0,0.9373779296875,0.03643798828125,-0.0125732421875,0.34619140625,3.421680690475319,-2.7965083904344237,35.957033869961414,0.9502403441274079,0.03591762172737794,-0.013987468792158772,0.30912386442793877,1,	00:28:48.733,0.03076171875,-0.0078125,1.0087890625,-1.220703125,-1.28173828125,-0.48828125,-0.3955078125,-1.7633056640625,-145.65673828125,-439.0,-1126.0,-2003.0,0.295135498046875,-0.015716552734375,-0.001220703125,-0.955322265625,-0.3970847591049205,-1.7609207297787197,-145.1296004339105,0.2995389987987462,-0.01569840377105036,-0.0012985218053241307,-0.9539540146981965,1
1782117235.964122,0.309,1023.0,1023.0,1023.0,1023.0,1023.0,1023.0,1023.0,1024.0,1023.0,1022.0,1023.0,1024.0,1023.0,1025.0,1024.0,1024.0,1023.0,1024.0,1024.0,1023.0,1024.0,1024.0,1023.0,1023.0,1023.0,1023.0,1023.0,1023.0,1024.0,1024.0,1023.0,1022.0,1022.0,1023.0,1023.0,1023.0,1023.0,1024.0,1023.0,1023.0,1022.0,1022.0,1023.0,1023.0,1024.0,1024.0,1024.0,1024.0,1023.0,1024.0,1022.0,1024.0,1024.0,1023.0,1024.0,1023.0,1024.0,1024.0,1023.0,1023.0,1022.0,1024.0,1023.0,1023.0,1023.0,1024.0,1024.0,1024.0,1023.0,1022.0,1022.0,1023.0,1022.0,1023.0,1024.0,1023.0,1024.0,1024.0,1023.0,1022.0,1022.0,1024.0,1023.0,1023.0,1024.0,1024.0,1024.0,1024.0,1023.0,1024.0,1023.0,1023.0,1023.0,1023.0,1023.0,1024.0,1025.0,1024.0,1024.0,1023.0,1023.0,1023.0,1022.0,1024.0,1023.0,1024.0,1024.0,1023.0,1023.0,1022.0,1023.0,1023.0,1023.0,1023.0,1023.0,1023.0,1024.0,1023.0,1023.0,1021.0,1022.0,1023.0,1023.0,1024.0,1024.0,1024.0,1023.0,1023.0,1023.0,1023.0,1024.0,1023.0,1024.0,1025.0,1024.0,1023.0,1024.0,1024.0,1024.0,1025.0,1025.0,1024.0,1024.0,1024.0,1024.0,1024.0,1024.0,1026.0,1024.0,1024.0,1023.0,1025.0,1025.0,1026.0,1028.0,1025.0,1023.0,1025.0,1026.0,1028.0,1029.0,1026.0,1024.0,1026.0,1028.0,1030.0,1032.0,1026.0,1027.0,1032.0,1034.0,1036.0,1038.0,1028.0,1029.0,1038.0,1042.0,1038.0,1047.0,1031.0,1034.0,1043.0,1041.0,1035.0,1046.0,1033.0,1043.0,1049.0,1044.0,1037.0,1051.0,1037.0,1042.0,1049.0,1044.0,1035.0,1050.0,1037.0,1036.0,1042.0,1039.0,1032.0,1047.0,1036.0,1036.0,1041.0,1039.0,1032.0,1045.0,1036.0,1023.0,1023.0,1023.0,1023.0,1024.0,1022.0,1034.0,1040.0,1037.0,1032.0,1043.0,1036.0,1029.0,1032.0,1032.0,1030.0,1040.0,1032.0,1024.0,1026.0,1026.0,1024.0,1028.0,2068,1971,1909,	00:28:48.742,0.04931640625,0.0625,1.017578125,-0.1220703125,0.1220703125,0.1220703125,3.5101318359375,-2.7685546875,40.45166015625,436.0,-1585.0,-2561.0,0.937347412109375,0.037078857421875,-0.0120849609375,0.346160888671875,3.508426282919713,-2.769740544950047,35.95405213195964,0.9502285254898661,0.03656470855476989,-0.013532338407210659,0.3091045895015021,1,	00:28:48.744,0.02978515625,-0.0078125,1.00732421875,-1.28173828125,-1.40380859375,-0.48828125,-0.46142578125,-1.6973876953125,-145.6622314453125,-438.0,-1124.0,-2004.0,0.29510498046875,-0.015350341796875,-0.000518798828125,-0.955352783203125,-0.4624441264136419,-1.6999805681219577,-145.13280384527854,0.2995077814816013,-0.015361966721309323,-0.0005946332155107089,-0.9539699917826355,1
1782117235.974823,0.319,1022.0,1023.0,1023.0,1023.0,1023.0,1024.0,1023.0,1024.0,1023.0,1024.0,1023.0,1024.0,1024.0,1024.0,1024.0,1024.0,1023.0,1023.0,1023.0,1024.0,1024.0,1024.0,1023.0,1023.0,1023.0,1023.0,1023.0,1023.0,1024.0,1023.0,1023.0,1023.0,1022.0,1023.0,1023.0,1023.0,1023.0,1024.0,1023.0,1022.0,1022.0,1022.0,1023.0,1023.0,1024.0,1023.0,1024.0,1024.0,1023.0,1024.0,1023.0,1023.0,1023.0,1023.0,1023.0,1023.0,1025.0,1024.0,1023.0,1023.0,1023.0,1023.0,1023.0,1023.0,1023.0,1023.0,1024.0,1024.0,1023.0,1022.0,1023.0,1024.0,1023.0,1023.0,1023.0,1023.0,1024.0,1024.0,1023.0,1023.0,1022.0,1024.0,1023.0,1023.0,1024.0,1024.0,1024.0,1024.0,1024.0,1024.0,1023.0,1023.0,1023.0,1024.0,1024.0,1024.0,1024.0,1023.0,1023.0,1023.0,1023.0,1023.0,1023.0,1023.0,1023.0,1023.0,1024.0,1024.0,1023.0,1022.0,1022.0,1023.0,1023.0,1023.0,1023.0,1023.0,1024.0,1023.0,1023.0,1021.0,1022.0,1023.0,1023.0,1024.0,1024.0,1024.0,1024.0,1023.0,1023.0,1023.0,1024.0,1024.0,1023.0,1024.0,1023.0,1023.0,1024.0,1024.0,1024.0,1025.0,1026.0,1024.0,1024.0,1024.0,1023.0,1024.0,1024.0,1025.0,1024.0,1024.0,1023.0,1025.0,1024.0,1026.0,1027.0,1025.0,1024.0,1025.0,1026.0,1027.0,1029.0,1026.0,1025.0,1027.0,1028.0,1030.0,1031.0,1026.0,1027.0,1032.0,1033.0,1035.0,1038.0,1028.0,1030.0,1038.0,1042.0,1038.0,1047.0,1031.0,1033.0,1043.0,1041.0,1034.0,1045.0,1033.0,1043.0,1049.0,1044.0,1037.0,1050.0,1038.0,1042.0,1048.0,1046.0,1035.0,1050.0,1038.0,1037.0,1041.0,1040.0,1032.0,1046.0,1036.0,1036.0,1041.0,1040.0,1032.0,1045.0,1036.0,1023.0,1023.0,1023.0,1023.0,1024.0,1022.0,1034.0,1040.0,1037.0,1032.0,1044.0,1036.0,1030.0,1033.0,1032.0,1030.0,1040.0,1032.0,1025.0,1026.0,1026.0,1025.0,1028.0,2068,1971,1909,	00:28:48.753,0.04931640625,0.06201171875,1.01806640625,-0.1220703125,0.06103515625,0.06103515625,3.416748046875,-2.7630615234375,40.4571533203125,436.0,-1583.0,-2563.0,0.9373779296875,0.036285400390625,-0.012298583984375,0.34619140625,3.415791374696038,-2.7629382528477766,35.95910981515146,0.9502460386202174,0.03577887837133814,-0.013724197657227375,0.30913424971642794,1,	00:28:48.754,0.03125,-0.0078125,1.0068359375,-1.28173828125,-1.46484375,-0.48828125,-0.4559326171875,-1.8017578125,-145.667724609375,-436.0,-1125.0,-2009.0,0.2950439453125,-0.016204833984375,-0.0008544921875,-0.955352783203125,-0.45458497422480265,-1.8039776413865996,-145.13818657904818,0.29945643224965823,-0.01620720184939461,-0.0009312185736771972,-0.9539718573545484,1
1782117235.985069,0.329,1023.0,1023.0,1023.0,1023.0,1023.0,1024.0,1023.0,1024.0,1023.0,1022.0,1023.0,1024.0,1024.0,1024.0,1024.0,1024.0,1023.0,1023.0,1023.0,1024.0,1024.0,1024.0,1023.0,1023.0,1023.0,1023.0,1023.0,1024.0,1024.0,1023.0,1023.0,1022.0,1022.0,1023.0,1024.0,1023.0,1023.0,1024.0,1023.0,1023.0,1023.0,1022.0,1023.0,1024.0,1023.0,1024.0,1024.0,1024.0,1023.0,1024.0,1023.0,1023.0,1023.0,1023.0,1024.0,1023.0,1024.0,1024.0,1023.0,1023.0,1022.0,1023.0,1023.0,1023.0,1024.0,1024.0,1024.0,1023.0,1023.0,1022.0,1022.0,1023.0,1023.0,1023.0,1023.0,1024.0,1024.0,1023.0,1023.0,1022.0,1022.0,1023.0,1022.0,1024.0,1023.0,1024.0,1025.0,1024.0,1024.0,1024.0,1023.0,1023.0,1023.0,1023.0,1024.0,1024.0,1025.0,1024.0,1023.0,1023.0,1022.0,1024.0,1023.0,1023.0,1024.0,1024.0,1024.0,1024.0,1023.0,1022.0,1022.0,1023.0,1023.0,1023.0,1023.0,1023.0,1024.0,1023.0,1022.0,1020.0,1022.0,1023.0,1023.0,1024.0,1024.0,1025.0,1023.0,1023.0,1023.0,1023.0,1023.0,1023.0,1024.0,1024.0,1023.0,1023.0,1023.0,1024.0,1024.0,1024.0,1026.0,1024.0,1024.0,1023.0,1024.0,1024.0,1024.0,1025.0,1024.0,1024.0,1024.0,1024.0,1024.0,1025.0,1028.0,1025.0,1024.0,1025.0,1026.0,1027.0,1030.0,1026.0,1024.0,1027.0,1028.0,1030.0,1032.0,1026.0,1027.0,1032.0,1034.0,1035.0,1037.0,1028.0,1030.0,1037.0,1042.0,1038.0,1047.0,1031.0,1034.0,1043.0,1041.0,1034.0,1045.0,1032.0,1044.0,1050.0,1044.0,1037.0,1051.0,1038.0,1042.0,1048.0,1045.0,1034.0,1051.0,1037.0,1036.0,1041.0,1040.0,1032.0,1047.0,1037.0,1037.0,1041.0,1039.0,1032.0,1045.0,1036.0,1023.0,1023.0,1023.0,1022.0,1025.0,1022.0,1035.0,1040.0,1037.0,1032.0,1045.0,1036.0,1029.0,1033.0,1032.0,1029.0,1040.0,1031.0,1025.0,1026.0,1026.0,1024.0,1029.0,2068,1971,1909,	00:28:48.763,0.048828125,0.0625,1.01708984375,-0.1220703125,0.06103515625,0.06103515625,3.504638671875,-2.74658203125,40.4571533203125,437.0,-1586.0,-2560.0,0.9373779296875,0.036956787109375,-0.01190185546875,0.34619140625,3.5045124027320185,-2.7448572913767224,35.95543313363205,0.950233064445786,0.03646559743143127,-0.013336017163847302,0.3091108766836672,1,	00:28:48.764,0.03173828125,-0.00830078125,1.005859375,-1.220703125,-1.40380859375,-0.48828125,-0.5548095703125,-1.834716796875,-145.667724609375,-438.0,-1125.0,-2006.0,0.295013427734375,-0.0167236328125,-9.1552734375e-05,-0.955352783203125,-0.5569374914905965,-1.834090060973673,-145.1400907641544,0.2994235164837685,-0.016725343361924667,-0.00015758406233704712,-0.9539736871807227,1
1782117235.995089,0.340,1023.0,1023.0,1023.0,1023.0,1023.0,1023.0,1023.0,1024.0,1023.0,1023.0,1024.0,1024.0,1024.0,1024.0,1024.0,1023.0,1023.0,1023.0,1024.0,1024.0,1024.0,1023.0,1023.0,1023.0,1023.0,1023.0,1023.0,1024.0,1024.0,1023.0,1023.0,1023.0,1022.0,1023.0,1023.0,1023.0,1023.0,1024.0,1024.0,1023.0,1022.0,1023.0,1023.0,1023.0,1024.0,1024.0,1024.0,1024.0,1023.0,1024.0,1022.0,1023.0,1023.0,1023.0,1024.0,1024.0,1024.0,1024.0,1023.0,1024.0,1022.0,1023.0,1023.0,1023.0,1023.0,1023.0,1024.0,1024.0,1023.0,1022.0,1022.0,1023.0,1023.0,1023.0,1023.0,1023.0,1024.0,1023.0,1023.0,1023.0,1023.0,1023.0,1023.0,1023.0,1024.0,1024.0,1025.0,1024.0,1024.0,1024.0,1023.0,1023.0,1023.0,1023.0,1023.0,1024.0,1024.0,1024.0,1023.0,1023.0,1022.0,1023.0,1023.0,1023.0,1024.0,1024.0,1025.0,1024.0,1023.0,1022.0,1023.0,1023.0,1023.0,1023.0,1023.0,1023.0,1024.0,1023.0,1022.0,1021.0,1022.0,1024.0,1023.0,1024.0,1024.0,1025.0,1024.0,1023.0,1023.0,1023.0,1024.0,1023.0,1024.0,1024.0,1024.0,1023.0,1023.0,1024.0,1024.0,1024.0,1026.0,1024.0,1024.0,1023.0,1024.0,1024.0,1025.0,1026.0,1024.0,1024.0,1023.0,1024.0,1024.0,1026.0,1028.0,1025.0,1024.0,1025.0,1025.0,1028.0,1030.0,1025.0,1025.0,1027.0,1028.0,1030.0,1032.0,1026.0,1026.0,1032.0,1034.0,1036.0,1038.0,1029.0,1030.0,1038.0,1043.0,1038.0,1047.0,1031.0,1034.0,1042.0,1041.0,1034.0,1046.0,1033.0,1043.0,1049.0,1045.0,1036.0,1051.0,1037.0,1042.0,1048.0,1045.0,1035.0,1050.0,1037.0,1036.0,1041.0,1040.0,1032.0,1047.0,1036.0,1036.0,1041.0,1040.0,1032.0,1045.0,1036.0,1023.0,1023.0,1023.0,1023.0,1024.0,1022.0,1035.0,1040.0,1037.0,1032.0,1045.0,1037.0,1030.0,1032.0,1032.0,1030.0,1041.0,1032.0,1025.0,1026.0,1025.0,1025.0,1029.0,2067,1971,1909,	00:28:48.773,0.0498046875,0.0615234375,1.017578125,-0.06103515625,0.06103515625,0.06103515625,3.4442138671875,-2.8125,40.4571533203125,437.0,-1586.0,-2561.0,0.937347412109375,0.03668212890625,-0.01263427734375,0.346221923828125,3.444244203100102,-2.813977044830419,35.95897214747843,0.9502230631270672,0.03615187600136205,-0.014070914400107524,0.3091458903672192,1,	00:28:48.774,0.03125,-0.0078125,1.0048828125,-1.15966796875,-1.46484375,-0.48828125,-0.4833984375,-1.8072509765625,-145.6787109375,-439.0,-1123.0,-2008.0,0.294952392578125,-0.016326904296875,-0.0006103515625,-0.95538330078125,-0.4855511463600959,-1.8094659818815775,-145.1474691999788,0.29937434330482654,-0.016333867652101885,-0.000686451086968559,-0.9539956688178584,1
1782117236.005127,0.350,1023.0,1023.0,1023.0,1023.0,1023.0,1023.0,1022.0,1024.0,1023.0,1023.0,1023.0,1024.0,1024.0,1024.0,1024.0,1023.0,1023.0,1023.0,1023.0,1024.0,1024.0,1023.0,1023.0,1023.0,1023.0,1023.0,1023.0,1024.0,1024.0,1023.0,1023.0,1022.0,1022.0,1022.0,1023.0,1023.0,1023.0,1024.0,1024.0,1023.0,1022.0,1022.0,1023.0,1024.0,1024.0,1023.0,1024.0,1024.0,1023.0,1023.0,1023.0,1023.0,1023.0,1023.0,1024.0,1024.0,1024.0,1024.0,1023.0,1023.0,1022.0,1023.0,1023.0,1023.0,1023.0,1023.0,1024.0,1023.0,1023.0,1023.0,1022.0,1023.0,1023.0,1023.0,1023.0,1024.0,1024.0,1024.0,1023.0,1022.0,1023.0,1023.0,1023.0,1024.0,1024.0,1024.0,1025.0,1024.0,1024.0,1023.0,1023.0,1023.0,1022.0,1024.0,1024.0,1024.0,1024.0,1024.0,1023.0,1023.0,1023.0,1023.0,1023.0,1024.0,1023.0,1023.0,1025.0,1023.0,1023.0,1022.0,1023.0,1023.0,1023.0,1023.0,1022.0,1023.0,1023.0,1023.0,1022.0,1021.0,1022.0,1023.0,1023.0,1024.0,1024.0,1024.0,1024.0,1023.0,1023.0,1023.0,1023.0,1024.0,1023.0,1025.0,1023.0,1023.0,1024.0,1024.0,1024.0,1024.0,1026.0,1024.0,1024.0,1024.0,1024.0,1024.0,1024.0,1026.0,1024.0,1024.0,1024.0,1024.0,1025.0,1025.0,1028.0,1025.0,1024.0,1025.0,1026.0,1028.0,1030.0,1026.0,1025.0,1026.0,1028.0,1030.0,1031.0,1026.0,1027.0,1033.0,1033.0,1036.0,1038.0,1029.0,1030.0,1038.0,1042.0,1038.0,1047.0,1030.0,1034.0,1043.0,1041.0,1034.0,1045.0,1033.0,1044.0,1049.0,1044.0,1037.0,1051.0,1037.0,1042.0,1048.0,1046.0,1034.0,1050.0,1037.0,1036.0,1041.0,1040.0,1032.0,1047.0,1036.0,1036.0,1041.0,1040.0,1032.0,1045.0,1036.0,1023.0,1023.0,1023.0,1023.0,1024.0,1022.0,1035.0,1040.0,1038.0,1032.0,1045.0,1036.0,1029.0,1033.0,1032.0,1030.0,1041.0,1032.0,1025.0,1026.0,1025.0,1024.0,1029.0,2067,1971,1909,	00:28:48.784,0.04931640625,0.06298828125,1.01806640625,-0.06103515625,0.0,0.06103515625,3.526611328125,-2.7740478515625,40.4571533203125,437.0,-1582.0,-2559.0,0.937347412109375,0.0372314453125,-0.0120849609375,0.34619140625,3.526352060756228,-2.7744740040000906,35.955547996813294,0.95021741674816,0.036726240583150264,-0.01352277501145785,0.3091200069828409,1,	00:28:48.785,0.03125,-0.00927734375,1.0068359375,-1.0986328125,-1.46484375,-0.48828125,-0.5712890625,-1.768798828125,-145.6787109375,-439.0,-1124.0,-2005.0,0.294921875,-0.016204833984375,0.00018310546875,-0.95538330078125,-0.5697516211193039,-1.7691488036381477,-145.14994318533275,0.2993449780053699,-0.01621820479617398,0.0001202619706817394,-0.9540070961545372,1
1782117236.015304,0.360,1023.0,1023.0,1023.0,1023.0,1022.0,1024.0,1023.0,1024.0,1023.0,1023.0,1024.0,1024.0,1024.0,1024.0,1024.0,1024.0,1022.0,1024.0,1023.0,1024.0,1024.0,1024.0,1024.0,1023.0,1022.0,1023.0,1023.0,1024.0,1024.0,1023.0,1023.0,1023.0,1022.0,1022.0,1022.0,1023.0,1023.0,1024.0,1023.0,1023.0,1022.0,1022.0,1023.0,1023.0,1024.0,1023.0,1024.0,1024.0,1023.0,1023.0,1023.0,1023.0,1023.0,1024.0,1024.0,1023.0,1024.0,1024.0,1024.0,1024.0,1022.0,1023.0,1023.0,1024.0,1023.0,1024.0,1024.0,1023.0,1023.0,1022.0,1022.0,1023.0,1023.0,1024.0,1023.0,1024.0,1024.0,1023.0,1023.0,1022.0,1023.0,1024.0,1023.0,1023.0,1024.0,1024.0,1024.0,1024.0,1023.0,1023.0,1023.0,1023.0,1023.0,1023.0,1024.0,1024.0,1024.0,1024.0,1023.0,1023.0,1023.0,1023.0,1023.0,1023.0,1023.0,1024.0,1024.0,1023.0,1024.0,1022.0,1023.0,1023.0,1023.0,1023.0,1023.0,1023.0,1024.0,1023.0,1022.0,1021.0,1022.0,1023.0,1023.0,1023.0,1024.0,1024.0,1023.0,1024.0,1023.0,1023.0,1023.0,1024.0,1024.0,1024.0,1023.0,1023.0,1023.0,1024.0,1024.0,1025.0,1025.0,1024.0,1024.0,1023.0,1024.0,1024.0,1024.0,1026.0,1024.0,1024.0,1023.0,1024.0,1024.0,1025.0,1028.0,1025.0,1024.0,1025.0,1026.0,1028.0,1030.0,1026.0,1024.0,1027.0,1028.0,1030.0,1032.0,1027.0,1027.0,1032.0,1034.0,1036.0,1037.0,1029.0,1030.0,1038.0,1042.0,1038.0,1047.0,1031.0,1034.0,1042.0,1041.0,1034.0,1045.0,1033.0,1043.0,1049.0,1045.0,1036.0,1050.0,1038.0,1042.0,1048.0,1047.0,1034.0,1049.0,1037.0,1036.0,1041.0,1040.0,1033.0,1046.0,1036.0,1036.0,1041.0,1040.0,1033.0,1045.0,1036.0,1023.0,1023.0,1023.0,1023.0,1024.0,1022.0,1034.0,1040.0,1038.0,1032.0,1045.0,1036.0,1030.0,1032.0,1033.0,1030.0,1041.0,1031.0,1025.0,1026.0,1026.0,1024.0,1028.0,2067,1971,1909,	00:28:48.794,0.0498046875,0.0625,1.017578125,0.0,0.0,0.1220703125,3.482666015625,-2.8564453125,40.4571533203125,437.0,-1584.0,-2562.0,0.93731689453125,0.037139892578125,-0.01287841796875,0.346221923828125,3.483909780307237,-2.8558511600969516,35.95884946098031,0.9501988016183355,0.03659322455477573,-0.014311336595446426,0.3091574986388242,1,	00:28:48.795,0.03125,-0.00830078125,1.0068359375,-1.220703125,-1.40380859375,-0.48828125,-0.4888916015625,-1.790771484375,-145.689697265625,-439.0,-1127.0,-2007.0,0.294891357421875,-0.016204833984375,-0.000518798828125,-0.95538330078125,-0.49044766861863764,-1.7912589356544066,-145.15752440545177,0.2992913285930801,-0.01619514162206949,-0.0005966786375481955,-0.9540241411994947,1
1782117236.025374,0.370,1022.0,1023.0,1023.0,1022.0,1023.0,1023.0,1022.0,1024.0,1023.0,1024.0,1023.0,1024.0,1024.0,1024.0,1024.0,1023.0,1023.0,1024.0,1024.0,1024.0,1025.0,1024.0,1023.0,1023.0,1023.0,1023.0,1023.0,1023.0,1024.0,1024.0,1023.0,1023.0,1022.0,1023.0,1023.0,1023.0,1024.0,1024.0,1023.0,1023.0,1022.0,1022.0,1023.0,1024.0,1024.0,1024.0,1024.0,1024.0,1024.0,1023.0,1022.0,1024.0,1023.0,1023.0,1023.0,1024.0,1024.0,1024.0,1024.0,1022.0,1022.0,1023.0,1023.0,1023.0,1023.0,1024.0,1024.0,1024.0,1023.0,1021.0,1022.0,1023.0,1023.0,1023.0,1023.0,1023.0,1024.0,1024.0,1023.0,1023.0,1022.0,1024.0,1023.0,1023.0,1024.0,1024.0,1025.0,1024.0,1024.0,1024.0,1023.0,1023.0,1023.0,1024.0,1023.0,1024.0,1024.0,1024.0,1024.0,1023.0,1022.0,1023.0,1023.0,1023.0,1024.0,1024.0,1024.0,1024.0,1023.0,1022.0,1022.0,1024.0,1023.0,1023.0,1023.0,1023.0,1024.0,1024.0,1023.0,1021.0,1022.0,1023.0,1024.0,1024.0,1024.0,1024.0,1024.0,1024.0,1023.0,1023.0,1024.0,1024.0,1024.0,1024.0,1023.0,1024.0,1023.0,1024.0,1024.0,1025.0,1026.0,1024.0,1024.0,1023.0,1024.0,1024.0,1024.0,1026.0,1024.0,1024.0,1024.0,1025.0,1025.0,1026.0,1027.0,1025.0,1024.0,1025.0,1026.0,1027.0,1030.0,1026.0,1025.0,1027.0,1028.0,1030.0,1031.0,1027.0,1027.0,1032.0,1034.0,1036.0,1038.0,1029.0,1030.0,1038.0,1043.0,1039.0,1047.0,1031.0,1034.0,1042.0,1041.0,1035.0,1045.0,1033.0,1043.0,1049.0,1045.0,1037.0,1050.0,1037.0,1042.0,1048.0,1046.0,1035.0,1050.0,1037.0,1036.0,1041.0,1040.0,1032.0,1046.0,1036.0,1036.0,1041.0,1040.0,1032.0,1045.0,1036.0,1023.0,1023.0,1023.0,1023.0,1024.0,1021.0,1034.0,1040.0,1038.0,1033.0,1045.0,1036.0,1030.0,1032.0,1032.0,1030.0,1041.0,1031.0,1025.0,1026.0,1026.0,1025.0,1029.0,2067,1971,1909,	00:28:48.804,0.04931640625,0.0625,1.0185546875,0.0,0.0,0.1220703125,3.5101318359375,-2.7685546875,40.4571533203125,436.0,-1585.0,-2559.0,0.937347412109375,0.037078857421875,-0.012054443359375,0.346221923828125,3.5108337740700484,-2.7683435692830947,35.9587455145431,0.9502154914054404,0.036581474581113306,-0.0135127563362419,0.30914352819812685,1,	00:28:48.805,0.03125,-0.0087890625,1.0078125,-1.0986328125,-1.46484375,-0.48828125,-0.54931640625,-1.724853515625,-145.689697265625,-439.0,-1122.0,-2005.0,0.29486083984375,-0.01580810546875,0.0001220703125,-0.955413818359375,-0.5486090581564317,-1.727446914360473,-145.16083717861412,0.2992605925272201,-0.01581580417880062,5.473706943525066e-05,-0.9540403320102815,1
1782117236.035761,0.380,1023.0,1023.0,1023.0,1023.0,1023.0,1024.0,1023.0,1024.0,1023.0,1024.0,1024.0,1024.0,1024.0,1024.0,1024.0,1023.0,1023.0,1023.0,1023.0,1023.0,1025.0,1024.0,1023.0,1023.0,1023.0,1024.0,1023.0,1023.0,1024.0,1024.0,1023.0,1023.0,1022.0,1023.0,1024.0,1023.0,1023.0,1024.0,1023.0,1022.0,1022.0,1023.0,1023.0,1023.0,1024.0,1024.0,1024.0,1024.0,1023.0,1024.0,1023.0,1023.0,1023.0,1023.0,1024.0,1024.0,1024.0,1024.0,1023.0,1023.0,1022.0,1023.0,1023.0,1023.0,1023.0,1024.0,1024.0,1024.0,1023.0,1022.0,1022.0,1022.0,1023.0,1023.0,1024.0,1024.0,1024.0,1024.0,1023.0,1023.0,1023.0,1023.0,1022.0,1024.0,1024.0,1024.0,1024.0,1024.0,1024.0,1024.0,1023.0,1023.0,1023.0,1023.0,1023.0,1024.0,1024.0,1024.0,1023.0,1023.0,1023.0,1023.0,1023.0,1024.0,1024.0,1024.0,1024.0,1024.0,1023.0,1022.0,1022.0,1023.0,1022.0,1023.0,1023.0,1023.0,1024.0,1023.0,1022.0,1021.0,1022.0,1023.0,1023.0,1024.0,1024.0,1024.0,1023.0,1023.0,1023.0,1023.0,1024.0,1023.0,1024.0,1024.0,1024.0,1023.0,1023.0,1023.0,1024.0,1024.0,1025.0,1024.0,1024.0,1023.0,1024.0,1024.0,1024.0,1026.0,1024.0,1024.0,1024.0,1024.0,1025.0,1026.0,1027.0,1025.0,1024.0,1025.0,1026.0,1028.0,1030.0,1025.0,1024.0,1027.0,1028.0,1030.0,1031.0,1026.0,1027.0,1032.0,1034.0,1036.0,1037.0,1029.0,1030.0,1038.0,1042.0,1039.0,1047.0,1031.0,1034.0,1042.0,1041.0,1035.0,1045.0,1033.0,1043.0,1050.0,1045.0,1037.0,1050.0,1038.0,1042.0,1048.0,1046.0,1035.0,1050.0,1037.0,1036.0,1042.0,1040.0,1033.0,1046.0,1036.0,1036.0,1041.0,1040.0,1033.0,1046.0,1036.0,1023.0,1023.0,1023.0,1023.0,1024.0,1022.0,1035.0,1040.0,1038.0,1032.0,1045.0,1036.0,1029.0,1032.0,1032.0,1029.0,1041.0,1032.0,1025.0,1026.0,1026.0,1024.0,1029.0,2067,1971,1908,	00:28:48.814,0.0498046875,0.06201171875,1.01806640625,0.06103515625,-0.06103515625,0.1220703125,3.44970703125,-2.83447265625,40.462646484375,436.0,-1586.0,-2560.0,0.937347412109375,0.036773681640625,-0.0128173828125,0.34625244140625,3.4490843147672328,-2.8363432008015934,35.96297362702497,0.9502043522452863,0.0362525734119749,-0.014242145253141013,0.30918376605784714,1,	00:28:48.815,0.0302734375,-0.0078125,1.00830078125,-1.220703125,-1.40380859375,-0.42724609375,-0.4669189453125,-1.73583984375,-145.6951904296875,-438.0,-1125.0,-2010.0,0.2947998046875,-0.01568603515625,-0.00054931640625,-0.9554443359375,-0.46923203466775426,-1.7347480930660597,-145.16773905572492,0.2992134766633617,-0.015669325744779403,-0.0006242538154054211,-0.9540573242320934,1
1782117236.047189,0.392,1023.0,1023.0,1023.0,1023.0,1023.0,1023.0,1023.0,1024.0,1023.0,1023.0,1023.0,1024.0,1023.0,1025.0,1024.0,1024.0,1023.0,1023.0,1023.0,1024.0,1024.0,1024.0,1023.0,1023.0,1022.0,1023.0,1023.0,1023.0,1024.0,1023.0,1023.0,1022.0,1022.0,1022.0,1023.0,1022.0,1024.0,1024.0,1023.0,1023.0,1022.0,1023.0,1023.0,1023.0,1024.0,1024.0,1024.0,1024.0,1024.0,1023.0,1022.0,1024.0,1022.0,1023.0,1023.0,1024.0,1024.0,1024.0,1024.0,1023.0,1022.0,1023.0,1022.0,1023.0,1023.0,1024.0,1024.0,1023.0,1023.0,1022.0,1023.0,1023.0,1022.0,1024.0,1024.0,1023.0,1024.0,1024.0,1022.0,1022.0,1022.0,1023.0,1023.0,1024.0,1024.0,1024.0,1024.0,1024.0,1024.0,1024.0,1023.0,1023.0,1023.0,1023.0,1023.0,1024.0,1024.0,1024.0,1023.0,1023.0,1022.0,1024.0,1022.0,1024.0,1024.0,1024.0,1024.0,1024.0,1022.0,1022.0,1022.0,1023.0,1022.0,1024.0,1022.0,1023.0,1023.0,1023.0,1022.0,1021.0,1022.0,1023.0,1023.0,1024.0,1024.0,1025.0,1024.0,1023.0,1023.0,1023.0,1023.0,1023.0,1024.0,1024.0,1023.0,1023.0,1024.0,1024.0,1024.0,1025.0,1026.0,1024.0,1024.0,1024.0,1024.0,1024.0,1025.0,1026.0,1024.0,1024.0,1024.0,1024.0,1025.0,1025.0,1028.0,1025.0,1024.0,1025.0,1026.0,1028.0,1030.0,1026.0,1025.0,1027.0,1028.0,1031.0,1032.0,1027.0,1027.0,1032.0,1034.0,1036.0,1038.0,1029.0,1030.0,1038.0,1042.0,1039.0,1047.0,1031.0,1034.0,1043.0,1041.0,1035.0,1046.0,1033.0,1044.0,1049.0,1045.0,1038.0,1050.0,1038.0,1042.0,1048.0,1046.0,1035.0,1050.0,1037.0,1037.0,1041.0,1041.0,1032.0,1047.0,1036.0,1036.0,1041.0,1040.0,1033.0,1046.0,1036.0,1023.0,1023.0,1023.0,1023.0,1025.0,1022.0,1034.0,1040.0,1038.0,1032.0,1045.0,1036.0,1029.0,1032.0,1033.0,1029.0,1040.0,1032.0,1025.0,1026.0,1026.0,1024.0,1028.0,2067,1971,1909,	00:28:48.824,0.05029296875,0.06298828125,1.01806640625,0.0,-0.06103515625,0.1220703125,3.53759765625,-2.823486328125,40.4571533203125,437.0,-1585.0,-2559.0,0.93731689453125,0.0374755859375,-0.012420654296875,0.346221923828125,3.5396813026739826,-2.8235338757929362,35.95968097725419,0.9501879672524024,0.036969001612361524,-0.013892494202101086,0.30916519599297904,1,	00:28:48.826,0.03125,-0.0087890625,1.0087890625,-1.28173828125,-1.40380859375,-0.48828125,-0.538330078125,-1.82373046875,-145.70068359375,-439.0,-1124.0,-2009.0,0.294769287109375,-0.016571044921875,-0.000213623046875,-0.955413818359375,-0.5372590608556155,-1.821869047794191,-145.17078140756814,0.29917186037713195,-0.016572265912765515,-0.000285019700890934,-0.9540552797006955,1
1782117236.056253,0.401,1023.0,1023.0,1023.0,1023.0,1023.0,1023.0,1023.0,1023.0,1023.0,1023.0,1023.0,1024.0,1024.0,1024.0,1024.0,1024.0,1023.0,1024.0,1024.0,1024.0,1024.0,1024.0,1023.0,1023.0,1023.0,1023.0,1023.0,1023.0,1024.0,1023.0,1023.0,1022.0,1022.0,1023.0,1023.0,1023.0,1024.0,1024.0,1024.0,1023.0,1022.0,1023.0,1023.0,1024.0,1024.0,1024.0,1024.0,1024.0,1023.0,1024.0,1022.0,1024.0,1023.0,1023.0,1023.0,1024.0,1024.0,1024.0,1023.0,1023.0,1022.0,1023.0,1023.0,1023.0,1023.0,1024.0,1024.0,1024.0,1024.0,1022.0,1022.0,1024.0,1023.0,1022.0,1023.0,1024.0,1024.0,1024.0,1023.0,1023.0,1022.0,1024.0,1023.0,1023.0,1024.0,1024.0,1025.0,1024.0,1024.0,1024.0,1022.0,1023.0,1023.0,1023.0,1023.0,1024.0,1024.0,1024.0,1023.0,1023.0,1023.0,1023.0,1023.0,1024.0,1023.0,1024.0,1024.0,1024.0,1023.0,1023.0,1022.0,1023.0,1022.0,1023.0,1023.0,1023.0,1024.0,1023.0,1023.0,1021.0,1022.0,1023.0,1024.0,1023.0,1023.0,1024.0,1024.0,1023.0,1023.0,1023.0,1023.0,1023.0,1023.0,1024.0,1023.0,1023.0,1023.0,1024.0,1024.0,1025.0,1026.0,1024.0,1024.0,1023.0,1024.0,1024.0,1024.0,1026.0,1024.0,1024.0,1024.0,1025.0,1025.0,1026.0,1028.0,1025.0,1024.0,1025.0,1025.0,1028.0,1029.0,1026.0,1025.0,1027.0,1028.0,1030.0,1032.0,1026.0,1028.0,1033.0,1034.0,1036.0,1038.0,1028.0,1030.0,1038.0,1042.0,1039.0,1048.0,1031.0,1035.0,1043.0,1042.0,1035.0,1046.0,1033.0,1044.0,1050.0,1046.0,1037.0,1050.0,1038.0,1042.0,1048.0,1047.0,1035.0,1050.0,1037.0,1036.0,1041.0,1041.0,1032.0,1047.0,1037.0,1036.0,1041.0,1040.0,1032.0,1045.0,1035.0,1023.0,1023.0,1023.0,1023.0,1025.0,1022.0,1035.0,1041.0,1038.0,1033.0,1044.0,1037.0,1029.0,1032.0,1032.0,1030.0,1040.0,1032.0,1025.0,1026.0,1026.0,1024.0,1028.0,2067,1971,1909,	00:28:48.835,0.05078125,0.0625,1.01806640625,-0.06103515625,0.0,0.1220703125,3.4716796875,-2.889404296875,40.462646484375,438.0,-1585.0,-2559.0,0.93731689453125,0.037139892578125,-0.013153076171875,0.346282958984375,3.4741596425328867,-2.888479925251479,35.9641325035783,0.9501782094252896,0.03660066766926929,-0.014606646524724359,0.3092060920111632,1,	00:28:48.836,0.03125,-0.00927734375,1.00732421875,-1.3427734375,-1.40380859375,-0.48828125,-0.5328369140625,-1.746826171875,-145.7061767578125,-439.0,-1122.0,-2007.0,0.294708251953125,-0.01593017578125,-6.103515625e-05,-0.9554443359375,-0.5314644938746405,-1.7463322974774993,-145.17613741074544,0.29913409288555187,-0.015928272972144778,-0.00013521684000680306,-0.9540781237980824,1
1782117236.069425,0.414,1022.0,1023.0,1023.0,1023.0,1023.0,1023.0,1023.0,1023.0,1023.0,1023.0,1024.0,1024.0,1024.0,1024.0,1024.0,1024.0,1023.0,1023.0,1024.0,1024.0,1024.0,1023.0,1024.0,1023.0,1023.0,1023.0,1023.0,1024.0,1024.0,1024.0,1023.0,1023.0,1023.0,1023.0,1024.0,1023.0,1024.0,1024.0,1023.0,1023.0,1022.0,1023.0,1023.0,1023.0,1024.0,1024.0,1024.0,1024.0,1023.0,1023.0,1023.0,1023.0,1023.0,1024.0,1023.0,1024.0,1024.0,1024.0,1024.0,1023.0,1022.0,1023.0,1023.0,1024.0,1023.0,1024.0,1024.0,1024.0,1023.0,1022.0,1022.0,1023.0,1023.0,1023.0,1023.0,1024.0,1024.0,1024.0,1022.0,1022.0,1022.0,1023.0,1023.0,1023.0,1024.0,1024.0,1025.0,1024.0,1023.0,1023.0,1023.0,1023.0,1023.0,1023.0,1024.0,1024.0,1025.0,1024.0,1023.0,1023.0,1022.0,1024.0,1022.0,1024.0,1023.0,1024.0,1025.0,1024.0,1023.0,1022.0,1022.0,1023.0,1023.0,1023.0,1023.0,1023.0,1024.0,1023.0,1022.0,1021.0,1022.0,1023.0,1024.0,1023.0,1024.0,1024.0,1024.0,1023.0,1022.0,1024.0,1023.0,1024.0,1024.0,1024.0,1023.0,1023.0,1023.0,1024.0,1024.0,1024.0,1026.0,1024.0,1024.0,1023.0,1024.0,1024.0,1024.0,1026.0,1024.0,1024.0,1024.0,1024.0,1025.0,1025.0,1028.0,1025.0,1024.0,1025.0,1025.0,1027.0,1030.0,1026.0,1025.0,1027.0,1028.0,1030.0,1032.0,1027.0,1027.0,1033.0,1033.0,1036.0,1038.0,1029.0,1031.0,1038.0,1042.0,1039.0,1047.0,1031.0,1035.0,1043.0,1041.0,1034.0,1046.0,1033.0,1044.0,1050.0,1045.0,1037.0,1051.0,1038.0,1042.0,1049.0,1046.0,1034.0,1050.0,1037.0,1036.0,1041.0,1040.0,1032.0,1047.0,1037.0,1036.0,1041.0,1040.0,1032.0,1045.0,1036.0,1023.0,1023.0,1023.0,1023.0,1025.0,1022.0,1034.0,1041.0,1038.0,1033.0,1045.0,1037.0,1029.0,1033.0,1032.0,1030.0,1041.0,1032.0,1025.0,1026.0,1025.0,1025.0,1028.0,2067,1971,1909,	00:28:48.845,0.048828125,0.0625,1.0185546875,0.06103515625,0.06103515625,0.1220703125,3.4991455078125,-2.801513671875,40.462646484375,437.0,-1586.0,-2560.0,0.93731689453125,0.03704833984375,-0.012359619140625,0.34625244140625,3.496892301119445,-2.7990421526242057,35.96428931954928,0.9501962688033418,0.036548977586886716,-0.013803280387633902,0.3091936164284459,1,	00:28:48.846,0.03173828125,-0.00830078125,1.00537109375,-1.28173828125,-1.40380859375,-0.42724609375,-0.4833984375,-1.8292236328125,-145.711669921875,-439.0,-1123.0,-2006.0,0.294677734375,-0.0164794921875,-0.000701904296875,-0.9554443359375,-0.48115172929111727,-1.8270141904227546,-145.18223676375206,0.29908416967691714,-0.016468692321182095,-0.0007639451542130433,-0.9540843034080901,1
1782117236.076684,0.421,1023.0,1023.0,1023.0,1023.0,1023.0,1024.0,1023.0,1023.0,1024.0,1023.0,1023.0,1024.0,1024.0,1024.0,1024.0,1024.0,1022.0,1022.0,1023.0,1024.0,1024.0,1024.0,1023.0,1023.0,1023.0,1023.0,1023.0,1024.0,1024.0,1024.0,1023.0,1022.0,1022.0,1023.0,1023.0,1023.0,1023.0,1024.0,1024.0,1023.0,1022.0,1022.0,1022.0,1024.0,1024.0,1024.0,1024.0,1024.0,1024.0,1024.0,1023.0,1024.0,1023.0,1023.0,1023.0,1024.0,1024.0,1024.0,1023.0,1023.0,1022.0,1023.0,1023.0,1024.0,1023.0,1023.0,1024.0,1023.0,1023.0,1022.0,1022.0,1023.0,1023.0,1023.0,1023.0,1023.0,1024.0,1023.0,1023.0,1022.0,1023.0,1023.0,1023.0,1024.0,1024.0,1023.0,1025.0,1024.0,1024.0,1024.0,1023.0,1023.0,1023.0,1024.0,1023.0,1024.0,1024.0,1024.0,1023.0,1023.0,1022.0,1023.0,1024.0,1023.0,1024.0,1024.0,1024.0,1024.0,1023.0,1022.0,1022.0,1023.0,1022.0,1023.0,1023.0,1023.0,1024.0,1023.0,1022.0,1021.0,1022.0,1023.0,1023.0,1023.0,1024.0,1024.0,1024.0,1023.0,1023.0,1023.0,1024.0,1024.0,1024.0,1025.0,1023.0,1023.0,1023.0,1024.0,1024.0,1025.0,1026.0,1024.0,1024.0,1023.0,1024.0,1024.0,1024.0,1026.0,1024.0,1024.0,1024.0,1024.0,1024.0,1026.0,1028.0,1025.0,1024.0,1025.0,1026.0,1027.0,1030.0,1025.0,1025.0,1028.0,1028.0,1030.0,1032.0,1026.0,1027.0,1033.0,1034.0,1036.0,1038.0,1028.0,1030.0,1038.0,1043.0,1039.0,1047.0,1031.0,1035.0,1043.0,1042.0,1036.0,1045.0,1033.0,1044.0,1050.0,1045.0,1037.0,1051.0,1038.0,1042.0,1048.0,1046.0,1035.0,1050.0,1037.0,1036.0,1042.0,1041.0,1033.0,1046.0,1037.0,1036.0,1042.0,1040.0,1033.0,1045.0,1036.0,1023.0,1023.0,1023.0,1023.0,1025.0,1022.0,1034.0,1041.0,1038.0,1034.0,1045.0,1037.0,1029.0,1033.0,1032.0,1030.0,1041.0,1032.0,1026.0,1026.0,1025.0,1025.0,1028.0,2067,1971,1908,	00:28:48.855,0.05029296875,0.0634765625,1.01806640625,0.0,0.0,0.1220703125,3.58154296875,-2.8289794921875,40.462646484375,437.0,-1586.0,-2562.0,0.937286376953125,0.037872314453125,-0.0123291015625,0.34625244140625,3.5836594841511933,-2.828054283137834,35.96124717475153,0.9501681781439825,0.03734599103241971,-0.013810831903051296,0.3091843642852874,1,	00:28:48.856,0.03173828125,-0.0087890625,1.0068359375,-1.15966796875,-1.40380859375,-0.42724609375,-0.5548095703125,-1.7742919921875,-145.711669921875,-438.0,-1126.0,-2008.0,0.294647216796875,-0.016204833984375,6.103515625e-05,-0.955474853515625,-0.5532219046325709,-1.7722993521084152,-145.18449552007274,0.2990593890651989,-0.016201259368572366,-2.0701570890854342e-05,-0.9540969555439673,1
1782117236.086766,0.431,1023.0,1023.0,1023.0,1023.0,1023.0,1023.0,1023.0,1024.0,1023.0,1023.0,1023.0,1024.0,1024.0,1024.0,1024.0,1024.0,1023.0,1023.0,1023.0,1024.0,1024.0,1024.0,1023.0,1023.0,1022.0,1023.0,1023.0,1024.0,1024.0,1023.0,1023.0,1023.0,1023.0,1023.0,1023.0,1023.0,1023.0,1024.0,1023.0,1023.0,1022.0,1023.0,1023.0,1023.0,1023.0,1023.0,1024.0,1024.0,1023.0,1024.0,1022.0,1023.0,1023.0,1023.0,1024.0,1024.0,1024.0,1023.0,1023.0,1023.0,1022.0,1023.0,1022.0,1023.0,1023.0,1024.0,1024.0,1024.0,1023.0,1022.0,1022.0,1023.0,1023.0,1023.0,1023.0,1023.0,1024.0,1024.0,1023.0,1022.0,1022.0,1023.0,1023.0,1024.0,1024.0,1023.0,1025.0,1024.0,1023.0,1023.0,1022.0,1023.0,1023.0,1023.0,1024.0,1024.0,1024.0,1024.0,1023.0,1023.0,1023.0,1024.0,1022.0,1023.0,1024.0,1024.0,1025.0,1024.0,1023.0,1022.0,1022.0,1023.0,1023.0,1022.0,1023.0,1023.0,1024.0,1024.0,1022.0,1021.0,1023.0,1023.0,1024.0,1024.0,1024.0,1024.0,1024.0,1023.0,1023.0,1023.0,1023.0,1024.0,1024.0,1025.0,1024.0,1024.0,1023.0,1024.0,1024.0,1024.0,1026.0,1024.0,1024.0,1024.0,1024.0,1024.0,1024.0,1026.0,1024.0,1024.0,1024.0,1024.0,1025.0,1025.0,1028.0,1025.0,1024.0,1025.0,1025.0,1028.0,1030.0,1026.0,1025.0,1027.0,1028.0,1030.0,1032.0,1027.0,1027.0,1033.0,1034.0,1036.0,1038.0,1029.0,1031.0,1038.0,1042.0,1039.0,1047.0,1031.0,1034.0,1043.0,1041.0,1035.0,1046.0,1033.0,1044.0,1050.0,1046.0,1037.0,1050.0,1037.0,1042.0,1049.0,1047.0,1035.0,1049.0,1037.0,1036.0,1042.0,1041.0,1032.0,1047.0,1036.0,1036.0,1041.0,1040.0,1033.0,1045.0,1037.0,1023.0,1023.0,1023.0,1023.0,1024.0,1022.0,1034.0,1041.0,1037.0,1033.0,1045.0,1037.0,1029.0,1033.0,1032.0,1029.0,1041.0,1032.0,1025.0,1026.0,1026.0,1025.0,1028.0,2067,1971,1908,	00:28:48.865,0.05029296875,0.06298828125,1.01708984375,0.0,0.06103515625,0.06103515625,3.49365234375,-2.823486328125,40.4681396484375,438.0,-1587.0,-2560.0,0.93731689453125,0.037078857421875,-0.012542724609375,0.346282958984375,3.4922307646844195,-2.8215019903814875,35.96639949339622,0.9501856483140677,0.0365709051790311,-0.014001512463519659,0.30921474783893316,1,	00:28:48.867,0.03076171875,-0.00927734375,1.0078125,-1.15966796875,-1.46484375,-0.48828125,-0.4998779296875,-1.724853515625,-145.72265625,-439.0,-1125.0,-2007.0,0.294586181640625,-0.015655517578125,-0.000274658203125,-0.95550537109375,-0.4976363096305041,-1.7244794990235446,-145.191289111837,0.2990142817562999,-0.015658076375221704,-0.00035772627547314673,-0.9541200951567385,1
1782117236.096780,0.441,1023.0,1023.0,1023.0,1022.0,1023.0,1023.0,1023.0,1023.0,1023.0,1024.0,1024.0,1024.0,1024.0,1024.0,1024.0,1023.0,1023.0,1023.0,1023.0,1024.0,1024.0,1024.0,1023.0,1023.0,1023.0,1023.0,1024.0,1024.0,1024.0,1024.0,1023.0,1022.0,1023.0,1023.0,1023.0,1023.0,1023.0,1024.0,1024.0,1023.0,1023.0,1023.0,1022.0,1023.0,1024.0,1024.0,1024.0,1024.0,1023.0,1024.0,1022.0,1024.0,1023.0,1024.0,1023.0,1024.0,1025.0,1024.0,1023.0,1023.0,1023.0,1023.0,1023.0,1024.0,1023.0,1024.0,1024.0,1024.0,1022.0,1022.0,1022.0,1023.0,1022.0,1024.0,1023.0,1023.0,1024.0,1024.0,1023.0,1023.0,1022.0,1023.0,1023.0,1023.0,1024.0,1024.0,1025.0,1024.0,1023.0,1023.0,1023.0,1023.0,1023.0,1024.0,1024.0,1024.0,1025.0,1024.0,1023.0,1023.0,1023.0,1023.0,1023.0,1024.0,1023.0,1024.0,1024.0,1024.0,1023.0,1022.0,1022.0,1023.0,1023.0,1024.0,1023.0,1023.0,1024.0,1023.0,1023.0,1021.0,1022.0,1023.0,1024.0,1024.0,1024.0,1024.0,1024.0,1023.0,1023.0,1023.0,1023.0,1023.0,1023.0,1024.0,1024.0,1023.0,1023.0,1024.0,1024.0,1025.0,1025.0,1024.0,1024.0,1023.0,1024.0,1024.0,1024.0,1026.0,1024.0,1024.0,1024.0,1024.0,1024.0,1026.0,1028.0,1025.0,1024.0,1025.0,1026.0,1028.0,1030.0,1026.0,1024.0,1027.0,1028.0,1030.0,1032.0,1026.0,1028.0,1032.0,1034.0,1037.0,1037.0,1029.0,1031.0,1038.0,1043.0,1039.0,1047.0,1031.0,1034.0,1043.0,1041.0,1034.0,1045.0,1033.0,1043.0,1050.0,1045.0,1038.0,1051.0,1037.0,1043.0,1048.0,1046.0,1035.0,1050.0,1037.0,1036.0,1041.0,1041.0,1032.0,1047.0,1036.0,1036.0,1042.0,1040.0,1033.0,1045.0,1036.0,1023.0,1023.0,1023.0,1024.0,1024.0,1022.0,1034.0,1041.0,1038.0,1033.0,1045.0,1037.0,1030.0,1033.0,1032.0,1030.0,1041.0,1032.0,1025.0,1026.0,1025.0,1025.0,1028.0,2066,1971,1909,	00:28:48.876,0.04931640625,0.06298828125,1.017578125,0.06103515625,0.06103515625,0.1220703125,3.5540771484375,-2.7520751953125,40.462646484375,437.0,-1584.0,-2559.0,0.93731689453125,0.03741455078125,-0.011810302734375,0.34625244140625,3.556168671193778,-2.754673707267346,35.96457354809877,0.950189095499237,0.03692136353234533,-0.013275166935743274,0.3091945433737185,1,	00:28:48.877,0.0322265625,-0.00830078125,1.00830078125,-1.15966796875,-1.52587890625,-0.48828125,-0.4888916015625,-1.8292236328125,-145.7281494140625,-441.0,-1124.0,-2006.0,0.2945556640625,-0.016510009765625,-0.000640869140625,-0.95550537109375,-0.487300410995335,-1.828792217277441,-145.19670637938594,0.2989626728323418,-0.016499633965080272,-0.0007153107222630997,-0.9541218845946944,1
1782117236.107952,0.452,1023.0,1024.0,1023.0,1023.0,1023.0,1024.0,1023.0,1024.0,1023.0,1023.0,1023.0,1024.0,1024.0,1024.0,1024.0,1023.0,1023.0,1023.0,1024.0,1023.0,1024.0,1024.0,1023.0,1023.0,1023.0,1023.0,1023.0,1024.0,1024.0,1024.0,1023.0,1023.0,1023.0,1023.0,1023.0,1023.0,1023.0,1024.0,1023.0,1023.0,1022.0,1022.0,1023.0,1023.0,1023.0,1024.0,1024.0,1024.0,1023.0,1024.0,1022.0,1023.0,1023.0,1023.0,1024.0,1024.0,1024.0,1024.0,1024.0,1023.0,1022.0,1023.0,1023.0,1023.0,1023.0,1024.0,1024.0,1024.0,1023.0,1022.0,1022.0,1023.0,1023.0,1023.0,1024.0,1024.0,1024.0,1024.0,1023.0,1022.0,1022.0,1023.0,1023.0,1023.0,1024.0,1024.0,1024.0,1024.0,1023.0,1024.0,1023.0,1023.0,1022.0,1023.0,1024.0,1024.0,1025.0,1024.0,1024.0,1023.0,1022.0,1023.0,1023.0,1023.0,1023.0,1023.0,1024.0,1024.0,1023.0,1022.0,1023.0,1023.0,1022.0,1023.0,1022.0,1023.0,1024.0,1024.0,1022.0,1021.0,1022.0,1023.0,1024.0,1024.0,1024.0,1024.0,1024.0,1024.0,1023.0,1023.0,1023.0,1023.0,1023.0,1024.0,1024.0,1023.0,1024.0,1024.0,1024.0,1025.0,1026.0,1024.0,1024.0,1024.0,1023.0,1024.0,1024.0,1026.0,1024.0,1024.0,1024.0,1024.0,1025.0,1026.0,1028.0,1025.0,1024.0,1025.0,1026.0,1027.0,1029.0,1026.0,1024.0,1027.0,1028.0,1030.0,1032.0,1026.0,1027.0,1033.0,1034.0,1036.0,1038.0,1029.0,1031.0,1039.0,1042.0,1038.0,1047.0,1031.0,1035.0,1043.0,1041.0,1035.0,1046.0,1033.0,1044.0,1051.0,1045.0,1038.0,1051.0,1038.0,1042.0,1049.0,1046.0,1035.0,1049.0,1037.0,1036.0,1042.0,1040.0,1032.0,1046.0,1036.0,1036.0,1042.0,1040.0,1033.0,1045.0,1036.0,1023.0,1023.0,1023.0,1023.0,1024.0,1022.0,1035.0,1041.0,1037.0,1033.0,1046.0,1037.0,1029.0,1033.0,1032.0,1029.0,1041.0,1032.0,1025.0,1026.0,1026.0,1025.0,1028.0,2066,1971,1908,	00:28:48.886,0.0498046875,0.06298828125,1.01806640625,0.0,0.06103515625,0.06103515625,3.5211181640625,-2.8399658203125,40.4681396484375,436.0,-1588.0,-2561.0,0.937286376953125,0.037384033203125,-0.012603759765625,0.346282958984375,3.523042624433756,-2.839582293165624,35.9668363652207,0.9501693999530598,0.03687500840975917,-0.014068221093808647,0.3092255330707318,1,	00:28:48.887,0.03173828125,-0.00927734375,1.00634765625,-1.15966796875,-1.46484375,-0.48828125,-0.5767822265625,-1.8017578125,-145.7281494140625,-439.0,-1125.0,-2008.0,0.294525146484375,-0.0164794921875,0.000213623046875,-0.95550537109375,-0.5791156714686226,-1.7993167561195738,-145.19892562742962,0.2989333365043615,-0.016493757563200297,0.00012642472068335155,-0.9541314376460963,1
1782117236.117519,0.462,1023.0,1023.0,1023.0,1023.0,1023.0,1023.0,1023.0,1023.0,1023.0,1023.0,1023.0,1024.0,1024.0,1024.0,1024.0,1024.0,1023.0,1024.0,1023.0,1024.0,1024.0,1024.0,1023.0,1023.0,1023.0,1023.0,1023.0,1024.0,1024.0,1024.0,1023.0,1022.0,1023.0,1022.0,1023.0,1023.0,1023.0,1024.0,1023.0,1023.0,1022.0,1023.0,1022.0,1024.0,1024.0,1024.0,1024.0,1024.0,1024.0,1024.0,1023.0,1023.0,1023.0,1024.0,1024.0,1024.0,1024.0,1024.0,1024.0,1023.0,1023.0,1023.0,1023.0,1024.0,1023.0,1024.0,1024.0,1023.0,1023.0,1022.0,1022.0,1024.0,1023.0,1023.0,1024.0,1024.0,1024.0,1023.0,1023.0,1022.0,1022.0,1023.0,1023.0,1024.0,1024.0,1024.0,1024.0,1024.0,1024.0,1024.0,1023.0,1023.0,1023.0,1024.0,1024.0,1024.0,1024.0,1023.0,1024.0,1023.0,1023.0,1023.0,1024.0,1024.0,1023.0,1024.0,1024.0,1024.0,1023.0,1022.0,1023.0,1023.0,1023.0,1023.0,1022.0,1023.0,1024.0,1023.0,1023.0,1021.0,1022.0,1023.0,1023.0,1024.0,1024.0,1024.0,1024.0,1023.0,1023.0,1023.0,1023.0,1023.0,1023.0,1024.0,1023.0,1023.0,1024.0,1024.0,1024.0,1024.0,1026.0,1024.0,1024.0,1023.0,1024.0,1024.0,1024.0,1026.0,1024.0,1024.0,1024.0,1025.0,1025.0,1026.0,1028.0,1025.0,1024.0,1025.0,1026.0,1028.0,1030.0,1026.0,1025.0,1027.0,1028.0,1030.0,1032.0,1027.0,1027.0,1034.0,1034.0,1036.0,1038.0,1029.0,1031.0,1039.0,1042.0,1038.0,1047.0,1031.0,1035.0,1044.0,1041.0,1035.0,1046.0,1033.0,1043.0,1051.0,1044.0,1037.0,1051.0,1038.0,1043.0,1049.0,1046.0,1035.0,1051.0,1037.0,1036.0,1042.0,1040.0,1033.0,1047.0,1037.0,1036.0,1042.0,1040.0,1033.0,1045.0,1036.0,1023.0,1023.0,1023.0,1022.0,1025.0,1021.0,1035.0,1041.0,1037.0,1033.0,1045.0,1037.0,1030.0,1032.0,1032.0,1030.0,1041.0,1033.0,1025.0,1026.0,1025.0,1025.0,1028.0,2066,1971,1909,	00:28:48.896,0.0498046875,0.0634765625,1.017578125,0.06103515625,0.06103515625,0.1220703125,3.592529296875,-2.7740478515625,40.462646484375,438.0,-1586.0,-2559.0,0.937286376953125,0.037750244140625,-0.01190185546875,0.346282958984375,3.590940810627242,-2.7767780616131352,35.96479445635309,0.95017096114582,0.03726908331579912,-0.013364646995917337,0.309204699567622,1,	00:28:48.897,0.03125,-0.0078125,1.0068359375,-1.220703125,-1.52587890625,-0.48828125,-0.4998779296875,-1.8017578125,-145.733642578125,-438.0,-1124.0,-2010.0,0.294464111328125,-0.01629638671875,-0.000457763671875,-0.955535888671875,-0.5006255352035145,-1.800082337456087,-145.20650000544228,0.29888143695328995,-0.01629540680532173,-0.0005280339837681033,-0.9541509668505804,1
1782117236.135502,0.480,1022.0,1023.0,1023.0,1023.0,1022.0,1023.0,1023.0,1024.0,1023.0,1023.0,1024.0,1024.0,1024.0,1025.0,1024.0,1024.0,1023.0,1023.0,1023.0,1024.0,1024.0,1024.0,1023.0,1023.0,1023.0,1023.0,1023.0,1023.0,1024.0,1024.0,1023.0,1022.0,1022.0,1023.0,1023.0,1023.0,1023.0,1024.0,1023.0,1023.0,1022.0,1022.0,1023.0,1023.0,1023.0,1024.0,1024.0,1024.0,1024.0,1024.0,1022.0,1023.0,1023.0,1023.0,1024.0,1024.0,1024.0,1024.0,1023.0,1023.0,1022.0,1023.0,1022.0,1024.0,1023.0,1024.0,1024.0,1023.0,1023.0,1022.0,1022.0,1023.0,1024.0,1023.0,1023.0,1024.0,1024.0,1024.0,1023.0,1023.0,1023.0,1023.0,1023.0,1023.0,1024.0,1024.0,1024.0,1024.0,1023.0,1024.0,1022.0,1023.0,1023.0,1024.0,1023.0,1024.0,1025.0,1024.0,1024.0,1023.0,1023.0,1024.0,1023.0,1023.0,1024.0,1024.0,1024.0,1024.0,1023.0,1022.0,1022.0,1023.0,1023.0,1023.0,1022.0,1023.0,1024.0,1023.0,1023.0,1021.0,1022.0,1023.0,1024.0,1024.0,1024.0,1024.0,1023.0,1023.0,1023.0,1024.0,1023.0,1023.0,1024.0,1024.0,1024.0,1023.0,1024.0,1024.0,1024.0,1025.0,1025.0,1024.0,1024.0,1023.0,1024.0,1024.0,1024.0,1026.0,1024.0,1024.0,1023.0,1024.0,1025.0,1026.0,1028.0,1024.0,1024.0,1025.0,1026.0,1028.0,1029.0,1026.0,1025.0,1028.0,1029.0,1031.0,1032.0,1027.0,1027.0,1033.0,1034.0,1036.0,1038.0,1029.0,1031.0,1038.0,1043.0,1039.0,1047.0,1031.0,1035.0,1043.0,1041.0,1035.0,1046.0,1033.0,1045.0,1050.0,1045.0,1038.0,1051.0,1038.0,1043.0,1049.0,1047.0,1036.0,1050.0,1037.0,1036.0,1041.0,1040.0,1033.0,1047.0,1036.0,1036.0,1042.0,1040.0,1033.0,1046.0,1036.0,1023.0,1024.0,1023.0,1023.0,1025.0,1022.0,1035.0,1041.0,1037.0,1033.0,1044.0,1037.0,1030.0,1033.0,1033.0,1030.0,1041.0,1032.0,1025.0,1026.0,1026.0,1025.0,1028.0,2066,1971,1909,	00:28:48.907,0.0498046875,0.0634765625,1.01806640625,0.06103515625,0.06103515625,0.1220703125,3.5211181640625,-2.83447265625,40.4681396484375,436.0,-1585.0,-2557.0,0.937286376953125,0.037353515625,-0.0125732421875,0.3463134765625,3.519862408278516,-2.833543247296336,35.96955766191802,0.9501648189542338,0.03683275167759901,-0.014025828864797396,0.309246570474403,1,	00:28:48.908,0.03125,-0.00830078125,1.0078125,-1.220703125,-1.52587890625,-0.48828125,-0.4449462890625,-1.7578125,-145.74462890625,-440.0,-1124.0,-2011.0,0.29443359375,-0.015777587890625,-0.000823974609375,-0.955535888671875,-0.4424598806907056,-1.7564622344069631,-145.21343550567204,0.29883508877624526,-0.01578055786098049,-0.0008975786892420255,-0.9541738615484007,1
1782117236.141085,0.486,1023.0,1023.0,1023.0,1023.0,1023.0,1023.0,1023.0,1024.0,1023.0,1023.0,1023.0,1024.0,1024.0,1024.0,1024.0,1024.0,1023.0,1024.0,1024.0,1024.0,1025.0,1024.0,1023.0,1023.0,1023.0,1023.0,1023.0,1023.0,1024.0,1023.0,1023.0,1022.0,1022.0,1022.0,1023.0,1023.0,1024.0,1023.0,1024.0,1023.0,1022.0,1022.0,1023.0,1024.0,1023.0,1023.0,1024.0,1024.0,1023.0,1024.0,1022.0,1023.0,1023.0,1024.0,1024.0,1024.0,1024.0,1024.0,1023.0,1023.0,1023.0,1023.0,1022.0,1023.0,1023.0,1023.0,1024.0,1024.0,1023.0,1022.0,1022.0,1023.0,1023.0,1023.0,1023.0,1024.0,1024.0,1024.0,1023.0,1023.0,1022.0,1022.0,1023.0,1023.0,1024.0,1024.0,1024.0,1024.0,1023.0,1024.0,1023.0,1023.0,1023.0,1024.0,1023.0,1024.0,1024.0,1024.0,1023.0,1023.0,1023.0,1023.0,1023.0,1024.0,1024.0,1024.0,1025.0,1024.0,1023.0,1022.0,1023.0,1022.0,1023.0,1023.0,1023.0,1023.0,1024.0,1023.0,1023.0,1021.0,1022.0,1023.0,1023.0,1023.0,1024.0,1024.0,1024.0,1023.0,1023.0,1023.0,1024.0,1023.0,1024.0,1024.0,1024.0,1023.0,1023.0,1024.0,1024.0,1025.0,1026.0,1024.0,1024.0,1023.0,1024.0,1024.0,1025.0,1026.0,1024.0,1024.0,1024.0,1024.0,1024.0,1026.0,1028.0,1025.0,1024.0,1024.0,1025.0,1028.0,1030.0,1026.0,1025.0,1027.0,1028.0,1031.0,1031.0,1027.0,1028.0,1033.0,1034.0,1037.0,1038.0,1028.0,1030.0,1039.0,1042.0,1039.0,1047.0,1031.0,1035.0,1043.0,1041.0,1035.0,1046.0,1033.0,1045.0,1051.0,1045.0,1038.0,1051.0,1038.0,1043.0,1049.0,1047.0,1035.0,1050.0,1038.0,1037.0,1042.0,1041.0,1033.0,1046.0,1036.0,1037.0,1042.0,1039.0,1033.0,1045.0,1036.0,1022.0,1023.0,1023.0,1024.0,1024.0,1021.0,1035.0,1041.0,1038.0,1033.0,1045.0,1037.0,1030.0,1033.0,1032.0,1030.0,1041.0,1032.0,1025.0,1026.0,1025.0,1024.0,1029.0,2066,1971,1906,	00:28:48.917,0.04931640625,0.06201171875,1.01708984375,0.06103515625,0.0,0.06103515625,3.482666015625,-2.7520751953125,40.4736328125,439.0,-1585.0,-2561.0,0.93731689453125,0.036773681640625,-0.01202392578125,0.3463134765625,3.4800454502824056,-2.751518045936574,35.972136191326314,0.9501938925355482,0.03628255604050062,-0.013451987848542773,0.30924777563991246,1,	00:28:48.918,0.0322265625,-0.00927734375,1.00732421875,-1.3427734375,-1.52587890625,-0.42724609375,-0.5218505859375,-1.834716796875,-145.74462890625,-439.0,-1125.0,-2002.0,0.29437255859375,-0.016632080078125,-0.000335693359375,-0.955535888671875,-0.5242245201740268,-1.8327049484163047,-145.2154389708724,0.29880105174232885,-0.016628611087063514,-0.0004153644077947899,-0.9541704503092736,1
1782117236.149500,0.494,1023.0,1024.0,1024.0,1022.0,1023.0,1023.0,1023.0,1024.0,1023.0,1023.0,1023.0,1024.0,1024.0,1024.0,1024.0,1024.0,1023.0,1023.0,1023.0,1024.0,1024.0,1024.0,1023.0,1023.0,1023.0,1024.0,1023.0,1024.0,1024.0,1024.0,1023.0,1023.0,1022.0,1023.0,1023.0,1023.0,1023.0,1024.0,1023.0,1022.0,1022.0,1022.0,1023.0,1024.0,1023.0,1024.0,1024.0,1024.0,1023.0,1023.0,1022.0,1023.0,1023.0,1024.0,1023.0,1024.0,1024.0,1024.0,1024.0,1023.0,1023.0,1023.0,1023.0,1023.0,1023.0,1024.0,1024.0,1023.0,1023.0,1022.0,1022.0,1023.0,1023.0,1023.0,1023.0,1024.0,1025.0,1024.0,1023.0,1022.0,1022.0,1024.0,1023.0,1024.0,1024.0,1024.0,1024.0,1024.0,1024.0,1023.0,1022.0,1023.0,1023.0,1023.0,1024.0,1024.0,1025.0,1024.0,1024.0,1023.0,1022.0,1023.0,1023.0,1024.0,1023.0,1024.0,1025.0,1024.0,1023.0,1022.0,1022.0,1023.0,1022.0,1023.0,1023.0,1023.0,1024.0,1023.0,1023.0,1021.0,1023.0,1023.0,1023.0,1023.0,1024.0,1024.0,1024.0,1023.0,1023.0,1023.0,1024.0,1023.0,1024.0,1024.0,1024.0,1023.0,1023.0,1024.0,1024.0,1025.0,1026.0,1024.0,1024.0,1023.0,1024.0,1024.0,1024.0,1025.0,1024.0,1024.0,1024.0,1024.0,1025.0,1026.0,1027.0,1025.0,1024.0,1025.0,1025.0,1028.0,1030.0,1026.0,1025.0,1028.0,1028.0,1031.0,1032.0,1027.0,1027.0,1034.0,1034.0,1037.0,1038.0,1028.0,1030.0,1039.0,1042.0,1039.0,1047.0,1031.0,1035.0,1044.0,1041.0,1036.0,1045.0,1033.0,1044.0,1051.0,1044.0,1038.0,1050.0,1037.0,1044.0,1049.0,1047.0,1036.0,1050.0,1038.0,1036.0,1042.0,1040.0,1033.0,1046.0,1037.0,1037.0,1042.0,1040.0,1033.0,1045.0,1036.0,1023.0,1024.0,1023.0,1023.0,1025.0,1022.0,1035.0,1041.0,1037.0,1033.0,1045.0,1037.0,1030.0,1033.0,1032.0,1030.0,1040.0,1032.0,1025.0,1026.0,1026.0,1025.0,1028.0,2066,1971,1905,	00:28:48.927,0.04931640625,0.0634765625,1.017578125,0.1220703125,0.0,0.1220703125,3.570556640625,-2.7685546875,40.4681396484375,437.0,-1585.0,-2560.0,0.937286376953125,0.037567138671875,-0.01190185546875,0.3463134765625,3.571010332254972,-2.769412026425587,35.96903084674089,0.9501680940802921,0.0370845333515634,-0.013355946474810131,0.3092360733673935,1,	00:28:48.928,0.03076171875,-0.01025390625,1.00732421875,-1.3427734375,-1.52587890625,-0.42724609375,-0.5877685546875,-1.7742919921875,-145.7501220703125,-440.0,-1127.0,-2006.0,0.29437255859375,-0.01629638671875,0.0003662109375,-0.95556640625,-0.5903578204947293,-1.7730927864372792,-145.21791840173216,0.2987757630933586,-0.016304696912762234,0.0002911784226062646,-0.954184005033458,1
