Unix_Time_s,IMU1_RefTime,ax_g,ay_g,az_g,gx_dps,gy_dps,gz_dps,mx_uT,my_uT,mz_uT,temp_C,qw,qx,qy,qz
1782117302.024397,1801449,0.906738,-0.019043,-0.420410,0.060976,-0.243902,-0.365854,16.675001,-37.118752,2.075000,0.0,1.000000,0.000000,0.000000,0.000000
1782117302.034397,1801459,0.907715,-0.018555,-0.420410,0.060976,-0.182927,-0.304878,16.675001,-37.118752,2.075000,0.0,1.000000,0.000000,0.000000,0.000000
1782117302.044397,1801469,0.907715,-0.016113,-0.420410,0.000000,-0.121951,-0.243902,16.781250,-36.799999,1.900000,0.0,1.000000,0.000000,0.000000,0.000000
1782117302.054397,1801479,0.907227,-0.016602,-0.418945,-0.121951,-0.121951,-0.304878,16.781250,-36.799999,1.900000,0.0,1.000000,0.000000,0.000000,0.000000
1782117302.064397,1801489,0.905762,-0.016602,-0.420898,-0.365854,-0.182927,-0.304878,16.637501,-37.093750,2.062500,0.0,1.000000,0.000000,0.000000,0.000000
1782117302.075397,1801500,0.906738,-0.018066,-0.421875,-0.426829,-0.243902,-0.304878,16.637501,-37.093750,2.062500,0.0,1.000000,0.000000,0.000000,0.000000
1782117302.084397,1801509,0.906738,-0.019043,-0.421875,-0.426829,-0.243902,-0.304878,16.731251,-37.031250,2.000000,0.0,1.000000,0.000000,0.000000,0.000000
1782117302.094397,1801519,0.907227,-0.021484,-0.421875,-0.365854,-0.243902,-0.243902,16.731251,-37.031250,2.000000,0.0,1.000000,0.000000,0.000000,0.000000
1782117302.104397,1801529,0.907227,-0.021484,-0.421875,-0.365854,-0.243902,-0.243902,16.631250,-37.131252,2.075000,0.0,1.000000,0.000000,0.000000,0.000000
1782117302.114397,1801539,0.907715,-0.020508,-0.420898,-0.426829,-0.304878,-0.182927,16.631250,-37.131252,2.075000,0.0,1.000000,0.000000,0.000000,0.000000
1782117302.124397,1801549,0.907227,-0.021484,-0.421875,-0.426829,-0.182927,-0.121951,16.856251,-36.799999,1.875000,0.0,1.000000,0.000000,0.000000,0.000000
1782117302.134397,1801559,0.907227,-0.020996,-0.419922,-0.243902,-0.121951,-0.243902,16.856251,-36.799999,1.875000,0.0,1.000000,0.000000,0.000000,0.000000
1782117302.144397,1801569,0.908691,-0.020996,-0.419922,-0.182927,-0.121951,-0.182927,16.650000,-37.100002,2.025000,0.0,1.000000,0.000000,0.000000,0.000000
1782117302.154397,1801579,0.909180,-0.020508,-0.419922,-0.182927,-0.060976,-0.243902,16.650000,-37.100002,2.025000,0.0,1.000000,0.000000,0.000000,0.000000
1782117302.164397,1801589,0.907227,-0.020996,-0.418945,-0.121951,0.000000,-0.182927,16.681250,-37.049999,1.993750,0.0,1.000000,0.000000,0.000000,0.000000
1782117302.174397,1801599,0.908203,-0.019043,-0.419922,-0.182927,0.000000,-0.182927,16.681250,-37.049999,1.993750,0.0,1.000000,0.000000,0.000000,0.000000
1782117302.185397,1801610,0.908691,-0.018555,-0.419434,-0.304878,0.000000,-0.182927,16.693750,-37.075001,2.037500,0.0,1.000000,0.000000,0.000000,0.000000
1782117302.195397,1801620,0.907227,-0.019043,-0.419922,-0.426829,0.060976,-0.121951,16.693750,-37.075001,2.037500,0.0,1.000000,0.000000,0.000000,0.000000
1782117302.204397,1801629,0.905762,-0.019043,-0.418457,-0.548781,0.000000,-0.060976,16.737501,-37.025002,2.050000,0.0,1.000000,0.000000,0.000000,0.000000
1782117302.215397,1801640,0.905762,-0.019531,-0.419922,-0.609756,-0.060976,-0.121951,16.737501,-37.025002,2.050000,0.0,1.000000,0.000000,0.000000,0.000000
1782117302.225397,1801650,0.905273,-0.020996,-0.420898,-0.731707,-0.121951,-0.121951,16.656250,-37.087502,2.025000,0.0,1.000000,0.000000,0.000000,0.000000
1782117302.235397,1801660,0.907227,-0.021484,-0.420410,-0.670732,-0.243902,-0.121951,16.656250,-37.087502,2.025000,0.0,1.000000,0.000000,0.000000,0.000000
1782117302.244397,1801669,0.906250,-0.023926,-0.421387,-0.548781,-0.243902,0.000000,16.806250,-36.768749,1.925000,0.0,1.000000,0.000000,0.000000,0.000000
1782117302.254397,1801679,0.905273,-0.024902,-0.420410,-0.426829,-0.182927,-0.060976,16.806250,-36.768749,1.925000,0.0,1.000000,0.000000,0.000000,0.000000
1782117302.264397,1801689,0.908203,-0.024414,-0.419434,-0.243902,-0.365854,-0.121951,16.662500,-37.075001,2.081250,0.0,1.000000,0.000000,0.000000,0.000000
1782117302.274397,1801699,0.909668,-0.021484,-0.418457,-0.182927,-0.243902,-0.243902,16.662500,-37.075001,2.081250,0.0,1.000000,0.000000,0.000000,0.000000
1782117302.284397,1801709,0.908691,-0.022461,-0.417969,-0.060976,-0.121951,-0.304878,16.900000,-36.731251,1.850000,0.0,1.000000,0.000000,0.000000,0.000000
1782117302.294397,1801719,0.910156,-0.022949,-0.416504,-0.060976,-0.060976,-0.243902,16.900000,-36.731251,1.850000,0.0,1.000000,0.000000,0.000000,0.000000
1782117302.304397,1801729,0.910645,-0.020996,-0.416016,-0.121951,-0.060976,-0.243902,16.662500,-37.093750,2.106250,0.0,1.000000,0.000000,0.000000,0.000000
1782117302.314397,1801739,0.909668,-0.021973,-0.416016,-0.243902,0.060976,-0.121951,16.662500,-37.093750,2.106250,0.0,1.000000,0.000000,0.000000,0.000000
1782117302.324397,1801749,0.907227,-0.022461,-0.417969,-0.182927,0.060976,-0.182927,16.662500,-37.062500,2.081250,0.0,1.000000,0.000000,0.000000,0.000000
1782117302.334397,1801759,0.907715,-0.020996,-0.418945,-0.182927,0.000000,-0.121951,16.662500,-37.062500,2.081250,0.0,1.000000,0.000000,0.000000,0.000000
1782117302.344397,1801769,0.908203,-0.020508,-0.419922,-0.304878,-0.182927,-0.121951,16.687500,-37.087502,2.100000,0.0,1.000000,0.000000,0.000000,0.000000
1782117302.355397,1801780,0.908203,-0.020020,-0.419922,-0.487805,-0.182927,-0.060976,16.687500,-37.087502,2.100000,0.0,1.000000,0.000000,0.000000,0.000000
1782117302.365397,1801790,0.906250,-0.020996,-0.418457,-0.609756,-0.182927,0.000000,16.750000,-36.975002,2.081250,0.0,1.000000,0.000000,0.000000,0.000000
1782117302.375397,1801800,0.907227,-0.020020,-0.418457,-0.670732,-0.243902,0.000000,16.750000,-36.975002,2.081250,0.0,1.000000,0.000000,0.000000,0.000000
1782117302.385397,1801810,0.907227,-0.022461,-0.416992,-0.792683,-0.304878,-0.060976,16.656250,-37.118752,2.118750,0.0,1.000000,0.000000,0.000000,0.000000
1782117302.395397,1801820,0.908691,-0.021973,-0.417480,-0.731707,-0.243902,-0.121951,16.656250,-37.118752,2.118750,0.0,1.000000,0.000000,0.000000,0.000000
1782117302.404397,1801829,0.908203,-0.022949,-0.417480,-0.670732,-0.182927,-0.121951,16.662500,-37.143749,2.087500,0.0,1.000000,0.000000,0.000000,0.000000
1782117302.414397,1801839,0.909180,-0.023926,-0.418945,-0.548781,-0.182927,-0.182927,16.662500,-37.143749,2.087500,0.0,1.000000,0.000000,0.000000,0.000000
1782117302.424397,1801849,0.909668,-0.022949,-0.419922,-0.548781,-0.060976,-0.243902,16.687500,-37.131252,2.043750,0.0,1.000000,0.000000,0.000000,0.000000
1782117302.434397,1801859,0.908203,-0.024414,-0.420410,-0.304878,0.000000,-0.182927,16.687500,-37.131252,2.043750,0.0,1.000000,0.000000,0.000000,0.000000
1782117302.444397,1801869,0.907715,-0.025879,-0.420410,-0.121951,-0.060976,-0.243902,16.687500,-37.125000,2.100000,0.0,1.000000,0.000000,0.000000,0.000000
1782117302.454397,1801879,0.907227,-0.025391,-0.419434,-0.121951,-0.121951,-0.182927,16.687500,-37.125000,2.100000,0.0,1.000000,0.000000,0.000000,0.000000
1782117302.464397,1801889,0.908203,-0.023926,-0.418945,-0.121951,-0.121951,-0.121951,16.631250,-37.106251,2.137500,0.0,1.000000,0.000000,0.000000,0.000000
1782117302.474397,1801899,0.908203,-0.021973,-0.417480,-0.243902,-0.060976,-0.121951,16.631250,-37.106251,2.137500,0.0,1.000000,0.000000,0.000000,0.000000
1782117302.484397,1801909,0.907227,-0.021973,-0.418457,-0.304878,-0.121951,-0.182927,16.681250,-37.112499,2.100000,0.0,1.000000,0.000000,0.000000,0.000000
1782117302.494397,1801919,0.908203,-0.020020,-0.416992,-0.426829,-0.121951,-0.182927,16.681250,-37.112499,2.100000,0.0,1.000000,0.000000,0.000000,0.000000
1782117302.504397,1801929,0.907715,-0.020020,-0.416016,-0.487805,-0.060976,-0.243902,16.668751,-37.106251,2.162500,0.0,1.000000,0.000000,0.000000,0.000000
1782117302.514397,1801939,0.906738,-0.021484,-0.416992,-0.548781,-0.121951,-0.243902,16.668751,-37.106251,2.162500,0.0,1.000000,0.000000,0.000000,0.000000
1782117302.524397,1801949,0.907227,-0.023438,-0.416992,-0.487805,-0.121951,-0.304878,16.712500,-36.981251,2.075000,0.0,1.000000,0.000000,0.000000,0.000000
1782117302.534397,1801959,0.907715,-0.024902,-0.417480,-0.365854,-0.182927,-0.304878,16.712500,-36.981251,2.075000,0.0,1.000000,0.000000,0.000000,0.000000
1782117302.544397,1801969,0.908203,-0.026367,-0.417969,-0.243902,-0.182927,-0.304878,16.656250,-37.218750,2.162500,0.0,1.000000,0.000000,0.000000,0.000000
1782117302.554397,1801979,0.907715,-0.024902,-0.419434,-0.121951,-0.182927,-0.365854,16.656250,-37.218750,2.162500,0.0,1.000000,0.000000,0.000000,0.000000
1782117302.564397,1801989,0.906250,-0.025391,-0.421387,0.000000,-0.060976,-0.426829,16.818750,-36.906250,2.018750,0.0,1.000000,0.000000,0.000000,0.000000
1782117302.574397,1801999,0.906738,-0.024414,-0.420410,0.060976,-0.243902,-0.487805,16.818750,-36.906250,2.018750,0.0,1.000000,0.000000,0.000000,0.000000
1782117302.584397,1802009,0.908203,-0.024414,-0.417969,0.060976,-0.426829,-0.487805,16.650000,-37.087502,2.125000,0.0,1.000000,0.000000,0.000000,0.000000
1782117302.595397,1802020,0.909180,-0.024902,-0.417480,0.000000,-0.365854,-0.426829,16.650000,-37.087502,2.125000,0.0,1.000000,0.000000,0.000000,0.000000
1782117302.605397,1802030,0.909180,-0.023438,-0.418457,0.000000,-0.182927,-0.426829,16.606251,-37.143749,2.087500,0.0,1.000000,0.000000,0.000000,0.000000
1782117302.615397,1802040,0.910156,-0.021973,-0.418457,0.000000,-0.182927,-0.426829,16.606251,-37.143749,2.087500,0.0,1.000000,0.000000,0.000000,0.000000
1782117302.625397,1802050,0.909180,-0.021973,-0.417480,0.121951,-0.121951,-0.426829,16.600000,-37.156250,2.181250,0.0,1.000000,0.000000,0.000000,0.000000
1782117302.635397,1802060,0.909668,-0.020020,-0.417480,0.182927,-0.182927,-0.365854,16.600000,-37.156250,2.181250,0.0,1.000000,0.000000,0.000000,0.000000
1782117302.644397,1802069,0.909668,-0.022461,-0.415039,0.243902,-0.060976,-0.426829,16.700001,-37.118752,2.118750,0.0,1.000000,0.000000,0.000000,0.000000
1782117302.654397,1802079,0.910645,-0.021484,-0.416016,0.243902,0.000000,-0.426829,16.700001,-37.118752,2.118750,0.0,1.000000,0.000000,0.000000,0.000000
1782117302.664397,1802089,0.909668,-0.019531,-0.417480,0.121951,0.121951,-0.426829,16.662500,-37.100002,2.112500,0.0,1.000000,0.000000,0.000000,0.000000
1782117302.676397,1802101,0.907715,-0.018066,-0.418457,-0.121951,0.182927,-0.487805,16.662500,-37.100002,2.112500,0.0,1.000000,0.000000,0.000000,0.000000
1782117302.684397,1802109,0.906250,-0.020020,-0.418457,-0.304878,0.060976,-0.426829,16.687500,-37.049999,2.100000,0.0,1.000000,0.000000,0.000000,0.000000
1782117302.695397,1802120,0.906250,-0.019043,-0.418945,-0.426829,0.000000,-0.365854,16.687500,-37.049999,2.100000,0.0,1.000000,0.000000,0.000000,0.000000
1782117302.704397,1802129,0.905762,-0.020020,-0.420898,-0.426829,-0.121951,-0.426829,16.637501,-37.162502,2.125000,0.0,1.000000,0.000000,0.000000,0.000000
1782117302.714397,1802139,0.904785,-0.023438,-0.422363,-0.304878,-0.182927,-0.365854,16.637501,-37.162502,2.125000,0.0,1.000000,0.000000,0.000000,0.000000
1782117302.725397,1802150,0.905273,-0.023438,-0.421387,-0.121951,-0.365854,-0.304878,16.612501,-37.087502,2.156250,0.0,1.000000,0.000000,0.000000,0.000000
1782117302.734397,1802159,0.907227,-0.023438,-0.421387,0.060976,-0.365854,-0.304878,16.612501,-37.087502,2.156250,0.0,1.000000,0.000000,0.000000,0.000000
1782117302.744397,1802169,0.907227,-0.021484,-0.419434,0.182927,-0.304878,-0.365854,16.662500,-37.162502,2.143750,0.0,1.000000,0.000000,0.000000,0.000000
1782117302.756397,1802181,0.907227,-0.021484,-0.417969,0.182927,-0.182927,-0.365854,16.662500,-37.162502,2.143750,0.0,1.000000,0.000000,0.000000,0.000000
1782117302.764397,1802189,0.907715,-0.021973,-0.418457,0.121951,-0.060976,-0.426829,16.743750,-37.068752,2.075000,0.0,1.000000,0.000000,0.000000,0.000000
1782117302.774397,1802199,0.909668,-0.021484,-0.417480,0.121951,0.000000,-0.487805,16.743750,-37.068752,2.075000,0.0,1.000000,0.000000,0.000000,0.000000
1782117302.784397,1802209,0.910156,-0.019531,-0.416504,0.121951,0.060976,-0.487805,16.662500,-37.100002,2.156250,0.0,1.000000,0.000000,0.000000,0.000000
1782117302.795397,1802220,0.908203,-0.017578,-0.417480,0.060976,0.000000,-0.426829,16.662500,-37.100002,2.156250,0.0,1.000000,0.000000,0.000000,0.000000
1782117302.805397,1802230,0.909668,-0.017090,-0.416992,-0.060976,-0.121951,-0.365854,16.618750,-37.162502,2.112500,0.0,1.000000,0.000000,0.000000,0.000000
1782117302.815397,1802240,0.909668,-0.019043,-0.417969,-0.182927,-0.060976,-0.365854,16.618750,-37.162502,2.112500,0.0,1.000000,0.000000,0.000000,0.000000
1782117302.825397,1802250,0.908691,-0.019043,-0.417480,-0.182927,-0.060976,-0.182927,16.643751,-37.200001,2.143750,0.0,1.000000,0.000000,0.000000,0.000000
1782117302.835397,1802260,0.908691,-0.020508,-0.417969,-0.304878,-0.121951,-0.121951,16.643751,-37.200001,2.143750,0.0,1.000000,0.000000,0.000000,0.000000
1782117302.844397,1802269,0.908203,-0.020996,-0.416992,-0.304878,-0.182927,-0.121951,16.681250,-37.118752,2.106250,0.0,1.000000,0.000000,0.000000,0.000000
1782117302.854397,1802279,0.908691,-0.021973,-0.416016,-0.426829,-0.060976,-0.121951,16.681250,-37.118752,2.106250,0.0,1.000000,0.000000,0.000000,0.000000
1782117302.864397,1802289,0.909668,-0.022461,-0.416992,-0.548781,-0.121951,-0.121951,16.643751,-37.193752,2.193750,0.0,1.000000,0.000000,0.000000,0.000000
1782117302.874397,1802299,0.910156,-0.022461,-0.416504,-0.609756,-0.121951,-0.121951,16.643751,-37.193752,2.193750,0.0,1.000000,0.000000,0.000000,0.000000
1782117302.884397,1802309,0.909668,-0.021484,-0.417480,-0.548781,0.000000,-0.182927,16.618750,-37.156250,2.162500,0.0,1.000000,0.000000,0.000000,0.000000
1782117302.894397,1802319,0.908691,-0.020020,-0.417480,-0.548781,0.121951,-0.182927,16.618750,-37.156250,2.162500,0.0,1.000000,0.000000,0.000000,0.000000
1782117302.905397,1802330,0.907715,-0.020996,-0.417969,-0.426829,0.060976,-0.121951,16.612501,-37.187500,2.187500,0.0,1.000000,0.000000,0.000000,0.000000
1782117302.917397,1802342,0.908203,-0.021484,-0.417480,-0.182927,-0.060976,-0.182927,16.625000,-37.131252,2.162500,0.0,1.000000,0.000000,0.000000,0.000000
1782117302.924397,1802349,0.908203,-0.021484,-0.417480,-0.182927,-0.060976,-0.182927,16.625000,-37.131252,2.162500,0.0,1.000000,0.000000,0.000000,0.000000
1782117302.934397,1802359,0.908691,-0.022949,-0.418945,-0.121951,0.000000,-0.121951,16.625000,-37.131252,2.162500,0.0,1.000000,0.000000,0.000000,0.000000
1782117302.944397,1802369,0.907227,-0.020996,-0.418457,-0.182927,0.000000,-0.121951,16.612501,-37.181252,2.193750,0.0,1.000000,0.000000,0.000000,0.000000
1782117302.954397,1802379,0.906738,-0.021484,-0.418457,-0.121951,-0.060976,-0.182927,16.612501,-37.181252,2.193750,0.0,1.000000,0.000000,0.000000,0.000000
1782117302.964397,1802389,0.907227,-0.021484,-0.417969,-0.304878,-0.121951,-0.121951,16.618750,-37.187500,2.218750,0.0,1.000000,0.000000,0.000000,0.000000
1782117302.974397,1802399,0.907227,-0.021484,-0.416992,-0.426829,-0.121951,-0.182927,16.618750,-37.187500,2.218750,0.0,1.000000,0.000000,0.000000,0.000000
1782117302.984397,1802409,0.907715,-0.021973,-0.417480,-0.426829,-0.121951,-0.243902,16.618750,-37.168751,2.193750,0.0,1.000000,0.000000,0.000000,0.000000
1782117302.997397,1802422,0.908691,-0.024414,-0.417480,-0.060976,-0.182927,-0.304878,16.587500,-37.150002,2.200000,0.0,1.000000,0.000000,0.000000,0.000000
1782117303.004397,1802429,0.908691,-0.024414,-0.417480,-0.060976,-0.182927,-0.304878,16.587500,-37.150002,2.200000,0.0,1.000000,0.000000,0.000000,0.000000
1782117303.014397,1802439,0.908691,-0.025391,-0.416992,0.182927,-0.243902,-0.365854,16.587500,-37.150002,2.200000,0.0,1.000000,0.000000,0.000000,0.000000
1782117303.024397,1802449,0.910156,-0.024902,-0.417480,0.670732,-0.121951,-0.365854,16.587500,-37.187500,2.231250,0.0,1.000000,0.000000,0.000000,0.000000
1782117303.036397,1802461,0.910156,-0.023438,-0.416504,0.609756,-0.121951,-0.426829,16.631250,-37.150002,2.187500,0.0,1.000000,0.000000,0.000000,0.000000
1782117303.044397,1802469,0.910156,-0.023438,-0.416504,0.609756,-0.121951,-0.426829,16.631250,-37.150002,2.187500,0.0,1.000000,0.000000,0.000000,0.000000
1782117303.054397,1802479,0.907715,-0.021484,-0.414062,0.365854,-0.121951,-0.365854,16.631250,-37.150002,2.187500,0.0,1.000000,0.000000,0.000000,0.000000
1782117303.064397,1802489,0.909668,-0.020020,-0.415039,0.121951,-0.182927,-0.365854,16.631250,-37.174999,2.200000,0.0,1.000000,0.000000,0.000000,0.000000
1782117303.077397,1802502,0.910645,-0.019531,-0.415527,-0.121951,-0.121951,-0.304878,16.606251,-37.200001,2.156250,0.0,1.000000,0.000000,0.000000,0.000000
1782117303.084397,1802509,0.909180,-0.018555,-0.416992,-0.243902,-0.121951,-0.304878,16.606251,-37.200001,2.156250,0.0,1.000000,0.000000,0.000000,0.000000
1782117303.094397,1802519,0.908691,-0.020996,-0.418457,-0.304878,-0.060976,-0.304878,16.606251,-37.200001,2.156250,0.0,1.000000,0.000000,0.000000,0.000000
1782117303.104397,1802529,0.908691,-0.022461,-0.419434,-0.121951,-0.060976,-0.304878,16.600000,-37.168751,2.225000,0.0,1.000000,0.000000,0.000000,0.000000
1782117303.116397,1802541,0.907715,-0.023438,-0.417969,0.000000,-0.060976,-0.304878,16.600000,-37.168751,2.225000,0.0,1.000000,0.000000,0.000000,0.000000
1782117303.124397,1802549,0.906738,-0.024902,-0.417480,0.000000,-0.060976,-0.304878,16.631250,-37.162502,2.250000,0.0,1.000000,0.000000,0.000000,0.000000
1782117303.134397,1802559,0.908203,-0.024902,-0.418457,-0.060976,-0.060976,-0.304878,16.631250,-37.162502,2.250000,0.0,1.000000,0.000000,0.000000,0.000000
1782117303.144397,1802569,0.907227,-0.024902,-0.418945,0.060976,-0.060976,-0.365854,16.650000,-37.131252,2.212500,0.0,1.000000,0.000000,0.000000,0.000000
1782117303.156397,1802581,0.908203,-0.022949,-0.418945,0.060976,-0.121951,-0.304878,16.593750,-37.237499,2.200000,0.0,1.000000,0.000000,0.000000,0.000000
1782117303.164397,1802589,0.908691,-0.021484,-0.417480,0.060976,-0.121951,-0.365854,16.593750,-37.237499,2.200000,0.0,1.000000,0.000000,0.000000,0.000000
1782117303.174397,1802599,0.909180,-0.020996,-0.416504,0.000000,-0.060976,-0.304878,16.593750,-37.237499,2.200000,0.0,1.000000,0.000000,0.000000,0.000000
1782117303.184397,1802609,0.909668,-0.021484,-0.415039,0.060976,0.000000,-0.426829,16.643751,-37.137501,2.218750,0.0,1.000000,0.000000,0.000000,0.000000
1782117303.196397,1802621,0.909180,-0.020996,-0.415039,0.060976,0.060976,-0.426829,16.637501,-37.131252,2.212500,0.0,1.000000,0.000000,0.000000,0.000000
1782117303.205397,1802630,0.909180,-0.022461,-0.415039,0.060976,0.060976,-0.365854,16.637501,-37.131252,2.212500,0.0,1.000000,0.000000,0.000000,0.000000
1782117303.214397,1802639,0.909180,-0.022949,-0.414062,0.000000,0.182927,-0.365854,16.637501,-37.131252,2.212500,0.0,1.000000,0.000000,0.000000,0.000000
1782117303.224397,1802649,0.908691,-0.023438,-0.417480,0.000000,0.060976,-0.365854,16.706251,-36.900002,2.050000,0.0,1.000000,0.000000,0.000000,0.000000
1782117303.237397,1802662,0.909180,-0.023438,-0.416992,-0.060976,-0.121951,-0.365854,16.600000,-37.187500,2.250000,0.0,1.000000,0.000000,0.000000,0.000000
1782117303.245397,1802670,0.909668,-0.024414,-0.417480,0.000000,-0.182927,-0.304878,16.600000,-37.187500,2.250000,0.0,1.000000,0.000000,0.000000,0.000000
1782117303.254397,1802679,0.910645,-0.025391,-0.417480,-0.060976,-0.182927,-0.243902,16.600000,-37.187500,2.250000,0.0,1.000000,0.000000,0.000000,0.000000
1782117303.264397,1802689,0.910645,-0.023438,-0.416992,-0.243902,-0.060976,-0.243902,16.662500,-37.068752,2.193750,0.0,1.000000,0.000000,0.000000,0.000000
1782117303.274397,1802699,0.908691,-0.020508,-0.415527,-0.426829,0.060976,-0.243902,16.662500,-37.068752,2.193750,0.0,1.000000,0.000000,0.000000,0.000000
1782117303.284397,1802709,0.909180,-0.021484,-0.415527,-0.426829,0.121951,-0.243902,16.593750,-37.162502,2.231250,0.0,1.000000,0.000000,0.000000,0.000000
1782117303.294397,1802719,0.907715,-0.022461,-0.415527,-0.365854,0.121951,-0.304878,16.600000,-37.137501,2.250000,0.0,1.000000,0.000000,0.000000,0.000000
1782117303.305397,1802730,0.909668,-0.021973,-0.417480,-0.182927,0.182927,-0.365854,16.600000,-37.137501,2.250000,0.0,1.000000,0.000000,0.000000,0.000000
1782117303.317397,1802742,0.909180,-0.022949,-0.419922,-0.121951,0.243902,-0.243902,16.575001,-37.212502,2.218750,0.0,1.000000,0.000000,0.000000,0.000000
1782117303.324397,1802749,0.906250,-0.022461,-0.422852,-0.182927,0.121951,-0.182927,16.575001,-37.212502,2.218750,0.0,1.000000,0.000000,0.000000,0.000000
1782117303.334397,1802759,0.903320,-0.018555,-0.425781,-0.182927,-0.182927,-0.365854,16.662500,-37.118752,2.225000,0.0,1.000000,0.000000,0.000000,0.000000
1782117303.344397,1802769,0.907715,-0.017090,-0.422852,-0.182927,-0.243902,-0.487805,16.662500,-37.118752,2.225000,0.0,1.000000,0.000000,0.000000,0.000000
1782117303.356397,1802781,0.911621,-0.021973,-0.416504,0.000000,0.121951,-0.487805,16.650000,-37.168751,2.237500,0.0,1.000000,0.000000,0.000000,0.000000
1782117303.364397,1802789,0.907715,-0.027832,-0.413574,-0.060976,0.487805,-0.365854,16.650000,-37.168751,2.237500,0.0,1.000000,0.000000,0.000000,0.000000
1782117303.374397,1802799,0.906738,-0.023438,-0.416992,-0.243902,0.365854,-0.243902,16.643751,-37.062500,2.187500,0.0,1.000000,0.000000,0.000000,0.000000
1782117303.384397,1802809,0.906738,-0.018555,-0.421387,-0.304878,0.060976,-0.426829,16.643751,-37.062500,2.187500,0.0,1.000000,0.000000,0.000000,0.000000
1782117303.394397,1802819,0.906250,-0.018066,-0.422363,-0.426829,-0.060976,-0.426829,16.675001,-37.031250,2.193750,0.0,1.000000,0.000000,0.000000,0.000000
1782117303.404397,1802829,0.907227,-0.018555,-0.421387,-0.365854,-0.060976,-0.304878,16.675001,-37.031250,2.193750,0.0,1.000000,0.000000,0.000000,0.000000
1782117303.414397,1802839,0.905273,-0.019043,-0.419434,-0.182927,-0.060976,-0.487805,16.700001,-36.900002,2.112500,0.0,1.000000,0.000000,0.000000,0.000000
1782117303.424397,1802849,0.909668,-0.021484,-0.418457,-0.304878,-0.060976,-0.243902,16.700001,-36.900002,2.112500,0.0,1.000000,0.000000,0.000000,0.000000
1782117303.435397,1802860,0.908691,-0.021973,-0.417969,-0.426829,0.365854,-0.121951,16.618750,-37.100002,2.218750,0.0,1.000000,0.000000,0.000000,0.000000
1782117303.444397,1802869,0.904297,-0.022461,-0.419922,-0.487805,0.243902,-0.243902,16.618750,-37.100002,2.218750,0.0,1.000000,0.000000,0.000000,0.000000
1782117303.454397,1802879,0.906738,-0.020996,-0.420410,-0.487805,0.000000,-0.243902,16.587500,-37.093750,2.268750,0.0,1.000000,0.000000,0.000000,0.000000
1782117303.464397,1802889,0.909180,-0.022461,-0.419434,-0.609756,0.000000,-0.243902,16.587500,-37.093750,2.268750,0.0,1.000000,0.000000,0.000000,0.000000
1782117303.474397,1802899,0.910645,-0.021973,-0.421875,-0.609756,-0.060976,-0.304878,16.581251,-37.168751,2.300000,0.0,1.000000,0.000000,0.000000,0.000000
1782117303.485397,1802910,0.910645,-0.020996,-0.423340,-0.670732,-0.060976,-0.304878,16.581251,-37.168751,2.300000,0.0,1.000000,0.000000,0.000000,0.000000
1782117303.494397,1802919,0.908203,-0.019531,-0.424805,-0.731707,-0.060976,-0.182927,16.612501,-37.081249,2.287500,0.0,1.000000,0.000000,0.000000,0.000000
1782117303.504397,1802929,0.907227,-0.019043,-0.423340,-0.670732,-0.121951,-0.121951,16.612501,-37.081249,2.287500,0.0,1.000000,0.000000,0.000000,0.000000
1782117303.514397,1802939,0.909180,-0.018555,-0.424316,-0.792683,-0.182927,-0.060976,16.575001,-37.143749,2.331250,0.0,1.000000,0.000000,0.000000,0.000000
1782117303.524397,1802949,0.909180,-0.016602,-0.426270,-0.853659,0.000000,-0.060976,16.575001,-37.143749,2.331250,0.0,1.000000,0.000000,0.000000,0.000000
1782117303.534397,1802959,0.903320,-0.020996,-0.425293,-0.487805,0.426829,0.000000,16.700001,-36.812500,2.218750,0.0,1.000000,0.000000,0.000000,0.000000
1782117303.544397,1802969,0.904785,-0.029297,-0.427734,0.182927,0.121951,0.060976,16.700001,-36.812500,2.218750,0.0,1.000000,0.000000,0.000000,0.000000
1782117303.554397,1802979,0.909668,-0.028320,-0.432617,0.731707,0.060976,0.121951,16.556250,-37.125000,2.400000,0.0,1.000000,0.000000,0.000000,0.000000
1782117303.564397,1802989,0.907715,-0.024414,-0.434082,1.036585,-0.121951,0.304878,16.556250,-37.125000,2.400000,0.0,1.000000,0.000000,0.000000,0.000000
1782117303.574397,1802999,0.908203,-0.024414,-0.434570,1.280488,-0.487805,0.487805,16.631250,-36.981251,2.256250,0.0,1.000000,0.000000,0.000000,0.000000
1782117303.584397,1803009,0.906738,-0.021973,-0.436035,1.463415,-0.060976,0.609756,16.631250,-36.981251,2.256250,0.0,1.000000,0.000000,0.000000,0.000000
1782117303.594397,1803019,0.899902,-0.014160,-0.443359,1.524390,0.426829,0.731707,16.537500,-37.125000,2.337500,0.0,1.000000,0.000000,0.000000,0.000000
1782117303.604397,1803029,0.895996,0.003906,-0.444824,1.402439,0.670732,0.609756,16.537500,-37.125000,2.337500,0.0,1.000000,0.000000,0.000000,0.000000
1782117303.614397,1803039,0.907715,0.011719,-0.444336,1.280488,0.914634,0.304878,16.593750,-37.006252,2.300000,0.0,1.000000,0.000000,0.000000,0.000000
1782117303.624397,1803049,0.919434,0.006348,-0.441406,0.548781,2.317073,0.365854,16.593750,-37.006252,2.300000,0.0,1.000000,0.000000,0.000000,0.000000
1782117303.634397,1803059,0.898926,-0.003418,-0.456055,-0.914634,3.841464,0.853659,16.493750,-37.118752,2.406250,0.0,1.000000,0.000000,0.000000,0.000000
1782117303.645397,1803070,0.876465,-0.002441,-0.467773,-1.829268,4.451220,0.853659,16.493750,-37.118752,2.406250,0.0,1.000000,0.000000,0.000000,0.000000
1782117303.655397,1803080,0.871094,-0.012695,-0.476562,-1.707317,3.658537,0.609756,16.537500,-36.981251,2.331250,0.0,1.000000,0.000000,0.000000,0.000000
1782117303.665397,1803090,0.876465,-0.026367,-0.476074,-0.792683,3.109756,0.609756,16.537500,-36.981251,2.331250,0.0,1.000000,0.000000,0.000000,0.000000
1782117303.675397,1803100,0.884277,-0.022461,-0.475586,-0.426829,3.414634,0.548781,16.656250,-36.843750,2.362500,0.0,1.000000,0.000000,0.000000,0.000000
1782117303.684397,1803109,0.876953,-0.009766,-0.472168,-0.487805,4.024390,0.487805,16.656250,-36.843750,2.362500,0.0,1.000000,0.000000,0.000000,0.000000
1782117303.694397,1803119,0.869141,-0.004395,-0.470703,-0.914634,4.024390,0.426829,16.450001,-36.993752,2.556250,0.0,1.000000,0.000000,0.000000,0.000000
1782117303.704397,1803129,0.855957,-0.000488,-0.474609,-1.768293,3.902439,0.487805,16.450001,-36.993752,2.556250,0.0,1.000000,0.000000,0.000000,0.000000
1782117303.714397,1803139,0.850098,0.001953,-0.484863,-1.890244,3.292683,0.121951,16.456251,-37.075001,2.625000,0.0,1.000000,0.000000,0.000000,0.000000
1782117303.724397,1803149,0.853027,-0.003906,-0.491211,-1.280488,2.682927,-0.731707,16.456251,-37.075001,2.625000,0.0,1.000000,0.000000,0.000000,0.000000
1782117303.734397,1803159,0.861328,-0.021973,-0.494629,0.182927,2.743902,-1.341463,16.406250,-37.018749,2.731250,0.0,1.000000,0.000000,0.000000,0.000000
1782117303.744397,1803169,0.876953,-0.037109,-0.489258,2.621951,3.292683,-1.951220,16.406250,-37.018749,2.731250,0.0,1.000000,0.000000,0.000000,0.000000
1782117303.754397,1803179,0.892578,-0.043457,-0.485352,5.426829,4.573171,-2.621951,16.556250,-36.656250,2.525000,0.0,1.000000,0.000000,0.000000,0.000000
1782117303.764397,1803189,0.912109,-0.041504,-0.487305,8.353659,5.548780,-3.414634,16.556250,-36.656250,2.525000,0.0,1.000000,0.000000,0.000000,0.000000
1782117303.775397,1803200,0.928711,-0.028809,-0.480469,11.341464,6.951220,-3.902439,16.400000,-36.937500,2.787500,0.0,1.000000,0.000000,0.000000,0.000000
1782117303.784397,1803209,0.918457,-0.018066,-0.467285,13.170732,9.695122,-3.597561,16.400000,-36.937500,2.787500,0.0,1.000000,0.000000,0.000000,0.000000
1782117303.794397,1803219,0.884277,-0.011719,-0.459961,13.719513,11.524390,-3.231707,16.331251,-36.950001,2.875000,0.0,1.000000,0.000000,0.000000,0.000000
1782117303.805397,1803230,0.857910,-0.002930,-0.453125,13.658537,10.975610,-3.048780,16.331251,-36.950001,2.875000,0.0,1.000000,0.000000,0.000000,0.000000
1782117303.814397,1803239,0.853027,0.003906,-0.445801,13.597561,9.146341,-3.902439,16.318750,-36.931252,2.956250,0.0,1.000000,0.000000,0.000000,0.000000
1782117303.824397,1803249,0.873047,0.005859,-0.428223,13.597561,7.378049,-4.268293,16.318750,-36.931252,2.956250,0.0,1.000000,0.000000,0.000000,0.000000
1782117303.834397,1803259,0.883789,0.008301,-0.419434,13.414635,7.926829,-4.878049,16.300001,-36.812500,2.993750,0.0,1.000000,0.000000,0.000000,0.000000
1782117303.844397,1803269,0.876953,0.004883,-0.416992,12.195122,8.902439,-4.939024,16.300001,-36.812500,2.993750,0.0,1.000000,0.000000,0.000000,0.000000
1782117303.854397,1803279,0.876953,0.002930,-0.426758,10.060976,8.109756,-4.634146,16.337500,-36.687500,2.981250,0.0,1.000000,0.000000,0.000000,0.000000
1782117303.864397,1803289,0.884766,0.002930,-0.434570,8.658537,6.219512,-4.207317,16.337500,-36.687500,2.981250,0.0,1.000000,0.000000,0.000000,0.000000
1782117303.874397,1803299,0.889160,0.000000,-0.434570,7.195122,5.426829,-2.804878,16.287500,-36.768749,3.081250,0.0,1.000000,0.000000,0.000000,0.000000
1782117303.885397,1803310,0.883789,-0.003906,-0.440918,5.000000,5.121951,-0.426829,16.287500,-36.768749,3.081250,0.0,1.000000,0.000000,0.000000,0.000000
1782117303.895397,1803320,0.885742,-0.008301,-0.453613,2.743902,3.841464,1.585366,16.306250,-36.650002,3.056250,0.0,1.000000,0.000000,0.000000,0.000000
1782117303.905397,1803330,0.899414,-0.012695,-0.468262,0.000000,3.170732,3.597561,16.306250,-36.650002,3.056250,0.0,1.000000,0.000000,0.000000,0.000000
1782117303.915397,1803340,0.937500,-0.016113,-0.492676,-3.292683,1.646341,5.548780,16.175001,-36.793751,3.200000,0.0,1.000000,0.000000,0.000000,0.000000
1782117303.926397,1803351,0.991211,-0.077148,-0.495605,-1.951220,2.012195,8.536586,16.175001,-36.793751,3.200000,0.0,1.000000,0.000000,0.000000,0.000000
1782117303.934397,1803359,0.991211,-0.077148,-0.495605,-1.951220,2.012195,8.536586,16.025000,-36.799999,3.143750,0.0,1.000000,0.000000,0.000000,0.000000
1782117303.944397,1803369,0.964355,-0.099121,-0.455078,2.926829,8.170732,10.975610,16.025000,-36.799999,3.143750,0.0,1.000000,0.000000,0.000000,0.000000
1782117303.954397,1803379,0.957031,-0.133789,-0.418945,8.597561,7.012195,10.000000,15.743751,-36.875000,3.187500,0.0,1.000000,0.000000,0.000000,0.000000
1782117303.966397,1803391,1.031250,-0.161133,-0.349609,22.317074,13.536586,6.036585,15.743751,-36.875000,3.187500,0.0,1.000000,0.000000,0.000000,0.000000
1782117303.974397,1803399,1.018066,-0.137695,-0.338867,28.658537,22.682928,4.878049,15.587501,-36.806252,3.225000,0.0,1.000000,0.000000,0.000000,0.000000
1782117303.984397,1803409,0.953613,-0.103027,-0.333008,33.963417,29.146341,3.048780,15.587501,-36.806252,3.225000,0.0,1.000000,0.000000,0.000000,0.000000
1782117303.994397,1803419,0.888184,-0.071777,-0.333984,37.987804,28.109756,1.402439,15.462501,-36.831249,3.356250,0.0,1.000000,0.000000,0.000000,0.000000
1782117304.005397,1803430,0.846191,-0.038574,-0.336426,39.146343,21.951220,-1.036585,15.462501,-36.831249,3.356250,0.0,1.000000,0.000000,0.000000,0.000000
1782117304.014397,1803439,0.848633,-0.040527,-0.342285,38.658539,14.024390,-3.780488,15.437500,-36.818752,3.375000,0.0,1.000000,0.000000,0.000000,0.000000
1782117304.025397,1803450,0.879395,-0.049316,-0.336426,38.597561,10.060976,-5.426829,15.437500,-36.818752,3.375000,0.0,1.000000,0.000000,0.000000,0.000000
1782117304.034397,1803459,0.878906,-0.058105,-0.335449,36.219513,9.878049,-5.060976,15.300000,-36.812500,3.287500,0.0,1.000000,0.000000,0.000000,0.000000
1782117304.047397,1803472,0.869629,-0.065430,-0.315918,32.256100,7.195122,-3.597561,15.300000,-36.812500,3.287500,0.0,1.000000,0.000000,0.000000,0.000000
1782117304.054397,1803479,0.885742,-0.075684,-0.293945,27.560976,3.170732,-2.012195,15.206250,-36.756252,3.056250,0.0,1.000000,0.000000,0.000000,0.000000
1782117304.064397,1803489,0.936523,-0.089355,-0.273438,25.609756,-0.304878,-2.195122,15.206250,-36.756252,3.056250,0.0,1.000000,0.000000,0.000000,0.000000
1782117304.074397,1803499,0.979004,-0.094238,-0.250977,24.939026,0.670732,-2.073171,15.068750,-36.818752,2.937500,0.0,1.000000,0.000000,0.000000,0.000000
1782117304.085397,1803510,0.992188,-0.083008,-0.211914,26.463415,3.109756,-1.524390,15.068750,-36.818752,2.937500,0.0,1.000000,0.000000,0.000000,0.000000
1782117304.095397,1803520,1.002441,-0.072754,-0.190918,27.743902,2.743902,-2.073171,14.987500,-36.793751,2.706250,0.0,1.000000,0.000000,0.000000,0.000000
1782117304.104397,1803529,1.009766,-0.063477,-0.172363,26.951220,1.280488,-2.256098,14.987500,-36.793751,2.706250,0.0,1.000000,0.000000,0.000000,0.000000
1782117304.115397,1803540,1.020996,-0.038574,-0.156250,25.365854,0.060976,-2.012195,14.900001,-36.862499,2.581250,0.0,1.000000,0.000000,0.000000,0.000000
1782117304.126397,1803551,1.024414,-0.023926,-0.145996,22.439024,0.000000,-2.012195,14.900001,-36.862499,2.581250,0.0,1.000000,0.000000,0.000000,0.000000
1782117304.134397,1803559,1.032715,-0.012695,-0.124512,18.902439,1.341463,-1.585366,15.012500,-36.562500,2.206250,0.0,1.000000,0.000000,0.000000,0.000000
1782117304.144397,1803569,1.034180,-0.013184,-0.112793,14.085366,2.195122,-1.341463,15.012500,-36.562500,2.206250,0.0,1.000000,0.000000,0.000000,0.000000
1782117304.154397,1803579,1.054199,-0.025391,-0.094238,9.939025,3.292683,-0.548781,14.812500,-36.887501,2.262500,0.0,1.000000,0.000000,0.000000,0.000000
1782117304.164397,1803589,1.070312,-0.030762,-0.100098,5.975610,6.524390,0.975610,14.812500,-36.887501,2.262500,0.0,1.000000,0.000000,0.000000,0.000000
1782117304.174397,1803599,1.041504,-0.031738,-0.120117,2.682927,7.987805,1.280488,14.912500,-36.725002,2.231250,0.0,1.000000,0.000000,0.000000,0.000000
1782117304.184397,1803609,0.998535,-0.042969,-0.125488,-0.670732,6.585366,1.463415,14.912500,-36.725002,2.231250,0.0,1.000000,0.000000,0.000000,0.000000
1782117304.194397,1803619,0.955078,-0.043457,-0.158203,-5.000000,5.182927,2.621951,15.000000,-36.650002,2.312500,0.0,1.000000,0.000000,0.000000,0.000000
1782117304.205397,1803630,0.943848,-0.034180,-0.177734,-9.390244,1.829268,2.743902,15.000000,-36.650002,2.312500,0.0,1.000000,0.000000,0.000000,0.000000
1782117304.214397,1803639,0.964355,-0.031738,-0.216797,-12.682927,-1.097561,1.036585,14.975000,-36.781250,2.437500,0.0,1.000000,0.000000,0.000000,0.000000
1782117304.224397,1803649,0.978516,-0.043945,-0.240723,-14.146341,-2.134146,-0.548781,14.975000,-36.781250,2.437500,0.0,1.000000,0.000000,0.000000,0.000000
1782117304.234397,1803659,0.977051,-0.066895,-0.255371,-13.353659,-2.012195,-1.036585,14.968750,-36.793751,2.500000,0.0,1.000000,0.000000,0.000000,0.000000
1782117304.245397,1803670,0.958008,-0.088379,-0.264648,-11.951220,-1.951220,-0.731707,14.968750,-36.793751,2.500000,0.0,1.000000,0.000000,0.000000,0.000000
1782117304.254397,1803679,0.943359,-0.102539,-0.275391,-9.695122,-3.963415,-0.792683,15.106250,-36.687500,2.537500,0.0,1.000000,0.000000,0.000000,0.000000
1782117304.264397,1803689,0.960938,-0.108398,-0.275391,-6.646342,-5.670732,-1.463415,15.106250,-36.687500,2.537500,0.0,1.000000,0.000000,0.000000,0.000000
1782117304.274397,1803699,0.995605,-0.109375,-0.271973,-2.682927,-5.853659,-2.378049,15.043750,-36.799999,2.643750,0.0,1.000000,0.000000,0.000000,0.000000
1782117304.287397,1803712,1.014648,-0.108887,-0.277344,1.768293,-3.475610,-4.207317,15.043750,-36.799999,2.643750,0.0,1.000000,0.000000,0.000000,0.000000
1782117304.294397,1803719,1.003906,-0.104492,-0.273926,5.609756,-0.792683,-5.731708,15.200000,-36.693752,2.512500,0.0,1.000000,0.000000,0.000000,0.000000
1782117304.304397,1803729,0.968750,-0.087402,-0.262695,7.500000,0.426829,-6.402439,15.200000,-36.693752,2.512500,0.0,1.000000,0.000000,0.000000,0.000000
1782117304.314397,1803739,0.942383,-0.067871,-0.264648,7.439024,-0.487805,-6.707317,15.268750,-36.700001,2.550000,0.0,1.000000,0.000000,0.000000,0.000000
1782117304.325397,1803750,0.939453,-0.041992,-0.266113,5.853659,-1.768293,-6.951220,15.268750,-36.700001,2.550000,0.0,1.000000,0.000000,0.000000,0.000000
1782117304.335397,1803760,0.952148,-0.033691,-0.275879,3.841464,-3.048780,-7.560976,15.350000,-36.700001,2.537500,0.0,1.000000,0.000000,0.000000,0.000000
1782117304.345397,1803770,0.960449,-0.027344,-0.280762,1.829268,-2.804878,-7.439024,15.350000,-36.700001,2.537500,0.0,1.000000,0.000000,0.000000,0.000000
1782117304.355397,1803780,0.952637,-0.014160,-0.291504,-1.341463,-1.890244,-6.219512,15.437500,-36.718750,2.518750,0.0,1.000000,0.000000,0.000000,0.000000
1782117304.365397,1803790,0.943848,-0.000488,-0.292480,-5.243903,-1.890244,-4.573171,15.437500,-36.718750,2.518750,0.0,1.000000,0.000000,0.000000,0.000000
1782117304.375397,1803800,0.950684,0.012695,-0.303223,-9.756098,-3.048780,-2.682927,15.487500,-36.737499,2.612500,0.0,1.000000,0.000000,0.000000,0.000000
1782117304.384397,1803809,0.953125,0.007324,-0.316406,-13.658537,-4.390244,-2.317073,15.487500,-36.737499,2.612500,0.0,1.000000,0.000000,0.000000,0.000000
1782117304.394397,1803819,0.957031,-0.009766,-0.317871,-16.768293,-5.426829,-1.829268,15.550000,-36.756252,2.650000,0.0,1.000000,0.000000,0.000000,0.000000
1782117304.407397,1803832,0.970215,-0.028320,-0.333496,-18.780489,-6.585366,-0.182927,15.550000,-36.756252,2.650000,0.0,1.000000,0.000000,0.000000,0.000000
1782117304.414397,1803839,0.947754,-0.044434,-0.334961,-20.243902,-4.573171,1.280488,15.712501,-36.668751,2.712500,0.0,1.000000,0.000000,0.000000,0.000000
1782117304.424397,1803849,0.952637,-0.055664,-0.343750,-21.097561,-5.670732,1.158537,15.712501,-36.668751,2.712500,0.0,1.000000,0.000000,0.000000,0.000000
1782117304.434397,1803859,0.962891,-0.070312,-0.353027,-22.865854,-5.182927,3.109756,15.812500,-36.587502,2.812500,0.0,1.000000,0.000000,0.000000,0.000000
1782117304.444397,1803869,0.947266,-0.064941,-0.362793,-24.024391,-2.378049,2.804878,15.812500,-36.587502,2.812500,0.0,1.000000,0.000000,0.000000,0.000000
1782117304.454397,1803879,0.947754,-0.071777,-0.360840,-24.817074,-1.890244,3.414634,15.806251,-36.712502,2.975000,0.0,1.000000,0.000000,0.000000,0.000000
1782117304.464397,1803889,0.929199,-0.071289,-0.361816,-25.609756,0.243902,4.268293,15.806251,-36.712502,2.975000,0.0,1.000000,0.000000,0.000000,0.000000
1782117304.474397,1803899,0.914551,-0.063477,-0.369629,-25.487806,0.670732,3.719512,15.856250,-36.681252,3.181250,0.0,1.000000,0.000000,0.000000,0.000000
1782117304.484397,1803909,0.931641,-0.066406,-0.368652,-24.390244,-1.097561,4.085366,15.856250,-36.681252,3.181250,0.0,1.000000,0.000000,0.000000,0.000000
1782117304.494397,1803919,0.924805,-0.062988,-0.372559,-23.353659,-0.548781,4.085366,15.893750,-36.687500,3.356250,0.0,1.000000,0.000000,0.000000,0.000000
1782117304.505397,1803930,0.912109,-0.062012,-0.377441,-22.195122,-1.402439,4.817073,15.893750,-36.687500,3.356250,0.0,1.000000,0.000000,0.000000,0.000000
1782117304.515397,1803940,0.895508,-0.062988,-0.382324,-20.548780,-2.743902,5.487805,15.950000,-36.706249,3.481250,0.0,1.000000,0.000000,0.000000,0.000000
1782117304.524397,1803949,0.904785,-0.052734,-0.384277,-19.268293,-5.304878,5.914634,15.950000,-36.706249,3.481250,0.0,1.000000,0.000000,0.000000,0.000000
1782117304.535397,1803960,0.924805,-0.039062,-0.380371,-18.292683,-5.914634,6.097561,15.956250,-36.762501,3.581250,0.0,1.000000,0.000000,0.000000,0.000000
1782117304.545397,1803970,0.931641,-0.038574,-0.375488,-17.560976,-3.963415,7.621952,15.956250,-36.762501,3.581250,0.0,1.000000,0.000000,0.000000,0.000000
1782117304.554397,1803979,0.907227,-0.036621,-0.371094,-16.890244,-2.621951,7.073171,15.906250,-36.806252,3.618750,0.0,1.000000,0.000000,0.000000,0.000000
1782117304.564397,1803989,0.913574,-0.042969,-0.364746,-17.073172,-4.512195,6.951220,15.906250,-36.806252,3.618750,0.0,1.000000,0.000000,0.000000,0.000000
1782117304.574397,1803999,0.922363,-0.046875,-0.366699,-16.951220,-4.146341,6.585366,15.887500,-36.950001,3.687500,0.0,1.000000,0.000000,0.000000,0.000000
1782117304.584397,1804009,0.911133,-0.051758,-0.367188,-16.524391,-3.048780,5.609756,15.887500,-36.950001,3.687500,0.0,1.000000,0.000000,0.000000,0.000000
1782117304.594397,1804019,0.909180,-0.054199,-0.362305,-15.487805,-2.804878,4.512195,15.925000,-36.893749,3.737500,0.0,1.000000,0.000000,0.000000,0.000000
1782117304.604397,1804029,0.916016,-0.047363,-0.368652,-14.695123,-2.682927,4.573171,15.925000,-36.893749,3.737500,0.0,1.000000,0.000000,0.000000,0.000000
1782117304.614397,1804039,0.964844,-0.034668,-0.365723,-14.451220,-2.073171,6.829268,15.837501,-37.000000,3.787500,0.0,1.000000,0.000000,0.000000,0.000000
1782117304.624397,1804049,0.914062,-0.017090,-0.361816,-16.036585,2.743902,7.621952,15.837501,-37.000000,3.787500,0.0,1.000000,0.000000,0.000000,0.000000
1782117304.634397,1804059,0.871094,-0.011230,-0.353516,-16.158537,0.000000,4.634146,15.887500,-36.962502,3.850000,0.0,1.000000,0.000000,0.000000,0.000000
1782117304.644397,1804069,0.906250,-0.022461,-0.357422,-17.195122,-5.670732,3.658537,15.887500,-36.962502,3.850000,0.0,1.000000,0.000000,0.000000,0.000000
1782117304.654397,1804079,0.933594,-0.034668,-0.365723,-19.390244,-5.548780,4.512195,15.912500,-37.118752,3.950000,0.0,1.000000,0.000000,0.000000,0.000000
1782117304.664397,1804089,0.916016,-0.043457,-0.371582,-20.853659,-2.804878,4.939024,15.912500,-37.118752,3.950000,0.0,1.000000,0.000000,0.000000,0.000000
1782117304.674397,1804099,0.898926,-0.054199,-0.376465,-21.646341,-3.170732,5.060976,15.968750,-37.125000,3.968750,0.0,1.000000,0.000000,0.000000,0.000000
1782117304.684397,1804109,0.916992,-0.054688,-0.377930,-21.768293,-5.365854,5.609756,15.968750,-37.125000,3.968750,0.0,1.000000,0.000000,0.000000,0.000000
1782117304.694397,1804119,0.985840,-0.057129,-0.375977,-22.804878,-4.024390,9.817074,15.912500,-37.281250,4.175000,0.0,1.000000,0.000000,0.000000,0.000000
1782117304.704397,1804129,0.888184,-0.042969,-0.393555,-23.658537,2.378049,7.621952,15.912500,-37.281250,4.175000,0.0,1.000000,0.000000,0.000000,0.000000
1782117304.715397,1804140,0.853516,-0.039062,-0.393066,-22.560976,-3.597561,4.756098,15.931251,-37.237499,4.256250,0.0,1.000000,0.000000,0.000000,0.000000
1782117304.725397,1804150,0.902344,-0.034668,-0.398926,-22.865854,-7.134147,4.939024,15.925000,-37.343750,4.293750,0.0,1.000000,0.000000,0.000000,0.000000
1782117304.734397,1804159,0.915527,-0.025391,-0.398438,-23.170732,-5.365854,4.451220,15.925000,-37.343750,4.293750,0.0,1.000000,0.000000,0.000000,0.000000
1782117304.744397,1804169,0.888184,-0.029785,-0.399902,-24.268293,-5.243903,3.658537,15.925000,-37.343750,4.293750,0.0,1.000000,0.000000,0.000000,0.000000
1782117304.755397,1804180,0.871582,-0.033203,-0.410645,-26.402439,-8.414635,3.658537,15.981250,-37.418751,4.281250,0.0,1.000000,0.000000,0.000000,0.000000
1782117304.764397,1804189,0.893555,-0.039062,-0.412109,-27.195122,-11.097561,2.560976,15.981250,-37.418751,4.281250,0.0,1.000000,0.000000,0.000000,0.000000
1782117304.775397,1804200,0.915039,-0.077148,-0.415039,-24.573172,-11.036586,0.182927,15.962501,-37.518749,4.387500,0.0,1.000000,0.000000,0.000000,0.000000
1782117304.785397,1804210,0.900879,-0.137695,-0.420410,-20.426830,-10.182927,-0.731707,16.193750,-37.256252,4.162500,0.0,1.000000,0.000000,0.000000,0.000000
1782117304.795397,1804220,0.888184,-0.173340,-0.432129,-16.463415,-11.341464,-0.426829,16.193750,-37.256252,4.162500,0.0,1.000000,0.000000,0.000000,0.000000
1782117304.805397,1804230,0.895996,-0.162598,-0.453613,-12.439025,-12.256098,-0.182927,16.193750,-37.256252,4.162500,0.0,1.000000,0.000000,0.000000,0.000000
1782117304.815397,1804240,0.987793,-0.137695,-0.458496,-8.475610,-10.853659,3.902439,16.075001,-37.462502,4.150000,0.0,1.000000,0.000000,0.000000,0.000000
1782117304.825397,1804250,0.886230,-0.083008,-0.469727,-3.231707,-3.048780,-0.121951,16.156250,-37.381252,4.043750,0.0,1.000000,0.000000,0.000000,0.000000
1782117304.834397,1804259,0.886230,-0.058594,-0.458496,2.865854,-8.841464,-4.939024,16.156250,-37.381252,4.043750,0.0,1.000000,0.000000,0.000000,0.000000
1782117304.844397,1804269,0.937988,-0.064941,-0.450684,7.073171,-9.207317,-4.573171,16.175001,-37.443752,3.831250,0.0,1.000000,0.000000,0.000000,0.000000
1782117304.854397,1804279,0.905762,-0.049316,-0.442871,9.329268,-5.914634,-3.170732,16.175001,-37.443752,3.831250,0.0,1.000000,0.000000,0.000000,0.000000
1782117304.865397,1804290,0.872070,0.038574,-0.448730,9.085366,-9.756098,-3.109756,16.218750,-37.350002,3.525000,0.0,1.000000,0.000000,0.000000,0.000000
1782117304.874397,1804299,0.892090,0.059570,-0.446289,7.317073,-11.097561,-3.902439,16.218750,-37.350002,3.525000,0.0,1.000000,0.000000,0.000000,0.000000
1782117304.884397,1804309,0.906738,0.048340,-0.438477,5.670732,-10.182927,-3.963415,16.243750,-37.456249,3.318750,0.0,1.000000,0.000000,0.000000,0.000000
1782117304.894397,1804319,0.889648,0.020996,-0.424316,4.207317,-10.000000,-3.597561,16.243750,-37.456249,3.318750,0.0,1.000000,0.000000,0.000000,0.000000
1782117304.905397,1804330,0.891602,0.000488,-0.416016,2.560976,-10.426829,-3.353659,16.425001,-37.056252,2.900000,0.0,1.000000,0.000000,0.000000,0.000000
1782117304.914397,1804339,0.895508,-0.020020,-0.426270,1.463415,-9.695122,-3.536585,16.425001,-37.056252,2.900000,0.0,1.000000,0.000000,0.000000,0.000000
1782117304.924397,1804349,0.891113,-0.039062,-0.438477,0.975610,-9.390244,-4.024390,16.325001,-37.381252,2.956250,0.0,1.000000,0.000000,0.000000,0.000000
1782117304.934397,1804359,0.896973,-0.055176,-0.448242,1.341463,-10.000000,-4.451220,16.325001,-37.381252,2.956250,0.0,1.000000,0.000000,0.000000,0.000000
1782117304.945397,1804370,0.905273,-0.082520,-0.453613,3.353659,-9.939025,-4.573171,16.418751,-37.256252,2.737500,0.0,1.000000,0.000000,0.000000,0.000000
1782117304.954397,1804379,0.908203,-0.095703,-0.464844,7.256098,-9.512196,-4.695122,16.418751,-37.256252,2.737500,0.0,1.000000,0.000000,0.000000,0.000000
1782117304.964397,1804389,0.907227,-0.083496,-0.469727,11.402439,-9.024390,-4.634146,16.425001,-37.262501,2.531250,0.0,1.000000,0.000000,0.000000,0.000000
1782117304.974397,1804399,0.906738,-0.045898,-0.461426,14.695123,-9.451220,-5.000000,16.425001,-37.262501,2.531250,0.0,1.000000,0.000000,0.000000,0.000000
1782117304.984397,1804409,0.908691,-0.006836,-0.447754,15.975610,-9.390244,-5.426829,16.575001,-37.068752,2.162500,0.0,1.000000,0.000000,0.000000,0.000000
1782117304.994397,1804419,0.881348,0.022461,-0.434570,14.878049,-9.268292,-5.731708,16.575001,-37.068752,2.162500,0.0,1.000000,0.000000,0.000000,0.000000
1782117305.004397,1804429,0.859375,0.038086,-0.437988,11.890244,-10.792684,-6.219512,16.525000,-37.162502,2.006250,0.0,1.000000,0.000000,0.000000,0.000000
1782117305.014397,1804439,0.867188,0.042969,-0.449707,8.292683,-12.804878,-6.707317,16.525000,-37.162502,2.006250,0.0,1.000000,0.000000,0.000000,0.000000
1782117305.024397,1804449,0.888672,0.033203,-0.459473,5.304878,-14.085366,-6.890244,16.725000,-36.762501,1.512500,0.0,1.000000,0.000000,0.000000,0.000000
1782117305.034397,1804459,0.904297,0.016602,-0.454590,3.475610,-13.963415,-6.951220,16.725000,-36.762501,1.512500,0.0,1.000000,0.000000,0.000000,0.000000
1782117305.044397,1804469,0.914551,-0.004395,-0.445801,2.926829,-13.597561,-6.646342,16.812500,-36.781250,1.293750,0.0,1.000000,0.000000,0.000000,0.000000
1782117305.054397,1804479,0.913086,-0.024902,-0.436523,3.170732,-13.902439,-6.463415,16.812500,-36.781250,1.293750,0.0,1.000000,0.000000,0.000000,0.000000
1782117305.064397,1804489,0.914062,-0.034180,-0.436035,3.170732,-14.085366,-5.853659,16.893751,-36.706249,1.068750,0.0,1.000000,0.000000,0.000000,0.000000
1782117305.074397,1804499,0.931152,-0.030273,-0.436523,2.743902,-13.719513,-5.000000,16.893751,-36.706249,1.068750,0.0,1.000000,0.000000,0.000000,0.000000
1782117305.084397,1804509,0.937012,-0.020996,-0.432129,2.378049,-12.804878,-4.756098,17.050001,-36.587502,0.775000,0.0,1.000000,0.000000,0.000000,0.000000
1782117305.094397,1804519,0.926270,-0.020996,-0.425781,2.500000,-10.731708,-4.329268,17.050001,-36.587502,0.775000,0.0,1.000000,0.000000,0.000000,0.000000
1782117305.104397,1804529,0.923828,-0.025391,-0.418457,3.170732,-10.243902,-3.597561,16.906250,-36.862499,0.762500,0.0,1.000000,0.000000,0.000000,0.000000
1782117305.115397,1804540,0.921875,-0.027344,-0.415039,3.780488,-9.573171,-2.987805,16.906250,-36.862499,0.762500,0.0,1.000000,0.000000,0.000000,0.000000
1782117305.124397,1804549,0.918945,-0.032715,-0.420410,3.597561,-9.085366,-2.439024,17.218750,-36.312500,0.250000,0.0,1.000000,0.000000,0.000000,0.000000
1782117305.135397,1804560,0.912598,-0.030762,-0.434082,2.682927,-8.597561,-1.951220,17.218750,-36.312500,0.250000,0.0,1.000000,0.000000,0.000000,0.000000
1782117305.144397,1804569,0.905762,-0.021484,-0.452148,1.463415,-8.414635,-1.707317,16.912500,-36.775002,0.387500,0.0,1.000000,0.000000,0.000000,0.000000
1782117305.155397,1804580,0.896973,-0.009277,-0.463867,0.731707,-8.170732,-1.585366,16.912500,-36.775002,0.387500,0.0,1.000000,0.000000,0.000000,0.000000
1782117305.165397,1804590,0.892090,0.000488,-0.466309,1.219512,-7.926829,-1.768293,17.031250,-36.674999,0.162500,0.0,1.000000,0.000000,0.000000,0.000000
1782117305.175397,1804600,0.895508,0.001953,-0.464844,1.646341,-7.743903,-1.890244,17.031250,-36.674999,0.162500,0.0,1.000000,0.000000,0.000000,0.000000
1782117305.185397,1804610,0.904785,0.000000,-0.459473,1.890244,-6.768293,-1.707317,16.987501,-36.812500,0.112500,0.0,1.000000,0.000000,0.000000,0.000000
1782117305.195397,1804620,0.890137,-0.000977,-0.455566,1.463415,-5.609756,-1.829268,16.987501,-36.812500,0.112500,0.0,1.000000,0.000000,0.000000,0.000000
1782117305.205397,1804630,0.885742,-0.002930,-0.464355,-0.121951,-5.609756,-1.280488,17.143751,-36.531250,-0.131250,0.0,1.000000,0.000000,0.000000,0.000000
1782117305.215397,1804640,0.889160,0.000488,-0.461914,-1.341463,-5.609756,-1.097561,17.143751,-36.531250,-0.131250,0.0,1.000000,0.000000,0.000000,0.000000
1782117305.224397,1804649,0.886230,-0.007324,-0.459473,-2.560976,-5.121951,-1.097561,17.056250,-36.718750,-0.075000,0.0,1.000000,0.000000,0.000000,0.000000
1782117305.234397,1804659,0.880371,-0.023438,-0.462402,-3.597561,-5.121951,-0.914634,17.056250,-36.718750,-0.075000,0.0,1.000000,0.000000,0.000000,0.000000
1782117305.244397,1804669,0.885254,-0.039551,-0.465820,-3.841464,-5.060976,-0.731707,17.018751,-36.787502,-0.037500,0.0,1.000000,0.000000,0.000000,0.000000
1782117305.254397,1804679,0.890137,-0.051758,-0.467285,-3.841464,-4.085366,-0.365854,17.018751,-36.787502,-0.037500,0.0,1.000000,0.000000,0.000000,0.000000
1782117305.264397,1804689,0.884277,-0.050293,-0.466797,-3.780488,-3.109756,0.182927,17.093750,-36.731251,-0.162500,0.0,1.000000,0.000000,0.000000,0.000000
1782117305.274397,1804699,0.883301,-0.039062,-0.464844,-3.597561,-2.987805,0.304878,17.093750,-36.731251,-0.162500,0.0,1.000000,0.000000,0.000000,0.000000
1782117305.284397,1804709,0.879883,-0.033691,-0.465820,-3.536585,-2.743902,0.304878,17.062500,-36.743752,-0.162500,0.0,1.000000,0.000000,0.000000,0.000000
1782117305.294397,1804719,0.875977,-0.033203,-0.470703,-3.414634,-3.292683,0.365854,17.062500,-36.743752,-0.162500,0.0,1.000000,0.000000,0.000000,0.000000
1782117305.304397,1804729,0.885742,-0.034668,-0.476074,-2.926829,-3.414634,0.304878,17.025000,-36.700001,-0.218750,0.0,1.000000,0.000000,0.000000,0.000000
1782117305.314397,1804739,0.883789,-0.028320,-0.473633,-2.256098,-2.865854,0.243902,17.025000,-36.700001,-0.218750,0.0,1.000000,0.000000,0.000000,0.000000
1782117305.324397,1804749,0.882324,-0.016602,-0.479492,-1.829268,-2.682927,-0.060976,17.031250,-36.681252,-0.300000,0.0,1.000000,0.000000,0.000000,0.000000
1782117305.335397,1804760,0.886230,-0.004883,-0.480469,-1.402439,-2.317073,-0.548781,17.031250,-36.681252,-0.300000,0.0,1.000000,0.000000,0.000000,0.000000
1782117305.345397,1804770,0.878418,0.003906,-0.477539,-1.219512,-1.829268,-0.609756,16.993750,-36.750000,-0.218750,0.0,1.000000,0.000000,0.000000,0.000000
1782117305.354397,1804779,0.873535,0.006836,-0.472656,-1.463415,-1.951220,-0.609756,16.993750,-36.750000,-0.218750,0.0,1.000000,0.000000,0.000000,0.000000
1782117305.364397,1804789,0.870605,0.005859,-0.471191,-1.890244,-2.134146,-0.914634,17.006250,-36.781250,-0.268750,0.0,1.000000,0.000000,0.000000,0.000000
1782117305.374397,1804799,0.875488,-0.001465,-0.473145,-2.682927,-2.621951,-0.975610,17.006250,-36.781250,-0.268750,0.0,1.000000,0.000000,0.000000,0.000000
1782117305.385397,1804810,0.881836,-0.006348,-0.474121,-3.170732,-2.500000,-1.036585,17.050001,-36.693752,-0.343750,0.0,1.000000,0.000000,0.000000,0.000000
1782117305.394397,1804819,0.877441,-0.009766,-0.476074,-3.170732,-1.829268,-0.792683,17.050001,-36.693752,-0.343750,0.0,1.000000,0.000000,0.000000,0.000000
1782117305.404397,1804829,0.873047,-0.012207,-0.481934,-3.170732,-2.256098,-0.487805,17.075001,-36.725002,-0.293750,0.0,1.000000,0.000000,0.000000,0.000000
1782117305.414397,1804839,0.876465,-0.009277,-0.480957,-2.804878,-2.378049,-0.670732,17.075001,-36.725002,-0.293750,0.0,1.000000,0.000000,0.000000,0.000000
1782117305.424397,1804849,0.882812,-0.008301,-0.479004,-2.621951,-2.439024,-0.670732,17.012501,-36.750000,-0.350000,0.0,1.000000,0.000000,0.000000,0.000000
1782117305.434397,1804859,0.881836,-0.009766,-0.480957,-3.048780,-1.951220,-0.487805,17.012501,-36.750000,-0.350000,0.0,1.000000,0.000000,0.000000,0.000000
1782117305.444397,1804869,0.877441,-0.009277,-0.479980,-3.475610,-1.890244,-0.243902,17.125000,-36.787502,-0.275000,0.0,1.000000,0.000000,0.000000,0.000000
1782117305.454397,1804879,0.876953,-0.005371,-0.473145,-4.207317,-2.378049,0.121951,17.125000,-36.787502,-0.275000,0.0,1.000000,0.000000,0.000000,0.000000
1782117305.464397,1804889,0.879883,-0.002930,-0.468750,-4.695122,-2.317073,0.121951,17.075001,-36.687500,-0.306250,0.0,1.000000,0.000000,0.000000,0.000000
1782117305.474397,1804899,0.884277,-0.008301,-0.467285,-4.695122,-2.073171,-0.121951,17.075001,-36.687500,-0.306250,0.0,1.000000,0.000000,0.000000,0.000000
1782117305.484397,1804909,0.885254,-0.016113,-0.470215,-4.268293,-1.829268,-0.060976,17.068750,-36.806252,-0.256250,0.0,1.000000,0.000000,0.000000,0.000000
1782117305.494397,1804919,0.891602,-0.012695,-0.468750,-3.963415,-1.280488,0.000000,17.068750,-36.806252,-0.256250,0.0,1.000000,0.000000,0.000000,0.000000
1782117305.504397,1804929,0.892578,-0.013184,-0.467285,-4.085366,-0.853659,0.365854,17.081251,-36.812500,-0.243750,0.0,1.000000,0.000000,0.000000,0.000000
1782117305.514397,1804939,0.886719,-0.010742,-0.465332,-4.573171,-0.365854,0.731707,17.081251,-36.812500,-0.243750,0.0,1.000000,0.000000,0.000000,0.000000
1782117305.524397,1804949,0.884766,-0.010742,-0.463867,-5.121951,-0.670732,0.975610,17.012501,-36.793751,-0.206250,0.0,1.000000,0.000000,0.000000,0.000000
1782117305.534397,1804959,0.889160,-0.013672,-0.465332,-5.487805,-1.097561,0.914634,17.012501,-36.793751,-0.206250,0.0,1.000000,0.000000,0.000000,0.000000
1782117305.544397,1804969,0.890625,-0.015625,-0.464355,-5.914634,-0.975610,0.975610,17.125000,-36.806252,-0.237500,0.0,1.000000,0.000000,0.000000,0.000000
1782117305.554397,1804979,0.890625,-0.014648,-0.464355,-5.853659,-0.609756,0.975610,17.125000,-36.806252,-0.237500,0.0,1.000000,0.000000,0.000000,0.000000
1782117305.564397,1804989,0.890625,-0.014648,-0.461914,-5.670732,-0.304878,0.975610,17.137501,-36.781250,-0.206250,0.0,1.000000,0.000000,0.000000,0.000000
1782117305.575397,1805000,0.888184,-0.014648,-0.459473,-5.792683,-0.304878,1.158537,17.137501,-36.781250,-0.206250,0.0,1.000000,0.000000,0.000000,0.000000
1782117305.584397,1805009,0.890137,-0.013672,-0.458984,-5.975610,-0.365854,1.280488,17.075001,-36.856251,-0.118750,0.0,1.000000,0.000000,0.000000,0.000000
1782117305.595397,1805020,0.894531,-0.014160,-0.458008,-6.158537,-0.060976,1.280488,17.075001,-36.856251,-0.118750,0.0,1.000000,0.000000,0.000000,0.000000
1782117305.605397,1805030,0.891602,-0.019531,-0.456055,-5.975610,0.365854,1.341463,17.062500,-36.956249,-0.025000,0.0,1.000000,0.000000,0.000000,0.000000
1782117305.615397,1805040,0.891113,-0.022949,-0.455078,-5.121951,0.426829,1.341463,17.062500,-36.956249,-0.025000,0.0,1.000000,0.000000,0.000000,0.000000
1782117305.625397,1805050,0.894043,-0.024902,-0.452637,-4.207317,0.670732,1.219512,17.068750,-36.962502,0.012500,0.0,1.000000,0.000000,0.000000,0.000000
1782117305.634397,1805059,0.892578,-0.025879,-0.453613,-3.719512,1.097561,1.158537,17.068750,-36.962502,0.012500,0.0,1.000000,0.000000,0.000000,0.000000
1782117305.644397,1805069,0.889648,-0.027832,-0.456055,-3.414634,1.280488,1.036585,16.962500,-36.975002,0.143750,0.0,1.000000,0.000000,0.000000,0.000000
1782117305.656397,1805081,0.886719,-0.025391,-0.457520,-3.048780,1.402439,0.853659,16.962500,-36.975002,0.143750,0.0,1.000000,0.000000,0.000000,0.000000
1782117305.664397,1805089,0.886230,-0.018066,-0.460449,-2.621951,1.158537,0.609756,17.156250,-36.700001,0.025000,0.0,1.000000,0.000000,0.000000,0.000000
1782117305.675397,1805100,0.888184,-0.014648,-0.463379,-2.134146,1.097561,0.243902,17.156250,-36.700001,0.025000,0.0,1.000000,0.000000,0.000000,0.000000
1782117305.684397,1805109,0.886719,-0.014648,-0.466309,-1.402439,1.036585,0.000000,17.037500,-36.943752,0.168750,0.0,1.000000,0.000000,0.000000,0.000000
1782117305.694397,1805119,0.887695,-0.016113,-0.466797,-0.609756,0.731707,-0.060976,17.037500,-36.943752,0.168750,0.0,1.000000,0.000000,0.000000,0.000000
1782117305.704397,1805129,0.891602,-0.018555,-0.462891,0.121951,0.731707,0.000000,17.018751,-36.987499,0.237500,0.0,1.000000,0.000000,0.000000,0.000000
1782117305.715397,1805140,0.892090,-0.020996,-0.457031,0.731707,0.975610,0.060976,17.018751,-36.987499,0.237500,0.0,1.000000,0.000000,0.000000,0.000000
1782117305.724397,1805149,0.891113,-0.018066,-0.454590,0.914634,1.402439,0.000000,17.025000,-37.018749,0.225000,0.0,1.000000,0.000000,0.000000,0.000000
1782117305.735397,1805160,0.887695,-0.010254,-0.453613,0.182927,1.524390,0.000000,17.025000,-37.018749,0.225000,0.0,1.000000,0.000000,0.000000,0.000000
1782117305.745397,1805170,0.887695,-0.010254,-0.453613,0.182927,1.524390,0.000000,17.068750,-36.943752,0.181250,0.0,1.000000,0.000000,0.000000,0.000000
1782117305.755397,1805180,0.886719,-0.007812,-0.456055,-0.182927,1.463415,0.000000,17.068750,-36.943752,0.181250,0.0,1.000000,0.000000,0.000000,0.000000
1782117305.765397,1805190,0.887207,-0.012695,-0.461426,-0.670732,1.219512,-0.060976,17.056250,-36.987499,0.262500,0.0,1.000000,0.000000,0.000000,0.000000
1782117305.775397,1805200,0.886719,-0.016602,-0.462891,-0.609756,1.219512,0.060976,17.056250,-36.987499,0.262500,0.0,1.000000,0.000000,0.000000,0.000000
1782117305.785397,1805210,0.889160,-0.019043,-0.464355,-0.365854,1.341463,0.060976,17.093750,-36.987499,0.237500,0.0,1.000000,0.000000,0.000000,0.000000
1782117305.794397,1805219,0.892090,-0.020508,-0.462402,0.000000,1.463415,0.182927,17.093750,-36.987499,0.237500,0.0,1.000000,0.000000,0.000000,0.000000
1782117305.804397,1805229,0.894043,-0.019531,-0.460449,0.182927,1.646341,0.365854,17.012501,-37.081249,0.375000,0.0,1.000000,0.000000,0.000000,0.000000
1782117305.814397,1805239,0.892090,-0.017578,-0.457031,0.121951,2.012195,0.426829,17.012501,-37.081249,0.375000,0.0,1.000000,0.000000,0.000000,0.000000
1782117305.824397,1805249,0.886230,-0.018066,-0.458984,-0.243902,1.951220,0.365854,17.081251,-37.062500,0.400000,0.0,1.000000,0.000000,0.000000,0.000000
1782117305.834397,1805259,0.889160,-0.018555,-0.460938,-0.487805,1.829268,0.182927,17.081251,-37.062500,0.400000,0.0,1.000000,0.000000,0.000000,0.000000
1782117305.844397,1805269,0.888184,-0.023926,-0.461426,-0.304878,1.829268,0.000000,17.000000,-37.125000,0.412500,0.0,1.000000,0.000000,0.000000,0.000000
1782117305.854397,1805279,0.888184,-0.027832,-0.462402,0.243902,1.707317,0.000000,17.000000,-37.125000,0.412500,0.0,1.000000,0.000000,0.000000,0.000000
1782117305.864397,1805289,0.889160,-0.024902,-0.458008,0.731707,1.646341,0.000000,17.025000,-37.106251,0.456250,0.0,1.000000,0.000000,0.000000,0.000000
1782117305.874397,1805299,0.888184,-0.023926,-0.456543,0.975610,1.585366,0.000000,17.025000,-37.106251,0.456250,0.0,1.000000,0.000000,0.000000,0.000000
1782117305.884397,1805309,0.885742,-0.019531,-0.455078,0.853659,1.585366,0.121951,17.031250,-37.181252,0.531250,0.0,1.000000,0.000000,0.000000,0.000000
1782117305.894397,1805319,0.889160,-0.015137,-0.452637,0.914634,1.402439,-0.121951,17.031250,-37.181252,0.531250,0.0,1.000000,0.000000,0.000000,0.000000
1782117305.904397,1805329,0.895996,-0.018066,-0.451172,1.036585,1.402439,-0.304878,17.068750,-37.112499,0.506250,0.0,1.000000,0.000000,0.000000,0.000000
1782117305.914397,1805339,0.897461,-0.020508,-0.449219,1.219512,1.951220,-0.487805,17.068750,-37.112499,0.506250,0.0,1.000000,0.000000,0.000000,0.000000
1782117305.924397,1805349,0.900391,-0.022949,-0.449707,1.463415,2.134146,-0.670732,17.012501,-37.162502,0.593750,0.0,1.000000,0.000000,0.000000,0.000000
1782117305.934397,1805359,0.895508,-0.023926,-0.452148,1.768293,2.439024,-0.609756,17.012501,-37.162502,0.593750,0.0,1.000000,0.000000,0.000000,0.000000
1782117305.945397,1805370,0.888672,-0.022949,-0.453125,1.768293,2.195122,-0.304878,16.993750,-37.181252,0.575000,0.0,1.000000,0.000000,0.000000,0.000000
1782117305.956397,1805381,0.889648,-0.023926,-0.447754,1.585366,1.890244,-0.304878,16.993750,-37.181252,0.575000,0.0,1.000000,0.000000,0.000000,0.000000
1782117305.964397,1805389,0.886230,-0.027344,-0.443848,1.402439,1.707317,-0.243902,17.018751,-37.162502,0.656250,0.0,1.000000,0.000000,0.000000,0.000000
1782117305.974397,1805399,0.891602,-0.031250,-0.442383,0.975610,1.341463,0.060976,17.018751,-37.162502,0.656250,0.0,1.000000,0.000000,0.000000,0.000000
1782117305.984397,1805409,0.892578,-0.028320,-0.443848,0.975610,1.646341,-0.182927,17.037500,-37.162502,0.537500,0.0,1.000000,0.000000,0.000000,0.000000
1782117305.995397,1805420,0.891602,-0.022461,-0.446289,0.853659,1.585366,-0.426829,17.037500,-37.162502,0.537500,0.0,1.000000,0.000000,0.000000,0.000000
1782117306.005397,1805430,0.897949,-0.020508,-0.450195,0.731707,1.402439,-0.609756,16.906250,-37.212502,0.700000,0.0,1.000000,0.000000,0.000000,0.000000
1782117306.016397,1805441,0.896973,-0.019043,-0.454590,0.609756,1.524390,-0.731707,16.906250,-37.212502,0.700000,0.0,1.000000,0.000000,0.000000,0.000000
1782117306.024397,1805449,0.893066,-0.017578,-0.452148,0.670732,1.341463,-0.731707,17.075001,-37.062500,0.687500,0.0,1.000000,0.000000,0.000000,0.000000
1782117306.034397,1805459,0.894531,-0.018555,-0.448242,0.548781,1.097561,-0.670732,17.075001,-37.062500,0.687500,0.0,1.000000,0.000000,0.000000,0.000000
1782117306.044397,1805469,0.894531,-0.021484,-0.444336,0.548781,1.097561,-0.487805,17.018751,-37.206249,0.768750,0.0,1.000000,0.000000,0.000000,0.000000
1782117306.055397,1805480,0.895508,-0.024414,-0.440918,0.670732,1.097561,-0.426829,17.018751,-37.206249,0.768750,0.0,1.000000,0.000000,0.000000,0.000000
1782117306.064397,1805489,0.896484,-0.024414,-0.442383,0.975610,1.097561,-0.487805,17.087500,-37.106251,0.712500,0.0,1.000000,0.000000,0.000000,0.000000
1782117306.075397,1805500,0.899902,-0.020996,-0.442871,1.280488,1.036585,-0.670732,17.087500,-37.106251,0.712500,0.0,1.000000,0.000000,0.000000,0.000000
1782117306.084397,1805509,0.905273,-0.019531,-0.443848,1.280488,1.097561,-0.670732,16.981251,-37.275002,0.868750,0.0,1.000000,0.000000,0.000000,0.000000
1782117306.096397,1805521,0.904785,-0.020508,-0.442383,1.158537,1.463415,-0.548781,16.981251,-37.275002,0.868750,0.0,1.000000,0.000000,0.000000,0.000000
1782117306.104397,1805529,0.901855,-0.020996,-0.436523,0.975610,1.646341,-0.304878,17.025000,-37.137501,0.793750,0.0,1.000000,0.000000,0.000000,0.000000
1782117306.114397,1805539,0.899414,-0.021484,-0.434082,0.731707,1.707317,-0.121951,17.025000,-37.137501,0.793750,0.0,1.000000,0.000000,0.000000,0.000000
1782117306.124397,1805549,0.901855,-0.020996,-0.434570,0.670732,1.829268,-0.060976,17.050001,-37.256252,0.875000,0.0,1.000000,0.000000,0.000000,0.000000
1782117306.135397,1805560,0.900879,-0.019531,-0.433594,0.548781,2.134146,0.121951,17.050001,-37.256252,0.875000,0.0,1.000000,0.000000,0.000000,0.000000
1782117306.145397,1805570,0.897949,-0.020508,-0.434570,0.670732,2.073171,0.121951,17.018751,-37.181252,0.887500,0.0,1.000000,0.000000,0.000000,0.000000
1782117306.154397,1805579,0.899414,-0.020508,-0.435547,0.914634,1.707317,0.060976,17.018751,-37.181252,0.887500,0.0,1.000000,0.000000,0.000000,0.000000
1782117306.165397,1805590,0.901855,-0.020020,-0.436035,0.914634,1.707317,0.060976,16.918751,-37.225002,0.943750,0.0,1.000000,0.000000,0.000000,0.000000
1782117306.176397,1805601,0.898438,-0.019531,-0.438477,0.731707,2.012195,0.121951,17.000000,-37.256252,0.981250,0.0,1.000000,0.000000,0.000000,0.000000
1782117306.185397,1805610,0.897461,-0.022949,-0.437012,0.670732,1.951220,0.182927,17.000000,-37.256252,0.981250,0.0,1.000000,0.000000,0.000000,0.000000
1782117306.195397,1805620,0.894043,-0.023438,-0.439941,0.487805,1.829268,0.060976,17.000000,-37.256252,0.981250,0.0,1.000000,0.000000,0.000000,0.000000
1782117306.205397,1805630,0.895996,-0.024414,-0.441406,0.365854,1.524390,-0.060976,17.006250,-37.181252,0.931250,0.0,1.000000,0.000000,0.000000,0.000000
1782117306.215397,1805640,0.895996,-0.022461,-0.445312,0.487805,1.646341,-0.182927,17.006250,-37.181252,0.931250,0.0,1.000000,0.000000,0.000000,0.000000
1782117306.224397,1805649,0.893555,-0.022949,-0.445312,0.548781,1.463415,-0.060976,16.956251,-37.268749,0.981250,0.0,1.000000,0.000000,0.000000,0.000000
1782117306.234397,1805659,0.895020,-0.020508,-0.443848,0.670732,1.402439,-0.060976,16.956251,-37.268749,0.981250,0.0,1.000000,0.000000,0.000000,0.000000
1782117306.244397,1805669,0.896973,-0.019531,-0.440918,0.426829,1.219512,-0.121951,16.931250,-37.331249,1.112500,0.0,1.000000,0.000000,0.000000,0.000000
1782117306.256397,1805681,0.898438,-0.018555,-0.437012,-0.060976,1.280488,0.000000,16.918751,-37.293751,1.081250,0.0,1.000000,0.000000,0.000000,0.000000
1782117306.264397,1805689,0.897461,-0.020020,-0.435059,-0.609756,1.280488,0.000000,16.918751,-37.293751,1.081250,0.0,1.000000,0.000000,0.000000,0.000000
1782117306.274397,1805699,0.898438,-0.022461,-0.434082,-0.670732,1.280488,0.000000,16.918751,-37.293751,1.081250,0.0,1.000000,0.000000,0.000000,0.000000
1782117306.284397,1805709,0.897461,-0.023438,-0.433105,-0.670732,1.219512,0.000000,16.962500,-37.162502,1.062500,0.0,1.000000,0.000000,0.000000,0.000000
1782117306.295397,1805720,0.900879,-0.024414,-0.433105,-0.548781,1.219512,0.000000,16.962500,-37.262501,1.168750,0.0,1.000000,0.000000,0.000000,0.000000
1782117306.304397,1805729,0.902344,-0.024414,-0.435547,-0.487805,1.402439,0.000000,16.962500,-37.262501,1.168750,0.0,1.000000,0.000000,0.000000,0.000000
1782117306.314397,1805739,0.901855,-0.026367,-0.437500,-0.548781,1.463415,0.060976,16.962500,-37.262501,1.168750,0.0,1.000000,0.000000,0.000000,0.000000
1782117306.324397,1805749,0.903809,-0.026855,-0.436523,-0.304878,1.463415,0.121951,16.956251,-37.256252,1.143750,0.0,1.000000,0.000000,0.000000,0.000000
1782117306.336397,1805761,0.901855,-0.024414,-0.435547,-0.121951,1.707317,0.182927,16.887501,-37.325001,1.243750,0.0,1.000000,0.000000,0.000000,0.000000
1782117306.344397,1805769,0.900879,-0.021973,-0.434570,-0.060976,1.890244,0.121951,16.887501,-37.325001,1.243750,0.0,1.000000,0.000000,0.000000,0.000000
1782117306.354397,1805779,0.897461,-0.021484,-0.437012,0.000000,1.951220,0.060976,16.887501,-37.325001,1.243750,0.0,1.000000,0.000000,0.000000,0.000000
1782117306.364397,1805789,0.897949,-0.019531,-0.438477,0.000000,1.951220,-0.060976,16.881250,-37.287502,1.243750,0.0,1.000000,0.000000,0.000000,0.000000
1782117306.377397,1805802,0.896973,-0.017578,-0.439453,-0.243902,1.768293,-0.060976,17.012501,-37.131252,1.187500,0.0,1.000000,0.000000,0.000000,0.000000
1782117306.384397,1805809,0.897949,-0.019531,-0.441406,-0.426829,1.768293,0.000000,17.012501,-37.131252,1.187500,0.0,1.000000,0.000000,0.000000,0.000000
1782117306.394397,1805819,0.894531,-0.020996,-0.439453,-0.548781,1.707317,0.060976,17.012501,-37.131252,1.187500,0.0,1.000000,0.000000,0.000000,0.000000
1782117306.404397,1805829,0.893555,-0.021484,-0.438965,-0.609756,1.463415,0.182927,16.875000,-37.325001,1.375000,0.0,1.000000,0.000000,0.000000,0.000000
1782117306.417397,1805842,0.895996,-0.024902,-0.438965,-1.097561,1.402439,0.243902,16.843750,-37.343750,1.381250,0.0,1.000000,0.000000,0.000000,0.000000
1782117306.424397,1805849,0.895996,-0.024902,-0.438965,-1.097561,1.402439,0.243902,16.843750,-37.343750,1.381250,0.0,1.000000,0.000000,0.000000,0.000000
1782117306.434397,1805859,0.895020,-0.024902,-0.440918,-1.280488,1.341463,0.426829,16.918751,-37.250000,1.362500,0.0,1.000000,0.000000,0.000000,0.000000
1782117306.444397,1805869,0.897461,-0.023926,-0.438965,-1.463415,1.219512,0.365854,16.918751,-37.250000,1.362500,0.0,1.000000,0.000000,0.000000,0.000000
1782117306.455397,1805880,0.901855,-0.025391,-0.439453,-1.585366,1.280488,0.304878,16.856251,-37.306252,1.462500,0.0,1.000000,0.000000,0.000000,0.000000
1782117306.464397,1805889,0.901855,-0.023438,-0.438477,-1.524390,1.585366,0.365854,16.856251,-37.306252,1.462500,0.0,1.000000,0.000000,0.000000,0.000000
1782117306.474397,1805899,0.900391,-0.022461,-0.437012,-1.341463,1.646341,0.243902,16.825001,-37.337502,1.468750,0.0,1.000000,0.000000,0.000000,0.000000
1782117306.484397,1805909,0.899414,-0.022461,-0.434570,-1.036585,1.585366,0.243902,16.825001,-37.337502,1.468750,0.0,1.000000,0.000000,0.000000,0.000000
1782117306.495397,1805920,0.900879,-0.022461,-0.434082,-0.792683,1.707317,0.121951,16.775000,-37.393749,1.550000,0.0,1.000000,0.000000,0.000000,0.000000
1782117306.504397,1805929,0.900391,-0.023926,-0.432617,-0.548781,1.707317,0.060976,16.775000,-37.393749,1.550000,0.0,1.000000,0.000000,0.000000,0.000000
1782117306.514397,1805939,0.900391,-0.026367,-0.432617,-0.365854,1.707317,0.060976,16.831251,-37.262501,1.500000,0.0,1.000000,0.000000,0.000000,0.000000
1782117306.524397,1805949,0.899902,-0.024902,-0.434570,-0.243902,1.707317,0.000000,16.831251,-37.262501,1.500000,0.0,1.000000,0.000000,0.000000,0.000000
1782117306.537397,1805962,0.900391,-0.025879,-0.433105,-0.121951,1.585366,-0.060976,16.806250,-37.343750,1.593750,0.0,1.000000,0.000000,0.000000,0.000000
1782117306.544397,1805969,0.898926,-0.025879,-0.432617,0.000000,1.585366,-0.121951,16.806250,-37.343750,1.593750,0.0,1.000000,0.000000,0.000000,0.000000
1782117306.555397,1805980,0.902832,-0.026855,-0.432129,0.243902,1.585366,-0.304878,16.893751,-37.243752,1.562500,0.0,1.000000,0.000000,0.000000,0.000000
1782117306.564397,1805989,0.901855,-0.028809,-0.430664,0.182927,1.707317,-0.243902,16.893751,-37.243752,1.562500,0.0,1.000000,0.000000,0.000000,0.000000
1782117306.578397,1806003,0.898926,-0.028320,-0.432617,0.243902,1.768293,-0.182927,16.806250,-37.293751,1.637500,0.0,1.000000,0.000000,0.000000,0.000000
1782117306.585397,1806010,0.897949,-0.025879,-0.433105,0.426829,1.646341,-0.243902,16.806250,-37.293751,1.637500,0.0,1.000000,0.000000,0.000000,0.000000
1782117306.594397,1806019,0.901367,-0.025879,-0.433594,0.487805,1.463415,-0.243902,16.825001,-37.306252,1.687500,0.0,1.000000,0.000000,0.000000,0.000000
1782117306.604397,1806029,0.900391,-0.024902,-0.432617,0.670732,1.402439,-0.243902,16.825001,-37.306252,1.687500,0.0,1.000000,0.000000,0.000000,0.000000
1782117306.617397,1806042,0.905273,-0.022949,-0.433105,0.975610,1.646341,-0.548781,16.818750,-37.268749,1.656250,0.0,1.000000,0.000000,0.000000,0.000000
1782117306.624397,1806049,0.905273,-0.022949,-0.433105,0.975610,1.646341,-0.548781,16.818750,-37.268749,1.656250,0.0,1.000000,0.000000,0.000000,0.000000
1782117306.634397,1806059,0.901855,-0.022949,-0.428711,0.853659,1.768293,-0.487805,16.818750,-37.187500,1.706250,0.0,1.000000,0.000000,0.000000,0.000000
1782117306.644397,1806069,0.899902,-0.020996,-0.427734,0.487805,1.707317,-0.487805,16.818750,-37.187500,1.706250,0.0,1.000000,0.000000,0.000000,0.000000
1782117306.658397,1806083,0.902344,-0.023438,-0.428223,0.000000,1.402439,-0.487805,16.781250,-37.287502,1.693750,0.0,1.000000,0.000000,0.000000,0.000000
1782117306.665397,1806090,0.901367,-0.023926,-0.430664,-0.182927,1.341463,-0.365854,16.781250,-37.287502,1.693750,0.0,1.000000,0.000000,0.000000,0.000000
1782117306.676397,1806101,0.899902,-0.023926,-0.430664,-0.182927,1.280488,-0.487805,16.800001,-37.312500,1.812500,0.0,1.000000,0.000000,0.000000,0.000000
1782117306.684397,1806109,0.899902,-0.023926,-0.430664,-0.182927,1.280488,-0.487805,16.800001,-37.312500,1.812500,0.0,1.000000,0.000000,0.000000,0.000000
1782117306.697397,1806122,0.900879,-0.025391,-0.430664,0.121951,1.219512,-0.487805,16.850000,-37.231251,1.775000,0.0,1.000000,0.000000,0.000000,0.000000
1782117306.704397,1806129,0.897461,-0.023438,-0.429199,0.121951,1.097561,-0.548781,16.850000,-37.231251,1.775000,0.0,1.000000,0.000000,0.000000,0.000000
1782117306.714397,1806139,0.901855,-0.021484,-0.426270,0.000000,0.975610,-0.670732,16.793751,-37.243752,1.762500,0.0,1.000000,0.000000,0.000000,0.000000
1782117306.724397,1806149,0.904297,-0.023926,-0.425781,-0.060976,1.097561,-0.853659,16.793751,-37.243752,1.762500,0.0,1.000000,0.000000,0.000000,0.000000
1782117306.736397,1806161,0.904785,-0.027344,-0.427734,0.243902,1.280488,-0.975610,16.818750,-37.237499,1.825000,0.0,1.000000,0.000000,0.000000,0.000000
1782117306.744397,1806169,0.904297,-0.027832,-0.430176,0.670732,1.341463,-0.975610,16.818750,-37.237499,1.825000,0.0,1.000000,0.000000,0.000000,0.000000
1782117306.755397,1806180,0.904297,-0.026367,-0.431641,0.975610,1.341463,-1.036585,16.831251,-37.131252,1.762500,0.0,1.000000,0.000000,0.000000,0.000000
1782117306.764397,1806189,0.903809,-0.025391,-0.430664,1.280488,1.158537,-0.975610,16.831251,-37.131252,1.762500,0.0,1.000000,0.000000,0.000000,0.000000
1782117306.775397,1806200,0.905273,-0.023926,-0.428711,1.280488,1.158537,-0.792683,16.793751,-37.293751,1.881250,0.0,1.000000,0.000000,0.000000,0.000000
1782117306.785397,1806210,0.905273,-0.022461,-0.426270,1.097561,1.097561,-0.792683,16.793751,-37.293751,1.881250,0.0,1.000000,0.000000,0.000000,0.000000
1782117306.794397,1806219,0.906250,-0.020996,-0.423340,0.853659,1.158537,-0.548781,16.800001,-37.168751,1.837500,0.0,1.000000,0.000000,0.000000,0.000000
1782117306.804397,1806229,0.906738,-0.016602,-0.421387,0.487805,1.219512,-0.548781,16.800001,-37.168751,1.837500,0.0,1.000000,0.000000,0.000000,0.000000
1782117306.817397,1806242,0.906738,-0.014160,-0.419922,0.182927,1.341463,-0.548781,16.743750,-37.318752,1.912500,0.0,1.000000,0.000000,0.000000,0.000000
1782117306.825397,1806250,0.906738,-0.015137,-0.419434,-0.121951,1.341463,-0.548781,16.743750,-37.318752,1.912500,0.0,1.000000,0.000000,0.000000,0.000000
1782117306.834397,1806259,0.907227,-0.015625,-0.418945,-0.365854,1.280488,-0.426829,16.793751,-37.200001,1.843750,0.0,1.000000,0.000000,0.000000,0.000000
1782117306.844397,1806269,0.908203,-0.019531,-0.420410,-0.487805,1.341463,-0.487805,16.793751,-37.200001,1.843750,0.0,1.000000,0.000000,0.000000,0.000000
1782117306.857397,1806282,0.909668,-0.023438,-0.420410,-0.365854,1.463415,-0.365854,16.775000,-37.200001,1.931250,0.0,1.000000,0.000000,0.000000,0.000000
1782117306.864397,1806289,0.909668,-0.023926,-0.419434,-0.304878,1.402439,-0.243902,16.775000,-37.200001,1.931250,0.0,1.000000,0.000000,0.000000,0.000000
1782117306.874397,1806299,0.909180,-0.023926,-0.417969,-0.304878,1.585366,-0.182927,16.762501,-37.206249,1.987500,0.0,1.000000,0.000000,0.000000,0.000000
1782117306.884397,1806309,0.907227,-0.022461,-0.416504,-0.487805,1.585366,-0.060976,16.762501,-37.206249,1.987500,0.0,1.000000,0.000000,0.000000,0.000000
1782117306.894397,1806319,0.907227,-0.021973,-0.414551,-0.792683,1.585366,0.000000,16.725000,-37.231251,2.012500,0.0,1.000000,0.000000,0.000000,0.000000
1782117306.904397,1806329,0.908203,-0.022461,-0.414551,-1.036585,1.524390,-0.060976,16.725000,-37.231251,2.012500,0.0,1.000000,0.000000,0.000000,0.000000
1782117306.914397,1806339,0.908691,-0.021484,-0.414551,-1.402439,1.341463,-0.060976,16.712500,-37.118752,2.012500,0.0,1.000000,0.000000,0.000000,0.000000
1782117306.924397,1806349,0.911621,-0.020996,-0.415527,-1.646341,1.219512,-0.060976,16.712500,-37.118752,2.012500,0.0,1.000000,0.000000,0.000000,0.000000
1782117306.937397,1806362,0.908691,-0.019531,-0.415039,-1.829268,1.280488,-0.060976,16.706251,-37.275002,2.100000,0.0,1.000000,0.000000,0.000000,0.000000
1782117306.944397,1806369,0.909668,-0.021973,-0.412598,-1.951220,1.158537,0.000000,16.706251,-37.275002,2.100000,0.0,1.000000,0.000000,0.000000,0.000000
1782117306.954397,1806379,0.911621,-0.023438,-0.412598,-1.951220,1.280488,0.060976,16.718750,-37.156250,2.118750,0.0,1.000000,0.000000,0.000000,0.000000
1782117306.965397,1806390,0.908691,-0.023926,-0.410645,-1.890244,1.402439,0.060976,16.718750,-37.156250,2.118750,0.0,1.000000,0.000000,0.000000,0.000000
1782117306.976397,1806401,0.910645,-0.026367,-0.412109,-1.829268,1.341463,0.000000,16.681250,-37.225002,2.175000,0.0,1.000000,0.000000,0.000000,0.000000
1782117306.984397,1806409,0.912109,-0.029785,-0.414062,-1.768293,1.158537,-0.121951,16.681250,-37.225002,2.175000,0.0,1.000000,0.000000,0.000000,0.000000
1782117306.995397,1806420,0.907715,-0.034668,-0.413574,-1.402439,1.036585,-0.121951,16.725000,-37.168751,2.137500,0.0,1.000000,0.000000,0.000000,0.000000
1782117307.004397,1806429,0.908691,-0.035156,-0.415527,-1.158537,0.609756,-0.121951,16.725000,-37.168751,2.137500,0.0,1.000000,0.000000,0.000000,0.000000
1782117307.015397,1806440,0.911133,-0.033691,-0.416504,-1.219512,0.548781,-0.182927,16.712500,-37.156250,2.193750,0.0,1.000000,0.000000,0.000000,0.000000
1782117307.024397,1806449,0.908691,-0.032227,-0.417480,-1.280488,0.731707,-0.243902,16.712500,-37.156250,2.193750,0.0,1.000000,0.000000,0.000000,0.000000
1782117307.034397,1806459,0.903320,-0.029785,-0.417969,-1.341463,0.914634,-0.304878,16.725000,-37.168751,2.150000,0.0,1.000000,0.000000,0.000000,0.000000
1782117307.045397,1806470,0.899902,-0.026367,-0.416992,-1.097561,0.914634,-0.304878,16.725000,-37.168751,2.150000,0.0,1.000000,0.000000,0.000000,0.000000
1782117307.057397,1806482,0.900391,-0.022949,-0.416016,-0.975610,0.731707,-0.365854,16.812500,-36.987499,2.156250,0.0,1.000000,0.000000,0.000000,0.000000
1782117307.064397,1806489,0.904297,-0.020996,-0.417969,-1.036585,0.731707,-0.426829,16.812500,-36.987499,2.156250,0.0,1.000000,0.000000,0.000000,0.000000
1782117307.075397,1806500,0.905273,-0.020020,-0.419434,-1.158537,0.853659,-0.426829,16.631250,-37.187500,2.306250,0.0,1.000000,0.000000,0.000000,0.000000
1782117307.084397,1806509,0.903809,-0.016113,-0.422852,-1.341463,0.914634,-0.243902,16.631250,-37.187500,2.306250,0.0,1.000000,0.000000,0.000000,0.000000
1782117307.094397,1806519,0.902832,-0.011230,-0.423828,-1.524390,0.731707,-0.243902,16.625000,-37.206249,2.300000,0.0,1.000000,0.000000,0.000000,0.000000
1782117307.104397,1806529,0.906250,-0.007812,-0.423340,-1.829268,0.426829,-0.304878,16.625000,-37.206249,2.300000,0.0,1.000000,0.000000,0.000000,0.000000
1782117307.114397,1806539,0.908203,-0.009766,-0.422363,-2.195122,0.365854,-0.121951,16.662500,-37.125000,2.368750,0.0,1.000000,0.000000,0.000000,0.000000
1782117307.125397,1806550,0.907715,-0.011230,-0.419922,-2.500000,0.243902,-0.121951,16.662500,-37.125000,2.368750,0.0,1.000000,0.000000,0.000000,0.000000
1782117307.134397,1806559,0.906738,-0.016602,-0.417480,-2.621951,-0.243902,0.000000,16.681250,-37.237499,2.381250,0.0,1.000000,0.000000,0.000000,0.000000
1782117307.144397,1806569,0.912598,-0.019043,-0.414551,-2.560976,-0.548781,0.060976,16.681250,-37.237499,2.381250,0.0,1.000000,0.000000,0.000000,0.000000
1782117307.154397,1806579,0.914551,-0.020020,-0.414062,-2.256098,-0.365854,0.060976,16.643751,-37.150002,2.412500,0.0,1.000000,0.000000,0.000000,0.000000
1782117307.164397,1806589,0.915039,-0.020020,-0.415039,-1.829268,-0.304878,0.000000,16.643751,-37.150002,2.412500,0.0,1.000000,0.000000,0.000000,0.000000
1782117307.174397,1806599,0.914551,-0.016602,-0.416504,-1.524390,-0.121951,0.000000,16.612501,-37.206249,2.450000,0.0,1.000000,0.000000,0.000000,0.000000
1782117307.185397,1806610,0.915527,-0.008301,-0.419922,-1.707317,0.304878,0.060976,16.612501,-37.206249,2.450000,0.0,1.000000,0.000000,0.000000,0.000000
1782117307.194397,1806619,0.912598,-0.005371,-0.423828,-1.951220,0.792683,0.000000,16.837500,-36.831249,2.212500,0.0,1.000000,0.000000,0.000000,0.000000
1782117307.204397,1806629,0.905273,-0.003418,-0.428711,-2.317073,0.975610,0.060976,16.837500,-36.831249,2.212500,0.0,1.000000,0.000000,0.000000,0.000000
1782117307.218397,1806643,0.901367,-0.002441,-0.435547,-2.560976,0.853659,0.060976,16.531250,-37.287502,2.518750,0.0,1.000000,0.000000,0.000000,0.000000
1782117307.225397,1806650,0.898438,-0.004883,-0.439453,-2.682927,0.670732,0.182927,16.531250,-37.287502,2.518750,0.0,1.000000,0.000000,0.000000,0.000000
1782117307.234397,1806659,0.898438,-0.006836,-0.441406,-2.743902,0.487805,0.304878,16.631250,-37.150002,2.531250,0.0,1.000000,0.000000,0.000000,0.000000
1782117307.244397,1806669,0.900391,-0.011230,-0.442383,-2.804878,0.670732,0.548781,16.631250,-37.150002,2.531250,0.0,1.000000,0.000000,0.000000,0.000000
1782117307.254397,1806679,0.897461,-0.016113,-0.445801,-2.865854,1.097561,0.548781,16.581251,-37.262501,2.562500,0.0,1.000000,0.000000,0.000000,0.000000
1782117307.264397,1806689,0.895020,-0.023438,-0.450195,-2.256098,1.219512,0.365854,16.581251,-37.262501,2.562500,0.0,1.000000,0.000000,0.000000,0.000000
1782117307.274397,1806699,0.894043,-0.028320,-0.449219,-1.036585,1.341463,0.060976,16.562500,-37.250000,2.562500,0.0,1.000000,0.000000,0.000000,0.000000
1782117307.284397,1806709,0.896484,-0.028320,-0.445801,0.243902,1.402439,-0.365854,16.562500,-37.250000,2.562500,0.0,1.000000,0.000000,0.000000,0.000000
1782117307.294397,1806719,0.899902,-0.026367,-0.439941,1.341463,1.524390,-0.792683,16.575001,-37.281250,2.687500,0.0,1.000000,0.000000,0.000000,0.000000
1782117307.304397,1806729,0.901367,-0.026367,-0.431152,2.012195,1.768293,-1.036585,16.575001,-37.281250,2.687500,0.0,1.000000,0.000000,0.000000,0.000000
1782117307.315397,1806740,0.900391,-0.026855,-0.425293,2.439024,1.768293,-1.158537,16.556250,-37.237499,2.625000,0.0,1.000000,0.000000,0.000000,0.000000
1782117307.324397,1806749,0.904785,-0.028320,-0.425293,3.292683,1.402439,-1.585366,16.556250,-37.237499,2.625000,0.0,1.000000,0.000000,0.000000,0.000000
1782117307.334397,1806759,0.908691,-0.031250,-0.425781,4.268293,1.097561,-1.768293,16.543751,-37.318752,2.675000,0.0,1.000000,0.000000,0.000000,0.000000
1782117307.345397,1806770,0.915527,-0.035156,-0.419922,5.000000,1.158537,-1.463415,16.543751,-37.318752,2.675000,0.0,1.000000,0.000000,0.000000,0.000000
1782117307.355397,1806780,0.910156,-0.034668,-0.414551,5.487805,1.646341,-1.341463,16.537500,-37.231251,2.687500,0.0,1.000000,0.000000,0.000000,0.000000
1782117307.364397,1806789,0.918457,-0.022949,-0.409180,5.000000,1.707317,-1.402439,16.537500,-37.231251,2.687500,0.0,1.000000,0.000000,0.000000,0.000000
1782117307.375397,1806800,0.919434,-0.022461,-0.407715,4.024390,2.378049,-1.463415,16.543751,-37.206249,2.631250,0.0,1.000000,0.000000,0.000000,0.000000
1782117307.384397,1806809,0.917969,-0.021973,-0.405273,3.170732,2.743902,-1.463415,16.543751,-37.206249,2.631250,0.0,1.000000,0.000000,0.000000,0.000000
1782117307.394397,1806819,0.915527,-0.029785,-0.401855,3.170732,3.170732,-1.463415,16.556250,-37.174999,2.650000,0.0,1.000000,0.000000,0.000000,0.000000
1782117307.406397,1806831,0.920410,-0.029785,-0.407715,2.987805,3.109756,-1.402439,16.556250,-37.174999,2.650000,0.0,1.000000,0.000000,0.000000,0.000000
1782117307.414397,1806839,0.917480,-0.039062,-0.403320,3.292683,3.902439,-1.585366,16.525000,-37.193752,2.737500,0.0,1.000000,0.000000,0.000000,0.000000
1782117307.424397,1806849,0.917480,-0.034180,-0.409180,3.292683,4.024390,-1.158537,16.525000,-37.193752,2.737500,0.0,1.000000,0.000000,0.000000,0.000000
1782117307.434397,1806859,0.918457,-0.027832,-0.410156,3.109756,4.329268,-0.975610,16.543751,-37.212502,2.756250,0.0,1.000000,0.000000,0.000000,0.000000
1782117307.444397,1806869,0.909180,-0.025391,-0.407227,2.804878,4.329268,-0.975610,16.543751,-37.212502,2.756250,0.0,1.000000,0.000000,0.000000,0.000000
1782117307.454397,1806879,0.902344,-0.026367,-0.404785,3.109756,4.329268,-0.975610,16.487501,-37.225002,2.800000,0.0,1.000000,0.000000,0.000000,0.000000
1782117307.464397,1806889,0.904785,-0.020508,-0.403320,2.865854,3.658537,-0.670732,16.487501,-37.225002,2.800000,0.0,1.000000,0.000000,0.000000,0.000000
1782117307.474397,1806899,0.907715,-0.016602,-0.399902,2.500000,3.719512,-1.036585,16.575001,-37.143749,2.843750,0.0,1.000000,0.000000,0.000000,0.000000
1782117307.484397,1806909,0.905762,-0.015625,-0.398438,1.951220,3.597561,-1.158537,16.575001,-37.143749,2.843750,0.0,1.000000,0.000000,0.000000,0.000000
1782117307.494397,1806919,0.910156,-0.016602,-0.400879,0.975610,2.987805,-1.097561,16.481251,-37.150002,2.968750,0.0,1.000000,0.000000,0.000000,0.000000
1782117307.504397,1806929,0.905762,-0.043945,-0.403809,1.341463,2.256098,-1.707317,16.481251,-37.150002,2.968750,0.0,1.000000,0.000000,0.000000,0.000000
1782117307.514397,1806939,0.921387,0.000977,-0.397949,1.768293,1.524390,-0.731707,16.512501,-37.137501,2.925000,0.0,1.000000,0.000000,0.000000,0.000000
1782117307.524397,1806949,0.928223,-0.006348,-0.410645,-0.609756,2.073171,-1.036585,16.512501,-37.137501,2.925000,0.0,1.000000,0.000000,0.000000,0.000000
1782117307.534397,1806959,0.909668,-0.026855,-0.389160,-0.121951,2.621951,-0.731707,16.487501,-37.174999,3.031250,0.0,1.000000,0.000000,0.000000,0.000000
1782117307.545397,1806970,0.942871,-0.012695,-0.388184,-0.853659,2.073171,-0.304878,16.487501,-37.174999,3.031250,0.0,1.000000,0.000000,0.000000,0.000000
1782117307.554397,1806979,0.942871,-0.012695,-0.388184,-0.853659,2.073171,-0.304878,16.625000,-36.862499,2.881250,0.0,1.000000,0.000000,0.000000,0.000000
1782117307.564397,1806989,0.923340,-0.020020,-0.369629,0.304878,3.048780,-0.426829,16.625000,-36.862499,2.881250,0.0,1.000000,0.000000,0.000000,0.000000
1782117307.574397,1806999,0.930664,-0.001953,-0.382812,-0.731707,2.317073,0.182927,16.468750,-37.187500,3.075000,0.0,1.000000,0.000000,0.000000,0.000000
1782117307.584397,1807009,0.934082,0.002441,-0.386719,-2.256098,3.719512,0.304878,16.468750,-37.187500,3.075000,0.0,1.000000,0.000000,0.000000,0.000000
1782117307.595397,1807020,0.908203,-0.017090,-0.375488,-2.256098,3.292683,0.243902,16.512501,-37.112499,3.118750,0.0,1.000000,0.000000,0.000000,0.000000
1782117307.605397,1807030,0.929688,-0.004395,-0.380371,-3.048780,2.743902,0.975610,16.512501,-37.112499,3.118750,0.0,1.000000,0.000000,0.000000,0.000000
1782117307.614397,1807039,0.916016,-0.010742,-0.383301,-3.231707,2.560976,1.036585,16.537500,-36.918751,3.081250,0.0,1.000000,0.000000,0.000000,0.000000
1782117307.625397,1807050,0.917969,-0.011719,-0.387695,-3.353659,1.707317,1.158537,16.537500,-36.918751,3.081250,0.0,1.000000,0.000000,0.000000,0.000000
1782117307.634397,1807059,0.916504,-0.014160,-0.387695,-3.353659,1.585366,1.280488,16.525000,-37.006252,3.143750,0.0,1.000000,0.000000,0.000000,0.000000
1782117307.644397,1807069,0.915039,-0.008789,-0.391113,-3.597561,1.219512,1.341463,16.525000,-37.006252,3.143750,0.0,1.000000,0.000000,0.000000,0.000000
1782117307.654397,1807079,0.916992,-0.008789,-0.394531,-3.841464,0.975610,1.280488,16.412500,-37.212502,3.281250,0.0,1.000000,0.000000,0.000000,0.000000
1782117307.665397,1807090,0.915527,-0.012207,-0.395508,-3.719512,0.853659,1.097561,16.412500,-37.212502,3.281250,0.0,1.000000,0.000000,0.000000,0.000000
1782117307.674397,1807099,0.914062,-0.015625,-0.394043,-3.292683,0.609756,1.036585,16.400000,-37.150002,3.356250,0.0,1.000000,0.000000,0.000000,0.000000
1782117307.684397,1807109,0.916016,-0.020996,-0.392578,-2.621951,0.365854,0.914634,16.400000,-37.150002,3.356250,0.0,1.000000,0.000000,0.000000,0.000000
1782117307.694397,1807119,0.919434,-0.021973,-0.393066,-1.890244,0.304878,0.792683,16.350000,-37.212502,3.375000,0.0,1.000000,0.000000,0.000000,0.000000
1782117307.707397,1807132,0.919434,-0.022461,-0.394043,-1.158537,0.243902,0.792683,16.331251,-37.231251,3.381250,0.0,1.000000,0.000000,0.000000,0.000000
1782117307.714397,1807139,0.917480,-0.021973,-0.393066,-0.914634,-0.060976,0.792683,16.331251,-37.231251,3.381250,0.0,1.000000,0.000000,0.000000,0.000000
1782117307.724397,1807149,0.916992,-0.020508,-0.393066,-0.792683,-0.487805,0.731707,16.331251,-37.231251,3.381250,0.0,1.000000,0.000000,0.000000,0.000000
1782117307.735397,1807160,0.916016,-0.020996,-0.392578,-0.670732,-0.731707,0.670732,16.306250,-37.218750,3.487500,0.0,1.000000,0.000000,0.000000,0.000000
1782117307.745397,1807170,0.917480,-0.021484,-0.389648,-0.548781,-0.975610,0.609756,16.306250,-37.218750,3.487500,0.0,1.000000,0.000000,0.000000,0.000000
1782117307.754397,1807179,0.918945,-0.024414,-0.388184,-0.487805,-0.914634,0.548781,16.375000,-37.193752,3.412500,0.0,1.000000,0.000000,0.000000,0.000000
1782117307.764397,1807189,0.918945,-0.023438,-0.386719,-0.670732,-0.731707,0.548781,16.375000,-37.193752,3.412500,0.0,1.000000,0.000000,0.000000,0.000000
1782117307.775397,1807200,0.920410,-0.024414,-0.387207,-0.609756,-0.548781,0.426829,16.343750,-37.293751,3.456250,0.0,1.000000,0.000000,0.000000,0.000000
1782117307.786397,1807211,0.921387,-0.024902,-0.389648,-0.365854,-0.487805,0.304878,16.393751,-37.206249,3.368750,0.0,1.000000,0.000000,0.000000,0.000000
1782117307.794397,1807219,0.922363,-0.022461,-0.394531,-0.182927,-0.609756,0.304878,16.393751,-37.206249,3.368750,0.0,1.000000,0.000000,0.000000,0.000000
1782117307.804397,1807229,0.920410,-0.019043,-0.397461,0.000000,-0.609756,0.426829,16.393751,-37.206249,3.368750,0.0,1.000000,0.000000,0.000000,0.000000
1782117307.814397,1807239,0.917480,-0.020020,-0.397461,0.182927,-0.670732,0.487805,16.362501,-37.299999,3.431250,0.0,1.000000,0.000000,0.000000,0.000000
