Unix_Time_s,RelativeTime_s,P_1,P_2,P_3,P_4,P_5,P_6,P_7,P_8,P_9,P_10,P_11,P_12,P_13,P_14,P_15,P_16,P_17,P_18,P_19,P_20,P_21,P_22,P_23,P_24,P_25,P_26,P_27,P_28,P_29,P_30,P_31,P_32,P_33,P_34,P_35,P_36,P_37,P_38,P_39,P_40,P_41,P_42,P_43,P_44,P_45,P_46,P_47,P_48,P_49,P_50,P_51,P_52,P_53,P_54,P_55,P_56,P_57,P_58,P_59,P_60,P_61,P_62,P_63,P_64,P_65,P_66,P_67,P_68,P_69,P_70,P_71,P_72,P_73,P_74,P_75,P_76,P_77,P_78,P_79,P_80,P_81,P_82,P_83,P_84,P_85,P_86,P_87,P_88,P_89,P_90,P_91,P_92,P_93,P_94,P_95,P_96,P_97,P_98,P_99,P_100,P_101,P_102,P_103,P_104,P_105,P_106,P_107,P_108,P_109,P_110,P_111,P_112,P_113,P_114,P_115,P_116,P_117,P_118,P_119,P_120,P_121,P_122,P_123,P_124,P_125,P_126,P_127,P_128,P_129,P_130,P_131,P_132,P_133,P_134,P_135,P_136,P_137,P_138,P_139,P_140,P_141,P_142,P_143,P_144,P_145,P_146,P_147,P_148,P_149,P_150,P_151,P_152,P_153,P_154,P_155,P_156,P_157,P_158,P_159,P_160,P_161,P_162,P_163,P_164,P_165,P_166,P_167,P_168,P_169,P_170,P_171,P_172,P_173,P_174,P_175,P_176,P_177,P_178,P_179,P_180,P_181,P_182,P_183,P_184,P_185,P_186,P_187,P_188,P_189,P_190,P_191,P_192,P_193,P_194,P_195,P_196,P_197,P_198,P_199,P_200,P_201,P_202,P_203,P_204,P_205,P_206,P_207,P_208,P_209,P_210,P_211,P_212,P_213,P_214,P_215,P_216,P_217,P_218,P_219,P_220,P_221,P_222,P_223,P_224,P_225,P_226,P_227,P_228,P_229,P_230,P_231,P_232,P_233,Flex1,Flex2,Bat,IMU1_RefTime,IMU1_Ax,IMU1_Ay,IMU1_Az,IMU1_Wx,IMU1_Wy,IMU1_Wz,IMU1_Roll,IMU1_Pitch,IMU1_Yaw,IMU1_Hx,IMU1_Hy,IMU1_Hz,IMU1_Q0,IMU1_Q1,IMU1_Q2,IMU1_Q3,IMU2_RefTime,IMU2_Ax,IMU2_Ay,IMU2_Az,IMU2_Wx,IMU2_Wy,IMU2_Wz,IMU2_Roll,IMU2_Pitch,IMU2_Yaw,IMU2_Hx,IMU2_Hy,IMU2_Hz,IMU2_Q0,IMU2_Q1,IMU2_Q2,IMU2_Q3,IMU1_FusedRoll,IMU1_FusedPitch,IMU1_FusedYaw,IMU1_FusedQ0,IMU1_FusedQ1,IMU1_FusedQ2,IMU1_FusedQ3,IMU1_MagValid,IMU2_FusedRoll,IMU2_FusedPitch,IMU2_FusedYaw,IMU2_FusedQ0,IMU2_FusedQ1,IMU2_FusedQ2,IMU2_FusedQ3,IMU2_MagValid
1782117302.032338,0.008,1024.0,1024.0,1024.0,1023.0,1023.0,1022.0,1023.0,1023.0,1023.0,1023.0,1024.0,1024.0,1023.0,1024.0,1024.0,1023.0,1023.0,1024.0,1024.0,1024.0,1024.0,1024.0,1023.0,1023.0,1024.0,1024.0,1024.0,1024.0,1024.0,1023.0,1023.0,1023.0,1022.0,1023.0,1024.0,1023.0,1024.0,1024.0,1023.0,1024.0,1023.0,1022.0,1023.0,1024.0,1023.0,1023.0,1024.0,1023.0,1023.0,1023.0,1022.0,1023.0,1023.0,1024.0,1024.0,1024.0,1024.0,1024.0,1023.0,1023.0,1023.0,1023.0,1023.0,1024.0,1023.0,1024.0,1024.0,1023.0,1024.0,1022.0,1023.0,1023.0,1023.0,1024.0,1024.0,1024.0,1024.0,1024.0,1023.0,1023.0,1022.0,1023.0,1024.0,1025.0,1024.0,1024.0,1024.0,1024.0,1024.0,1023.0,1022.0,1024.0,1023.0,1024.0,1024.0,1024.0,1024.0,1024.0,1024.0,1023.0,1023.0,1023.0,1023.0,1025.0,1024.0,1024.0,1024.0,1024.0,1024.0,1023.0,1022.0,1023.0,1023.0,1024.0,1022.0,1024.0,1024.0,1023.0,1023.0,1021.0,1022.0,1023.0,1024.0,1023.0,1024.0,1023.0,1023.0,1023.0,1022.0,1024.0,1024.0,1023.0,1024.0,1024.0,1023.0,1023.0,1024.0,1025.0,1025.0,1024.0,1024.0,1024.0,1024.0,1024.0,1025.0,1024.0,1024.0,1025.0,1024.0,1024.0,1023.0,1025.0,1024.0,1025.0,1025.0,1024.0,1024.0,1026.0,1025.0,1027.0,1027.0,1024.0,1026.0,1029.0,1027.0,1029.0,1028.0,1025.0,1029.0,1036.0,1032.0,1034.0,1033.0,1026.0,1033.0,1041.0,1036.0,1036.0,1038.0,1027.0,1036.0,1043.0,1035.0,1033.0,1038.0,1029.0,1042.0,1048.0,1037.0,1034.0,1040.0,1032.0,1041.0,1047.0,1037.0,1033.0,1039.0,1031.0,1034.0,1039.0,1033.0,1030.0,1035.0,1030.0,1036.0,1040.0,1032.0,1030.0,1035.0,1031.0,1023.0,1024.0,1022.0,1023.0,1024.0,1022.0,1038.0,1040.0,1033.0,1030.0,1037.0,1035.0,1031.0,1034.0,1030.0,1029.0,1035.0,1032.0,1027.0,1029.0,1026.0,1027.0,1029.0,2047,2019,1910,	00:29:54.811,0.0498046875,0.06787109375,1.01708984375,-0.244140625,0.18310546875,0.06103515625,3.834228515625,-2.7740478515625,43.934326171875,464.0,-1615.0,-2556.0,0.926300048828125,0.040069580078125,-0.0098876953125,0.374481201171875,3.8358519587928495,-2.7717986591909183,39.43229695758469,0.9402998311248,0.03965150065877553,-0.011468053674036608,0.3378349742509044,1,	00:29:54.812,0.04345703125,0.0126953125,1.00732421875,-0.8544921875,-1.3427734375,-0.54931640625,0.72509765625,-2.4993896484375,179.110107421875,-426.0,-1190.0,-1989.0,-0.00762939453125,-0.021881103515625,-0.006134033203125,-0.999725341796875,0.7228491628718653,-2.500827359305964,179.63946161228378,-0.0030078206708016825,-0.021841403281420747,-0.006237816558674723,-0.9997374634183172,1
1782117302.042822,0.018,1023.0,1023.0,1024.0,1023.0,1023.0,1023.0,1023.0,1023.0,1023.0,1023.0,1023.0,1024.0,1023.0,1024.0,1023.0,1023.0,1023.0,1024.0,1024.0,1024.0,1024.0,1024.0,1024.0,1023.0,1023.0,1024.0,1023.0,1024.0,1024.0,1023.0,1023.0,1023.0,1022.0,1023.0,1024.0,1023.0,1024.0,1024.0,1023.0,1023.0,1023.0,1022.0,1024.0,1024.0,1023.0,1024.0,1024.0,1023.0,1023.0,1022.0,1022.0,1024.0,1024.0,1024.0,1024.0,1024.0,1024.0,1024.0,1023.0,1023.0,1023.0,1024.0,1023.0,1024.0,1024.0,1024.0,1024.0,1023.0,1024.0,1022.0,1022.0,1023.0,1023.0,1024.0,1024.0,1024.0,1024.0,1023.0,1023.0,1023.0,1023.0,1023.0,1024.0,1025.0,1025.0,1024.0,1024.0,1024.0,1024.0,1024.0,1023.0,1024.0,1024.0,1025.0,1024.0,1024.0,1024.0,1024.0,1023.0,1023.0,1023.0,1023.0,1023.0,1024.0,1024.0,1024.0,1025.0,1023.0,1023.0,1023.0,1022.0,1023.0,1023.0,1024.0,1023.0,1023.0,1023.0,1023.0,1023.0,1020.0,1022.0,1023.0,1024.0,1023.0,1024.0,1024.0,1023.0,1023.0,1022.0,1023.0,1024.0,1023.0,1023.0,1024.0,1023.0,1023.0,1024.0,1025.0,1024.0,1024.0,1025.0,1023.0,1024.0,1024.0,1025.0,1024.0,1024.0,1024.0,1024.0,1024.0,1024.0,1025.0,1024.0,1025.0,1025.0,1024.0,1025.0,1026.0,1026.0,1027.0,1028.0,1024.0,1025.0,1030.0,1027.0,1029.0,1028.0,1025.0,1028.0,1036.0,1031.0,1035.0,1033.0,1026.0,1033.0,1041.0,1036.0,1037.0,1038.0,1027.0,1036.0,1043.0,1035.0,1033.0,1038.0,1029.0,1042.0,1048.0,1037.0,1034.0,1040.0,1032.0,1042.0,1047.0,1037.0,1032.0,1039.0,1031.0,1034.0,1039.0,1032.0,1029.0,1035.0,1029.0,1036.0,1039.0,1033.0,1030.0,1035.0,1031.0,1023.0,1023.0,1023.0,1023.0,1023.0,1022.0,1038.0,1040.0,1034.0,1031.0,1036.0,1035.0,1032.0,1034.0,1031.0,1029.0,1033.0,1032.0,1028.0,1029.0,1027.0,1027.0,1029.0,2047,2019,1910,	00:29:54.821,0.05078125,0.06787109375,1.01708984375,-0.244140625,0.18310546875,0.1220703125,3.812255859375,-2.8619384765625,43.934326171875,467.0,-1616.0,-2557.0,0.92626953125,0.0401611328125,-0.01068115234375,0.37451171875,3.81313524548416,-2.8594250573812756,39.43463364768787,0.94027452769331,0.039722509443518586,-0.012253666602022366,0.3378694754922955,1,	00:29:54.823,0.04443359375,0.01220703125,1.00634765625,-0.91552734375,-1.3427734375,-0.54931640625,0.648193359375,-2.5762939453125,179.1046142578125,-426.0,-1192.0,-1990.0,-0.007659912109375,-0.022552490234375,-0.0054931640625,-0.99969482421875,0.6482380622124772,-2.5781486581550914,179.6367113648066,-0.0030421718195694897,-0.022514149799753358,-0.0055841341893965776,-0.999726300391647,1
1782117302.052221,0.028,1023.0,1023.0,1024.0,1023.0,1023.0,1023.0,1023.0,1024.0,1022.0,1023.0,1024.0,1024.0,1024.0,1023.0,1023.0,1023.0,1024.0,1024.0,1024.0,1024.0,1024.0,1023.0,1024.0,1024.0,1024.0,1024.0,1024.0,1024.0,1024.0,1023.0,1023.0,1023.0,1023.0,1023.0,1023.0,1023.0,1023.0,1024.0,1023.0,1023.0,1023.0,1023.0,1023.0,1024.0,1024.0,1024.0,1024.0,1023.0,1024.0,1022.0,1023.0,1023.0,1024.0,1024.0,1024.0,1024.0,1024.0,1024.0,1023.0,1023.0,1023.0,1023.0,1023.0,1024.0,1023.0,1024.0,1024.0,1023.0,1023.0,1022.0,1022.0,1023.0,1024.0,1024.0,1024.0,1023.0,1024.0,1023.0,1023.0,1022.0,1023.0,1023.0,1024.0,1025.0,1024.0,1024.0,1025.0,1024.0,1023.0,1024.0,1023.0,1023.0,1023.0,1025.0,1024.0,1024.0,1024.0,1023.0,1023.0,1023.0,1023.0,1023.0,1024.0,1025.0,1024.0,1024.0,1024.0,1024.0,1023.0,1023.0,1022.0,1023.0,1023.0,1024.0,1023.0,1024.0,1024.0,1023.0,1023.0,1021.0,1022.0,1023.0,1024.0,1023.0,1024.0,1024.0,1023.0,1023.0,1022.0,1023.0,1024.0,1024.0,1023.0,1024.0,1023.0,1023.0,1024.0,1025.0,1024.0,1024.0,1024.0,1024.0,1024.0,1024.0,1024.0,1024.0,1024.0,1024.0,1024.0,1024.0,1024.0,1026.0,1024.0,1024.0,1025.0,1024.0,1024.0,1026.0,1025.0,1027.0,1027.0,1024.0,1025.0,1029.0,1027.0,1030.0,1028.0,1025.0,1028.0,1036.0,1032.0,1034.0,1033.0,1025.0,1033.0,1041.0,1036.0,1036.0,1038.0,1027.0,1036.0,1043.0,1035.0,1033.0,1038.0,1029.0,1042.0,1048.0,1037.0,1034.0,1040.0,1031.0,1042.0,1047.0,1037.0,1032.0,1039.0,1031.0,1035.0,1038.0,1032.0,1029.0,1034.0,1029.0,1036.0,1040.0,1033.0,1030.0,1034.0,1031.0,1023.0,1024.0,1023.0,1023.0,1024.0,1022.0,1038.0,1041.0,1034.0,1031.0,1036.0,1035.0,1032.0,1034.0,1031.0,1029.0,1035.0,1032.0,1028.0,1029.0,1026.0,1027.0,1029.0,2047,2019,1909,	00:29:54.832,0.05029296875,0.068359375,1.0166015625,-0.244140625,0.18310546875,0.06103515625,3.878173828125,-2.79052734375,43.934326171875,466.0,-1613.0,-2552.0,0.926300048828125,0.04046630859375,-0.00994873046875,0.37451171875,3.875732548968296,-2.7930003562278065,39.43215524284431,0.9402800559601759,0.04004095199850338,-0.011524601231360603,0.3378421555890266,1,	00:29:54.833,0.04345703125,0.01416015625,1.0087890625,-0.91552734375,-1.28173828125,-0.48828125,0.714111328125,-2.537841796875,179.09912109375,-426.0,-1192.0,-1993.0,-0.007720947265625,-0.022186279296875,-0.00604248046875,-0.99969482421875,0.7138776234243704,-2.537501621277889,179.62834770643326,-0.0031044762480068075,-0.022161722963846282,-0.006156345757927559,-0.999730623552869,1
1782117302.062245,0.038,1023.0,1024.0,1023.0,1023.0,1023.0,1023.0,1023.0,1024.0,1023.0,1024.0,1024.0,1024.0,1023.0,1024.0,1023.0,1023.0,1023.0,1024.0,1024.0,1024.0,1024.0,1023.0,1023.0,1023.0,1023.0,1024.0,1024.0,1024.0,1024.0,1023.0,1023.0,1023.0,1022.0,1023.0,1024.0,1023.0,1023.0,1024.0,1023.0,1023.0,1023.0,1022.0,1023.0,1024.0,1024.0,1024.0,1024.0,1023.0,1023.0,1023.0,1022.0,1023.0,1024.0,1024.0,1024.0,1024.0,1024.0,1024.0,1023.0,1023.0,1022.0,1023.0,1023.0,1024.0,1023.0,1023.0,1024.0,1023.0,1023.0,1022.0,1022.0,1023.0,1023.0,1024.0,1024.0,1023.0,1024.0,1023.0,1024.0,1023.0,1022.0,1023.0,1024.0,1025.0,1024.0,1024.0,1024.0,1024.0,1024.0,1024.0,1023.0,1023.0,1023.0,1024.0,1024.0,1024.0,1025.0,1024.0,1024.0,1023.0,1023.0,1024.0,1024.0,1024.0,1024.0,1024.0,1024.0,1024.0,1024.0,1023.0,1022.0,1023.0,1023.0,1024.0,1022.0,1024.0,1023.0,1022.0,1023.0,1021.0,1022.0,1023.0,1024.0,1024.0,1024.0,1024.0,1023.0,1023.0,1022.0,1023.0,1024.0,1023.0,1023.0,1023.0,1023.0,1023.0,1024.0,1025.0,1024.0,1024.0,1025.0,1023.0,1024.0,1024.0,1024.0,1024.0,1024.0,1024.0,1024.0,1024.0,1024.0,1025.0,1024.0,1025.0,1025.0,1024.0,1024.0,1027.0,1026.0,1027.0,1027.0,1024.0,1025.0,1030.0,1027.0,1029.0,1029.0,1025.0,1028.0,1035.0,1031.0,1035.0,1032.0,1027.0,1033.0,1041.0,1036.0,1037.0,1038.0,1027.0,1035.0,1043.0,1034.0,1034.0,1038.0,1029.0,1042.0,1048.0,1037.0,1034.0,1039.0,1032.0,1042.0,1047.0,1037.0,1033.0,1039.0,1032.0,1034.0,1038.0,1033.0,1029.0,1034.0,1030.0,1036.0,1040.0,1033.0,1030.0,1035.0,1032.0,1023.0,1024.0,1022.0,1023.0,1024.0,1022.0,1038.0,1040.0,1033.0,1031.0,1036.0,1035.0,1032.0,1034.0,1030.0,1029.0,1034.0,1032.0,1027.0,1029.0,1026.0,1027.0,1028.0,2047,2019,1910,	00:29:54.842,0.0498046875,0.06787109375,1.017578125,-0.18310546875,0.18310546875,0.0,3.7847900390625,-2.7960205078125,43.934326171875,466.0,-1616.0,-2557.0,0.926300048828125,0.039703369140625,-0.01025390625,0.374542236328125,3.782407734640138,-2.79555326580486,39.436739226136645,0.9402980799260172,0.03928312827450344,-0.011819129559835516,0.33787078136006715,1,	00:29:54.843,0.04345703125,0.01318359375,1.00732421875,-0.9765625,-1.28173828125,-0.48828125,0.7470703125,-2.471923828125,179.0936279296875,-427.0,-1190.0,-1990.0,-0.007781982421875,-0.0216064453125,-0.00634765625,-0.999725341796875,0.7474418619699673,-2.4693840285434465,179.6214119544421,-0.0031624135517783186,-0.021568741513482665,-0.006449876492894686,-0.99974156041613,1
1782117302.073072,0.049,1024.0,1024.0,1024.0,1023.0,1023.0,1023.0,1023.0,1024.0,1023.0,1023.0,1024.0,1023.0,1024.0,1024.0,1023.0,1023.0,1024.0,1024.0,1024.0,1024.0,1024.0,1023.0,1023.0,1023.0,1023.0,1024.0,1023.0,1024.0,1024.0,1023.0,1023.0,1023.0,1023.0,1023.0,1024.0,1024.0,1023.0,1024.0,1024.0,1023.0,1023.0,1022.0,1023.0,1024.0,1024.0,1023.0,1023.0,1023.0,1023.0,1023.0,1022.0,1023.0,1024.0,1024.0,1024.0,1023.0,1024.0,1023.0,1024.0,1023.0,1023.0,1023.0,1023.0,1024.0,1024.0,1024.0,1024.0,1023.0,1023.0,1022.0,1022.0,1023.0,1023.0,1024.0,1023.0,1024.0,1024.0,1023.0,1023.0,1022.0,1022.0,1023.0,1023.0,1024.0,1024.0,1024.0,1024.0,1024.0,1024.0,1024.0,1023.0,1024.0,1024.0,1025.0,1024.0,1024.0,1024.0,1023.0,1024.0,1023.0,1023.0,1024.0,1023.0,1025.0,1024.0,1024.0,1024.0,1024.0,1024.0,1023.0,1022.0,1023.0,1022.0,1024.0,1023.0,1023.0,1023.0,1023.0,1022.0,1021.0,1022.0,1023.0,1024.0,1024.0,1023.0,1024.0,1023.0,1023.0,1021.0,1023.0,1024.0,1023.0,1023.0,1024.0,1023.0,1023.0,1024.0,1025.0,1024.0,1024.0,1024.0,1024.0,1024.0,1024.0,1025.0,1024.0,1024.0,1025.0,1024.0,1024.0,1024.0,1025.0,1024.0,1025.0,1025.0,1024.0,1024.0,1027.0,1026.0,1027.0,1027.0,1024.0,1025.0,1029.0,1027.0,1029.0,1028.0,1025.0,1028.0,1036.0,1032.0,1034.0,1033.0,1026.0,1032.0,1041.0,1036.0,1036.0,1038.0,1027.0,1035.0,1043.0,1035.0,1034.0,1038.0,1030.0,1042.0,1048.0,1037.0,1034.0,1039.0,1032.0,1042.0,1047.0,1037.0,1033.0,1039.0,1032.0,1034.0,1039.0,1033.0,1030.0,1035.0,1030.0,1036.0,1039.0,1033.0,1030.0,1035.0,1031.0,1024.0,1024.0,1023.0,1023.0,1024.0,1022.0,1037.0,1040.0,1034.0,1030.0,1036.0,1035.0,1032.0,1034.0,1030.0,1029.0,1034.0,1032.0,1027.0,1029.0,1026.0,1027.0,1028.0,2047,2019,1909,	00:29:54.852,0.04931640625,0.0673828125,1.01708984375,-0.244140625,0.18310546875,0.1220703125,3.8067626953125,-2.7081298828125,43.934326171875,466.0,-1617.0,-2556.0,0.92633056640625,0.03961181640625,-0.00946044921875,0.37451171875,3.8069847267378516,-2.706248869639974,39.43677787604815,0.9403158507456351,0.039222664048272425,-0.011013427804393659,0.3378555725002424,1,	00:29:54.853,0.04443359375,0.01220703125,1.005859375,-1.03759765625,-1.28173828125,-0.48828125,0.6756591796875,-2.548828125,179.088134765625,-425.0,-1193.0,-1991.0,-0.0078125,-0.022308349609375,-0.0057373046875,-0.99969482421875,0.6770416986355959,-2.5512502873860434,179.61900357281775,-0.0031924036430773755,-0.022281146962093823,-0.005832756338596637,-0.9997296324519584,1
1782117302.083591,0.059,1024.0,1023.0,1024.0,1023.0,1023.0,1023.0,1023.0,1024.0,1023.0,1023.0,1024.0,1024.0,1023.0,1024.0,1024.0,1023.0,1024.0,1024.0,1024.0,1024.0,1024.0,1023.0,1023.0,1023.0,1024.0,1024.0,1024.0,1023.0,1024.0,1023.0,1023.0,1024.0,1022.0,1023.0,1023.0,1024.0,1024.0,1024.0,1023.0,1023.0,1023.0,1022.0,1023.0,1024.0,1023.0,1024.0,1024.0,1023.0,1023.0,1023.0,1023.0,1023.0,1023.0,1024.0,1024.0,1024.0,1024.0,1023.0,1024.0,1024.0,1023.0,1024.0,1023.0,1024.0,1024.0,1024.0,1024.0,1023.0,1023.0,1022.0,1022.0,1023.0,1023.0,1024.0,1024.0,1024.0,1023.0,1024.0,1023.0,1023.0,1023.0,1024.0,1024.0,1025.0,1025.0,1024.0,1024.0,1024.0,1024.0,1024.0,1023.0,1023.0,1024.0,1025.0,1024.0,1024.0,1024.0,1024.0,1023.0,1023.0,1022.0,1023.0,1024.0,1024.0,1024.0,1024.0,1024.0,1024.0,1024.0,1023.0,1023.0,1023.0,1023.0,1024.0,1023.0,1023.0,1023.0,1023.0,1023.0,1021.0,1022.0,1023.0,1024.0,1023.0,1024.0,1024.0,1024.0,1023.0,1022.0,1023.0,1024.0,1023.0,1024.0,1024.0,1023.0,1023.0,1024.0,1025.0,1025.0,1024.0,1024.0,1024.0,1024.0,1023.0,1025.0,1024.0,1024.0,1025.0,1024.0,1024.0,1024.0,1025.0,1024.0,1025.0,1025.0,1024.0,1024.0,1026.0,1026.0,1027.0,1027.0,1024.0,1026.0,1029.0,1028.0,1029.0,1029.0,1026.0,1029.0,1035.0,1032.0,1035.0,1033.0,1027.0,1032.0,1040.0,1036.0,1037.0,1038.0,1028.0,1035.0,1042.0,1035.0,1033.0,1038.0,1029.0,1042.0,1047.0,1037.0,1034.0,1040.0,1032.0,1041.0,1046.0,1037.0,1032.0,1039.0,1032.0,1035.0,1039.0,1033.0,1030.0,1035.0,1030.0,1036.0,1039.0,1033.0,1030.0,1035.0,1031.0,1023.0,1024.0,1022.0,1023.0,1024.0,1022.0,1037.0,1040.0,1034.0,1031.0,1036.0,1036.0,1031.0,1034.0,1031.0,1030.0,1034.0,1033.0,1028.0,1030.0,1027.0,1026.0,1028.0,2047,2019,1910,	00:29:54.863,0.05029296875,0.068359375,1.01708984375,-0.244140625,0.18310546875,0.1220703125,3.834228515625,-2.79052734375,43.934326171875,465.0,-1615.0,-2556.0,0.926300048828125,0.04010009765625,-0.01007080078125,0.374542236328125,3.8325528444172106,-2.7915735090481975,39.43677440434632,0.9402818841357857,0.039682920133840276,-0.011638589449071956,0.3378754022585016,1,	00:29:54.864,0.04443359375,0.01318359375,1.00537109375,-0.9765625,-1.220703125,-0.48828125,0.758056640625,-2.537841796875,179.0826416015625,-427.0,-1192.0,-1993.0,-0.00787353515625,-0.022216796875,-0.00640869140625,-0.99969482421875,0.7558371108568638,-2.5385779389433294,179.6100484251008,-0.0032559464614483687,-0.02217328959730534,-0.006518839678379728,-0.9997275872808162,1
1782117302.094129,0.070,1024.0,1023.0,1024.0,1023.0,1024.0,1023.0,1023.0,1023.0,1023.0,1023.0,1024.0,1024.0,1023.0,1024.0,1024.0,1024.0,1023.0,1024.0,1024.0,1024.0,1024.0,1023.0,1023.0,1024.0,1023.0,1024.0,1024.0,1024.0,1024.0,1024.0,1024.0,1023.0,1022.0,1024.0,1024.0,1024.0,1023.0,1024.0,1024.0,1023.0,1023.0,1022.0,1023.0,1024.0,1024.0,1024.0,1024.0,1024.0,1023.0,1023.0,1022.0,1023.0,1023.0,1024.0,1024.0,1024.0,1024.0,1023.0,1023.0,1024.0,1023.0,1023.0,1023.0,1024.0,1024.0,1023.0,1024.0,1024.0,1024.0,1022.0,1022.0,1023.0,1023.0,1024.0,1024.0,1024.0,1024.0,1023.0,1023.0,1022.0,1022.0,1023.0,1024.0,1024.0,1024.0,1024.0,1024.0,1024.0,1024.0,1024.0,1023.0,1023.0,1023.0,1024.0,1024.0,1024.0,1024.0,1024.0,1024.0,1023.0,1023.0,1024.0,1023.0,1025.0,1024.0,1024.0,1024.0,1023.0,1024.0,1023.0,1022.0,1023.0,1022.0,1023.0,1023.0,1023.0,1024.0,1023.0,1023.0,1020.0,1022.0,1023.0,1024.0,1023.0,1024.0,1024.0,1023.0,1023.0,1022.0,1023.0,1024.0,1024.0,1024.0,1024.0,1023.0,1023.0,1024.0,1025.0,1024.0,1024.0,1025.0,1023.0,1023.0,1024.0,1025.0,1024.0,1024.0,1025.0,1023.0,1024.0,1024.0,1025.0,1024.0,1025.0,1025.0,1024.0,1025.0,1026.0,1026.0,1027.0,1028.0,1024.0,1026.0,1029.0,1028.0,1029.0,1028.0,1025.0,1029.0,1035.0,1032.0,1034.0,1034.0,1027.0,1033.0,1040.0,1036.0,1036.0,1038.0,1028.0,1036.0,1042.0,1035.0,1034.0,1038.0,1029.0,1041.0,1048.0,1037.0,1034.0,1040.0,1032.0,1042.0,1046.0,1037.0,1032.0,1039.0,1032.0,1034.0,1038.0,1033.0,1029.0,1035.0,1030.0,1036.0,1040.0,1034.0,1030.0,1035.0,1031.0,1024.0,1024.0,1022.0,1023.0,1024.0,1022.0,1038.0,1040.0,1034.0,1031.0,1036.0,1035.0,1032.0,1034.0,1030.0,1030.0,1034.0,1033.0,1028.0,1028.0,1027.0,1027.0,1029.0,2047,2019,1909,	00:29:54.873,0.0498046875,0.06787109375,1.01708984375,-0.18310546875,0.18310546875,0.1220703125,3.746337890625,-2.823486328125,43.9398193359375,466.0,-1616.0,-2556.0,0.926300048828125,0.03948974609375,-0.0106201171875,0.37457275390625,3.7449398832361713,-2.8223507250571522,39.44231455089809,0.9402864640014033,0.03905492807363775,-0.01214772090903546,0.3379179058375225,1,	00:29:54.874,0.044921875,0.0126953125,1.00634765625,-0.9765625,-1.28173828125,-0.54931640625,0.6646728515625,-2.5927734375,179.0771484375,-426.0,-1191.0,-1989.0,-0.007904052734375,-0.022674560546875,-0.005615234375,-0.99969482421875,0.6648503209099214,-2.5934977173751377,179.6080332741581,-0.003288315406395636,-0.02264993226690435,-0.005722953417909647,-0.999721668943046,1
1782117302.103146,0.079,1024.0,1023.0,1023.0,1022.0,1023.0,1023.0,1023.0,1023.0,1022.0,1024.0,1024.0,1024.0,1024.0,1024.0,1024.0,1023.0,1024.0,1024.0,1024.0,1023.0,1024.0,1024.0,1023.0,1023.0,1023.0,1024.0,1024.0,1024.0,1024.0,1023.0,1023.0,1023.0,1023.0,1023.0,1024.0,1023.0,1024.0,1024.0,1023.0,1023.0,1022.0,1023.0,1024.0,1024.0,1023.0,1024.0,1024.0,1023.0,1024.0,1022.0,1023.0,1023.0,1024.0,1024.0,1024.0,1024.0,1024.0,1023.0,1023.0,1024.0,1023.0,1024.0,1023.0,1024.0,1024.0,1024.0,1024.0,1024.0,1023.0,1022.0,1022.0,1023.0,1022.0,1024.0,1023.0,1024.0,1024.0,1023.0,1023.0,1023.0,1022.0,1023.0,1024.0,1024.0,1024.0,1024.0,1024.0,1024.0,1024.0,1024.0,1023.0,1023.0,1024.0,1025.0,1024.0,1024.0,1024.0,1024.0,1024.0,1024.0,1023.0,1024.0,1023.0,1024.0,1024.0,1024.0,1024.0,1024.0,1024.0,1023.0,1023.0,1023.0,1022.0,1024.0,1023.0,1023.0,1024.0,1023.0,1022.0,1020.0,1022.0,1023.0,1024.0,1023.0,1023.0,1023.0,1023.0,1022.0,1022.0,1023.0,1024.0,1023.0,1024.0,1024.0,1023.0,1023.0,1024.0,1024.0,1024.0,1024.0,1025.0,1024.0,1024.0,1024.0,1024.0,1024.0,1024.0,1025.0,1024.0,1024.0,1024.0,1025.0,1024.0,1024.0,1025.0,1024.0,1024.0,1026.0,1025.0,1027.0,1028.0,1025.0,1026.0,1029.0,1027.0,1030.0,1029.0,1025.0,1029.0,1036.0,1032.0,1034.0,1033.0,1026.0,1032.0,1040.0,1036.0,1036.0,1038.0,1028.0,1036.0,1041.0,1034.0,1033.0,1038.0,1029.0,1042.0,1047.0,1037.0,1033.0,1041.0,1031.0,1042.0,1046.0,1037.0,1032.0,1040.0,1032.0,1035.0,1038.0,1033.0,1029.0,1036.0,1030.0,1036.0,1039.0,1033.0,1031.0,1036.0,1031.0,1023.0,1024.0,1023.0,1023.0,1024.0,1022.0,1037.0,1040.0,1034.0,1030.0,1037.0,1036.0,1031.0,1034.0,1030.0,1030.0,1034.0,1032.0,1028.0,1029.0,1026.0,1027.0,1029.0,2047,2019,1909,	00:29:54.883,0.05029296875,0.0673828125,1.0166015625,-0.244140625,0.18310546875,0.06103515625,3.834228515625,-2.8289794921875,43.9398193359375,465.0,-1616.0,-2553.0,0.92626953125,0.04022216796875,-0.010345458984375,0.374542236328125,3.8337496807529825,-2.827651589228308,39.43854501914837,0.9402654345710261,0.039798817139881086,-0.011930656947443583,0.33789736034782547,1,	00:29:54.884,0.04345703125,0.01220703125,1.00634765625,-0.8544921875,-1.28173828125,-0.54931640625,0.68115234375,-2.515869140625,179.0716552734375,-427.0,-1194.0,-1988.0,-0.007965087890625,-0.022003173828125,-0.0057373046875,-0.99969482421875,0.678679221455395,-2.5173574187083645,179.60139410546478,-0.0033474892708778483,-0.021986399206243405,-0.00584468580487404,-0.9997355811480191,1
1782117302.113815,0.089,1024.0,1024.0,1023.0,1023.0,1023.0,1023.0,1023.0,1024.0,1023.0,1024.0,1023.0,1024.0,1023.0,1024.0,1023.0,1023.0,1023.0,1024.0,1024.0,1024.0,1024.0,1024.0,1023.0,1023.0,1023.0,1024.0,1024.0,1024.0,1024.0,1024.0,1023.0,1023.0,1023.0,1023.0,1024.0,1024.0,1023.0,1024.0,1023.0,1023.0,1023.0,1022.0,1023.0,1024.0,1024.0,1024.0,1024.0,1023.0,1023.0,1023.0,1023.0,1023.0,1023.0,1024.0,1024.0,1024.0,1024.0,1024.0,1023.0,1023.0,1022.0,1023.0,1023.0,1024.0,1024.0,1024.0,1024.0,1024.0,1023.0,1022.0,1022.0,1023.0,1024.0,1024.0,1024.0,1024.0,1024.0,1023.0,1023.0,1023.0,1022.0,1023.0,1023.0,1025.0,1024.0,1024.0,1024.0,1024.0,1024.0,1023.0,1022.0,1023.0,1023.0,1024.0,1024.0,1024.0,1024.0,1024.0,1024.0,1023.0,1022.0,1024.0,1024.0,1024.0,1024.0,1024.0,1025.0,1023.0,1023.0,1023.0,1023.0,1023.0,1023.0,1024.0,1022.0,1023.0,1024.0,1023.0,1022.0,1021.0,1022.0,1023.0,1024.0,1023.0,1023.0,1024.0,1023.0,1023.0,1022.0,1023.0,1024.0,1024.0,1024.0,1024.0,1023.0,1023.0,1024.0,1024.0,1024.0,1024.0,1025.0,1023.0,1024.0,1023.0,1025.0,1024.0,1024.0,1025.0,1023.0,1024.0,1024.0,1025.0,1025.0,1025.0,1026.0,1024.0,1024.0,1026.0,1026.0,1027.0,1027.0,1024.0,1025.0,1029.0,1027.0,1029.0,1029.0,1025.0,1028.0,1036.0,1032.0,1034.0,1034.0,1026.0,1033.0,1041.0,1036.0,1037.0,1039.0,1028.0,1036.0,1042.0,1035.0,1033.0,1038.0,1029.0,1042.0,1047.0,1037.0,1034.0,1040.0,1032.0,1042.0,1046.0,1038.0,1032.0,1040.0,1032.0,1035.0,1038.0,1032.0,1029.0,1036.0,1030.0,1036.0,1039.0,1034.0,1030.0,1036.0,1031.0,1024.0,1024.0,1023.0,1023.0,1024.0,1022.0,1037.0,1040.0,1034.0,1031.0,1037.0,1035.0,1032.0,1034.0,1030.0,1030.0,1035.0,1033.0,1028.0,1029.0,1026.0,1026.0,1029.0,2047,2019,1909,	00:29:54.893,0.05029296875,0.0673828125,1.01708984375,-0.244140625,0.18310546875,0.1220703125,3.7408447265625,-2.8179931640625,43.9453125,467.0,-1613.0,-2556.0,0.926300048828125,0.039459228515625,-0.010589599609375,0.374603271484375,3.7398929480651115,-2.81962615779254,39.44438697239808,0.9402828840645253,0.03900573624825201,-0.012139528821058456,0.33793384310399105,1,	00:29:54.894,0.04345703125,0.0126953125,1.005859375,-0.8544921875,-1.28173828125,-0.48828125,0.736083984375,-2.4664306640625,179.066162109375,-427.0,-1191.0,-1988.0,-0.008026123046875,-0.021575927734375,-0.006256103515625,-0.999725341796875,0.7357345077034425,-2.4658216257810652,179.593508916102,-0.0034082561289331998,-0.021538883574355523,-0.006342599374665538,-0.9997420825981581,1
1782117302.123934,0.100,1023.0,1023.0,1023.0,1023.0,1023.0,1023.0,1024.0,1023.0,1022.0,1023.0,1024.0,1024.0,1024.0,1024.0,1023.0,1023.0,1024.0,1024.0,1024.0,1024.0,1024.0,1023.0,1023.0,1024.0,1024.0,1024.0,1024.0,1024.0,1024.0,1023.0,1023.0,1024.0,1023.0,1023.0,1024.0,1024.0,1024.0,1024.0,1023.0,1023.0,1023.0,1023.0,1023.0,1024.0,1023.0,1024.0,1024.0,1024.0,1023.0,1022.0,1022.0,1023.0,1023.0,1024.0,1024.0,1024.0,1024.0,1023.0,1024.0,1024.0,1023.0,1023.0,1023.0,1024.0,1023.0,1024.0,1024.0,1023.0,1023.0,1022.0,1022.0,1023.0,1023.0,1024.0,1024.0,1024.0,1024.0,1023.0,1023.0,1023.0,1023.0,1023.0,1023.0,1025.0,1024.0,1024.0,1025.0,1023.0,1023.0,1024.0,1023.0,1023.0,1023.0,1024.0,1024.0,1024.0,1024.0,1024.0,1023.0,1023.0,1023.0,1023.0,1023.0,1024.0,1024.0,1024.0,1024.0,1023.0,1023.0,1023.0,1022.0,1023.0,1023.0,1024.0,1023.0,1023.0,1024.0,1023.0,1023.0,1020.0,1022.0,1023.0,1024.0,1023.0,1024.0,1024.0,1023.0,1023.0,1022.0,1023.0,1024.0,1024.0,1023.0,1024.0,1023.0,1023.0,1024.0,1025.0,1024.0,1024.0,1025.0,1024.0,1024.0,1024.0,1024.0,1024.0,1024.0,1024.0,1023.0,1024.0,1024.0,1025.0,1024.0,1024.0,1026.0,1024.0,1024.0,1026.0,1026.0,1027.0,1027.0,1024.0,1026.0,1029.0,1027.0,1029.0,1028.0,1025.0,1029.0,1036.0,1032.0,1035.0,1033.0,1026.0,1033.0,1040.0,1037.0,1036.0,1039.0,1027.0,1035.0,1042.0,1035.0,1033.0,1038.0,1029.0,1042.0,1047.0,1037.0,1034.0,1040.0,1032.0,1042.0,1046.0,1038.0,1032.0,1040.0,1032.0,1034.0,1038.0,1033.0,1029.0,1035.0,1029.0,1036.0,1039.0,1033.0,1030.0,1036.0,1031.0,1023.0,1023.0,1023.0,1023.0,1024.0,1022.0,1038.0,1040.0,1033.0,1030.0,1036.0,1035.0,1031.0,1034.0,1030.0,1029.0,1034.0,1032.0,1027.0,1029.0,1026.0,1026.0,1029.0,2047,2019,1909,	00:29:54.904,0.05029296875,0.068359375,1.01708984375,-0.30517578125,0.1220703125,0.06103515625,3.8287353515625,-2.823486328125,43.9398193359375,466.0,-1617.0,-2558.0,0.92626953125,0.0401611328125,-0.010345458984375,0.37457275390625,3.828281080616498,-2.8226767530905996,39.440574331539736,0.9402628448542711,0.03973955407367998,-0.011905233925672026,0.33791243811637495,1,	00:29:54.905,0.04296875,0.01318359375,1.005859375,-0.79345703125,-1.220703125,-0.54931640625,0.7855224609375,-2.406005859375,179.05517578125,-426.0,-1194.0,-1988.0,-0.008087158203125,-0.021026611328125,-0.00665283203125,-0.999725341796875,0.7835977503299778,-2.4050344985896905,179.58548931669594,-0.003472892648273141,-0.021010446526347055,-0.006760664630063957,-0.9997503656249279,1
1782117302.135339,0.111,1023.0,1024.0,1023.0,1023.0,1023.0,1023.0,1023.0,1023.0,1022.0,1023.0,1024.0,1024.0,1024.0,1024.0,1023.0,1023.0,1023.0,1024.0,1024.0,1024.0,1024.0,1023.0,1023.0,1023.0,1023.0,1024.0,1024.0,1024.0,1024.0,1024.0,1023.0,1023.0,1023.0,1023.0,1024.0,1023.0,1023.0,1024.0,1023.0,1023.0,1023.0,1023.0,1023.0,1024.0,1024.0,1023.0,1024.0,1023.0,1023.0,1023.0,1023.0,1023.0,1024.0,1024.0,1024.0,1024.0,1024.0,1023.0,1023.0,1024.0,1023.0,1023.0,1023.0,1024.0,1024.0,1023.0,1024.0,1023.0,1023.0,1022.0,1022.0,1023.0,1023.0,1024.0,1024.0,1023.0,1024.0,1023.0,1023.0,1023.0,1023.0,1023.0,1024.0,1025.0,1025.0,1023.0,1024.0,1024.0,1024.0,1024.0,1022.0,1024.0,1023.0,1024.0,1024.0,1024.0,1024.0,1023.0,1024.0,1024.0,1023.0,1024.0,1024.0,1024.0,1024.0,1024.0,1025.0,1024.0,1023.0,1023.0,1023.0,1023.0,1023.0,1024.0,1023.0,1023.0,1024.0,1023.0,1022.0,1020.0,1022.0,1023.0,1024.0,1024.0,1024.0,1024.0,1023.0,1023.0,1021.0,1023.0,1024.0,1023.0,1023.0,1024.0,1022.0,1023.0,1024.0,1024.0,1024.0,1024.0,1025.0,1024.0,1024.0,1023.0,1025.0,1024.0,1024.0,1025.0,1024.0,1023.0,1024.0,1025.0,1024.0,1025.0,1026.0,1023.0,1025.0,1026.0,1026.0,1027.0,1028.0,1024.0,1025.0,1028.0,1028.0,1029.0,1029.0,1024.0,1029.0,1035.0,1032.0,1035.0,1033.0,1026.0,1033.0,1040.0,1036.0,1036.0,1039.0,1027.0,1035.0,1042.0,1035.0,1033.0,1038.0,1029.0,1042.0,1047.0,1037.0,1034.0,1041.0,1031.0,1041.0,1047.0,1038.0,1033.0,1040.0,1031.0,1035.0,1038.0,1033.0,1029.0,1035.0,1030.0,1036.0,1039.0,1033.0,1030.0,1036.0,1031.0,1024.0,1024.0,1022.0,1023.0,1024.0,1022.0,1038.0,1040.0,1033.0,1030.0,1036.0,1035.0,1032.0,1034.0,1030.0,1029.0,1034.0,1033.0,1028.0,1030.0,1026.0,1027.0,1029.0,2047,2019,1909,	00:29:54.914,0.04931640625,0.0673828125,1.01708984375,-0.30517578125,0.18310546875,0.1220703125,3.7738037109375,-2.74658203125,43.9453125,468.0,-1614.0,-2560.0,0.926300048828125,0.039459228515625,-0.009918212890625,0.37457275390625,3.771790629200155,-2.746693710562866,39.44450719317906,0.94029324350153,0.03905336387708818,-0.01144662855149963,0.3379236980296886,1,	00:29:54.915,0.04443359375,0.0146484375,1.00732421875,-0.79345703125,-1.28173828125,-0.54931640625,0.81298828125,-2.5048828125,179.0496826171875,-424.0,-1189.0,-1988.0,-0.008148193359375,-0.021881103515625,-0.00689697265625,-0.99969482421875,0.8107525687014916,-2.5024798492708737,179.5783310371814,-0.003524283733904924,-0.021861854613787257,-0.006993006060111199,-0.9997303319411948,1
1782117302.144768,0.120,1024.0,1023.0,1024.0,1023.0,1023.0,1022.0,1023.0,1024.0,1022.0,1023.0,1024.0,1024.0,1023.0,1024.0,1023.0,1023.0,1023.0,1024.0,1024.0,1024.0,1024.0,1023.0,1023.0,1023.0,1023.0,1024.0,1024.0,1024.0,1024.0,1023.0,1023.0,1023.0,1023.0,1023.0,1024.0,1023.0,1023.0,1024.0,1023.0,1023.0,1023.0,1022.0,1023.0,1024.0,1024.0,1023.0,1024.0,1023.0,1023.0,1023.0,1022.0,1023.0,1023.0,1024.0,1024.0,1024.0,1024.0,1024.0,1024.0,1024.0,1023.0,1023.0,1023.0,1024.0,1024.0,1024.0,1024.0,1023.0,1024.0,1022.0,1022.0,1023.0,1023.0,1024.0,1024.0,1023.0,1024.0,1023.0,1023.0,1023.0,1022.0,1024.0,1024.0,1025.0,1024.0,1024.0,1024.0,1024.0,1023.0,1024.0,1023.0,1023.0,1024.0,1025.0,1024.0,1024.0,1025.0,1023.0,1023.0,1023.0,1022.0,1023.0,1024.0,1025.0,1024.0,1024.0,1025.0,1023.0,1024.0,1023.0,1022.0,1023.0,1023.0,1024.0,1023.0,1024.0,1024.0,1023.0,1023.0,1020.0,1022.0,1023.0,1024.0,1023.0,1024.0,1024.0,1023.0,1023.0,1022.0,1023.0,1024.0,1023.0,1024.0,1024.0,1023.0,1023.0,1024.0,1024.0,1024.0,1024.0,1025.0,1023.0,1023.0,1024.0,1024.0,1024.0,1024.0,1025.0,1024.0,1024.0,1024.0,1024.0,1024.0,1024.0,1025.0,1024.0,1024.0,1027.0,1026.0,1027.0,1028.0,1024.0,1025.0,1029.0,1028.0,1030.0,1030.0,1025.0,1029.0,1035.0,1032.0,1034.0,1034.0,1026.0,1033.0,1040.0,1036.0,1037.0,1038.0,1028.0,1036.0,1042.0,1034.0,1033.0,1038.0,1029.0,1042.0,1047.0,1037.0,1034.0,1041.0,1032.0,1042.0,1047.0,1038.0,1032.0,1041.0,1032.0,1035.0,1038.0,1033.0,1029.0,1036.0,1030.0,1036.0,1039.0,1033.0,1030.0,1036.0,1032.0,1024.0,1024.0,1022.0,1023.0,1024.0,1022.0,1037.0,1040.0,1033.0,1030.0,1037.0,1035.0,1032.0,1034.0,1030.0,1029.0,1034.0,1032.0,1027.0,1029.0,1026.0,1026.0,1029.0,2047,2019,1909,	00:29:54.924,0.04931640625,0.0673828125,1.0166015625,-0.244140625,0.18310546875,0.1220703125,3.8287353515625,-2.8179931640625,43.9453125,466.0,-1616.0,-2555.0,0.92626953125,0.0401611328125,-0.010284423828125,0.37457275390625,3.8276792976542238,-2.8152977392324923,39.44301546232189,0.940258070504565,0.039713208688670704,-0.01184557937481463,0.33793091624762245,1,	00:29:54.925,0.04248046875,0.01318359375,1.0068359375,-0.79345703125,-1.28173828125,-0.54931640625,0.7525634765625,-2.43896484375,179.044189453125,-426.0,-1192.0,-1988.0,-0.0081787109375,-0.021331787109375,-0.006378173828125,-0.999725341796875,0.7505966747213398,-2.440115864805656,179.5749096724393,-0.003569216378385085,-0.021316108438569847,-0.0064696300316903314,-0.999745481661574,1
1782117302.154780,0.130,1023.0,1023.0,1024.0,1023.0,1023.0,1022.0,1023.0,1023.0,1023.0,1024.0,1024.0,1024.0,1023.0,1024.0,1023.0,1024.0,1023.0,1024.0,1024.0,1023.0,1024.0,1023.0,1024.0,1023.0,1023.0,1024.0,1024.0,1024.0,1024.0,1023.0,1023.0,1023.0,1023.0,1023.0,1024.0,1024.0,1023.0,1024.0,1023.0,1023.0,1022.0,1023.0,1023.0,1024.0,1023.0,1024.0,1024.0,1023.0,1023.0,1023.0,1022.0,1023.0,1023.0,1024.0,1024.0,1024.0,1024.0,1024.0,1023.0,1024.0,1023.0,1023.0,1023.0,1024.0,1024.0,1024.0,1024.0,1023.0,1023.0,1022.0,1022.0,1023.0,1023.0,1024.0,1023.0,1024.0,1024.0,1023.0,1024.0,1023.0,1022.0,1023.0,1023.0,1024.0,1024.0,1024.0,1024.0,1024.0,1023.0,1024.0,1023.0,1023.0,1024.0,1025.0,1024.0,1024.0,1024.0,1023.0,1023.0,1023.0,1022.0,1023.0,1024.0,1024.0,1024.0,1024.0,1025.0,1023.0,1023.0,1023.0,1022.0,1023.0,1023.0,1024.0,1023.0,1023.0,1024.0,1022.0,1023.0,1021.0,1021.0,1023.0,1024.0,1023.0,1024.0,1024.0,1023.0,1023.0,1022.0,1023.0,1024.0,1024.0,1024.0,1024.0,1023.0,1023.0,1024.0,1025.0,1024.0,1024.0,1024.0,1024.0,1024.0,1024.0,1024.0,1024.0,1024.0,1025.0,1024.0,1024.0,1024.0,1025.0,1024.0,1025.0,1026.0,1024.0,1024.0,1026.0,1026.0,1028.0,1027.0,1025.0,1026.0,1029.0,1027.0,1029.0,1029.0,1025.0,1029.0,1035.0,1032.0,1035.0,1034.0,1026.0,1033.0,1040.0,1036.0,1037.0,1039.0,1027.0,1036.0,1042.0,1035.0,1033.0,1038.0,1029.0,1042.0,1047.0,1037.0,1034.0,1040.0,1032.0,1042.0,1047.0,1038.0,1032.0,1040.0,1032.0,1035.0,1038.0,1032.0,1029.0,1035.0,1030.0,1036.0,1039.0,1034.0,1030.0,1035.0,1032.0,1024.0,1023.0,1022.0,1023.0,1024.0,1022.0,1037.0,1040.0,1033.0,1030.0,1036.0,1035.0,1032.0,1034.0,1030.0,1029.0,1034.0,1032.0,1028.0,1029.0,1026.0,1027.0,1028.0,2046,2019,1909,	00:29:54.934,0.05029296875,0.06787109375,1.01708984375,-0.30517578125,0.18310546875,0.06103515625,3.75732421875,-2.87841796875,43.9453125,465.0,-1613.0,-2559.0,0.92626953125,0.039764404296875,-0.010986328125,0.3746337890625,3.757506047692225,-2.8760640688034913,39.447079747255856,0.9402519741466993,0.0393162405599675,-0.012550029118338465,0.33796886707298124,1,	00:29:54.935,0.04345703125,0.013671875,1.0068359375,-0.732421875,-1.28173828125,-0.48828125,0.802001953125,-2.5213623046875,179.0386962890625,-424.0,-1191.0,-1988.0,-0.00823974609375,-0.022064208984375,-0.0068359375,-0.99969482421875,0.8040160472101218,-2.5216641272164004,179.56723997361505,-0.003621142437944394,-0.022029687210732278,-0.006931460861237138,-0.999726730191391,1
1782117302.168396,0.144,1023.0,1023.0,1023.0,1024.0,1023.0,1023.0,1023.0,1024.0,1023.0,1023.0,1024.0,1024.0,1024.0,1024.0,1023.0,1023.0,1023.0,1024.0,1024.0,1024.0,1024.0,1024.0,1023.0,1023.0,1023.0,1023.0,1024.0,1024.0,1024.0,1024.0,1024.0,1023.0,1023.0,1023.0,1024.0,1023.0,1024.0,1024.0,1023.0,1023.0,1023.0,1022.0,1023.0,1024.0,1023.0,1024.0,1024.0,1023.0,1023.0,1022.0,1023.0,1023.0,1024.0,1024.0,1024.0,1024.0,1024.0,1024.0,1023.0,1024.0,1023.0,1023.0,1023.0,1024.0,1023.0,1024.0,1024.0,1023.0,1023.0,1022.0,1022.0,1023.0,1023.0,1024.0,1023.0,1024.0,1024.0,1023.0,1024.0,1023.0,1022.0,1023.0,1024.0,1024.0,1024.0,1024.0,1024.0,1023.0,1023.0,1023.0,1023.0,1023.0,1023.0,1024.0,1024.0,1024.0,1025.0,1023.0,1023.0,1023.0,1023.0,1023.0,1024.0,1025.0,1024.0,1024.0,1025.0,1023.0,1024.0,1023.0,1022.0,1023.0,1024.0,1024.0,1023.0,1023.0,1024.0,1023.0,1023.0,1021.0,1022.0,1023.0,1024.0,1024.0,1023.0,1024.0,1023.0,1023.0,1022.0,1023.0,1024.0,1023.0,1024.0,1024.0,1023.0,1023.0,1024.0,1025.0,1024.0,1024.0,1024.0,1024.0,1024.0,1024.0,1024.0,1024.0,1024.0,1025.0,1023.0,1024.0,1024.0,1025.0,1024.0,1025.0,1026.0,1024.0,1024.0,1027.0,1026.0,1028.0,1028.0,1025.0,1026.0,1029.0,1028.0,1029.0,1029.0,1024.0,1029.0,1035.0,1032.0,1035.0,1033.0,1026.0,1033.0,1040.0,1036.0,1036.0,1038.0,1028.0,1035.0,1042.0,1035.0,1033.0,1038.0,1029.0,1042.0,1047.0,1038.0,1034.0,1041.0,1031.0,1041.0,1047.0,1038.0,1033.0,1040.0,1032.0,1035.0,1038.0,1033.0,1030.0,1035.0,1030.0,1036.0,1039.0,1033.0,1030.0,1036.0,1031.0,1023.0,1024.0,1023.0,1024.0,1023.0,1022.0,1038.0,1040.0,1033.0,1031.0,1037.0,1035.0,1031.0,1034.0,1030.0,1030.0,1034.0,1032.0,1027.0,1028.0,1026.0,1027.0,1029.0,2046,2019,1909,	00:29:54.944,0.048828125,0.0673828125,1.017578125,-0.30517578125,0.18310546875,0.06103515625,3.7738037109375,-2.7850341796875,43.9453125,469.0,-1616.0,-2559.0,0.92626953125,0.03961181640625,-0.01019287109375,0.374603271484375,3.774961171006429,-2.7849815618567377,39.44679278955983,0.9402741228354915,0.03919202441486339,-0.011750849154687637,0.33795040566976026,1,	00:29:54.946,0.0439453125,0.013671875,1.0068359375,-0.732421875,-1.28173828125,-0.54931640625,0.72509765625,-2.471923828125,179.033203125,-426.0,-1195.0,-1988.0,-0.008270263671875,-0.021636962890625,-0.00616455078125,-0.999725341796875,0.7278428674737912,-2.474188914494995,179.56457042683786,-0.0036617406238036313,-0.021613231834808053,-0.006268022702485746,-0.9997400520918724,1
1782117302.175586,0.151,1023.0,1023.0,1023.0,1023.0,1023.0,1023.0,1024.0,1023.0,1022.0,1024.0,1024.0,1023.0,1024.0,1024.0,1023.0,1023.0,1024.0,1024.0,1024.0,1024.0,1024.0,1023.0,1023.0,1024.0,1023.0,1024.0,1024.0,1023.0,1024.0,1023.0,1023.0,1023.0,1022.0,1023.0,1024.0,1024.0,1023.0,1024.0,1023.0,1023.0,1023.0,1022.0,1023.0,1024.0,1024.0,1024.0,1024.0,1023.0,1023.0,1023.0,1022.0,1024.0,1023.0,1024.0,1024.0,1024.0,1024.0,1024.0,1023.0,1024.0,1023.0,1023.0,1023.0,1024.0,1023.0,1024.0,1024.0,1023.0,1023.0,1022.0,1022.0,1023.0,1023.0,1024.0,1023.0,1024.0,1025.0,1023.0,1023.0,1022.0,1022.0,1024.0,1023.0,1025.0,1024.0,1024.0,1024.0,1024.0,1024.0,1024.0,1022.0,1023.0,1024.0,1024.0,1024.0,1024.0,1024.0,1023.0,1024.0,1023.0,1022.0,1023.0,1023.0,1024.0,1024.0,1024.0,1024.0,1023.0,1024.0,1023.0,1023.0,1023.0,1023.0,1024.0,1022.0,1024.0,1024.0,1023.0,1023.0,1021.0,1022.0,1023.0,1024.0,1023.0,1024.0,1024.0,1023.0,1023.0,1022.0,1023.0,1023.0,1023.0,1023.0,1024.0,1023.0,1023.0,1024.0,1025.0,1024.0,1024.0,1025.0,1024.0,1024.0,1024.0,1024.0,1024.0,1024.0,1025.0,1023.0,1024.0,1024.0,1025.0,1025.0,1025.0,1025.0,1024.0,1024.0,1027.0,1026.0,1027.0,1028.0,1024.0,1026.0,1029.0,1027.0,1029.0,1029.0,1025.0,1029.0,1035.0,1032.0,1035.0,1033.0,1026.0,1033.0,1040.0,1036.0,1037.0,1038.0,1028.0,1036.0,1042.0,1035.0,1034.0,1038.0,1029.0,1042.0,1047.0,1037.0,1034.0,1040.0,1032.0,1042.0,1047.0,1037.0,1033.0,1040.0,1031.0,1035.0,1038.0,1032.0,1029.0,1035.0,1029.0,1036.0,1040.0,1033.0,1031.0,1036.0,1031.0,1023.0,1024.0,1022.0,1023.0,1024.0,1022.0,1038.0,1041.0,1033.0,1030.0,1036.0,1034.0,1031.0,1035.0,1030.0,1030.0,1035.0,1032.0,1027.0,1029.0,1026.0,1026.0,1028.0,2046,2019,1907,	00:29:54.955,0.05029296875,0.06689453125,1.017578125,-0.244140625,0.18310546875,0.1220703125,3.7408447265625,-2.867431640625,43.9508056640625,463.0,-1616.0,-2557.0,0.92626953125,0.039642333984375,-0.010986328125,0.3746337890625,3.741458387285103,-2.8694939603399843,39.4496636815105,0.9402518334455153,0.03916555901836357,-0.012542534375142992,0.33798703158638255,1,	00:29:54.956,0.04248046875,0.013671875,1.00634765625,-0.732421875,-1.28173828125,-0.48828125,0.780029296875,-2.4169921875,179.0277099609375,-426.0,-1193.0,-1989.0,-0.008331298828125,-0.021148681640625,-0.00665283203125,-0.999725341796875,0.7813927197519247,-2.4181898831278463,179.55692804272454,-0.0037216867924214163,-0.02112683267859392,-0.006735729736477625,-0.9997471860091964,1
1782117302.185010,0.161,1024.0,1023.0,1023.0,1022.0,1023.0,1023.0,1023.0,1024.0,1023.0,1023.0,1024.0,1023.0,1023.0,1024.0,1023.0,1023.0,1023.0,1024.0,1024.0,1023.0,1024.0,1023.0,1023.0,1023.0,1024.0,1024.0,1024.0,1023.0,1024.0,1023.0,1023.0,1024.0,1023.0,1023.0,1024.0,1023.0,1024.0,1024.0,1023.0,1024.0,1023.0,1022.0,1023.0,1024.0,1024.0,1023.0,1024.0,1024.0,1024.0,1022.0,1022.0,1023.0,1023.0,1024.0,1024.0,1024.0,1024.0,1024.0,1024.0,1023.0,1023.0,1023.0,1024.0,1024.0,1023.0,1024.0,1024.0,1023.0,1023.0,1022.0,1022.0,1023.0,1023.0,1024.0,1023.0,1023.0,1024.0,1023.0,1023.0,1023.0,1022.0,1023.0,1023.0,1024.0,1024.0,1024.0,1024.0,1024.0,1024.0,1024.0,1023.0,1023.0,1023.0,1025.0,1024.0,1024.0,1024.0,1024.0,1023.0,1024.0,1023.0,1023.0,1023.0,1025.0,1024.0,1024.0,1025.0,1024.0,1023.0,1023.0,1023.0,1023.0,1022.0,1024.0,1022.0,1024.0,1024.0,1023.0,1022.0,1021.0,1022.0,1023.0,1024.0,1024.0,1024.0,1024.0,1024.0,1023.0,1022.0,1023.0,1024.0,1023.0,1024.0,1024.0,1023.0,1023.0,1024.0,1025.0,1024.0,1024.0,1025.0,1024.0,1024.0,1024.0,1024.0,1024.0,1024.0,1025.0,1024.0,1024.0,1024.0,1025.0,1024.0,1025.0,1025.0,1024.0,1025.0,1027.0,1026.0,1027.0,1028.0,1025.0,1026.0,1029.0,1027.0,1030.0,1029.0,1025.0,1029.0,1035.0,1032.0,1035.0,1033.0,1026.0,1033.0,1040.0,1036.0,1037.0,1038.0,1028.0,1035.0,1042.0,1034.0,1034.0,1037.0,1029.0,1042.0,1047.0,1037.0,1035.0,1040.0,1032.0,1041.0,1047.0,1038.0,1033.0,1040.0,1032.0,1034.0,1038.0,1032.0,1029.0,1035.0,1030.0,1036.0,1039.0,1033.0,1030.0,1036.0,1031.0,1023.0,1024.0,1022.0,1023.0,1024.0,1022.0,1037.0,1041.0,1034.0,1031.0,1036.0,1035.0,1031.0,1034.0,1030.0,1030.0,1034.0,1033.0,1027.0,1029.0,1026.0,1027.0,1029.0,2046,2019,1907,	00:29:54.965,0.0498046875,0.0673828125,1.0166015625,-0.30517578125,0.18310546875,0.06103515625,3.790283203125,-2.79052734375,43.9453125,467.0,-1616.0,-2557.0,0.92626953125,0.039794921875,-0.010223388671875,0.374603271484375,3.7917296117804575,-2.793116647069363,39.44775535717358,0.9402631210330002,0.03935359962434245,-0.011767855452530894,0.33796164723225164,1,	00:29:54.966,0.0439453125,0.013671875,1.0068359375,-0.79345703125,-1.220703125,-0.48828125,0.76904296875,-2.5213623046875,179.022216796875,-426.0,-1192.0,-1993.0,-0.008392333984375,-0.022064208984375,-0.00653076171875,-0.99969482421875,0.7698034691965026,-2.5218385913197725,179.5520485608679,-0.0037602432212674813,-0.022031006309060883,-0.006630054511128605,-0.9997282319256101,1
1782117302.196089,0.172,1024.0,1023.0,1023.0,1023.0,1023.0,1023.0,1023.0,1023.0,1023.0,1023.0,1024.0,1024.0,1023.0,1024.0,1023.0,1024.0,1023.0,1024.0,1024.0,1024.0,1024.0,1024.0,1023.0,1023.0,1024.0,1024.0,1024.0,1024.0,1024.0,1023.0,1023.0,1024.0,1023.0,1023.0,1024.0,1023.0,1024.0,1024.0,1024.0,1023.0,1023.0,1022.0,1023.0,1024.0,1023.0,1023.0,1024.0,1023.0,1023.0,1023.0,1022.0,1023.0,1024.0,1024.0,1024.0,1024.0,1024.0,1023.0,1023.0,1024.0,1023.0,1023.0,1023.0,1024.0,1023.0,1024.0,1024.0,1023.0,1023.0,1022.0,1022.0,1023.0,1023.0,1024.0,1023.0,1024.0,1024.0,1024.0,1023.0,1022.0,1023.0,1023.0,1024.0,1024.0,1024.0,1024.0,1024.0,1024.0,1024.0,1024.0,1023.0,1023.0,1024.0,1025.0,1024.0,1024.0,1024.0,1023.0,1024.0,1023.0,1023.0,1023.0,1024.0,1025.0,1024.0,1024.0,1024.0,1023.0,1024.0,1023.0,1023.0,1023.0,1023.0,1024.0,1023.0,1023.0,1024.0,1023.0,1023.0,1020.0,1022.0,1023.0,1024.0,1023.0,1024.0,1024.0,1023.0,1023.0,1022.0,1023.0,1024.0,1024.0,1023.0,1024.0,1023.0,1023.0,1024.0,1025.0,1024.0,1024.0,1025.0,1023.0,1024.0,1024.0,1025.0,1024.0,1024.0,1025.0,1024.0,1024.0,1024.0,1025.0,1024.0,1025.0,1026.0,1024.0,1024.0,1027.0,1025.0,1027.0,1028.0,1024.0,1026.0,1029.0,1027.0,1029.0,1029.0,1025.0,1029.0,1036.0,1031.0,1035.0,1034.0,1026.0,1033.0,1041.0,1036.0,1037.0,1038.0,1027.0,1035.0,1042.0,1034.0,1033.0,1038.0,1029.0,1042.0,1047.0,1037.0,1035.0,1041.0,1032.0,1041.0,1047.0,1037.0,1033.0,1041.0,1032.0,1034.0,1038.0,1032.0,1029.0,1036.0,1030.0,1036.0,1039.0,1033.0,1031.0,1036.0,1031.0,1024.0,1024.0,1022.0,1023.0,1023.0,1022.0,1037.0,1040.0,1034.0,1031.0,1036.0,1035.0,1031.0,1033.0,1030.0,1030.0,1034.0,1033.0,1027.0,1029.0,1026.0,1026.0,1028.0,2046,2019,1908,	00:29:54.975,0.05029296875,0.0673828125,1.0166015625,-0.30517578125,0.18310546875,0.1220703125,3.790283203125,-2.8839111328125,43.9508056640625,465.0,-1615.0,-2555.0,0.926239013671875,0.040069580078125,-0.010955810546875,0.3746337890625,3.7897980611477964,-2.882920324538879,39.44903976223739,0.9402329946753015,0.039601544968875045,-0.012510401398705507,0.33798982709075115,1,	00:29:54.976,0.04296875,0.01416015625,1.00732421875,-0.732421875,-1.220703125,-0.48828125,0.802001953125,-2.449951171875,179.0167236328125,-426.0,-1193.0,-1984.0,-0.0084228515625,-0.021453857421875,-0.006805419921875,-0.999725341796875,0.8001026346956052,-2.4503245060441383,179.54537037883208,-0.0038170901145828788,-0.02140849078409702,-0.006895678361322623,-0.9997397441161082,1
1782117302.206149,0.182,1024.0,1023.0,1024.0,1023.0,1023.0,1023.0,1023.0,1023.0,1023.0,1024.0,1024.0,1024.0,1024.0,1024.0,1023.0,1023.0,1023.0,1024.0,1024.0,1024.0,1024.0,1023.0,1023.0,1023.0,1023.0,1024.0,1023.0,1024.0,1024.0,1023.0,1024.0,1023.0,1023.0,1023.0,1024.0,1024.0,1024.0,1024.0,1023.0,1023.0,1022.0,1022.0,1023.0,1024.0,1024.0,1023.0,1024.0,1023.0,1023.0,1023.0,1023.0,1023.0,1023.0,1024.0,1024.0,1024.0,1024.0,1024.0,1023.0,1024.0,1023.0,1023.0,1023.0,1024.0,1023.0,1023.0,1023.0,1022.0,1023.0,1022.0,1022.0,1023.0,1024.0,1024.0,1023.0,1024.0,1024.0,1024.0,1023.0,1023.0,1023.0,1023.0,1023.0,1025.0,1024.0,1024.0,1024.0,1024.0,1024.0,1024.0,1023.0,1023.0,1023.0,1024.0,1024.0,1024.0,1024.0,1023.0,1023.0,1023.0,1022.0,1023.0,1024.0,1025.0,1024.0,1024.0,1024.0,1024.0,1023.0,1023.0,1023.0,1023.0,1023.0,1024.0,1022.0,1023.0,1024.0,1023.0,1022.0,1020.0,1022.0,1023.0,1024.0,1024.0,1023.0,1024.0,1024.0,1023.0,1021.0,1023.0,1024.0,1024.0,1023.0,1024.0,1023.0,1022.0,1024.0,1024.0,1024.0,1024.0,1025.0,1024.0,1024.0,1024.0,1024.0,1024.0,1025.0,1025.0,1023.0,1024.0,1024.0,1025.0,1024.0,1025.0,1025.0,1024.0,1025.0,1027.0,1026.0,1027.0,1027.0,1024.0,1026.0,1029.0,1027.0,1029.0,1028.0,1025.0,1029.0,1035.0,1032.0,1035.0,1033.0,1026.0,1033.0,1040.0,1036.0,1037.0,1038.0,1028.0,1036.0,1042.0,1034.0,1033.0,1038.0,1029.0,1042.0,1048.0,1037.0,1034.0,1041.0,1032.0,1041.0,1047.0,1037.0,1033.0,1040.0,1032.0,1035.0,1038.0,1032.0,1029.0,1035.0,1030.0,1035.0,1040.0,1033.0,1030.0,1035.0,1031.0,1023.0,1024.0,1022.0,1023.0,1024.0,1022.0,1037.0,1040.0,1033.0,1031.0,1036.0,1036.0,1031.0,1034.0,1030.0,1029.0,1034.0,1033.0,1027.0,1028.0,1026.0,1027.0,1028.0,2046,2019,1908,	00:29:54.985,0.0498046875,0.06787109375,1.0166015625,-0.244140625,0.18310546875,0.06103515625,3.8177490234375,-2.7960205078125,43.9508056640625,467.0,-1616.0,-2555.0,0.92626953125,0.040008544921875,-0.0101318359375,0.3746337890625,3.817801757859969,-2.7946925851446727,39.44825918369028,0.9402521869375737,0.0395722078630946,-0.011703725842230117,0.3379687679732548,1,	00:29:54.986,0.04345703125,0.01416015625,1.0068359375,-0.79345703125,-1.220703125,-0.48828125,0.8184814453125,-2.548828125,179.01123046875,-425.0,-1191.0,-1993.0,-0.00848388671875,-0.022308349609375,-0.006927490234375,-0.99969482421875,0.8163057215313729,-2.5508665753972384,179.5392762316043,-0.003860904913350731,-0.02228656076607456,-0.007032238455293848,-0.9997194357642439,1
1782117302.216174,0.192,1023.0,1024.0,1024.0,1023.0,1023.0,1023.0,1023.0,1023.0,1023.0,1023.0,1024.0,1023.0,1023.0,1024.0,1023.0,1023.0,1023.0,1023.0,1024.0,1023.0,1023.0,1023.0,1023.0,1023.0,1023.0,1024.0,1024.0,1024.0,1024.0,1024.0,1023.0,1023.0,1023.0,1023.0,1024.0,1024.0,1023.0,1024.0,1023.0,1023.0,1023.0,1022.0,1024.0,1024.0,1023.0,1024.0,1024.0,1023.0,1023.0,1023.0,1023.0,1023.0,1024.0,1024.0,1024.0,1024.0,1024.0,1023.0,1024.0,1024.0,1023.0,1023.0,1023.0,1024.0,1024.0,1024.0,1024.0,1023.0,1023.0,1022.0,1022.0,1023.0,1023.0,1024.0,1024.0,1024.0,1024.0,1024.0,1023.0,1022.0,1023.0,1023.0,1024.0,1025.0,1024.0,1024.0,1024.0,1023.0,1024.0,1024.0,1023.0,1024.0,1024.0,1024.0,1024.0,1024.0,1024.0,1023.0,1024.0,1023.0,1022.0,1024.0,1023.0,1025.0,1024.0,1024.0,1025.0,1023.0,1024.0,1023.0,1022.0,1023.0,1023.0,1024.0,1023.0,1023.0,1024.0,1022.0,1022.0,1021.0,1021.0,1023.0,1024.0,1023.0,1024.0,1024.0,1024.0,1023.0,1021.0,1023.0,1024.0,1023.0,1024.0,1024.0,1023.0,1023.0,1024.0,1024.0,1024.0,1024.0,1024.0,1024.0,1024.0,1024.0,1025.0,1024.0,1024.0,1024.0,1024.0,1024.0,1024.0,1025.0,1024.0,1025.0,1026.0,1024.0,1024.0,1026.0,1025.0,1027.0,1027.0,1024.0,1025.0,1029.0,1027.0,1029.0,1029.0,1025.0,1029.0,1035.0,1032.0,1035.0,1033.0,1026.0,1033.0,1040.0,1036.0,1037.0,1039.0,1028.0,1035.0,1042.0,1034.0,1033.0,1038.0,1029.0,1041.0,1049.0,1037.0,1034.0,1041.0,1032.0,1040.0,1047.0,1037.0,1033.0,1041.0,1032.0,1034.0,1039.0,1032.0,1029.0,1035.0,1030.0,1035.0,1040.0,1033.0,1030.0,1036.0,1032.0,1023.0,1024.0,1023.0,1023.0,1024.0,1022.0,1037.0,1040.0,1033.0,1031.0,1036.0,1036.0,1031.0,1034.0,1030.0,1030.0,1034.0,1033.0,1027.0,1029.0,1026.0,1026.0,1028.0,2046,2019,1908,	00:29:54.996,0.0498046875,0.06689453125,1.017578125,-0.30517578125,0.244140625,0.06103515625,3.724365234375,-2.7960205078125,43.956298828125,466.0,-1615.0,-2556.0,0.92626953125,0.03924560546875,-0.01043701171875,0.374664306640625,3.7231468152715643,-2.794476708399118,39.45349599615395,0.9402691718319304,0.0387954407806654,-0.011979345524907837,0.3380019135418087,1,	00:29:54.997,0.04345703125,0.013671875,1.00732421875,-0.79345703125,-1.220703125,-0.54931640625,0.76904296875,-2.48291015625,179.0057373046875,-425.0,-1194.0,-1989.0,-0.008514404296875,-0.021697998046875,-0.00653076171875,-0.99969482421875,0.7690565734739695,-2.4803868895713808,179.5353358222924,-0.003908652401602107,-0.021670310739130946,-0.006621844597692596,-0.999735600667995,1
1782117302.225844,0.201,1023.0,1024.0,1024.0,1023.0,1023.0,1023.0,1023.0,1024.0,1022.0,1023.0,1024.0,1023.0,1023.0,1024.0,1023.0,1023.0,1023.0,1024.0,1024.0,1024.0,1024.0,1024.0,1023.0,1023.0,1023.0,1024.0,1024.0,1024.0,1024.0,1024.0,1023.0,1023.0,1022.0,1023.0,1024.0,1024.0,1024.0,1023.0,1024.0,1023.0,1023.0,1022.0,1023.0,1024.0,1024.0,1024.0,1024.0,1023.0,1023.0,1023.0,1022.0,1023.0,1024.0,1024.0,1024.0,1024.0,1024.0,1024.0,1023.0,1024.0,1022.0,1023.0,1023.0,1024.0,1023.0,1024.0,1024.0,1023.0,1023.0,1023.0,1022.0,1023.0,1023.0,1024.0,1024.0,1024.0,1024.0,1024.0,1023.0,1022.0,1022.0,1023.0,1024.0,1025.0,1024.0,1024.0,1024.0,1024.0,1024.0,1024.0,1023.0,1023.0,1024.0,1024.0,1024.0,1024.0,1024.0,1024.0,1023.0,1023.0,1023.0,1024.0,1024.0,1024.0,1024.0,1024.0,1024.0,1023.0,1023.0,1024.0,1022.0,1023.0,1023.0,1024.0,1022.0,1024.0,1024.0,1023.0,1023.0,1020.0,1021.0,1023.0,1024.0,1023.0,1023.0,1024.0,1023.0,1023.0,1022.0,1023.0,1024.0,1023.0,1023.0,1024.0,1023.0,1023.0,1024.0,1025.0,1024.0,1024.0,1024.0,1024.0,1024.0,1023.0,1025.0,1024.0,1024.0,1024.0,1023.0,1024.0,1024.0,1025.0,1024.0,1025.0,1025.0,1024.0,1025.0,1026.0,1026.0,1027.0,1027.0,1025.0,1025.0,1029.0,1027.0,1029.0,1029.0,1025.0,1028.0,1035.0,1032.0,1035.0,1033.0,1026.0,1033.0,1041.0,1036.0,1037.0,1039.0,1028.0,1035.0,1042.0,1034.0,1033.0,1038.0,1030.0,1041.0,1048.0,1037.0,1034.0,1042.0,1032.0,1041.0,1047.0,1036.0,1032.0,1040.0,1032.0,1034.0,1039.0,1033.0,1030.0,1036.0,1030.0,1035.0,1040.0,1033.0,1030.0,1036.0,1032.0,1023.0,1024.0,1022.0,1023.0,1024.0,1022.0,1037.0,1040.0,1034.0,1030.0,1036.0,1035.0,1031.0,1034.0,1030.0,1030.0,1034.0,1033.0,1027.0,1029.0,1026.0,1026.0,1028.0,2046,2019,1909,	00:29:55.006,0.0498046875,0.0673828125,1.017578125,-0.30517578125,0.18310546875,0.06103515625,3.812255859375,-2.7960205078125,43.9508056640625,466.0,-1618.0,-2557.0,0.92626953125,0.039947509765625,-0.010162353515625,0.3746337890625,3.8116143969754437,-2.7947580930621676,39.44976095918563,0.9402498734248971,0.03952178493057487,-0.01172199429084653,0.33798047116691804,1,	00:29:55.007,0.04345703125,0.01318359375,1.0068359375,-0.79345703125,-1.220703125,-0.48828125,0.68115234375,-2.449951171875,179.0057373046875,-427.0,-1192.0,-1990.0,-0.008575439453125,-0.021453857421875,-0.0057373046875,-0.999725341796875,0.6788046175780351,-2.4525680294255157,179.53383479288007,-0.003940273177727217,-0.02142459927315691,-0.0058351884387090784,-0.999745673343553,1
1782117302.236370,0.212,1023.0,1023.0,1024.0,1023.0,1023.0,1023.0,1023.0,1023.0,1023.0,1023.0,1024.0,1024.0,1024.0,1023.0,1023.0,1023.0,1024.0,1024.0,1023.0,1023.0,1023.0,1023.0,1023.0,1023.0,1023.0,1024.0,1024.0,1023.0,1024.0,1023.0,1023.0,1023.0,1023.0,1023.0,1024.0,1023.0,1024.0,1024.0,1024.0,1024.0,1023.0,1022.0,1023.0,1023.0,1023.0,1024.0,1024.0,1024.0,1023.0,1023.0,1022.0,1023.0,1024.0,1024.0,1024.0,1024.0,1024.0,1024.0,1024.0,1024.0,1023.0,1023.0,1023.0,1024.0,1023.0,1024.0,1024.0,1023.0,1023.0,1022.0,1022.0,1023.0,1023.0,1024.0,1024.0,1023.0,1024.0,1023.0,1023.0,1023.0,1022.0,1023.0,1024.0,1024.0,1024.0,1023.0,1024.0,1024.0,1024.0,1024.0,1022.0,1023.0,1024.0,1024.0,1024.0,1024.0,1024.0,1024.0,1024.0,1023.0,1023.0,1023.0,1024.0,1024.0,1024.0,1024.0,1025.0,1024.0,1024.0,1023.0,1022.0,1023.0,1022.0,1024.0,1023.0,1023.0,1024.0,1023.0,1023.0,1020.0,1022.0,1023.0,1024.0,1024.0,1024.0,1024.0,1023.0,1023.0,1022.0,1023.0,1024.0,1024.0,1023.0,1024.0,1023.0,1023.0,1024.0,1024.0,1025.0,1024.0,1025.0,1023.0,1024.0,1024.0,1024.0,1024.0,1024.0,1025.0,1024.0,1024.0,1024.0,1024.0,1024.0,1025.0,1025.0,1024.0,1024.0,1026.0,1025.0,1027.0,1028.0,1025.0,1025.0,1029.0,1027.0,1030.0,1029.0,1025.0,1029.0,1035.0,1032.0,1035.0,1033.0,1026.0,1034.0,1040.0,1036.0,1037.0,1039.0,1028.0,1035.0,1042.0,1034.0,1033.0,1038.0,1029.0,1042.0,1047.0,1037.0,1034.0,1041.0,1032.0,1041.0,1046.0,1037.0,1033.0,1041.0,1032.0,1035.0,1039.0,1032.0,1030.0,1036.0,1030.0,1036.0,1039.0,1033.0,1031.0,1036.0,1032.0,1023.0,1023.0,1023.0,1023.0,1024.0,1023.0,1037.0,1040.0,1034.0,1032.0,1037.0,1035.0,1032.0,1033.0,1031.0,1030.0,1035.0,1032.0,1027.0,1028.0,1026.0,1027.0,1029.0,2046,2019,1909,	00:29:55.016,0.05029296875,0.06787109375,1.01708984375,-0.30517578125,0.18310546875,0.06103515625,3.8287353515625,-2.8839111328125,43.9508056640625,465.0,-1616.0,-2552.0,0.92620849609375,0.040374755859375,-0.010833740234375,0.374664306640625,3.826898692202396,-2.8826117378403686,39.4495850442552,0.9402186095554633,0.0399051096242749,-0.012398248419826008,0.3379982720482253,1,	00:29:55.017,0.0439453125,0.01513671875,1.00732421875,-0.79345703125,-1.220703125,-0.54931640625,0.758056640625,-2.4884033203125,178.9947509765625,-425.0,-1192.0,-1992.0,-0.008636474609375,-0.021759033203125,-0.006439208984375,-0.99969482421875,0.7601480985073586,-2.486779541555024,179.52435798628798,-0.00400573647000583,-0.021726405206083724,-0.006541808497148977,-0.9997345258286024,1
1782117302.246886,0.222,1023.0,1023.0,1023.0,1023.0,1023.0,1023.0,1023.0,1024.0,1023.0,1023.0,1024.0,1024.0,1024.0,1024.0,1023.0,1023.0,1023.0,1024.0,1023.0,1024.0,1024.0,1023.0,1024.0,1023.0,1023.0,1024.0,1024.0,1024.0,1024.0,1023.0,1024.0,1023.0,1022.0,1023.0,1024.0,1024.0,1024.0,1024.0,1023.0,1023.0,1023.0,1023.0,1023.0,1024.0,1024.0,1024.0,1024.0,1023.0,1023.0,1023.0,1022.0,1024.0,1023.0,1024.0,1024.0,1024.0,1024.0,1023.0,1023.0,1024.0,1022.0,1023.0,1023.0,1024.0,1023.0,1023.0,1024.0,1023.0,1023.0,1023.0,1023.0,1023.0,1023.0,1024.0,1024.0,1024.0,1024.0,1023.0,1023.0,1023.0,1022.0,1023.0,1024.0,1025.0,1024.0,1024.0,1024.0,1023.0,1024.0,1024.0,1023.0,1023.0,1024.0,1024.0,1024.0,1024.0,1025.0,1024.0,1024.0,1023.0,1023.0,1024.0,1024.0,1024.0,1024.0,1024.0,1024.0,1023.0,1024.0,1023.0,1023.0,1023.0,1023.0,1024.0,1022.0,1024.0,1024.0,1023.0,1023.0,1021.0,1022.0,1023.0,1024.0,1023.0,1023.0,1024.0,1023.0,1022.0,1022.0,1023.0,1024.0,1023.0,1023.0,1024.0,1023.0,1023.0,1024.0,1025.0,1024.0,1024.0,1024.0,1023.0,1024.0,1023.0,1024.0,1024.0,1024.0,1024.0,1024.0,1024.0,1024.0,1025.0,1024.0,1025.0,1026.0,1023.0,1024.0,1026.0,1025.0,1027.0,1028.0,1025.0,1025.0,1029.0,1027.0,1030.0,1029.0,1025.0,1029.0,1036.0,1031.0,1035.0,1034.0,1026.0,1033.0,1040.0,1036.0,1037.0,1039.0,1027.0,1035.0,1042.0,1034.0,1034.0,1038.0,1029.0,1042.0,1048.0,1037.0,1034.0,1041.0,1032.0,1041.0,1047.0,1037.0,1032.0,1040.0,1032.0,1034.0,1039.0,1032.0,1029.0,1036.0,1030.0,1036.0,1040.0,1032.0,1031.0,1036.0,1032.0,1024.0,1023.0,1022.0,1023.0,1024.0,1022.0,1038.0,1040.0,1034.0,1031.0,1037.0,1035.0,1032.0,1033.0,1030.0,1030.0,1034.0,1033.0,1028.0,1029.0,1026.0,1027.0,1029.0,2046,2019,1909,	00:29:55.026,0.04931640625,0.0673828125,1.017578125,-0.30517578125,0.1220703125,0.06103515625,3.7957763671875,-2.7960205078125,43.9508056640625,465.0,-1616.0,-2557.0,0.92626953125,0.039825439453125,-0.010223388671875,0.374664306640625,3.79463752645474,-2.79473834189113,39.451718891996585,0.9402499492787623,0.03938262854199576,-0.011771231300305461,0.33799479221444056,1,	00:29:55.027,0.0419921875,0.013671875,1.00634765625,-0.67138671875,-1.28173828125,-0.54931640625,0.76904296875,-2.4114990234375,178.9892578125,-426.0,-1193.0,-1987.0,-0.008697509765625,-0.021087646484375,-0.00653076171875,-0.999725341796875,0.7704746927858527,-2.4094713171848667,179.517967996776,-0.0040641224536383525,-0.021052669942816387,-0.006633623592232224,-0.9997480997906409,1
1782117302.257456,0.233,1023.0,1023.0,1024.0,1023.0,1023.0,1023.0,1023.0,1023.0,1023.0,1023.0,1024.0,1024.0,1024.0,1024.0,1023.0,1023.0,1023.0,1024.0,1023.0,1024.0,1023.0,1023.0,1023.0,1023.0,1023.0,1024.0,1024.0,1024.0,1024.0,1023.0,1023.0,1023.0,1022.0,1023.0,1024.0,1024.0,1024.0,1024.0,1023.0,1023.0,1023.0,1022.0,1023.0,1024.0,1023.0,1023.0,1024.0,1023.0,1023.0,1023.0,1022.0,1023.0,1024.0,1024.0,1024.0,1024.0,1024.0,1023.0,1023.0,1024.0,1023.0,1023.0,1022.0,1024.0,1023.0,1024.0,1023.0,1023.0,1023.0,1022.0,1022.0,1023.0,1023.0,1024.0,1023.0,1023.0,1024.0,1023.0,1023.0,1023.0,1022.0,1024.0,1023.0,1024.0,1024.0,1024.0,1024.0,1023.0,1024.0,1024.0,1022.0,1023.0,1023.0,1025.0,1024.0,1024.0,1025.0,1024.0,1023.0,1023.0,1023.0,1024.0,1023.0,1025.0,1024.0,1024.0,1024.0,1024.0,1023.0,1024.0,1023.0,1023.0,1023.0,1024.0,1023.0,1024.0,1024.0,1023.0,1023.0,1020.0,1022.0,1023.0,1024.0,1023.0,1024.0,1024.0,1023.0,1023.0,1022.0,1023.0,1024.0,1023.0,1024.0,1024.0,1023.0,1023.0,1024.0,1025.0,1024.0,1024.0,1025.0,1024.0,1024.0,1024.0,1025.0,1024.0,1024.0,1024.0,1023.0,1024.0,1024.0,1025.0,1024.0,1025.0,1025.0,1024.0,1024.0,1026.0,1026.0,1028.0,1027.0,1024.0,1026.0,1029.0,1026.0,1029.0,1028.0,1025.0,1028.0,1035.0,1032.0,1035.0,1034.0,1027.0,1033.0,1041.0,1036.0,1037.0,1039.0,1028.0,1035.0,1042.0,1034.0,1033.0,1038.0,1028.0,1042.0,1048.0,1036.0,1034.0,1041.0,1032.0,1042.0,1047.0,1036.0,1032.0,1041.0,1032.0,1035.0,1038.0,1032.0,1029.0,1036.0,1031.0,1036.0,1040.0,1033.0,1030.0,1036.0,1032.0,1023.0,1024.0,1022.0,1023.0,1023.0,1022.0,1039.0,1040.0,1033.0,1030.0,1037.0,1036.0,1032.0,1033.0,1030.0,1029.0,1035.0,1033.0,1028.0,1028.0,1026.0,1027.0,1028.0,2046,2019,1909,	00:29:55.037,0.05029296875,0.06787109375,1.017578125,-0.30517578125,0.18310546875,0.06103515625,3.84521484375,-2.867431640625,43.9508056640625,465.0,-1615.0,-2556.0,0.92620849609375,0.04046630859375,-0.0106201171875,0.374664306640625,3.8462286998172437,-2.866224929273631,39.4497517517676,0.9402163664924522,0.04001562081182491,-0.012206640736659986,0.33799842039971306,1,	00:29:55.038,0.04248046875,0.013671875,1.00732421875,-0.732421875,-1.220703125,-0.54931640625,0.8404541015625,-2.4774169921875,178.978271484375,-427.0,-1190.0,-1989.0,-0.008758544921875,-0.02166748046875,-0.007110595703125,-0.99969482421875,0.8377767627275515,-2.4751713940611095,179.50914044960226,-0.004124529223034342,-0.02162879959318418,-0.007216629190062446,-0.9997315157330888,1
1782117302.267506,0.243,1023.0,1023.0,1024.0,1023.0,1023.0,1023.0,1023.0,1023.0,1023.0,1023.0,1024.0,1024.0,1024.0,1024.0,1023.0,1023.0,1023.0,1024.0,1024.0,1023.0,1024.0,1023.0,1023.0,1023.0,1023.0,1024.0,1023.0,1024.0,1024.0,1023.0,1023.0,1023.0,1023.0,1024.0,1024.0,1023.0,1024.0,1024.0,1023.0,1023.0,1022.0,1022.0,1023.0,1024.0,1024.0,1023.0,1024.0,1024.0,1023.0,1023.0,1022.0,1023.0,1023.0,1024.0,1025.0,1024.0,1024.0,1023.0,1024.0,1024.0,1023.0,1023.0,1023.0,1024.0,1023.0,1024.0,1024.0,1023.0,1024.0,1022.0,1022.0,1023.0,1023.0,1024.0,1023.0,1024.0,1024.0,1024.0,1023.0,1022.0,1023.0,1023.0,1023.0,1025.0,1024.0,1024.0,1024.0,1024.0,1023.0,1024.0,1023.0,1024.0,1023.0,1025.0,1024.0,1024.0,1024.0,1023.0,1024.0,1024.0,1022.0,1023.0,1023.0,1024.0,1024.0,1024.0,1024.0,1024.0,1024.0,1023.0,1022.0,1023.0,1023.0,1024.0,1022.0,1023.0,1023.0,1023.0,1023.0,1021.0,1022.0,1023.0,1024.0,1024.0,1024.0,1024.0,1023.0,1023.0,1022.0,1023.0,1024.0,1023.0,1024.0,1024.0,1023.0,1023.0,1024.0,1024.0,1024.0,1024.0,1025.0,1024.0,1023.0,1024.0,1025.0,1024.0,1024.0,1024.0,1024.0,1024.0,1024.0,1025.0,1024.0,1025.0,1026.0,1024.0,1024.0,1026.0,1025.0,1027.0,1028.0,1025.0,1026.0,1029.0,1027.0,1029.0,1029.0,1025.0,1029.0,1035.0,1032.0,1035.0,1034.0,1027.0,1032.0,1040.0,1036.0,1036.0,1039.0,1028.0,1035.0,1042.0,1035.0,1033.0,1038.0,1029.0,1042.0,1047.0,1036.0,1034.0,1041.0,1032.0,1041.0,1047.0,1036.0,1032.0,1041.0,1032.0,1035.0,1039.0,1032.0,1029.0,1036.0,1031.0,1036.0,1040.0,1033.0,1030.0,1036.0,1032.0,1024.0,1024.0,1023.0,1023.0,1024.0,1022.0,1038.0,1041.0,1034.0,1031.0,1036.0,1035.0,1031.0,1034.0,1030.0,1029.0,1034.0,1033.0,1028.0,1028.0,1026.0,1027.0,1028.0,2046,2019,1909,	00:29:55.047,0.0498046875,0.06787109375,1.017578125,-0.244140625,0.18310546875,0.06103515625,3.8067626953125,-2.779541015625,43.9508056640625,465.0,-1617.0,-2557.0,0.926239013671875,0.039886474609375,-0.01007080078125,0.374664306640625,3.8075484145254532,-2.7804521274762464,39.45226585341588,0.940248143268374,0.03944667213924422,-0.011615672116737941,0.3379977297243141,1,	00:29:55.048,0.04345703125,0.013671875,1.0078125,-0.79345703125,-1.220703125,-0.54931640625,0.7415771484375,-2.4774169921875,178.978271484375,-426.0,-1191.0,-1990.0,-0.0087890625,-0.02166748046875,-0.006256103515625,-0.99969482421875,0.7388406130053331,-2.477770163229687,179.50740686611698,-0.004158177677308103,-0.02164799915744004,-0.00635304985297964,-0.9997368215927874,1
1782117302.278265,0.254,1023.0,1023.0,1023.0,1023.0,1023.0,1023.0,1023.0,1023.0,1023.0,1024.0,1024.0,1024.0,1024.0,1024.0,1023.0,1024.0,1024.0,1024.0,1023.0,1023.0,1024.0,1023.0,1023.0,1023.0,1023.0,1024.0,1024.0,1023.0,1023.0,1023.0,1023.0,1023.0,1023.0,1023.0,1024.0,1024.0,1024.0,1024.0,1023.0,1023.0,1023.0,1023.0,1023.0,1024.0,1023.0,1023.0,1024.0,1023.0,1023.0,1023.0,1022.0,1023.0,1023.0,1024.0,1024.0,1024.0,1024.0,1024.0,1023.0,1024.0,1023.0,1023.0,1023.0,1024.0,1023.0,1023.0,1024.0,1024.0,1023.0,1022.0,1022.0,1023.0,1023.0,1024.0,1023.0,1023.0,1024.0,1023.0,1023.0,1023.0,1023.0,1023.0,1023.0,1024.0,1024.0,1024.0,1024.0,1024.0,1023.0,1024.0,1023.0,1023.0,1023.0,1025.0,1024.0,1024.0,1025.0,1024.0,1023.0,1023.0,1023.0,1023.0,1024.0,1025.0,1024.0,1024.0,1024.0,1023.0,1024.0,1023.0,1023.0,1023.0,1023.0,1024.0,1023.0,1024.0,1023.0,1023.0,1022.0,1021.0,1022.0,1023.0,1024.0,1023.0,1024.0,1024.0,1023.0,1023.0,1022.0,1023.0,1024.0,1023.0,1023.0,1024.0,1023.0,1023.0,1024.0,1025.0,1024.0,1024.0,1025.0,1024.0,1024.0,1024.0,1024.0,1024.0,1024.0,1024.0,1024.0,1024.0,1024.0,1025.0,1024.0,1025.0,1026.0,1024.0,1025.0,1026.0,1026.0,1027.0,1028.0,1024.0,1025.0,1029.0,1027.0,1029.0,1029.0,1025.0,1029.0,1035.0,1032.0,1035.0,1033.0,1026.0,1033.0,1041.0,1036.0,1037.0,1039.0,1028.0,1035.0,1042.0,1034.0,1034.0,1038.0,1029.0,1041.0,1048.0,1036.0,1034.0,1041.0,1032.0,1040.0,1047.0,1036.0,1033.0,1040.0,1032.0,1034.0,1038.0,1032.0,1029.0,1036.0,1031.0,1036.0,1040.0,1032.0,1030.0,1037.0,1032.0,1023.0,1024.0,1023.0,1024.0,1024.0,1022.0,1037.0,1040.0,1034.0,1031.0,1036.0,1036.0,1032.0,1034.0,1030.0,1029.0,1035.0,1033.0,1027.0,1028.0,1026.0,1027.0,1028.0,2046,2019,1909,	00:29:55.057,0.05029296875,0.0673828125,1.017578125,-0.244140625,0.18310546875,0.06103515625,3.768310546875,-2.8619384765625,43.956298828125,466.0,-1616.0,-2557.0,0.926239013671875,0.039825439453125,-0.0108642578125,0.37469482421875,3.7678886603923543,-2.862463022505957,39.45482935620774,0.9402296619890294,0.03936234122203696,-0.012405079599267434,0.3380309199017913,1,	00:29:55.058,0.04443359375,0.01318359375,1.0068359375,-0.732421875,-1.28173828125,-0.54931640625,0.7525634765625,-2.581787109375,178.9727783203125,-426.0,-1194.0,-1986.0,-0.008819580078125,-0.0225830078125,-0.00634765625,-0.99969482421875,0.7524586799984102,-2.5797280010407513,179.50083690779744,-0.004206997071338653,-0.022538369325120926,-0.006466613740758632,-0.9997162127276591,1
1782117302.288280,0.264,1024.0,1023.0,1023.0,1023.0,1023.0,1023.0,1023.0,1023.0,1023.0,1024.0,1024.0,1024.0,1023.0,1024.0,1023.0,1023.0,1024.0,1024.0,1023.0,1024.0,1024.0,1023.0,1023.0,1023.0,1023.0,1024.0,1024.0,1024.0,1024.0,1023.0,1024.0,1023.0,1023.0,1023.0,1024.0,1023.0,1023.0,1024.0,1024.0,1023.0,1022.0,1022.0,1023.0,1024.0,1024.0,1024.0,1024.0,1023.0,1024.0,1023.0,1022.0,1023.0,1023.0,1024.0,1024.0,1024.0,1025.0,1023.0,1024.0,1024.0,1023.0,1023.0,1023.0,1024.0,1023.0,1024.0,1024.0,1023.0,1023.0,1022.0,1022.0,1023.0,1023.0,1024.0,1023.0,1023.0,1024.0,1023.0,1023.0,1023.0,1023.0,1023.0,1024.0,1024.0,1025.0,1024.0,1025.0,1023.0,1024.0,1024.0,1023.0,1023.0,1023.0,1025.0,1024.0,1024.0,1024.0,1024.0,1023.0,1024.0,1023.0,1023.0,1024.0,1025.0,1024.0,1024.0,1024.0,1024.0,1024.0,1023.0,1022.0,1023.0,1023.0,1024.0,1023.0,1024.0,1024.0,1023.0,1022.0,1020.0,1021.0,1023.0,1024.0,1023.0,1023.0,1024.0,1023.0,1023.0,1023.0,1023.0,1024.0,1024.0,1024.0,1024.0,1023.0,1023.0,1024.0,1024.0,1024.0,1024.0,1025.0,1024.0,1024.0,1024.0,1024.0,1024.0,1024.0,1025.0,1024.0,1023.0,1024.0,1025.0,1024.0,1025.0,1026.0,1024.0,1025.0,1026.0,1026.0,1028.0,1027.0,1024.0,1025.0,1029.0,1027.0,1029.0,1028.0,1025.0,1029.0,1035.0,1032.0,1036.0,1033.0,1027.0,1033.0,1040.0,1036.0,1037.0,1039.0,1028.0,1035.0,1042.0,1035.0,1034.0,1038.0,1029.0,1041.0,1048.0,1037.0,1034.0,1041.0,1032.0,1041.0,1047.0,1036.0,1032.0,1040.0,1032.0,1035.0,1039.0,1032.0,1029.0,1036.0,1031.0,1036.0,1040.0,1032.0,1030.0,1036.0,1033.0,1023.0,1024.0,1023.0,1023.0,1024.0,1022.0,1038.0,1040.0,1033.0,1031.0,1037.0,1036.0,1032.0,1033.0,1030.0,1029.0,1035.0,1033.0,1028.0,1028.0,1026.0,1027.0,1029.0,2046,2019,1909,	00:29:55.067,0.04931640625,0.0673828125,1.017578125,-0.244140625,0.18310546875,0.1220703125,3.7847900390625,-2.7685546875,43.956298828125,464.0,-1613.0,-2555.0,0.926239013671875,0.0396728515625,-0.01007080078125,0.374664306640625,3.7850554084905745,-2.7712273420646025,39.45520055808333,0.940249943209223,0.03923532088616884,-0.011605276614992813,0.3380176791895687,1,	00:29:55.068,0.04443359375,0.013671875,1.0068359375,-0.79345703125,-1.220703125,-0.54931640625,0.7855224609375,-2.5103759765625,178.9617919921875,-425.0,-1192.0,-1989.0,-0.008880615234375,-0.021942138671875,-0.00665283203125,-0.99969482421875,0.7845078211111673,-2.5092853137442535,179.49340950333305,-0.004269758882655761,-0.021925426240979814,-0.006747564998395423,-0.9997277205368609,1
1782117302.298336,0.274,1024.0,1023.0,1023.0,1023.0,1023.0,1022.0,1023.0,1023.0,1022.0,1024.0,1024.0,1024.0,1024.0,1024.0,1023.0,1023.0,1023.0,1023.0,1023.0,1024.0,1024.0,1023.0,1023.0,1023.0,1023.0,1024.0,1024.0,1024.0,1024.0,1023.0,1023.0,1024.0,1023.0,1023.0,1024.0,1024.0,1024.0,1024.0,1024.0,1023.0,1023.0,1022.0,1023.0,1024.0,1024.0,1023.0,1024.0,1023.0,1024.0,1023.0,1023.0,1023.0,1024.0,1025.0,1024.0,1024.0,1024.0,1024.0,1023.0,1024.0,1023.0,1023.0,1023.0,1023.0,1023.0,1024.0,1024.0,1023.0,1023.0,1022.0,1022.0,1023.0,1024.0,1024.0,1024.0,1024.0,1024.0,1023.0,1024.0,1022.0,1022.0,1024.0,1024.0,1025.0,1024.0,1024.0,1024.0,1024.0,1024.0,1024.0,1023.0,1023.0,1023.0,1024.0,1024.0,1024.0,1024.0,1024.0,1024.0,1023.0,1023.0,1023.0,1024.0,1024.0,1024.0,1024.0,1024.0,1024.0,1023.0,1022.0,1023.0,1023.0,1023.0,1024.0,1023.0,1023.0,1023.0,1023.0,1023.0,1020.0,1022.0,1023.0,1024.0,1024.0,1024.0,1024.0,1023.0,1023.0,1022.0,1023.0,1024.0,1024.0,1024.0,1024.0,1023.0,1023.0,1024.0,1024.0,1024.0,1024.0,1025.0,1024.0,1024.0,1024.0,1025.0,1024.0,1024.0,1025.0,1024.0,1024.0,1024.0,1024.0,1024.0,1025.0,1026.0,1024.0,1024.0,1026.0,1026.0,1028.0,1027.0,1024.0,1025.0,1029.0,1027.0,1029.0,1028.0,1025.0,1029.0,1035.0,1032.0,1035.0,1033.0,1026.0,1032.0,1040.0,1036.0,1037.0,1038.0,1028.0,1036.0,1042.0,1035.0,1034.0,1037.0,1029.0,1042.0,1047.0,1036.0,1034.0,1040.0,1033.0,1041.0,1047.0,1037.0,1032.0,1040.0,1032.0,1034.0,1038.0,1032.0,1030.0,1036.0,1030.0,1036.0,1040.0,1034.0,1031.0,1036.0,1032.0,1023.0,1024.0,1022.0,1023.0,1024.0,1022.0,1038.0,1040.0,1034.0,1032.0,1037.0,1035.0,1032.0,1033.0,1030.0,1030.0,1035.0,1032.0,1028.0,1028.0,1026.0,1027.0,1029.0,2046,2019,1909,	00:29:55.078,0.0498046875,0.06787109375,1.01611328125,-0.244140625,0.18310546875,0.06103515625,3.856201171875,-2.823486328125,43.9508056640625,467.0,-1615.0,-2557.0,0.92620849609375,0.0404052734375,-0.010284423828125,0.374664306640625,3.8543760801102342,-2.8260498760250496,39.452426867432614,0.9402177978354738,0.03996479846753026,-0.01185184377447447,0.3380130786168006,1,	00:29:55.079,0.0439453125,0.01416015625,1.0068359375,-0.79345703125,-1.220703125,-0.54931640625,0.85693359375,-2.48291015625,178.956298828125,-427.0,-1192.0,-1992.0,-0.00897216796875,-0.021728515625,-0.007293701171875,-0.99969482421875,0.8593231320565704,-2.4812894467965414,179.48415047526038,-0.004338076587543598,-0.021684564524502792,-0.007399640060589755,-0.9997280660659063,1
1782117302.311415,0.287,1024.0,1023.0,1023.0,1023.0,1023.0,1022.0,1023.0,1023.0,1023.0,1024.0,1024.0,1024.0,1023.0,1024.0,1023.0,1023.0,1023.0,1024.0,1024.0,1023.0,1024.0,1023.0,1023.0,1023.0,1023.0,1023.0,1024.0,1023.0,1024.0,1023.0,1023.0,1022.0,1023.0,1023.0,1024.0,1023.0,1023.0,1023.0,1023.0,1023.0,1023.0,1023.0,1023.0,1024.0,1023.0,1024.0,1024.0,1023.0,1023.0,1023.0,1022.0,1023.0,1024.0,1024.0,1024.0,1024.0,1024.0,1024.0,1023.0,1024.0,1022.0,1023.0,1023.0,1024.0,1024.0,1024.0,1024.0,1023.0,1023.0,1022.0,1022.0,1023.0,1023.0,1024.0,1024.0,1023.0,1024.0,1023.0,1023.0,1022.0,1023.0,1023.0,1024.0,1025.0,1024.0,1024.0,1024.0,1024.0,1023.0,1024.0,1023.0,1023.0,1024.0,1024.0,1024.0,1024.0,1024.0,1024.0,1024.0,1024.0,1023.0,1024.0,1024.0,1024.0,1024.0,1024.0,1025.0,1024.0,1024.0,1023.0,1023.0,1023.0,1023.0,1024.0,1023.0,1023.0,1024.0,1023.0,1023.0,1020.0,1022.0,1023.0,1024.0,1024.0,1024.0,1024.0,1023.0,1023.0,1022.0,1023.0,1024.0,1023.0,1024.0,1024.0,1023.0,1023.0,1024.0,1024.0,1024.0,1025.0,1024.0,1024.0,1023.0,1023.0,1024.0,1024.0,1025.0,1025.0,1023.0,1024.0,1024.0,1025.0,1024.0,1025.0,1025.0,1024.0,1024.0,1026.0,1026.0,1028.0,1027.0,1024.0,1026.0,1029.0,1027.0,1030.0,1028.0,1025.0,1029.0,1035.0,1032.0,1034.0,1034.0,1026.0,1033.0,1041.0,1037.0,1037.0,1038.0,1027.0,1035.0,1042.0,1034.0,1034.0,1037.0,1029.0,1041.0,1048.0,1036.0,1034.0,1040.0,1032.0,1041.0,1047.0,1037.0,1033.0,1039.0,1032.0,1034.0,1038.0,1032.0,1030.0,1036.0,1031.0,1036.0,1040.0,1033.0,1030.0,1035.0,1032.0,1024.0,1024.0,1022.0,1023.0,1024.0,1022.0,1038.0,1040.0,1034.0,1031.0,1036.0,1035.0,1032.0,1033.0,1030.0,1030.0,1034.0,1033.0,1027.0,1028.0,1026.0,1027.0,1028.0,2046,2019,1909,	00:29:55.088,0.05029296875,0.06689453125,1.01708984375,-0.30517578125,0.18310546875,0.1220703125,3.75732421875,-2.823486328125,43.956298828125,466.0,-1615.0,-2558.0,0.926239013671875,0.03961181640625,-0.01055908203125,0.37469482421875,3.759688456275249,-2.823009538460372,39.45828182343769,0.9402341376846183,0.03917956888217351,-0.012104178725985447,0.338050612441449,1,	00:29:55.089,0.04345703125,0.01416015625,1.0068359375,-0.732421875,-1.220703125,-0.48828125,0.7635498046875,-2.4774169921875,178.9508056640625,-425.0,-1192.0,-1989.0,-0.009002685546875,-0.02166748046875,-0.006439208984375,-0.99969482421875,0.7620624431983923,-2.4764797401356495,179.48297934319677,-0.0043669804963045395,-0.021638980275495604,-0.0065510824598125714,-0.9997348485136378,1
1782117302.318934,0.295,1023.0,1023.0,1023.0,1023.0,1023.0,1023.0,1023.0,1023.0,1023.0,1023.0,1024.0,1024.0,1024.0,1024.0,1023.0,1022.0,1023.0,1024.0,1024.0,1024.0,1024.0,1023.0,1023.0,1023.0,1023.0,1024.0,1024.0,1023.0,1024.0,1023.0,1023.0,1023.0,1022.0,1023.0,1024.0,1024.0,1024.0,1024.0,1024.0,1023.0,1023.0,1022.0,1023.0,1024.0,1024.0,1023.0,1024.0,1024.0,1023.0,1023.0,1023.0,1022.0,1024.0,1024.0,1024.0,1024.0,1024.0,1023.0,1024.0,1024.0,1023.0,1023.0,1023.0,1024.0,1024.0,1024.0,1024.0,1024.0,1023.0,1022.0,1022.0,1024.0,1023.0,1024.0,1023.0,1024.0,1024.0,1023.0,1023.0,1022.0,1022.0,1023.0,1024.0,1024.0,1024.0,1024.0,1024.0,1023.0,1024.0,1024.0,1023.0,1023.0,1024.0,1024.0,1024.0,1024.0,1024.0,1024.0,1024.0,1024.0,1023.0,1023.0,1024.0,1024.0,1024.0,1024.0,1024.0,1023.0,1024.0,1023.0,1022.0,1023.0,1023.0,1024.0,1022.0,1024.0,1024.0,1023.0,1022.0,1021.0,1022.0,1024.0,1024.0,1023.0,1024.0,1024.0,1023.0,1023.0,1022.0,1023.0,1024.0,1023.0,1024.0,1024.0,1023.0,1023.0,1024.0,1024.0,1025.0,1024.0,1024.0,1023.0,1024.0,1023.0,1024.0,1024.0,1024.0,1024.0,1024.0,1024.0,1024.0,1024.0,1024.0,1025.0,1025.0,1024.0,1024.0,1026.0,1025.0,1027.0,1027.0,1024.0,1025.0,1029.0,1027.0,1029.0,1029.0,1025.0,1028.0,1036.0,1031.0,1035.0,1033.0,1027.0,1032.0,1041.0,1036.0,1037.0,1038.0,1028.0,1035.0,1042.0,1035.0,1033.0,1037.0,1029.0,1041.0,1048.0,1036.0,1034.0,1040.0,1032.0,1040.0,1048.0,1036.0,1033.0,1040.0,1032.0,1033.0,1039.0,1031.0,1029.0,1036.0,1030.0,1035.0,1041.0,1033.0,1031.0,1036.0,1032.0,1023.0,1024.0,1022.0,1023.0,1024.0,1022.0,1037.0,1041.0,1034.0,1031.0,1036.0,1035.0,1031.0,1034.0,1030.0,1030.0,1034.0,1032.0,1027.0,1029.0,1026.0,1027.0,1028.0,2046,2019,1908,	00:29:55.098,0.05126953125,0.06689453125,1.0166015625,-0.244140625,0.1220703125,0.1220703125,3.7628173828125,-2.911376953125,43.9617919921875,464.0,-1616.0,-2553.0,0.92620849609375,0.039947509765625,-0.011260986328125,0.374725341796875,3.765165435495938,-2.9130562331181604,39.45918403042805,0.9402023896340882,0.03948904220688029,-0.012826975793972588,0.33807624992583274,1,	00:29:55.099,0.04296875,0.0146484375,1.00634765625,-0.79345703125,-1.220703125,-0.54931640625,0.8404541015625,-2.449951171875,178.9453125,-427.0,-1194.0,-1990.0,-0.009063720703125,-0.021453857421875,-0.007110595703125,-0.99969482421875,0.8382601215121339,-2.451466972526158,179.47371088944035,-0.004435069271965224,-0.0214242440630079,-0.007215140921240674,-0.9997346016160329,1
1782117302.328962,0.305,1024.0,1024.0,1023.0,1022.0,1024.0,1023.0,1023.0,1023.0,1023.0,1023.0,1024.0,1024.0,1023.0,1024.0,1023.0,1024.0,1024.0,1024.0,1024.0,1023.0,1024.0,1023.0,1023.0,1023.0,1023.0,1024.0,1023.0,1024.0,1024.0,1023.0,1024.0,1023.0,1023.0,1023.0,1024.0,1024.0,1024.0,1023.0,1024.0,1023.0,1023.0,1023.0,1024.0,1024.0,1023.0,1023.0,1024.0,1023.0,1023.0,1022.0,1023.0,1023.0,1024.0,1024.0,1024.0,1024.0,1024.0,1024.0,1024.0,1024.0,1022.0,1023.0,1023.0,1024.0,1023.0,1024.0,1024.0,1024.0,1023.0,1022.0,1023.0,1023.0,1023.0,1024.0,1023.0,1024.0,1024.0,1023.0,1023.0,1022.0,1023.0,1023.0,1023.0,1024.0,1024.0,1024.0,1024.0,1024.0,1023.0,1024.0,1023.0,1023.0,1023.0,1025.0,1024.0,1024.0,1024.0,1024.0,1023.0,1023.0,1023.0,1024.0,1023.0,1024.0,1024.0,1024.0,1024.0,1023.0,1024.0,1023.0,1023.0,1023.0,1023.0,1023.0,1023.0,1024.0,1024.0,1023.0,1023.0,1021.0,1021.0,1023.0,1024.0,1024.0,1024.0,1024.0,1023.0,1023.0,1022.0,1023.0,1024.0,1024.0,1024.0,1024.0,1023.0,1023.0,1024.0,1024.0,1024.0,1025.0,1024.0,1023.0,1024.0,1024.0,1024.0,1024.0,1025.0,1025.0,1024.0,1024.0,1024.0,1025.0,1025.0,1025.0,1025.0,1024.0,1024.0,1026.0,1026.0,1027.0,1027.0,1025.0,1026.0,1029.0,1027.0,1029.0,1028.0,1025.0,1029.0,1036.0,1031.0,1035.0,1033.0,1026.0,1033.0,1040.0,1037.0,1037.0,1038.0,1027.0,1035.0,1043.0,1035.0,1034.0,1038.0,1029.0,1041.0,1048.0,1037.0,1034.0,1040.0,1032.0,1040.0,1047.0,1037.0,1033.0,1040.0,1032.0,1034.0,1039.0,1032.0,1029.0,1034.0,1031.0,1035.0,1041.0,1033.0,1032.0,1036.0,1032.0,1023.0,1024.0,1022.0,1023.0,1024.0,1022.0,1038.0,1040.0,1034.0,1031.0,1037.0,1035.0,1031.0,1033.0,1030.0,1030.0,1035.0,1033.0,1027.0,1028.0,1026.0,1027.0,1028.0,2046,2019,1908,	00:29:55.108,0.0498046875,0.06787109375,1.0166015625,-0.244140625,0.18310546875,0.06103515625,3.80126953125,-2.8289794921875,43.956298828125,466.0,-1614.0,-2551.0,0.92620849609375,0.03997802734375,-0.010467529296875,0.37469482421875,3.802019935192501,-2.82845381114055,39.4579425069597,0.9402189672027323,0.039542852167108115,-0.012024111351693043,0.3380533645756532,1,	00:29:55.109,0.04345703125,0.01513671875,1.0078125,-0.8544921875,-1.28173828125,-0.54931640625,0.90087890625,-2.5213623046875,178.934326171875,-425.0,-1194.0,-1991.0,-0.009124755859375,-0.022064208984375,-0.007659912109375,-0.99969482421875,0.9022447258079138,-2.5205598916594636,179.46489531927764,-0.004495208291671215,-0.022030096913985473,-0.00776879640013713,-0.9997170168276961,1
1782117302.339136,0.315,1024.0,1023.0,1023.0,1023.0,1023.0,1023.0,1023.0,1023.0,1022.0,1023.0,1024.0,1024.0,1024.0,1024.0,1023.0,1024.0,1023.0,1024.0,1024.0,1024.0,1024.0,1023.0,1023.0,1023.0,1023.0,1024.0,1024.0,1023.0,1024.0,1023.0,1023.0,1023.0,1022.0,1023.0,1024.0,1024.0,1024.0,1024.0,1023.0,1023.0,1023.0,1022.0,1023.0,1023.0,1023.0,1024.0,1023.0,1023.0,1023.0,1023.0,1022.0,1023.0,1024.0,1024.0,1024.0,1024.0,1024.0,1024.0,1023.0,1024.0,1023.0,1024.0,1023.0,1024.0,1023.0,1023.0,1024.0,1023.0,1023.0,1023.0,1022.0,1023.0,1023.0,1024.0,1024.0,1024.0,1024.0,1023.0,1023.0,1022.0,1023.0,1023.0,1024.0,1024.0,1024.0,1024.0,1024.0,1024.0,1024.0,1024.0,1023.0,1024.0,1024.0,1024.0,1024.0,1024.0,1024.0,1023.0,1024.0,1023.0,1023.0,1023.0,1024.0,1025.0,1024.0,1024.0,1024.0,1023.0,1024.0,1023.0,1022.0,1023.0,1023.0,1024.0,1023.0,1023.0,1024.0,1023.0,1023.0,1020.0,1022.0,1023.0,1024.0,1023.0,1024.0,1023.0,1023.0,1023.0,1022.0,1023.0,1024.0,1024.0,1023.0,1024.0,1023.0,1023.0,1024.0,1024.0,1024.0,1024.0,1024.0,1023.0,1024.0,1023.0,1024.0,1024.0,1024.0,1025.0,1023.0,1023.0,1024.0,1025.0,1024.0,1026.0,1025.0,1024.0,1024.0,1026.0,1026.0,1027.0,1027.0,1024.0,1025.0,1029.0,1027.0,1029.0,1028.0,1025.0,1028.0,1035.0,1032.0,1035.0,1033.0,1027.0,1032.0,1041.0,1036.0,1037.0,1038.0,1028.0,1035.0,1042.0,1035.0,1033.0,1037.0,1029.0,1041.0,1048.0,1037.0,1034.0,1040.0,1032.0,1040.0,1048.0,1037.0,1033.0,1040.0,1032.0,1033.0,1039.0,1033.0,1030.0,1035.0,1030.0,1035.0,1040.0,1034.0,1031.0,1036.0,1033.0,1023.0,1024.0,1022.0,1023.0,1023.0,1022.0,1037.0,1041.0,1034.0,1031.0,1036.0,1036.0,1031.0,1034.0,1030.0,1030.0,1034.0,1032.0,1027.0,1029.0,1026.0,1027.0,1028.0,2046,2019,1909,	00:29:55.119,0.05029296875,0.06689453125,1.01611328125,-0.244140625,0.18310546875,0.06103515625,3.7078857421875,-2.823486328125,43.9617919921875,464.0,-1615.0,-2555.0,0.926239013671875,0.039215087890625,-0.0107421875,0.374725341796875,3.7079983692074174,-2.8240896426489357,39.46318759319897,0.9402369209073276,0.03875914028422966,-0.01226387401958115,0.3380855794043382,1,	00:29:55.120,0.04345703125,0.013671875,1.0087890625,-0.8544921875,-1.28173828125,-0.54931640625,0.8074951171875,-2.4993896484375,178.934326171875,-426.0,-1193.0,-1991.0,-0.0091552734375,-0.0218505859375,-0.006866455078125,-0.99969482421875,0.8097069971425316,-2.497061052400791,179.46288123078733,-0.00453203813358774,-0.02182157261198196,-0.006962083966675881,-0.9997273673286815,1
1782117302.349156,0.325,1024.0,1024.0,1024.0,1024.0,1023.0,1023.0,1023.0,1024.0,1022.0,1023.0,1024.0,1024.0,1023.0,1024.0,1023.0,1023.0,1023.0,1024.0,1024.0,1024.0,1024.0,1024.0,1023.0,1023.0,1024.0,1024.0,1024.0,1024.0,1024.0,1024.0,1023.0,1024.0,1023.0,1023.0,1024.0,1023.0,1024.0,1024.0,1024.0,1023.0,1023.0,1022.0,1024.0,1023.0,1024.0,1024.0,1024.0,1023.0,1023.0,1023.0,1022.0,1023.0,1024.0,1024.0,1024.0,1024.0,1024.0,1023.0,1023.0,1024.0,1022.0,1023.0,1023.0,1024.0,1024.0,1024.0,1024.0,1023.0,1023.0,1022.0,1022.0,1023.0,1023.0,1024.0,1024.0,1024.0,1024.0,1023.0,1023.0,1023.0,1022.0,1023.0,1024.0,1024.0,1024.0,1024.0,1024.0,1024.0,1023.0,1024.0,1023.0,1024.0,1024.0,1024.0,1024.0,1024.0,1024.0,1024.0,1024.0,1023.0,1023.0,1024.0,1023.0,1024.0,1024.0,1024.0,1024.0,1023.0,1024.0,1023.0,1022.0,1023.0,1022.0,1023.0,1023.0,1024.0,1023.0,1022.0,1023.0,1021.0,1022.0,1023.0,1024.0,1023.0,1024.0,1024.0,1023.0,1023.0,1022.0,1022.0,1024.0,1023.0,1024.0,1023.0,1023.0,1023.0,1024.0,1025.0,1024.0,1024.0,1024.0,1024.0,1024.0,1023.0,1025.0,1024.0,1024.0,1024.0,1023.0,1024.0,1024.0,1025.0,1024.0,1025.0,1025.0,1024.0,1024.0,1026.0,1026.0,1028.0,1027.0,1024.0,1025.0,1029.0,1028.0,1029.0,1028.0,1025.0,1028.0,1035.0,1032.0,1035.0,1033.0,1027.0,1032.0,1041.0,1036.0,1037.0,1038.0,1028.0,1035.0,1043.0,1035.0,1033.0,1037.0,1030.0,1040.0,1049.0,1037.0,1035.0,1040.0,1032.0,1040.0,1047.0,1038.0,1032.0,1040.0,1033.0,1033.0,1039.0,1032.0,1030.0,1035.0,1031.0,1035.0,1041.0,1034.0,1031.0,1036.0,1032.0,1023.0,1024.0,1023.0,1023.0,1023.0,1022.0,1037.0,1040.0,1034.0,1032.0,1037.0,1035.0,1032.0,1034.0,1030.0,1029.0,1034.0,1033.0,1027.0,1029.0,1026.0,1027.0,1029.0,2047,2019,1908,	00:29:55.129,0.0498046875,0.068359375,1.01708984375,-0.244140625,0.244140625,0.06103515625,3.7957763671875,-2.801513671875,43.9617919921875,466.0,-1614.0,-2554.0,0.926239013671875,0.03985595703125,-0.010284423828125,0.374725341796875,3.7954380375326493,-2.804002380674025,39.459540491461375,0.9402238403484835,0.039417207131633096,-0.011842237264524335,0.3380609046294203,1,	00:29:55.130,0.0419921875,0.0146484375,1.0068359375,-0.9765625,-1.3427734375,-0.48828125,0.8184814453125,-2.4224853515625,178.9288330078125,-426.0,-1191.0,-1991.0,-0.00921630859375,-0.02117919921875,-0.0069580078125,-0.99969482421875,0.8197149097261999,-2.420921737733704,179.45695894029475,-0.004586619283029193,-0.02115806969153084,-0.0070515177387187634,-0.9997407539497735,1
1782117302.359190,0.335,1023.0,1023.0,1023.0,1023.0,1023.0,1023.0,1023.0,1024.0,1022.0,1023.0,1023.0,1024.0,1024.0,1024.0,1023.0,1023.0,1023.0,1023.0,1024.0,1024.0,1024.0,1023.0,1023.0,1023.0,1023.0,1024.0,1024.0,1024.0,1024.0,1023.0,1024.0,1023.0,1023.0,1023.0,1024.0,1024.0,1023.0,1024.0,1024.0,1023.0,1022.0,1022.0,1023.0,1024.0,1024.0,1023.0,1024.0,1023.0,1024.0,1023.0,1023.0,1023.0,1023.0,1024.0,1024.0,1024.0,1024.0,1024.0,1023.0,1024.0,1023.0,1023.0,1023.0,1024.0,1023.0,1024.0,1023.0,1023.0,1023.0,1022.0,1023.0,1023.0,1024.0,1024.0,1024.0,1024.0,1024.0,1023.0,1023.0,1023.0,1022.0,1023.0,1024.0,1024.0,1024.0,1023.0,1024.0,1024.0,1024.0,1024.0,1022.0,1023.0,1024.0,1025.0,1024.0,1024.0,1024.0,1024.0,1024.0,1023.0,1023.0,1023.0,1024.0,1024.0,1024.0,1024.0,1024.0,1024.0,1024.0,1023.0,1022.0,1023.0,1023.0,1024.0,1022.0,1023.0,1023.0,1023.0,1022.0,1021.0,1022.0,1024.0,1024.0,1023.0,1024.0,1024.0,1023.0,1023.0,1022.0,1023.0,1023.0,1024.0,1024.0,1024.0,1023.0,1023.0,1024.0,1024.0,1024.0,1024.0,1024.0,1024.0,1024.0,1023.0,1024.0,1024.0,1024.0,1024.0,1024.0,1024.0,1024.0,1025.0,1024.0,1025.0,1025.0,1024.0,1024.0,1026.0,1026.0,1027.0,1027.0,1025.0,1025.0,1029.0,1027.0,1029.0,1028.0,1025.0,1028.0,1036.0,1032.0,1035.0,1032.0,1027.0,1033.0,1041.0,1036.0,1037.0,1038.0,1029.0,1035.0,1042.0,1035.0,1034.0,1038.0,1030.0,1041.0,1048.0,1037.0,1034.0,1041.0,1032.0,1040.0,1047.0,1037.0,1033.0,1040.0,1033.0,1033.0,1038.0,1033.0,1029.0,1035.0,1031.0,1035.0,1041.0,1034.0,1031.0,1036.0,1033.0,1023.0,1024.0,1022.0,1023.0,1024.0,1022.0,1037.0,1041.0,1034.0,1031.0,1037.0,1036.0,1031.0,1034.0,1030.0,1030.0,1035.0,1033.0,1027.0,1029.0,1026.0,1027.0,1029.0,2047,2019,1909,	00:29:55.139,0.05078125,0.06787109375,1.01708984375,-0.244140625,0.18310546875,0.06103515625,3.834228515625,-2.8839111328125,43.956298828125,464.0,-1616.0,-2553.0,0.926177978515625,0.0404052734375,-0.010833740234375,0.374725341796875,3.8315053467848577,-2.885146503542397,39.45836046263593,0.9401903446848482,0.03995129838732323,-0.012402411383833528,0.3380712790380447,1,	00:29:55.140,0.04345703125,0.01318359375,1.00634765625,-0.9765625,-1.3427734375,-0.48828125,0.736083984375,-2.4884033203125,178.92333984375,-427.0,-1195.0,-1989.0,-0.009246826171875,-0.02178955078125,-0.0062255859375,-0.99969482421875,0.7366191408086084,-2.489080527756705,179.45503599910214,-0.004614854217205846,-0.02174948606061411,-0.006323291691862879,-0.9997328037825068,1
1782117302.370361,0.346,1023.0,1023.0,1023.0,1023.0,1023.0,1023.0,1024.0,1023.0,1023.0,1023.0,1023.0,1024.0,1023.0,1023.0,1024.0,1024.0,1023.0,1024.0,1024.0,1023.0,1024.0,1023.0,1023.0,1023.0,1024.0,1024.0,1024.0,1024.0,1024.0,1023.0,1023.0,1024.0,1023.0,1024.0,1024.0,1024.0,1023.0,1024.0,1023.0,1023.0,1023.0,1023.0,1023.0,1024.0,1024.0,1024.0,1024.0,1023.0,1023.0,1023.0,1022.0,1023.0,1024.0,1024.0,1024.0,1024.0,1024.0,1023.0,1024.0,1024.0,1023.0,1023.0,1023.0,1024.0,1023.0,1024.0,1024.0,1024.0,1023.0,1022.0,1022.0,1023.0,1023.0,1024.0,1023.0,1023.0,1024.0,1023.0,1023.0,1023.0,1022.0,1023.0,1024.0,1024.0,1024.0,1024.0,1024.0,1024.0,1024.0,1024.0,1022.0,1023.0,1023.0,1024.0,1024.0,1024.0,1024.0,1024.0,1024.0,1024.0,1023.0,1023.0,1023.0,1024.0,1024.0,1024.0,1024.0,1024.0,1023.0,1023.0,1023.0,1023.0,1023.0,1023.0,1023.0,1023.0,1024.0,1023.0,1023.0,1020.0,1022.0,1023.0,1024.0,1023.0,1024.0,1023.0,1023.0,1023.0,1022.0,1023.0,1024.0,1024.0,1024.0,1024.0,1024.0,1024.0,1024.0,1024.0,1024.0,1024.0,1024.0,1024.0,1024.0,1024.0,1024.0,1024.0,1024.0,1025.0,1023.0,1024.0,1024.0,1025.0,1024.0,1025.0,1025.0,1024.0,1024.0,1026.0,1026.0,1027.0,1027.0,1024.0,1026.0,1028.0,1028.0,1029.0,1029.0,1025.0,1028.0,1036.0,1032.0,1035.0,1033.0,1026.0,1033.0,1041.0,1037.0,1037.0,1038.0,1028.0,1034.0,1043.0,1035.0,1034.0,1038.0,1029.0,1041.0,1048.0,1037.0,1034.0,1040.0,1032.0,1040.0,1047.0,1037.0,1032.0,1040.0,1032.0,1033.0,1038.0,1033.0,1030.0,1035.0,1031.0,1035.0,1040.0,1034.0,1031.0,1037.0,1032.0,1023.0,1024.0,1023.0,1024.0,1024.0,1022.0,1037.0,1041.0,1035.0,1031.0,1037.0,1035.0,1031.0,1034.0,1030.0,1029.0,1034.0,1033.0,1027.0,1028.0,1026.0,1027.0,1029.0,2047,2019,1909,	00:29:55.149,0.05029296875,0.068359375,1.0166015625,-0.18310546875,0.18310546875,0.06103515625,3.8507080078125,-2.7960205078125,43.956298828125,465.0,-1617.0,-2555.0,0.92620849609375,0.040283203125,-0.010009765625,0.37469482421875,3.8527315667404682,-2.794681672662715,39.457947065317,0.9402115076590722,0.03985976233995063,-0.011597246228891465,0.3380518068160018,1,	00:29:55.151,0.04345703125,0.01416015625,1.00732421875,-0.9765625,-1.3427734375,-0.54931640625,0.81298828125,-2.4774169921875,178.9178466796875,-426.0,-1195.0,-1990.0,-0.009307861328125,-0.021697998046875,-0.00689697265625,-0.99969482421875,0.8155188330012857,-2.4779236025132705,179.44553303915765,-0.004683487308794042,-0.021655903764169353,-0.007010317913400373,-0.9997299346431208,1
1782117302.379594,0.355,1023.0,1023.0,1024.0,1023.0,1023.0,1023.0,1023.0,1023.0,1023.0,1023.0,1023.0,1024.0,1024.0,1023.0,1023.0,1023.0,1024.0,1024.0,1024.0,1024.0,1024.0,1024.0,1023.0,1023.0,1024.0,1024.0,1024.0,1024.0,1024.0,1023.0,1023.0,1024.0,1022.0,1023.0,1024.0,1023.0,1023.0,1024.0,1023.0,1023.0,1023.0,1022.0,1024.0,1024.0,1023.0,1024.0,1024.0,1023.0,1023.0,1023.0,1022.0,1023.0,1024.0,1024.0,1024.0,1024.0,1024.0,1024.0,1024.0,1024.0,1023.0,1023.0,1023.0,1024.0,1023.0,1024.0,1024.0,1023.0,1023.0,1022.0,1023.0,1023.0,1023.0,1024.0,1024.0,1024.0,1024.0,1023.0,1023.0,1023.0,1022.0,1023.0,1024.0,1024.0,1024.0,1024.0,1024.0,1023.0,1024.0,1024.0,1023.0,1024.0,1024.0,1024.0,1024.0,1024.0,1024.0,1024.0,1024.0,1024.0,1023.0,1024.0,1023.0,1024.0,1024.0,1024.0,1024.0,1023.0,1024.0,1024.0,1023.0,1023.0,1022.0,1024.0,1023.0,1023.0,1023.0,1023.0,1022.0,1020.0,1022.0,1023.0,1024.0,1023.0,1024.0,1024.0,1024.0,1023.0,1022.0,1024.0,1024.0,1023.0,1024.0,1024.0,1023.0,1023.0,1024.0,1024.0,1024.0,1025.0,1025.0,1023.0,1024.0,1024.0,1025.0,1024.0,1024.0,1025.0,1023.0,1023.0,1024.0,1025.0,1024.0,1025.0,1025.0,1024.0,1024.0,1027.0,1026.0,1027.0,1027.0,1024.0,1025.0,1029.0,1027.0,1030.0,1028.0,1025.0,1029.0,1036.0,1032.0,1035.0,1033.0,1027.0,1033.0,1041.0,1037.0,1037.0,1039.0,1028.0,1035.0,1043.0,1035.0,1034.0,1038.0,1029.0,1041.0,1048.0,1038.0,1034.0,1041.0,1032.0,1039.0,1046.0,1038.0,1033.0,1040.0,1032.0,1033.0,1039.0,1033.0,1030.0,1035.0,1030.0,1034.0,1041.0,1034.0,1031.0,1036.0,1032.0,1023.0,1024.0,1023.0,1023.0,1024.0,1022.0,1037.0,1041.0,1034.0,1031.0,1037.0,1035.0,1031.0,1034.0,1030.0,1029.0,1035.0,1032.0,1027.0,1029.0,1026.0,1027.0,1029.0,2047,2019,1909,	00:29:55.160,0.04931640625,0.06689453125,1.01708984375,-0.18310546875,0.18310546875,0.06103515625,3.7628173828125,-2.7685546875,43.9617919921875,465.0,-1616.0,-2552.0,0.926239013671875,0.039459228515625,-0.010101318359375,0.374725341796875,3.762636162671326,-2.76863375874741,39.46296129486343,0.9402354725137765,0.03904453743232674,-0.01164747028025369,0.3380785659570299,1,	00:29:55.161,0.04345703125,0.01416015625,1.00634765625,-0.9765625,-1.3427734375,-0.54931640625,0.72509765625,-2.4444580078125,178.912353515625,-426.0,-1195.0,-1988.0,-0.00933837890625,-0.021392822265625,-0.006134033203125,-0.99969482421875,0.7269424470608026,-2.444837718306319,179.4432362519237,-0.004722124616004997,-0.021363749296990066,-0.006238557701947636,-0.9997411525754483,1
1782117302.390135,0.366,1023.0,1023.0,1023.0,1022.0,1023.0,1023.0,1023.0,1024.0,1023.0,1024.0,1024.0,1024.0,1023.0,1023.0,1023.0,1024.0,1023.0,1023.0,1024.0,1024.0,1024.0,1023.0,1023.0,1023.0,1023.0,1024.0,1024.0,1024.0,1024.0,1023.0,1023.0,1023.0,1022.0,1023.0,1023.0,1023.0,1023.0,1024.0,1023.0,1023.0,1023.0,1023.0,1023.0,1024.0,1023.0,1024.0,1023.0,1023.0,1023.0,1023.0,1022.0,1023.0,1024.0,1024.0,1024.0,1024.0,1024.0,1023.0,1023.0,1024.0,1022.0,1023.0,1023.0,1023.0,1023.0,1024.0,1024.0,1024.0,1023.0,1022.0,1022.0,1023.0,1023.0,1024.0,1024.0,1024.0,1024.0,1023.0,1023.0,1022.0,1022.0,1023.0,1024.0,1024.0,1024.0,1024.0,1024.0,1024.0,1024.0,1024.0,1023.0,1023.0,1023.0,1025.0,1024.0,1024.0,1024.0,1023.0,1024.0,1023.0,1023.0,1023.0,1024.0,1024.0,1024.0,1024.0,1024.0,1024.0,1024.0,1022.0,1023.0,1024.0,1023.0,1024.0,1023.0,1023.0,1024.0,1022.0,1023.0,1021.0,1022.0,1023.0,1024.0,1024.0,1024.0,1024.0,1023.0,1024.0,1022.0,1023.0,1024.0,1023.0,1024.0,1024.0,1023.0,1023.0,1024.0,1025.0,1024.0,1024.0,1025.0,1024.0,1024.0,1023.0,1024.0,1024.0,1024.0,1024.0,1024.0,1024.0,1023.0,1025.0,1024.0,1025.0,1025.0,1024.0,1024.0,1026.0,1025.0,1027.0,1027.0,1024.0,1025.0,1029.0,1027.0,1030.0,1028.0,1025.0,1028.0,1036.0,1033.0,1035.0,1033.0,1027.0,1033.0,1041.0,1037.0,1037.0,1039.0,1028.0,1035.0,1043.0,1035.0,1034.0,1038.0,1030.0,1041.0,1048.0,1037.0,1034.0,1041.0,1032.0,1040.0,1047.0,1037.0,1033.0,1041.0,1032.0,1033.0,1038.0,1033.0,1029.0,1036.0,1030.0,1035.0,1040.0,1034.0,1031.0,1036.0,1032.0,1023.0,1024.0,1023.0,1023.0,1024.0,1022.0,1037.0,1040.0,1035.0,1031.0,1037.0,1036.0,1031.0,1033.0,1030.0,1030.0,1035.0,1032.0,1027.0,1028.0,1026.0,1027.0,1029.0,2047,2019,1909,	00:29:55.170,0.05029296875,0.06787109375,1.01708984375,-0.244140625,0.18310546875,0.06103515625,3.8232421875,-2.83447265625,43.9617919921875,467.0,-1615.0,-2555.0,0.92620849609375,0.0401611328125,-0.010406494140625,0.374725341796875,3.8243077188695773,-2.831991327920394,39.46055869490964,0.9402024753305155,0.03973638354541602,-0.011986495452878101,0.3380778743601255,1,	00:29:55.171,0.04443359375,0.01416015625,1.0068359375,-0.9765625,-1.28173828125,-0.48828125,0.780029296875,-2.5213623046875,178.9068603515625,-426.0,-1193.0,-1989.0,-0.0093994140625,-0.0220947265625,-0.006591796875,-0.99969482421875,0.7809607212854542,-2.5236005976088833,179.4354380223729,-0.004775331293131479,-0.022053578961235262,-0.0067048923484694396,-0.9997229017505985,1
1782117302.401331,0.377,1023.0,1023.0,1024.0,1023.0,1024.0,1023.0,1023.0,1023.0,1023.0,1023.0,1024.0,1024.0,1024.0,1024.0,1024.0,1022.0,1023.0,1024.0,1024.0,1024.0,1023.0,1023.0,1023.0,1023.0,1024.0,1024.0,1023.0,1024.0,1024.0,1024.0,1024.0,1023.0,1023.0,1023.0,1024.0,1024.0,1024.0,1024.0,1023.0,1023.0,1022.0,1022.0,1023.0,1024.0,1024.0,1024.0,1023.0,1023.0,1023.0,1024.0,1022.0,1023.0,1024.0,1024.0,1024.0,1024.0,1024.0,1023.0,1024.0,1024.0,1023.0,1023.0,1023.0,1024.0,1024.0,1023.0,1024.0,1023.0,1023.0,1022.0,1023.0,1024.0,1023.0,1024.0,1024.0,1024.0,1024.0,1023.0,1023.0,1022.0,1022.0,1023.0,1024.0,1024.0,1025.0,1024.0,1024.0,1024.0,1024.0,1024.0,1022.0,1023.0,1024.0,1024.0,1024.0,1025.0,1024.0,1023.0,1023.0,1023.0,1022.0,1023.0,1024.0,1025.0,1024.0,1024.0,1024.0,1024.0,1023.0,1023.0,1023.0,1024.0,1023.0,1024.0,1023.0,1023.0,1024.0,1023.0,1023.0,1021.0,1022.0,1023.0,1024.0,1023.0,1024.0,1024.0,1023.0,1023.0,1022.0,1023.0,1024.0,1023.0,1024.0,1024.0,1023.0,1023.0,1024.0,1025.0,1025.0,1024.0,1025.0,1023.0,1024.0,1023.0,1024.0,1024.0,1024.0,1024.0,1023.0,1024.0,1024.0,1025.0,1024.0,1025.0,1025.0,1024.0,1024.0,1026.0,1026.0,1027.0,1027.0,1025.0,1025.0,1029.0,1028.0,1030.0,1029.0,1025.0,1029.0,1036.0,1032.0,1034.0,1033.0,1026.0,1032.0,1041.0,1037.0,1037.0,1039.0,1028.0,1035.0,1042.0,1035.0,1033.0,1039.0,1030.0,1041.0,1048.0,1037.0,1034.0,1041.0,1032.0,1040.0,1046.0,1038.0,1033.0,1041.0,1032.0,1033.0,1039.0,1033.0,1030.0,1036.0,1030.0,1035.0,1040.0,1034.0,1032.0,1037.0,1032.0,1023.0,1024.0,1022.0,1023.0,1024.0,1022.0,1037.0,1040.0,1034.0,1031.0,1037.0,1035.0,1031.0,1034.0,1031.0,1030.0,1035.0,1033.0,1026.0,1028.0,1026.0,1027.0,1029.0,2048,2019,1909,	00:29:55.180,0.0498046875,0.0673828125,1.0166015625,-0.244140625,0.18310546875,0.06103515625,3.75732421875,-2.7630615234375,43.96728515625,465.0,-1615.0,-2556.0,0.926239013671875,0.0394287109375,-0.01007080078125,0.374755859375,3.758393678843553,-2.7643667421411022,39.46438613102831,0.9402339714522072,0.03899733851228311,-0.011624470656255744,0.33808897970524016,1,	00:29:55.181,0.0439453125,0.0146484375,1.0068359375,-0.91552734375,-1.28173828125,-0.48828125,0.85693359375,-2.4993896484375,178.8958740234375,-427.0,-1195.0,-1993.0,-0.00946044921875,-0.0218505859375,-0.00726318359375,-0.99969482421875,0.8550852107625866,-2.4973806757144237,179.42673590106767,-0.004838715717972159,-0.02182847387086669,-0.0073510766070506404,-0.999722994749739,1
1782117302.411311,0.387,1023.0,1023.0,1023.0,1023.0,1023.0,1023.0,1023.0,1023.0,1023.0,1023.0,1024.0,1024.0,1024.0,1024.0,1024.0,1023.0,1023.0,1024.0,1023.0,1024.0,1023.0,1023.0,1023.0,1022.0,1023.0,1024.0,1023.0,1024.0,1024.0,1023.0,1023.0,1023.0,1022.0,1023.0,1024.0,1024.0,1024.0,1024.0,1023.0,1023.0,1023.0,1022.0,1023.0,1024.0,1024.0,1024.0,1024.0,1023.0,1023.0,1022.0,1022.0,1023.0,1024.0,1024.0,1024.0,1024.0,1024.0,1023.0,1023.0,1024.0,1023.0,1023.0,1023.0,1024.0,1023.0,1024.0,1024.0,1023.0,1023.0,1022.0,1022.0,1023.0,1023.0,1024.0,1023.0,1023.0,1024.0,1023.0,1023.0,1023.0,1022.0,1023.0,1024.0,1024.0,1024.0,1024.0,1024.0,1023.0,1023.0,1024.0,1023.0,1023.0,1024.0,1024.0,1025.0,1024.0,1024.0,1024.0,1024.0,1023.0,1023.0,1023.0,1024.0,1025.0,1024.0,1024.0,1024.0,1024.0,1024.0,1023.0,1023.0,1023.0,1023.0,1024.0,1023.0,1023.0,1024.0,1023.0,1023.0,1020.0,1022.0,1023.0,1024.0,1023.0,1024.0,1024.0,1023.0,1023.0,1023.0,1023.0,1024.0,1023.0,1024.0,1024.0,1023.0,1023.0,1024.0,1024.0,1025.0,1024.0,1024.0,1024.0,1024.0,1024.0,1024.0,1024.0,1024.0,1024.0,1024.0,1024.0,1023.0,1025.0,1025.0,1025.0,1026.0,1024.0,1025.0,1026.0,1026.0,1027.0,1028.0,1025.0,1025.0,1029.0,1027.0,1029.0,1029.0,1025.0,1029.0,1035.0,1032.0,1035.0,1034.0,1026.0,1033.0,1041.0,1037.0,1037.0,1039.0,1028.0,1035.0,1042.0,1035.0,1034.0,1039.0,1029.0,1041.0,1047.0,1037.0,1033.0,1042.0,1032.0,1040.0,1047.0,1038.0,1033.0,1042.0,1032.0,1033.0,1038.0,1033.0,1029.0,1037.0,1030.0,1035.0,1040.0,1034.0,1031.0,1036.0,1031.0,1023.0,1023.0,1023.0,1023.0,1024.0,1022.0,1037.0,1040.0,1034.0,1031.0,1037.0,1035.0,1031.0,1034.0,1030.0,1030.0,1035.0,1033.0,1027.0,1029.0,1026.0,1027.0,1028.0,2048,2019,1909,	00:29:55.190,0.0498046875,0.068359375,1.01708984375,-0.18310546875,0.18310546875,0.06103515625,3.8397216796875,-2.7960205078125,43.9617919921875,466.0,-1615.0,-2556.0,0.92620849609375,0.040191650390625,-0.01007080078125,0.374725341796875,3.84211096979798,-2.7948966213886077,39.46096615124227,0.9402062268765002,0.03977355893226118,-0.011629294345380082,0.33807554550062546,1,	00:29:55.192,0.04296875,0.0146484375,1.0078125,-0.9765625,-1.28173828125,-0.54931640625,0.81298828125,-2.4224853515625,178.890380859375,-423.0,-1193.0,-1988.0,-0.009521484375,-0.021240234375,-0.006866455078125,-0.99969482421875,0.8117476861523313,-2.4249969897874055,179.42249274615796,-0.004888530924263542,-0.021195403760539015,-0.006975460072238579,-0.9997390659975286,1
1782117302.421330,0.397,1023.0,1023.0,1023.0,1023.0,1023.0,1023.0,1023.0,1024.0,1023.0,1023.0,1024.0,1024.0,1023.0,1023.0,1024.0,1023.0,1023.0,1024.0,1024.0,1024.0,1024.0,1024.0,1023.0,1024.0,1024.0,1024.0,1024.0,1024.0,1024.0,1024.0,1024.0,1024.0,1023.0,1024.0,1024.0,1024.0,1023.0,1024.0,1023.0,1024.0,1023.0,1023.0,1023.0,1024.0,1023.0,1024.0,1024.0,1024.0,1023.0,1023.0,1023.0,1023.0,1024.0,1024.0,1024.0,1024.0,1024.0,1023.0,1024.0,1024.0,1023.0,1024.0,1023.0,1024.0,1024.0,1024.0,1024.0,1023.0,1023.0,1023.0,1022.0,1023.0,1023.0,1024.0,1024.0,1023.0,1024.0,1023.0,1023.0,1023.0,1022.0,1023.0,1024.0,1024.0,1024.0,1024.0,1024.0,1024.0,1024.0,1024.0,1023.0,1023.0,1023.0,1024.0,1024.0,1024.0,1024.0,1023.0,1023.0,1024.0,1023.0,1023.0,1024.0,1024.0,1024.0,1024.0,1024.0,1024.0,1023.0,1023.0,1023.0,1023.0,1023.0,1023.0,1023.0,1023.0,1023.0,1023.0,1023.0,1021.0,1022.0,1023.0,1024.0,1024.0,1024.0,1024.0,1023.0,1023.0,1023.0,1023.0,1024.0,1023.0,1024.0,1024.0,1023.0,1023.0,1024.0,1025.0,1024.0,1024.0,1024.0,1024.0,1024.0,1024.0,1025.0,1024.0,1024.0,1025.0,1023.0,1024.0,1024.0,1025.0,1024.0,1025.0,1026.0,1024.0,1024.0,1026.0,1026.0,1027.0,1027.0,1024.0,1025.0,1029.0,1028.0,1030.0,1029.0,1025.0,1029.0,1035.0,1033.0,1035.0,1034.0,1026.0,1033.0,1041.0,1037.0,1037.0,1040.0,1028.0,1035.0,1043.0,1035.0,1034.0,1039.0,1029.0,1041.0,1048.0,1037.0,1034.0,1043.0,1032.0,1039.0,1047.0,1037.0,1032.0,1042.0,1032.0,1033.0,1039.0,1032.0,1030.0,1036.0,1031.0,1035.0,1040.0,1034.0,1031.0,1037.0,1033.0,1023.0,1023.0,1023.0,1023.0,1024.0,1022.0,1037.0,1040.0,1034.0,1031.0,1038.0,1035.0,1031.0,1034.0,1030.0,1029.0,1035.0,1032.0,1027.0,1029.0,1027.0,1026.0,1029.0,2048,2019,1909,	00:29:55.201,0.0498046875,0.06787109375,1.01708984375,-0.244140625,0.18310546875,0.1220703125,3.746337890625,-2.801513671875,43.96728515625,466.0,-1616.0,-2553.0,0.92620849609375,0.039459228515625,-0.010406494140625,0.374755859375,3.748400043501621,-2.801762145168714,39.466761254672036,0.9402193030915292,0.039025431298421426,-0.011960153732232527,0.3381148215159351,1,	00:29:55.202,0.04248046875,0.01513671875,1.0078125,-0.9765625,-1.3427734375,-0.54931640625,0.889892578125,-2.4169921875,178.8848876953125,-426.0,-1196.0,-1988.0,-0.00958251953125,-0.02117919921875,-0.007568359375,-0.99969482421875,0.8914729118263602,-2.4170713872726695,179.4130340208683,-0.004956849773872662,-0.021130287426643028,-0.007669626342248734,-0.9997350236064338,1
1782117302.431054,0.407,1024.0,1024.0,1024.0,1023.0,1023.0,1023.0,1024.0,1023.0,1023.0,1023.0,1024.0,1024.0,1023.0,1024.0,1023.0,1023.0,1023.0,1024.0,1024.0,1023.0,1024.0,1023.0,1023.0,1023.0,1023.0,1023.0,1024.0,1024.0,1024.0,1024.0,1024.0,1023.0,1023.0,1023.0,1024.0,1024.0,1023.0,1024.0,1023.0,1023.0,1023.0,1023.0,1024.0,1024.0,1023.0,1023.0,1024.0,1024.0,1024.0,1022.0,1023.0,1023.0,1024.0,1024.0,1024.0,1024.0,1024.0,1024.0,1023.0,1024.0,1023.0,1023.0,1023.0,1024.0,1023.0,1024.0,1024.0,1023.0,1023.0,1022.0,1023.0,1024.0,1023.0,1024.0,1023.0,1023.0,1024.0,1024.0,1023.0,1022.0,1022.0,1024.0,1023.0,1024.0,1025.0,1024.0,1024.0,1024.0,1024.0,1024.0,1022.0,1023.0,1023.0,1024.0,1024.0,1024.0,1024.0,1024.0,1023.0,1024.0,1023.0,1023.0,1024.0,1024.0,1024.0,1024.0,1024.0,1024.0,1024.0,1023.0,1023.0,1023.0,1022.0,1024.0,1023.0,1023.0,1024.0,1023.0,1022.0,1021.0,1022.0,1023.0,1024.0,1024.0,1023.0,1024.0,1023.0,1023.0,1022.0,1023.0,1024.0,1023.0,1023.0,1024.0,1023.0,1023.0,1024.0,1024.0,1024.0,1024.0,1025.0,1024.0,1024.0,1024.0,1024.0,1024.0,1024.0,1024.0,1023.0,1024.0,1024.0,1024.0,1024.0,1025.0,1025.0,1024.0,1024.0,1026.0,1026.0,1027.0,1027.0,1025.0,1025.0,1029.0,1028.0,1029.0,1029.0,1025.0,1029.0,1036.0,1032.0,1035.0,1034.0,1026.0,1033.0,1041.0,1037.0,1036.0,1039.0,1028.0,1035.0,1043.0,1035.0,1033.0,1039.0,1029.0,1041.0,1047.0,1037.0,1034.0,1042.0,1032.0,1040.0,1046.0,1037.0,1033.0,1042.0,1032.0,1033.0,1039.0,1032.0,1030.0,1037.0,1030.0,1035.0,1040.0,1034.0,1031.0,1038.0,1032.0,1023.0,1024.0,1023.0,1023.0,1024.0,1022.0,1037.0,1040.0,1035.0,1031.0,1038.0,1035.0,1031.0,1033.0,1030.0,1029.0,1036.0,1032.0,1027.0,1028.0,1026.0,1027.0,1029.0,2048,2019,1909,	00:29:55.211,0.0498046875,0.06689453125,1.01708984375,-0.244140625,0.18310546875,0.1220703125,3.834228515625,-2.7740478515625,43.9617919921875,466.0,-1612.0,-2551.0,0.92620849609375,0.040069580078125,-0.009918212890625,0.374755859375,3.833656373861756,-2.773567617773249,39.46383164853129,0.9402070599869967,0.03964183627734912,-0.011478141852736252,0.3380938648168234,1,	00:29:55.212,0.04443359375,0.01513671875,1.0068359375,-1.03759765625,-1.28173828125,-0.48828125,0.85693359375,-2.515869140625,178.87939453125,-426.0,-1193.0,-1990.0,-0.009613037109375,-0.02203369140625,-0.00726318359375,-0.99969482421875,0.8570066016360611,-2.518143782371147,179.40900340515026,-0.0049916767962007065,-0.022010836148249953,-0.00736349742432588,-0.9997181528613449,1
1782117302.441822,0.417,1024.0,1023.0,1023.0,1023.0,1023.0,1023.0,1023.0,1024.0,1023.0,1023.0,1024.0,1024.0,1024.0,1023.0,1023.0,1023.0,1023.0,1023.0,1024.0,1024.0,1024.0,1023.0,1023.0,1023.0,1023.0,1024.0,1024.0,1024.0,1024.0,1023.0,1024.0,1024.0,1023.0,1023.0,1024.0,1024.0,1023.0,1024.0,1023.0,1023.0,1023.0,1022.0,1023.0,1024.0,1024.0,1023.0,1024.0,1023.0,1023.0,1023.0,1022.0,1023.0,1023.0,1024.0,1024.0,1024.0,1024.0,1024.0,1024.0,1024.0,1023.0,1023.0,1023.0,1024.0,1023.0,1024.0,1024.0,1023.0,1024.0,1023.0,1022.0,1023.0,1023.0,1024.0,1024.0,1023.0,1024.0,1023.0,1023.0,1023.0,1022.0,1023.0,1024.0,1024.0,1024.0,1024.0,1024.0,1024.0,1024.0,1024.0,1023.0,1024.0,1023.0,1024.0,1024.0,1024.0,1024.0,1024.0,1024.0,1023.0,1023.0,1023.0,1024.0,1024.0,1024.0,1024.0,1024.0,1023.0,1024.0,1023.0,1022.0,1023.0,1023.0,1024.0,1023.0,1023.0,1024.0,1023.0,1023.0,1020.0,1022.0,1023.0,1024.0,1023.0,1024.0,1024.0,1023.0,1023.0,1022.0,1023.0,1024.0,1024.0,1024.0,1024.0,1023.0,1023.0,1024.0,1025.0,1024.0,1024.0,1025.0,1024.0,1024.0,1024.0,1024.0,1024.0,1024.0,1024.0,1023.0,1024.0,1024.0,1025.0,1025.0,1025.0,1026.0,1024.0,1024.0,1026.0,1026.0,1027.0,1028.0,1025.0,1025.0,1029.0,1028.0,1029.0,1030.0,1025.0,1028.0,1036.0,1032.0,1034.0,1034.0,1026.0,1032.0,1041.0,1036.0,1037.0,1040.0,1028.0,1035.0,1042.0,1035.0,1033.0,1039.0,1029.0,1040.0,1047.0,1037.0,1033.0,1043.0,1032.0,1040.0,1047.0,1038.0,1032.0,1042.0,1033.0,1033.0,1038.0,1033.0,1030.0,1036.0,1031.0,1035.0,1040.0,1034.0,1031.0,1037.0,1032.0,1023.0,1024.0,1023.0,1023.0,1024.0,1022.0,1037.0,1040.0,1035.0,1031.0,1038.0,1036.0,1031.0,1033.0,1030.0,1030.0,1035.0,1033.0,1027.0,1028.0,1026.0,1027.0,1029.0,2048,2019,1909,	00:29:55.221,0.0498046875,0.06787109375,1.01708984375,-0.244140625,0.18310546875,0.06103515625,3.779296875,-2.845458984375,43.96728515625,466.0,-1616.0,-2558.0,0.92620849609375,0.03985595703125,-0.01068115234375,0.374786376953125,3.779916997686041,-2.8478232101646066,39.4670792398166,0.9401938003901441,0.03941935537666529,-0.012245192514903967,0.33812983806505315,1,	00:29:55.222,0.04345703125,0.01416015625,1.00634765625,-1.0986328125,-1.28173828125,-0.48828125,0.780029296875,-2.471923828125,178.87939453125,-425.0,-1197.0,-1988.0,-0.0096435546875,-0.0216064453125,-0.006591796875,-0.99969482421875,0.7780865171915573,-2.4696159483672644,179.406885480803,-0.005028234356135779,-0.02158414729052051,-0.006676829344893422,-0.9997320948108549,1
1782117302.451852,0.427,1023.0,1023.0,1024.0,1023.0,1023.0,1023.0,1023.0,1024.0,1023.0,1024.0,1024.0,1024.0,1023.0,1024.0,1023.0,1023.0,1023.0,1024.0,1024.0,1023.0,1024.0,1024.0,1023.0,1023.0,1023.0,1024.0,1024.0,1024.0,1024.0,1023.0,1023.0,1023.0,1023.0,1024.0,1024.0,1023.0,1023.0,1024.0,1024.0,1023.0,1023.0,1022.0,1023.0,1024.0,1024.0,1024.0,1024.0,1023.0,1023.0,1023.0,1022.0,1023.0,1024.0,1024.0,1024.0,1024.0,1024.0,1023.0,1023.0,1023.0,1023.0,1023.0,1024.0,1024.0,1024.0,1024.0,1024.0,1023.0,1023.0,1022.0,1022.0,1023.0,1023.0,1024.0,1023.0,1024.0,1024.0,1024.0,1023.0,1023.0,1023.0,1024.0,1024.0,1024.0,1025.0,1024.0,1024.0,1023.0,1023.0,1024.0,1023.0,1023.0,1024.0,1024.0,1024.0,1024.0,1024.0,1024.0,1024.0,1023.0,1023.0,1023.0,1024.0,1024.0,1024.0,1024.0,1024.0,1024.0,1023.0,1023.0,1023.0,1023.0,1023.0,1024.0,1023.0,1023.0,1024.0,1023.0,1022.0,1021.0,1022.0,1023.0,1024.0,1024.0,1023.0,1024.0,1023.0,1023.0,1022.0,1023.0,1024.0,1023.0,1024.0,1024.0,1023.0,1023.0,1024.0,1024.0,1025.0,1024.0,1025.0,1023.0,1024.0,1024.0,1025.0,1024.0,1024.0,1024.0,1023.0,1024.0,1024.0,1025.0,1025.0,1025.0,1026.0,1024.0,1024.0,1026.0,1026.0,1027.0,1027.0,1025.0,1026.0,1029.0,1028.0,1029.0,1029.0,1026.0,1029.0,1035.0,1032.0,1035.0,1034.0,1027.0,1032.0,1041.0,1037.0,1037.0,1039.0,1028.0,1036.0,1043.0,1036.0,1033.0,1040.0,1030.0,1041.0,1048.0,1037.0,1034.0,1042.0,1032.0,1040.0,1046.0,1038.0,1032.0,1041.0,1032.0,1034.0,1038.0,1033.0,1030.0,1036.0,1031.0,1035.0,1039.0,1034.0,1031.0,1037.0,1033.0,1023.0,1023.0,1023.0,1023.0,1024.0,1022.0,1037.0,1040.0,1034.0,1031.0,1038.0,1036.0,1030.0,1034.0,1030.0,1029.0,1035.0,1033.0,1027.0,1028.0,1026.0,1026.0,1029.0,2048,2019,1909,	00:29:55.231,0.05078125,0.0673828125,1.017578125,-0.18310546875,0.18310546875,0.06103515625,3.8671875,-2.8729248046875,43.9617919921875,467.0,-1616.0,-2556.0,0.926177978515625,0.0406494140625,-0.0106201171875,0.374755859375,3.8648645163867696,-2.8749123105318293,39.463476518999364,0.9401667077084559,0.0401954935327351,-0.01221818036583999,0.3381147735382916,1,	00:29:55.233,0.04345703125,0.01416015625,1.005859375,-1.0986328125,-1.3427734375,-0.48828125,0.85693359375,-2.493896484375,178.868408203125,-425.0,-1195.0,-1989.0,-0.00970458984375,-0.0218505859375,-0.00726318359375,-0.99969482421875,0.8581656640947667,-2.4957456847380612,179.39788334623924,-0.005089953467365867,-0.021816196917953223,-0.007372532090950892,-0.9997218571664347,1
1782117302.462202,0.438,1023.0,1024.0,1023.0,1023.0,1023.0,1023.0,1024.0,1024.0,1022.0,1023.0,1023.0,1024.0,1023.0,1023.0,1023.0,1023.0,1024.0,1024.0,1024.0,1024.0,1024.0,1023.0,1023.0,1023.0,1023.0,1024.0,1024.0,1024.0,1024.0,1023.0,1024.0,1023.0,1022.0,1024.0,1024.0,1023.0,1024.0,1023.0,1023.0,1023.0,1023.0,1023.0,1023.0,1024.0,1023.0,1023.0,1024.0,1023.0,1023.0,1023.0,1022.0,1023.0,1024.0,1024.0,1025.0,1024.0,1024.0,1023.0,1023.0,1023.0,1022.0,1024.0,1023.0,1024.0,1023.0,1024.0,1024.0,1022.0,1024.0,1022.0,1022.0,1023.0,1023.0,1024.0,1024.0,1024.0,1024.0,1023.0,1023.0,1023.0,1023.0,1024.0,1024.0,1024.0,1025.0,1024.0,1024.0,1023.0,1024.0,1024.0,1023.0,1023.0,1023.0,1024.0,1024.0,1024.0,1024.0,1023.0,1024.0,1024.0,1023.0,1023.0,1024.0,1024.0,1024.0,1024.0,1025.0,1023.0,1024.0,1023.0,1023.0,1023.0,1023.0,1024.0,1023.0,1022.0,1024.0,1023.0,1024.0,1020.0,1022.0,1024.0,1024.0,1024.0,1024.0,1024.0,1023.0,1023.0,1022.0,1023.0,1024.0,1023.0,1023.0,1024.0,1023.0,1023.0,1024.0,1025.0,1024.0,1024.0,1025.0,1024.0,1023.0,1024.0,1024.0,1024.0,1024.0,1024.0,1023.0,1024.0,1024.0,1025.0,1024.0,1025.0,1025.0,1024.0,1025.0,1026.0,1026.0,1026.0,1027.0,1024.0,1025.0,1029.0,1028.0,1029.0,1029.0,1025.0,1029.0,1035.0,1032.0,1034.0,1034.0,1026.0,1033.0,1041.0,1037.0,1036.0,1040.0,1028.0,1036.0,1042.0,1035.0,1033.0,1040.0,1029.0,1041.0,1047.0,1038.0,1034.0,1042.0,1032.0,1040.0,1045.0,1037.0,1032.0,1041.0,1032.0,1034.0,1037.0,1034.0,1030.0,1036.0,1030.0,1035.0,1040.0,1034.0,1031.0,1037.0,1032.0,1023.0,1023.0,1023.0,1024.0,1024.0,1022.0,1037.0,1040.0,1035.0,1031.0,1038.0,1035.0,1030.0,1033.0,1031.0,1029.0,1035.0,1032.0,1027.0,1028.0,1026.0,1027.0,1030.0,2048,2019,1909,	00:29:55.242,0.0498046875,0.06640625,1.01806640625,-0.30517578125,0.18310546875,0.06103515625,3.7847900390625,-2.823486328125,43.96728515625,465.0,-1618.0,-2556.0,0.92620849609375,0.039825439453125,-0.010498046875,0.374786376953125,3.783464578150285,-2.8259107789360196,39.46810285763064,0.94019614292032,0.03938420663628471,-0.012054481026257358,0.3381342730226725,1,	00:29:55.243,0.04345703125,0.01416015625,1.00634765625,-1.03759765625,-1.3427734375,-0.48828125,0.7635498046875,-2.471923828125,178.868408203125,-425.0,-1194.0,-1992.0,-0.009735107421875,-0.021636962890625,-0.0064697265625,-0.99969482421875,0.7643362653040439,-2.471579667067154,179.39641888195806,-0.005122021946095209,-0.021601274646422475,-0.006554803724427244,-0.999732056289568,1
1782117302.472131,0.448,1023.0,1024.0,1023.0,1023.0,1023.0,1023.0,1023.0,1023.0,1023.0,1024.0,1024.0,1024.0,1023.0,1023.0,1023.0,1024.0,1023.0,1024.0,1024.0,1024.0,1024.0,1023.0,1023.0,1023.0,1024.0,1024.0,1024.0,1023.0,1024.0,1023.0,1023.0,1023.0,1023.0,1023.0,1024.0,1024.0,1023.0,1024.0,1023.0,1023.0,1023.0,1022.0,1023.0,1024.0,1023.0,1023.0,1024.0,1023.0,1023.0,1023.0,1022.0,1023.0,1024.0,1024.0,1024.0,1024.0,1024.0,1023.0,1023.0,1024.0,1023.0,1023.0,1023.0,1024.0,1023.0,1023.0,1024.0,1023.0,1022.0,1022.0,1023.0,1023.0,1023.0,1024.0,1024.0,1023.0,1024.0,1023.0,1023.0,1023.0,1022.0,1023.0,1024.0,1025.0,1025.0,1024.0,1024.0,1023.0,1024.0,1024.0,1023.0,1023.0,1024.0,1024.0,1024.0,1024.0,1024.0,1023.0,1024.0,1023.0,1023.0,1023.0,1024.0,1024.0,1024.0,1024.0,1024.0,1023.0,1023.0,1023.0,1023.0,1023.0,1023.0,1023.0,1023.0,1023.0,1024.0,1023.0,1023.0,1021.0,1022.0,1023.0,1024.0,1024.0,1024.0,1024.0,1023.0,1023.0,1023.0,1023.0,1024.0,1023.0,1024.0,1024.0,1023.0,1023.0,1024.0,1025.0,1024.0,1024.0,1025.0,1023.0,1024.0,1024.0,1024.0,1024.0,1024.0,1025.0,1023.0,1024.0,1024.0,1025.0,1025.0,1025.0,1025.0,1024.0,1025.0,1026.0,1026.0,1027.0,1027.0,1025.0,1026.0,1029.0,1028.0,1029.0,1029.0,1025.0,1029.0,1035.0,1033.0,1034.0,1033.0,1026.0,1032.0,1041.0,1037.0,1036.0,1040.0,1028.0,1036.0,1043.0,1036.0,1034.0,1040.0,1029.0,1041.0,1047.0,1037.0,1034.0,1042.0,1032.0,1040.0,1046.0,1037.0,1032.0,1041.0,1033.0,1033.0,1038.0,1033.0,1029.0,1037.0,1031.0,1035.0,1039.0,1034.0,1031.0,1037.0,1032.0,1023.0,1024.0,1023.0,1024.0,1024.0,1022.0,1037.0,1041.0,1035.0,1031.0,1038.0,1035.0,1031.0,1033.0,1031.0,1029.0,1036.0,1032.0,1027.0,1027.0,1026.0,1026.0,1029.0,2047,2019,1909,	00:29:55.252,0.05029296875,0.06640625,1.01806640625,-0.244140625,0.18310546875,0.06103515625,3.69140625,-2.8179931640625,43.9727783203125,467.0,-1615.0,-2557.0,0.92620849609375,0.039031982421875,-0.0107421875,0.37481689453125,3.689661628688679,-2.8174531582952675,39.4733291920158,0.9402151566832869,0.03859027648593765,-0.012260073931184121,0.3381655516030023,1,	00:29:55.253,0.04248046875,0.01416015625,1.00634765625,-1.03759765625,-1.3427734375,-0.48828125,0.8074951171875,-2.4114990234375,178.857421875,-426.0,-1193.0,-1988.0,-0.009796142578125,-0.0211181640625,-0.006866455078125,-0.99969482421875,0.8098768027883537,-2.4121268678296564,179.3889742455906,-0.0051821107813976985,-0.021085075117437846,-0.006953553253969559,-0.9997400729351033,1
1782117302.483158,0.459,1023.0,1024.0,1023.0,1023.0,1023.0,1023.0,1023.0,1023.0,1022.0,1024.0,1024.0,1024.0,1023.0,1024.0,1023.0,1024.0,1023.0,1024.0,1024.0,1024.0,1024.0,1023.0,1023.0,1023.0,1023.0,1024.0,1024.0,1024.0,1024.0,1023.0,1024.0,1023.0,1023.0,1023.0,1024.0,1023.0,1023.0,1024.0,1023.0,1023.0,1023.0,1023.0,1023.0,1024.0,1024.0,1024.0,1024.0,1023.0,1023.0,1023.0,1022.0,1023.0,1024.0,1024.0,1024.0,1024.0,1024.0,1023.0,1024.0,1024.0,1023.0,1023.0,1023.0,1024.0,1023.0,1024.0,1024.0,1023.0,1023.0,1022.0,1022.0,1023.0,1023.0,1025.0,1023.0,1023.0,1024.0,1024.0,1023.0,1022.0,1023.0,1023.0,1023.0,1025.0,1024.0,1024.0,1025.0,1024.0,1023.0,1024.0,1023.0,1024.0,1024.0,1024.0,1024.0,1024.0,1024.0,1023.0,1024.0,1023.0,1023.0,1023.0,1024.0,1024.0,1024.0,1024.0,1024.0,1024.0,1024.0,1023.0,1023.0,1023.0,1023.0,1024.0,1023.0,1023.0,1024.0,1023.0,1023.0,1021.0,1022.0,1023.0,1024.0,1024.0,1024.0,1024.0,1023.0,1023.0,1022.0,1023.0,1024.0,1023.0,1024.0,1024.0,1023.0,1023.0,1024.0,1025.0,1024.0,1024.0,1024.0,1023.0,1024.0,1023.0,1025.0,1024.0,1024.0,1025.0,1023.0,1024.0,1024.0,1026.0,1025.0,1025.0,1026.0,1024.0,1024.0,1026.0,1026.0,1028.0,1027.0,1024.0,1025.0,1029.0,1028.0,1029.0,1029.0,1025.0,1029.0,1036.0,1033.0,1035.0,1034.0,1026.0,1033.0,1041.0,1037.0,1037.0,1039.0,1027.0,1036.0,1043.0,1036.0,1034.0,1039.0,1029.0,1042.0,1047.0,1037.0,1034.0,1041.0,1032.0,1040.0,1046.0,1038.0,1033.0,1041.0,1032.0,1034.0,1038.0,1033.0,1029.0,1036.0,1030.0,1035.0,1040.0,1034.0,1030.0,1037.0,1032.0,1023.0,1024.0,1023.0,1023.0,1024.0,1022.0,1038.0,1040.0,1035.0,1031.0,1038.0,1036.0,1032.0,1033.0,1030.0,1029.0,1035.0,1033.0,1027.0,1029.0,1026.0,1026.0,1029.0,2047,2018,1909,	00:29:55.262,0.0498046875,0.0673828125,1.017578125,-0.244140625,0.18310546875,0.06103515625,3.779296875,-2.7960205078125,43.96728515625,466.0,-1615.0,-2553.0,0.92620849609375,0.0396728515625,-0.010284423828125,0.374786376953125,3.776740353281518,-2.796191954460257,39.46967106881191,0.9402026941934676,0.039241899731012664,-0.011829806560983749,0.33814053707530495,1,	00:29:55.263,0.04345703125,0.01318359375,1.00634765625,-0.9765625,-1.3427734375,-0.48828125,0.736083984375,-2.4884033203125,178.857421875,-427.0,-1192.0,-1991.0,-0.00982666015625,-0.02178955078125,-0.006195068359375,-0.99969482421875,0.7360361890565913,-2.4908663530126587,179.3866541337688,-0.005211447038740876,-0.021768809094584493,-0.006305140277152366,-0.9997295659209301,1
1782117302.492791,0.468,1023.0,1024.0,1024.0,1023.0,1023.0,1023.0,1023.0,1024.0,1022.0,1024.0,1024.0,1024.0,1023.0,1024.0,1023.0,1023.0,1024.0,1024.0,1024.0,1023.0,1023.0,1023.0,1023.0,1023.0,1024.0,1024.0,1024.0,1023.0,1024.0,1023.0,1024.0,1023.0,1023.0,1024.0,1024.0,1024.0,1023.0,1024.0,1023.0,1023.0,1023.0,1023.0,1024.0,1024.0,1024.0,1023.0,1024.0,1023.0,1023.0,1023.0,1022.0,1023.0,1024.0,1024.0,1024.0,1023.0,1024.0,1024.0,1024.0,1024.0,1023.0,1023.0,1023.0,1024.0,1023.0,1024.0,1024.0,1023.0,1023.0,1022.0,1023.0,1023.0,1023.0,1024.0,1024.0,1024.0,1024.0,1023.0,1023.0,1022.0,1022.0,1023.0,1024.0,1024.0,1024.0,1024.0,1024.0,1023.0,1024.0,1024.0,1023.0,1023.0,1024.0,1024.0,1024.0,1024.0,1024.0,1023.0,1023.0,1023.0,1023.0,1023.0,1024.0,1024.0,1025.0,1024.0,1024.0,1024.0,1023.0,1023.0,1022.0,1023.0,1023.0,1024.0,1023.0,1023.0,1024.0,1023.0,1023.0,1021.0,1022.0,1023.0,1024.0,1024.0,1024.0,1024.0,1023.0,1024.0,1022.0,1023.0,1024.0,1023.0,1023.0,1024.0,1023.0,1023.0,1024.0,1024.0,1025.0,1024.0,1025.0,1024.0,1024.0,1023.0,1025.0,1024.0,1024.0,1024.0,1023.0,1024.0,1024.0,1025.0,1024.0,1025.0,1026.0,1024.0,1024.0,1026.0,1026.0,1028.0,1028.0,1025.0,1025.0,1029.0,1028.0,1029.0,1029.0,1025.0,1028.0,1035.0,1033.0,1035.0,1034.0,1026.0,1032.0,1040.0,1037.0,1036.0,1039.0,1027.0,1036.0,1043.0,1036.0,1033.0,1040.0,1029.0,1041.0,1047.0,1038.0,1034.0,1042.0,1032.0,1041.0,1046.0,1037.0,1033.0,1041.0,1032.0,1033.0,1038.0,1033.0,1030.0,1036.0,1030.0,1035.0,1040.0,1034.0,1031.0,1037.0,1032.0,1023.0,1023.0,1023.0,1022.0,1024.0,1022.0,1037.0,1040.0,1034.0,1031.0,1038.0,1035.0,1032.0,1033.0,1031.0,1029.0,1035.0,1032.0,1028.0,1028.0,1026.0,1026.0,1029.0,2047,2018,1909,	00:29:55.272,0.05029296875,0.06787109375,1.017578125,-0.244140625,0.18310546875,0.06103515625,3.8507080078125,-2.845458984375,43.96728515625,466.0,-1616.0,-2557.0,0.926177978515625,0.040435791015625,-0.01043701171875,0.374786376953125,3.849505651833857,-2.846359702764316,39.46669913914791,0.9401712534844379,0.039985966441059194,-0.012027970326663097,0.33813379680105377,1,	00:29:55.273,0.04345703125,0.0146484375,1.0068359375,-0.91552734375,-1.3427734375,-0.54931640625,0.8184814453125,-2.4884033203125,178.846435546875,-424.0,-1192.0,-1988.0,-0.0098876953125,-0.021759033203125,-0.00689697265625,-0.99969482421875,0.8170723150852701,-2.486080387622427,179.37707795477363,-0.00527989897768884,-0.02173132109539139,-0.007010534941347426,-0.9997253246517618,1
1782117302.503307,0.479,1023.0,1024.0,1023.0,1023.0,1023.0,1023.0,1023.0,1023.0,1022.0,1024.0,1024.0,1024.0,1024.0,1024.0,1023.0,1023.0,1024.0,1024.0,1024.0,1024.0,1024.0,1023.0,1023.0,1023.0,1023.0,1024.0,1023.0,1024.0,1024.0,1023.0,1023.0,1023.0,1022.0,1024.0,1023.0,1023.0,1023.0,1024.0,1024.0,1023.0,1023.0,1023.0,1023.0,1024.0,1023.0,1023.0,1024.0,1023.0,1023.0,1023.0,1022.0,1023.0,1024.0,1024.0,1024.0,1024.0,1024.0,1023.0,1024.0,1024.0,1022.0,1023.0,1023.0,1024.0,1023.0,1023.0,1024.0,1023.0,1023.0,1022.0,1022.0,1023.0,1023.0,1024.0,1024.0,1024.0,1024.0,1023.0,1023.0,1022.0,1022.0,1023.0,1024.0,1024.0,1025.0,1024.0,1024.0,1023.0,1024.0,1024.0,1023.0,1023.0,1023.0,1024.0,1024.0,1024.0,1024.0,1023.0,1024.0,1023.0,1022.0,1023.0,1024.0,1024.0,1024.0,1024.0,1024.0,1023.0,1024.0,1024.0,1022.0,1024.0,1022.0,1023.0,1023.0,1023.0,1024.0,1023.0,1023.0,1021.0,1022.0,1023.0,1024.0,1024.0,1024.0,1024.0,1024.0,1023.0,1022.0,1023.0,1024.0,1024.0,1023.0,1024.0,1023.0,1023.0,1024.0,1024.0,1025.0,1024.0,1024.0,1023.0,1024.0,1023.0,1025.0,1024.0,1024.0,1024.0,1023.0,1024.0,1024.0,1025.0,1025.0,1025.0,1025.0,1024.0,1024.0,1026.0,1026.0,1027.0,1028.0,1024.0,1025.0,1030.0,1028.0,1030.0,1029.0,1025.0,1029.0,1035.0,1032.0,1035.0,1034.0,1027.0,1033.0,1040.0,1037.0,1037.0,1040.0,1028.0,1036.0,1043.0,1035.0,1034.0,1040.0,1029.0,1041.0,1047.0,1037.0,1034.0,1042.0,1032.0,1040.0,1046.0,1038.0,1033.0,1041.0,1032.0,1034.0,1038.0,1034.0,1029.0,1036.0,1030.0,1035.0,1040.0,1034.0,1031.0,1037.0,1033.0,1023.0,1023.0,1023.0,1023.0,1024.0,1022.0,1037.0,1041.0,1035.0,1031.0,1038.0,1036.0,1031.0,1034.0,1031.0,1029.0,1035.0,1032.0,1027.0,1028.0,1027.0,1026.0,1029.0,2047,2018,1909,	00:29:55.283,0.05029296875,0.0673828125,1.017578125,-0.244140625,0.1220703125,0.06103515625,3.7628173828125,-2.8125,43.9727783203125,466.0,-1615.0,-2556.0,0.92620849609375,0.03961181640625,-0.010467529296875,0.37481689453125,3.7614521020053044,-2.8128487185545894,39.471614853934135,0.9401972285771106,0.039165597399766265,-0.012011000105605896,0.33815819261508795,1,	00:29:55.284,0.04345703125,0.013671875,1.00537109375,-0.91552734375,-1.3427734375,-0.48828125,0.7196044921875,-2.471923828125,178.846435546875,-426.0,-1193.0,-1988.0,-0.009918212890625,-0.021636962890625,-0.006072998046875,-0.99969482421875,0.7201917577540559,-2.473385550056649,179.37580332892958,-0.005310099020040287,-0.02161616454969769,-0.006165699094782961,-0.9997332286331341,1
1782117302.513325,0.489,1023.0,1023.0,1024.0,1023.0,1023.0,1023.0,1024.0,1024.0,1023.0,1024.0,1024.0,1023.0,1023.0,1024.0,1024.0,1023.0,1023.0,1024.0,1024.0,1023.0,1024.0,1023.0,1023.0,1024.0,1024.0,1024.0,1024.0,1023.0,1024.0,1023.0,1023.0,1023.0,1022.0,1023.0,1024.0,1024.0,1023.0,1024.0,1024.0,1023.0,1023.0,1022.0,1023.0,1024.0,1023.0,1024.0,1024.0,1023.0,1024.0,1023.0,1022.0,1023.0,1023.0,1024.0,1024.0,1023.0,1024.0,1024.0,1023.0,1024.0,1022.0,1023.0,1023.0,1024.0,1024.0,1023.0,1024.0,1023.0,1023.0,1022.0,1022.0,1023.0,1023.0,1024.0,1024.0,1023.0,1024.0,1024.0,1023.0,1022.0,1022.0,1023.0,1024.0,1024.0,1024.0,1024.0,1024.0,1023.0,1024.0,1024.0,1023.0,1023.0,1024.0,1024.0,1024.0,1024.0,1024.0,1024.0,1023.0,1024.0,1023.0,1023.0,1023.0,1025.0,1024.0,1024.0,1024.0,1023.0,1024.0,1023.0,1022.0,1023.0,1023.0,1024.0,1023.0,1023.0,1023.0,1023.0,1023.0,1021.0,1022.0,1023.0,1024.0,1024.0,1024.0,1024.0,1024.0,1023.0,1022.0,1023.0,1024.0,1023.0,1023.0,1024.0,1023.0,1023.0,1024.0,1025.0,1025.0,1024.0,1024.0,1023.0,1024.0,1024.0,1024.0,1024.0,1024.0,1025.0,1023.0,1024.0,1024.0,1025.0,1024.0,1025.0,1025.0,1024.0,1024.0,1027.0,1026.0,1027.0,1027.0,1024.0,1026.0,1029.0,1028.0,1029.0,1028.0,1025.0,1028.0,1036.0,1033.0,1035.0,1034.0,1027.0,1033.0,1041.0,1037.0,1037.0,1039.0,1029.0,1036.0,1043.0,1036.0,1034.0,1040.0,1030.0,1041.0,1047.0,1037.0,1034.0,1042.0,1032.0,1040.0,1047.0,1037.0,1032.0,1041.0,1033.0,1034.0,1038.0,1033.0,1029.0,1036.0,1030.0,1035.0,1040.0,1034.0,1030.0,1036.0,1032.0,1023.0,1024.0,1023.0,1023.0,1024.0,1022.0,1037.0,1040.0,1034.0,1031.0,1038.0,1035.0,1032.0,1033.0,1031.0,1029.0,1035.0,1033.0,1027.0,1028.0,1027.0,1027.0,1029.0,2047,2018,1909,	00:29:55.293,0.05029296875,0.06787109375,1.01708984375,-0.244140625,0.18310546875,0.06103515625,3.8507080078125,-2.8289794921875,43.96728515625,467.0,-1613.0,-2558.0,0.926177978515625,0.040374755859375,-0.01031494140625,0.374786376953125,3.848571843393952,-2.8297377932758225,39.467935170893874,0.9401729553597968,0.03992961309456566,-0.011893838069338412,0.33814046877610454,1,	00:29:55.294,0.04345703125,0.01416015625,1.0068359375,-0.8544921875,-1.3427734375,-0.48828125,0.802001953125,-2.48291015625,178.83544921875,-426.0,-1191.0,-1992.0,-0.009979248046875,-0.021759033203125,-0.006805419921875,-0.99969482421875,0.8035888343767761,-2.4844269302456743,179.36678106459593,-0.005372391547146002,-0.02171689381537396,-0.006891030863031342,-0.9997259762683576,1
