Unix_Time_s,EMG_t_s,sample_idx,fs,gain,flags,emg_valid,ch1_raw_uV,ch1_filt_uV,ch1_env_uV,ch2_raw_uV,ch2_filt_uV,ch2_env_uV
1782117189.598160,0.000000,1636160,1000,12,0,1,735.969,19.340,14.450,551.755,-1.964,1.100
1782117189.599160,0.001000,1636161,1000,12,0,1,727.802,10.761,14.435,550.770,-1.916,1.127
1782117189.600160,0.002000,1636162,1000,12,0,1,718.026,0.365,14.042,551.515,-1.864,1.157
1782117189.601160,0.003000,1636163,1000,12,0,1,704.550,-10.257,13.864,551.371,-0.884,1.159
1782117189.602160,0.004000,1636164,1000,12,0,1,709.306,-7.299,13.816,551.274,-1.451,1.171
1782117189.603160,0.005000,1636165,1000,12,0,1,725.929,10.461,13.880,551.515,-0.616,1.172
1782117189.604160,0.006000,1636166,1000,12,0,1,725.809,11.501,13.953,552.067,-0.241,1.172
1782117189.605160,0.007000,1636167,1000,12,0,1,724.079,5.723,13.970,552.331,0.286,1.144
1782117189.606160,0.008000,1636168,1000,12,0,1,724.055,5.380,13.983,551.443,-0.398,1.143
1782117189.607160,0.009000,1636169,1000,12,0,1,720.356,-0.134,13.983,552.860,0.476,1.135
1782117189.608160,0.010000,1636170,1000,12,0,1,714.351,-6.071,14.006,552.620,1.016,1.140
1782117189.609160,0.011000,1636171,1000,12,0,1,704.815,-14.560,14.144,552.187,-0.044,1.138
1782117189.610160,0.012000,1636172,1000,12,0,1,704.502,-15.119,14.292,551.539,-0.105,1.138
1782117189.611160,0.013000,1636173,1000,12,0,1,708.922,-8.428,14.319,553.532,1.008,1.146
1782117189.612160,0.014000,1636174,1000,12,0,1,722.638,3.067,14.269,553.388,1.711,1.158
1782117189.613160,0.015000,1636175,1000,12,0,1,736.594,16.631,14.381,551.178,-0.868,1.165
1782117189.614160,0.016000,1636176,1000,12,0,1,733.183,12.575,14.490,552.740,0.192,1.165
1782117189.615160,0.017000,1636177,1000,12,0,1,728.091,4.255,14.399,552.572,0.813,1.169
1782117189.616160,0.018000,1636178,1000,12,0,1,726.193,2.439,14.380,553.100,0.375,1.073
1782117189.617160,0.019000,1636179,1000,12,0,1,724.800,0.578,14.380,553.340,1.149,1.071
1782117189.618160,0.020000,1636180,1000,12,0,1,722.109,-0.882,14.380,551.082,-1.173,1.082
1782117189.619160,0.021000,1636181,1000,12,0,1,717.161,-4.576,14.384,553.244,0.131,1.059
1782117189.620160,0.022000,1636182,1000,12,0,1,710.748,-8.650,14.426,554.133,1.765,1.088
1782117189.621160,0.023000,1636183,1000,12,0,1,704.598,-12.079,14.469,552.187,-0.543,1.079
1782117189.622160,0.024000,1636184,1000,12,0,1,704.286,-10.359,13.765,552.019,-0.892,1.072
1782117189.623160,0.025000,1636185,1000,12,0,1,706.184,-5.643,12.859,553.340,0.359,1.073
1782117189.624160,0.026000,1636186,1000,12,0,1,708.754,-2.100,12.494,553.941,0.972,1.079
1782117189.625160,0.027000,1636187,1000,12,0,1,712.645,2.214,12.472,553.436,0.395,1.059
1782117189.626160,0.028000,1636188,1000,12,0,1,713.486,3.145,12.430,553.821,0.391,1.060
1782117189.627160,0.029000,1636189,1000,12,0,1,709.811,-0.665,12.426,551.563,-1.086,1.067
1782117189.628160,0.030000,1636190,1000,12,0,1,717.930,3.886,12.215,551.827,-1.644,1.090
1782117189.629160,0.031000,1636191,1000,12,0,1,733.015,16.831,12.280,554.205,1.166,1.101
1782117189.630160,0.032000,1636192,1000,12,0,1,732.486,14.951,12.461,553.893,0.967,1.083
1782117189.631160,0.033000,1636193,1000,12,0,1,723.455,2.590,12.393,552.067,-0.858,1.082
1782117189.632160,0.034000,1636194,1000,12,0,1,719.083,-3.342,12.306,550.746,-1.983,1.100
1782117189.633160,0.035000,1636195,1000,12,0,1,714.975,-6.800,12.220,552.572,-0.499,1.094
1782117189.634160,0.036000,1636196,1000,12,0,1,716.633,-5.694,12.117,551.371,-0.500,1.094
1782117189.635160,0.037000,1636197,1000,12,0,1,717.137,-2.869,12.033,550.962,-1.664,1.114
1782117189.636160,0.038000,1636198,1000,12,0,1,710.531,-7.436,12.048,551.851,-0.125,1.088
1782117189.637160,0.039000,1636199,1000,12,0,1,694.582,-18.475,11.806,552.764,0.479,1.037
1782117189.638160,0.040000,1636200,1000,12,0,1,683.100,-26.125,12.099,552.331,0.393,1.038
1782117189.639160,0.041000,1636201,1000,12,0,1,691.627,-14.403,12.234,552.932,0.427,1.036
1782117189.640160,0.042000,1636202,1000,12,0,1,705.439,3.661,12.244,552.139,0.133,1.009
1782117189.641160,0.043000,1636203,1000,12,0,1,715.288,13.773,12.282,551.587,-0.803,1.007
1782117189.642160,0.044000,1636204,1000,12,0,1,727.130,23.218,12.376,553.460,0.823,1.011
1782117189.643160,0.045000,1636205,1000,12,0,1,743.104,34.014,12.816,553.869,1.534,1.021
1782117189.644160,0.046000,1636206,1000,12,0,1,749.781,36.194,13.206,551.371,-0.914,1.019
1782117189.645160,0.047000,1636207,1000,12,0,1,752.424,30.625,13.319,553.652,0.396,1.020
1782117189.646160,0.048000,1636208,1000,12,0,1,741.014,16.446,13.515,554.445,2.030,1.047
1782117189.647160,0.049000,1636209,1000,12,0,1,721.965,-6.608,13.225,551.467,-1.032,1.042
1782117189.648160,0.050000,1636210,1000,12,0,1,709.787,-19.251,13.222,551.995,-1.046,1.015
1782117189.649160,0.051000,1636211,1000,12,0,1,702.292,-24.492,13.583,552.523,0.258,0.979
1782117189.650160,0.052000,1636212,1000,12,0,1,703.325,-22.049,13.936,552.740,0.053,0.942
1782117189.651160,0.053000,1636213,1000,12,0,1,720.644,-4.825,13.877,553.172,0.761,0.940
1782117189.652160,0.054000,1636214,1000,12,0,1,746.827,19.062,14.099,553.220,0.585,0.921
1782117189.653160,0.055000,1636215,1000,12,0,1,753.336,25.100,14.464,554.133,1.244,0.934
1782117189.654160,0.056000,1636216,1000,12,0,1,745.650,12.626,14.482,554.301,1.387,0.954
1782117189.655160,0.057000,1636217,1000,12,0,1,739.236,3.947,14.471,552.740,-0.195,0.953
1782117189.656160,0.058000,1636218,1000,12,0,1,739.188,1.583,14.452,551.371,-1.603,0.978
1782117189.657160,0.059000,1636219,1000,12,0,1,740.269,2.426,14.456,552.908,-0.415,0.978
1782117189.658160,0.060000,1636220,1000,12,0,1,737.507,-0.495,14.431,553.148,0.397,0.969
1782117189.659160,0.061000,1636221,1000,12,0,1,735.873,-2.793,14.289,550.842,-1.812,1.002
1782117189.660160,0.062000,1636222,1000,12,0,1,732.991,-4.528,14.142,552.211,-1.013,1.012
1782117189.661160,0.063000,1636223,1000,12,0,1,731.285,-6.463,14.122,553.725,1.041,1.013
1782117189.662160,0.064000,1636224,1000,12,0,1,727.418,-8.311,14.164,554.493,1.253,0.999
1782117189.663160,0.065000,1636225,1000,12,0,1,721.365,-13.268,14.093,551.587,-0.822,0.998
1782117189.664160,0.066000,1636226,1000,12,0,1,722.037,-11.972,14.082,552.379,-1.281,1.014
1782117189.665160,0.067000,1636227,1000,12,0,1,729.820,-3.951,14.080,554.493,1.552,1.031
1782117189.666160,0.068000,1636228,1000,12,0,1,733.543,0.361,14.076,553.388,0.407,1.032
1782117189.667160,0.069000,1636229,1000,12,0,1,733.832,-0.657,14.076,550.218,-2.373,1.073
1782117189.668160,0.070000,1636230,1000,12,0,1,732.630,-2.447,14.080,550.169,-2.605,1.122
1782117189.669160,0.071000,1636231,1000,12,0,1,731.958,-4.129,14.077,550.338,-1.521,1.142
1782117189.670160,0.072000,1636232,1000,12,0,1,732.222,-4.234,14.037,551.731,-0.326,1.116
1782117189.671160,0.073000,1636233,1000,12,0,1,726.938,-8.172,13.980,550.049,-0.843,1.119
1782117189.672160,0.074000,1636234,1000,12,0,1,723.767,-11.463,13.998,552.499,0.337,1.113
1782117189.673160,0.075000,1636235,1000,12,0,1,726.673,-7.209,14.012,553.172,2.247,1.157
1782117189.674160,0.076000,1636236,1000,12,0,1,731.333,-1.698,14.011,552.499,0.709,1.153
1782117189.675160,0.077000,1636237,1000,12,0,1,730.901,-0.345,14.007,551.803,0.323,1.152
1782117189.676160,0.078000,1636238,1000,12,0,1,727.778,-2.708,14.006,550.578,-0.869,1.158
1782117189.677160,0.079000,1636239,1000,12,0,1,722.278,-5.783,14.029,550.890,-0.770,1.152
1782117189.678160,0.080000,1636240,1000,12,0,1,713.558,-11.426,14.111,552.499,0.977,1.137
1782117189.679160,0.081000,1636241,1000,12,0,1,707.121,-14.630,14.062,553.076,1.377,1.142
1782117189.680160,0.082000,1636242,1000,12,0,1,697.416,-18.340,14.142,553.100,1.263,1.148
1782117189.681160,0.083000,1636243,1000,12,0,1,693.213,-19.221,14.396,551.899,0.025,1.141
1782117189.682160,0.084000,1636244,1000,12,0,1,712.549,0.542,14.389,549.521,-2.001,1.142
1782117189.683160,0.085000,1636245,1000,12,0,1,743.392,30.185,14.978,552.451,-0.074,1.140
1782117189.684160,0.086000,1636246,1000,12,0,1,750.790,36.591,15.826,552.740,1.578,1.159
1782117189.685160,0.087000,1636247,1000,12,0,1,742.503,22.318,16.133,552.043,-0.114,1.135
1782117189.686160,0.088000,1636248,1000,12,0,1,732.318,9.059,16.149,551.178,-0.252,1.136
1782117189.687160,0.089000,1636249,1000,12,0,1,722.926,-2.359,15.940,550.698,-1.030,1.143
1782117189.688160,0.090000,1636250,1000,12,0,1,717.113,-8.556,15.553,552.572,0.758,1.147
1782117189.689160,0.091000,1636251,1000,12,0,1,713.894,-10.772,15.494,552.091,0.898,1.152
1782117189.690160,0.092000,1636252,1000,12,0,1,709.763,-12.950,15.593,553.028,0.849,1.158
1782117189.691160,0.093000,1636253,1000,12,0,1,719.755,-4.311,15.483,553.508,1.894,1.183
1782117189.692160,0.094000,1636254,1000,12,0,1,719.443,0.191,15.131,552.235,0.184,1.178
1782117189.693160,0.095000,1636255,1000,12,0,1,700.034,-16.422,14.533,554.133,1.433,1.175
1782117189.694160,0.096000,1636256,1000,12,0,1,692.900,-22.166,13.958,552.451,0.619,1.171
1782117189.695160,0.097000,1636257,1000,12,0,1,717.954,2.414,13.274,551.971,-0.987,1.178
1782117189.696160,0.098000,1636258,1000,12,0,1,749.109,33.333,13.892,553.220,0.682,1.147
1782117189.697160,0.099000,1636259,1000,12,0,1,753.649,36.614,14.797,553.316,0.517,1.140
1782117189.698160,0.100000,1636260,1000,12,0,1,743.344,21.064,14.846,553.220,0.276,1.131
1782117189.699160,0.101000,1636261,1000,12,0,1,736.330,10.927,14.519,552.019,-0.732,1.135
1782117189.700160,0.102000,1636262,1000,12,0,1,729.316,2.881,14.186,553.052,-0.367,1.136
1782117189.701160,0.103000,1636263,1000,12,0,1,717.642,-7.733,14.211,552.932,0.216,1.132
1782117189.702160,0.104000,1636264,1000,12,0,1,718.482,-8.561,14.006,549.329,-3.074,1.209
1782117189.703160,0.105000,1636265,1000,12,0,1,729.964,3.380,13.557,550.890,-2.179,1.236
1782117189.704160,0.106000,1636266,1000,12,0,1,732.414,6.267,13.468,551.467,-0.271,1.220
1782117189.705160,0.107000,1636267,1000,12,0,1,730.637,2.384,13.461,551.419,-0.854,1.226
1782117189.706160,0.108000,1636268,1000,12,0,1,730.276,0.997,13.460,552.523,0.559,1.208
1782117189.707160,0.109000,1636269,1000,12,0,1,733.039,1.683,13.457,551.178,-0.378,1.207
1782117189.708160,0.110000,1636270,1000,12,0,1,735.993,3.515,13.466,551.058,-0.911,1.213
1782117189.709160,0.111000,1636271,1000,12,0,1,736.858,2.602,13.466,553.412,1.441,1.203
1782117189.710160,0.112000,1636272,1000,12,0,1,735.489,0.108,13.450,553.124,1.446,1.212
1782117189.711160,0.113000,1636273,1000,12,0,1,733.327,-3.019,13.426,552.716,0.503,1.205
1782117189.712160,0.114000,1636274,1000,12,0,1,728.499,-7.267,13.414,553.196,0.930,1.199
1782117189.713160,0.115000,1636275,1000,12,0,1,727.874,-8.330,13.334,552.860,0.571,1.196
1782117189.714160,0.116000,1636276,1000,12,0,1,727.442,-6.843,13.262,553.340,0.624,1.186
1782117189.715160,0.117000,1636277,1000,12,0,1,727.778,-6.101,13.278,552.355,0.070,1.165
1782117189.716160,0.118000,1636278,1000,12,0,1,725.256,-6.259,13.307,552.764,-0.228,1.164
1782117189.717160,0.119000,1636279,1000,12,0,1,722.157,-8.204,13.357,552.956,0.461,1.117
1782117189.718160,0.120000,1636280,1000,12,0,1,715.216,-11.615,13.454,552.572,-0.252,1.055
1782117189.719160,0.121000,1636281,1000,12,0,1,703.181,-19.652,13.725,553.701,0.664,1.037
1782117189.720160,0.122000,1636282,1000,12,0,1,717.233,-7.625,13.754,552.523,-0.006,1.036
1782117189.721160,0.123000,1636283,1000,12,0,1,738.011,16.199,13.896,550.458,-2.213,1.075
1782117189.722160,0.124000,1636284,1000,12,0,1,734.048,12.832,13.920,551.178,-1.461,1.094
1782117189.723160,0.125000,1636285,1000,12,0,1,719.251,-2.847,13.888,553.628,0.945,1.055
1782117189.724160,0.126000,1636286,1000,12,0,1,708.634,-12.613,14.000,553.220,1.008,1.060
1782117189.725160,0.127000,1636287,1000,12,0,1,713.606,-8.248,14.049,550.530,-1.671,1.085
1782117189.726160,0.128000,1636288,1000,12,0,1,732.126,9.546,14.108,550.025,-2.222,1.123
1782117189.727160,0.129000,1636289,1000,12,0,1,743.752,20.093,14.368,548.752,-2.511,1.173
1782117189.728160,0.130000,1636290,1000,12,0,1,740.173,14.355,14.421,549.737,-1.864,1.194
1782117189.729160,0.131000,1636291,1000,12,0,1,739.909,9.272,14.332,550.986,0.202,1.179
1782117189.730160,0.132000,1636292,1000,12,0,1,739.548,8.009,14.141,550.314,-0.364,1.166
1782117189.731160,0.133000,1636293,1000,12,0,1,730.613,-1.541,13.879,550.842,0.008,1.166
1782117189.732160,0.134000,1636294,1000,12,0,1,726.577,-6.828,13.912,549.353,-0.667,1.135
1782117189.733160,0.135000,1636295,1000,12,0,1,735.561,1.184,13.242,548.248,-2.014,1.170
1782117189.734160,0.136000,1636296,1000,12,0,1,748.100,12.703,12.321,551.250,0.856,1.155
1782117189.735160,0.137000,1636297,1000,12,0,1,755.810,18.230,12.185,552.067,2.233,1.197
1782117189.736160,0.138000,1636298,1000,12,0,1,754.081,14.486,12.290,553.869,2.874,1.264
1782117189.737160,0.139000,1636299,1000,12,0,1,731.814,-5.730,12.312,549.953,0.408,1.257
1782117189.738160,0.140000,1636300,1000,12,0,1,710.435,-26.808,12.825,550.578,-1.017,1.261
1782117189.739160,0.141000,1636301,1000,12,0,1,699.122,-32.396,13.534,551.154,1.186,1.265
1782117189.740160,0.142000,1636302,1000,12,0,1,695.975,-30.450,14.084,552.091,0.873,1.266
1782117189.741160,0.143000,1636303,1000,12,0,1,713.462,-11.308,14.161,551.923,1.469,1.254
1782117189.742160,0.144000,1636304,1000,12,0,1,753.721,26.198,14.638,553.172,1.658,1.276
1782117189.743160,0.145000,1636305,1000,12,0,1,768.734,41.434,15.595,552.259,1.381,1.275
1782117189.744160,0.146000,1636306,1000,12,0,1,759.365,24.908,15.677,550.890,-0.484,1.273
1782117189.745160,0.147000,1636307,1000,12,0,1,746.178,7.759,15.712,550.770,-0.559,1.268
1782117189.746160,0.148000,1636308,1000,12,0,1,740.773,-1.679,14.990,550.650,-0.371,1.266
1782117189.747160,0.149000,1636309,1000,12,0,1,743.872,-0.636,14.068,550.506,-0.642,1.267
1782117189.748160,0.150000,1636310,1000,12,0,1,746.587,1.093,13.750,553.268,1.725,1.289
1782117189.749160,0.151000,1636311,1000,12,0,1,747.379,-0.022,13.663,552.163,1.275,1.298
1782117189.750160,0.152000,1636312,1000,12,0,1,746.034,-1.740,13.659,553.268,1.001,1.305
1782117189.751160,0.153000,1636313,1000,12,0,1,741.542,-6.476,13.646,553.508,1.836,1.330
1782117189.752160,0.154000,1636314,1000,12,0,1,740.053,-7.821,13.637,552.908,0.446,1.258
1782117189.753160,0.155000,1636315,1000,12,0,1,738.996,-7.401,13.668,551.635,-0.568,1.223
1782117189.754160,0.156000,1636316,1000,12,0,1,737.387,-7.630,13.682,550.770,-1.615,1.243
1782117189.755160,0.157000,1636317,1000,12,0,1,736.498,-6.934,13.713,550.842,-1.425,1.254
1782117189.756160,0.158000,1636318,1000,12,0,1,735.489,-6.072,13.739,553.268,0.668,1.255
1782117189.757160,0.159000,1636319,1000,12,0,1,733.904,-5.956,13.763,553.172,1.031,1.262
1782117189.758160,0.160000,1636320,1000,12,0,1,731.742,-6.240,13.782,553.388,0.498,1.257
1782117189.759160,0.161000,1636321,1000,12,0,1,732.438,-4.698,13.794,552.379,-0.053,1.241
1782117189.760160,0.162000,1636322,1000,12,0,1,733.255,-2.361,13.798,553.004,-0.164,1.224
1782117189.761160,0.163000,1636323,1000,12,0,1,733.423,-1.899,13.794,551.755,-0.573,1.225
1782117189.762160,0.164000,1636324,1000,12,0,1,730.589,-3.568,13.765,550.890,-1.857,1.246
1782117189.763160,0.165000,1636325,1000,12,0,1,729.508,-5.015,13.732,552.163,-0.422,1.244
1782117189.764160,0.166000,1636326,1000,12,0,1,728.307,-5.032,13.717,552.139,-0.007,1.241
1782117189.765160,0.167000,1636327,1000,12,0,1,728.259,-5.236,13.710,552.187,-0.309,1.242
1782117189.766160,0.168000,1636328,1000,12,0,1,722.206,-8.776,13.737,552.620,0.383,1.243
1782117189.767160,0.169000,1636329,1000,12,0,1,715.047,-14.888,13.849,552.980,0.441,1.243
1782117189.768160,0.170000,1636330,1000,12,0,1,722.878,-7.324,13.790,554.421,1.611,1.263
1782117189.769160,0.171000,1636331,1000,12,0,1,714.423,-8.715,13.563,552.788,0.371,1.260
1782117189.770160,0.172000,1636332,1000,12,0,1,706.688,-17.384,13.742,552.091,-1.017,1.269
1782117189.771160,0.173000,1636333,1000,12,0,1,726.505,2.480,13.554,550.698,-1.604,1.250
1782117189.772160,0.174000,1636334,1000,12,0,1,741.782,20.036,13.728,550.386,-2.255,1.273
1782117189.773160,0.175000,1636335,1000,12,0,1,746.995,22.104,14.074,551.082,-1.025,1.275
1782117189.774160,0.176000,1636336,1000,12,0,1,736.570,12.985,14.080,551.779,-0.329,1.268
1782117189.775160,0.177000,1636337,1000,12,0,1,730.349,2.912,14.038,552.620,0.502,1.247
1782117189.776160,0.178000,1636338,1000,12,0,1,733.471,6.883,14.007,551.755,-0.023,1.207
1782117189.777160,0.179000,1636339,1000,12,0,1,733.663,7.129,13.752,551.755,-0.480,1.156
1782117189.778160,0.180000,1636340,1000,12,0,1,730.661,4.220,13.615,551.899,0.093,1.125
1782117189.779160,0.181000,1636341,1000,12,0,1,732.006,4.613,13.567,551.298,-0.576,1.128
1782117189.780160,0.182000,1636342,1000,12,0,1,727.298,1.636,13.522,550.290,-1.198,1.139
1782117189.781160,0.183000,1636343,1000,12,0,1,718.314,-6.870,13.555,550.698,-0.921,1.147
1782117189.782160,0.184000,1636344,1000,12,0,1,729.772,1.325,13.522,551.491,0.236,1.143
1782117189.783160,0.185000,1636345,1000,12,0,1,750.382,21.009,13.843,553.076,1.457,1.126
1782117189.784160,0.186000,1636346,1000,12,0,1,748.724,18.444,13.972,552.668,1.438,1.138
1782117189.785160,0.187000,1636347,1000,12,0,1,742.983,7.314,13.771,552.379,0.567,1.096
1782117189.786160,0.188000,1636348,1000,12,0,1,739.140,2.214,13.621,553.148,1.277,1.034
1782117189.787160,0.189000,1636349,1000,12,0,1,736.786,-2.455,13.602,551.563,0.042,1.033
1782117189.788160,0.190000,1636350,1000,12,0,1,742.839,1.273,13.064,551.563,-0.601,1.026
1782117189.789160,0.191000,1636351,1000,12,0,1,746.587,4.629,12.252,552.523,0.725,1.017
1782117189.790160,0.192000,1636352,1000,12,0,1,746.418,2.305,11.475,551.731,-0.051,1.010
1782117189.791160,0.193000,1636353,1000,12,0,1,741.975,-1.983,11.366,553.580,1.086,1.000
1782117189.792160,0.194000,1636354,1000,12,0,1,740.870,-4.681,10.766,552.139,0.588,0.976
1782117189.793160,0.195000,1636355,1000,12,0,1,745.217,-0.247,9.031,553.773,0.603,0.960
1782117189.794160,0.196000,1636356,1000,12,0,1,744.665,0.055,8.316,551.875,0.337,0.959
1782117189.795160,0.197000,1636357,1000,12,0,1,741.542,-3.151,8.255,550.890,-1.996,0.996
1782117189.796160,0.198000,1636358,1000,12,0,1,741.782,-2.661,8.261,550.986,-0.892,1.003
1782117189.797160,0.199000,1636359,1000,12,0,1,738.588,-4.083,8.280,551.923,-0.448,1.001
1782117189.798160,0.200000,1636360,1000,12,0,1,733.904,-7.890,8.354,552.043,0.177,0.971
1782117189.799160,0.201000,1636361,1000,12,0,1,728.307,-11.055,8.499,551.899,-0.155,0.954
1782117189.800160,0.202000,1636362,1000,12,0,1,725.616,-12.264,8.670,553.172,0.790,0.950
1782117189.801160,0.203000,1636363,1000,12,0,1,730.733,-6.234,8.667,552.067,0.348,0.915
1782117189.802160,0.204000,1636364,1000,12,0,1,735.705,0.083,8.596,551.875,-0.673,0.918
1782117189.803160,0.205000,1636365,1000,12,0,1,735.657,0.084,8.532,552.187,0.256,0.915
1782117189.804160,0.206000,1636366,1000,12,0,1,735.009,-1.128,8.465,551.130,-0.904,0.896
1782117189.805160,0.207000,1636367,1000,12,0,1,730.421,-4.903,8.437,552.692,0.312,0.874
1782117189.806160,0.208000,1636368,1000,12,0,1,723.695,-11.025,8.536,554.829,2.416,0.933
1782117189.807160,0.209000,1636369,1000,12,0,1,715.336,-16.774,8.820,551.971,0.123,0.922
1782117189.808160,0.210000,1636370,1000,12,0,1,719.323,-12.953,8.965,552.572,-0.583,0.923
1782117189.809160,0.211000,1636371,1000,12,0,1,731.093,0.619,8.940,553.604,1.257,0.940
1782117189.810160,0.212000,1636372,1000,12,0,1,737.579,7.429,8.996,552.668,-0.060,0.940
1782117189.811160,0.213000,1636373,1000,12,0,1,737.531,7.029,9.046,552.596,-0.220,0.937
1782117189.812160,0.214000,1636374,1000,12,0,1,735.969,4.826,9.058,551.755,-0.728,0.905
1782117189.813160,0.215000,1636375,1000,12,0,1,736.786,4.948,9.057,550.626,-1.846,0.940
1782117189.814160,0.216000,1636376,1000,12,0,1,730.997,1.215,9.031,552.067,-0.506,0.943
1782117189.815160,0.217000,1636377,1000,12,0,1,726.337,-3.736,9.016,553.965,1.434,0.963
1782117189.816160,0.218000,1636378,1000,12,0,1,724.992,-2.710,8.938,552.019,0.025,0.962
1782117189.817160,0.219000,1636379,1000,12,0,1,710.604,-12.045,8.852,551.467,-1.264,0.976
1782117189.818160,0.220000,1636380,1000,12,0,1,698.929,-21.364,9.296,552.211,-0.038,0.949
1782117189.819160,0.221000,1636381,1000,12,0,1,712.525,-6.680,9.262,552.668,0.195,0.948
1782117189.820160,0.222000,1636382,1000,12,0,1,738.588,19.786,9.358,552.091,-0.084,0.937
1782117189.821160,0.223000,1636383,1000,12,0,1,750.021,30.401,10.293,550.530,-1.516,0.935
1782117189.822160,0.224000,1636384,1000,12,0,1,737.651,16.452,10.165,549.833,-2.059,0.925
1782117189.823160,0.225000,1636385,1000,12,0,1,726.049,0.886,9.673,552.427,0.271,0.915
1782117189.824160,0.226000,1636386,1000,12,0,1,726.049,-0.348,9.497,552.427,1.050,0.926
1782117189.825160,0.227000,1636387,1000,12,0,1,726.121,-0.215,9.488,552.163,0.135,0.923
1782117189.826160,0.228000,1636388,1000,12,0,1,740.653,9.328,9.530,551.707,0.109,0.923
1782117189.827160,0.229000,1636389,1000,12,0,1,761.311,27.033,10.219,552.523,0.392,0.922
1782117189.828160,0.230000,1636390,1000,12,0,1,755.426,19.862,10.581,552.548,0.818,0.930
1782117189.829160,0.231000,1636391,1000,12,0,1,742.479,1.573,10.563,551.971,-0.003,0.926
1782117189.830160,0.232000,1636392,1000,12,0,1,729.652,-10.104,10.657,552.932,0.681,0.915
1782117189.831160,0.233000,1636393,1000,12,0,1,720.524,-18.927,10.945,553.460,1.351,0.926
1782117189.832160,0.234000,1636394,1000,12,0,1,715.768,-19.804,11.296,551.395,-0.559,0.929
1782117189.833160,0.235000,1636395,1000,12,0,1,733.928,-3.705,10.911,551.539,-0.868,0.914
1782117189.834160,0.236000,1636396,1000,12,0,1,733.928,3.975,10.609,551.539,-0.286,0.892
1782117189.835160,0.237000,1636397,1000,12,0,1,752.303,12.692,10.710,551.971,-0.180,0.889
1782117189.836160,0.238000,1636398,1000,12,0,1,754.585,21.682,11.136,553.220,1.092,0.884
1782117189.837160,0.239000,1636399,1000,12,0,1,748.412,7.988,11.188,551.322,-0.269,0.885
1782117189.838160,0.240000,1636400,1000,12,0,1,741.782,3.200,11.196,549.881,-2.077,0.928
1782117189.839160,0.241000,1636401,1000,12,0,1,741.782,-0.212,11.177,549.881,-1.526,0.947
1782117189.840160,0.242000,1636402,1000,12,0,1,734.264,-4.867,11.193,551.106,-0.444,0.949
1782117189.841160,0.243000,1636403,1000,12,0,1,724.968,-14.163,11.367,551.467,0.413,0.939
1782117189.842160,0.244000,1636404,1000,12,0,1,716.993,-19.599,11.682,552.019,0.555,0.938
1782117189.843160,0.245000,1636405,1000,12,0,1,703.902,-27.205,12.299,552.812,1.377,0.955
1782117189.844160,0.246000,1636406,1000,12,0,1,685.310,-40.213,13.550,553.869,1.954,0.993
1782117189.845160,0.247000,1636407,1000,12,0,1,698.737,-26.040,14.034,552.620,0.950,0.961
1782117189.846160,0.248000,1636408,1000,12,0,1,722.422,2.346,14.033,553.340,0.696,0.958
1782117189.847160,0.249000,1636409,1000,12,0,1,722.662,5.687,14.045,552.499,0.551,0.959
1782117189.848160,0.250000,1636410,1000,12,0,1,733.327,10.069,14.072,551.226,-1.205,0.974
1782117189.849160,0.251000,1636411,1000,12,0,1,760.350,33.839,14.781,551.058,-1.080,0.985
1782117189.850160,0.252000,1636412,1000,12,0,1,779.038,45.860,16.048,552.716,0.306,0.980
1782117189.851160,0.253000,1636413,1000,12,0,1,771.688,34.566,16.753,551.491,-0.133,0.979
1782117189.852160,0.254000,1636414,1000,12,0,1,759.774,14.751,16.882,552.403,-0.128,0.974
1782117189.853160,0.255000,1636415,1000,12,0,1,750.838,4.311,16.893,553.580,1.540,0.998
1782117189.854160,0.256000,1636416,1000,12,0,1,741.566,-5.842,16.913,551.515,-0.348,0.991
1782117189.855160,0.257000,1636417,1000,12,0,1,735.489,-10.800,16.967,550.938,-1.359,1.008
1782117189.856160,0.258000,1636418,1000,12,0,1,742.503,-4.188,16.906,552.740,0.578,0.952
1782117189.857160,0.259000,1636419,1000,12,0,1,754.153,8.163,16.779,552.499,0.566,0.955
1782117189.858160,0.260000,1636420,1000,12,0,1,761.407,14.262,16.800,551.058,-0.855,0.959
1782117189.859160,0.261000,1636421,1000,12,0,1,755.786,8.494,16.842,551.010,-1.053,0.955
1782117189.860160,0.262000,1636422,1000,12,0,1,748.748,-0.717,16.810,552.548,0.471,0.957
1782117189.861160,0.263000,1636423,1000,12,0,1,749.565,-1.247,16.781,552.668,0.762,0.962
1782117189.862160,0.264000,1636424,1000,12,0,1,749.973,-0.776,16.768,554.853,1.996,0.998
1782117189.863160,0.265000,1636425,1000,12,0,1,750.670,-2.034,16.756,555.046,2.547,1.028
1782117189.864160,0.266000,1636426,1000,12,0,1,748.316,-4.233,16.766,552.692,-0.253,1.026
1782117189.865160,0.267000,1636427,1000,12,0,1,748.941,-6.183,16.780,551.875,-1.297,1.022
1782117189.866160,0.268000,1636428,1000,12,0,1,749.589,-5.392,16.793,550.794,-1.845,1.055
1782117189.867160,0.269000,1636429,1000,12,0,1,753.024,-4.550,16.719,551.250,-1.659,1.066
1782117189.868160,0.270000,1636430,1000,12,0,1,752.448,-4.621,16.456,551.995,-0.330,1.067
1782117189.869160,0.271000,1636431,1000,12,0,1,752.351,-6.851,16.458,551.707,-0.590,1.070
1782117189.870160,0.272000,1636432,1000,12,0,1,752.183,-6.517,16.244,552.788,0.327,1.071
1782117189.871160,0.273000,1636433,1000,12,0,1,747.836,-10.129,15.731,552.211,0.256,1.050
1782117189.872160,0.274000,1636434,1000,12,0,1,747.908,-10.143,15.624,551.106,-1.034,1.019
1782117189.873160,0.275000,1636435,1000,12,0,1,751.679,-4.758,15.637,551.899,-0.239,1.019
1782117189.874160,0.276000,1636436,1000,12,0,1,749.541,-4.871,15.653,553.749,1.467,1.029
1782117189.875160,0.277000,1636437,1000,12,0,1,745.818,-7.093,15.685,554.229,1.951,1.066
1782117189.876160,0.278000,1636438,1000,12,0,1,745.385,-5.801,15.651,552.043,-0.126,1.066
1782117189.877160,0.279000,1636439,1000,12,0,1,742.527,-5.485,15.196,552.740,-0.252,1.065
1782117189.878160,0.280000,1636440,1000,12,0,1,742.335,-4.660,14.949,552.788,0.494,1.061
1782117189.879160,0.281000,1636441,1000,12,0,1,742.335,-1.884,14.950,552.788,-0.137,1.061
1782117189.880160,0.282000,1636442,1000,12,0,1,741.470,-1.777,14.883,553.532,0.722,1.061
1782117189.881160,0.283000,1636443,1000,12,0,1,740.533,-1.299,14.642,554.613,1.351,1.061
1782117189.882160,0.284000,1636444,1000,12,0,1,740.533,-0.933,14.372,554.613,1.321,1.075
1782117189.883160,0.285000,1636445,1000,12,0,1,739.452,-1.237,14.364,553.292,-0.137,1.068
1782117189.884160,0.286000,1636446,1000,12,0,1,732.414,-6.731,14.384,554.133,0.081,1.067
1782117189.885160,0.287000,1636447,1000,12,0,1,715.528,-20.178,14.554,552.956,-0.315,1.068
1782117189.886160,0.288000,1636448,1000,12,0,1,701.428,-31.056,14.890,552.499,-1.466,1.077
1782117189.887160,0.289000,1636449,1000,12,0,1,706.184,-23.705,15.221,550.530,-2.230,1.121
1782117189.888160,0.290000,1636450,1000,12,0,1,718.218,-7.543,15.251,553.148,-0.870,1.089
1782117189.889160,0.291000,1636451,1000,12,0,1,732.534,6.537,15.279,551.106,-0.690,1.072
1782117189.890160,0.292000,1636452,1000,12,0,1,752.472,23.864,15.633,551.947,-1.631,1.095
1782117189.891160,0.293000,1636453,1000,12,0,1,753.913,25.294,15.911,550.338,-1.038,1.103
1782117189.892160,0.294000,1636454,1000,12,0,1,746.995,13.745,15.788,552.427,-0.720,1.105
1782117189.893160,0.295000,1636455,1000,12,0,1,743.632,9.163,15.367,551.635,0.464,1.090
1782117189.894160,0.296000,1636456,1000,12,0,1,744.833,8.559,14.327,552.091,-0.490,1.056
1782117189.895160,0.297000,1636457,1000,12,0,1,746.250,9.954,13.917,552.812,1.028,1.058
1782117189.896160,0.298000,1636458,1000,12,0,1,744.713,8.230,13.961,553.652,1.262,1.068
1782117189.897160,0.299000,1636459,1000,12,0,1,741.999,5.527,13.960,555.382,2.521,1.123
1782117189.898160,0.300000,1636460,1000,12,0,1,741.326,4.995,13.905,552.451,0.447,1.112
1782117189.899160,0.301000,1636461,1000,12,0,1,738.900,3.557,13.066,552.668,-1.024,1.111
1782117189.900160,0.302000,1636462,1000,12,0,1,736.882,1.765,11.345,552.043,-0.058,1.110
1782117189.901160,0.303000,1636463,1000,12,0,1,732.751,-0.950,10.239,551.154,-1.903,1.142
1782117189.902160,0.304000,1636464,1000,12,0,1,728.619,-4.483,10.044,553.028,0.386,1.143
1782117189.903160,0.305000,1636465,1000,12,0,1,730.276,-2.860,10.034,553.028,0.564,1.125
1782117189.904160,0.306000,1636466,1000,12,0,1,732.775,0.259,10.000,552.548,-0.086,1.124
1782117189.905160,0.307000,1636467,1000,12,0,1,736.210,2.178,9.887,551.851,-0.484,1.110
1782117189.906160,0.308000,1636468,1000,12,0,1,734.936,1.054,9.870,551.587,-0.840,1.113
1782117189.907160,0.309000,1636469,1000,12,0,1,734.360,-1.925,9.806,550.770,-1.070,1.121
1782117189.908160,0.310000,1636470,1000,12,0,1,739.116,1.311,9.599,551.923,-0.351,1.115
1782117189.909160,0.311000,1636471,1000,12,0,1,740.822,2.135,9.528,551.779,0.341,1.106
1782117189.910160,0.312000,1636472,1000,12,0,1,741.062,0.423,9.527,551.659,-0.261,1.105
1782117189.911160,0.313000,1636473,1000,12,0,1,736.330,-3.705,9.540,552.692,0.913,1.107
1782117189.912160,0.314000,1636474,1000,12,0,1,733.808,-7.284,9.595,554.133,1.976,1.106
1782117189.913160,0.315000,1636475,1000,12,0,1,725.713,-11.514,9.728,553.580,1.536,1.069
1782117189.914160,0.316000,1636476,1000,12,0,1,714.759,-19.979,10.112,554.349,1.414,1.086
1782117189.915160,0.317000,1636477,1000,12,0,1,706.808,-22.624,10.570,554.109,1.415,1.089
1782117189.916160,0.318000,1636478,1000,12,0,1,707.121,-18.106,10.849,553.532,0.263,1.058
1782117189.917160,0.319000,1636479,1000,12,0,1,711.108,-8.854,10.902,553.508,0.167,1.032
1782117189.918160,0.320000,1636480,1000,12,0,1,725.040,5.850,10.914,554.421,0.721,1.036
1782117189.919160,0.321000,1636481,1000,12,0,1,736.234,19.127,11.203,553.749,0.260,1.034
1782117189.920160,0.322000,1636482,1000,12,0,1,725.737,10.764,11.268,555.502,1.056,1.043
1782117189.921160,0.323000,1636483,1000,12,0,1,730.733,9.800,11.262,554.373,0.754,1.048
1782117189.922160,0.324000,1636484,1000,12,0,1,734.024,16.252,11.404,551.250,-2.637,1.103
1782117189.923160,0.325000,1636485,1000,12,0,1,719.683,0.873,11.385,551.371,-2.520,1.158
1782117189.924160,0.326000,1636486,1000,12,0,1,728.595,4.332,11.381,551.779,-1.367,1.156
1782117189.925160,0.327000,1636487,1000,12,0,1,740.485,17.200,11.594,551.683,-1.396,1.140
1782117189.926160,0.328000,1636488,1000,12,0,1,734.985,9.249,11.639,552.740,-0.167,1.140
1782117189.927160,0.329000,1636489,1000,12,0,1,744.497,11.830,11.733,553.268,0.485,1.141
1782117189.928160,0.330000,1636490,1000,12,0,1,760.927,24.919,12.233,552.211,-0.316,1.140
1782117189.929160,0.331000,1636491,1000,12,0,1,758.597,19.357,12.533,551.346,-1.255,1.154
1782117189.930160,0.332000,1636492,1000,12,0,1,749.085,5.101,12.551,552.211,-0.382,1.150
1782117189.931160,0.333000,1636493,1000,12,0,1,744.569,-1.771,12.552,552.427,0.120,1.135
1782117189.932160,0.334000,1636494,1000,12,0,1,749.949,0.898,12.552,553.268,0.566,1.122
1782117189.933160,0.335000,1636495,1000,12,0,1,753.721,4.823,12.570,552.548,0.285,1.123
1782117189.934160,0.336000,1636496,1000,12,0,1,755.474,4.451,12.549,553.749,0.585,1.126
1782117189.935160,0.337000,1636497,1000,12,0,1,753.985,3.052,12.228,552.451,0.231,1.125
1782117189.936160,0.338000,1636498,1000,12,0,1,748.196,-2.758,11.419,552.908,-0.438,1.108
1782117189.937160,0.339000,1636499,1000,12,0,1,745.602,-5.382,10.942,551.731,-0.454,1.064
1782117189.938160,0.340000,1636500,1000,12,0,1,746.298,-3.656,10.902,551.371,-1.521,1.078
1782117189.939160,0.341000,1636501,1000,12,0,1,748.556,-1.299,10.865,552.379,-0.021,1.074
1782117189.940160,0.342000,1636502,1000,12,0,1,748.268,-0.725,10.328,553.460,0.911,1.057
1782117189.941160,0.343000,1636503,1000,12,0,1,747.836,-2.015,9.693,552.523,0.320,1.047
1782117189.942160,0.344000,1636504,1000,12,0,1,745.890,-3.513,9.509,553.340,0.561,1.045
1782117189.943160,0.345000,1636505,1000,12,0,1,741.254,-8.218,9.491,553.484,1.096,1.055
1782117189.944160,0.346000,1636506,1000,12,0,1,745.818,-5.663,9.448,553.052,0.413,1.054
1782117189.945160,0.347000,1636507,1000,12,0,1,744.232,-5.184,9.371,551.659,-0.669,1.048
1782117189.946160,0.348000,1636508,1000,12,0,1,744.256,-8.066,9.368,551.322,-1.102,1.045
1782117189.947160,0.349000,1636509,1000,12,0,1,743.128,-7.613,9.397,551.178,-0.861,0.990
1782117189.948160,0.350000,1636510,1000,12,0,1,738.708,-12.453,9.535,551.395,-0.567,0.991
1782117189.949160,0.351000,1636511,1000,12,0,1,732.510,-16.617,9.807,552.764,0.647,0.984
1782117189.950160,0.352000,1636512,1000,12,0,1,726.938,-20.044,10.206,553.965,1.859,1.019
1782117189.951160,0.353000,1636513,1000,12,0,1,723.383,-20.271,10.600,552.692,0.618,0.987
1782117189.952160,0.354000,1636514,1000,12,0,1,723.767,-16.480,10.835,551.683,-0.683,0.990
1782117189.953160,0.355000,1636515,1000,12,0,1,736.690,-2.974,10.835,552.259,-0.216,0.987
1782117189.954160,0.356000,1636516,1000,12,0,1,743.560,7.837,10.892,552.019,-0.165,0.987
1782117189.955160,0.357000,1636517,1000,12,0,1,745.506,8.479,10.953,554.085,1.064,0.996
1782117189.956160,0.358000,1636518,1000,12,0,1,743.464,8.214,11.013,553.893,1.564,1.014
1782117189.957160,0.359000,1636519,1000,12,0,1,739.260,3.766,11.023,553.821,0.479,1.005
1782117189.958160,0.360000,1636520,1000,12,0,1,731.165,-1.692,11.024,551.491,-0.880,1.011
1782117189.959160,0.361000,1636521,1000,12,0,1,718.699,-11.229,11.134,552.307,-1.199,1.024
1782117189.960160,0.362000,1636522,1000,12,0,1,709.186,-17.237,11.397,552.379,0.062,1.023
1782117189.961160,0.363000,1636523,1000,12,0,1,706.280,-15.937,11.606,553.124,-0.003,1.015
1782117189.962160,0.364000,1636524,1000,12,0,1,713.390,-6.745,11.600,552.067,-0.122,0.976
1782117189.963160,0.365000,1636525,1000,12,0,1,725.160,6.717,11.524,552.331,-0.545,0.955
1782117189.964160,0.366000,1636526,1000,12,0,1,728.211,10.450,11.270,553.028,0.610,0.938
1782117189.965160,0.367000,1636527,1000,12,0,1,731.261,10.770,10.913,550.410,-1.391,0.937
1782117189.966160,0.368000,1636528,1000,12,0,1,741.062,17.299,10.886,550.914,-1.640,0.964
1782117189.967160,0.369000,1636529,1000,12,0,1,742.623,17.249,11.086,550.410,-0.727,0.970
1782117189.968160,0.370000,1636530,1000,12,0,1,744.785,13.925,11.229,551.779,-0.432,0.966
1782117189.969160,0.371000,1636531,1000,12,0,1,748.484,15.005,11.103,553.076,1.741,0.996
1782117189.970160,0.372000,1636532,1000,12,0,1,741.422,6.507,11.037,553.148,1.121,0.998
1782117189.971160,0.373000,1636533,1000,12,0,1,730.805,-5.362,10.975,552.331,0.548,0.995
1782117189.972160,0.374000,1636534,1000,12,0,1,726.361,-9.394,10.814,551.298,-0.728,0.928
1782117189.973160,0.375000,1636535,1000,12,0,1,725.352,-8.435,10.879,551.058,-0.926,0.867
1782117189.974160,0.376000,1636536,1000,12,0,1,729.099,-3.540,10.873,551.851,-0.153,0.846
1782117189.975160,0.377000,1636537,1000,12,0,1,739.020,6.680,10.640,549.185,-1.927,0.866
1782117189.976160,0.378000,1636538,1000,12,0,1,738.107,8.349,10.625,551.851,-0.567,0.870
1782117189.977160,0.379000,1636539,1000,12,0,1,723.839,-4.356,10.510,552.259,1.389,0.889
1782117189.978160,0.380000,1636540,1000,12,0,1,711.468,-14.494,10.112,552.980,0.778,0.895
1782117189.979160,0.381000,1636541,1000,12,0,1,697.536,-22.442,10.239,553.028,1.553,0.904
1782117189.980160,0.382000,1636542,1000,12,0,1,679.881,-33.312,11.247,552.427,0.399,0.904
1782117189.981160,0.383000,1636543,1000,12,0,1,660.665,-43.216,12.798,554.013,1.586,0.931
1782117189.982160,0.384000,1636544,1000,12,0,1,649.495,-45.781,14.342,552.283,0.674,0.933
1782117189.983160,0.385000,1636545,1000,12,0,1,653.795,-33.483,15.088,551.346,-1.170,0.946
1782117189.984160,0.386000,1636546,1000,12,0,1,669.648,-11.961,15.170,552.740,0.669,0.947
1782117189.985160,0.387000,1636547,1000,12,0,1,695.519,14.366,15.299,553.268,1.001,0.957
1782117189.986160,0.388000,1636548,1000,12,0,1,724.704,40.208,16.317,553.292,1.018,0.966
1782117189.987160,0.389000,1636549,1000,12,0,1,750.190,57.513,18.216,552.572,0.218,0.965
1782117189.988160,0.390000,1636550,1000,12,0,1,760.350,59.058,20.033,550.410,-1.589,0.967
1782117189.989160,0.391000,1636551,1000,12,0,1,757.276,45.696,21.048,550.530,-1.798,1.000
1782117189.990160,0.392000,1636552,1000,12,0,1,745.482,26.956,21.391,550.698,-0.929,1.000
1782117189.991160,0.393000,1636553,1000,12,0,1,731.574,8.178,21.420,552.451,0.241,1.000
1782117189.992160,0.394000,1636554,1000,12,0,1,748.388,16.176,21.536,551.346,0.079,0.996
1782117189.993160,0.395000,1636555,1000,12,0,1,755.834,25.888,21.814,550.626,-1.359,1.003
1782117189.994160,0.396000,1636556,1000,12,0,1,746.875,11.999,21.865,550.121,-1.177,1.015
1782117189.995160,0.397000,1636557,1000,12,0,1,736.570,1.956,21.855,551.010,-0.695,1.015
1782117189.996160,0.398000,1636558,1000,12,0,1,734.408,-1.606,21.826,553.028,1.367,1.022
1782117189.997160,0.399000,1636559,1000,12,0,1,734.792,0.692,21.800,553.845,2.075,1.056
1782117189.998160,0.400000,1636560,1000,12,0,1,732.486,-0.587,21.729,551.899,0.188,1.053
1782117189.999160,0.401000,1636561,1000,12,0,1,737.411,2.848,21.605,552.788,0.273,1.050
1782117190.000160,0.402000,1636562,1000,12,0,1,739.933,6.531,21.438,552.620,0.740,1.022
1782117190.001160,0.403000,1636563,1000,12,0,1,738.107,2.288,21.248,551.851,-0.409,1.020
1782117190.002160,0.404000,1636564,1000,12,0,1,728.883,-6.022,21.137,552.163,-0.019,1.015
1782117190.003160,0.405000,1636565,1000,12,0,1,722.422,-14.861,21.237,550.818,-0.810,1.021
1782117190.004160,0.406000,1636566,1000,12,0,1,719.227,-16.846,21.341,552.451,0.022,1.021
1782117190.005160,0.407000,1636567,1000,12,0,1,717.810,-18.789,21.473,551.659,0.517,1.012
1782117190.006160,0.408000,1636568,1000,12,0,1,720.284,-16.315,21.565,550.866,-1.084,1.000
1782117190.007160,0.409000,1636569,1000,12,0,1,723.262,-13.353,21.641,552.427,0.788,1.004
1782117190.008160,0.410000,1636570,1000,12,0,1,724.391,-12.445,21.711,553.340,1.564,1.020
1782117190.009160,0.411000,1636571,1000,12,0,1,727.970,-9.596,21.696,551.298,-0.108,1.006
1782117190.010160,0.412000,1636572,1000,12,0,1,731.429,-6.030,21.575,551.154,-0.890,1.014
1782117190.011160,0.413000,1636573,1000,12,0,1,731.742,-5.206,21.470,553.220,1.160,1.027
1782117190.012160,0.414000,1636574,1000,12,0,1,733.039,-3.842,21.455,552.427,0.718,1.032
1782117190.013160,0.415000,1636575,1000,12,0,1,734.456,-0.904,21.435,552.451,-0.088,1.029
1782117190.014160,0.416000,1636576,1000,12,0,1,728.619,-3.863,21.391,549.929,-1.516,1.048
1782117190.015160,0.417000,1636577,1000,12,0,1,719.011,-10.201,21.385,551.346,-1.479,1.050
1782117190.016160,0.418000,1636578,1000,12,0,1,710.003,-14.367,21.342,553.869,1.885,1.058
1782117190.017160,0.419000,1636579,1000,12,0,1,703.037,-15.744,21.318,553.316,0.965,1.062
1782117190.018160,0.420000,1636580,1000,12,0,1,691.147,-19.767,21.410,552.692,0.112,1.060
1782117190.019160,0.421000,1636581,1000,12,0,1,694.822,-13.600,21.392,551.539,-0.798,1.038
1782117190.020160,0.422000,1636582,1000,12,0,1,709.330,5.529,21.386,552.427,-0.446,1.027
1782117190.021160,0.423000,1636583,1000,12,0,1,716.056,13.852,21.462,553.172,0.831,1.031
1782117190.022160,0.424000,1636584,1000,12,0,1,718.482,14.802,21.523,551.226,-0.968,1.035
1782117190.023160,0.425000,1636585,1000,12,0,1,718.482,13.228,21.571,553.172,0.237,1.027
1782117190.024160,0.426000,1636586,1000,12,0,1,713.726,6.446,21.585,553.821,1.681,1.054
1782117190.025160,0.427000,1636587,1000,12,0,1,710.195,0.601,21.564,553.989,1.050,1.029
1782117190.026160,0.428000,1636588,1000,12,0,1,704.791,-5.226,21.545,552.548,0.221,1.027
1782117190.027160,0.429000,1636589,1000,12,0,1,700.779,-10.154,21.584,551.899,-0.993,1.017
1782117190.028160,0.430000,1636590,1000,12,0,1,700.058,-10.444,21.537,551.899,-0.556,1.014
1782117190.029160,0.431000,1636591,1000,12,0,1,710.724,-1.667,21.303,552.139,-0.427,0.992
1782117190.030160,0.432000,1636592,1000,12,0,1,724.944,11.963,20.844,552.620,0.085,0.991
1782117190.031160,0.433000,1636593,1000,12,0,1,739.572,22.695,20.185,551.539,-0.640,0.969
1782117190.032160,0.434000,1636594,1000,12,0,1,755.883,33.971,19.713,551.563,-1.058,0.976
1782117190.033160,0.435000,1636595,1000,12,0,1,758.645,33.676,19.719,551.947,-0.249,0.963
1782117190.034160,0.436000,1636596,1000,12,0,1,754.705,24.101,19.940,552.331,-0.184,0.958
1782117190.035160,0.437000,1636597,1000,12,0,1,747.667,15.526,19.958,552.644,0.268,0.949
1782117190.036160,0.438000,1636598,1000,12,0,1,737.987,4.680,19.142,554.661,1.534,0.962
1782117190.037160,0.439000,1636599,1000,12,0,1,731.141,-1.489,17.329,554.301,1.614,0.989
1782117190.038160,0.440000,1636600,1000,12,0,1,728.163,-3.128,15.190,552.307,-0.827,0.970
1782117190.039160,0.441000,1636601,1000,12,0,1,717.570,-9.526,13.813,549.113,-3.292,1.045
1782117190.040160,0.442000,1636602,1000,12,0,1,713.870,-12.919,13.401,551.226,-1.983,1.074
1782117190.041160,0.443000,1636603,1000,12,0,1,722.614,-2.815,13.357,551.731,0.037,1.074
1782117190.042160,0.444000,1636604,1000,12,0,1,731.718,6.145,13.189,551.659,-0.648,1.078
1782117190.043160,0.445000,1636605,1000,12,0,1,735.993,8.289,12.724,551.395,-0.202,1.061
1782117190.044160,0.446000,1636606,1000,12,0,1,735.153,4.805,12.629,551.178,-0.507,1.050
1782117190.045160,0.447000,1636607,1000,12,0,1,731.862,-1.818,12.628,553.172,1.225,1.060
1782117190.046160,0.448000,1636608,1000,12,0,1,727.754,-8.037,12.678,553.893,2.318,1.092
1782117190.047160,0.449000,1636609,1000,12,0,1,717.401,-18.388,12.941,554.613,2.159,1.095
1782117190.048160,0.450000,1636610,1000,12,0,1,709.787,-26.257,13.463,551.611,0.131,1.095
1782117190.049160,0.451000,1636611,1000,12,0,1,697.296,-33.699,14.276,552.139,-0.880,1.102
1782117190.050160,0.452000,1636612,1000,12,0,1,697.728,-32.533,14.971,552.187,0.478,1.099
1782117190.051160,0.453000,1636613,1000,12,0,1,695.422,-26.283,15.422,552.499,-0.227,1.098
1782117190.052160,0.454000,1636614,1000,12,0,1,691.483,-26.597,15.851,552.211,0.185,1.098
1782117190.053160,0.455000,1636615,1000,12,0,1,713.270,-3.991,15.721,552.211,-0.374,1.093
1782117190.054160,0.456000,1636616,1000,12,0,1,751.511,33.822,16.259,552.331,-0.032,1.093
1782117190.055160,0.457000,1636617,1000,12,0,1,766.019,47.827,17.408,553.580,0.765,1.096
1782117190.056160,0.458000,1636618,1000,12,0,1,764.266,39.861,18.152,554.902,1.879,1.117
1782117190.057160,0.459000,1636619,1000,12,0,1,759.197,30.656,18.567,552.812,0.170,1.112
1782117190.058160,0.460000,1636620,1000,12,0,1,753.120,21.167,18.724,551.178,-2.042,1.128
1782117190.059160,0.461000,1636621,1000,12,0,1,750.718,15.581,18.804,550.674,-1.889,1.159
1782117190.060160,0.462000,1636622,1000,12,0,1,749.925,13.171,18.877,549.977,-2.384,1.200
1782117190.061160,0.463000,1636623,1000,12,0,1,745.482,7.134,18.890,552.283,-0.210,1.189
1782117190.062160,0.464000,1636624,1000,12,0,1,726.938,-9.151,18.926,553.292,1.373,1.201
1782117190.063160,0.465000,1636625,1000,12,0,1,704.959,-29.838,19.391,552.980,0.743,1.205
1782117190.064160,0.466000,1636626,1000,12,0,1,688.721,-40.750,20.221,550.650,-0.972,1.194
1782117190.065160,0.467000,1636627,1000,12,0,1,657.926,-60.051,21.885,552.355,-0.255,1.176
1782117190.066160,0.468000,1636628,1000,12,0,1,646.853,-66.293,23.722,552.548,1.094,1.156
1782117190.067160,0.469000,1636629,1000,12,0,1,694.438,-18.009,23.754,552.548,0.240,1.148
1782117190.068160,0.470000,1636630,1000,12,0,1,769.286,53.097,24.755,553.052,1.054,1.158
1782117190.069160,0.471000,1636631,1000,12,0,1,815.190,89.808,27.757,552.355,0.268,1.153
1782117190.070160,0.472000,1636632,1000,12,0,1,802.867,67.237,29.330,551.923,-0.342,1.152
1782117190.071160,0.473000,1636633,1000,12,0,1,786.101,32.889,29.632,551.923,-0.201,1.146
1782117190.072160,0.474000,1636634,1000,12,0,1,777.381,17.967,29.667,553.100,0.534,1.141
1782117190.073160,0.475000,1636635,1000,12,0,1,771.520,5.284,29.617,551.611,-0.179,1.141
1782117190.074160,0.476000,1636636,1000,12,0,1,767.965,-0.095,29.603,552.427,-0.479,1.118
1782117190.075160,0.477000,1636637,1000,12,0,1,761.912,-6.376,29.616,552.451,0.505,1.110
1782117190.076160,0.478000,1636638,1000,12,0,1,757.468,-10.175,29.642,553.893,0.777,1.115
1782117190.077160,0.479000,1636639,1000,12,0,1,754.705,-10.040,29.641,554.133,1.667,1.131
1782117190.078160,0.480000,1636640,1000,12,0,1,754.537,-8.312,29.628,553.845,0.588,1.131
1782117190.079160,0.481000,1636641,1000,12,0,1,754.922,-4.720,29.635,551.947,-0.735,1.134
1782117190.080160,0.482000,1636642,1000,12,0,1,753.721,-4.180,29.592,551.395,-1.722,1.160
1782117190.081160,0.483000,1636643,1000,12,0,1,749.205,-6.172,29.430,549.953,-2.210,1.198
1782117190.082160,0.484000,1636644,1000,12,0,1,747.355,-7.817,29.057,551.178,-1.446,1.206
1782117190.083160,0.485000,1636645,1000,12,0,1,746.947,-6.973,28.681,551.875,0.127,1.206
1782117190.084160,0.486000,1636646,1000,12,0,1,746.370,-8.034,28.500,550.338,-1.175,1.217
1782117190.085160,0.487000,1636647,1000,12,0,1,746.466,-8.666,28.442,551.587,-0.375,1.217
1782117190.086160,0.488000,1636648,1000,12,0,1,748.748,-8.243,28.458,554.181,2.453,1.247
1782117190.087160,0.489000,1636649,1000,12,0,1,753.625,-5.830,28.469,554.181,2.261,1.267
1782117190.088160,0.490000,1636650,1000,12,0,1,754.754,-6.343,28.480,553.388,1.160,1.272
1782117190.089160,0.491000,1636651,1000,12,0,1,757.444,-7.239,28.466,554.181,1.316,1.199
1782117190.090160,0.492000,1636652,1000,12,0,1,752.279,-11.608,28.455,552.235,0.014,1.165
1782117190.091160,0.493000,1636653,1000,12,0,1,747.595,-18.074,28.567,552.187,-1.038,1.175
1782117190.092160,0.494000,1636654,1000,12,0,1,748.508,-15.470,28.637,550.890,-1.187,1.183
1782117190.093160,0.495000,1636655,1000,12,0,1,746.514,-14.617,28.688,552.668,-0.616,1.186
1782117190.094160,0.496000,1636656,1000,12,0,1,742.575,-15.270,28.761,552.499,0.513,1.186
1782117190.095160,0.497000,1636657,1000,12,0,1,740.773,-12.862,28.817,551.779,-0.991,1.181
1782117190.096160,0.498000,1636658,1000,12,0,1,741.638,-7.726,28.816,549.617,-2.099,1.173
1782117190.097160,0.499000,1636659,1000,12,0,1,742.023,-2.446,28.700,552.956,-0.090,1.133
1782117190.098160,0.500000,1636660,1000,12,0,1,743.512,2.275,28.461,554.205,2.446,1.184
1782117190.099160,0.501000,1636661,1000,12,0,1,745.866,7.812,28.081,552.379,0.038,1.178
1782117190.100160,0.502000,1636662,1000,12,0,1,745.626,9.699,27.735,552.812,0.126,1.176
1782117190.101160,0.503000,1636663,1000,12,0,1,740.221,6.410,27.500,553.388,0.989,1.184
1782117190.102160,0.504000,1636664,1000,12,0,1,734.120,1.207,27.242,553.196,0.430,1.185
1782117190.103160,0.505000,1636665,1000,12,0,1,730.661,-1.245,27.237,554.253,1.326,1.199
1782117190.104160,0.506000,1636666,1000,12,0,1,726.962,-3.850,26.819,554.613,1.485,1.217
1782117190.105160,0.507000,1636667,1000,12,0,1,724.343,-6.358,25.968,553.773,0.619,1.215
1782117190.106160,0.508000,1636668,1000,12,0,1,738.996,4.273,25.356,554.205,0.443,1.188
1782117190.107160,0.509000,1636669,1000,12,0,1,757.228,20.090,25.143,552.932,-0.212,1.188
1782117190.108160,0.510000,1636670,1000,12,0,1,756.267,16.024,25.067,551.779,-1.801,1.180
1782117190.109160,0.511000,1636671,1000,12,0,1,745.914,1.136,24.971,552.788,-0.636,1.153
1782117190.110160,0.512000,1636672,1000,12,0,1,743.632,-4.631,24.910,553.172,-0.053,1.102
1782117190.111160,0.513000,1636673,1000,12,0,1,743.920,-4.805,24.898,553.725,0.234,1.103
1782117190.112160,0.514000,1636674,1000,12,0,1,744.569,-4.774,24.874,551.899,-0.943,1.093
1782117190.113160,0.515000,1636675,1000,12,0,1,743.079,-4.839,24.523,551.106,-2.190,1.132
1782117190.114160,0.516000,1636676,1000,12,0,1,742.815,-4.183,23.844,553.124,-0.037,1.123
1782117190.115160,0.517000,1636677,1000,12,0,1,742.383,-1.845,22.281,553.508,0.652,1.126
1782117190.116160,0.518000,1636678,1000,12,0,1,741.254,-0.478,20.213,550.121,-2.192,1.158
1782117190.117160,0.519000,1636679,1000,12,0,1,740.870,1.889,20.054,549.929,-2.861,1.226
1782117190.118160,0.520000,1636680,1000,12,0,1,739.020,3.233,18.600,552.211,-0.055,1.217
1782117190.119160,0.521000,1636681,1000,12,0,1,734.336,1.502,13.591,552.908,0.820,1.222
1782117190.120160,0.522000,1636682,1000,12,0,1,731.766,1.092,9.712,553.893,1.381,1.237
1782117190.121160,0.523000,1636683,1000,12,0,1,728.931,0.924,8.526,551.731,-0.025,1.236
1782117190.122160,0.524000,1636684,1000,12,0,1,734.192,5.385,8.175,553.460,0.273,1.235
1782117190.123160,0.525000,1636685,1000,12,0,1,743.416,14.152,8.383,551.226,-0.067,1.234
1782117190.124160,0.526000,1636686,1000,12,0,1,745.193,14.085,8.616,549.353,-3.027,1.305
1782117190.125160,0.527000,1636687,1000,12,0,1,734.216,1.895,8.573,549.545,-1.708,1.325
1782117190.126160,0.528000,1636688,1000,12,0,1,725.616,-9.645,8.561,551.298,-0.255,1.321
1782117190.127160,0.529000,1636689,1000,12,0,1,734.648,-4.093,8.462,553.100,1.866,1.326
1782117190.128160,0.530000,1636690,1000,12,0,1,761.191,16.960,8.717,552.091,1.110,1.333
1782117190.129160,0.531000,1636691,1000,12,0,1,763.233,18.789,9.088,552.548,0.752,1.333
1782117190.130160,0.532000,1636692,1000,12,0,1,746.154,-3.362,9.081,553.628,2.117,1.344
1782117190.131160,0.533000,1636693,1000,12,0,1,734.048,-16.599,9.339,551.635,0.140,1.308
1782117190.132160,0.534000,1636694,1000,12,0,1,733.135,-17.223,9.588,552.812,0.495,1.294
1782117190.133160,0.535000,1636695,1000,12,0,1,740.173,-8.689,9.616,553.196,1.429,1.309
1782117190.134160,0.536000,1636696,1000,12,0,1,739.380,-5.305,9.578,553.124,0.704,1.302
1782117190.135160,0.537000,1636697,1000,12,0,1,729.580,-11.911,9.647,553.148,0.805,1.306
1782117190.136160,0.538000,1636698,1000,12,0,1,712.429,-21.943,10.067,552.091,-0.268,1.260
1782117190.137160,0.539000,1636699,1000,12,0,1,709.691,-21.408,10.480,553.845,0.726,1.223
1782117190.138160,0.540000,1636700,1000,12,0,1,704.983,-15.451,10.668,553.172,0.892,1.218
1782117190.139160,0.541000,1636701,1000,12,0,1,680.097,-30.411,11.456,554.133,0.537,1.207
1782117190.140160,0.542000,1636702,1000,12,0,1,670.105,-34.515,12.344,552.427,0.083,1.207
1782117190.141160,0.543000,1636703,1000,12,0,1,708.250,4.351,12.092,550.338,-2.708,1.257
1782117190.142160,0.544000,1636704,1000,12,0,1,770.055,62.838,14.846,552.067,-0.816,1.251
1782117190.143160,0.545000,1636705,1000,12,0,1,794.724,82.661,18.783,553.508,0.904,1.255
1782117190.144160,0.546000,1636706,1000,12,0,1,781.224,56.913,20.320,553.893,1.023,1.261
1782117190.145160,0.547000,1636707,1000,12,0,1,755.594,22.432,20.486,552.572,0.033,1.253
1782117190.146160,0.548000,1636708,1000,12,0,1,749.709,5.944,20.474,552.572,-0.588,1.221
1782117190.147160,0.549000,1636709,1000,12,0,1,766.524,15.923,20.594,551.226,-1.027,1.229
1782117190.148160,0.550000,1636710,1000,12,0,1,772.529,17.989,20.749,552.235,-0.904,1.186
1782117190.149160,0.551000,1636711,1000,12,0,1,763.329,3.370,20.725,553.628,1.146,1.197
1782117190.150160,0.552000,1636712,1000,12,0,1,753.384,-9.642,20.724,553.965,0.989,1.205
1782117190.151160,0.553000,1636713,1000,12,0,1,745.770,-17.655,20.854,554.013,0.981,1.205
1782117190.152160,0.554000,1636714,1000,12,0,1,749.781,-14.326,20.952,553.941,0.631,1.207
1782117190.153160,0.555000,1636715,1000,12,0,1,774.499,7.710,20.979,550.962,-1.755,1.218
1782117190.154160,0.556000,1636716,1000,12,0,1,784.107,19.652,21.156,548.920,-3.877,1.319
1782117190.155160,0.557000,1636717,1000,12,0,1,775.916,8.708,21.172,551.346,-1.455,1.332
1782117190.156160,0.558000,1636718,1000,12,0,1,771.256,2.715,21.167,553.028,0.916,1.337
1782117190.157160,0.559000,1636719,1000,12,0,1,771.304,2.554,20.979,551.923,-0.163,1.337
1782117190.158160,0.560000,1636720,1000,12,0,1,770.103,1.770,20.857,551.971,-0.304,1.313
1782117190.159160,0.561000,1636721,1000,12,0,1,769.166,0.575,20.857,552.668,0.483,1.312
1782117190.160160,0.562000,1636722,1000,12,0,1,768.277,-0.521,20.847,553.556,1.175,1.322
1782117190.161160,0.563000,1636723,1000,12,0,1,765.635,-3.324,20.841,552.620,0.510,1.324
1782117190.162160,0.564000,1636724,1000,12,0,1,766.115,-4.612,20.840,554.829,1.606,1.336
1782117190.163160,0.565000,1636725,1000,12,0,1,767.533,-4.030,20.837,554.589,2.168,1.336
1782117190.164160,0.566000,1636726,1000,12,0,1,766.692,-6.710,20.850,553.580,0.213,1.336
1782117190.165160,0.567000,1636727,1000,12,0,1,764.986,-10.030,20.897,552.980,-0.074,1.333
1782117190.166160,0.568000,1636728,1000,12,0,1,763.881,-12.804,20.975,554.013,0.373,1.297
1782117190.167160,0.569000,1636729,1000,12,0,1,760.014,-16.792,21.107,553.797,0.593,1.236
1782117190.168160,0.570000,1636730,1000,12,0,1,762.344,-16.427,21.230,551.947,-1.260,1.248
1782117190.169160,0.571000,1636731,1000,12,0,1,764.122,-13.311,21.312,551.443,-1.828,1.269
1782117190.170160,0.572000,1636732,1000,12,0,1,764.074,-13.653,21.399,554.061,0.593,1.257
1782117190.171160,0.573000,1636733,1000,12,0,1,762.536,-13.414,21.482,554.205,1.230,1.269
1782117190.172160,0.574000,1636734,1000,12,0,1,758.957,-14.835,21.571,552.788,-0.462,1.270
1782117190.173160,0.575000,1636735,1000,12,0,1,761.215,-11.035,21.535,554.061,0.311,1.271
1782117190.174160,0.576000,1636736,1000,12,0,1,760.639,-7.029,21.465,554.133,0.862,1.203
1782117190.175160,0.577000,1636737,1000,12,0,1,758.429,-6.940,21.486,553.725,-0.112,1.178
1782117190.176160,0.578000,1636738,1000,12,0,1,759.077,-2.809,21.446,552.764,-0.644,1.181
1782117190.177160,0.579000,1636739,1000,12,0,1,758.309,-0.334,21.439,551.346,-2.089,1.189
1782117190.178160,0.580000,1636740,1000,12,0,1,759.438,2.672,21.307,551.923,-1.464,1.197
1782117190.179160,0.581000,1636741,1000,12,0,1,760.350,5.783,21.157,551.851,-0.966,1.200
1782117190.180160,0.582000,1636742,1000,12,0,1,760.855,6.745,21.173,551.202,-1.531,1.182
1782117190.181160,0.583000,1636743,1000,12,0,1,759.317,5.987,21.060,550.962,-1.412,1.198
1782117190.182160,0.584000,1636744,1000,12,0,1,754.345,1.173,20.919,552.235,-0.253,1.197
1782117190.183160,0.585000,1636745,1000,12,0,1,748.772,-4.239,20.891,551.130,-0.498,1.182
1782117190.184160,0.586000,1636746,1000,12,0,1,746.827,-6.427,20.898,552.596,0.040,1.177
1782117190.185160,0.587000,1636747,1000,12,0,1,743.944,-8.296,20.863,552.548,1.029,1.181
1782117190.186160,0.588000,1636748,1000,12,0,1,747.499,-6.405,20.650,552.499,0.184,1.181
1782117190.187160,0.589000,1636749,1000,12,0,1,764.770,7.821,20.457,550.626,-0.724,1.181
1782117190.188160,0.590000,1636750,1000,12,0,1,772.649,15.029,20.451,551.226,-0.938,1.181
1782117190.189160,0.591000,1636751,1000,12,0,1,766.476,5.738,20.010,551.995,0.615,1.182
1782117190.190160,0.592000,1636752,1000,12,0,1,763.473,-0.148,19.406,551.971,0.352,1.183
1782117190.191160,0.593000,1636753,1000,12,0,1,765.875,1.115,19.396,553.580,1.594,1.142
1782117190.192160,0.594000,1636754,1000,12,0,1,764.938,0.675,17.241,554.373,2.510,1.190
1782117190.193160,0.595000,1636755,1000,12,0,1,763.809,-0.570,12.673,553.340,1.100,1.193
1782117190.194160,0.596000,1636756,1000,12,0,1,763.473,0.495,9.789,552.956,0.517,1.187
1782117190.195160,0.597000,1636757,1000,12,0,1,761.744,0.485,9.261,554.445,1.441,1.204
1782117190.196160,0.598000,1636758,1000,12,0,1,760.134,0.676,9.224,552.908,0.597,1.204
1782117190.197160,0.599000,1636759,1000,12,0,1,761.239,3.301,8.957,550.842,-1.962,1.227
1782117190.198160,0.600000,1636760,1000,12,0,1,760.927,4.989,8.617,552.788,-0.187,1.221
1782117190.199160,0.601000,1636761,1000,12,0,1,762.008,6.289,8.649,553.220,0.805,1.215
1782117190.200160,0.602000,1636762,1000,12,0,1,761.215,6.590,8.592,554.493,1.217,1.220
1782117190.201160,0.603000,1636763,1000,12,0,1,761.191,5.516,8.258,552.019,-0.146,1.212
1782117190.202160,0.604000,1636764,1000,12,0,1,762.080,5.763,8.047,552.451,-1.127,1.219
1782117190.203160,0.605000,1636765,1000,12,0,1,763.569,5.295,8.008,553.292,0.725,1.198
1782117190.204160,0.606000,1636766,1000,12,0,1,761.359,1.940,7.515,554.421,0.934,1.073
1782117190.205160,0.607000,1636767,1000,12,0,1,759.053,-2.760,7.424,554.301,1.239,1.068
1782117190.206160,0.608000,1636768,1000,12,0,1,758.357,-4.935,7.447,553.917,0.271,1.061
1782117190.207160,0.609000,1636769,1000,12,0,1,751.943,-10.997,7.599,553.244,-0.267,1.061
1782117190.208160,0.610000,1636770,1000,12,0,1,749.733,-14.782,7.877,553.532,-0.272,1.061
1782117190.209160,0.611000,1636771,1000,12,0,1,752.063,-11.285,8.037,554.613,0.644,1.063
1782117190.210160,0.612000,1636772,1000,12,0,1,756.339,-7.242,8.101,554.829,0.914,1.057
1782117190.211160,0.613000,1636773,1000,12,0,1,761.167,-1.833,8.092,553.532,-0.494,1.057
1782117190.212160,0.614000,1636774,1000,12,0,1,761.768,-0.452,8.066,553.340,-0.841,1.039
1782117190.213160,0.615000,1636775,1000,12,0,1,762.200,0.084,8.046,554.421,0.104,0.993
1782117190.214160,0.616000,1636776,1000,12,0,1,763.113,2.240,7.996,552.139,-1.315,1.010
1782117190.215160,0.617000,1636777,1000,12,0,1,763.041,3.222,7.882,552.259,-2.030,1.050
1782117190.216160,0.618000,1636778,1000,12,0,1,757.900,0.728,7.672,554.253,0.555,1.052
1782117190.217160,0.619000,1636779,1000,12,0,1,757.011,0.276,7.295,552.187,-0.983,1.057
1782117190.218160,0.620000,1636780,1000,12,0,1,760.158,5.481,6.959,552.764,-1.162,1.055
1782117190.219160,0.621000,1636781,1000,12,0,1,765.275,10.427,6.860,552.980,-0.006,1.023
1782117190.220160,0.622000,1636782,1000,12,0,1,758.477,6.320,6.643,554.061,0.265,1.020
1782117190.221160,0.623000,1636783,1000,12,0,1,745.842,-6.213,6.427,552.379,-0.302,1.006
1782117190.222160,0.624000,1636784,1000,12,0,1,755.979,0.848,6.076,553.797,-0.255,1.005
1782117190.223160,0.625000,1636785,1000,12,0,1,762.032,9.791,6.033,553.268,0.561,1.007
1782117190.224160,0.626000,1636786,1000,12,0,1,756.195,1.374,5.954,554.421,0.328,1.001
1782117190.225160,0.627000,1636787,1000,12,0,1,765.275,5.802,5.929,553.580,0.612,1.004
1782117190.226160,0.628000,1636788,1000,12,0,1,772.433,11.889,6.150,553.100,-0.757,1.006
1782117190.227160,0.629000,1636789,1000,12,0,1,764.698,1.699,6.155,553.917,0.325,0.962
1782117190.228160,0.630000,1636790,1000,12,0,1,749.157,-14.235,6.465,551.443,-1.434,0.962
1782117190.229160,0.631000,1636791,1000,12,0,1,741.590,-22.351,7.149,552.523,-1.388,0.972
1782117190.230160,0.632000,1636792,1000,12,0,1,735.057,-24.351,7.878,554.829,1.756,0.979
1782117190.231160,0.633000,1636793,1000,12,0,1,729.724,-26.461,8.680,553.436,0.267,0.960
1782117190.232160,0.634000,1636794,1000,12,0,1,747.475,-8.743,8.766,553.701,0.122,0.959
1782117190.233160,0.635000,1636795,1000,12,0,1,770.103,16.343,9.046,553.292,0.145,0.957
1782117190.234160,0.636000,1636796,1000,12,0,1,777.645,22.999,9.570,552.644,-0.701,0.962
1782117190.235160,0.637000,1636797,1000,12,0,1,767.028,12.931,9.672,553.749,0.308,0.952
1782117190.236160,0.638000,1636798,1000,12,0,1,759.798,3.275,9.641,553.148,0.179,0.952
1782117190.237160,0.639000,1636799,1000,12,0,1,754.970,1.143,9.579,551.539,-1.470,0.969
1782117190.238160,0.640000,1636800,1000,12,0,1,752.448,-0.908,9.341,552.451,-0.680,0.964
1782117190.239160,0.641000,1636801,1000,12,0,1,752.448,1.154,9.307,552.451,-0.097,0.961
1782117190.240160,0.642000,1636802,1000,12,0,1,775.171,18.800,9.679,553.845,0.650,0.964
1782117190.241160,0.643000,1636803,1000,12,0,1,762.608,14.344,9.888,553.701,1.124,0.950
1782117190.242160,0.644000,1636804,1000,12,0,1,754.633,-3.074,9.897,551.899,-0.914,0.891
1782117190.243160,0.645000,1636805,1000,12,0,1,755.474,1.778,9.900,553.941,0.511,0.880
1782117190.244160,0.646000,1636806,1000,12,0,1,755.258,-1.556,9.902,554.613,1.777,0.913
1782117190.245160,0.647000,1636807,1000,12,0,1,756.603,-0.534,9.902,550.842,-1.773,0.924
1782117190.246160,0.648000,1636808,1000,12,0,1,761.768,2.222,9.907,549.737,-3.139,1.022
1782117190.247160,0.649000,1636809,1000,12,0,1,754.994,-3.858,9.911,551.659,-0.841,0.991
1782117190.248160,0.650000,1636810,1000,12,0,1,747.187,-13.019,10.056,551.827,-0.104,0.990
1782117190.249160,0.651000,1636811,1000,12,0,1,737.339,-20.406,10.424,551.683,-0.385,0.985
1782117190.250160,0.652000,1636812,1000,12,0,1,737.002,-20.082,10.763,552.427,0.464,0.972
1782117190.251160,0.653000,1636813,1000,12,0,1,752.760,-4.349,10.753,554.469,2.076,1.015
1782117190.252160,0.654000,1636814,1000,12,0,1,761.960,7.685,10.777,553.148,1.356,1.021
1782117190.253160,0.655000,1636815,1000,12,0,1,767.244,9.910,10.842,552.980,0.204,1.016
1782117190.254160,0.656000,1636816,1000,12,0,1,762.416,7.560,10.891,552.956,0.725,1.013
1782117190.255160,0.657000,1636817,1000,12,0,1,763.281,4.502,10.902,552.740,0.103,0.998
1782117190.256160,0.658000,1636818,1000,12,0,1,774.667,15.806,11.107,551.899,-0.354,0.998
1782117190.257160,0.659000,1636819,1000,12,0,1,771.688,13.841,11.171,551.971,-0.529,1.000
1782117190.258160,0.660000,1636820,1000,12,0,1,760.951,2.144,10.978,550.866,-0.992,1.009
1782117190.259160,0.661000,1636821,1000,12,0,1,761.671,1.829,10.864,550.386,-1.575,1.030
1782117190.260160,0.662000,1636822,1000,12,0,1,775.363,13.641,10.986,550.698,-0.868,1.029
1782117190.261160,0.663000,1636823,1000,12,0,1,776.732,16.153,11.218,551.971,0.343,1.028
1782117190.262160,0.664000,1636824,1000,12,0,1,763.257,1.167,11.219,553.148,1.523,1.043
1782117190.263160,0.665000,1636825,1000,12,0,1,751.367,-10.950,11.326,551.899,0.566,1.046
1782117190.264160,0.666000,1636826,1000,12,0,1,756.363,-7.879,11.376,551.371,-0.475,1.032
1782117190.265160,0.667000,1636827,1000,12,0,1,773.418,7.734,11.419,551.346,-0.100,0.991
1782117190.266160,0.668000,1636828,1000,12,0,1,774.210,8.904,11.488,551.082,-0.481,0.990
1782117190.267160,0.669000,1636829,1000,12,0,1,770.511,0.410,11.488,552.812,0.970,0.990
1782117190.268160,0.670000,1636830,1000,12,0,1,768.061,-2.833,11.469,552.620,1.189,0.991
1782117190.269160,0.671000,1636831,1000,12,0,1,764.674,-7.943,11.429,552.932,0.764,0.997
1782117190.270160,0.672000,1636832,1000,12,0,1,768.734,-5.663,11.422,553.340,1.360,1.014
1782117190.271160,0.673000,1636833,1000,12,0,1,767.292,-5.542,11.415,552.427,0.281,1.014
1782117190.272160,0.674000,1636834,1000,12,0,1,764.290,-9.587,11.495,552.812,0.310,1.014
1782117190.273160,0.675000,1636835,1000,12,0,1,761.960,-9.839,11.496,552.812,0.558,1.014
1782117190.274160,0.676000,1636836,1000,12,0,1,758.597,-11.591,11.611,552.067,-0.323,1.014
1782117190.275160,0.677000,1636837,1000,12,0,1,760.543,-8.107,11.638,551.178,-0.955,1.020
1782117190.276160,0.678000,1636838,1000,12,0,1,761.816,-3.869,11.529,552.812,0.188,1.014
1782117190.277160,0.679000,1636839,1000,12,0,1,758.237,-5.030,11.548,552.884,0.936,1.022
1782117190.278160,0.680000,1636840,1000,12,0,1,758.309,-3.608,11.383,554.157,1.222,1.016
1782117190.279160,0.681000,1636841,1000,12,0,1,761.888,1.683,10.938,556.343,3.327,1.103
1782117190.280160,0.682000,1636842,1000,12,0,1,766.956,7.015,10.429,553.436,0.751,1.080
1782117190.281160,0.683000,1636843,1000,12,0,1,763.161,5.055,9.761,551.298,-2.163,1.121
1782117190.282160,0.684000,1636844,1000,12,0,1,763.857,3.250,9.693,551.419,-1.575,1.143
1782117190.283160,0.685000,1636845,1000,12,0,1,758.357,0.541,9.414,552.980,-0.325,1.144
1782117190.284160,0.686000,1636846,1000,12,0,1,740.629,-15.533,9.103,553.436,0.577,1.143
1782117190.285160,0.687000,1636847,1000,12,0,1,715.744,-34.895,10.192,552.860,-0.279,1.142
1782117190.286160,0.688000,1636848,1000,12,0,1,718.338,-32.025,11.143,552.187,-0.809,1.148
1782117190.287160,0.689000,1636849,1000,12,0,1,719.275,-21.034,11.532,552.259,-0.851,1.135
1782117190.288160,0.690000,1636850,1000,12,0,1,704.070,-30.906,12.332,553.532,0.300,1.132
1782117190.289160,0.691000,1636851,1000,12,0,1,712.141,-21.929,12.715,552.860,0.048,1.132
1782117190.290160,0.692000,1636852,1000,12,0,1,753.216,18.196,12.697,554.133,0.425,1.130
1782117190.291160,0.693000,1636853,1000,12,0,1,778.006,43.230,13.946,554.493,1.353,1.135
1782117190.292160,0.694000,1636854,1000,12,0,1,783.290,41.392,15.118,552.259,-1.028,1.137
1782117190.293160,0.695000,1636855,1000,12,0,1,783.819,35.447,15.926,552.307,-1.256,1.148
1782117190.294160,0.696000,1636856,1000,12,0,1,778.342,25.439,16.326,551.875,-1.001,1.129
1782117190.295160,0.697000,1636857,1000,12,0,1,768.565,12.203,16.416,551.971,-1.169,1.113
1782117190.296160,0.698000,1636858,1000,12,0,1,760.062,2.778,16.418,551.539,-0.890,1.029
1782117190.297160,0.699000,1636859,1000,12,0,1,758.645,0.441,16.409,551.539,-1.076,1.033
1782117190.298160,0.700000,1636860,1000,12,0,1,766.211,7.808,16.343,553.340,0.760,1.039
1782117190.299160,0.701000,1636861,1000,12,0,1,773.898,14.966,16.225,553.268,1.030,1.048
1782117190.300160,0.702000,1636862,1000,12,0,1,779.687,18.679,16.191,550.218,-1.702,1.073
1782117190.301160,0.703000,1636863,1000,12,0,1,779.014,16.453,16.346,552.523,-0.384,1.033
1782117190.302160,0.704000,1636864,1000,12,0,1,778.654,12.474,16.405,554.013,2.064,1.056
1782117190.303160,0.705000,1636865,1000,12,0,1,773.418,6.542,16.371,552.499,0.168,1.056
1782117190.304160,0.706000,1636866,1000,12,0,1,767.965,-1.577,16.338,552.307,-0.233,1.052
1782117190.305160,0.707000,1636867,1000,12,0,1,766.187,-4.343,16.337,552.692,0.242,1.052
1782117190.306160,0.708000,1636868,1000,12,0,1,761.864,-8.748,16.230,554.493,1.451,1.071
1782117190.307160,0.709000,1636869,1000,12,0,1,751.319,-18.287,16.318,553.532,1.106,1.080
1782117190.308160,0.710000,1636870,1000,12,0,1,745.385,-23.855,16.660,552.331,-0.817,1.077
1782117190.309160,0.711000,1636871,1000,12,0,1,748.820,-19.363,16.882,552.187,-0.594,1.057
1782117190.310160,0.712000,1636872,1000,12,0,1,743.800,-20.063,17.010,551.226,-1.378,1.068
1782117190.311160,0.713000,1636873,1000,12,0,1,732.534,-28.875,17.343,551.346,-1.237,1.081
1782117190.312160,0.714000,1636874,1000,12,0,1,726.001,-31.065,17.890,553.941,1.139,1.071
1782117190.313160,0.715000,1636875,1000,12,0,1,709.114,-38.924,18.654,553.508,1.313,1.084
1782117190.314160,0.716000,1636876,1000,12,0,1,704.742,-39.393,19.436,553.412,0.428,1.084
1782117190.315160,0.717000,1636877,1000,12,0,1,725.088,-13.815,19.503,553.340,0.717,1.088
1782117190.316160,0.718000,1636878,1000,12,0,1,750.478,14.367,19.568,552.163,-0.531,1.089
1782117190.317160,0.719000,1636879,1000,12,0,1,756.027,22.552,19.826,554.229,0.859,1.087
1782117190.318160,0.720000,1636880,1000,12,0,1,748.628,14.193,19.924,553.701,1.198,1.087
1782117190.319160,0.721000,1636881,1000,12,0,1,749.229,13.016,19.977,552.403,-0.831,1.088
1782117190.320160,0.722000,1636882,1000,12,0,1,760.470,22.624,20.216,551.995,-0.790,1.077
1782117190.321160,0.723000,1636883,1000,12,0,1,759.750,22.608,20.452,551.419,-1.350,1.093
1782117190.322160,0.724000,1636884,1000,12,0,1,761.912,19.812,20.599,553.148,0.117,1.092
1782117190.323160,0.725000,1636885,1000,12,0,1,756.699,15.891,20.674,553.532,0.970,1.098
1782117190.324160,0.726000,1636886,1000,12,0,1,723.839,-13.143,20.693,551.827,-0.829,1.103
1782117190.325160,0.727000,1636887,1000,12,0,1,706.064,-31.501,21.136,553.701,0.373,1.096
1782117190.326160,0.728000,1636888,1000,12,0,1,740.509,0.779,21.129,554.205,1.459,1.115
1782117190.327160,0.729000,1636889,1000,12,0,1,767.917,31.742,21.589,550.626,-1.901,1.140
1782117190.328160,0.730000,1636890,1000,12,0,1,747.860,12.407,21.654,551.371,-1.898,1.158
1782117190.329160,0.731000,1636891,1000,12,0,1,727.778,-12.302,21.722,552.932,0.480,1.060
1782117190.330160,0.732000,1636892,1000,12,0,1,715.504,-20.448,21.891,552.067,-0.398,1.056
1782117190.331160,0.733000,1636893,1000,12,0,1,702.316,-30.168,22.292,550.986,-1.269,1.027
1782117190.332160,0.734000,1636894,1000,12,0,1,669.840,-50.353,23.397,552.908,0.210,1.003
1782117190.333160,0.735000,1636895,1000,12,0,1,633.833,-75.897,25.742,553.148,1.137,1.015
1782117190.334160,0.736000,1636896,1000,12,0,1,609.380,-83.441,28.232,550.362,-1.501,1.033
1782117190.335160,0.737000,1636897,1000,12,0,1,604.432,-72.921,29.649,550.746,-1.496,1.054
1782117190.336160,0.738000,1636898,1000,12,0,1,604.432,-54.494,30.297,550.746,-0.533,1.051
1782117190.337160,0.739000,1636899,1000,12,0,1,647.381,-8.784,30.176,553.028,0.838,1.050
1782117190.338160,0.740000,1636900,1000,12,0,1,727.178,70.669,31.486,554.685,3.062,1.135
1782117190.339160,0.741000,1636901,1000,12,0,1,787.133,122.295,35.790,556.319,3.498,1.238
1782117190.340160,0.742000,1636902,1000,12,0,1,780.480,106.519,38.745,556.295,3.507,1.333
1782117190.341160,0.743000,1636903,1000,12,0,1,776.877,79.623,39.883,553.845,0.584,1.322
1782117190.342160,0.744000,1636904,1000,12,0,1,779.231,72.336,40.755,551.539,-1.806,1.338
1782117190.343160,0.745000,1636905,1000,12,0,1,777.909,56.837,41.237,552.403,-1.217,1.337
1782117190.344160,0.746000,1636906,1000,12,0,1,788.166,54.310,41.792,551.899,-0.964,1.337
1782117190.345160,0.747000,1636907,1000,12,0,1,827.608,75.951,43.115,551.995,-1.212,1.338
1782117190.346160,0.748000,1636908,1000,12,0,1,860.613,94.628,45.143,552.475,-0.338,1.333
1782117190.347160,0.749000,1636909,1000,12,0,1,847.209,68.973,46.184,551.923,-0.719,1.328
1782117190.348160,0.750000,1636910,1000,12,0,1,823.357,28.233,46.344,552.451,-0.414,1.325
1782117190.349160,0.751000,1636911,1000,12,0,1,812.884,9.560,46.315,554.733,1.697,1.338
1782117190.350160,0.752000,1636912,1000,12,0,1,817.952,5.070,46.245,553.845,1.158,1.327
1782117190.351160,0.753000,1636913,1000,12,0,1,816.895,1.813,46.187,552.475,-0.669,1.329
1782117190.352160,0.754000,1636914,1000,12,0,1,810.121,-11.180,46.181,554.493,0.855,1.302
1782117190.353160,0.755000,1636915,1000,12,0,1,809.449,-15.372,46.223,554.421,1.312,1.315
1782117190.354160,0.756000,1636916,1000,12,0,1,805.317,-21.074,46.318,551.899,-1.397,1.329
1782117190.355160,0.757000,1636917,1000,12,0,1,798.639,-29.680,46.504,551.707,-1.713,1.351
1782117190.356160,0.758000,1636918,1000,12,0,1,795.541,-33.439,46.727,554.829,1.078,1.344
1782117190.357160,0.759000,1636919,1000,12,0,1,792.610,-35.992,46.932,553.797,0.937,1.341
1782117190.358160,0.760000,1636920,1000,12,0,1,782.954,-42.977,47.204,554.061,-0.020,1.336
1782117190.359160,0.761000,1636921,1000,12,0,1,787.350,-40.267,47.467,553.100,0.016,1.334
1782117190.360160,0.762000,1636922,1000,12,0,1,798.279,-26.612,47.532,552.331,-1.409,1.334
1782117190.361160,0.763000,1636923,1000,12,0,1,793.115,-29.106,47.534,551.515,-1.467,1.339
1782117190.362160,0.764000,1636924,1000,12,0,1,788.623,-33.591,47.569,552.211,-1.100,1.338
1782117190.363160,0.765000,1636925,1000,12,0,1,782.209,-34.826,47.505,551.467,-0.978,1.333
1782117190.364160,0.766000,1636926,1000,12,0,1,770.487,-41.802,47.546,551.923,-0.933,1.338
1782117190.365160,0.767000,1636927,1000,12,0,1,779.951,-30.560,47.702,552.427,0.078,1.334
1782117190.366160,0.768000,1636928,1000,12,0,1,794.027,-10.454,47.682,553.869,1.071,1.340
1782117190.367160,0.769000,1636929,1000,12,0,1,791.049,-9.164,47.593,553.292,0.926,1.341
1782117190.368160,0.770000,1636930,1000,12,0,1,781.825,-15.147,47.599,554.085,0.896,1.337
1782117190.369160,0.771000,1636931,1000,12,0,1,774.186,-18.035,47.631,554.157,1.290,1.344
1782117190.370160,0.772000,1636932,1000,12,0,1,772.072,-15.892,47.577,553.076,-0.046,1.339
1782117190.371160,0.773000,1636933,1000,12,0,1,767.412,-14.003,47.511,553.508,0.034,1.326
1782117190.372160,0.774000,1636934,1000,12,0,1,759.486,-16.902,47.488,555.118,1.536,1.343
1782117190.373160,0.775000,1636935,1000,12,0,1,755.114,-16.192,47.490,553.268,0.069,1.336
1782117190.374160,0.776000,1636936,1000,12,0,1,754.681,-12.021,47.484,553.725,-0.354,1.332
1782117190.375160,0.777000,1636937,1000,12,0,1,751.511,-10.260,47.297,552.980,-0.223,1.331
1782117190.376160,0.778000,1636938,1000,12,0,1,750.454,-8.795,47.313,552.788,-1.003,1.323
1782117190.377160,0.779000,1636939,1000,12,0,1,752.159,-4.321,47.104,552.596,-0.593,1.298
1782117190.378160,0.780000,1636940,1000,12,0,1,742.815,-9.136,47.089,552.379,-0.895,1.276
1782117190.379160,0.781000,1636941,1000,12,0,1,738.876,-12.829,47.092,554.589,0.958,1.281
1782117190.380160,0.782000,1636942,1000,12,0,1,739.524,-8.015,47.017,552.644,0.121,1.280
1782117190.381160,0.783000,1636943,1000,12,0,1,740.245,-5.663,46.829,551.803,-1.731,1.291
1782117190.382160,0.784000,1636944,1000,12,0,1,741.854,-1.634,46.285,550.770,-1.497,1.308
1782117190.383160,0.785000,1636945,1000,12,0,1,729.244,-8.773,45.041,551.587,-1.407,1.313
1782117190.384160,0.786000,1636946,1000,12,0,1,718.242,-17.463,43.538,551.947,-0.037,1.296
1782117190.385160,0.787000,1636947,1000,12,0,1,723.238,-8.296,42.315,550.506,-1.474,1.295
1782117190.386160,0.788000,1636948,1000,12,0,1,731.261,4.205,41.611,552.451,0.032,1.293
1782117190.387160,0.789000,1636949,1000,12,0,1,712.477,-5.385,41.600,552.259,0.789,1.293
1782117190.388160,0.790000,1636950,1000,12,0,1,671.786,-36.840,40.716,552.523,0.114,1.218
1782117190.389160,0.791000,1636951,1000,12,0,1,667.871,-36.359,37.217,552.860,1.026,1.123
1782117190.390160,0.792000,1636952,1000,12,0,1,712.765,13.115,34.083,552.932,0.536,1.010
1782117190.391160,0.793000,1636953,1000,12,0,1,770.919,69.371,33.632,551.130,-0.589,1.010
1782117190.392160,0.794000,1636954,1000,12,0,1,774.931,74.843,33.741,552.403,-0.270,0.978
1782117190.393160,0.795000,1636955,1000,12,0,1,761.239,48.076,33.468,550.722,-0.485,0.965
1782117190.394160,0.796000,1636956,1000,12,0,1,745.506,30.368,32.856,551.082,-1.233,0.971
1782117190.395160,0.797000,1636957,1000,12,0,1,745.458,21.139,31.195,550.338,-0.563,0.959
1782117190.396160,0.798000,1636958,1000,12,0,1,769.622,38.788,28.707,551.130,-0.577,0.961
1782117190.397160,0.799000,1636959,1000,12,0,1,794.892,55.779,28.128,552.259,1.217,0.971
1782117190.398160,0.800000,1636960,1000,12,0,1,812.091,60.655,29.135,552.091,0.932,0.979
1782117190.399160,0.801000,1636961,1000,12,0,1,824.774,60.201,30.323,552.139,0.782,0.955
1782117190.400160,0.802000,1636962,1000,12,0,1,806.110,34.388,30.702,550.338,-0.370,0.942
1782117190.401160,0.803000,1636963,1000,12,0,1,779.735,-1.319,30.702,549.761,-1.457,0.960
1782117190.402160,0.804000,1636964,1000,12,0,1,767.725,-16.628,30.751,551.371,0.541,0.955
1782117190.403160,0.805000,1636965,1000,12,0,1,758.765,-24.047,30.862,551.899,1.048,0.949
1782117190.404160,0.806000,1636966,1000,12,0,1,747.715,-32.424,31.058,551.587,0.755,0.934
1782117190.405160,0.807000,1636967,1000,12,0,1,745.914,-31.190,31.088,553.773,2.090,0.949
1782117190.406160,0.808000,1636968,1000,12,0,1,752.688,-21.063,30.870,550.674,0.274,0.938
1782117190.407160,0.809000,1636969,1000,12,0,1,748.941,-18.708,30.562,553.004,0.307,0.930
1782117190.408160,0.810000,1636970,1000,12,0,1,752.688,-15.573,30.033,552.812,1.989,0.971
1782117190.409160,0.811000,1636971,1000,12,0,1,758.741,-5.332,29.497,551.419,-0.821,0.978
1782117190.410160,0.812000,1636972,1000,12,0,1,765.395,-0.159,29.256,551.298,-0.334,0.959
1782117190.411160,0.813000,1636973,1000,12,0,1,769.694,4.747,28.973,553.436,1.028,0.947
1782117190.412160,0.814000,1636974,1000,12,0,1,770.823,3.715,28.586,553.989,1.951,0.974
1782117190.413160,0.815000,1636975,1000,12,0,1,778.942,8.023,28.181,552.115,-0.028,0.964
1782117190.414160,0.816000,1636976,1000,12,0,1,790.905,16.294,27.650,550.410,-1.840,0.990
1782117190.415160,0.817000,1636977,1000,12,0,1,787.013,10.384,27.350,551.346,-0.861,0.998
1782117190.416160,0.818000,1636978,1000,12,0,1,785.812,2.887,27.313,553.124,0.866,0.994
1782117190.417160,0.819000,1636979,1000,12,0,1,783.482,-0.212,27.282,550.722,-0.573,0.988
1782117190.418160,0.820000,1636980,1000,12,0,1,778.366,-7.749,27.220,548.440,-3.263,1.083
1782117190.419160,0.821000,1636981,1000,12,0,1,773.778,-12.225,27.155,550.073,-1.282,1.083
1782117190.420160,0.822000,1636982,1000,12,0,1,769.574,-15.449,27.150,551.779,0.678,1.087
1782117190.421160,0.823000,1636983,1000,12,0,1,771.352,-13.268,27.143,551.371,0.537,1.090
1782117190.422160,0.824000,1636984,1000,12,0,1,777.477,-5.584,27.049,551.539,0.301,1.069
1782117190.423160,0.825000,1636985,1000,12,0,1,785.764,2.195,26.954,553.917,2.257,1.115
1782117190.424160,0.826000,1636986,1000,12,0,1,778.366,-1.459,26.901,552.451,1.340,1.130
1782117190.425160,0.827000,1636987,1000,12,0,1,761.551,-17.169,26.971,551.563,-0.526,1.132
1782117190.426160,0.828000,1636988,1000,12,0,1,755.354,-20.683,27.101,551.587,-0.083,1.123
1782117190.427160,0.829000,1636989,1000,12,0,1,749.637,-20.478,27.248,552.644,0.386,1.122
1782117190.428160,0.830000,1636990,1000,12,0,1,738.468,-26.014,27.465,551.443,-0.125,1.115
1782117190.429160,0.831000,1636991,1000,12,0,1,726.673,-31.143,27.757,551.659,-0.698,1.111
1782117190.430160,0.832000,1636992,1000,12,0,1,718.002,-32.948,28.122,553.292,1.137,1.122
1782117190.431160,0.833000,1636993,1000,12,0,1,722.518,-23.662,28.309,552.475,0.505,1.098
1782117190.432160,0.834000,1636994,1000,12,0,1,733.832,-7.561,28.329,551.371,-0.870,1.084
1782117190.433160,0.835000,1636995,1000,12,0,1,729.099,-6.576,28.317,552.019,-0.190,1.066
1782117190.434160,0.836000,1636996,1000,12,0,1,719.035,-14.734,28.286,553.292,0.943,1.074
1782117190.435160,0.837000,1636997,1000,12,0,1,726.793,-6.427,28.276,552.523,0.558,1.057
1782117190.436160,0.838000,1636998,1000,12,0,1,746.707,13.613,28.335,551.779,-0.572,1.060
1782117190.437160,0.839000,1636999,1000,12,0,1,747.259,16.497,28.421,552.163,-0.030,1.054
1782117190.438160,0.840000,1637000,1000,12,0,1,729.532,-1.157,27.940,553.052,0.665,1.058
1782117190.439160,0.841000,1637001,1000,12,0,1,714.207,-14.628,27.540,554.661,1.967,1.084
1782117190.440160,0.842000,1637002,1000,12,0,1,713.318,-13.005,27.539,552.403,0.273,1.082
1782117190.441160,0.843000,1637003,1000,12,0,1,727.418,3.102,25.736,552.259,-0.939,1.087
1782117190.442160,0.844000,1637004,1000,12,0,1,721.845,4.912,23.469,553.701,0.900,1.094
1782117190.443160,0.845000,1637005,1000,12,0,1,708.562,-7.212,22.486,552.980,0.103,1.092
1782117190.444160,0.846000,1637006,1000,12,0,1,709.042,-3.079,22.076,553.797,0.315,1.079
1782117190.445160,0.847000,1637007,1000,12,0,1,707.841,1.201,21.874,552.908,-0.006,1.076
1782117190.446160,0.848000,1637008,1000,12,0,1,727.370,17.660,21.322,553.821,-0.135,1.073
1782117190.447160,0.849000,1637009,1000,12,0,1,766.091,53.435,21.201,551.611,-1.036,1.069
1782117190.448160,0.850000,1637010,1000,12,0,1,805.101,82.018,22.593,550.242,-3.229,1.155
1782117190.449160,0.851000,1637011,1000,12,0,1,813.004,81.604,23.899,550.578,-1.990,1.184
1782117190.450160,0.852000,1637012,1000,12,0,1,797.102,52.591,24.552,550.121,-2.140,1.221
1782117190.451160,0.853000,1637013,1000,12,0,1,773.418,21.411,24.737,550.506,-1.548,1.223
1782117190.452160,0.854000,1637014,1000,12,0,1,760.567,1.287,24.626,550.674,-0.812,1.226
1782117190.453160,0.855000,1637015,1000,12,0,1,751.631,-8.306,24.418,552.836,0.796,1.222
1782117190.454160,0.856000,1637016,1000,12,0,1,746.106,-15.392,24.083,553.412,2.040,1.251
1782117190.455160,0.857000,1637017,1000,12,0,1,743.152,-17.332,23.802,552.139,0.326,1.217
1782117190.456160,0.858000,1637018,1000,12,0,1,739.741,-19.226,23.771,552.788,0.738,1.220
1782117190.457160,0.859000,1637019,1000,12,0,1,735.297,-21.676,23.821,551.371,-0.109,1.220
1782117190.458160,0.860000,1637020,1000,12,0,1,709.763,-38.429,24.334,551.467,-0.656,1.191
1782117190.459160,0.861000,1637021,1000,12,0,1,669.961,-69.309,26.223,551.539,0.099,1.185
1782117190.460160,0.862000,1637022,1000,12,0,1,652.377,-76.583,28.371,552.139,0.203,1.184
1782117190.461160,0.863000,1637023,1000,12,0,1,668.111,-50.704,29.256,550.290,-0.714,1.180
1782117190.462160,0.864000,1637024,1000,12,0,1,679.088,-26.220,29.485,551.659,-0.422,1.149
1782117190.463160,0.865000,1637025,1000,12,0,1,694.774,-8.129,29.486,553.172,1.840,1.178
1782117190.464160,0.866000,1637026,1000,12,0,1,708.201,11.100,29.437,552.043,0.490,1.151
1782117190.465160,0.867000,1637027,1000,12,0,1,724.656,24.184,29.599,552.860,0.719,1.149
1782117190.466160,0.868000,1637028,1000,12,0,1,719.395,22.918,29.773,552.788,1.086,1.152
1782117190.467160,0.869000,1637029,1000,12,0,1,709.715,8.792,29.799,550.482,-1.298,1.164
1782117190.468160,0.870000,1637030,1000,12,0,1,753.961,41.450,30.350,552.451,0.012,1.069
1782117190.469160,0.871000,1637031,1000,12,0,1,793.955,79.088,32.299,552.836,1.172,1.066
1782117190.470160,0.872000,1637032,1000,12,0,1,790.640,64.926,33.508,551.587,-0.468,1.064
1782117190.471160,0.873000,1637033,1000,12,0,1,774.595,38.939,33.906,550.890,-0.955,1.070
1782117190.472160,0.874000,1637034,1000,12,0,1,779.495,31.712,34.192,552.355,0.170,1.069
1782117190.473160,0.875000,1637035,1000,12,0,1,769.094,21.488,34.325,555.838,3.221,1.118
1782117190.474160,0.876000,1637036,1000,12,0,1,752.424,-1.684,34.325,554.853,2.687,1.165
1782117190.475160,0.877000,1637037,1000,12,0,1,749.397,-5.511,34.248,553.100,-0.048,1.163
1782117190.476160,0.878000,1637038,1000,12,0,1,745.626,-7.905,34.141,551.130,-1.390,1.179
1782117190.477160,0.879000,1637039,1000,12,0,1,729.099,-20.772,34.145,552.499,-0.907,1.185
1782117190.478160,0.880000,1637040,1000,12,0,1,720.884,-27.459,34.168,553.148,0.653,1.188
1782117190.479160,0.881000,1637041,1000,12,0,1,722.590,-21.557,34.019,555.262,1.589,1.205
1782117190.480160,0.882000,1637042,1000,12,0,1,721.605,-18.077,33.796,551.731,-0.366,1.196
1782117190.481160,0.883000,1637043,1000,12,0,1,735.297,-6.329,33.641,551.923,-1.992,1.226
1782117190.482160,0.884000,1637044,1000,12,0,1,728.763,-5.379,33.633,553.172,0.515,1.222
1782117190.483160,0.885000,1637045,1000,12,0,1,693.573,-37.186,34.029,552.211,-0.751,1.227
1782117190.484160,0.886000,1637046,1000,12,0,1,642.073,-75.946,35.623,552.067,-0.911,1.226
1782117190.485160,0.887000,1637047,1000,12,0,1,608.468,-98.383,38.233,551.563,-0.964,1.231
1782117190.486160,0.888000,1637048,1000,12,0,1,623.192,-71.865,39.514,551.178,-1.521,1.247
1782117190.487160,0.889000,1637049,1000,12,0,1,679.737,-9.006,39.465,551.034,-1.108,1.257
1782117190.488160,0.890000,1637050,1000,12,0,1,711.132,30.511,39.700,551.491,-0.879,1.260
1782117190.489160,0.891000,1637051,1000,12,0,1,719.491,33.901,39.935,552.139,0.160,1.229
1782117190.490160,0.892000,1637052,1000,12,0,1,730.661,39.740,40.287,553.989,1.382,1.244
1782117190.491160,0.893000,1637053,1000,12,0,1,745.986,47.954,40.851,552.475,0.707,1.241
1782117190.492160,0.894000,1637054,1000,12,0,1,773.682,63.788,41.830,553.148,0.079,1.234
1782117190.493160,0.895000,1637055,1000,12,0,1,806.446,84.414,43.488,554.661,2.082,1.269
1782117190.494160,0.896000,1637056,1000,12,0,1,807.911,76.098,44.797,552.668,0.093,1.268
1782117190.495160,0.897000,1637057,1000,12,0,1,779.062,38.182,45.121,551.587,-1.332,1.282
1782117190.496160,0.898000,1637058,1000,12,0,1,757.084,8.267,45.067,550.962,-1.379,1.296
1782117190.497160,0.899000,1637059,1000,12,0,1,764.026,10.092,44.452,553.965,0.730,1.292
1782117190.498160,0.900000,1637060,1000,12,0,1,786.437,28.253,43.098,552.692,0.962,1.217
1782117190.499160,0.901000,1637061,1000,12,0,1,816.631,49.619,42.113,550.410,-2.184,1.223
1782117190.500160,0.902000,1637062,1000,12,0,1,823.885,51.277,42.080,551.419,-0.785,1.190
1782117190.501160,0.903000,1637063,1000,12,0,1,812.836,29.755,42.182,552.620,0.515,1.172
1782117190.502160,0.904000,1637064,1000,12,0,1,796.501,7.447,42.194,553.773,1.461,1.185
1782117190.503160,0.905000,1637065,1000,12,0,1,782.137,-11.811,42.211,553.893,1.620,1.201
1782117190.504160,0.906000,1637066,1000,12,0,1,756.675,-34.856,42.442,553.460,0.769,1.171
1782117190.505160,0.907000,1637067,1000,12,0,1,730.132,-59.157,43.189,552.788,0.167,1.171
1782117190.506160,0.908000,1637068,1000,12,0,1,698.665,-80.033,44.565,551.851,-0.874,1.173
1782117190.507160,0.909000,1637069,1000,12,0,1,672.363,-95.977,46.485,553.028,0.004,1.172
1782117190.508160,0.910000,1637070,1000,12,0,1,640.103,-108.980,48.671,553.412,0.677,1.173
1782117190.509160,0.911000,1637071,1000,12,0,1,619.950,-113.710,50.313,552.692,-0.228,1.173
1782117190.510160,0.912000,1637072,1000,12,0,1,635.251,-83.820,50.543,552.596,-0.405,1.174
1782117190.511160,0.913000,1637073,1000,12,0,1,682.836,-27.270,50.180,552.331,-0.510,1.172
1782117190.512160,0.914000,1637074,1000,12,0,1,740.485,31.803,50.245,551.947,-0.871,1.177
1782117190.513160,0.915000,1637075,1000,12,0,1,794.219,77.846,51.424,553.580,0.455,1.150
1782117190.514160,0.916000,1637076,1000,12,0,1,809.737,85.575,52.806,553.556,0.883,1.154
1782117190.515160,0.917000,1637077,1000,12,0,1,789.776,54.879,53.263,553.028,-0.062,1.150
1782117190.516160,0.918000,1637078,1000,12,0,1,759.750,18.426,53.228,552.355,-0.436,1.141
1782117190.517160,0.919000,1637079,1000,12,0,1,756.747,8.567,53.228,553.484,0.206,1.127
1782117190.518160,0.920000,1637080,1000,12,0,1,777.885,27.069,53.042,553.893,1.009,1.136
1782117190.519160,0.921000,1637081,1000,12,0,1,791.938,39.317,52.147,553.220,0.108,1.124
1782117190.520160,0.922000,1637082,1000,12,0,1,795.493,37.701,51.608,553.340,0.084,1.122
1782117190.521160,0.923000,1637083,1000,12,0,1,793.643,32.142,51.514,553.676,0.447,1.115
1782117190.522160,0.924000,1637084,1000,12,0,1,793.379,26.403,51.455,553.989,0.541,1.118
1782117190.523160,0.925000,1637085,1000,12,0,1,803.035,30.257,51.543,551.250,-1.441,1.041
1782117190.524160,0.926000,1637086,1000,12,0,1,807.959,30.747,51.725,551.154,-2.289,1.022
1782117190.525160,0.927000,1637087,1000,12,0,1,795.348,14.454,51.760,552.403,-0.260,1.022
1782117190.526160,0.928000,1637088,1000,12,0,1,770.487,-12.520,51.778,554.397,1.124,1.016
1782117190.527160,0.929000,1637089,1000,12,0,1,740.053,-40.740,52.015,552.499,0.196,1.008
1782117190.528160,0.930000,1637090,1000,12,0,1,723.431,-55.145,52.452,551.058,-1.993,1.043
1782117190.529160,0.931000,1637091,1000,12,0,1,712.717,-57.611,52.994,553.268,0.229,1.019
1782117190.530160,0.932000,1637092,1000,12,0,1,702.821,-60.717,53.624,554.829,1.896,1.052
1782117190.531160,0.933000,1637093,1000,12,0,1,707.217,-50.963,54.099,554.013,0.925,1.022
1782117190.532160,0.934000,1637094,1000,12,0,1,725.881,-28.301,54.241,553.268,-0.038,1.019
1782117190.533160,0.935000,1637095,1000,12,0,1,752.664,-1.633,53.986,552.860,-0.485,1.016
1782117190.534160,0.936000,1637096,1000,12,0,1,767.869,13.715,52.943,553.292,-0.118,1.008
1782117190.535160,0.937000,1637097,1000,12,0,1,762.560,6.825,51.091,553.004,-0.196,0.999
1782117190.536160,0.938000,1637098,1000,12,0,1,768.926,7.318,50.080,552.740,-0.512,0.979
1782117190.537160,0.939000,1637099,1000,12,0,1,766.524,8.084,50.077,553.845,0.416,0.968
1782117190.538160,0.940000,1637100,1000,12,0,1,757.660,-2.491,49.892,554.349,1.098,0.972
1782117190.539160,0.941000,1637101,1000,12,0,1,738.708,-14.485,49.704,554.157,0.647,0.976
1782117190.540160,0.942000,1637102,1000,12,0,1,736.762,-16.190,49.438,553.797,0.307,0.957
1782117190.541160,0.943000,1637103,1000,12,0,1,737.291,-6.076,48.978,553.052,-0.440,0.954
1782117190.542160,0.944000,1637104,1000,12,0,1,738.035,-2.380,48.141,549.977,-2.749,1.030
1782117190.543160,0.945000,1637105,1000,12,0,1,763.641,22.161,46.743,550.722,-2.584,1.053
1782117190.544160,0.946000,1637106,1000,12,0,1,782.810,43.514,45.902,553.388,0.747,1.058
1782117190.545160,0.947000,1637107,1000,12,0,1,772.769,31.279,45.797,554.589,1.745,1.070
1782117190.546160,0.948000,1637108,1000,12,0,1,765.034,18.290,45.855,554.181,1.301,1.068
1782117190.547160,0.949000,1637109,1000,12,0,1,779.927,26.141,45.982,552.980,-0.057,1.063
1782117190.548160,0.950000,1637110,1000,12,0,1,785.260,29.487,45.997,552.668,-0.584,1.057
1782117190.549160,0.951000,1637111,1000,12,0,1,768.013,7.504,45.471,553.749,0.390,1.013
1782117190.550160,0.952000,1637112,1000,12,0,1,748.580,-15.024,44.939,552.932,-0.093,1.007
1782117190.551160,0.953000,1637113,1000,12,0,1,746.587,-20.281,44.834,553.989,0.232,1.005
1782117190.552160,0.954000,1637114,1000,12,0,1,754.033,-12.967,44.859,554.709,1.311,1.001
1782117190.553160,0.955000,1637115,1000,12,0,1,776.084,3.405,44.830,553.893,0.233,0.975
1782117190.554160,0.956000,1637116,1000,12,0,1,793.667,18.644,44.637,555.190,0.952,0.978
1782117190.555160,0.957000,1637117,1000,12,0,1,788.791,10.177,43.869,552.956,-0.307,0.978
1782117190.556160,0.958000,1637118,1000,12,0,1,782.569,-1.280,42.384,551.322,-2.632,1.040
1782117190.557160,0.959000,1637119,1000,12,0,1,787.205,0.788,40.152,553.652,-0.094,1.040
1782117190.558160,0.960000,1637120,1000,12,0,1,802.747,12.354,37.118,554.541,1.129,1.047
1782117190.559160,0.961000,1637121,1000,12,0,1,797.102,9.819,33.482,553.052,-0.263,1.048
1782117190.560160,0.962000,1637122,1000,12,0,1,787.013,-3.882,31.318,553.412,-0.283,1.047
1782117190.561160,0.963000,1637123,1000,12,0,1,787.109,-2.011,31.081,553.725,0.393,1.046
1782117190.562160,0.964000,1637124,1000,12,0,1,787.278,-0.346,30.754,553.556,0.054,1.039
1782117190.563160,0.965000,1637125,1000,12,0,1,785.764,-0.286,28.716,550.818,-1.916,1.071
1782117190.564160,0.966000,1637126,1000,12,0,1,786.893,1.473,26.042,552.692,-1.085,1.075
1782117190.565160,0.967000,1637127,1000,12,0,1,789.463,4.139,24.866,552.163,-0.043,1.075
1782117190.566160,0.968000,1637128,1000,12,0,1,793.499,6.998,24.749,552.115,-1.104,1.085
1782117190.567160,0.969000,1637129,1000,12,0,1,792.754,5.098,24.730,551.683,-0.554,1.087
1782117190.568160,0.970000,1637130,1000,12,0,1,779.519,-7.874,24.457,551.875,-0.854,1.084
1782117190.569160,0.971000,1637131,1000,12,0,1,767.268,-21.643,24.012,553.364,0.745,1.089
1782117190.570160,0.972000,1637132,1000,12,0,1,759.365,-27.476,23.733,553.460,1.000,1.098
1782117190.571160,0.973000,1637133,1000,12,0,1,754.033,-31.256,23.709,553.124,0.270,1.097
1782117190.572160,0.974000,1637134,1000,12,0,1,754.657,-28.660,23.762,552.932,0.261,1.095
1782117190.573160,0.975000,1637135,1000,12,0,1,745.746,-32.121,23.811,553.821,0.623,1.080
1782117190.574160,0.976000,1637136,1000,12,0,1,735.417,-39.379,24.064,553.893,1.078,1.041
1782117190.575160,0.977000,1637137,1000,12,0,1,735.609,-34.291,24.462,554.013,0.629,1.044
1782117190.576160,0.978000,1637138,1000,12,0,1,746.466,-19.725,24.557,553.316,0.344,1.033
1782117190.577160,0.979000,1637139,1000,12,0,1,748.532,-11.071,23.923,552.860,-0.451,1.035
1782117190.578160,0.980000,1637140,1000,12,0,1,738.203,-16.369,22.734,553.580,0.363,0.997
1782117190.579160,0.981000,1637141,1000,12,0,1,723.983,-23.544,21.484,551.899,-0.723,1.002
1782117190.580160,0.982000,1637142,1000,12,0,1,706.160,-31.423,20.188,552.572,-0.719,0.971
1782117190.581160,0.983000,1637143,1000,12,0,1,700.899,-28.874,19.295,552.860,0.429,0.964
1782117190.582160,0.984000,1637144,1000,12,0,1,717.401,-5.137,18.889,552.283,-0.463,0.966
1782117190.583160,0.985000,1637145,1000,12,0,1,740.533,22.721,19.159,551.106,-1.072,0.975
1782117190.584160,0.986000,1637146,1000,12,0,1,748.724,34.128,19.662,552.211,-0.469,0.977
1782117190.585160,0.987000,1637147,1000,12,0,1,747.307,31.197,20.128,551.803,-0.021,0.977
1782117190.586160,0.988000,1637148,1000,12,0,1,750.886,31.856,20.600,550.578,-1.464,0.996
1782117190.587160,0.989000,1637149,1000,12,0,1,765.635,40.983,21.369,551.058,-0.884,1.002
1782117190.588160,0.990000,1637150,1000,12,0,1,781.032,50.193,22.515,552.331,0.448,0.992
1782117190.589160,0.991000,1637151,1000,12,0,1,797.102,55.480,23.754,552.908,0.958,0.997
1782117190.590160,0.992000,1637152,1000,12,0,1,806.542,54.945,24.888,553.172,1.051,1.007
1782117190.591160,0.993000,1637153,1000,12,0,1,807.311,44.138,25.644,553.797,1.273,1.021
1782117190.592160,0.994000,1637154,1000,12,0,1,804.476,30.964,26.013,553.701,1.179,0.959
1782117190.593160,0.995000,1637155,1000,12,0,1,804.524,21.396,26.001,553.364,0.464,0.889
1782117190.594160,0.996000,1637156,1000,12,0,1,799.528,10.721,25.307,553.028,0.185,0.883
1782117190.595160,0.997000,1637157,1000,12,0,1,795.108,0.294,24.918,554.325,0.941,0.858
1782117190.596160,0.998000,1637158,1000,12,0,1,793.619,-4.027,24.790,554.133,1.181,0.855
1782117190.597160,0.999000,1637159,1000,12,0,1,775.940,-18.928,24.658,553.028,-0.258,0.856
1782117190.598160,1.000000,1637160,1000,12,0,1,770.031,-27.178,24.605,551.923,-1.024,0.864
1782117190.599160,1.001000,1637161,1000,12,0,1,777.285,-15.653,24.682,550.530,-2.083,0.911
1782117190.600160,1.002000,1637162,1000,12,0,1,782.954,-8.329,24.618,553.028,-0.065,0.911
1782117190.601160,1.003000,1637163,1000,12,0,1,797.847,5.174,24.461,553.292,1.256,0.928
1782117190.602160,1.004000,1637164,1000,12,0,1,806.518,14.673,24.481,552.091,-0.473,0.911
1782117190.603160,1.005000,1637165,1000,12,0,1,801.498,7.756,24.501,553.917,1.091,0.924
1782117190.604160,1.006000,1637166,1000,12,0,1,796.333,0.524,24.358,554.589,1.931,0.954
1782117190.605160,1.007000,1637167,1000,12,0,1,791.721,-4.723,24.325,552.980,0.142,0.953
1782117190.606160,1.008000,1637168,1000,12,0,1,788.262,-9.023,24.358,552.620,-0.570,0.881
1782117190.607160,1.009000,1637169,1000,12,0,1,784.419,-12.573,24.422,553.148,-0.054,0.881
1782117190.608160,1.010000,1637170,1000,12,0,1,769.358,-24.567,24.606,553.580,0.239,0.867
1782117190.609160,1.011000,1637171,1000,12,0,1,743.800,-45.397,25.392,553.652,0.186,0.867
1782117190.610160,1.012000,1637172,1000,12,0,1,714.639,-65.846,27.040,553.580,-0.040,0.866
1782117190.611160,1.013000,1637173,1000,12,0,1,702.941,-69.678,28.778,553.893,0.053,0.864
1782117190.612160,1.014000,1637174,1000,12,0,1,727.874,-39.355,29.312,553.941,0.102,0.864
1782117190.613160,1.015000,1637175,1000,12,0,1,766.908,4.005,29.317,554.109,0.040,0.820
1782117190.614160,1.016000,1637176,1000,12,0,1,785.980,24.195,29.515,553.869,-0.083,0.806
1782117190.615160,1.017000,1637177,1000,12,0,1,795.517,28.272,29.779,552.235,-1.451,0.832
1782117190.616160,1.018000,1637178,1000,12,0,1,806.206,33.602,30.140,551.587,-2.065,0.868
1782117190.617160,1.019000,1637179,1000,12,0,1,813.916,35.420,30.545,551.419,-1.658,0.895
1782117190.618160,1.020000,1637180,1000,12,0,1,806.542,25.166,30.731,555.022,1.233,0.904
1782117190.619160,1.021000,1637181,1000,12,0,1,786.461,3.491,30.582,555.094,2.404,0.960
1782117190.620160,1.022000,1637182,1000,12,0,1,758.140,-21.034,30.480,553.749,0.173,0.950
1782117190.621160,1.023000,1637183,1000,12,0,1,740.053,-34.761,30.556,552.331,-0.673,0.954
1782117190.622160,1.024000,1637184,1000,12,0,1,729.364,-35.545,30.700,551.058,-1.969,0.993
1782117190.623160,1.025000,1637185,1000,12,0,1,745.049,-17.087,30.458,551.827,-1.116,1.002
1782117190.624160,1.026000,1637186,1000,12,0,1,769.814,13.635,30.007,554.013,1.082,1.002
1782117190.625160,1.027000,1637187,1000,12,0,1,781.537,25.683,29.834,553.460,0.848,1.005
1782117190.626160,1.028000,1637188,1000,12,0,1,779.207,22.328,29.871,552.812,-0.232,1.004
1782117190.627160,1.029000,1637189,1000,12,0,1,778.318,17.322,29.930,553.556,0.353,1.004
1782117190.628160,1.030000,1637190,1000,12,0,1,772.697,10.717,29.879,551.659,-0.934,1.011
1782117190.629160,1.031000,1637191,1000,12,0,1,750.886,-9.818,29.725,552.307,-1.191,1.020
1782117190.630160,1.032000,1637192,1000,12,0,1,742.407,-21.090,29.542,553.316,0.542,1.018
1782117190.631160,1.033000,1637193,1000,12,0,1,774.979,6.820,29.274,553.652,0.352,1.017
1782117190.632160,1.034000,1637194,1000,12,0,1,788.911,23.512,29.454,553.604,0.513,1.017
1782117190.633160,1.035000,1637195,1000,12,0,1,783.939,11.552,29.324,553.292,-0.020,1.006
1782117190.634160,1.036000,1637196,1000,12,0,1,779.639,4.544,28.931,550.410,-2.110,1.047
1782117190.635160,1.037000,1637197,1000,12,0,1,784.059,4.316,28.599,552.139,-1.311,1.064
1782117190.636160,1.038000,1637198,1000,12,0,1,784.059,4.390,28.249,552.139,0.197,1.044
1782117190.637160,1.039000,1637199,1000,12,0,1,783.338,1.203,27.648,551.851,-0.750,1.042
1782117190.638160,1.040000,1637200,1000,12,0,1,784.899,2.525,26.724,553.652,1.264,1.055
1782117190.639160,1.041000,1637201,1000,12,0,1,803.131,16.279,25.650,554.469,2.117,1.088
1782117190.640160,1.042000,1637202,1000,12,0,1,800.273,17.458,24.569,555.502,2.499,1.134
1782117190.641160,1.043000,1637203,1000,12,0,1,780.984,-3.442,23.767,554.133,1.577,1.142
1782117190.642160,1.044000,1637204,1000,12,0,1,782.425,-3.649,23.366,552.211,-0.927,1.137
1782117190.643160,1.045000,1637205,1000,12,0,1,781.945,0.946,23.170,553.052,-0.124,1.136
1782117190.644160,1.046000,1637206,1000,12,0,1,798.855,11.466,23.177,552.572,-0.216,1.136
1782117190.645160,1.047000,1637207,1000,12,0,1,806.086,22.799,23.400,553.028,-0.228,1.128
1782117190.646160,1.048000,1637208,1000,12,0,1,797.342,8.962,23.428,556.295,2.547,1.173
1782117190.647160,1.049000,1637209,1000,12,0,1,792.610,2.330,23.276,554.685,1.592,1.193
1782117190.648160,1.050000,1637210,1000,12,0,1,786.821,-4.624,22.966,552.692,-1.377,1.201
1782117190.649160,1.051000,1637211,1000,12,0,1,787.085,-7.330,22.883,554.733,0.406,1.165
1782117190.650160,1.052000,1637212,1000,12,0,1,784.347,-9.100,22.889,555.766,1.526,1.185
1782117190.651160,1.053000,1637213,1000,12,0,1,778.078,-16.959,23.002,556.079,1.225,1.184
1782117190.652160,1.054000,1637214,1000,12,0,1,772.409,-21.281,23.105,554.085,-0.374,1.184
1782117190.653160,1.055000,1637215,1000,12,0,1,771.712,-22.091,23.290,553.701,-1.509,1.193
1782117190.654160,1.056000,1637216,1000,12,0,1,772.505,-18.841,23.442,552.812,-1.502,1.180
1782117190.655160,1.057000,1637217,1000,12,0,1,768.397,-20.413,23.609,550.842,-3.317,1.270
1782117190.656160,1.058000,1637218,1000,12,0,1,752.664,-30.265,23.960,552.812,-1.494,1.285
1782117190.657160,1.059000,1637219,1000,12,0,1,747.067,-33.093,24.348,554.253,0.725,1.289
1782117190.658160,1.060000,1637220,1000,12,0,1,749.661,-23.077,24.319,553.316,-0.224,1.289
1782117190.659160,1.061000,1637221,1000,12,0,1,717.738,-40.298,24.139,552.956,-0.536,1.291
1782117190.660160,1.062000,1637222,1000,12,0,1,700.923,-52.994,23.497,553.676,0.144,1.291
1782117190.661160,1.063000,1637223,1000,12,0,1,718.434,-24.452,21.610,552.331,-0.587,1.294
1782117190.662160,1.064000,1637224,1000,12,0,1,733.783,-0.420,20.881,551.587,-1.591,1.313
1782117190.663160,1.065000,1637225,1000,12,0,1,720.212,-3.914,20.880,552.499,-0.408,1.314
1782117190.664160,1.066000,1637226,1000,12,0,1,686.199,-29.000,21.003,553.148,0.335,1.315
1782117190.665160,1.067000,1637227,1000,12,0,1,686.775,-25.860,20.940,553.821,0.828,1.304
1782117190.666160,1.068000,1637228,1000,12,0,1,739.885,27.565,20.763,554.037,1.016,1.279
1782117190.667160,1.069000,1637229,1000,12,0,1,776.540,66.080,22.211,553.388,0.233,1.258
1782117190.668160,1.070000,1637230,1000,12,0,1,820.042,90.699,25.401,552.548,-0.604,1.249
1782117190.669160,1.071000,1637231,1000,12,0,1,854.439,112.775,29.989,551.130,-1.743,1.227
1782117190.670160,1.072000,1637232,1000,12,0,1,840.555,83.919,32.114,553.388,-0.117,1.227
1782117190.671160,1.073000,1637233,1000,12,0,1,814.493,41.123,32.264,553.220,0.756,1.228
1782117190.672160,1.074000,1637234,1000,12,0,1,796.766,14.803,31.939,553.004,-0.269,1.196
1782117190.673160,1.075000,1637235,1000,12,0,1,786.749,-1.616,31.848,552.499,-0.093,1.186
1782117190.674160,1.076000,1637236,1000,12,0,1,781.849,-7.993,31.810,554.181,0.771,1.181
1782117190.675160,1.077000,1637237,1000,12,0,1,792.898,-1.789,31.603,554.517,1.755,1.201
1782117190.676160,1.078000,1637238,1000,12,0,1,807.671,12.338,31.493,554.205,0.858,1.206
1782117190.677160,1.079000,1637239,1000,12,0,1,795.421,1.504,31.398,554.469,1.089,1.215
1782117190.678160,1.080000,1637240,1000,12,0,1,789.752,-8.862,31.387,553.773,0.501,1.210
1782117190.679160,1.081000,1637241,1000,12,0,1,796.742,-0.666,31.356,553.725,0.072,1.198
1782117190.680160,1.082000,1637242,1000,12,0,1,795.853,-0.843,31.214,553.628,0.310,1.197
1782117190.681160,1.083000,1637243,1000,12,0,1,795.372,-2.600,31.202,551.899,-1.274,1.209
1782117190.682160,1.084000,1637244,1000,12,0,1,793.763,-3.370,31.028,551.443,-1.696,1.230
1782117190.683160,1.085000,1637245,1000,12,0,1,789.295,-8.223,31.006,550.866,-1.709,1.254
1782117190.684160,1.086000,1637246,1000,12,0,1,787.061,-10.492,31.035,551.250,-1.343,1.233
1782117190.685160,1.087000,1637247,1000,12,0,1,785.020,-12.231,31.077,552.523,0.128,1.219
1782117190.686160,1.088000,1637248,1000,12,0,1,779.423,-16.845,31.162,552.115,0.030,1.218
1782117190.687160,1.089000,1637249,1000,12,0,1,773.153,-22.330,31.321,552.283,-0.181,1.214
1782117190.688160,1.090000,1637250,1000,12,0,1,772.289,-22.487,31.480,552.548,0.328,1.202
1782117190.689160,1.091000,1637251,1000,12,0,1,759.894,-29.547,31.673,554.205,1.310,1.179
1782117190.690160,1.092000,1637252,1000,12,0,1,749.421,-38.425,32.041,554.325,1.756,1.151
1782117190.691160,1.093000,1637253,1000,12,0,1,751.439,-31.905,32.353,552.668,-0.227,1.130
1782117190.692160,1.094000,1637254,1000,12,0,1,756.819,-22.313,32.503,554.133,0.593,1.126
1782117190.693160,1.095000,1637255,1000,12,0,1,755.522,-18.606,32.609,555.214,1.955,1.159
1782117190.694160,1.096000,1637256,1000,12,0,1,774.883,-1.753,32.569,555.358,1.506,1.178
1782117190.695160,1.097000,1637257,1000,12,0,1,802.579,26.652,32.628,553.628,0.155,1.178
1782117190.696160,1.098000,1637258,1000,12,0,1,801.113,25.975,32.809,551.515,-2.092,1.160
1782117190.697160,1.099000,1637259,1000,12,0,1,790.736,11.489,32.848,551.467,-1.894,1.169
1782117190.698160,1.100000,1637260,1000,12,0,1,777.453,0.816,32.842,554.781,1.099,1.163
1782117190.699160,1.101000,1637261,1000,12,0,1,769.574,-7.148,32.841,554.974,2.055,1.197
1782117190.700160,1.102000,1637262,1000,12,0,1,764.434,-7.161,32.831,553.941,0.378,1.179
1782117190.701160,1.103000,1637263,1000,12,0,1,755.762,-11.724,32.786,554.253,0.646,1.169
1782117190.702160,1.104000,1637264,1000,12,0,1,745.770,-16.152,32.727,553.412,0.006,1.168
1782117190.703160,1.105000,1637265,1000,12,0,1,764.266,0.607,32.578,554.061,0.059,1.149
1782117190.704160,1.106000,1637266,1000,12,0,1,802.555,37.624,32.902,554.229,0.640,1.132
1782117190.705160,1.107000,1637267,1000,12,0,1,811.274,45.406,33.398,554.517,0.288,1.032
1782117190.706160,1.108000,1637268,1000,12,0,1,800.417,26.633,33.336,556.199,1.693,1.038
1782117190.707160,1.109000,1637269,1000,12,0,1,792.562,13.768,33.063,555.574,1.072,1.044
1782117190.708160,1.110000,1637270,1000,12,0,1,789.656,6.078,32.913,554.469,-0.550,1.046
1782117190.709160,1.111000,1637271,1000,12,0,1,784.059,-1.031,32.416,554.349,-0.741,1.049
1782117190.710160,1.112000,1637272,1000,12,0,1,781.537,-6.773,31.552,554.109,-0.973,1.057
1782117190.711160,1.113000,1637273,1000,12,0,1,781.945,-6.898,31.377,554.757,-0.533,1.057
1782117190.712160,1.114000,1637274,1000,12,0,1,782.545,-7.292,31.394,552.932,-1.616,1.058
1782117190.713160,1.115000,1637275,1000,12,0,1,777.597,-10.900,31.427,552.860,-2.229,1.102
1782117190.714160,1.116000,1637276,1000,12,0,1,772.313,-15.487,31.235,554.181,-0.335,1.102
1782117190.715160,1.117000,1637277,1000,12,0,1,765.082,-18.926,31.136,553.460,-0.733,1.101
1782117190.716160,1.118000,1637278,1000,12,0,1,751.559,-26.924,31.125,553.580,-0.778,1.097
1782117190.717160,1.119000,1637279,1000,12,0,1,748.196,-26.620,29.926,554.301,0.259,1.097
1782117190.718160,1.120000,1637280,1000,12,0,1,767.148,-5.009,27.047,554.637,0.520,1.096
1782117190.719160,1.121000,1637281,1000,12,0,1,762.921,-0.001,21.845,553.508,-0.206,1.068
1782117190.720160,1.122000,1637282,1000,12,0,1,747.667,-14.085,18.447,552.572,-1.250,1.083
1782117190.721160,1.123000,1637283,1000,12,0,1,774.595,9.147,17.554,553.412,-0.320,1.078
1782117190.722160,1.124000,1637284,1000,12,0,1,794.940,34.192,18.088,553.532,0.131,1.078
1782117190.723160,1.125000,1637285,1000,12,0,1,790.352,25.253,18.435,553.869,0.215,1.078
1782117190.724160,1.126000,1637286,1000,12,0,1,779.927,12.893,18.491,553.076,-0.160,1.073
1782117190.725160,1.127000,1637287,1000,12,0,1,773.754,3.693,18.496,553.196,-0.484,1.046
1782117190.726160,1.128000,1637288,1000,12,0,1,768.758,-1.218,18.415,553.268,-0.025,1.039
1782117190.727160,1.129000,1637289,1000,12,0,1,767.989,-3.453,18.420,551.707,-1.401,1.047
1782117190.728160,1.130000,1637290,1000,12,0,1,765.971,-4.579,18.389,553.340,-0.358,1.045
1782117190.729160,1.131000,1637291,1000,12,0,1,778.846,3.830,18.396,555.478,2.084,1.086
1782117190.730160,1.132000,1637292,1000,12,0,1,795.156,18.757,18.586,552.812,-0.198,1.086
1782117190.731160,1.133000,1637293,1000,12,0,1,789.968,12.477,18.666,550.794,-2.560,1.130
1782117190.732160,1.134000,1637294,1000,12,0,1,776.180,-4.271,18.670,551.827,-1.283,1.119
1782117190.733160,1.135000,1637295,1000,12,0,1,764.266,-14.865,18.752,552.932,0.143,1.093
1782117190.734160,1.136000,1637296,1000,12,0,1,749.757,-25.754,19.045,551.130,-0.998,1.085
1782117190.735160,1.137000,1637297,1000,12,0,1,749.901,-23.546,19.256,553.220,0.182,1.086
1782117190.736160,1.138000,1637298,1000,12,0,1,775.003,1.889,19.110,555.574,3.150,1.173
1782117190.737160,1.139000,1637299,1000,12,0,1,782.065,14.501,18.958,555.070,2.275,1.216
1782117190.738160,1.140000,1637300,1000,12,0,1,778.246,7.647,18.721,553.052,0.316,1.216
1782117190.739160,1.141000,1637301,1000,12,0,1,775.099,5.884,18.268,552.620,-0.451,1.204
1782117190.740160,1.142000,1637302,1000,12,0,1,766.692,-1.544,17.442,552.331,-0.336,1.179
1782117190.741160,1.143000,1637303,1000,12,0,1,773.970,3.164,16.854,551.058,-1.311,1.193
1782117190.742160,1.144000,1637304,1000,12,0,1,791.793,20.313,16.804,552.307,-0.417,1.192
1782117190.743160,1.145000,1637305,1000,12,0,1,794.580,21.830,16.881,551.539,-0.161,1.159
1782117190.744160,1.146000,1637306,1000,12,0,1,790.232,13.419,16.986,553.725,0.736,1.144
1782117190.745160,1.147000,1637307,1000,12,0,1,778.630,1.328,16.563,554.493,2.459,1.196
1782117190.746160,1.148000,1637308,1000,12,0,1,764.866,-13.166,16.258,552.764,0.069,1.159
1782117190.747160,1.149000,1637309,1000,12,0,1,759.125,-18.145,16.379,553.965,0.762,1.132
1782117190.748160,1.150000,1637310,1000,12,0,1,753.601,-20.092,16.623,553.532,0.800,1.127
1782117190.749160,1.151000,1637311,1000,12,0,1,744.425,-25.679,16.985,554.853,0.940,1.097
1782117190.750160,1.152000,1637312,1000,12,0,1,742.359,-24.713,17.311,554.517,1.351,1.113
1782117190.751160,1.153000,1637313,1000,12,0,1,758.116,-8.330,17.272,551.707,-1.807,1.138
1782117190.752160,1.154000,1637314,1000,12,0,1,762.344,1.104,17.121,553.028,-0.925,1.145
1782117190.753160,1.155000,1637315,1000,12,0,1,760.110,-2.514,17.124,554.661,1.137,1.157
1782117190.754160,1.156000,1637316,1000,12,0,1,754.297,-4.985,16.292,552.259,-0.867,1.160
1782117190.755160,1.157000,1637317,1000,12,0,1,736.113,-18.828,15.208,551.611,-1.908,1.190
1782117190.756160,1.158000,1637318,1000,12,0,1,728.043,-24.447,15.134,554.397,0.855,1.172
1782117190.757160,1.159000,1637319,1000,12,0,1,758.044,4.313,15.021,553.701,0.917,1.169
1782117190.758160,1.160000,1637320,1000,12,0,1,765.179,19.696,15.253,554.589,0.710,1.171
1782117190.759160,1.161000,1637321,1000,12,0,1,755.979,6.974,15.284,553.701,0.811,1.172
1782117190.760160,1.162000,1637322,1000,12,0,1,789.896,32.235,15.921,553.004,-0.710,1.168
1782117190.761160,1.163000,1637323,1000,12,0,1,811.442,54.856,17.683,553.869,0.442,1.167
1782117190.762160,1.164000,1637324,1000,12,0,1,805.990,40.071,18.540,552.716,-0.431,1.146
1782117190.763160,1.165000,1637325,1000,12,0,1,802.435,29.796,18.951,554.709,0.595,1.105
1782117190.764160,1.166000,1637326,1000,12,0,1,795.469,18.279,19.000,555.022,1.719,1.131
1782117190.765160,1.167000,1637327,1000,12,0,1,789.127,7.556,18.841,555.430,0.922,1.133
1782117190.766160,1.168000,1637328,1000,12,0,1,789.007,4.447,18.463,554.517,0.626,1.132
1782117190.767160,1.169000,1637329,1000,12,0,1,791.169,4.224,18.085,554.589,-0.302,1.132
1782117190.768160,1.170000,1637330,1000,12,0,1,789.415,1.230,18.072,554.950,0.405,1.131
1782117190.769160,1.171000,1637331,1000,12,0,1,787.229,-3.129,18.078,553.508,-1.056,1.140
1782117190.770160,1.172000,1637332,1000,12,0,1,780.288,-9.230,18.015,554.157,-0.884,1.133
1782117190.771160,1.173000,1637333,1000,12,0,1,775.892,-14.631,18.087,554.253,-0.191,1.133
1782117190.772160,1.174000,1637334,1000,12,0,1,767.364,-19.495,17.645,555.718,0.427,1.134
1782117190.773160,1.175000,1637335,1000,12,0,1,755.186,-29.000,17.760,554.565,0.255,1.134
1782117190.774160,1.176000,1637336,1000,12,0,1,744.593,-34.394,18.324,553.821,-1.333,1.150
1782117190.775160,1.177000,1637337,1000,12,0,1,748.148,-28.021,18.740,552.331,-1.753,1.174
1782117190.776160,1.178000,1637338,1000,12,0,1,744.184,-23.583,19.034,554.589,-0.533,1.177
1782117190.777160,1.179000,1637339,1000,12,0,1,747.860,-19.415,19.225,554.493,0.750,1.165
1782117190.778160,1.180000,1637340,1000,12,0,1,760.110,-3.290,19.219,554.109,-0.499,1.166
1782117190.779160,1.181000,1637341,1000,12,0,1,769.358,6.489,19.234,553.917,-0.107,1.128
1782117190.780160,1.182000,1637342,1000,12,0,1,776.132,12.240,19.128,552.572,-1.312,1.143
1782117190.781160,1.183000,1637343,1000,12,0,1,776.108,11.948,19.122,552.043,-1.788,1.113
1782117190.782160,1.184000,1637344,1000,12,0,1,775.411,8.519,19.150,553.893,0.084,1.098
1782117190.783160,1.185000,1637345,1000,12,0,1,786.101,15.996,19.168,553.652,0.305,1.099
1782117190.784160,1.186000,1637346,1000,12,0,1,772.649,6.447,18.841,553.989,0.174,1.090
1782117190.785160,1.187000,1637347,1000,12,0,1,756.915,-12.180,18.624,552.908,-0.370,1.091
1782117190.786160,1.188000,1637348,1000,12,0,1,736.738,-24.595,18.944,553.869,-0.139,0.996
1782117190.787160,1.189000,1637349,1000,12,0,1,737.555,-24.507,19.149,554.661,1.071,0.955
1782117190.788160,1.190000,1637350,1000,12,0,1,743.152,-10.301,19.174,552.764,-0.693,0.959
1782117190.789160,1.191000,1637351,1000,12,0,1,717.281,-26.778,19.527,553.989,-0.264,0.957
1782117190.790160,1.192000,1637352,1000,12,0,1,710.219,-33.234,20.083,553.989,0.648,0.960
1782117190.791160,1.193000,1637353,1000,12,0,1,730.949,-5.967,20.096,553.388,-0.584,0.946
1782117190.792160,1.194000,1637354,1000,12,0,1,761.287,23.008,20.154,552.668,-0.670,0.949
1782117190.793160,1.195000,1637355,1000,12,0,1,794.268,51.805,21.221,553.148,-0.590,0.952
1782117190.794160,1.196000,1637356,1000,12,0,1,818.576,66.641,23.142,552.668,-0.310,0.948
1782117190.795160,1.197000,1637357,1000,12,0,1,827.128,64.640,24.881,553.797,0.213,0.882
1782117190.796160,1.198000,1637358,1000,12,0,1,818.649,45.892,25.646,554.205,1.222,0.899
1782117190.797160,1.199000,1637359,1000,12,0,1,806.830,24.491,25.752,553.773,0.484,0.895
1782117190.798160,1.200000,1637360,1000,12,0,1,800.249,11.598,25.647,552.788,-0.225,0.888
1782117190.799160,1.201000,1637361,1000,12,0,1,797.270,4.330,25.396,554.829,1.109,0.892
1782117190.800160,1.202000,1637362,1000,12,0,1,794.676,-0.564,25.154,554.878,1.796,0.908
1782117190.801160,1.203000,1637363,1000,12,0,1,790.857,-5.597,25.139,554.781,0.895,0.880
1782117190.802160,1.204000,1637364,1000,12,0,1,789.992,-7.387,25.160,553.941,0.396,0.872
1782117190.803160,1.205000,1637365,1000,12,0,1,793.139,-4.613,25.166,551.731,-1.737,0.892
1782117190.804160,1.206000,1637366,1000,12,0,1,795.781,-2.002,25.158,552.187,-1.605,0.912
1782117190.805160,1.207000,1637367,1000,12,0,1,791.241,-5.605,25.029,552.860,-0.286,0.872
1782117190.806160,1.208000,1637368,1000,12,0,1,787.638,-9.769,24.828,553.220,-0.242,0.864
1782117190.807160,1.209000,1637369,1000,12,0,1,783.410,-11.993,24.878,555.214,1.548,0.882
1782117190.808160,1.210000,1637370,1000,12,0,1,780.984,-13.992,24.801,553.292,0.234,0.877
1782117190.809160,1.211000,1637371,1000,12,0,1,782.305,-11.470,24.834,554.709,0.262,0.870
1782117190.810160,1.212000,1637372,1000,12,0,1,781.152,-11.138,24.463,554.061,0.831,0.872
1782117190.811160,1.213000,1637373,1000,12,0,1,779.951,-12.134,23.264,552.548,-1.467,0.895
1782117190.812160,1.214000,1637374,1000,12,0,1,778.846,-12.067,22.628,554.133,0.134,0.893
1782117190.813160,1.215000,1637375,1000,12,0,1,778.534,-12.184,22.298,553.340,-0.011,0.889
1782117190.814160,1.216000,1637376,1000,12,0,1,780.071,-10.079,22.194,554.733,0.361,0.856
1782117190.815160,1.217000,1637377,1000,12,0,1,780.047,-9.364,22.208,554.349,1.039,0.859
1782117190.816160,1.218000,1637378,1000,12,0,1,777.261,-11.120,22.254,553.388,-0.697,0.860
1782117190.817160,1.219000,1637379,1000,12,0,1,771.352,-14.993,22.347,554.709,0.752,0.866
1782117190.818160,1.220000,1637380,1000,12,0,1,762.440,-20.595,22.535,555.214,1.240,0.881
1782117190.819160,1.221000,1637381,1000,12,0,1,754.922,-24.079,22.787,552.307,-1.138,0.883
1782117190.820160,1.222000,1637382,1000,12,0,1,750.814,-23.027,22.981,551.971,-2.033,0.921
1782117190.821160,1.223000,1637383,1000,12,0,1,752.712,-16.633,23.009,553.580,0.034,0.920
1782117190.822160,1.224000,1637384,1000,12,0,1,757.035,-7.576,22.868,552.019,-0.905,0.927
1782117190.823160,1.225000,1637385,1000,12,0,1,767.364,4.252,22.505,552.139,-1.337,0.945
1782117190.824160,1.226000,1637386,1000,12,0,1,766.404,7.955,22.002,552.788,-0.019,0.926
1782117190.825160,1.227000,1637387,1000,12,0,1,749.109,-6.113,21.660,551.058,-1.514,0.918
1782117190.826160,1.228000,1637388,1000,12,0,1,741.326,-12.333,21.472,552.211,-0.783,0.922
1782117190.827160,1.229000,1637389,1000,12,0,1,751.991,0.471,21.296,552.451,0.218,0.916
1782117190.828160,1.230000,1637390,1000,12,0,1,766.115,15.809,21.408,552.908,0.098,0.913
1782117190.829160,1.231000,1637391,1000,12,0,1,779.062,26.464,21.713,553.028,0.619,0.917
1782117190.830160,1.232000,1637392,1000,12,0,1,777.021,23.786,21.904,552.043,-0.457,0.901
1782117190.831160,1.233000,1637393,1000,12,0,1,769.406,12.150,21.906,553.965,0.884,0.874
1782117190.832160,1.234000,1637394,1000,12,0,1,766.331,7.166,21.897,552.692,0.611,0.878
1782117190.833160,1.235000,1637395,1000,12,0,1,762.680,2.814,21.783,552.788,-0.401,0.879
1782117190.834160,1.236000,1637396,1000,12,0,1,764.914,2.706,21.767,552.788,0.514,0.881
1782117190.835160,1.237000,1637397,1000,12,0,1,772.793,9.327,21.739,552.548,-0.221,0.880
1782117190.836160,1.238000,1637398,1000,12,0,1,774.571,10.081,21.506,552.572,0.202,0.880
1782117190.837160,1.239000,1637399,1000,12,0,1,770.895,4.984,21.237,551.250,-0.826,0.875
1782117190.838160,1.240000,1637400,1000,12,0,1,777.381,7.863,21.216,550.145,-1.755,0.904
1782117190.839160,1.241000,1637401,1000,12,0,1,792.010,19.932,21.065,550.698,-0.918,0.913
1782117190.840160,1.242000,1637402,1000,12,0,1,789.632,17.328,20.680,551.346,0.017,0.908
1782117190.841160,1.243000,1637403,1000,12,0,1,777.261,2.411,20.665,552.572,1.161,0.919
1782117190.842160,1.244000,1637404,1000,12,0,1,763.089,-10.177,20.458,553.460,1.984,0.956
1782117190.843160,1.245000,1637405,1000,12,0,1,748.388,-21.850,19.350,551.923,0.665,0.957
1782117190.844160,1.246000,1637406,1000,12,0,1,749.517,-19.035,17.112,552.067,0.084,0.957
1782117190.845160,1.247000,1637407,1000,12,0,1,772.481,4.240,14.478,553.412,1.547,0.981
1782117190.846160,1.248000,1637408,1000,12,0,1,789.199,22.044,13.313,552.427,0.591,0.969
1782117190.847160,1.249000,1637409,1000,12,0,1,787.013,17.963,13.103,551.274,-0.790,0.973
1782117190.848160,1.250000,1637410,1000,12,0,1,783.578,10.376,13.082,551.346,-0.710,0.978
1782117190.849160,1.251000,1637411,1000,12,0,1,783.650,8.105,13.118,552.716,0.457,0.967
1782117190.850160,1.252000,1637412,1000,12,0,1,783.602,5.436,13.140,553.292,1.164,0.948
1782117190.851160,1.253000,1637413,1000,12,0,1,778.222,-0.722,13.117,552.499,0.254,0.940
1782117190.852160,1.254000,1637414,1000,12,0,1,773.850,-7.071,13.113,551.611,-0.632,0.942
1782117190.853160,1.255000,1637415,1000,12,0,1,772.289,-8.560,13.153,553.292,0.584,0.914
1782117190.854160,1.256000,1637416,1000,12,0,1,762.632,-15.846,13.339,553.508,1.306,0.904
1782117190.855160,1.257000,1637417,1000,12,0,1,757.060,-21.105,13.646,552.427,-0.078,0.903
1782117190.856160,1.258000,1637418,1000,12,0,1,778.126,-2.340,13.580,552.163,-0.297,0.904
1782117190.857160,1.259000,1637419,1000,12,0,1,790.232,12.941,13.598,554.253,1.337,0.897
1782117190.858160,1.260000,1637420,1000,12,0,1,783.074,4.035,13.465,554.541,1.985,0.939
1782117190.859160,1.261000,1637421,1000,12,0,1,777.405,-2.818,13.373,554.013,0.897,0.947
1782117190.860160,1.262000,1637422,1000,12,0,1,775.700,-4.011,13.292,554.349,1.023,0.951
1782117190.861160,1.263000,1637423,1000,12,0,1,782.497,1.456,13.182,554.421,0.955,0.937
1782117190.862160,1.264000,1637424,1000,12,0,1,783.074,4.455,13.086,552.836,-0.540,0.940
1782117190.863160,1.265000,1637425,1000,12,0,1,778.414,-1.122,12.973,553.340,-0.579,0.944
1782117190.864160,1.266000,1637426,1000,12,0,1,778.630,-0.620,12.895,552.764,-0.548,0.946
1782117190.865160,1.267000,1637427,1000,12,0,1,778.102,-0.204,12.827,551.659,-1.850,0.970
1782117190.866160,1.268000,1637428,1000,12,0,1,771.520,-5.173,12.751,553.340,-0.425,0.967
1782117190.867160,1.269000,1637429,1000,12,0,1,771.688,-5.658,12.599,553.749,0.461,0.963
1782117190.868160,1.270000,1637430,1000,12,0,1,774.859,-0.967,12.259,551.851,-1.468,0.970
1782117190.869160,1.271000,1637431,1000,12,0,1,772.697,-2.349,11.781,552.187,-1.384,0.976
1782117190.870160,1.272000,1637432,1000,12,0,1,769.718,-5.270,11.346,550.097,-2.375,0.992
1782117190.871160,1.273000,1637433,1000,12,0,1,768.926,-5.546,11.128,552.259,-1.333,1.009
1782117190.872160,1.274000,1637434,1000,12,0,1,767.725,-6.062,11.109,553.676,1.303,1.018
1782117190.873160,1.275000,1637435,1000,12,0,1,765.971,-7.033,11.137,554.109,0.886,1.008
1782117190.874160,1.276000,1637436,1000,12,0,1,765.731,-6.825,11.122,552.355,-0.103,1.008
1782117190.875160,1.277000,1637437,1000,12,0,1,761.287,-8.951,11.161,549.977,-2.597,1.051
1782117190.876160,1.278000,1637438,1000,12,0,1,761.143,-9.234,11.101,553.532,0.265,1.046
1782117190.877160,1.279000,1637439,1000,12,0,1,766.764,-2.223,11.105,553.148,1.441,1.065
1782117190.878160,1.280000,1637440,1000,12,0,1,775.363,5.787,10.908,552.067,-0.776,1.071
1782117190.879160,1.281000,1637441,1000,12,0,1,778.390,9.404,10.332,553.556,1.117,1.079
1782117190.880160,1.282000,1637442,1000,12,0,1,776.780,6.716,9.815,553.580,1.077,1.088
1782117190.881160,1.283000,1637443,1000,12,0,1,773.490,3.513,9.676,551.659,-0.557,1.083
1782117190.882160,1.284000,1637444,1000,12,0,1,771.856,1.732,9.626,551.443,-1.085,1.091
1782117190.883160,1.285000,1637445,1000,12,0,1,763.641,-3.703,9.632,552.764,0.398,1.091
1782117190.884160,1.286000,1637446,1000,12,0,1,741.951,-20.383,10.047,554.013,1.522,1.109
1782117190.885160,1.287000,1637447,1000,12,0,1,707.985,-45.405,11.851,556.103,2.949,1.185
1782117190.886160,1.288000,1637448,1000,12,0,1,684.565,-59.615,14.473,555.718,2.665,1.243
1782117190.887160,1.289000,1637449,1000,12,0,1,687.688,-46.650,15.891,554.541,0.666,1.241
1782117190.888160,1.290000,1637450,1000,12,0,1,711.901,-14.928,15.992,550.938,-2.149,1.253
1782117190.889160,1.291000,1637451,1000,12,0,1,752.904,26.123,16.169,550.338,-3.482,1.340
1782117190.890160,1.292000,1637452,1000,12,0,1,781.368,53.652,17.692,552.932,-0.360,1.341
1782117190.891160,1.293000,1637453,1000,12,0,1,791.793,55.475,19.350,552.620,-0.162,1.331
1782117190.892160,1.294000,1637454,1000,12,0,1,780.071,38.957,20.068,552.764,-0.496,1.303
1782117190.893160,1.295000,1637455,1000,12,0,1,751.631,6.178,19.848,555.574,2.059,1.332
1782117190.894160,1.296000,1637456,1000,12,0,1,756.195,2.175,19.667,555.094,1.898,1.359
1782117190.895160,1.297000,1637457,1000,12,0,1,776.853,22.296,19.909,553.148,-0.468,1.343
1782117190.896160,1.298000,1637458,1000,12,0,1,775.483,19.136,19.849,552.932,-0.788,1.345
1782117190.897160,1.299000,1637459,1000,12,0,1,767.484,7.265,19.712,552.331,-0.975,1.347
1782117190.898160,1.300000,1637460,1000,12,0,1,757.348,-2.371,19.660,552.259,-1.155,1.353
1782117190.899160,1.301000,1637461,1000,12,0,1,754.922,-6.162,19.646,552.499,-0.532,1.354
1782117190.900160,1.302000,1637462,1000,12,0,1,760.711,0.976,19.632,551.250,-1.400,1.358
1782117190.901160,1.303000,1637463,1000,12,0,1,763.809,4.986,19.644,551.563,-1.221,1.369
1782117190.902160,1.304000,1637464,1000,12,0,1,775.724,13.907,19.717,552.355,-0.008,1.366
1782117190.903160,1.305000,1637465,1000,12,0,1,795.757,30.667,20.152,551.467,-0.615,1.366
1782117190.904160,1.306000,1637466,1000,12,0,1,779.183,17.120,20.173,552.548,0.035,1.354
1782117190.905160,1.307000,1637467,1000,12,0,1,745.434,-18.665,20.125,553.965,1.672,1.374
1782117190.906160,1.308000,1637468,1000,12,0,1,713.438,-43.802,21.054,553.484,1.056,1.382
1782117190.907160,1.309000,1637469,1000,12,0,1,733.615,-27.713,21.337,553.148,0.414,1.370
1782117190.908160,1.310000,1637470,1000,12,0,1,778.606,21.110,21.537,552.355,-0.221,1.341
1782117190.909160,1.311000,1637471,1000,12,0,1,793.451,34.206,22.070,552.427,-0.454,1.337
1782117190.910160,1.312000,1637472,1000,12,0,1,791.337,24.691,22.338,552.475,-0.112,1.329
1782117190.911160,1.313000,1637473,1000,12,0,1,779.423,9.730,22.379,553.845,0.742,1.326
1782117190.912160,1.314000,1637474,1000,12,0,1,766.956,-7.525,22.396,552.668,0.294,1.325
1782117190.913160,1.315000,1637475,1000,12,0,1,754.609,-18.349,22.545,552.740,-0.463,1.324
1782117190.914160,1.316000,1637476,1000,12,0,1,750.069,-23.801,22.795,554.421,1.424,1.337
1782117190.915160,1.317000,1637477,1000,12,0,1,757.636,-14.492,22.886,553.989,1.053,1.319
1782117190.916160,1.318000,1637478,1000,12,0,1,765.443,-5.454,22.888,553.725,0.358,1.319
1782117190.917160,1.319000,1637479,1000,12,0,1,783.939,9.628,22.914,553.941,0.669,1.321
1782117190.918160,1.320000,1637480,1000,12,0,1,791.577,18.429,23.062,553.172,-0.110,1.304
1782117190.919160,1.321000,1637481,1000,12,0,1,782.545,7.079,23.081,554.661,0.848,1.295
1782117190.920160,1.322000,1637482,1000,12,0,1,777.525,0.311,23.069,553.941,0.749,1.255
1782117190.921160,1.323000,1637483,1000,12,0,1,779.447,1.951,23.057,551.467,-1.864,1.269
1782117190.922160,1.324000,1637484,1000,12,0,1,781.080,3.834,23.048,553.701,-0.261,1.256
1782117190.923160,1.325000,1637485,1000,12,0,1,779.543,2.655,23.029,553.268,0.458,1.251
1782117190.924160,1.326000,1637486,1000,12,0,1,775.195,-1.253,23.010,553.652,-0.296,1.252
1782117190.925160,1.327000,1637487,1000,12,0,1,770.871,-4.828,22.985,554.469,1.090,1.207
1782117190.926160,1.328000,1637488,1000,12,0,1,767.172,-7.402,22.972,554.781,0.765,1.211
1782117190.927160,1.329000,1637489,1000,12,0,1,760.783,-11.548,23.028,554.469,0.558,1.196
1782117190.928160,1.330000,1637490,1000,12,0,1,758.309,-13.355,23.090,553.460,-0.615,1.194
1782117190.929160,1.331000,1637491,1000,12,0,1,776.324,1.943,23.054,554.037,-0.401,1.185
1782117190.930160,1.332000,1637492,1000,12,0,1,779.014,8.091,23.063,553.244,-0.609,1.179
1782117190.931160,1.333000,1637493,1000,12,0,1,772.889,-2.396,23.060,552.067,-2.019,1.210
1782117190.932160,1.334000,1637494,1000,12,0,1,767.388,-7.220,23.081,552.403,-1.386,1.216
1782117190.933160,1.335000,1637495,1000,12,0,1,768.517,-8.427,23.106,554.301,0.293,1.216
1782117190.934160,1.336000,1637496,1000,12,0,1,770.367,-5.494,22.938,553.532,0.245,1.197
1782117190.935160,1.337000,1637497,1000,12,0,1,766.596,-8.677,22.055,552.884,-0.914,1.129
1782117190.936160,1.338000,1637498,1000,12,0,1,759.125,-14.564,20.484,553.941,0.307,1.066
1782117190.937160,1.339000,1637499,1000,12,0,1,762.152,-11.294,19.459,553.412,0.089,1.062
