Unix_Time_s,IMU1_RefTime,ax_g,ay_g,az_g,gx_dps,gy_dps,gz_dps,mx_uT,my_uT,mz_uT,temp_C,qw,qx,qy,qz
1782117189.598160,1692960,-0.968750,0.032227,-0.260742,0.243902,-0.121951,1.097561,-5.025000,39.318752,-2.887500,0.0,1.000000,0.000000,0.000000,0.000000
1782117189.611160,1692973,-0.968750,0.028809,-0.262695,0.000000,-0.243902,0.975610,-5.000000,39.368752,-2.918750,0.0,1.000000,0.000000,0.000000,0.000000
1782117189.618160,1692980,-0.968750,0.028809,-0.262695,0.000000,-0.243902,0.975610,-5.000000,39.368752,-2.918750,0.0,1.000000,0.000000,0.000000,0.000000
1782117189.629160,1692991,-0.968262,0.025391,-0.262695,-0.243902,0.000000,0.731707,-4.943750,39.368752,-2.900000,0.0,1.000000,0.000000,0.000000,0.000000
1782117189.638160,1693000,-0.975098,0.019043,-0.258789,-0.121951,-0.121951,0.792683,-4.943750,39.368752,-2.900000,0.0,1.000000,0.000000,0.000000,0.000000
1782117189.651160,1693013,-0.975098,0.019043,-0.258789,-0.121951,-0.121951,0.792683,-4.950000,39.362499,-2.862500,0.0,1.000000,0.000000,0.000000,0.000000
1782117189.658160,1693020,-0.974121,0.016113,-0.260254,0.121951,-0.548781,0.914634,-4.950000,39.362499,-2.862500,0.0,1.000000,0.000000,0.000000,0.000000
1782117189.669160,1693031,-0.974121,0.014160,-0.261230,0.548781,-0.731707,1.036585,-4.900000,39.481251,-2.856250,0.0,1.000000,0.000000,0.000000,0.000000
1782117189.678160,1693040,-0.972168,0.014160,-0.260742,1.219512,-0.914634,1.158537,-4.900000,39.481251,-2.856250,0.0,1.000000,0.000000,0.000000,0.000000
1782117189.690160,1693052,-0.967285,0.025391,-0.263184,2.317073,-0.853659,1.280488,-4.943750,39.337502,-2.893750,0.0,1.000000,0.000000,0.000000,0.000000
1782117189.698160,1693060,-0.967285,0.025391,-0.263184,2.317073,-0.853659,1.280488,-4.943750,39.337502,-2.893750,0.0,1.000000,0.000000,0.000000,0.000000
1782117189.708160,1693070,-0.965820,0.028809,-0.261230,2.500000,-0.670732,1.280488,-4.956250,39.350002,-2.912500,0.0,1.000000,0.000000,0.000000,0.000000
1782117189.722160,1693084,-0.965820,0.030273,-0.261230,2.256098,-0.487805,1.219512,-4.956250,39.350002,-2.912500,0.0,1.000000,0.000000,0.000000,0.000000
1782117189.730160,1693092,-0.966309,0.029297,-0.264160,1.829268,-0.304878,1.097561,-4.856250,39.487499,-2.800000,0.0,1.000000,0.000000,0.000000,0.000000
1782117189.739160,1693101,-0.967773,0.027832,-0.262695,1.158537,-0.060976,0.853659,-4.856250,39.487499,-2.800000,0.0,1.000000,0.000000,0.000000,0.000000
1782117189.748160,1693110,-0.970215,0.026855,-0.261230,0.243902,0.060976,0.609756,-4.706250,39.637501,-2.812500,0.0,1.000000,0.000000,0.000000,0.000000
1782117189.758160,1693120,-0.971191,0.027344,-0.258789,-0.548781,0.060976,0.426829,-4.706250,39.637501,-2.812500,0.0,1.000000,0.000000,0.000000,0.000000
1782117189.771160,1693133,-0.968750,0.028320,-0.253418,-1.036585,-0.121951,0.548781,-4.956250,39.331249,-2.887500,0.0,1.000000,0.000000,0.000000,0.000000
1782117189.778160,1693140,-0.968750,0.028320,-0.253418,-1.036585,-0.121951,0.548781,-4.956250,39.331249,-2.887500,0.0,1.000000,0.000000,0.000000,0.000000
1782117189.789160,1693151,-0.970703,0.026367,-0.252930,-0.975610,-0.060976,0.853659,-4.856250,39.462502,-2.781250,0.0,1.000000,0.000000,0.000000,0.000000
1782117189.799160,1693161,-0.971680,0.025391,-0.256348,-0.731707,-0.182927,1.097561,-4.856250,39.462502,-2.781250,0.0,1.000000,0.000000,0.000000,0.000000
1782117189.811160,1693173,-0.970703,0.023438,-0.258789,-0.365854,-0.121951,1.158537,-4.943750,39.368752,-2.900000,0.0,1.000000,0.000000,0.000000,0.000000
1782117189.819160,1693181,-0.970703,0.023438,-0.258789,-0.365854,-0.121951,1.158537,-4.943750,39.368752,-2.900000,0.0,1.000000,0.000000,0.000000,0.000000
1782117189.828160,1693190,-0.972168,0.022461,-0.260742,-0.060976,-0.243902,1.036585,-4.900000,39.487499,-2.893750,0.0,1.000000,0.000000,0.000000,0.000000
1782117189.839160,1693201,-0.970703,0.023438,-0.261230,0.426829,-0.304878,0.914634,-4.900000,39.487499,-2.893750,0.0,1.000000,0.000000,0.000000,0.000000
1782117189.851160,1693213,-0.969727,0.023438,-0.260742,0.853659,-0.243902,0.731707,-4.906250,39.368752,-2.868750,0.0,1.000000,0.000000,0.000000,0.000000
1782117189.858160,1693220,-0.969238,0.025391,-0.262695,1.097561,-0.182927,0.609756,-4.906250,39.368752,-2.868750,0.0,1.000000,0.000000,0.000000,0.000000
1782117189.868160,1693230,-0.968750,0.027344,-0.261719,0.975610,-0.121951,0.670732,-4.950000,39.431252,-2.837500,0.0,1.000000,0.000000,0.000000,0.000000
1782117189.878160,1693240,-0.967285,0.027832,-0.259277,0.487805,-0.060976,0.670732,-4.950000,39.431252,-2.837500,0.0,1.000000,0.000000,0.000000,0.000000
1782117189.889160,1693251,-0.968750,0.029297,-0.258789,-0.121951,0.000000,0.609756,-4.937500,39.368752,-2.856250,0.0,1.000000,0.000000,0.000000,0.000000
1782117189.898160,1693260,-0.968750,0.029297,-0.256836,-0.731707,0.060976,0.548781,-4.937500,39.368752,-2.856250,0.0,1.000000,0.000000,0.000000,0.000000
1782117189.908160,1693270,-0.970215,0.029297,-0.255371,-1.036585,-0.060976,0.548781,-4.868750,39.431252,-2.950000,0.0,1.000000,0.000000,0.000000,0.000000
1782117189.918160,1693280,-0.967773,0.027344,-0.253906,-0.975610,0.060976,0.548781,-4.993750,39.312500,-2.956250,0.0,1.000000,0.000000,0.000000,0.000000
1782117189.929160,1693291,-0.971680,0.024414,-0.255371,-0.853659,0.243902,0.487805,-4.993750,39.312500,-2.956250,0.0,1.000000,0.000000,0.000000,0.000000
1782117189.938160,1693300,-0.975586,0.022461,-0.256836,-0.670732,0.304878,0.548781,-5.012500,39.356251,-2.918750,0.0,1.000000,0.000000,0.000000,0.000000
1782117189.950160,1693312,-0.976074,0.021973,-0.255371,-0.365854,0.182927,0.609756,-5.012500,39.356251,-2.918750,0.0,1.000000,0.000000,0.000000,0.000000
1782117189.958160,1693320,-0.976562,0.022461,-0.256348,-0.304878,-0.060976,0.670732,-4.681250,39.700001,-2.856250,0.0,1.000000,0.000000,0.000000,0.000000
1782117189.969160,1693331,-0.971680,0.023926,-0.255371,-0.243902,-0.182927,0.609756,-4.681250,39.700001,-2.856250,0.0,1.000000,0.000000,0.000000,0.000000
1782117189.978160,1693340,-0.964355,0.021973,-0.259766,-0.182927,-0.060976,0.548781,-4.856250,39.500000,-2.893750,0.0,1.000000,0.000000,0.000000,0.000000
1782117189.988160,1693350,-0.961426,0.023438,-0.261719,0.000000,0.365854,0.365854,-4.856250,39.500000,-2.893750,0.0,1.000000,0.000000,0.000000,0.000000
1782117189.998160,1693360,-0.965820,0.022949,-0.263184,0.487805,0.853659,0.548781,-4.956250,39.393749,-2.931250,0.0,1.000000,0.000000,0.000000,0.000000
1782117190.008160,1693370,-0.969727,0.021484,-0.262207,0.914634,0.975610,0.731707,-4.956250,39.393749,-2.931250,0.0,1.000000,0.000000,0.000000,0.000000
1782117190.018160,1693380,-0.973633,0.018555,-0.260254,1.463415,0.487805,0.792683,-4.943750,39.437500,-2.937500,0.0,1.000000,0.000000,0.000000,0.000000
1782117190.028160,1693390,-0.975586,0.019043,-0.259766,1.585366,-0.060976,0.792683,-4.943750,39.437500,-2.937500,0.0,1.000000,0.000000,0.000000,0.000000
1782117190.038160,1693400,-0.973145,0.022461,-0.259766,1.524390,-0.426829,0.731707,-4.887500,39.450001,-2.925000,0.0,1.000000,0.000000,0.000000,0.000000
1782117190.048160,1693410,-0.965820,0.026367,-0.259766,1.524390,-0.548781,0.731707,-4.887500,39.450001,-2.925000,0.0,1.000000,0.000000,0.000000,0.000000
1782117190.060160,1693422,-0.964844,0.028809,-0.260742,1.646341,-0.243902,0.914634,-4.918750,39.443752,-2.931250,0.0,1.000000,0.000000,0.000000,0.000000
1782117190.068160,1693430,-0.967285,0.030273,-0.261230,1.707317,0.000000,1.097561,-4.918750,39.443752,-2.931250,0.0,1.000000,0.000000,0.000000,0.000000
1782117190.078160,1693440,-0.966309,0.028809,-0.262695,1.524390,0.121951,1.097561,-4.981250,39.381252,-2.931250,0.0,1.000000,0.000000,0.000000,0.000000
1782117190.088160,1693450,-0.968750,0.026855,-0.263184,1.402439,0.243902,0.975610,-4.981250,39.381252,-2.931250,0.0,1.000000,0.000000,0.000000,0.000000
1782117190.098160,1693460,-0.970215,0.024902,-0.263672,1.097561,0.426829,0.731707,-4.975000,39.387501,-2.893750,0.0,1.000000,0.000000,0.000000,0.000000
1782117190.108160,1693470,-0.971191,0.026367,-0.263184,0.853659,0.365854,0.670732,-4.975000,39.387501,-2.893750,0.0,1.000000,0.000000,0.000000,0.000000
1782117190.118160,1693480,-0.970703,0.026855,-0.262207,0.975610,0.243902,0.670732,-4.956250,39.462502,-2.893750,0.0,1.000000,0.000000,0.000000,0.000000
1782117190.128160,1693490,-0.969238,0.028320,-0.260742,1.219512,0.243902,0.792683,-4.956250,39.462502,-2.893750,0.0,1.000000,0.000000,0.000000,0.000000
1782117190.138160,1693500,-0.968750,0.027344,-0.261230,1.463415,0.304878,0.914634,-4.950000,39.362499,-2.881250,0.0,1.000000,0.000000,0.000000,0.000000
1782117190.148160,1693510,-0.969238,0.026855,-0.262695,1.463415,0.243902,0.975610,-4.950000,39.362499,-2.881250,0.0,1.000000,0.000000,0.000000,0.000000
1782117190.158160,1693520,-0.968262,0.025879,-0.263672,1.524390,0.121951,1.036585,-4.962500,39.337502,-2.956250,0.0,1.000000,0.000000,0.000000,0.000000
1782117190.168160,1693530,-0.970215,0.025879,-0.267578,1.524390,0.121951,1.097561,-4.962500,39.337502,-2.956250,0.0,1.000000,0.000000,0.000000,0.000000
1782117190.178160,1693540,-0.971680,0.025391,-0.268555,1.402439,0.121951,1.036585,-5.006250,39.318752,-2.981250,0.0,1.000000,0.000000,0.000000,0.000000
1782117190.188160,1693550,-0.972168,0.025391,-0.265625,1.463415,0.000000,0.975610,-5.006250,39.318752,-2.981250,0.0,1.000000,0.000000,0.000000,0.000000
1782117190.198160,1693560,-0.966797,0.023926,-0.265137,1.402439,-0.060976,0.670732,-4.925000,39.412502,-2.893750,0.0,1.000000,0.000000,0.000000,0.000000
1782117190.213160,1693575,-0.964844,0.022949,-0.264648,1.646341,0.182927,0.670732,-5.012500,39.325001,-2.925000,0.0,1.000000,0.000000,0.000000,0.000000
1782117190.220160,1693582,-0.967773,0.023926,-0.264160,2.012195,0.426829,0.853659,-5.012500,39.325001,-2.925000,0.0,1.000000,0.000000,0.000000,0.000000
1782117190.229160,1693591,-0.968750,0.023438,-0.262207,2.073171,0.365854,0.914634,-4.681250,39.643749,-2.800000,0.0,1.000000,0.000000,0.000000,0.000000
1782117190.238160,1693600,-0.969238,0.023926,-0.263184,2.378049,0.121951,1.036585,-4.681250,39.643749,-2.800000,0.0,1.000000,0.000000,0.000000,0.000000
1782117190.249160,1693611,-0.968262,0.024414,-0.265137,2.682927,0.000000,1.158537,-4.893750,39.506252,-2.931250,0.0,1.000000,0.000000,0.000000,0.000000
1782117190.258160,1693620,-0.971191,0.024414,-0.268066,2.743902,0.000000,1.158537,-4.893750,39.506252,-2.931250,0.0,1.000000,0.000000,0.000000,0.000000
1782117190.269160,1693631,-0.972656,0.024902,-0.268066,2.865854,-0.060976,1.097561,-4.856250,39.500000,-2.843750,0.0,1.000000,0.000000,0.000000,0.000000
1782117190.280160,1693642,-0.969727,0.024414,-0.267578,3.109756,-0.121951,0.914634,-4.856250,39.500000,-2.843750,0.0,1.000000,0.000000,0.000000,0.000000
1782117190.288160,1693650,-0.967285,0.020020,-0.263672,3.780488,0.000000,0.792683,-4.850000,39.468750,-2.825000,0.0,1.000000,0.000000,0.000000,0.000000
1782117190.298160,1693660,-0.968750,0.018555,-0.262207,4.756098,-0.060976,0.792683,-4.850000,39.468750,-2.825000,0.0,1.000000,0.000000,0.000000,0.000000
1782117190.308160,1693670,-0.966797,0.018066,-0.261719,5.792683,-0.182927,0.975610,-4.781250,39.537502,-2.781250,0.0,1.000000,0.000000,0.000000,0.000000
1782117190.318160,1693680,-0.970215,0.019043,-0.264648,6.768293,-0.182927,1.402439,-4.781250,39.537502,-2.781250,0.0,1.000000,0.000000,0.000000,0.000000
1782117190.328160,1693690,-0.970703,0.017578,-0.269043,7.682927,-0.670732,1.890244,-4.900000,39.412502,-2.812500,0.0,1.000000,0.000000,0.000000,0.000000
1782117190.338160,1693700,-0.965820,0.011230,-0.275879,8.353659,-0.975610,1.951220,-4.900000,39.412502,-2.812500,0.0,1.000000,0.000000,0.000000,0.000000
1782117190.349160,1693711,-0.966309,0.000977,-0.283691,9.634147,-0.853659,2.256098,-4.812500,39.518749,-2.775000,0.0,1.000000,0.000000,0.000000,0.000000
1782117190.358160,1693720,-0.973633,-0.004883,-0.282715,12.012196,-0.792683,2.743902,-4.812500,39.518749,-2.775000,0.0,1.000000,0.000000,0.000000,0.000000
1782117190.368160,1693730,-0.974121,0.000000,-0.275879,14.146341,-1.463415,2.804878,-4.818750,39.437500,-2.718750,0.0,1.000000,0.000000,0.000000,0.000000
1782117190.379160,1693741,-0.968262,0.007812,-0.270020,15.548780,-1.951220,2.743902,-4.818750,39.437500,-2.718750,0.0,1.000000,0.000000,0.000000,0.000000
1782117190.388160,1693750,-0.965332,0.007324,-0.270508,16.463415,-1.829268,2.743902,-4.706250,39.493752,-2.600000,0.0,1.000000,0.000000,0.000000,0.000000
1782117190.398160,1693760,-0.965332,0.015137,-0.270508,17.195122,-1.585366,2.804878,-4.706250,39.493752,-2.600000,0.0,1.000000,0.000000,0.000000,0.000000
1782117190.409160,1693771,-0.972168,0.017578,-0.270996,17.439024,-1.646341,2.621951,-4.643750,39.518749,-2.381250,0.0,1.000000,0.000000,0.000000,0.000000
1782117190.418160,1693780,-0.973145,0.025879,-0.265625,16.524391,-1.646341,2.256098,-4.643750,39.518749,-2.381250,0.0,1.000000,0.000000,0.000000,0.000000
1782117190.428160,1693790,-0.975586,0.039062,-0.260742,14.756098,-1.585366,1.585366,-4.600000,39.506252,-2.350000,0.0,1.000000,0.000000,0.000000,0.000000
1782117190.438160,1693800,-0.972656,0.046875,-0.256836,12.500000,-1.890244,0.914634,-4.600000,39.506252,-2.350000,0.0,1.000000,0.000000,0.000000,0.000000
1782117190.448160,1693810,-0.964355,0.064453,-0.249023,9.878049,-2.134146,0.304878,-4.693750,39.400002,-2.268750,0.0,1.000000,0.000000,0.000000,0.000000
1782117190.459160,1693821,-0.957031,0.071289,-0.242188,6.646342,-1.951220,0.060976,-4.693750,39.400002,-2.268750,0.0,1.000000,0.000000,0.000000,0.000000
1782117190.468160,1693830,-0.957031,0.071289,-0.242188,6.646342,-1.951220,0.060976,-4.350000,39.781250,-2.143750,0.0,1.000000,0.000000,0.000000,0.000000
1782117190.478160,1693840,-0.954590,0.070312,-0.239746,3.048780,-1.341463,-0.182927,-4.350000,39.781250,-2.143750,0.0,1.000000,0.000000,0.000000,0.000000
1782117190.488160,1693850,-0.955566,0.059570,-0.244141,-0.426829,-0.609756,-0.243902,-4.625000,39.375000,-2.218750,0.0,1.000000,0.000000,0.000000,0.000000
1782117190.498160,1693860,-0.961914,0.043457,-0.250000,-2.926829,0.121951,-0.243902,-4.625000,39.375000,-2.218750,0.0,1.000000,0.000000,0.000000,0.000000
1782117190.508160,1693870,-0.968262,0.026855,-0.253418,-4.695122,0.609756,-0.243902,-4.662500,39.450001,-2.137500,0.0,1.000000,0.000000,0.000000,0.000000
1782117190.518160,1693880,-0.974609,0.014648,-0.252441,-5.731708,0.670732,-0.304878,-4.675000,39.462502,-2.231250,0.0,1.000000,0.000000,0.000000,0.000000
1782117190.528160,1693890,-0.977051,0.008789,-0.253418,-5.975610,0.548781,-0.304878,-4.675000,39.462502,-2.231250,0.0,1.000000,0.000000,0.000000,0.000000
1782117190.538160,1693900,-0.977539,0.004883,-0.252441,-5.365854,0.365854,-0.182927,-4.650000,39.418751,-2.225000,0.0,1.000000,0.000000,0.000000,0.000000
1782117190.548160,1693910,-0.977051,0.003418,-0.251465,-4.268293,0.182927,-0.121951,-4.650000,39.418751,-2.225000,0.0,1.000000,0.000000,0.000000,0.000000
1782117190.558160,1693920,-0.976074,0.006348,-0.251953,-3.170732,0.000000,-0.121951,-4.725000,39.418751,-2.287500,0.0,1.000000,0.000000,0.000000,0.000000
1782117190.568160,1693930,-0.975586,0.009277,-0.253418,-2.012195,-0.121951,0.060976,-4.725000,39.418751,-2.287500,0.0,1.000000,0.000000,0.000000,0.000000
1782117190.578160,1693940,-0.973633,0.013184,-0.254395,-1.158537,-0.182927,0.060976,-4.781250,39.437500,-2.281250,0.0,1.000000,0.000000,0.000000,0.000000
1782117190.588160,1693950,-0.973145,0.018066,-0.252930,-0.670732,-0.182927,0.000000,-4.781250,39.437500,-2.281250,0.0,1.000000,0.000000,0.000000,0.000000
1782117190.600160,1693962,-0.966797,0.015625,-0.251953,-0.243902,-0.365854,-0.121951,-4.756250,39.437500,-2.331250,0.0,1.000000,0.000000,0.000000,0.000000
1782117190.608160,1693970,-0.966797,0.015625,-0.251953,-0.243902,-0.365854,-0.121951,-4.756250,39.437500,-2.331250,0.0,1.000000,0.000000,0.000000,0.000000
1782117190.619160,1693981,-0.962402,0.012207,-0.254883,0.000000,0.121951,-0.426829,-4.587500,39.612499,-2.262500,0.0,1.000000,0.000000,0.000000,0.000000
1782117190.629160,1693991,-0.963379,0.010742,-0.255371,0.365854,0.670732,-0.487805,-4.587500,39.612499,-2.262500,0.0,1.000000,0.000000,0.000000,0.000000
1782117190.638160,1694000,-0.966309,0.010742,-0.251953,0.792683,0.975610,-0.304878,-4.712500,39.456249,-2.287500,0.0,1.000000,0.000000,0.000000,0.000000
1782117190.648160,1694010,-0.967773,0.007812,-0.252930,1.036585,1.036585,-0.060976,-4.712500,39.456249,-2.287500,0.0,1.000000,0.000000,0.000000,0.000000
1782117190.658160,1694020,-0.967285,0.010254,-0.255371,0.975610,1.158537,0.060976,-4.812500,39.375000,-2.331250,0.0,1.000000,0.000000,0.000000,0.000000
1782117190.668160,1694030,-0.968262,0.014648,-0.259277,0.792683,1.402439,0.243902,-4.812500,39.375000,-2.331250,0.0,1.000000,0.000000,0.000000,0.000000
1782117190.678160,1694040,-0.971680,0.014648,-0.261719,1.158537,1.707317,0.609756,-4.756250,39.487499,-2.312500,0.0,1.000000,0.000000,0.000000,0.000000
1782117190.688160,1694050,-0.973145,0.016113,-0.261719,1.829268,1.768293,0.731707,-4.756250,39.487499,-2.312500,0.0,1.000000,0.000000,0.000000,0.000000
1782117190.698160,1694060,-0.975586,0.018066,-0.259277,2.439024,1.585366,0.670732,-4.775000,39.437500,-2.375000,0.0,1.000000,0.000000,0.000000,0.000000
1782117190.708160,1694070,-0.975586,0.019531,-0.253906,2.987805,1.341463,0.548781,-4.775000,39.437500,-2.375000,0.0,1.000000,0.000000,0.000000,0.000000
1782117190.718160,1694080,-0.975586,0.019043,-0.250977,3.170732,1.158537,0.304878,-4.900000,39.368752,-2.400000,0.0,1.000000,0.000000,0.000000,0.000000
1782117190.729160,1694091,-0.971191,0.019531,-0.250000,3.292683,1.036585,0.000000,-4.900000,39.368752,-2.400000,0.0,1.000000,0.000000,0.000000,0.000000
1782117190.738160,1694100,-0.967285,0.019043,-0.255371,3.414634,1.341463,-0.060976,-4.581250,39.674999,-2.306250,0.0,1.000000,0.000000,0.000000,0.000000
1782117190.748160,1694110,-0.964355,0.019531,-0.264648,3.475610,1.890244,0.182927,-4.581250,39.674999,-2.306250,0.0,1.000000,0.000000,0.000000,0.000000
1782117190.758160,1694120,-0.963867,0.022461,-0.273926,3.170732,2.439024,0.304878,-4.837500,39.412502,-2.362500,0.0,1.000000,0.000000,0.000000,0.000000
1782117190.768160,1694130,-0.963379,0.020020,-0.282227,2.682927,2.804878,0.487805,-4.837500,39.412502,-2.362500,0.0,1.000000,0.000000,0.000000,0.000000
1782117190.779160,1694141,-0.963379,0.017090,-0.281250,2.560976,2.743902,0.548781,-4.900000,39.362499,-2.456250,0.0,1.000000,0.000000,0.000000,0.000000
1782117190.789160,1694151,-0.965332,0.013184,-0.274414,2.743902,2.560976,0.548781,-4.812500,39.493752,-2.431250,0.0,1.000000,0.000000,0.000000,0.000000
1782117190.799160,1694161,-0.967773,0.011230,-0.267090,3.048780,2.195122,0.487805,-4.812500,39.493752,-2.431250,0.0,1.000000,0.000000,0.000000,0.000000
1782117190.808160,1694170,-0.967773,0.007812,-0.262207,3.597561,1.951220,0.487805,-4.831250,39.424999,-2.425000,0.0,1.000000,0.000000,0.000000,0.000000
1782117190.818160,1694180,-0.968262,0.007324,-0.262207,3.902439,2.012195,0.487805,-4.831250,39.424999,-2.425000,0.0,1.000000,0.000000,0.000000,0.000000
1782117190.828160,1694190,-0.972168,0.009766,-0.268066,4.024390,2.195122,0.670732,-4.706250,39.568752,-2.431250,0.0,1.000000,0.000000,0.000000,0.000000
1782117190.838160,1694200,-0.974121,0.011719,-0.270508,3.597561,2.195122,0.670732,-4.706250,39.568752,-2.431250,0.0,1.000000,0.000000,0.000000,0.000000
1782117190.849160,1694211,-0.970703,0.014648,-0.268066,2.926829,1.890244,0.365854,-4.812500,39.487499,-2.437500,0.0,1.000000,0.000000,0.000000,0.000000
1782117190.861160,1694223,-0.971191,0.016113,-0.267578,2.743902,1.585366,0.243902,-4.812500,39.487499,-2.437500,0.0,1.000000,0.000000,0.000000,0.000000
1782117190.869160,1694231,-0.969727,0.014648,-0.263672,2.865854,1.097561,0.060976,-4.800000,39.487499,-2.531250,0.0,1.000000,0.000000,0.000000,0.000000
1782117190.878160,1694240,-0.968750,0.010254,-0.260742,3.353659,0.792683,-0.060976,-4.800000,39.487499,-2.531250,0.0,1.000000,0.000000,0.000000,0.000000
1782117190.888160,1694250,-0.968750,0.007324,-0.261230,3.658537,0.548781,-0.243902,-4.775000,39.506252,-2.462500,0.0,1.000000,0.000000,0.000000,0.000000
1782117190.901160,1694263,-0.969238,0.002441,-0.263184,4.268293,0.487805,-0.365854,-4.775000,39.506252,-2.462500,0.0,1.000000,0.000000,0.000000,0.000000
1782117190.908160,1694270,-0.966309,0.000977,-0.265625,4.573171,0.731707,-0.487805,-4.625000,39.706249,-2.393750,0.0,1.000000,0.000000,0.000000,0.000000
1782117190.918160,1694280,-0.963867,-0.000488,-0.265137,5.609756,1.158537,-0.548781,-4.625000,39.706249,-2.393750,0.0,1.000000,0.000000,0.000000,0.000000
1782117190.928160,1694290,-0.961914,-0.001465,-0.262207,6.951220,2.134146,-0.853659,-4.868750,39.431252,-2.400000,0.0,1.000000,0.000000,0.000000,0.000000
1782117190.939160,1694301,-0.973145,0.000000,-0.260254,8.109756,3.353659,-1.463415,-4.868750,39.431252,-2.400000,0.0,1.000000,0.000000,0.000000,0.000000
1782117190.949160,1694311,-0.988281,0.000000,-0.263672,10.121951,3.536585,-2.134146,-4.875000,39.406250,-2.418750,0.0,1.000000,0.000000,0.000000,0.000000
1782117190.958160,1694320,-0.998047,-0.000488,-0.268066,13.170732,2.804878,-2.560976,-4.875000,39.406250,-2.418750,0.0,1.000000,0.000000,0.000000,0.000000
1782117190.968160,1694330,-0.997559,0.000488,-0.274414,16.463415,0.426829,-2.378049,-4.631250,39.681252,-2.393750,0.0,1.000000,0.000000,0.000000,0.000000
1782117190.981160,1694343,-0.987305,0.016602,-0.286133,19.329269,-3.048780,-1.280488,-4.631250,39.681252,-2.393750,0.0,1.000000,0.000000,0.000000,0.000000
1782117190.988160,1694350,-0.967773,0.025391,-0.294434,21.341463,-4.878049,0.060976,-4.787500,39.531250,-2.275000,0.0,1.000000,0.000000,0.000000,0.000000
1782117190.998160,1694360,-0.969238,0.010742,-0.301270,21.768293,-5.548780,0.487805,-4.787500,39.531250,-2.275000,0.0,1.000000,0.000000,0.000000,0.000000
1782117191.008160,1694370,-0.975586,-0.004883,-0.297363,22.195122,-5.243903,0.609756,-4.881250,39.443752,-2.150000,0.0,1.000000,0.000000,0.000000,0.000000
1782117191.022160,1694384,-1.005859,-0.027344,-0.273926,23.109756,-3.231707,1.219512,-4.818750,39.443752,-1.975000,0.0,1.000000,0.000000,0.000000,0.000000
1782117191.029160,1694391,-1.026367,-0.029785,-0.260254,23.536587,-4.329268,1.402439,-4.818750,39.443752,-1.975000,0.0,1.000000,0.000000,0.000000,0.000000
1782117191.039160,1694401,-1.011719,-0.007324,-0.237305,23.780489,-5.121951,0.487805,-4.818750,39.443752,-1.975000,0.0,1.000000,0.000000,0.000000,0.000000
1782117191.048160,1694410,-1.002930,0.008301,-0.223633,22.378050,-5.975610,-0.426829,-4.731250,39.356251,-1.806250,0.0,1.000000,0.000000,0.000000,0.000000
1782117191.060160,1694422,-0.983887,0.026367,-0.229492,20.792683,-6.890244,-0.670732,-4.731250,39.356251,-1.806250,0.0,1.000000,0.000000,0.000000,0.000000
1782117191.068160,1694430,-0.959473,0.043457,-0.240234,19.390244,-7.195122,-0.060976,-4.675000,39.337502,-1.625000,0.0,1.000000,0.000000,0.000000,0.000000
1782117191.078160,1694440,-0.957031,0.050781,-0.252930,18.170732,-6.768293,1.402439,-4.675000,39.337502,-1.625000,0.0,1.000000,0.000000,0.000000,0.000000
1782117191.088160,1694450,-0.964844,0.048828,-0.271973,17.134148,-6.951220,3.170732,-4.631250,39.362499,-1.418750,0.0,1.000000,0.000000,0.000000,0.000000
1782117191.101160,1694463,-0.968750,0.044922,-0.288574,14.573171,-7.560976,3.536585,-4.618750,39.350002,-1.250000,0.0,1.000000,0.000000,0.000000,0.000000
1782117191.108160,1694470,-0.963867,0.041504,-0.289551,10.243902,-7.621952,2.804878,-4.618750,39.350002,-1.250000,0.0,1.000000,0.000000,0.000000,0.000000
1782117191.118160,1694480,-0.956055,0.034180,-0.289062,5.243903,-7.256098,1.463415,-4.506250,39.393749,-1.175000,0.0,1.000000,0.000000,0.000000,0.000000
1782117191.128160,1694490,-0.946777,0.027832,-0.286621,1.341463,-6.280488,0.182927,-4.506250,39.393749,-1.175000,0.0,1.000000,0.000000,0.000000,0.000000
1782117191.140160,1694502,-0.934570,0.018555,-0.280762,-1.463415,-5.182927,-0.365854,-4.593750,39.306252,-1.150000,0.0,1.000000,0.000000,0.000000,0.000000
1782117191.148160,1694510,-0.926758,0.003906,-0.285645,-3.170732,-3.292683,-0.060976,-4.593750,39.306252,-1.150000,0.0,1.000000,0.000000,0.000000,0.000000
1782117191.158160,1694520,-0.915527,-0.013672,-0.298340,-4.329268,-1.341463,0.487805,-4.606250,39.243752,-1.037500,0.0,1.000000,0.000000,0.000000,0.000000
1782117191.171160,1694533,-0.913086,-0.030762,-0.316406,-4.939024,0.548781,0.853659,-4.606250,39.243752,-1.037500,0.0,1.000000,0.000000,0.000000,0.000000
1782117191.181160,1694543,-0.912598,-0.035156,-0.328613,-5.060976,1.890244,0.731707,-4.575000,39.306252,-1.037500,0.0,1.000000,0.000000,0.000000,0.000000
1782117191.189160,1694551,-0.911621,-0.025879,-0.333984,-5.548780,3.475610,0.548781,-4.575000,39.306252,-1.037500,0.0,1.000000,0.000000,0.000000,0.000000
1782117191.198160,1694560,-0.907227,-0.014160,-0.335449,-7.317073,4.817073,0.243902,-4.525000,39.387501,-1.156250,0.0,1.000000,0.000000,0.000000,0.000000
1782117191.208160,1694570,-0.897949,-0.007812,-0.332031,-10.121951,6.280488,-0.304878,-4.525000,39.387501,-1.156250,0.0,1.000000,0.000000,0.000000,0.000000
1782117191.220160,1694582,-0.892578,-0.011719,-0.331055,-12.682927,8.170732,-0.670732,-4.612500,39.318752,-1.243750,0.0,1.000000,0.000000,0.000000,0.000000
1782117191.228160,1694590,-0.896973,-0.015625,-0.333008,-13.658537,9.939025,-0.670732,-4.612500,39.318752,-1.243750,0.0,1.000000,0.000000,0.000000,0.000000
1782117191.238160,1694600,-0.901855,-0.023926,-0.328613,-13.597561,11.524390,-0.243902,-4.637500,39.418751,-1.443750,0.0,1.000000,0.000000,0.000000,0.000000
1782117191.248160,1694610,-0.915039,-0.041992,-0.324219,-13.841464,13.109756,0.548781,-4.637500,39.418751,-1.443750,0.0,1.000000,0.000000,0.000000,0.000000
1782117191.260160,1694622,-0.937988,-0.058594,-0.323242,-14.390244,13.841464,1.158537,-4.631250,39.481251,-1.693750,0.0,1.000000,0.000000,0.000000,0.000000
1782117191.269160,1694631,-0.965332,-0.067383,-0.311523,-14.207317,13.353659,1.097561,-4.631250,39.481251,-1.693750,0.0,1.000000,0.000000,0.000000,0.000000
1782117191.279160,1694641,-0.981934,-0.072754,-0.292969,-13.353659,11.890244,-0.060976,-4.643750,39.537502,-1.950000,0.0,1.000000,0.000000,0.000000,0.000000
1782117191.288160,1694650,-0.984863,-0.068359,-0.271484,-12.134147,10.243902,-1.768293,-4.643750,39.537502,-1.950000,0.0,1.000000,0.000000,0.000000,0.000000
1782117191.301160,1694663,-0.982422,-0.040527,-0.248047,-11.219512,8.536586,-3.475610,-4.725000,39.549999,-2.168750,0.0,1.000000,0.000000,0.000000,0.000000
1782117191.308160,1694670,-0.987305,-0.020508,-0.220215,-11.646341,7.317073,-4.390244,-4.725000,39.549999,-2.168750,0.0,1.000000,0.000000,0.000000,0.000000
1782117191.318160,1694680,-1.001465,0.004883,-0.207520,-13.414635,5.914634,-4.451220,-4.768750,39.606251,-2.368750,0.0,1.000000,0.000000,0.000000,0.000000
1782117191.328160,1694690,-1.016113,0.031250,-0.199219,-15.792684,4.024390,-4.207317,-4.768750,39.606251,-2.368750,0.0,1.000000,0.000000,0.000000,0.000000
1782117191.341160,1694703,-1.021973,0.060059,-0.192383,-17.926830,1.463415,-3.414634,-4.943750,39.525002,-2.500000,0.0,1.000000,0.000000,0.000000,0.000000
1782117191.348160,1694710,-1.021973,0.060059,-0.192383,-17.926830,1.463415,-3.414634,-4.943750,39.525002,-2.500000,0.0,1.000000,0.000000,0.000000,0.000000
1782117191.358160,1694720,-1.015137,0.066895,-0.194336,-20.000000,-0.670732,-2.317073,-4.987500,39.549999,-2.612500,0.0,1.000000,0.000000,0.000000,0.000000
1782117191.368160,1694730,-1.004395,0.058594,-0.206055,-20.975611,-2.256098,-1.219512,-4.987500,39.549999,-2.612500,0.0,1.000000,0.000000,0.000000,0.000000
1782117191.381160,1694743,-0.993164,0.029297,-0.238770,-17.012196,-2.500000,1.280488,-5.131250,39.531250,-2.762500,0.0,1.000000,0.000000,0.000000,0.000000
1782117191.388160,1694750,-0.993164,0.029297,-0.238770,-17.012196,-2.500000,1.280488,-5.075000,39.581249,-2.856250,0.0,1.000000,0.000000,0.000000,0.000000
1782117191.399160,1694761,-0.994629,0.007812,-0.250977,-13.231708,-1.829268,2.317073,-5.075000,39.581249,-2.856250,0.0,1.000000,0.000000,0.000000,0.000000
1782117191.410160,1694772,-0.992188,-0.015137,-0.257324,-9.939025,-1.585366,2.560976,-5.081250,39.518749,-2.887500,0.0,1.000000,0.000000,0.000000,0.000000
1782117191.419160,1694781,-0.978516,-0.033203,-0.267090,-7.500000,-1.158537,2.195122,-5.081250,39.518749,-2.887500,0.0,1.000000,0.000000,0.000000,0.000000
1782117191.428160,1694790,-0.967773,-0.046387,-0.275879,-5.548780,-0.121951,1.707317,-5.106250,39.562500,-2.956250,0.0,1.000000,0.000000,0.000000,0.000000
1782117191.439160,1694801,-0.964355,-0.053711,-0.280273,-3.841464,1.219512,1.524390,-5.106250,39.562500,-2.956250,0.0,1.000000,0.000000,0.000000,0.000000
1782117191.448160,1694810,-0.970703,-0.054688,-0.282227,-2.439024,1.890244,1.524390,-5.143750,39.443752,-2.906250,0.0,1.000000,0.000000,0.000000,0.000000
1782117191.458160,1694820,-0.975098,-0.047363,-0.280762,-0.792683,1.768293,1.585366,-5.143750,39.443752,-2.906250,0.0,1.000000,0.000000,0.000000,0.000000
1782117191.468160,1694830,-0.973145,-0.032715,-0.275879,0.792683,1.341463,1.829268,-5.006250,39.581249,-2.931250,0.0,1.000000,0.000000,0.000000,0.000000
1782117191.478160,1694840,-0.968750,-0.022461,-0.274902,2.012195,0.914634,2.256098,-5.006250,39.581249,-2.931250,0.0,1.000000,0.000000,0.000000,0.000000
1782117191.488160,1694850,-0.969727,-0.007324,-0.273926,3.231707,0.853659,2.621951,-5.037500,39.562500,-2.893750,0.0,1.000000,0.000000,0.000000,0.000000
1782117191.498160,1694860,-0.969238,0.006348,-0.270996,4.573171,0.670732,2.743902,-5.037500,39.562500,-2.893750,0.0,1.000000,0.000000,0.000000,0.000000
1782117191.509160,1694871,-0.973145,0.013184,-0.270020,5.914634,0.487805,2.743902,-5.081250,39.531250,-2.918750,0.0,1.000000,0.000000,0.000000,0.000000
1782117191.518160,1694880,-0.980469,0.018066,-0.268555,6.158537,0.243902,2.317073,-5.081250,39.531250,-2.918750,0.0,1.000000,0.000000,0.000000,0.000000
1782117191.528160,1694890,-0.975586,0.027344,-0.271484,5.914634,-0.182927,1.585366,-4.950000,39.537502,-2.862500,0.0,1.000000,0.000000,0.000000,0.000000
1782117191.539160,1694901,-0.965332,0.033203,-0.271973,5.365854,-0.121951,0.914634,-4.950000,39.537502,-2.862500,0.0,1.000000,0.000000,0.000000,0.000000
1782117191.548160,1694910,-0.959961,0.037109,-0.273926,4.085366,0.609756,0.304878,-4.975000,39.587502,-2.925000,0.0,1.000000,0.000000,0.000000,0.000000
1782117191.558160,1694920,-0.951660,0.038086,-0.282227,1.829268,1.402439,0.060976,-4.975000,39.587502,-2.925000,0.0,1.000000,0.000000,0.000000,0.000000
1782117191.568160,1694930,-0.944824,0.037598,-0.291992,-0.670732,2.500000,-0.121951,-4.900000,39.706249,-2.900000,0.0,1.000000,0.000000,0.000000,0.000000
1782117191.578160,1694940,-0.942383,0.034180,-0.300781,-3.231707,3.475610,-0.182927,-4.900000,39.706249,-2.900000,0.0,1.000000,0.000000,0.000000,0.000000
1782117191.589160,1694951,-0.946777,0.025391,-0.304199,-4.817073,4.573171,0.121951,-4.631250,39.912502,-2.887500,0.0,1.000000,0.000000,0.000000,0.000000
1782117191.598160,1694960,-0.960938,0.019043,-0.300293,-5.670732,4.756098,0.426829,-4.631250,39.912502,-2.887500,0.0,1.000000,0.000000,0.000000,0.000000
1782117191.608160,1694970,-0.968750,0.009766,-0.288574,-5.426829,4.207317,0.731707,-5.075000,39.556252,-3.075000,0.0,1.000000,0.000000,0.000000,0.000000
1782117191.618160,1694980,-0.976074,-0.002441,-0.280273,-4.817073,3.597561,0.914634,-5.075000,39.556252,-3.075000,0.0,1.000000,0.000000,0.000000,0.000000
1782117191.628160,1694990,-0.980469,-0.009277,-0.275391,-3.841464,2.682927,1.097561,-5.112500,39.437500,-3.131250,0.0,1.000000,0.000000,0.000000,0.000000
1782117191.640160,1695002,-0.978027,-0.010254,-0.272949,-3.109756,1.707317,1.036585,-4.875000,39.806252,-3.162500,0.0,1.000000,0.000000,0.000000,0.000000
1782117191.649160,1695011,-0.975586,-0.009277,-0.276367,-2.743902,1.158537,0.670732,-4.875000,39.806252,-3.162500,0.0,1.000000,0.000000,0.000000,0.000000
1782117191.658160,1695020,-0.974609,-0.003418,-0.279297,-2.256098,1.097561,0.365854,-4.875000,39.806252,-3.162500,0.0,1.000000,0.000000,0.000000,0.000000
1782117191.668160,1695030,-0.975098,-0.000488,-0.279785,-2.012195,0.670732,-0.182927,-5.081250,39.600002,-3.193750,0.0,1.000000,0.000000,0.000000,0.000000
1782117191.679160,1695041,-0.965820,0.010254,-0.278320,-1.890244,0.365854,-0.609756,-5.118750,39.593750,-3.293750,0.0,1.000000,0.000000,0.000000,0.000000
1782117191.691160,1695053,-0.960938,0.021973,-0.277344,-1.585366,0.304878,-0.609756,-5.118750,39.593750,-3.293750,0.0,1.000000,0.000000,0.000000,0.000000
1782117191.698160,1695060,-0.956055,0.029297,-0.274414,-1.524390,0.426829,-0.365854,-5.131250,39.562500,-3.268750,0.0,1.000000,0.000000,0.000000,0.000000
1782117191.708160,1695070,-0.952148,0.028320,-0.274414,-2.012195,0.731707,-0.060976,-5.131250,39.562500,-3.268750,0.0,1.000000,0.000000,0.000000,0.000000
1782117191.718160,1695080,-0.954590,0.026367,-0.276367,-2.987805,1.158537,0.121951,-5.081250,39.625000,-3.268750,0.0,1.000000,0.000000,0.000000,0.000000
1782117191.728160,1695090,-0.956543,0.017578,-0.273926,-3.658537,1.524390,0.304878,-5.081250,39.625000,-3.268750,0.0,1.000000,0.000000,0.000000,0.000000
1782117191.738160,1695100,-0.961914,0.009766,-0.274902,-3.841464,1.829268,0.487805,-5.106250,39.575001,-3.331250,0.0,1.000000,0.000000,0.000000,0.000000
1782117191.748160,1695110,-0.968750,0.000977,-0.276855,-3.170732,1.951220,0.975610,-5.106250,39.575001,-3.331250,0.0,1.000000,0.000000,0.000000,0.000000
1782117191.758160,1695120,-0.975098,-0.007812,-0.278320,-2.439024,1.768293,1.219512,-5.075000,39.693752,-3.368750,0.0,1.000000,0.000000,0.000000,0.000000
1782117191.768160,1695130,-0.972656,-0.012207,-0.278320,-1.280488,1.341463,1.341463,-5.075000,39.693752,-3.368750,0.0,1.000000,0.000000,0.000000,0.000000
1782117191.779160,1695141,-0.966309,-0.015625,-0.279297,0.182927,1.219512,1.524390,-5.143750,39.668751,-3.337500,0.0,1.000000,0.000000,0.000000,0.000000
1782117191.789160,1695151,-0.962402,-0.016602,-0.283203,1.219512,1.280488,1.463415,-5.143750,39.668751,-3.337500,0.0,1.000000,0.000000,0.000000,0.000000
1782117191.798160,1695160,-0.962402,-0.008301,-0.288086,2.073171,1.402439,1.341463,-5.125000,39.668751,-3.462500,0.0,1.000000,0.000000,0.000000,0.000000
1782117191.808160,1695170,-0.967285,0.000000,-0.291016,2.926829,1.158537,1.463415,-5.125000,39.668751,-3.462500,0.0,1.000000,0.000000,0.000000,0.000000
1782117191.818160,1695180,-0.967285,0.009766,-0.293457,3.536585,0.609756,1.646341,-5.131250,39.562500,-3.393750,0.0,1.000000,0.000000,0.000000,0.000000
1782117191.830160,1695192,-0.965820,0.014648,-0.298340,3.475610,0.304878,1.646341,-5.131250,39.562500,-3.393750,0.0,1.000000,0.000000,0.000000,0.000000
1782117191.838160,1695200,-0.966309,0.019531,-0.302734,3.048780,0.000000,1.646341,-4.906250,39.875000,-3.325000,0.0,1.000000,0.000000,0.000000,0.000000
1782117191.848160,1695210,-0.956055,0.024414,-0.305664,2.134146,-0.060976,1.341463,-4.906250,39.875000,-3.325000,0.0,1.000000,0.000000,0.000000,0.000000
1782117191.858160,1695220,-0.944824,0.025391,-0.306152,1.219512,0.487805,0.975610,-5.156250,39.575001,-3.475000,0.0,1.000000,0.000000,0.000000,0.000000
1782117191.868160,1695230,-0.944336,0.021484,-0.300781,0.548781,1.280488,0.975610,-5.156250,39.575001,-3.475000,0.0,1.000000,0.000000,0.000000,0.000000
1782117191.878160,1695240,-0.946777,0.013672,-0.296875,-0.243902,1.707317,1.036585,-5.131250,39.612499,-3.425000,0.0,1.000000,0.000000,0.000000,0.000000
1782117191.889160,1695251,-0.954102,0.003906,-0.297363,-0.792683,1.829268,1.097561,-5.131250,39.612499,-3.425000,0.0,1.000000,0.000000,0.000000,0.000000
1782117191.898160,1695260,-0.964844,0.002441,-0.296875,-1.219512,1.768293,1.219512,-4.943750,39.825001,-3.356250,0.0,1.000000,0.000000,0.000000,0.000000
1782117191.909160,1695271,-0.967773,-0.000488,-0.290527,-1.402439,0.853659,1.280488,-4.943750,39.825001,-3.356250,0.0,1.000000,0.000000,0.000000,0.000000
1782117191.918160,1695280,-0.965332,-0.003418,-0.285156,-1.158537,0.243902,1.280488,-5.025000,39.700001,-3.425000,0.0,1.000000,0.000000,0.000000,0.000000
1782117191.928160,1695290,-0.967773,-0.003906,-0.283203,-0.304878,-0.060976,1.463415,-5.025000,39.700001,-3.425000,0.0,1.000000,0.000000,0.000000,0.000000
1782117191.938160,1695300,-0.968750,-0.004395,-0.286133,0.426829,-0.365854,1.646341,-5.150000,39.568752,-3.525000,0.0,1.000000,0.000000,0.000000,0.000000
1782117191.948160,1695310,-0.968750,-0.004883,-0.289551,0.975610,-0.487805,1.646341,-5.150000,39.568752,-3.525000,0.0,1.000000,0.000000,0.000000,0.000000
1782117191.958160,1695320,-0.966797,0.000488,-0.291992,1.158537,-0.426829,1.524390,-4.993750,39.756252,-3.412500,0.0,1.000000,0.000000,0.000000,0.000000
1782117191.968160,1695330,-0.964844,0.007324,-0.288574,0.853659,-0.365854,1.280488,-4.993750,39.756252,-3.412500,0.0,1.000000,0.000000,0.000000,0.000000
1782117191.978160,1695340,-0.960938,0.013672,-0.285156,0.243902,-0.182927,1.036585,-5.112500,39.637501,-3.456250,0.0,1.000000,0.000000,0.000000,0.000000
1782117191.989160,1695351,-0.960938,0.017578,-0.283691,-0.426829,-0.121951,0.975610,-5.031250,39.706249,-3.431250,0.0,1.000000,0.000000,0.000000,0.000000
1782117191.998160,1695360,-0.958984,0.017090,-0.282715,-0.975610,-0.121951,0.975610,-5.031250,39.706249,-3.431250,0.0,1.000000,0.000000,0.000000,0.000000
1782117192.008160,1695370,-0.959961,0.016113,-0.282715,-1.219512,-0.182927,1.097561,-5.087500,39.668751,-3.481250,0.0,1.000000,0.000000,0.000000,0.000000
1782117192.018160,1695380,-0.960449,0.012695,-0.283203,-1.402439,-0.304878,1.280488,-5.087500,39.668751,-3.481250,0.0,1.000000,0.000000,0.000000,0.000000
1782117192.028160,1695390,-0.963379,0.007324,-0.282227,-1.280488,-0.548781,1.463415,-4.962500,39.787502,-3.375000,0.0,1.000000,0.000000,0.000000,0.000000
1782117192.038160,1695400,-0.962891,0.004883,-0.284180,-0.975610,-0.792683,1.524390,-4.962500,39.787502,-3.375000,0.0,1.000000,0.000000,0.000000,0.000000
1782117192.048160,1695410,-0.962891,0.003906,-0.287109,-0.426829,-0.914634,1.646341,-5.112500,39.625000,-3.443750,0.0,1.000000,0.000000,0.000000,0.000000
1782117192.058160,1695420,-0.961426,0.002930,-0.287109,0.121951,-0.975610,1.768293,-5.112500,39.625000,-3.443750,0.0,1.000000,0.000000,0.000000,0.000000
1782117192.068160,1695430,-0.960449,0.001465,-0.290039,1.097561,-0.914634,1.890244,-4.881250,39.831249,-3.400000,0.0,1.000000,0.000000,0.000000,0.000000
1782117192.078160,1695440,-0.961914,-0.000488,-0.293457,2.134146,-0.609756,2.012195,-4.881250,39.831249,-3.400000,0.0,1.000000,0.000000,0.000000,0.000000
1782117192.088160,1695450,-0.963379,-0.001465,-0.295410,2.987805,-0.365854,1.951220,-5.025000,39.668751,-3.418750,0.0,1.000000,0.000000,0.000000,0.000000
1782117192.098160,1695460,-0.963379,0.000000,-0.295410,3.475610,-0.365854,1.707317,-5.025000,39.668751,-3.418750,0.0,1.000000,0.000000,0.000000,0.000000
1782117192.108160,1695470,-0.962891,0.003418,-0.291992,3.719512,-0.426829,1.463415,-4.987500,39.712502,-3.393750,0.0,1.000000,0.000000,0.000000,0.000000
1782117192.120160,1695482,-0.961426,0.008301,-0.293945,3.780488,-0.487805,1.463415,-4.987500,39.712502,-3.393750,0.0,1.000000,0.000000,0.000000,0.000000
1782117192.128160,1695490,-0.961914,0.014160,-0.292480,3.597561,-0.670732,1.463415,-4.862500,39.806252,-3.400000,0.0,1.000000,0.000000,0.000000,0.000000
1782117192.138160,1695500,-0.959473,0.019531,-0.291016,3.231707,-0.792683,1.524390,-4.862500,39.806252,-3.400000,0.0,1.000000,0.000000,0.000000,0.000000
1782117192.148160,1695510,-0.958008,0.022461,-0.289551,2.987805,-0.853659,1.646341,-5.006250,39.693752,-3.368750,0.0,1.000000,0.000000,0.000000,0.000000
1782117192.158160,1695520,-0.959473,0.021484,-0.289062,3.048780,-0.914634,1.829268,-5.006250,39.693752,-3.368750,0.0,1.000000,0.000000,0.000000,0.000000
1782117192.168160,1695530,-0.959473,0.021484,-0.289062,3.048780,-0.914634,1.829268,-4.875000,39.737499,-3.343750,0.0,1.000000,0.000000,0.000000,0.000000
1782117192.179160,1695541,-0.960938,0.017090,-0.290039,1.890244,-0.975610,1.585366,-4.875000,39.737499,-3.343750,0.0,1.000000,0.000000,0.000000,0.000000
1782117192.188160,1695550,-0.960938,0.017090,-0.290039,1.890244,-0.975610,1.585366,-4.975000,39.668751,-3.306250,0.0,1.000000,0.000000,0.000000,0.000000
1782117192.198160,1695560,-0.962891,0.015137,-0.290039,1.219512,-0.792683,1.524390,-4.975000,39.668751,-3.306250,0.0,1.000000,0.000000,0.000000,0.000000
1782117192.208160,1695570,-0.962891,0.016113,-0.288574,0.975610,-0.853659,1.341463,-4.987500,39.674999,-3.312500,0.0,1.000000,0.000000,0.000000,0.000000
1782117192.218160,1695580,-0.958984,0.016113,-0.289062,0.731707,-0.853659,1.280488,-4.987500,39.674999,-3.312500,0.0,1.000000,0.000000,0.000000,0.000000
1782117192.229160,1695591,-0.957031,0.016113,-0.287109,0.548781,-0.487805,1.341463,-5.000000,39.631252,-3.337500,0.0,1.000000,0.000000,0.000000,0.000000
1782117192.238160,1695600,-0.958008,0.015625,-0.290527,0.243902,-0.304878,1.402439,-5.000000,39.631252,-3.337500,0.0,1.000000,0.000000,0.000000,0.000000
1782117192.249160,1695611,-0.958984,0.013672,-0.292480,-0.121951,-0.060976,1.402439,-4.968750,39.681252,-3.318750,0.0,1.000000,0.000000,0.000000,0.000000
1782117192.258160,1695620,-0.962891,0.014648,-0.293457,-0.304878,-0.060976,1.341463,-4.968750,39.681252,-3.318750,0.0,1.000000,0.000000,0.000000,0.000000
1782117192.270160,1695632,-0.962891,0.012207,-0.294922,-0.304878,-0.304878,1.341463,-4.993750,39.606251,-3.325000,0.0,1.000000,0.000000,0.000000,0.000000
1782117192.278160,1695640,-0.962891,0.010742,-0.298340,0.060976,-0.426829,1.219512,-4.868750,39.812500,-3.231250,0.0,1.000000,0.000000,0.000000,0.000000
1782117192.288160,1695650,-0.962891,0.012695,-0.297363,0.487805,-0.426829,1.158537,-4.868750,39.812500,-3.231250,0.0,1.000000,0.000000,0.000000,0.000000
1782117192.298160,1695660,-0.958984,0.013184,-0.293457,0.853659,-0.548781,1.036585,-4.718750,39.950001,-3.262500,0.0,1.000000,0.000000,0.000000,0.000000
1782117192.308160,1695670,-0.956055,0.014160,-0.288574,0.853659,-0.487805,1.036585,-4.718750,39.950001,-3.262500,0.0,1.000000,0.000000,0.000000,0.000000
1782117192.318160,1695680,-0.956543,0.015137,-0.289551,0.853659,-0.304878,1.158537,-4.943750,39.737499,-3.300000,0.0,1.000000,0.000000,0.000000,0.000000
1782117192.328160,1695690,-0.958008,0.016113,-0.290039,0.731707,-0.121951,1.402439,-4.943750,39.737499,-3.300000,0.0,1.000000,0.000000,0.000000,0.000000
1782117192.338160,1695700,-0.960938,0.015137,-0.291992,0.731707,-0.060976,1.524390,-4.881250,39.731251,-3.287500,0.0,1.000000,0.000000,0.000000,0.000000
1782117192.349160,1695711,-0.962402,0.014160,-0.294434,0.731707,-0.060976,1.524390,-4.881250,39.731251,-3.287500,0.0,1.000000,0.000000,0.000000,0.000000
1782117192.358160,1695720,-0.964355,0.013184,-0.293945,0.731707,-0.182927,1.280488,-4.837500,39.799999,-3.218750,0.0,1.000000,0.000000,0.000000,0.000000
1782117192.368160,1695730,-0.964355,0.013184,-0.290039,0.670732,-0.365854,0.975610,-4.837500,39.799999,-3.218750,0.0,1.000000,0.000000,0.000000,0.000000
1782117192.378160,1695740,-0.963379,0.014160,-0.287598,0.487805,-0.426829,0.792683,-4.937500,39.768749,-3.306250,0.0,1.000000,0.000000,0.000000,0.000000
1782117192.391160,1695753,-0.960938,0.015137,-0.285156,0.487805,-0.426829,0.731707,-4.937500,39.768749,-3.306250,0.0,1.000000,0.000000,0.000000,0.000000
1782117192.398160,1695760,-0.959961,0.017090,-0.284180,0.304878,-0.243902,0.792683,-4.868750,39.812500,-3.250000,0.0,1.000000,0.000000,0.000000,0.000000
1782117192.409160,1695771,-0.959961,0.020020,-0.285645,0.060976,-0.060976,1.036585,-4.868750,39.812500,-3.250000,0.0,1.000000,0.000000,0.000000,0.000000
1782117192.418160,1695780,-0.960449,0.018555,-0.288086,-0.060976,0.060976,1.158537,-4.868750,39.799999,-3.281250,0.0,1.000000,0.000000,0.000000,0.000000
1782117192.430160,1695792,-0.959961,0.015625,-0.289551,0.000000,0.243902,1.158537,-4.868750,39.799999,-3.281250,0.0,1.000000,0.000000,0.000000,0.000000
1782117192.439160,1695801,-0.962891,0.012695,-0.288574,0.304878,0.365854,1.097561,-4.800000,39.812500,-3.250000,0.0,1.000000,0.000000,0.000000,0.000000
1782117192.449160,1695811,-0.966797,0.012695,-0.286621,0.548781,0.243902,0.975610,-4.800000,39.812500,-3.250000,0.0,1.000000,0.000000,0.000000,0.000000
1782117192.459160,1695821,-0.966309,0.010742,-0.285156,0.792683,0.243902,0.975610,-4.906250,39.756252,-3.256250,0.0,1.000000,0.000000,0.000000,0.000000
1782117192.470160,1695832,-0.964355,0.010742,-0.283691,1.097561,-0.060976,1.036585,-4.906250,39.756252,-3.256250,0.0,1.000000,0.000000,0.000000,0.000000
1782117192.478160,1695840,-0.959961,0.011230,-0.285156,1.219512,-0.243902,1.097561,-4.837500,39.737499,-3.343750,0.0,1.000000,0.000000,0.000000,0.000000
1782117192.488160,1695850,-0.959961,0.010742,-0.286133,1.158537,-0.121951,1.036585,-4.837500,39.737499,-3.343750,0.0,1.000000,0.000000,0.000000,0.000000
1782117192.500160,1695862,-0.961914,0.011719,-0.287598,1.036585,-0.060976,1.158537,-4.862500,39.725002,-3.325000,0.0,1.000000,0.000000,0.000000,0.000000
1782117192.510160,1695872,-0.962891,0.010254,-0.287598,1.097561,0.000000,0.975610,-4.862500,39.725002,-3.325000,0.0,1.000000,0.000000,0.000000,0.000000
1782117192.518160,1695880,-0.961426,0.008789,-0.285645,1.097561,0.182927,0.792683,-4.787500,39.843750,-3.268750,0.0,1.000000,0.000000,0.000000,0.000000
1782117192.528160,1695890,-0.962891,0.009277,-0.284668,1.280488,0.243902,0.670732,-4.787500,39.843750,-3.268750,0.0,1.000000,0.000000,0.000000,0.000000
1782117192.538160,1695900,-0.965332,0.008789,-0.282715,1.646341,0.243902,0.853659,-4.956250,39.674999,-3.300000,0.0,1.000000,0.000000,0.000000,0.000000
1782117192.550160,1695912,-0.967285,0.007812,-0.282715,1.585366,-0.060976,0.853659,-4.906250,39.706249,-3.306250,0.0,1.000000,0.000000,0.000000,0.000000
1782117192.558160,1695920,-0.966309,0.010742,-0.284180,1.524390,-0.243902,0.914634,-4.906250,39.706249,-3.306250,0.0,1.000000,0.000000,0.000000,0.000000
1782117192.568160,1695930,-0.964355,0.010742,-0.285645,1.951220,-0.304878,0.975610,-4.850000,39.731251,-3.256250,0.0,1.000000,0.000000,0.000000,0.000000
1782117192.578160,1695940,-0.964355,0.008789,-0.284668,2.439024,-0.304878,0.914634,-4.850000,39.731251,-3.256250,0.0,1.000000,0.000000,0.000000,0.000000
1782117192.592160,1695954,-0.969238,0.008789,-0.283691,2.804878,-0.304878,0.853659,-4.887500,39.731251,-3.256250,0.0,1.000000,0.000000,0.000000,0.000000
1782117192.598160,1695960,-0.972168,0.010254,-0.281250,3.231707,-0.609756,0.853659,-4.887500,39.731251,-3.256250,0.0,1.000000,0.000000,0.000000,0.000000
1782117192.608160,1695970,-0.968750,0.008301,-0.279297,3.475610,-0.975610,0.853659,-4.756250,39.837502,-3.231250,0.0,1.000000,0.000000,0.000000,0.000000
1782117192.618160,1695980,-0.966797,0.011719,-0.281250,3.353659,-1.280488,0.914634,-4.756250,39.837502,-3.231250,0.0,1.000000,0.000000,0.000000,0.000000
1782117192.630160,1695992,-0.962891,0.016113,-0.283691,3.109756,-1.402439,1.097561,-4.818750,39.762501,-3.231250,0.0,1.000000,0.000000,0.000000,0.000000
1782117192.638160,1696000,-0.956543,0.020020,-0.285156,2.804878,-1.402439,1.097561,-4.818750,39.762501,-3.231250,0.0,1.000000,0.000000,0.000000,0.000000
1782117192.648160,1696010,-0.956543,0.023926,-0.287598,2.378049,-1.036585,1.280488,-4.593750,39.993752,-3.125000,0.0,1.000000,0.000000,0.000000,0.000000
1782117192.658160,1696020,-0.958008,0.024902,-0.291992,1.768293,-0.792683,1.280488,-4.593750,39.993752,-3.125000,0.0,1.000000,0.000000,0.000000,0.000000
1782117192.670160,1696032,-0.957520,0.025391,-0.292969,1.158537,-0.609756,1.097561,-4.825000,39.775002,-3.168750,0.0,1.000000,0.000000,0.000000,0.000000
1782117192.678160,1696040,-0.958008,0.022949,-0.291016,0.792683,-0.365854,0.853659,-4.825000,39.775002,-3.168750,0.0,1.000000,0.000000,0.000000,0.000000
1782117192.688160,1696050,-0.958984,0.018555,-0.288574,0.304878,-0.243902,0.609756,-4.762500,39.787502,-3.137500,0.0,1.000000,0.000000,0.000000,0.000000
1782117192.698160,1696060,-0.960938,0.012695,-0.287109,0.060976,-0.304878,0.487805,-4.762500,39.787502,-3.137500,0.0,1.000000,0.000000,0.000000,0.000000
1782117192.710160,1696072,-0.959961,0.009277,-0.285645,0.060976,-0.365854,0.487805,-4.818750,39.806252,-3.100000,0.0,1.000000,0.000000,0.000000,0.000000
1782117192.719160,1696081,-0.961914,0.006836,-0.287109,0.121951,-0.304878,0.609756,-4.818750,39.806252,-3.100000,0.0,1.000000,0.000000,0.000000,0.000000
1782117192.728160,1696090,-0.964844,0.003906,-0.287109,0.304878,-0.304878,0.731707,-4.806250,39.793751,-3.131250,0.0,1.000000,0.000000,0.000000,0.000000
1782117192.739160,1696101,-0.965332,0.006348,-0.289062,0.609756,-0.365854,0.792683,-4.806250,39.793751,-3.131250,0.0,1.000000,0.000000,0.000000,0.000000
1782117192.751160,1696113,-0.964355,0.011230,-0.289551,1.097561,-0.548781,0.975610,-4.831250,39.712502,-3.156250,0.0,1.000000,0.000000,0.000000,0.000000
1782117192.758160,1696120,-0.961914,0.014648,-0.289551,1.524390,-0.609756,1.158537,-4.831250,39.712502,-3.156250,0.0,1.000000,0.000000,0.000000,0.000000
1782117192.768160,1696130,-0.959473,0.017578,-0.289551,1.768293,-0.609756,1.341463,-4.787500,39.831249,-3.131250,0.0,1.000000,0.000000,0.000000,0.000000
1782117192.778160,1696140,-0.959473,0.018555,-0.288574,2.012195,-0.670732,1.463415,-4.787500,39.831249,-3.131250,0.0,1.000000,0.000000,0.000000,0.000000
1782117192.793160,1696155,-0.959473,0.018066,-0.287598,1.890244,-0.548781,1.463415,-4.906250,39.687500,-3.156250,0.0,1.000000,0.000000,0.000000,0.000000
1782117192.798160,1696160,-0.960449,0.013672,-0.288574,1.768293,-0.426829,1.341463,-4.906250,39.687500,-3.156250,0.0,1.000000,0.000000,0.000000,0.000000
1782117192.808160,1696170,-0.964355,0.012207,-0.288086,1.463415,-0.243902,1.158537,-4.743750,39.799999,-3.156250,0.0,1.000000,0.000000,0.000000,0.000000
1782117192.818160,1696180,-0.965332,0.011719,-0.285645,1.158537,-0.365854,0.914634,-4.743750,39.799999,-3.156250,0.0,1.000000,0.000000,0.000000,0.000000
1782117192.829160,1696191,-0.966309,0.010742,-0.283203,0.792683,-0.304878,0.731707,-4.806250,39.731251,-3.131250,0.0,1.000000,0.000000,0.000000,0.000000
1782117192.839160,1696201,-0.964355,0.012695,-0.281738,0.487805,-0.365854,0.792683,-4.831250,39.725002,-3.106250,0.0,1.000000,0.000000,0.000000,0.000000
1782117192.848160,1696210,-0.962402,0.013672,-0.281738,0.304878,-0.426829,0.914634,-4.831250,39.725002,-3.106250,0.0,1.000000,0.000000,0.000000,0.000000
1782117192.858160,1696220,-0.961914,0.016113,-0.282715,0.121951,-0.304878,1.036585,-4.856250,39.681252,-3.162500,0.0,1.000000,0.000000,0.000000,0.000000
1782117192.868160,1696230,-0.962402,0.018066,-0.284668,0.060976,-0.243902,1.219512,-4.856250,39.681252,-3.162500,0.0,1.000000,0.000000,0.000000,0.000000
1782117192.878160,1696240,-0.962402,0.019531,-0.286621,0.060976,-0.243902,1.341463,-4.750000,39.731251,-3.100000,0.0,1.000000,0.000000,0.000000,0.000000
1782117192.888160,1696250,-0.962402,0.017090,-0.288086,0.243902,-0.182927,1.463415,-4.750000,39.731251,-3.100000,0.0,1.000000,0.000000,0.000000,0.000000
1782117192.898160,1696260,-0.964355,0.015137,-0.288086,0.365854,-0.243902,1.402439,-4.762500,39.737499,-3.125000,0.0,1.000000,0.000000,0.000000,0.000000
1782117192.911160,1696273,-0.961914,0.011719,-0.289062,0.304878,-0.304878,1.280488,-4.762500,39.737499,-3.125000,0.0,1.000000,0.000000,0.000000,0.000000
1782117192.919160,1696281,-0.959473,0.011719,-0.287598,0.670732,-0.365854,1.097561,-4.762500,39.743752,-3.143750,0.0,1.000000,0.000000,0.000000,0.000000
1782117192.928160,1696290,-0.959961,0.012207,-0.286133,0.914634,-0.182927,1.036585,-4.762500,39.743752,-3.143750,0.0,1.000000,0.000000,0.000000,0.000000
1782117192.939160,1696301,-0.962402,0.012695,-0.283203,0.853659,-0.304878,1.158537,-4.750000,39.768749,-3.100000,0.0,1.000000,0.000000,0.000000,0.000000
1782117192.952160,1696314,-0.960938,0.013672,-0.283691,0.487805,-0.304878,1.158537,-4.750000,39.768749,-3.100000,0.0,1.000000,0.000000,0.000000,0.000000
1782117192.958160,1696320,-0.959473,0.012695,-0.286133,-0.060976,-0.243902,1.097561,-4.706250,39.775002,-3.137500,0.0,1.000000,0.000000,0.000000,0.000000
1782117192.968160,1696330,-0.961914,0.013184,-0.286133,-0.548781,-0.060976,1.036585,-4.706250,39.775002,-3.137500,0.0,1.000000,0.000000,0.000000,0.000000
1782117192.978160,1696340,-0.962891,0.011719,-0.286621,-0.914634,0.121951,1.036585,-4.725000,39.768749,-3.100000,0.0,1.000000,0.000000,0.000000,0.000000
1782117192.989160,1696351,-0.960938,0.010254,-0.285156,-0.975610,0.304878,0.975610,-4.725000,39.768749,-3.100000,0.0,1.000000,0.000000,0.000000,0.000000
1782117192.999160,1696361,-0.961914,0.012207,-0.282227,-0.853659,0.365854,0.975610,-4.693750,39.818752,-3.143750,0.0,1.000000,0.000000,0.000000,0.000000
1782117193.009160,1696371,-0.964355,0.011230,-0.277832,-0.670732,0.304878,1.219512,-4.693750,39.818752,-3.143750,0.0,1.000000,0.000000,0.000000,0.000000
1782117193.019160,1696381,-0.964355,0.011230,-0.277832,-0.670732,0.304878,1.219512,-4.512500,40.062500,-3.068750,0.0,1.000000,0.000000,0.000000,0.000000
1782117193.029160,1696391,-0.965332,0.010254,-0.278320,-0.609756,0.121951,1.219512,-4.512500,40.062500,-3.068750,0.0,1.000000,0.000000,0.000000,0.000000
1782117193.038160,1696400,-0.964844,0.010254,-0.279297,-0.609756,0.060976,1.097561,-4.731250,39.781250,-3.193750,0.0,1.000000,0.000000,0.000000,0.000000
1782117193.048160,1696410,-0.968262,0.012207,-0.276855,-0.487805,0.060976,1.158537,-4.731250,39.781250,-3.193750,0.0,1.000000,0.000000,0.000000,0.000000
1782117193.058160,1696420,-0.968750,0.010254,-0.275391,-0.487805,-0.060976,1.097561,-4.812500,39.756252,-3.162500,0.0,1.000000,0.000000,0.000000,0.000000
1782117193.068160,1696430,-0.969727,0.006348,-0.277344,-0.426829,-0.243902,1.036585,-4.812500,39.756252,-3.162500,0.0,1.000000,0.000000,0.000000,0.000000
1782117193.078160,1696440,-0.968750,0.003906,-0.275391,-0.304878,-0.426829,0.792683,-4.756250,39.731251,-3.181250,0.0,1.000000,0.000000,0.000000,0.000000
1782117193.088160,1696450,-0.967773,0.003906,-0.277344,-0.243902,-0.487805,0.609756,-4.756250,39.731251,-3.181250,0.0,1.000000,0.000000,0.000000,0.000000
1782117193.098160,1696460,-0.965820,0.009766,-0.276367,-0.365854,-0.487805,0.609756,-4.875000,39.687500,-3.175000,0.0,1.000000,0.000000,0.000000,0.000000
1782117193.108160,1696470,-0.963867,0.013184,-0.275879,-0.365854,-0.487805,0.731707,-4.875000,39.687500,-3.175000,0.0,1.000000,0.000000,0.000000,0.000000
1782117193.120160,1696482,-0.962402,0.015137,-0.276367,-0.243902,-0.426829,1.036585,-4.600000,39.943752,-3.112500,0.0,1.000000,0.000000,0.000000,0.000000
1782117193.128160,1696490,-0.962891,0.014648,-0.279785,-0.121951,-0.243902,1.158537,-4.600000,39.943752,-3.112500,0.0,1.000000,0.000000,0.000000,0.000000
1782117193.139160,1696501,-0.962891,0.014648,-0.283203,-0.121951,-0.121951,1.219512,-4.706250,39.843750,-3.131250,0.0,1.000000,0.000000,0.000000,0.000000
1782117193.148160,1696510,-0.963867,0.014648,-0.285156,-0.060976,0.182927,1.097561,-4.706250,39.843750,-3.131250,0.0,1.000000,0.000000,0.000000,0.000000
1782117193.158160,1696520,-0.964355,0.013672,-0.285645,0.000000,0.243902,1.097561,-4.556250,39.962502,-3.181250,0.0,1.000000,0.000000,0.000000,0.000000
1782117193.168160,1696530,-0.962402,0.013184,-0.285156,0.121951,0.121951,1.036585,-4.800000,39.781250,-3.212500,0.0,1.000000,0.000000,0.000000,0.000000
1782117193.178160,1696540,-0.963379,0.014160,-0.285156,0.121951,0.243902,1.036585,-4.800000,39.781250,-3.212500,0.0,1.000000,0.000000,0.000000,0.000000
1782117193.188160,1696550,-0.964355,0.012695,-0.284668,0.182927,0.304878,0.975610,-4.781250,39.725002,-3.200000,0.0,1.000000,0.000000,0.000000,0.000000
1782117193.198160,1696560,-0.962402,0.012207,-0.284180,0.426829,0.243902,0.975610,-4.781250,39.725002,-3.200000,0.0,1.000000,0.000000,0.000000,0.000000
1782117193.208160,1696570,-0.962891,0.010742,-0.283203,0.670732,0.304878,0.853659,-4.518750,40.062500,-3.131250,0.0,1.000000,0.000000,0.000000,0.000000
1782117193.218160,1696580,-0.964844,0.010254,-0.284180,0.731707,0.304878,0.853659,-4.518750,40.062500,-3.131250,0.0,1.000000,0.000000,0.000000,0.000000
1782117193.229160,1696591,-0.965820,0.010254,-0.284180,0.548781,0.243902,0.792683,-4.712500,39.793751,-3.162500,0.0,1.000000,0.000000,0.000000,0.000000
1782117193.239160,1696601,-0.963867,0.012207,-0.285156,0.487805,0.121951,0.731707,-4.712500,39.793751,-3.162500,0.0,1.000000,0.000000,0.000000,0.000000
1782117193.249160,1696611,-0.963867,0.015137,-0.284668,0.548781,0.000000,0.853659,-4.718750,39.806252,-3.225000,0.0,1.000000,0.000000,0.000000,0.000000
1782117193.258160,1696620,-0.962402,0.016602,-0.284180,0.670732,0.000000,0.914634,-4.718750,39.806252,-3.225000,0.0,1.000000,0.000000,0.000000,0.000000
1782117193.269160,1696631,-0.961914,0.015625,-0.283691,0.853659,0.000000,1.036585,-4.725000,39.818752,-3.162500,0.0,1.000000,0.000000,0.000000,0.000000
1782117193.279160,1696641,-0.962402,0.015625,-0.283691,0.853659,0.182927,1.036585,-4.725000,39.818752,-3.162500,0.0,1.000000,0.000000,0.000000,0.000000
1782117193.288160,1696650,-0.961914,0.015137,-0.284180,0.731707,0.182927,1.097561,-4.625000,39.924999,-3.168750,0.0,1.000000,0.000000,0.000000,0.000000
1782117193.298160,1696660,-0.964355,0.016113,-0.285645,0.548781,0.243902,0.975610,-4.625000,39.924999,-3.168750,0.0,1.000000,0.000000,0.000000,0.000000
1782117193.308160,1696670,-0.963379,0.016602,-0.285645,0.487805,0.182927,0.975610,-4.737500,39.837502,-3.187500,0.0,1.000000,0.000000,0.000000,0.000000
1782117193.318160,1696680,-0.962402,0.017090,-0.285156,0.670732,0.121951,0.975610,-4.737500,39.837502,-3.187500,0.0,1.000000,0.000000,0.000000,0.000000
1782117193.328160,1696690,-0.960938,0.015625,-0.284668,0.914634,0.182927,0.975610,-4.450000,40.112499,-3.131250,0.0,1.000000,0.000000,0.000000,0.000000
1782117193.338160,1696700,-0.961426,0.014648,-0.285156,0.914634,0.182927,0.914634,-4.450000,40.112499,-3.131250,0.0,1.000000,0.000000,0.000000,0.000000
1782117193.349160,1696711,-0.961914,0.017578,-0.287109,0.914634,0.304878,0.914634,-4.743750,39.731251,-3.237500,0.0,1.000000,0.000000,0.000000,0.000000
1782117193.358160,1696720,-0.962402,0.014648,-0.288086,0.853659,0.304878,0.914634,-4.743750,39.731251,-3.237500,0.0,1.000000,0.000000,0.000000,0.000000
1782117193.368160,1696730,-0.963867,0.013184,-0.286621,0.731707,0.243902,0.792683,-4.706250,39.831249,-3.175000,0.0,1.000000,0.000000,0.000000,0.000000
1782117193.378160,1696740,-0.961914,0.011230,-0.286133,0.853659,0.182927,0.792683,-4.706250,39.831249,-3.175000,0.0,1.000000,0.000000,0.000000,0.000000
1782117193.388160,1696750,-0.960449,0.014160,-0.287109,1.036585,0.243902,0.853659,-4.793750,39.743752,-3.225000,0.0,1.000000,0.000000,0.000000,0.000000
1782117193.398160,1696760,-0.962402,0.015625,-0.288574,1.219512,0.304878,1.097561,-4.793750,39.743752,-3.225000,0.0,1.000000,0.000000,0.000000,0.000000
1782117193.409160,1696771,-0.963379,0.017090,-0.289062,1.585366,0.182927,1.280488,-4.731250,39.850002,-3.231250,0.0,1.000000,0.000000,0.000000,0.000000
1782117193.418160,1696780,-0.961914,0.018066,-0.288574,1.768293,0.182927,1.341463,-4.731250,39.850002,-3.231250,0.0,1.000000,0.000000,0.000000,0.000000
1782117193.428160,1696790,-0.960938,0.017578,-0.291992,1.829268,0.182927,1.341463,-4.481250,40.118752,-3.093750,0.0,1.000000,0.000000,0.000000,0.000000
1782117193.438160,1696800,-0.962891,0.016602,-0.290527,2.073171,0.243902,1.341463,-4.481250,40.118752,-3.093750,0.0,1.000000,0.000000,0.000000,0.000000
1782117193.448160,1696810,-0.966309,0.015137,-0.291016,2.317073,0.121951,1.341463,-4.700000,39.831249,-3.162500,0.0,1.000000,0.000000,0.000000,0.000000
1782117193.459160,1696821,-0.965820,0.015625,-0.288574,2.317073,0.000000,1.036585,-4.700000,39.831249,-3.162500,0.0,1.000000,0.000000,0.000000,0.000000
1782117193.468160,1696830,-0.961914,0.019043,-0.287109,2.134146,-0.182927,0.914634,-4.793750,39.750000,-3.200000,0.0,1.000000,0.000000,0.000000,0.000000
1782117193.478160,1696840,-0.958008,0.021973,-0.285645,1.829268,-0.182927,0.914634,-4.700000,39.875000,-3.118750,0.0,1.000000,0.000000,0.000000,0.000000
1782117193.488160,1696850,-0.957520,0.024902,-0.286621,1.341463,-0.182927,1.036585,-4.700000,39.875000,-3.118750,0.0,1.000000,0.000000,0.000000,0.000000
1782117193.498160,1696860,-0.958496,0.024902,-0.287598,0.975610,-0.060976,1.158537,-4.756250,39.812500,-3.137500,0.0,1.000000,0.000000,0.000000,0.000000
1782117193.508160,1696870,-0.961914,0.025391,-0.290527,0.487805,-0.060976,1.158537,-4.756250,39.812500,-3.137500,0.0,1.000000,0.000000,0.000000,0.000000
1782117193.518160,1696880,-0.961914,0.022949,-0.291992,0.060976,0.000000,0.975610,-4.681250,39.856251,-3.206250,0.0,1.000000,0.000000,0.000000,0.000000
1782117193.528160,1696890,-0.962402,0.019043,-0.292480,-0.365854,0.121951,0.670732,-4.681250,39.856251,-3.206250,0.0,1.000000,0.000000,0.000000,0.000000
1782117193.538160,1696900,-0.962891,0.017090,-0.289551,-0.609756,-0.060976,0.548781,-4.737500,39.850002,-3.168750,0.0,1.000000,0.000000,0.000000,0.000000
1782117193.548160,1696910,-0.960938,0.015625,-0.286133,-0.670732,-0.060976,0.487805,-4.737500,39.850002,-3.168750,0.0,1.000000,0.000000,0.000000,0.000000
1782117193.558160,1696920,-0.958984,0.015137,-0.285156,-0.609756,0.000000,0.548781,-4.681250,39.875000,-3.181250,0.0,1.000000,0.000000,0.000000,0.000000
1782117193.568160,1696930,-0.959473,0.014160,-0.287109,-0.609756,0.000000,0.731707,-4.681250,39.875000,-3.181250,0.0,1.000000,0.000000,0.000000,0.000000
1782117193.578160,1696940,-0.961426,0.015625,-0.289551,-0.609756,0.060976,0.914634,-4.693750,39.887501,-3.181250,0.0,1.000000,0.000000,0.000000,0.000000
1782117193.588160,1696950,-0.963379,0.016113,-0.291016,-0.243902,0.060976,1.097561,-4.693750,39.887501,-3.181250,0.0,1.000000,0.000000,0.000000,0.000000
1782117193.598160,1696960,-0.964844,0.013184,-0.292480,0.182927,-0.060976,1.097561,-4.681250,39.887501,-3.150000,0.0,1.000000,0.000000,0.000000,0.000000
1782117193.608160,1696970,-0.964355,0.012207,-0.291016,0.609756,-0.304878,0.914634,-4.681250,39.887501,-3.150000,0.0,1.000000,0.000000,0.000000,0.000000
1782117193.618160,1696980,-0.964355,0.013672,-0.287598,1.036585,-0.365854,0.792683,-4.693750,39.868752,-3.175000,0.0,1.000000,0.000000,0.000000,0.000000
1782117193.628160,1696990,-0.962402,0.014648,-0.284668,1.341463,-0.487805,0.792683,-4.693750,39.868752,-3.175000,0.0,1.000000,0.000000,0.000000,0.000000
1782117193.638160,1697000,-0.959473,0.015137,-0.282715,1.463415,-0.487805,0.853659,-4.687500,39.850002,-3.181250,0.0,1.000000,0.000000,0.000000,0.000000
1782117193.649160,1697011,-0.957520,0.016602,-0.283203,1.219512,-0.304878,0.975610,-4.687500,39.850002,-3.181250,0.0,1.000000,0.000000,0.000000,0.000000
1782117193.658160,1697020,-0.958008,0.020020,-0.285645,0.731707,-0.182927,1.097561,-4.587500,39.962502,-3.106250,0.0,1.000000,0.000000,0.000000,0.000000
1782117193.669160,1697031,-0.959961,0.022461,-0.289551,0.365854,-0.060976,1.097561,-4.587500,39.962502,-3.106250,0.0,1.000000,0.000000,0.000000,0.000000
1782117193.679160,1697041,-0.962891,0.023926,-0.290039,0.182927,-0.060976,1.158537,-4.750000,39.793751,-3.143750,0.0,1.000000,0.000000,0.000000,0.000000
1782117193.688160,1697050,-0.963379,0.021484,-0.289062,0.121951,-0.121951,1.097561,-4.750000,39.793751,-3.143750,0.0,1.000000,0.000000,0.000000,0.000000
1782117193.699160,1697061,-0.963379,0.019043,-0.291992,-0.060976,-0.243902,0.853659,-4.781250,39.806252,-3.162500,0.0,1.000000,0.000000,0.000000,0.000000
1782117193.708160,1697070,-0.962402,0.019043,-0.290527,-0.121951,-0.182927,0.731707,-4.781250,39.806252,-3.162500,0.0,1.000000,0.000000,0.000000,0.000000
1782117193.718160,1697080,-0.963379,0.016602,-0.287598,-0.060976,-0.243902,0.731707,-4.750000,39.787502,-3.156250,0.0,1.000000,0.000000,0.000000,0.000000
1782117193.728160,1697090,-0.961426,0.016113,-0.287598,0.000000,-0.304878,0.731707,-4.750000,39.787502,-3.156250,0.0,1.000000,0.000000,0.000000,0.000000
1782117193.738160,1697100,-0.962891,0.016602,-0.286133,0.121951,-0.426829,0.792683,-4.718750,39.799999,-3.187500,0.0,1.000000,0.000000,0.000000,0.000000
1782117193.748160,1697110,-0.961914,0.017578,-0.286621,0.182927,-0.548781,0.914634,-4.718750,39.799999,-3.187500,0.0,1.000000,0.000000,0.000000,0.000000
1782117193.760160,1697122,-0.960449,0.018066,-0.286621,0.304878,-0.670732,0.914634,-4.743750,39.775002,-3.187500,0.0,1.000000,0.000000,0.000000,0.000000
1782117193.768160,1697130,-0.961426,0.016113,-0.288574,0.365854,-0.609756,0.975610,-4.468750,40.025002,-3.100000,0.0,1.000000,0.000000,0.000000,0.000000
1782117193.778160,1697140,-0.961426,0.015137,-0.290039,0.243902,-0.487805,0.914634,-4.468750,40.025002,-3.100000,0.0,1.000000,0.000000,0.000000,0.000000
1782117193.788160,1697150,-0.963379,0.014160,-0.290527,0.000000,-0.426829,0.792683,-4.675000,39.862499,-3.181250,0.0,1.000000,0.000000,0.000000,0.000000
1782117193.799160,1697161,-0.963867,0.013672,-0.288574,-0.060976,-0.243902,0.670732,-4.675000,39.862499,-3.181250,0.0,1.000000,0.000000,0.000000,0.000000
1782117193.808160,1697170,-0.965820,0.015625,-0.285156,0.060976,-0.243902,0.609756,-4.668750,39.843750,-3.131250,0.0,1.000000,0.000000,0.000000,0.000000
1782117193.818160,1697180,-0.964355,0.016113,-0.282227,0.121951,-0.243902,0.670732,-4.668750,39.843750,-3.131250,0.0,1.000000,0.000000,0.000000,0.000000
1782117193.828160,1697190,-0.961426,0.017090,-0.280762,0.000000,-0.182927,0.609756,-4.718750,39.837502,-3.200000,0.0,1.000000,0.000000,0.000000,0.000000
1782117193.839160,1697201,-0.958984,0.019043,-0.284180,-0.121951,0.060976,0.609756,-4.718750,39.837502,-3.200000,0.0,1.000000,0.000000,0.000000,0.000000
1782117193.849160,1697211,-0.959473,0.017578,-0.284668,-0.182927,0.243902,0.670732,-4.562500,39.937500,-3.168750,0.0,1.000000,0.000000,0.000000,0.000000
1782117193.858160,1697220,-0.959473,0.017578,-0.284668,-0.182927,0.243902,0.670732,-4.562500,39.937500,-3.168750,0.0,1.000000,0.000000,0.000000,0.000000
1782117193.868160,1697230,-0.962402,0.018555,-0.285645,-0.121951,0.304878,0.792683,-4.675000,39.837502,-3.118750,0.0,1.000000,0.000000,0.000000,0.000000
1782117193.879160,1697241,-0.970215,0.016602,-0.283691,0.487805,-0.060976,0.853659,-4.675000,39.837502,-3.118750,0.0,1.000000,0.000000,0.000000,0.000000
1782117193.888160,1697250,-0.970215,0.016602,-0.283691,0.487805,-0.060976,0.853659,-4.612500,39.906250,-3.175000,0.0,1.000000,0.000000,0.000000,0.000000
1782117193.898160,1697260,-0.969238,0.015625,-0.282227,0.731707,-0.548781,0.792683,-4.612500,39.906250,-3.175000,0.0,1.000000,0.000000,0.000000,0.000000
1782117193.908160,1697270,-0.963379,0.016113,-0.282715,0.853659,-0.731707,0.731707,-4.700000,39.850002,-3.181250,0.0,1.000000,0.000000,0.000000,0.000000
1782117193.918160,1697280,-0.959473,0.016113,-0.283203,0.670732,-0.670732,0.670732,-4.700000,39.850002,-3.181250,0.0,1.000000,0.000000,0.000000,0.000000
1782117193.928160,1697290,-0.958008,0.017578,-0.285645,0.365854,-0.487805,0.670732,-4.662500,39.862499,-3.168750,0.0,1.000000,0.000000,0.000000,0.000000
1782117193.938160,1697300,-0.958496,0.018555,-0.289062,0.121951,-0.304878,0.670732,-4.662500,39.862499,-3.168750,0.0,1.000000,0.000000,0.000000,0.000000
1782117193.948160,1697310,-0.958496,0.020020,-0.290039,0.182927,-0.060976,0.670732,-4.725000,39.843750,-3.162500,0.0,1.000000,0.000000,0.000000,0.000000
1782117193.958160,1697320,-0.960449,0.018066,-0.291016,0.182927,0.060976,0.670732,-4.725000,39.843750,-3.162500,0.0,1.000000,0.000000,0.000000,0.000000
1782117193.968160,1697330,-0.963867,0.016602,-0.290039,0.060976,0.121951,0.548781,-4.718750,39.837502,-3.187500,0.0,1.000000,0.000000,0.000000,0.000000
1782117193.978160,1697340,-0.964355,0.015625,-0.290039,0.121951,0.060976,0.426829,-4.718750,39.837502,-3.187500,0.0,1.000000,0.000000,0.000000,0.000000
1782117193.988160,1697350,-0.963379,0.017578,-0.286621,0.121951,0.000000,0.487805,-4.781250,39.775002,-3.168750,0.0,1.000000,0.000000,0.000000,0.000000
1782117193.998160,1697360,-0.963867,0.017090,-0.281250,0.304878,-0.243902,0.487805,-4.781250,39.775002,-3.168750,0.0,1.000000,0.000000,0.000000,0.000000
1782117194.008160,1697370,-0.965332,0.017090,-0.280273,0.426829,-0.304878,0.548781,-4.731250,39.812500,-3.137500,0.0,1.000000,0.000000,0.000000,0.000000
1782117194.018160,1697380,-0.963379,0.016602,-0.280273,0.609756,-0.243902,0.548781,-4.731250,39.812500,-3.137500,0.0,1.000000,0.000000,0.000000,0.000000
1782117194.028160,1697390,-0.964355,0.017578,-0.281250,0.792683,-0.182927,0.670732,-4.725000,39.737499,-3.200000,0.0,1.000000,0.000000,0.000000,0.000000
1782117194.038160,1697400,-0.965820,0.018555,-0.282715,0.731707,-0.121951,0.731707,-4.725000,39.737499,-3.200000,0.0,1.000000,0.000000,0.000000,0.000000
1782117194.048160,1697410,-0.965820,0.017578,-0.282227,0.487805,-0.304878,0.670732,-4.700000,39.881252,-3.143750,0.0,1.000000,0.000000,0.000000,0.000000
1782117194.058160,1697420,-0.965332,0.017578,-0.281250,0.609756,-0.426829,0.670732,-4.775000,39.787502,-3.168750,0.0,1.000000,0.000000,0.000000,0.000000
1782117194.070160,1697432,-0.963867,0.016602,-0.282715,0.548781,-0.365854,0.609756,-4.775000,39.787502,-3.168750,0.0,1.000000,0.000000,0.000000,0.000000
1782117194.078160,1697440,-0.961914,0.016113,-0.283691,0.548781,-0.304878,0.609756,-4.350000,40.187500,-3.050000,0.0,1.000000,0.000000,0.000000,0.000000
1782117194.088160,1697450,-0.960449,0.014648,-0.285156,0.487805,-0.060976,0.548781,-4.350000,40.187500,-3.050000,0.0,1.000000,0.000000,0.000000,0.000000
1782117194.098160,1697460,-0.959473,0.013672,-0.287109,0.426829,0.182927,0.487805,-4.718750,39.806252,-3.225000,0.0,1.000000,0.000000,0.000000,0.000000
1782117194.109160,1697471,-0.961426,0.013672,-0.287598,0.365854,0.304878,0.548781,-4.718750,39.806252,-3.225000,0.0,1.000000,0.000000,0.000000,0.000000
1782117194.119160,1697481,-0.961914,0.014648,-0.288574,0.304878,0.243902,0.487805,-4.693750,39.837502,-3.218750,0.0,1.000000,0.000000,0.000000,0.000000
1782117194.128160,1697490,-0.963379,0.015137,-0.287109,0.243902,0.182927,0.487805,-4.693750,39.837502,-3.218750,0.0,1.000000,0.000000,0.000000,0.000000
1782117194.138160,1697500,-0.964355,0.015625,-0.285156,0.487805,-0.060976,0.609756,-4.675000,39.837502,-3.181250,0.0,1.000000,0.000000,0.000000,0.000000
1782117194.148160,1697510,-0.963867,0.015625,-0.284180,0.853659,-0.243902,0.731707,-4.675000,39.837502,-3.181250,0.0,1.000000,0.000000,0.000000,0.000000
1782117194.158160,1697520,-0.962402,0.015625,-0.284180,1.036585,-0.243902,0.731707,-4.712500,39.856251,-3.175000,0.0,1.000000,0.000000,0.000000,0.000000
1782117194.168160,1697530,-0.962891,0.015137,-0.284668,1.036585,-0.304878,0.792683,-4.712500,39.856251,-3.175000,0.0,1.000000,0.000000,0.000000,0.000000
1782117194.178160,1697540,-0.963379,0.016113,-0.285156,0.914634,-0.304878,0.731707,-4.725000,39.856251,-3.206250,0.0,1.000000,0.000000,0.000000,0.000000
1782117194.188160,1697550,-0.962891,0.016113,-0.287109,0.731707,-0.243902,0.731707,-4.725000,39.856251,-3.206250,0.0,1.000000,0.000000,0.000000,0.000000
1782117194.198160,1697560,-0.963867,0.017090,-0.287598,0.670732,-0.121951,0.670732,-4.706250,39.806252,-3.112500,0.0,1.000000,0.000000,0.000000,0.000000
1782117194.208160,1697570,-0.963379,0.017578,-0.286621,0.609756,-0.121951,0.670732,-4.706250,39.806252,-3.112500,0.0,1.000000,0.000000,0.000000,0.000000
1782117194.218160,1697580,-0.960938,0.016113,-0.284668,0.609756,-0.121951,0.548781,-4.675000,39.837502,-3.168750,0.0,1.000000,0.000000,0.000000,0.000000
1782117194.228160,1697590,-0.961914,0.016602,-0.285156,0.487805,0.000000,0.487805,-4.675000,39.837502,-3.168750,0.0,1.000000,0.000000,0.000000,0.000000
1782117194.240160,1697602,-0.961426,0.016113,-0.285645,0.365854,0.000000,0.487805,-4.568750,39.956249,-3.112500,0.0,1.000000,0.000000,0.000000,0.000000
1782117194.249160,1697611,-0.960938,0.015137,-0.285645,0.243902,0.060976,0.548781,-4.568750,39.956249,-3.112500,0.0,1.000000,0.000000,0.000000,0.000000
1782117194.258160,1697620,-0.962402,0.014648,-0.285645,0.060976,-0.060976,0.609756,-4.500000,40.062500,-3.087500,0.0,1.000000,0.000000,0.000000,0.000000
1782117194.268160,1697630,-0.964355,0.015625,-0.284180,0.000000,-0.060976,0.609756,-4.500000,40.062500,-3.087500,0.0,1.000000,0.000000,0.000000,0.000000
1782117194.279160,1697641,-0.964844,0.016113,-0.283691,0.060976,-0.243902,0.548781,-4.793750,39.775002,-3.231250,0.0,1.000000,0.000000,0.000000,0.000000
1782117194.289160,1697651,-0.963379,0.015137,-0.284180,0.243902,-0.243902,0.609756,-4.793750,39.775002,-3.231250,0.0,1.000000,0.000000,0.000000,0.000000
1782117194.298160,1697660,-0.962891,0.014160,-0.284668,0.304878,-0.243902,0.548781,-4.768750,39.787502,-3.218750,0.0,1.000000,0.000000,0.000000,0.000000
1782117194.309160,1697671,-0.963867,0.012207,-0.285156,0.487805,-0.121951,0.548781,-4.768750,39.787502,-3.218750,0.0,1.000000,0.000000,0.000000,0.000000
1782117194.320160,1697682,-0.962891,0.013672,-0.286133,0.426829,-0.121951,0.487805,-4.825000,39.712502,-3.231250,0.0,1.000000,0.000000,0.000000,0.000000
1782117194.328160,1697690,-0.963867,0.014648,-0.285645,0.426829,-0.060976,0.487805,-4.825000,39.712502,-3.231250,0.0,1.000000,0.000000,0.000000,0.000000
1782117194.339160,1697701,-0.963867,0.014160,-0.282715,0.304878,-0.060976,0.426829,-4.693750,39.818752,-3.193750,0.0,1.000000,0.000000,0.000000,0.000000
1782117194.348160,1697710,-0.962891,0.015137,-0.281738,0.487805,-0.182927,0.487805,-4.693750,39.818752,-3.193750,0.0,1.000000,0.000000,0.000000,0.000000
1782117194.358160,1697720,-0.960449,0.015625,-0.281738,0.731707,-0.121951,0.609756,-4.793750,39.768749,-3.225000,0.0,1.000000,0.000000,0.000000,0.000000
1782117194.368160,1697730,-0.962402,0.015137,-0.284180,0.731707,0.000000,0.670732,-4.731250,39.850002,-3.168750,0.0,1.000000,0.000000,0.000000,0.000000
1782117194.378160,1697740,-0.964844,0.014160,-0.286133,0.487805,-0.060976,0.792683,-4.731250,39.850002,-3.168750,0.0,1.000000,0.000000,0.000000,0.000000
1782117194.388160,1697750,-0.964355,0.012695,-0.287598,0.304878,-0.060976,0.670732,-4.812500,39.743752,-3.225000,0.0,1.000000,0.000000,0.000000,0.000000
1782117194.398160,1697760,-0.964355,0.012207,-0.287598,0.304878,-0.121951,0.609756,-4.812500,39.743752,-3.225000,0.0,1.000000,0.000000,0.000000,0.000000
1782117194.408160,1697770,-0.964355,0.011230,-0.285645,0.365854,-0.121951,0.487805,-4.731250,39.856251,-3.193750,0.0,1.000000,0.000000,0.000000,0.000000
1782117194.418160,1697780,-0.961426,0.012207,-0.283203,0.487805,-0.182927,0.365854,-4.731250,39.856251,-3.193750,0.0,1.000000,0.000000,0.000000,0.000000
1782117194.428160,1697790,-0.959473,0.013672,-0.282227,0.548781,-0.121951,0.426829,-4.700000,39.787502,-3.218750,0.0,1.000000,0.000000,0.000000,0.000000
1782117194.439160,1697801,-0.960449,0.013672,-0.283203,0.548781,0.060976,0.487805,-4.700000,39.787502,-3.218750,0.0,1.000000,0.000000,0.000000,0.000000
1782117194.448160,1697810,-0.961914,0.015137,-0.284180,0.243902,0.182927,0.548781,-4.606250,39.912502,-3.150000,0.0,1.000000,0.000000,0.000000,0.000000
1782117194.458160,1697820,-0.961914,0.015137,-0.286133,0.060976,0.182927,0.548781,-4.606250,39.912502,-3.150000,0.0,1.000000,0.000000,0.000000,0.000000
1782117194.468160,1697830,-0.964355,0.013672,-0.286133,0.243902,0.182927,0.670732,-4.837500,39.725002,-3.250000,0.0,1.000000,0.000000,0.000000,0.000000
1782117194.479160,1697841,-0.965820,0.013184,-0.286133,0.548781,0.121951,0.670732,-4.837500,39.725002,-3.250000,0.0,1.000000,0.000000,0.000000,0.000000
1782117194.488160,1697850,-0.966309,0.012695,-0.284668,0.670732,-0.243902,0.670732,-4.775000,39.793751,-3.268750,0.0,1.000000,0.000000,0.000000,0.000000
1782117194.499160,1697861,-0.961426,0.011719,-0.283203,0.731707,-0.365854,0.548781,-4.775000,39.793751,-3.268750,0.0,1.000000,0.000000,0.000000,0.000000
1782117194.508160,1697870,-0.959473,0.012207,-0.283691,0.731707,-0.182927,0.609756,-4.787500,39.812500,-3.168750,0.0,1.000000,0.000000,0.000000,0.000000
1782117194.518160,1697880,-0.961426,0.011719,-0.286133,0.670732,0.121951,0.609756,-4.787500,39.812500,-3.168750,0.0,1.000000,0.000000,0.000000,0.000000
1782117194.529160,1697891,-0.962402,0.011230,-0.287109,0.609756,0.060976,0.670732,-4.731250,39.856251,-3.162500,0.0,1.000000,0.000000,0.000000,0.000000
1782117194.538160,1697900,-0.961426,0.014160,-0.287598,0.670732,0.182927,0.548781,-4.731250,39.856251,-3.162500,0.0,1.000000,0.000000,0.000000,0.000000
1782117194.548160,1697910,-0.960938,0.014160,-0.285645,0.670732,0.243902,0.609756,-4.831250,39.725002,-3.218750,0.0,1.000000,0.000000,0.000000,0.000000
1782117194.559160,1697921,-0.962891,0.013184,-0.284180,0.731707,0.243902,0.670732,-4.831250,39.725002,-3.218750,0.0,1.000000,0.000000,0.000000,0.000000
1782117194.568160,1697930,-0.963379,0.012695,-0.283691,0.731707,0.060976,0.731707,-4.756250,39.806252,-3.175000,0.0,1.000000,0.000000,0.000000,0.000000
1782117194.579160,1697941,-0.965332,0.012207,-0.285156,0.792683,0.000000,0.792683,-4.756250,39.806252,-3.175000,0.0,1.000000,0.000000,0.000000,0.000000
1782117194.588160,1697950,-0.966309,0.010742,-0.284668,0.914634,-0.182927,0.792683,-4.800000,39.799999,-3.187500,0.0,1.000000,0.000000,0.000000,0.000000
1782117194.599160,1697961,-0.964355,0.011230,-0.285156,1.219512,-0.243902,0.792683,-4.800000,39.799999,-3.187500,0.0,1.000000,0.000000,0.000000,0.000000
1782117194.608160,1697970,-0.963867,0.006836,-0.283203,1.463415,-0.121951,0.731707,-4.712500,39.825001,-3.250000,0.0,1.000000,0.000000,0.000000,0.000000
1782117194.618160,1697980,-0.964355,0.005371,-0.283203,1.707317,-0.060976,0.670732,-4.712500,39.825001,-3.250000,0.0,1.000000,0.000000,0.000000,0.000000
1782117194.628160,1697990,-0.962402,0.005371,-0.287598,2.073171,0.000000,0.792683,-4.818750,39.637501,-3.312500,0.0,1.000000,0.000000,0.000000,0.000000
1782117194.640160,1698002,-0.961914,0.007324,-0.289062,2.256098,0.060976,0.853659,-4.806250,39.687500,-3.200000,0.0,1.000000,0.000000,0.000000,0.000000
1782117194.648160,1698010,-0.958984,0.007324,-0.292969,2.073171,0.365854,0.914634,-4.806250,39.687500,-3.200000,0.0,1.000000,0.000000,0.000000,0.000000
1782117194.658160,1698020,-0.961426,0.008789,-0.296875,2.073171,0.487805,0.792683,-4.743750,39.756252,-3.112500,0.0,1.000000,0.000000,0.000000,0.000000
1782117194.668160,1698030,-0.963379,0.012207,-0.299316,2.317073,0.487805,0.731707,-4.743750,39.756252,-3.112500,0.0,1.000000,0.000000,0.000000,0.000000
1782117194.678160,1698040,-0.965332,0.013184,-0.296387,2.621951,0.182927,0.731707,-4.781250,39.756252,-3.193750,0.0,1.000000,0.000000,0.000000,0.000000
1782117194.689160,1698051,-0.964844,0.013184,-0.296875,2.926829,-0.182927,0.792683,-4.781250,39.756252,-3.193750,0.0,1.000000,0.000000,0.000000,0.000000
1782117194.699160,1698061,-0.963379,0.013672,-0.298828,3.231707,-0.609756,1.097561,-4.775000,39.731251,-3.162500,0.0,1.000000,0.000000,0.000000,0.000000
1782117194.708160,1698070,-0.958008,0.016113,-0.302734,3.231707,-0.731707,1.280488,-4.775000,39.731251,-3.162500,0.0,1.000000,0.000000,0.000000,0.000000
1782117194.720160,1698082,-0.954102,0.016113,-0.305664,2.804878,-0.548781,1.341463,-4.562500,39.968750,-3.112500,0.0,1.000000,0.000000,0.000000,0.000000
1782117194.728160,1698090,-0.954102,0.016113,-0.305664,2.804878,-0.548781,1.341463,-4.562500,39.968750,-3.112500,0.0,1.000000,0.000000,0.000000,0.000000
1782117194.738160,1698100,-0.956055,0.015137,-0.306152,2.621951,-0.243902,1.341463,-4.693750,39.806252,-3.162500,0.0,1.000000,0.000000,0.000000,0.000000
1782117194.749160,1698111,-0.958496,0.014648,-0.301270,2.073171,-0.426829,1.097561,-4.693750,39.806252,-3.162500,0.0,1.000000,0.000000,0.000000,0.000000
1782117194.760160,1698122,-0.958496,0.014648,-0.301270,2.073171,-0.426829,1.097561,-4.700000,39.768749,-3.175000,0.0,1.000000,0.000000,0.000000,0.000000
1782117194.769160,1698131,-0.962891,0.010742,-0.296387,2.195122,-0.731707,1.219512,-4.700000,39.768749,-3.175000,0.0,1.000000,0.000000,0.000000,0.000000
1782117194.778160,1698140,-0.969727,0.006348,-0.298340,2.500000,-1.097561,1.829268,-4.475000,39.981251,-3.062500,0.0,1.000000,0.000000,0.000000,0.000000
1782117194.788160,1698150,-0.971191,0.003906,-0.302246,2.926829,-1.463415,2.195122,-4.475000,39.981251,-3.062500,0.0,1.000000,0.000000,0.000000,0.000000
1782117194.801160,1698163,-0.976074,0.001953,-0.301758,3.414634,-1.768293,2.195122,-4.706250,39.781250,-3.112500,0.0,1.000000,0.000000,0.000000,0.000000
1782117194.808160,1698170,-0.976074,0.001953,-0.301758,3.414634,-1.768293,2.195122,-4.706250,39.781250,-3.112500,0.0,1.000000,0.000000,0.000000,0.000000
1782117194.818160,1698180,-0.976562,0.000977,-0.298828,3.719512,-2.378049,2.073171,-4.643750,39.818752,-3.050000,0.0,1.000000,0.000000,0.000000,0.000000
1782117194.828160,1698190,-0.970703,0.000977,-0.299805,4.268293,-2.926829,2.012195,-4.643750,39.818752,-3.050000,0.0,1.000000,0.000000,0.000000,0.000000
1782117194.840160,1698202,-0.962402,0.003418,-0.300781,4.695122,-3.536585,2.073171,-4.637500,39.737499,-3.031250,0.0,1.000000,0.000000,0.000000,0.000000
1782117194.848160,1698210,-0.954590,0.004395,-0.305664,4.695122,-3.719512,2.195122,-4.637500,39.737499,-3.031250,0.0,1.000000,0.000000,0.000000,0.000000
1782117194.858160,1698220,-0.948730,0.007324,-0.314453,4.634146,-3.719512,2.439024,-4.593750,39.731251,-2.987500,0.0,1.000000,0.000000,0.000000,0.000000
1782117194.868160,1698230,-0.948730,0.008301,-0.321289,4.451220,-3.597561,2.743902,-4.593750,39.731251,-2.987500,0.0,1.000000,0.000000,0.000000,0.000000
1782117194.880160,1698242,-0.956055,0.008301,-0.320801,3.963415,-4.207317,3.048780,-4.593750,39.668751,-2.893750,0.0,1.000000,0.000000,0.000000,0.000000
1782117194.889160,1698251,-0.956055,0.008301,-0.320801,3.963415,-4.207317,3.048780,-4.593750,39.668751,-2.893750,0.0,1.000000,0.000000,0.000000,0.000000
1782117194.899160,1698261,-0.958984,0.001465,-0.316895,3.963415,-4.939024,3.170732,-4.506250,39.793751,-2.800000,0.0,1.000000,0.000000,0.000000,0.000000
1782117194.909160,1698271,-0.958984,-0.005859,-0.311035,4.146341,-5.548780,3.170732,-4.506250,39.793751,-2.800000,0.0,1.000000,0.000000,0.000000,0.000000
1782117194.920160,1698282,-0.960449,-0.012695,-0.303711,5.121951,-5.731708,3.292683,-4.500000,39.637501,-2.762500,0.0,1.000000,0.000000,0.000000,0.000000
1782117194.929160,1698291,-0.968262,-0.017090,-0.300293,6.524390,-6.280488,3.658537,-4.406250,39.737499,-2.700000,0.0,1.000000,0.000000,0.000000,0.000000
1782117194.938160,1698300,-0.964844,-0.017578,-0.297363,7.865854,-7.439024,3.780488,-4.406250,39.737499,-2.700000,0.0,1.000000,0.000000,0.000000,0.000000
1782117194.948160,1698310,-0.960449,-0.016113,-0.299316,8.902439,-8.292683,4.024390,-4.312500,39.700001,-2.506250,0.0,1.000000,0.000000,0.000000,0.000000
1782117194.960160,1698322,-0.959473,-0.013672,-0.302734,9.634147,-8.841464,4.268293,-4.312500,39.700001,-2.506250,0.0,1.000000,0.000000,0.000000,0.000000
1782117194.969160,1698331,-0.960449,-0.010742,-0.304199,10.487805,-9.634147,4.512195,-4.143750,39.712502,-2.381250,0.0,1.000000,0.000000,0.000000,0.000000
1782117194.979160,1698341,-0.957520,-0.012695,-0.303711,11.646341,-10.731708,4.878049,-4.143750,39.712502,-2.381250,0.0,1.000000,0.000000,0.000000,0.000000
1782117194.989160,1698351,-0.957520,-0.014160,-0.303711,12.743903,-11.890244,5.121951,-4.168750,39.587502,-2.181250,0.0,1.000000,0.000000,0.000000,0.000000
1782117195.000160,1698362,-0.960938,-0.018555,-0.305664,13.841464,-12.926829,5.487805,-4.168750,39.587502,-2.181250,0.0,1.000000,0.000000,0.000000,0.000000
1782117195.008160,1698370,-0.967285,-0.025391,-0.313477,14.329268,-14.573171,5.487805,-3.925000,39.712502,-1.893750,0.0,1.000000,0.000000,0.000000,0.000000
1782117195.018160,1698380,-0.972168,-0.028809,-0.325195,14.756098,-15.609756,5.426829,-3.925000,39.712502,-1.893750,0.0,1.000000,0.000000,0.000000,0.000000
1782117195.028160,1698390,-0.975098,-0.019043,-0.334473,15.060976,-17.621952,5.121951,-3.831250,39.656250,-1.618750,0.0,1.000000,0.000000,0.000000,0.000000
1782117195.040160,1698402,-0.967773,-0.007324,-0.342773,14.878049,-19.573172,4.451220,-3.831250,39.656250,-1.618750,0.0,1.000000,0.000000,0.000000,0.000000
1782117195.048160,1698410,-0.950195,0.013672,-0.360352,13.475610,-22.012196,3.780488,-3.637500,39.750000,-1.362500,0.0,1.000000,0.000000,0.000000,0.000000
1782117195.058160,1698420,-0.913574,0.023438,-0.370605,10.304878,-24.024391,2.865854,-3.637500,39.750000,-1.362500,0.0,1.000000,0.000000,0.000000,0.000000
1782117195.069160,1698431,-0.884766,0.024902,-0.379395,6.036585,-24.146341,2.317073,-3.637500,39.706249,-1.025000,0.0,1.000000,0.000000,0.000000,0.000000
1782117195.082160,1698444,-0.875488,0.040527,-0.380859,2.500000,-22.500000,3.475610,-3.637500,39.706249,-1.025000,0.0,1.000000,0.000000,0.000000,0.000000
1782117195.089160,1698451,-0.903809,0.041992,-0.346680,0.731707,-23.109756,5.060976,-3.475000,39.737499,-0.762500,0.0,1.000000,0.000000,0.000000,0.000000
1782117195.099160,1698461,-0.935059,0.029785,-0.311523,0.121951,-26.890245,5.914634,-3.475000,39.737499,-0.762500,0.0,1.000000,0.000000,0.000000,0.000000
1782117195.108160,1698470,-0.965332,0.022949,-0.284668,2.317073,-30.000000,6.707317,-3.481250,39.700001,-0.437500,0.0,1.000000,0.000000,0.000000,0.000000
1782117195.120160,1698482,-1.002441,0.012207,-0.253906,5.792683,-32.500000,7.317073,-3.481250,39.700001,-0.437500,0.0,1.000000,0.000000,0.000000,0.000000
1782117195.128160,1698490,-1.040039,-0.001953,-0.222656,7.621952,-34.085365,7.317073,-3.381250,39.700001,-0.093750,0.0,1.000000,0.000000,0.000000,0.000000
1782117195.138160,1698500,-1.062500,-0.014160,-0.203125,6.585366,-35.975609,6.158537,-3.381250,39.700001,-0.093750,0.0,1.000000,0.000000,0.000000,0.000000
1782117195.148160,1698510,-1.053711,-0.016113,-0.196777,4.512195,-37.439026,3.353659,-3.387500,39.531250,0.193750,0.0,1.000000,0.000000,0.000000,0.000000
1782117195.161160,1698523,-1.016113,-0.010254,-0.197266,2.804878,-36.341465,0.243902,-3.550000,39.293751,0.412500,0.0,1.000000,0.000000,0.000000,0.000000
1782117195.169160,1698531,-0.967773,-0.006348,-0.200684,1.158537,-31.890245,-1.951220,-3.550000,39.293751,0.412500,0.0,1.000000,0.000000,0.000000,0.000000
1782117195.178160,1698540,-0.934570,0.010742,-0.220703,-1.158537,-24.634148,-2.439024,-3.550000,39.293751,0.412500,0.0,1.000000,0.000000,0.000000,0.000000
1782117195.188160,1698550,-0.924316,0.029785,-0.250977,-3.353659,-17.195122,-0.426829,-3.700000,39.062500,0.443750,0.0,1.000000,0.000000,0.000000,0.000000
1782117195.200160,1698562,-0.905762,0.038086,-0.270508,-4.695122,-12.865854,2.621951,-3.981250,38.806252,0.462500,0.0,1.000000,0.000000,0.000000,0.000000
1782117195.209160,1698571,-0.894531,0.027832,-0.284180,-3.902439,-8.475610,4.817073,-3.981250,38.806252,0.462500,0.0,1.000000,0.000000,0.000000,0.000000
1782117195.218160,1698580,-0.896484,0.018555,-0.283203,-1.158537,-3.902439,5.548780,-3.981250,38.806252,0.462500,0.0,1.000000,0.000000,0.000000,0.000000
1782117195.228160,1698590,-0.912598,0.009766,-0.258789,2.012195,0.731707,5.914634,-3.887500,39.031250,0.468750,0.0,1.000000,0.000000,0.000000,0.000000
1782117195.242160,1698604,-0.934570,0.000000,-0.231445,5.426829,4.024390,5.914634,-3.912500,39.193752,0.375000,0.0,1.000000,0.000000,0.000000,0.000000
1782117195.248160,1698610,-0.953125,-0.006836,-0.210938,9.024390,6.463415,5.304878,-3.912500,39.193752,0.375000,0.0,1.000000,0.000000,0.000000,0.000000
1782117195.258160,1698620,-0.968262,-0.007812,-0.187988,12.682927,7.682927,4.634146,-3.425000,39.806252,0.387500,0.0,1.000000,0.000000,0.000000,0.000000
1782117195.268160,1698630,-0.984375,-0.005371,-0.163086,16.402439,7.804878,4.207317,-3.425000,39.806252,0.387500,0.0,1.000000,0.000000,0.000000,0.000000
1782117195.280160,1698642,-0.998535,-0.003418,-0.146973,19.207317,6.402439,3.841464,-3.456250,39.756252,0.243750,0.0,1.000000,0.000000,0.000000,0.000000
1782117195.289160,1698651,-1.001465,0.000000,-0.139648,20.487804,4.207317,3.353659,-3.456250,39.756252,0.243750,0.0,1.000000,0.000000,0.000000,0.000000
1782117195.298160,1698660,-1.002441,0.001953,-0.138184,20.670732,2.865854,2.317073,-3.250000,39.818752,0.262500,0.0,1.000000,0.000000,0.000000,0.000000
1782117195.308160,1698670,-1.007324,0.009766,-0.141602,20.304878,2.134146,1.097561,-3.250000,39.818752,0.262500,0.0,1.000000,0.000000,0.000000,0.000000
1782117195.319160,1698681,-1.009766,0.020996,-0.145508,20.000000,1.768293,0.182927,-3.200000,39.750000,0.237500,0.0,1.000000,0.000000,0.000000,0.000000
1782117195.328160,1698690,-1.013672,0.033691,-0.139160,19.512196,1.219512,-0.243902,-3.200000,39.750000,0.237500,0.0,1.000000,0.000000,0.000000,0.000000
1782117195.339160,1698701,-1.018555,0.052246,-0.126465,18.048780,0.548781,-0.243902,-3.062500,39.725002,0.225000,0.0,1.000000,0.000000,0.000000,0.000000
1782117195.348160,1698710,-1.023926,0.072754,-0.110840,16.280489,-0.975610,0.243902,-3.062500,39.725002,0.225000,0.0,1.000000,0.000000,0.000000,0.000000
1782117195.360160,1698722,-1.018555,0.091309,-0.096680,14.329268,-2.378049,1.219512,-3.118750,39.643749,0.168750,0.0,1.000000,0.000000,0.000000,0.000000
1782117195.368160,1698730,-1.010742,0.100098,-0.087891,11.890244,-2.439024,2.073171,-3.118750,39.643749,0.168750,0.0,1.000000,0.000000,0.000000,0.000000
1782117195.378160,1698740,-1.009277,0.100586,-0.081055,9.390244,-1.585366,2.134146,-3.075000,39.681252,0.137500,0.0,1.000000,0.000000,0.000000,0.000000
1782117195.388160,1698750,-1.011719,0.101562,-0.079590,7.682927,-0.304878,1.524390,-3.075000,39.681252,0.137500,0.0,1.000000,0.000000,0.000000,0.000000
1782117195.398160,1698760,-1.016113,0.101562,-0.078125,6.829268,1.158537,1.036585,-3.131250,39.643749,0.056250,0.0,1.000000,0.000000,0.000000,0.000000
1782117195.408160,1698770,-1.029785,0.094727,-0.070312,6.097561,1.951220,0.426829,-3.131250,39.643749,0.056250,0.0,1.000000,0.000000,0.000000,0.000000
1782117195.418160,1698780,-1.035156,0.095215,-0.056152,5.487805,1.341463,-0.182927,-3.118750,39.575001,0.006250,0.0,1.000000,0.000000,0.000000,0.000000
1782117195.428160,1698790,-1.023438,0.092285,-0.044434,5.243903,0.182927,-0.853659,-3.118750,39.575001,0.006250,0.0,1.000000,0.000000,0.000000,0.000000
1782117195.440160,1698802,-1.012207,0.090820,-0.036621,5.121951,-0.121951,-1.219512,-3.275000,39.468750,-0.068750,0.0,1.000000,0.000000,0.000000,0.000000
1782117195.448160,1698810,-1.012207,0.084961,-0.036133,5.121951,-0.243902,-1.402439,-3.275000,39.468750,-0.068750,0.0,1.000000,0.000000,0.000000,0.000000
1782117195.458160,1698820,-1.010254,0.083984,-0.039062,5.304878,-0.304878,-1.219512,-3.218750,39.568752,-0.081250,0.0,1.000000,0.000000,0.000000,0.000000
1782117195.469160,1698831,-1.011230,0.084473,-0.041016,5.609756,-0.060976,-0.731707,-3.218750,39.568752,-0.081250,0.0,1.000000,0.000000,0.000000,0.000000
1782117195.481160,1698843,-1.011719,0.087402,-0.030762,5.670732,0.000000,-0.304878,-2.993750,39.681252,0.043750,0.0,1.000000,0.000000,0.000000,0.000000
1782117195.488160,1698850,-1.013184,0.089355,-0.012695,5.121951,-0.121951,-0.060976,-2.993750,39.681252,0.043750,0.0,1.000000,0.000000,0.000000,0.000000
1782117195.499160,1698861,-1.029297,0.089844,-0.009766,3.597561,0.426829,-0.060976,-3.131250,39.512501,-0.025000,0.0,1.000000,0.000000,0.000000,0.000000
1782117195.508160,1698870,-1.049805,0.096680,-0.029785,1.768293,0.792683,1.036585,-3.131250,39.512501,-0.025000,0.0,1.000000,0.000000,0.000000,0.000000
1782117195.521160,1698883,-1.059570,0.096680,-0.052246,-0.060976,0.304878,2.804878,-3.181250,39.387501,0.050000,0.0,1.000000,0.000000,0.000000,0.000000
1782117195.528160,1698890,-1.047852,0.086914,-0.064453,-2.012195,-0.975610,3.536585,-3.181250,39.387501,0.050000,0.0,1.000000,0.000000,0.000000,0.000000
1782117195.538160,1698900,-1.020996,0.070801,-0.074219,-4.451220,-1.890244,2.500000,-3.050000,39.575001,0.131250,0.0,1.000000,0.000000,0.000000,0.000000
1782117195.548160,1698910,-1.020996,0.070801,-0.074219,-4.451220,-1.890244,2.500000,-3.050000,39.600002,0.112500,0.0,1.000000,0.000000,0.000000,0.000000
1782117195.559160,1698921,-0.986328,0.052246,-0.109863,-9.085366,1.036585,0.121951,-3.050000,39.600002,0.112500,0.0,1.000000,0.000000,0.000000,0.000000
1782117195.568160,1698930,-0.986328,0.052246,-0.109863,-9.085366,1.036585,0.121951,-3.087500,39.631252,0.075000,0.0,1.000000,0.000000,0.000000,0.000000
1782117195.578160,1698940,-0.992676,0.043457,-0.130371,-10.731708,2.682927,-0.243902,-3.087500,39.631252,0.075000,0.0,1.000000,0.000000,0.000000,0.000000
1782117195.588160,1698950,-0.995117,0.038086,-0.142578,-11.402439,2.987805,-0.487805,-3.075000,39.725002,0.018750,0.0,1.000000,0.000000,0.000000,0.000000
1782117195.598160,1698960,-0.991699,0.033203,-0.146973,-11.219512,2.621951,-0.914634,-3.075000,39.725002,0.018750,0.0,1.000000,0.000000,0.000000,0.000000
1782117195.608160,1698970,-0.979004,0.030273,-0.143555,-10.914635,2.317073,-1.524390,-2.993750,39.775002,-0.006250,0.0,1.000000,0.000000,0.000000,0.000000
1782117195.618160,1698980,-0.965820,0.031738,-0.137695,-10.670732,2.560976,-1.951220,-2.993750,39.775002,-0.006250,0.0,1.000000,0.000000,0.000000,0.000000
1782117195.628160,1698990,-0.957520,0.033203,-0.139160,-11.036586,3.414634,-1.829268,-3.175000,39.618752,-0.050000,0.0,1.000000,0.000000,0.000000,0.000000
1782117195.640160,1699002,-0.960938,0.032227,-0.152344,-11.524390,4.817073,-0.548781,-3.175000,39.618752,-0.050000,0.0,1.000000,0.000000,0.000000,0.000000
1782117195.648160,1699010,-0.970703,0.023926,-0.158691,-11.097561,5.792683,1.280488,-3.200000,39.606251,-0.143750,0.0,1.000000,0.000000,0.000000,0.000000
1782117195.658160,1699020,-0.983398,0.015137,-0.154785,-9.939025,6.463415,2.682927,-3.200000,39.606251,-0.143750,0.0,1.000000,0.000000,0.000000,0.000000
1782117195.668160,1699030,-1.000977,0.009277,-0.151855,-8.719512,7.378049,3.048780,-3.175000,39.462502,-0.262500,0.0,1.000000,0.000000,0.000000,0.000000
1782117195.678160,1699040,-1.017578,0.011230,-0.157715,-7.073171,7.682927,2.743902,-3.175000,39.462502,-0.262500,0.0,1.000000,0.000000,0.000000,0.000000
1782117195.688160,1699050,-1.026367,0.027344,-0.161133,-6.158537,6.951220,2.378049,-3.175000,39.406250,-0.381250,0.0,1.000000,0.000000,0.000000,0.000000
1782117195.699160,1699061,-1.025879,0.045898,-0.159180,-6.829268,5.670732,2.073171,-3.175000,39.406250,-0.381250,0.0,1.000000,0.000000,0.000000,0.000000
1782117195.709160,1699071,-1.016113,0.057617,-0.152832,-8.414635,4.146341,1.707317,-3.275000,39.325001,-0.437500,0.0,1.000000,0.000000,0.000000,0.000000
1782117195.718160,1699080,-1.007324,0.062012,-0.145508,-10.060976,3.414634,1.158537,-3.275000,39.325001,-0.437500,0.0,1.000000,0.000000,0.000000,0.000000
1782117195.729160,1699091,-1.004883,0.067383,-0.138184,-12.134147,3.170732,0.426829,-3.262500,39.418751,-0.475000,0.0,1.000000,0.000000,0.000000,0.000000
1782117195.738160,1699100,-0.995605,0.074219,-0.139160,-15.670732,2.621951,-0.670732,-3.262500,39.418751,-0.475000,0.0,1.000000,0.000000,0.000000,0.000000
1782117195.748160,1699110,-0.981445,0.081055,-0.147461,-19.817074,1.585366,-2.073171,-3.331250,39.406250,-0.537500,0.0,1.000000,0.000000,0.000000,0.000000
1782117195.758160,1699120,-0.967285,0.083984,-0.163574,-23.353659,1.158537,-2.743902,-3.331250,39.406250,-0.537500,0.0,1.000000,0.000000,0.000000,0.000000
1782117195.768160,1699130,-0.959961,0.081055,-0.182129,-25.792683,2.195122,-2.378049,-3.512500,39.468750,-0.506250,0.0,1.000000,0.000000,0.000000,0.000000
1782117195.778160,1699140,-0.969238,0.075195,-0.193848,-27.378050,3.536585,-1.829268,-3.512500,39.468750,-0.506250,0.0,1.000000,0.000000,0.000000,0.000000
1782117195.788160,1699150,-0.976562,0.062988,-0.197266,-28.414635,3.902439,-1.707317,-3.412500,39.643749,-0.587500,0.0,1.000000,0.000000,0.000000,0.000000
1782117195.798160,1699160,-0.983887,0.051270,-0.196777,-28.902439,4.573171,-2.134146,-3.412500,39.643749,-0.587500,0.0,1.000000,0.000000,0.000000,0.000000
1782117195.808160,1699170,-0.984863,0.039551,-0.192871,-28.841465,5.792683,-2.439024,-3.762500,39.275002,-0.787500,0.0,1.000000,0.000000,0.000000,0.000000
1782117195.818160,1699180,-0.992676,0.023926,-0.184082,-28.841465,7.134147,-2.743902,-3.762500,39.275002,-0.787500,0.0,1.000000,0.000000,0.000000,0.000000
1782117195.828160,1699190,-0.997070,0.014648,-0.181641,-28.597561,7.987805,-3.292683,-3.775000,39.299999,-0.850000,0.0,1.000000,0.000000,0.000000,0.000000
1782117195.838160,1699200,-1.000977,0.009277,-0.182129,-28.109756,8.109756,-3.231707,-3.862500,39.268749,-0.950000,0.0,1.000000,0.000000,0.000000,0.000000
1782117195.848160,1699210,-0.998047,0.010742,-0.178711,-27.682928,7.317073,-3.292683,-3.862500,39.268749,-0.950000,0.0,1.000000,0.000000,0.000000,0.000000
1782117195.859160,1699221,-0.993652,0.009766,-0.178223,-27.621952,6.097561,-3.414634,-3.968750,39.356251,-1.125000,0.0,1.000000,0.000000,0.000000,0.000000
1782117195.868160,1699230,-0.984375,0.001465,-0.180664,-26.829269,4.573171,-3.536585,-3.968750,39.356251,-1.125000,0.0,1.000000,0.000000,0.000000,0.000000
1782117195.879160,1699241,-0.980469,-0.010742,-0.189941,-24.207317,3.658537,-3.170732,-4.206250,39.293751,-1.193750,0.0,1.000000,0.000000,0.000000,0.000000
1782117195.889160,1699251,-0.986816,-0.021973,-0.198242,-19.634148,2.926829,-1.951220,-4.206250,39.293751,-1.193750,0.0,1.000000,0.000000,0.000000,0.000000
1782117195.898160,1699260,-0.996094,-0.034180,-0.207031,-14.146341,1.219512,-0.243902,-4.156250,39.418751,-1.143750,0.0,1.000000,0.000000,0.000000,0.000000
1782117195.908160,1699270,-0.993652,-0.027344,-0.212891,-8.231708,-0.914634,0.670732,-4.156250,39.418751,-1.143750,0.0,1.000000,0.000000,0.000000,0.000000
1782117195.919160,1699281,-0.991699,-0.025879,-0.227051,-3.292683,-2.500000,1.890244,-4.262500,39.350002,-1.056250,0.0,1.000000,0.000000,0.000000,0.000000
1782117195.928160,1699290,-0.995605,0.010254,-0.236328,0.121951,-3.658537,3.292683,-4.262500,39.350002,-1.056250,0.0,1.000000,0.000000,0.000000,0.000000
1782117195.938160,1699300,-0.979492,0.035156,-0.240723,0.853659,-5.121951,4.207317,-4.181250,39.475002,-0.900000,0.0,1.000000,0.000000,0.000000,0.000000
1782117195.948160,1699310,-0.962891,0.022461,-0.246094,-0.243902,-6.341464,3.475610,-4.181250,39.475002,-0.900000,0.0,1.000000,0.000000,0.000000,0.000000
1782117195.958160,1699320,-0.946777,0.026855,-0.247559,-1.524390,-4.512195,2.500000,-4.243750,39.375000,-0.856250,0.0,1.000000,0.000000,0.000000,0.000000
1782117195.968160,1699330,-0.954102,0.014160,-0.255859,-1.158537,-1.402439,2.012195,-4.243750,39.375000,-0.856250,0.0,1.000000,0.000000,0.000000,0.000000
1782117195.979160,1699341,-0.969727,-0.003418,-0.255859,1.402439,0.731707,1.646341,-4.162500,39.412502,-0.793750,0.0,1.000000,0.000000,0.000000,0.000000
1782117195.988160,1699350,-0.978027,-0.020020,-0.253906,5.914634,1.890244,0.914634,-4.162500,39.412502,-0.793750,0.0,1.000000,0.000000,0.000000,0.000000
1782117195.998160,1699360,-0.986816,-0.020020,-0.247559,10.182927,1.280488,-0.060976,-3.825000,39.812500,-0.675000,0.0,1.000000,0.000000,0.000000,0.000000
1782117196.008160,1699370,-0.979492,0.003906,-0.232910,11.585366,0.060976,-0.853659,-3.825000,39.812500,-0.675000,0.0,1.000000,0.000000,0.000000,0.000000
1782117196.018160,1699380,-0.970703,0.039062,-0.219727,9.573171,-0.182927,-0.975610,-4.225000,39.475002,-0.650000,0.0,1.000000,0.000000,0.000000,0.000000
1782117196.028160,1699390,-0.966797,0.071777,-0.212891,5.121951,0.365854,-0.548781,-4.225000,39.475002,-0.650000,0.0,1.000000,0.000000,0.000000,0.000000
1782117196.038160,1699400,-0.962402,0.091309,-0.214844,0.365854,1.646341,0.000000,-4.312500,39.356251,-0.600000,0.0,1.000000,0.000000,0.000000,0.000000
1782117196.048160,1699410,-0.962891,0.097168,-0.218750,-3.292683,3.109756,0.670732,-4.312500,39.356251,-0.600000,0.0,1.000000,0.000000,0.000000,0.000000
1782117196.059160,1699421,-0.963867,0.090332,-0.219238,-6.402439,4.268293,0.548781,-4.337500,39.350002,-0.618750,0.0,1.000000,0.000000,0.000000,0.000000
1782117196.068160,1699430,-0.964844,0.072754,-0.229980,-9.756098,5.853659,-0.304878,-4.337500,39.350002,-0.618750,0.0,1.000000,0.000000,0.000000,0.000000
1782117196.078160,1699440,-0.961914,0.044922,-0.253418,-12.560976,7.743903,-1.707317,-4.250000,39.487499,-0.712500,0.0,1.000000,0.000000,0.000000,0.000000
1782117196.088160,1699450,-0.962402,0.017090,-0.272949,-14.024390,9.695122,-3.109756,-4.250000,39.487499,-0.712500,0.0,1.000000,0.000000,0.000000,0.000000
1782117196.099160,1699461,-0.978027,-0.004395,-0.272949,-14.634147,8.963415,-4.756098,-4.475000,39.306252,-0.837500,0.0,1.000000,0.000000,0.000000,0.000000
1782117196.108160,1699470,-0.960449,-0.019531,-0.273438,-12.743903,8.170732,-4.817073,-4.475000,39.306252,-0.837500,0.0,1.000000,0.000000,0.000000,0.000000
1782117196.119160,1699481,-0.958008,-0.032227,-0.258301,-9.878049,8.231708,-4.695122,-4.662500,39.268749,-1.056250,0.0,1.000000,0.000000,0.000000,0.000000
1782117196.128160,1699490,-0.953125,-0.041016,-0.249512,-6.585366,9.024390,-3.841464,-4.662500,39.412502,-1.075000,0.0,1.000000,0.000000,0.000000,0.000000
1782117196.139160,1699501,-0.963379,-0.043945,-0.249512,-2.987805,10.000000,-2.560976,-4.662500,39.412502,-1.075000,0.0,1.000000,0.000000,0.000000,0.000000
1782117196.149160,1699511,-0.969238,-0.043457,-0.255859,0.365854,10.304878,-0.975610,-4.756250,39.306252,-1.212500,0.0,1.000000,0.000000,0.000000,0.000000
1782117196.158160,1699520,-0.975586,-0.050781,-0.267090,3.536585,10.609756,0.243902,-4.756250,39.306252,-1.212500,0.0,1.000000,0.000000,0.000000,0.000000
1782117196.169160,1699531,-0.981934,-0.051270,-0.278320,6.524390,10.000000,0.426829,-4.650000,39.356251,-1.225000,0.0,1.000000,0.000000,0.000000,0.000000
1782117196.178160,1699540,-0.975586,-0.044434,-0.284668,9.268292,8.902439,0.182927,-4.650000,39.356251,-1.225000,0.0,1.000000,0.000000,0.000000,0.000000
1782117196.188160,1699550,-0.965820,-0.035156,-0.287109,11.829268,7.621952,-0.609756,-4.750000,39.306252,-1.325000,0.0,1.000000,0.000000,0.000000,0.000000
1782117196.198160,1699560,-0.957031,-0.024414,-0.291016,14.268293,7.073171,-1.280488,-4.750000,39.306252,-1.325000,0.0,1.000000,0.000000,0.000000,0.000000
1782117196.210160,1699572,-0.962402,-0.008301,-0.300293,16.219513,7.012195,-1.402439,-4.700000,39.362499,-1.312500,0.0,1.000000,0.000000,0.000000,0.000000
1782117196.218160,1699580,-0.960938,0.007324,-0.312500,17.865854,7.256098,-0.914634,-4.700000,39.362499,-1.312500,0.0,1.000000,0.000000,0.000000,0.000000
1782117196.228160,1699590,-0.967773,0.016602,-0.308105,18.963415,6.585366,-0.670732,-4.693750,39.381252,-1.243750,0.0,1.000000,0.000000,0.000000,0.000000
1782117196.238160,1699600,-0.970703,0.024902,-0.304199,18.719513,5.487805,-0.426829,-4.693750,39.381252,-1.243750,0.0,1.000000,0.000000,0.000000,0.000000
1782117196.248160,1699610,-0.963379,0.035156,-0.303711,16.829269,4.695122,-0.182927,-4.718750,39.387501,-1.250000,0.0,1.000000,0.000000,0.000000,0.000000
1782117196.258160,1699620,-0.953125,0.041504,-0.299316,12.987805,5.000000,0.060976,-4.718750,39.387501,-1.250000,0.0,1.000000,0.000000,0.000000,0.000000
1782117196.269160,1699631,-0.958008,0.048828,-0.294922,9.024390,5.609756,-0.121951,-4.650000,39.362499,-1.250000,0.0,1.000000,0.000000,0.000000,0.000000
1782117196.279160,1699641,-0.960449,0.058105,-0.292969,4.939024,5.731708,-0.182927,-4.650000,39.362499,-1.250000,0.0,1.000000,0.000000,0.000000,0.000000
1782117196.289160,1699651,-0.950195,0.055664,-0.292480,0.670732,5.731708,-0.548781,-4.612500,39.387501,-1.250000,0.0,1.000000,0.000000,0.000000,0.000000
1782117196.299160,1699661,-0.944336,0.045898,-0.298340,-2.743902,6.646342,-0.914634,-4.612500,39.387501,-1.250000,0.0,1.000000,0.000000,0.000000,0.000000
1782117196.308160,1699670,-0.948242,0.048340,-0.295410,-5.365854,8.109756,-1.341463,-4.687500,39.387501,-1.343750,0.0,1.000000,0.000000,0.000000,0.000000
1782117196.318160,1699680,-0.947266,0.051270,-0.288086,-7.621952,9.329268,-1.463415,-4.687500,39.387501,-1.343750,0.0,1.000000,0.000000,0.000000,0.000000
1782117196.328160,1699690,-0.948242,0.049316,-0.279785,-8.780488,11.219512,-1.219512,-4.762500,39.337502,-1.500000,0.0,1.000000,0.000000,0.000000,0.000000
1782117196.338160,1699700,-0.954590,0.036621,-0.272461,-9.451220,12.439025,-1.280488,-4.762500,39.337502,-1.500000,0.0,1.000000,0.000000,0.000000,0.000000
1782117196.348160,1699710,-0.965332,0.027832,-0.265137,-10.000000,12.621951,-1.524390,-4.668750,39.456249,-1.743750,0.0,1.000000,0.000000,0.000000,0.000000
1782117196.358160,1699720,-0.977539,0.019043,-0.256348,-9.939025,11.585366,-1.402439,-4.668750,39.456249,-1.743750,0.0,1.000000,0.000000,0.000000,0.000000
1782117196.369160,1699731,-0.986328,0.009766,-0.249512,-9.329268,10.121951,-1.280488,-4.950000,39.356251,-2.025000,0.0,1.000000,0.000000,0.000000,0.000000
1782117196.378160,1699740,-0.993652,0.006348,-0.248047,-8.475610,8.414635,-1.219512,-4.950000,39.356251,-2.025000,0.0,1.000000,0.000000,0.000000,0.000000
1782117196.389160,1699751,-0.993652,0.006348,-0.248047,-8.475610,8.414635,-1.219512,-4.912500,39.512501,-2.218750,0.0,1.000000,0.000000,0.000000,0.000000
1782117196.398160,1699760,-0.997070,0.004883,-0.247559,-8.048780,7.012195,-1.402439,-4.912500,39.512501,-2.218750,0.0,1.000000,0.000000,0.000000,0.000000
1782117196.408160,1699770,-0.990723,0.005859,-0.244141,-8.231708,6.219512,-1.829268,-4.893750,39.581249,-2.275000,0.0,1.000000,0.000000,0.000000,0.000000
1782117196.418160,1699780,-0.977539,0.010254,-0.241211,-8.597561,6.036585,-2.317073,-4.893750,39.581249,-2.275000,0.0,1.000000,0.000000,0.000000,0.000000
1782117196.428160,1699790,-0.973633,0.016602,-0.237793,-8.414635,6.707317,-2.682927,-5.068750,39.487499,-2.518750,0.0,1.000000,0.000000,0.000000,0.000000
1782117196.438160,1699800,-0.972168,0.021973,-0.235352,-8.170732,7.012195,-2.804878,-5.150000,39.381252,-2.575000,0.0,1.000000,0.000000,0.000000,0.000000
1782117196.448160,1699810,-0.974121,0.023926,-0.242676,-7.743903,7.012195,-2.439024,-5.150000,39.381252,-2.575000,0.0,1.000000,0.000000,0.000000,0.000000
1782117196.458160,1699820,-0.981934,0.027344,-0.250000,-7.378049,7.134147,-1.951220,-4.968750,39.656250,-2.681250,0.0,1.000000,0.000000,0.000000,0.000000
1782117196.469160,1699831,-0.987793,0.031738,-0.251953,-7.378049,7.195122,-1.768293,-4.968750,39.656250,-2.681250,0.0,1.000000,0.000000,0.000000,0.000000
1782117196.479160,1699841,-0.987305,0.044434,-0.252930,-7.073171,7.439024,-1.707317,-5.112500,39.600002,-2.862500,0.0,1.000000,0.000000,0.000000,0.000000
1782117196.489160,1699851,-0.996582,0.065430,-0.239258,-6.280488,7.317073,-1.402439,-5.112500,39.600002,-2.862500,0.0,1.000000,0.000000,0.000000,0.000000
1782117196.498160,1699860,-0.999512,0.073730,-0.209473,-5.548780,6.036585,-1.402439,-5.281250,39.525002,-2.956250,0.0,1.000000,0.000000,0.000000,0.000000
1782117196.508160,1699870,-1.004395,0.064453,-0.187500,-6.402439,4.512195,-2.195122,-5.281250,39.525002,-2.956250,0.0,1.000000,0.000000,0.000000,0.000000
1782117196.518160,1699880,-1.004395,0.047363,-0.181152,-7.804878,3.292683,-3.719512,-5.331250,39.562500,-3.118750,0.0,1.000000,0.000000,0.000000,0.000000
1782117196.530160,1699892,-1.008789,0.031738,-0.178711,-8.963415,2.743902,-5.487805,-5.331250,39.562500,-3.118750,0.0,1.000000,0.000000,0.000000,0.000000
1782117196.539160,1699901,-1.016113,0.023438,-0.180176,-10.365854,2.500000,-6.463415,-5.268750,39.693752,-3.187500,0.0,1.000000,0.000000,0.000000,0.000000
1782117196.548160,1699910,-1.020996,0.016113,-0.183594,-12.256098,1.951220,-6.158537,-5.268750,39.693752,-3.187500,0.0,1.000000,0.000000,0.000000,0.000000
1782117196.558160,1699920,-1.013184,0.011719,-0.193359,-13.414635,0.548781,-4.817073,-5.568750,39.393749,-3.281250,0.0,1.000000,0.000000,0.000000,0.000000
1782117196.568160,1699930,-1.005371,0.012207,-0.207520,-13.536586,-0.670732,-3.292683,-5.568750,39.393749,-3.281250,0.0,1.000000,0.000000,0.000000,0.000000
1782117196.578160,1699940,-0.998535,0.017578,-0.213867,-12.012196,-1.524390,-2.378049,-5.468750,39.493752,-3.300000,0.0,1.000000,0.000000,0.000000,0.000000
1782117196.588160,1699950,-0.998535,0.015625,-0.211914,-9.329268,-0.975610,-2.439024,-5.468750,39.493752,-3.300000,0.0,1.000000,0.000000,0.000000,0.000000
1782117196.600160,1699962,-0.998047,0.007812,-0.207520,-6.402439,0.487805,-3.536585,-5.612500,39.406250,-3.393750,0.0,1.000000,0.000000,0.000000,0.000000
1782117196.609160,1699971,-1.001465,-0.015137,-0.205078,-3.475610,2.195122,-4.634146,-5.612500,39.406250,-3.393750,0.0,1.000000,0.000000,0.000000,0.000000
1782117196.618160,1699980,-0.997070,-0.041016,-0.210449,-0.609756,2.560976,-4.939024,-5.712500,39.337502,-3.437500,0.0,1.000000,0.000000,0.000000,0.000000
1782117196.629160,1699991,-0.996582,-0.049316,-0.225098,1.707317,0.121951,-4.634146,-5.712500,39.337502,-3.437500,0.0,1.000000,0.000000,0.000000,0.000000
1782117196.638160,1700000,-0.975098,-0.054199,-0.261230,2.682927,-4.146341,-4.085366,-5.981250,39.081249,-3.481250,0.0,1.000000,0.000000,0.000000,0.000000
1782117196.648160,1700010,-0.942383,-0.036133,-0.305176,4.695122,-6.707317,-2.987805,-5.981250,39.081249,-3.481250,0.0,1.000000,0.000000,0.000000,0.000000
1782117196.658160,1700020,-0.919922,-0.007812,-0.335449,7.317073,-6.829268,-1.158537,-5.875000,39.243752,-3.287500,0.0,1.000000,0.000000,0.000000,0.000000
1782117196.669160,1700031,-0.908203,-0.000977,-0.351562,10.853659,-6.036585,1.585366,-5.875000,39.243752,-3.287500,0.0,1.000000,0.000000,0.000000,0.000000
1782117196.678160,1700040,-0.909180,-0.001953,-0.358398,15.487805,-5.121951,4.207317,-5.806250,39.231251,-3.243750,0.0,1.000000,0.000000,0.000000,0.000000
1782117196.689160,1700051,-0.904785,0.007324,-0.353027,19.695122,-4.268293,6.158537,-5.806250,39.231251,-3.243750,0.0,1.000000,0.000000,0.000000,0.000000
1782117196.698160,1700060,-0.906738,0.021973,-0.331543,21.829269,-2.500000,7.012195,-5.887500,39.087502,-3.081250,0.0,1.000000,0.000000,0.000000,0.000000
1782117196.708160,1700070,-0.920898,0.024414,-0.303711,20.731709,-0.426829,6.890244,-5.887500,39.087502,-3.081250,0.0,1.000000,0.000000,0.000000,0.000000
1782117196.718160,1700080,-0.933105,0.016602,-0.284668,16.402439,1.280488,5.670732,-5.775000,39.168751,-2.943750,0.0,1.000000,0.000000,0.000000,0.000000
1782117196.731160,1700093,-0.945312,0.019043,-0.281738,10.975610,2.865854,4.085366,-5.675000,39.143749,-2.912500,0.0,1.000000,0.000000,0.000000,0.000000
1782117196.738160,1700100,-0.952148,0.019531,-0.282227,6.524390,4.085366,2.865854,-5.675000,39.143749,-2.912500,0.0,1.000000,0.000000,0.000000,0.000000
1782117196.748160,1700110,-0.954590,0.019043,-0.281738,2.317073,5.000000,1.341463,-5.606250,39.218750,-2.975000,0.0,1.000000,0.000000,0.000000,0.000000
1782117196.758160,1700120,-0.955078,0.018555,-0.283691,-0.914634,5.914634,0.000000,-5.606250,39.218750,-2.975000,0.0,1.000000,0.000000,0.000000,0.000000
1782117196.770160,1700132,-0.963379,0.017090,-0.286133,-2.560976,6.463415,-0.609756,-5.656250,39.256252,-3.081250,0.0,1.000000,0.000000,0.000000,0.000000
1782117196.778160,1700140,-0.974121,0.019043,-0.285156,-3.170732,6.097561,-0.548781,-5.656250,39.256252,-3.081250,0.0,1.000000,0.000000,0.000000,0.000000
1782117196.788160,1700150,-0.992188,0.013184,-0.279785,-2.743902,4.573171,0.121951,-5.625000,39.381252,-3.162500,0.0,1.000000,0.000000,0.000000,0.000000
1782117196.798160,1700160,-1.003906,0.010742,-0.274902,-2.073171,2.195122,0.853659,-5.625000,39.381252,-3.162500,0.0,1.000000,0.000000,0.000000,0.000000
1782117196.809160,1700171,-1.003418,0.012207,-0.272949,-1.219512,-0.304878,1.524390,-5.662500,39.424999,-3.243750,0.0,1.000000,0.000000,0.000000,0.000000
1782117196.818160,1700180,-0.989258,0.016113,-0.278809,-0.365854,-2.195122,1.890244,-5.662500,39.424999,-3.243750,0.0,1.000000,0.000000,0.000000,0.000000
1782117196.828160,1700190,-0.974121,0.018555,-0.284668,0.243902,-3.780488,2.012195,-5.643750,39.537502,-3.181250,0.0,1.000000,0.000000,0.000000,0.000000
1782117196.838160,1700200,-0.955078,0.016113,-0.293945,0.853659,-4.512195,2.134146,-5.643750,39.537502,-3.181250,0.0,1.000000,0.000000,0.000000,0.000000
1782117196.850160,1700212,-0.946289,0.006348,-0.300781,1.280488,-4.329268,2.012195,-5.687500,39.375000,-3.243750,0.0,1.000000,0.000000,0.000000,0.000000
1782117196.858160,1700220,-0.942383,0.003906,-0.309082,1.768293,-3.902439,1.890244,-5.687500,39.375000,-3.243750,0.0,1.000000,0.000000,0.000000,0.000000
1782117196.869160,1700231,-0.944824,-0.010742,-0.311523,2.560976,-3.170732,1.951220,-5.662500,39.368752,-3.175000,0.0,1.000000,0.000000,0.000000,0.000000
1782117196.879160,1700241,-0.949219,-0.019043,-0.315430,4.085366,-3.292683,1.707317,-5.662500,39.368752,-3.175000,0.0,1.000000,0.000000,0.000000,0.000000
1782117196.890160,1700252,-0.946289,-0.020508,-0.319824,5.121951,-3.597561,1.158537,-5.637500,39.381252,-3.050000,0.0,1.000000,0.000000,0.000000,0.000000
1782117196.898160,1700260,-0.940430,-0.014648,-0.323730,4.634146,-3.048780,0.548781,-5.637500,39.381252,-3.050000,0.0,1.000000,0.000000,0.000000,0.000000
1782117196.909160,1700271,-0.929688,-0.010742,-0.322266,3.353659,-1.951220,-0.304878,-5.518750,39.443752,-2.956250,0.0,1.000000,0.000000,0.000000,0.000000
1782117196.918160,1700280,-0.924316,-0.015137,-0.321289,1.707317,-0.060976,-1.158537,-5.518750,39.443752,-2.956250,0.0,1.000000,0.000000,0.000000,0.000000
1782117196.930160,1700292,-0.919922,-0.021484,-0.321777,0.304878,1.951220,-1.890244,-5.506250,39.350002,-2.868750,0.0,1.000000,0.000000,0.000000,0.000000
1782117196.938160,1700300,-0.906250,-0.023438,-0.324219,-1.158537,4.451220,-2.256098,-5.506250,39.350002,-2.868750,0.0,1.000000,0.000000,0.000000,0.000000
1782117196.948160,1700310,-0.896484,-0.028809,-0.328125,-2.439024,7.195122,-2.195122,-5.556250,39.356251,-2.925000,0.0,1.000000,0.000000,0.000000,0.000000
1782117196.958160,1700320,-0.884766,-0.029297,-0.332520,-2.865854,9.878049,-1.707317,-5.556250,39.356251,-2.925000,0.0,1.000000,0.000000,0.000000,0.000000
1782117196.970160,1700332,-0.885254,-0.026855,-0.331055,-1.036585,12.195122,-0.609756,-5.681250,39.325001,-3.075000,0.0,1.000000,0.000000,0.000000,0.000000
1782117196.978160,1700340,-0.904297,-0.025391,-0.328125,3.414634,12.134147,1.158537,-5.681250,39.325001,-3.075000,0.0,1.000000,0.000000,0.000000,0.000000
1782117196.988160,1700350,-0.933594,-0.023926,-0.326172,10.426829,9.695122,3.658537,-5.400000,39.631252,-3.156250,0.0,1.000000,0.000000,0.000000,0.000000
1782117196.998160,1700360,-0.976074,-0.018066,-0.311035,19.451220,4.390244,7.378049,-5.400000,39.631252,-3.156250,0.0,1.000000,0.000000,0.000000,0.000000
1782117197.011160,1700373,-1.029297,0.000488,-0.282227,28.719513,-3.414634,10.914635,-5.593750,39.368752,-3.225000,0.0,1.000000,0.000000,0.000000,0.000000
1782117197.018160,1700380,-1.061523,0.023438,-0.257324,35.243904,-10.731708,12.987805,-5.281250,39.575001,-3.068750,0.0,1.000000,0.000000,0.000000,0.000000
1782117197.029160,1700391,-1.069824,0.018066,-0.242676,37.439026,-14.573171,12.317074,-5.281250,39.575001,-3.068750,0.0,1.000000,0.000000,0.000000,0.000000
1782117197.038160,1700400,-1.044922,-0.002930,-0.256348,36.402439,-13.963415,9.329268,-4.850000,39.850002,-2.656250,0.0,1.000000,0.000000,0.000000,0.000000
1782117197.050160,1700412,-1.016113,-0.016113,-0.281738,33.658539,-9.146341,5.975610,-4.850000,39.850002,-2.656250,0.0,1.000000,0.000000,0.000000,0.000000
1782117197.059160,1700421,-1.001465,-0.001953,-0.302246,29.634148,-4.329268,3.109756,-4.718750,39.881252,-2.362500,0.0,1.000000,0.000000,0.000000,0.000000
1782117197.069160,1700431,-0.971680,0.049805,-0.317871,25.060976,-3.170732,0.487805,-4.718750,39.881252,-2.362500,0.0,1.000000,0.000000,0.000000,0.000000
1782117197.078160,1700440,-0.922363,0.116699,-0.319336,19.878050,-2.500000,-1.463415,-4.981250,39.512501,-2.250000,0.0,1.000000,0.000000,0.000000,0.000000
1782117197.090160,1700452,-0.898438,0.169434,-0.307129,12.560976,-1.158537,-1.463415,-4.981250,39.512501,-2.250000,0.0,1.000000,0.000000,0.000000,0.000000
1782117197.098160,1700460,-0.905273,0.195312,-0.295898,1.707317,-1.036585,-0.609756,-4.750000,39.856251,-2.112500,0.0,1.000000,0.000000,0.000000,0.000000
1782117197.109160,1700471,-0.919922,0.198242,-0.292969,-10.792684,-1.829268,0.182927,-4.750000,39.856251,-2.112500,0.0,1.000000,0.000000,0.000000,0.000000
1782117197.118160,1700480,-0.942383,0.174316,-0.285645,-21.036587,-2.317073,0.792683,-4.781250,39.837502,-2.125000,0.0,1.000000,0.000000,0.000000,0.000000
1782117197.132160,1700494,-0.962891,0.123047,-0.272461,-28.292683,-1.829268,1.219512,-4.781250,39.837502,-2.125000,0.0,1.000000,0.000000,0.000000,0.000000
1782117197.139160,1700501,-0.991699,0.064453,-0.264648,-34.024391,-0.548781,0.426829,-4.862500,39.843750,-2.275000,0.0,1.000000,0.000000,0.000000,0.000000
1782117197.151160,1700513,-1.006348,0.020020,-0.254883,-38.109756,0.000000,-0.914634,-4.862500,39.843750,-2.275000,0.0,1.000000,0.000000,0.000000,0.000000
1782117197.158160,1700520,-1.005859,-0.016113,-0.228027,-38.597561,-0.548781,-2.317073,-5.068750,39.837502,-2.518750,0.0,1.000000,0.000000,0.000000,0.000000
1782117197.169160,1700531,-1.002441,-0.040039,-0.202637,-35.304878,-1.097561,-2.804878,-5.068750,39.837502,-2.518750,0.0,1.000000,0.000000,0.000000,0.000000
1782117197.179160,1700541,-1.001465,-0.054199,-0.185059,-29.024391,-1.890244,-2.256098,-5.137500,39.775002,-2.675000,0.0,1.000000,0.000000,0.000000,0.000000
1782117197.188160,1700550,-0.987793,-0.060059,-0.173340,-21.341463,-2.926829,-1.890244,-5.137500,39.775002,-2.675000,0.0,1.000000,0.000000,0.000000,0.000000
1782117197.198160,1700560,-0.979492,-0.061523,-0.169434,-14.268293,-2.926829,-1.524390,-5.362500,39.662502,-2.831250,0.0,1.000000,0.000000,0.000000,0.000000
1782117197.208160,1700570,-0.976074,-0.065918,-0.184082,-8.658537,-2.317073,-0.914634,-5.362500,39.662502,-2.831250,0.0,1.000000,0.000000,0.000000,0.000000
1782117197.219160,1700581,-0.979980,-0.060547,-0.207520,-4.878049,-1.402439,-0.121951,-5.568750,39.556252,-2.937500,0.0,1.000000,0.000000,0.000000,0.000000
1782117197.228160,1700590,-0.981445,-0.051270,-0.229004,-2.134146,-0.731707,0.243902,-5.568750,39.556252,-2.937500,0.0,1.000000,0.000000,0.000000,0.000000
1782117197.238160,1700600,-0.981445,-0.051270,-0.229004,-2.134146,-0.731707,0.243902,-5.625000,39.725002,-2.868750,0.0,1.000000,0.000000,0.000000,0.000000
1782117197.248160,1700610,-0.977051,-0.044434,-0.241211,0.609756,-0.243902,-0.060976,-5.625000,39.725002,-2.868750,0.0,1.000000,0.000000,0.000000,0.000000
1782117197.258160,1700620,-0.977051,-0.038574,-0.246582,3.841464,0.243902,-0.182927,-5.643750,39.806252,-2.862500,0.0,1.000000,0.000000,0.000000,0.000000
1782117197.268160,1700630,-0.980469,-0.029297,-0.251953,7.134147,0.426829,0.243902,-5.643750,39.806252,-2.862500,0.0,1.000000,0.000000,0.000000,0.000000
1782117197.278160,1700640,-0.983887,-0.013184,-0.252930,9.573171,0.365854,0.975610,-5.687500,39.781250,-2.812500,0.0,1.000000,0.000000,0.000000,0.000000
1782117197.289160,1700651,-0.980957,0.005859,-0.244141,11.097561,-0.182927,1.341463,-5.687500,39.781250,-2.812500,0.0,1.000000,0.000000,0.000000,0.000000
1782117197.299160,1700661,-0.970215,0.016113,-0.235352,12.073171,0.060976,1.463415,-5.643750,39.737499,-2.787500,0.0,1.000000,0.000000,0.000000,0.000000
1782117197.308160,1700670,-0.967773,0.015137,-0.229980,12.926829,1.341463,1.646341,-5.643750,39.737499,-2.787500,0.0,1.000000,0.000000,0.000000,0.000000
1782117197.318160,1700680,-0.971680,0.007324,-0.232422,13.292684,2.621951,2.134146,-5.562500,39.731251,-2.737500,0.0,1.000000,0.000000,0.000000,0.000000
1782117197.328160,1700690,-0.985840,-0.003906,-0.234863,12.560976,3.414634,2.804878,-5.268750,39.962502,-2.643750,0.0,1.000000,0.000000,0.000000,0.000000
1782117197.338160,1700700,-0.995117,-0.002930,-0.233887,10.914635,2.865854,3.414634,-5.268750,39.962502,-2.643750,0.0,1.000000,0.000000,0.000000,0.000000
1782117197.348160,1700710,-0.993652,0.004395,-0.230957,9.024390,1.341463,3.414634,-5.256250,39.793751,-2.650000,0.0,1.000000,0.000000,0.000000,0.000000
1782117197.358160,1700720,-0.985352,0.010742,-0.228027,7.560976,0.060976,3.048780,-5.256250,39.793751,-2.650000,0.0,1.000000,0.000000,0.000000,0.000000
1782117197.368160,1700730,-0.979004,0.015137,-0.224121,6.524390,-0.609756,2.500000,-5.293750,39.725002,-2.600000,0.0,1.000000,0.000000,0.000000,0.000000
1782117197.378160,1700740,-0.973145,0.020508,-0.219727,5.609756,-0.792683,1.707317,-5.293750,39.725002,-2.600000,0.0,1.000000,0.000000,0.000000,0.000000
1782117197.388160,1700750,-0.963379,0.020996,-0.216309,4.573171,-0.304878,0.792683,-5.018750,39.975002,-2.512500,0.0,1.000000,0.000000,0.000000,0.000000
1782117197.398160,1700760,-0.961426,0.014160,-0.221680,4.085366,0.975610,0.182927,-5.018750,39.975002,-2.512500,0.0,1.000000,0.000000,0.000000,0.000000
