Unix_Time_s,IMU1_RefTime,ax_g,ay_g,az_g,gx_dps,gy_dps,gz_dps,mx_uT,my_uT,mz_uT,temp_C,qw,qx,qy,qz
1782117189.598160,1689019,0.923828,-0.018555,-0.390625,1.951220,0.243902,-1.036585,16.368750,-36.243752,2.250000,0.0,1.000000,0.000000,0.000000,0.000000
1782117189.608160,1689029,0.919922,-0.013672,-0.389648,1.219512,0.426829,-0.914634,16.356251,-36.350002,2.275000,0.0,1.000000,0.000000,0.000000,0.000000
1782117189.618160,1689039,0.918457,-0.011230,-0.388672,0.792683,0.426829,-0.914634,16.356251,-36.350002,2.275000,0.0,1.000000,0.000000,0.000000,0.000000
1782117189.629160,1689050,0.918457,-0.011230,-0.390137,0.426829,0.304878,-0.853659,16.368750,-36.212502,2.212500,0.0,1.000000,0.000000,0.000000,0.000000
1782117189.638160,1689059,0.915527,-0.013184,-0.393066,0.182927,0.121951,-0.792683,16.368750,-36.212502,2.212500,0.0,1.000000,0.000000,0.000000,0.000000
1782117189.649160,1689070,0.915527,-0.018066,-0.394043,0.243902,-0.121951,-0.792683,16.393751,-36.237499,2.287500,0.0,1.000000,0.000000,0.000000,0.000000
1782117189.658160,1689079,0.915039,-0.023438,-0.395996,0.426829,-0.365854,-0.792683,16.393751,-36.237499,2.287500,0.0,1.000000,0.000000,0.000000,0.000000
1782117189.668160,1689089,0.916992,-0.026855,-0.396484,0.609756,-0.548781,-0.853659,16.368750,-36.243752,2.237500,0.0,1.000000,0.000000,0.000000,0.000000
1782117189.678160,1689099,0.920898,-0.028809,-0.395996,0.853659,-0.426829,-0.853659,16.368750,-36.243752,2.237500,0.0,1.000000,0.000000,0.000000,0.000000
1782117189.688160,1689109,0.923828,-0.027832,-0.394531,1.280488,-0.121951,-0.975610,16.400000,-36.225002,2.231250,0.0,1.000000,0.000000,0.000000,0.000000
1782117189.698160,1689119,0.923340,-0.024414,-0.392090,1.524390,0.060976,-0.914634,16.400000,-36.225002,2.231250,0.0,1.000000,0.000000,0.000000,0.000000
1782117189.708160,1689129,0.924316,-0.020508,-0.390625,1.707317,0.182927,-0.975610,16.356251,-36.362499,2.231250,0.0,1.000000,0.000000,0.000000,0.000000
1782117189.719160,1689140,0.922852,-0.015137,-0.388184,1.646341,0.304878,-0.975610,16.356251,-36.362499,2.231250,0.0,1.000000,0.000000,0.000000,0.000000
1782117189.728160,1689149,0.922363,-0.012695,-0.385254,1.402439,0.304878,-0.853659,16.368750,-36.256252,2.206250,0.0,1.000000,0.000000,0.000000,0.000000
1782117189.738160,1689159,0.919922,-0.010254,-0.384277,1.036585,0.182927,-0.792683,16.368750,-36.256252,2.206250,0.0,1.000000,0.000000,0.000000,0.000000
1782117189.748160,1689169,0.919434,-0.010254,-0.384277,0.731707,0.000000,-0.731707,16.450001,-36.112499,2.143750,0.0,1.000000,0.000000,0.000000,0.000000
1782117189.758160,1689179,0.918945,-0.011230,-0.382812,0.548781,-0.182927,-0.548781,16.450001,-36.112499,2.143750,0.0,1.000000,0.000000,0.000000,0.000000
1782117189.768160,1689189,0.918945,-0.014160,-0.383789,0.243902,-0.426829,-0.426829,16.350000,-36.281250,2.206250,0.0,1.000000,0.000000,0.000000,0.000000
1782117189.778160,1689199,0.919922,-0.017090,-0.388184,0.000000,-0.487805,-0.426829,16.350000,-36.281250,2.206250,0.0,1.000000,0.000000,0.000000,0.000000
1782117189.788160,1689209,0.920898,-0.020508,-0.389648,-0.182927,-0.487805,-0.548781,16.412500,-36.231251,2.162500,0.0,1.000000,0.000000,0.000000,0.000000
1782117189.799160,1689220,0.920410,-0.022949,-0.392090,-0.243902,-0.426829,-0.609756,16.412500,-36.231251,2.162500,0.0,1.000000,0.000000,0.000000,0.000000
1782117189.811160,1689232,0.922363,-0.026855,-0.393555,-0.243902,-0.365854,-0.670732,16.431250,-36.206249,2.206250,0.0,1.000000,0.000000,0.000000,0.000000
1782117189.819160,1689240,0.921875,-0.029297,-0.393555,-0.060976,-0.243902,-0.670732,16.431250,-36.206249,2.206250,0.0,1.000000,0.000000,0.000000,0.000000
1782117189.828160,1689249,0.922363,-0.030273,-0.392090,0.426829,-0.304878,-0.670732,16.450001,-36.156250,2.162500,0.0,1.000000,0.000000,0.000000,0.000000
1782117189.839160,1689260,0.922852,-0.028809,-0.390137,0.853659,-0.426829,-0.731707,16.450001,-36.156250,2.162500,0.0,1.000000,0.000000,0.000000,0.000000
1782117189.850160,1689271,0.920898,-0.024902,-0.388672,1.097561,-0.365854,-0.731707,16.350000,-36.262501,2.187500,0.0,1.000000,0.000000,0.000000,0.000000
1782117189.858160,1689279,0.923340,-0.020020,-0.387207,1.158537,-0.426829,-0.670732,16.350000,-36.262501,2.187500,0.0,1.000000,0.000000,0.000000,0.000000
1782117189.869160,1689290,0.921875,-0.016113,-0.387207,1.036585,-0.426829,-0.670732,16.443750,-36.212502,2.168750,0.0,1.000000,0.000000,0.000000,0.000000
1782117189.878160,1689299,0.920410,-0.013672,-0.386719,0.914634,-0.426829,-0.792683,16.443750,-36.212502,2.168750,0.0,1.000000,0.000000,0.000000,0.000000
1782117189.888160,1689309,0.919922,-0.010742,-0.385254,0.731707,-0.426829,-0.670732,16.437500,-36.262501,2.200000,0.0,1.000000,0.000000,0.000000,0.000000
1782117189.898160,1689319,0.919434,-0.012207,-0.384766,0.365854,-0.426829,-0.670732,16.437500,-36.262501,2.200000,0.0,1.000000,0.000000,0.000000,0.000000
1782117189.908160,1689329,0.919922,-0.012695,-0.385254,-0.121951,-0.426829,-0.548781,16.431250,-36.187500,2.112500,0.0,1.000000,0.000000,0.000000,0.000000
1782117189.918160,1689339,0.918945,-0.015625,-0.388184,-0.609756,-0.487805,-0.365854,16.431250,-36.187500,2.112500,0.0,1.000000,0.000000,0.000000,0.000000
1782117189.929160,1689350,0.918945,-0.016602,-0.390625,-0.914634,-0.609756,-0.182927,16.381250,-36.287502,2.156250,0.0,1.000000,0.000000,0.000000,0.000000
1782117189.938160,1689359,0.919922,-0.017090,-0.391602,-1.158537,-0.853659,-0.060976,16.381250,-36.287502,2.156250,0.0,1.000000,0.000000,0.000000,0.000000
1782117189.949160,1689370,0.922852,-0.019531,-0.392090,-1.219512,-0.914634,-0.121951,16.412500,-36.331249,2.206250,0.0,1.000000,0.000000,0.000000,0.000000
1782117189.958160,1689379,0.924316,-0.020996,-0.392090,-1.158537,-0.609756,0.000000,16.412500,-36.331249,2.206250,0.0,1.000000,0.000000,0.000000,0.000000
1782117189.969160,1689390,0.921387,-0.021973,-0.390625,-1.219512,-0.548781,0.121951,16.456251,-36.187500,2.112500,0.0,1.000000,0.000000,0.000000,0.000000
1782117189.978160,1689399,0.919434,-0.022461,-0.390137,-1.158537,-0.487805,0.182927,16.456251,-36.187500,2.112500,0.0,1.000000,0.000000,0.000000,0.000000
1782117189.988160,1689409,0.919434,-0.022461,-0.391113,-1.097561,-0.548781,0.121951,16.431250,-36.200001,2.112500,0.0,1.000000,0.000000,0.000000,0.000000
1782117189.998160,1689419,0.919434,-0.022461,-0.391113,-0.914634,-0.548781,0.060976,16.431250,-36.200001,2.112500,0.0,1.000000,0.000000,0.000000,0.000000
1782117190.008160,1689429,0.919434,-0.021484,-0.392578,-0.548781,-0.548781,-0.060976,16.381250,-36.293751,2.193750,0.0,1.000000,0.000000,0.000000,0.000000
1782117190.018160,1689439,0.918945,-0.020508,-0.393555,-0.243902,-0.609756,-0.182927,16.481251,-36.093750,2.106250,0.0,1.000000,0.000000,0.000000,0.000000
1782117190.028160,1689449,0.919434,-0.019043,-0.393066,0.000000,-0.609756,-0.243902,16.481251,-36.093750,2.106250,0.0,1.000000,0.000000,0.000000,0.000000
1782117190.038160,1689459,0.919922,-0.018066,-0.391602,0.182927,-0.670732,-0.304878,16.481251,-36.093750,2.106250,0.0,1.000000,0.000000,0.000000,0.000000
1782117190.048160,1689469,0.919434,-0.017578,-0.390137,0.121951,-0.609756,-0.304878,16.425001,-36.262501,2.125000,0.0,1.000000,0.000000,0.000000,0.000000
1782117190.059160,1689480,0.919434,-0.018066,-0.390625,0.000000,-0.548781,-0.304878,16.437500,-36.256252,2.150000,0.0,1.000000,0.000000,0.000000,0.000000
1782117190.068160,1689489,0.917480,-0.020508,-0.391113,-0.060976,-0.548781,-0.304878,16.437500,-36.256252,2.150000,0.0,1.000000,0.000000,0.000000,0.000000
1782117190.078160,1689499,0.918457,-0.020508,-0.390137,-0.121951,-0.609756,-0.182927,16.412500,-36.206249,2.162500,0.0,1.000000,0.000000,0.000000,0.000000
1782117190.088160,1689509,0.916992,-0.024414,-0.390137,-0.243902,-0.731707,-0.121951,16.412500,-36.206249,2.162500,0.0,1.000000,0.000000,0.000000,0.000000
1782117190.099160,1689520,0.917480,-0.023438,-0.390625,-0.365854,-0.792683,-0.121951,16.462500,-36.187500,2.093750,0.0,1.000000,0.000000,0.000000,0.000000
1782117190.108160,1689529,0.916992,-0.022461,-0.391602,-0.487805,-0.853659,-0.060976,16.462500,-36.187500,2.093750,0.0,1.000000,0.000000,0.000000,0.000000
1782117190.118160,1689539,0.918457,-0.020996,-0.394043,-0.487805,-1.036585,-0.182927,16.593750,-36.006252,1.981250,0.0,1.000000,0.000000,0.000000,0.000000
1782117190.128160,1689549,0.918457,-0.020508,-0.394531,-0.487805,-1.219512,-0.243902,16.593750,-36.006252,1.981250,0.0,1.000000,0.000000,0.000000,0.000000
1782117190.138160,1689559,0.919922,-0.021484,-0.392090,-0.304878,-1.219512,-0.304878,16.418751,-36.243752,2.100000,0.0,1.000000,0.000000,0.000000,0.000000
1782117190.148160,1689569,0.920410,-0.022461,-0.392090,-0.060976,-1.219512,-0.304878,16.418751,-36.243752,2.100000,0.0,1.000000,0.000000,0.000000,0.000000
1782117190.158160,1689579,0.919922,-0.023438,-0.391113,0.182927,-1.097561,-0.487805,16.450001,-36.237499,2.125000,0.0,1.000000,0.000000,0.000000,0.000000
1782117190.168160,1689589,0.919434,-0.024902,-0.392578,0.426829,-0.914634,-0.548781,16.450001,-36.237499,2.125000,0.0,1.000000,0.000000,0.000000,0.000000
1782117190.178160,1689599,0.919434,-0.025879,-0.391602,0.670732,-0.975610,-0.670732,16.500000,-36.112499,1.975000,0.0,1.000000,0.000000,0.000000,0.000000
1782117190.188160,1689609,0.919434,-0.026855,-0.391602,0.914634,-1.036585,-0.670732,16.500000,-36.112499,1.975000,0.0,1.000000,0.000000,0.000000,0.000000
1782117190.198160,1689619,0.917969,-0.027344,-0.392090,1.158537,-1.158537,-0.731707,16.393751,-36.312500,2.093750,0.0,1.000000,0.000000,0.000000,0.000000
1782117190.208160,1689629,0.919922,-0.028320,-0.393066,1.463415,-1.280488,-0.731707,16.393751,-36.312500,2.093750,0.0,1.000000,0.000000,0.000000,0.000000
1782117190.221160,1689642,0.920410,-0.025879,-0.393066,1.707317,-1.280488,-0.853659,16.462500,-36.181252,1.981250,0.0,1.000000,0.000000,0.000000,0.000000
1782117190.229160,1689650,0.918945,-0.024414,-0.394043,1.829268,-1.158537,-0.914634,16.462500,-36.181252,1.981250,0.0,1.000000,0.000000,0.000000,0.000000
1782117190.238160,1689659,0.916504,-0.021973,-0.393555,1.768293,-1.158537,-0.914634,16.450001,-36.193752,1.968750,0.0,1.000000,0.000000,0.000000,0.000000
1782117190.248160,1689669,0.918457,-0.019531,-0.392578,1.585366,-1.158537,-0.975610,16.450001,-36.193752,1.968750,0.0,1.000000,0.000000,0.000000,0.000000
1782117190.258160,1689679,0.918457,-0.020996,-0.391113,1.524390,-1.097561,-1.097561,16.475000,-36.168751,1.906250,0.0,1.000000,0.000000,0.000000,0.000000
1782117190.268160,1689689,0.919922,-0.021973,-0.393555,1.463415,-1.158537,-1.158537,16.475000,-36.168751,1.906250,0.0,1.000000,0.000000,0.000000,0.000000
1782117190.278160,1689699,0.918945,-0.022461,-0.396484,1.524390,-1.219512,-1.158537,16.387501,-36.287502,1.975000,0.0,1.000000,0.000000,0.000000,0.000000
1782117190.288160,1689709,0.917480,-0.024902,-0.398438,1.829268,-1.280488,-1.158537,16.387501,-36.287502,1.975000,0.0,1.000000,0.000000,0.000000,0.000000
1782117190.298160,1689719,0.916016,-0.023926,-0.400879,2.256098,-1.524390,-1.219512,16.575001,-36.125000,1.793750,0.0,1.000000,0.000000,0.000000,0.000000
1782117190.308160,1689729,0.916992,-0.021484,-0.399414,2.439024,-1.585366,-1.341463,16.575001,-36.125000,1.793750,0.0,1.000000,0.000000,0.000000,0.000000
1782117190.318160,1689739,0.917480,-0.020996,-0.397949,2.743902,-1.341463,-1.585366,16.487501,-36.174999,1.856250,0.0,1.000000,0.000000,0.000000,0.000000
1782117190.328160,1689749,0.916992,-0.023926,-0.397949,3.231707,-1.280488,-1.890244,16.487501,-36.174999,1.856250,0.0,1.000000,0.000000,0.000000,0.000000
1782117190.338160,1689759,0.919434,-0.025391,-0.398438,3.597561,-1.219512,-2.073171,16.531250,-36.137501,1.793750,0.0,1.000000,0.000000,0.000000,0.000000
1782117190.349160,1689770,0.917969,-0.025391,-0.398438,3.902439,-1.036585,-2.195122,16.531250,-36.137501,1.793750,0.0,1.000000,0.000000,0.000000,0.000000
1782117190.358160,1689779,0.914551,-0.027832,-0.394531,4.634146,-1.036585,-2.256098,16.543751,-36.100002,1.737500,0.0,1.000000,0.000000,0.000000,0.000000
1782117190.368160,1689789,0.913574,-0.033203,-0.395508,5.365854,-1.341463,-2.378049,16.543751,-36.100002,1.737500,0.0,1.000000,0.000000,0.000000,0.000000
1782117190.380160,1689801,0.919434,-0.034180,-0.395508,6.219512,-1.402439,-2.439024,16.600000,-36.056252,1.650000,0.0,1.000000,0.000000,0.000000,0.000000
1782117190.388160,1689809,0.923340,-0.033691,-0.396973,6.768293,-1.402439,-2.439024,16.600000,-36.056252,1.650000,0.0,1.000000,0.000000,0.000000,0.000000
1782117190.398160,1689819,0.919434,-0.028320,-0.395996,6.829268,-1.097561,-2.500000,16.631250,-36.093750,1.593750,0.0,1.000000,0.000000,0.000000,0.000000
1782117190.409160,1689830,0.915039,-0.026367,-0.399414,6.890244,-1.219512,-2.560976,16.631250,-36.093750,1.593750,0.0,1.000000,0.000000,0.000000,0.000000
1782117190.418160,1689839,0.914062,-0.022461,-0.403320,6.707317,-1.402439,-2.743902,16.637501,-36.049999,1.537500,0.0,1.000000,0.000000,0.000000,0.000000
1782117190.428160,1689849,0.913574,-0.020020,-0.402832,6.707317,-1.646341,-2.865854,16.637501,-36.049999,1.537500,0.0,1.000000,0.000000,0.000000,0.000000
1782117190.438160,1689859,0.916016,-0.019531,-0.399902,6.768293,-1.646341,-2.926829,16.637501,-36.125000,1.525000,0.0,1.000000,0.000000,0.000000,0.000000
1782117190.448160,1689869,0.920410,-0.017578,-0.395508,6.463415,-1.585366,-2.987805,16.637501,-36.125000,1.525000,0.0,1.000000,0.000000,0.000000,0.000000
1782117190.459160,1689880,0.920410,-0.014648,-0.395508,6.158537,-1.463415,-2.865854,16.643751,-36.162502,1.437500,0.0,1.000000,0.000000,0.000000,0.000000
1782117190.468160,1689889,0.920410,-0.012695,-0.392578,5.914634,-1.341463,-2.560976,16.643751,-36.162502,1.437500,0.0,1.000000,0.000000,0.000000,0.000000
1782117190.478160,1689899,0.917480,-0.011230,-0.389648,5.609756,-1.280488,-2.439024,16.731251,-35.912502,1.287500,0.0,1.000000,0.000000,0.000000,0.000000
1782117190.489160,1689910,0.917480,-0.009277,-0.386230,5.182927,-1.463415,-2.378049,16.731251,-35.912502,1.287500,0.0,1.000000,0.000000,0.000000,0.000000
1782117190.499160,1689920,0.920898,-0.011230,-0.383301,4.451220,-1.463415,-2.256098,16.737501,-35.962502,1.331250,0.0,1.000000,0.000000,0.000000,0.000000
1782117190.508160,1689929,0.921875,-0.014160,-0.381836,3.536585,-1.341463,-2.012195,16.737501,-35.962502,1.331250,0.0,1.000000,0.000000,0.000000,0.000000
1782117190.518160,1689939,0.922852,-0.014160,-0.390137,1.829268,-1.341463,-1.524390,16.750000,-35.962502,1.225000,0.0,1.000000,0.000000,0.000000,0.000000
1782117190.528160,1689949,0.922363,-0.011230,-0.395020,1.219512,-1.341463,-1.341463,16.750000,-35.962502,1.225000,0.0,1.000000,0.000000,0.000000,0.000000
1782117190.540160,1689961,0.918945,-0.011230,-0.398438,1.036585,-1.524390,-1.219512,16.756250,-35.981251,1.231250,0.0,1.000000,0.000000,0.000000,0.000000
1782117190.548160,1689969,0.914062,-0.011719,-0.404297,1.097561,-1.768293,-1.219512,16.756250,-35.981251,1.231250,0.0,1.000000,0.000000,0.000000,0.000000
1782117190.558160,1689979,0.910156,-0.012207,-0.408691,0.975610,-2.012195,-1.219512,16.806250,-35.950001,1.193750,0.0,1.000000,0.000000,0.000000,0.000000
1782117190.568160,1689989,0.908691,-0.012207,-0.411621,0.853659,-2.256098,-1.219512,16.806250,-35.950001,1.193750,0.0,1.000000,0.000000,0.000000,0.000000
1782117190.578160,1689999,0.908691,-0.010742,-0.412598,0.609756,-2.317073,-1.219512,16.831251,-36.006252,1.156250,0.0,1.000000,0.000000,0.000000,0.000000
1782117190.588160,1690009,0.910645,-0.011230,-0.410645,0.487805,-2.439024,-1.280488,16.831251,-36.006252,1.156250,0.0,1.000000,0.000000,0.000000,0.000000
1782117190.598160,1690019,0.913574,-0.012207,-0.405762,0.365854,-2.317073,-1.219512,16.831251,-35.943752,1.081250,0.0,1.000000,0.000000,0.000000,0.000000
1782117190.608160,1690029,0.917480,-0.012207,-0.401367,0.304878,-2.439024,-1.097561,16.831251,-35.943752,1.081250,0.0,1.000000,0.000000,0.000000,0.000000
1782117190.620160,1690041,0.916504,-0.010254,-0.400391,0.060976,-2.378049,-1.036585,16.837500,-35.975002,1.093750,0.0,1.000000,0.000000,0.000000,0.000000
1782117190.628160,1690049,0.913574,-0.010254,-0.396973,-0.304878,-2.500000,-0.914634,16.837500,-35.975002,1.093750,0.0,1.000000,0.000000,0.000000,0.000000
1782117190.638160,1690059,0.914062,-0.011230,-0.395996,-0.670732,-2.743902,-0.670732,16.812500,-36.025002,1.106250,0.0,1.000000,0.000000,0.000000,0.000000
1782117190.648160,1690069,0.914551,-0.011230,-0.396484,-1.341463,-2.865854,-0.365854,16.812500,-36.025002,1.106250,0.0,1.000000,0.000000,0.000000,0.000000
1782117190.659160,1690080,0.916504,-0.009277,-0.397949,-2.012195,-2.865854,-0.182927,16.843750,-35.968750,1.025000,0.0,1.000000,0.000000,0.000000,0.000000
1782117190.668160,1690089,0.914551,-0.009277,-0.401367,-2.743902,-2.743902,0.060976,16.843750,-35.968750,1.025000,0.0,1.000000,0.000000,0.000000,0.000000
1782117190.678160,1690099,0.913574,-0.009277,-0.403809,-3.536585,-2.865854,0.365854,16.912500,-35.868752,0.906250,0.0,1.000000,0.000000,0.000000,0.000000
1782117190.688160,1690109,0.913086,-0.009277,-0.406738,-4.268293,-2.804878,0.487805,16.912500,-35.868752,0.906250,0.0,1.000000,0.000000,0.000000,0.000000
1782117190.698160,1690119,0.912109,-0.011230,-0.407227,-4.817073,-2.865854,0.731707,16.793751,-35.993752,1.100000,0.0,1.000000,0.000000,0.000000,0.000000
1782117190.708160,1690129,0.909180,-0.014648,-0.408203,-5.304878,-3.048780,0.792683,16.793751,-35.993752,1.100000,0.0,1.000000,0.000000,0.000000,0.000000
1782117190.718160,1690139,0.911621,-0.017578,-0.409180,-5.731708,-3.292683,0.792683,16.793751,-36.068752,1.100000,0.0,1.000000,0.000000,0.000000,0.000000
1782117190.729160,1690150,0.912598,-0.020020,-0.408203,-6.097561,-3.292683,0.975610,16.793751,-36.068752,1.100000,0.0,1.000000,0.000000,0.000000,0.000000
1782117190.739160,1690160,0.911133,-0.023438,-0.404297,-6.036585,-3.109756,0.975610,16.825001,-35.962502,0.937500,0.0,1.000000,0.000000,0.000000,0.000000
1782117190.748160,1690169,0.911133,-0.024902,-0.399902,-5.731708,-3.048780,0.853659,16.825001,-35.962502,0.937500,0.0,1.000000,0.000000,0.000000,0.000000
1782117190.758160,1690179,0.916992,-0.028320,-0.399414,-5.243903,-2.926829,0.731707,16.850000,-35.924999,0.987500,0.0,1.000000,0.000000,0.000000,0.000000
1782117190.768160,1690189,0.917969,-0.030762,-0.400879,-4.512195,-2.560976,0.670732,16.850000,-35.924999,0.987500,0.0,1.000000,0.000000,0.000000,0.000000
1782117190.778160,1690199,0.916992,-0.030762,-0.401855,-3.719512,-2.439024,0.731707,16.800001,-36.006252,1.025000,0.0,1.000000,0.000000,0.000000,0.000000
1782117190.789160,1690210,0.914551,-0.030273,-0.403320,-3.170732,-2.560976,0.731707,16.800001,-36.006252,1.025000,0.0,1.000000,0.000000,0.000000,0.000000
1782117190.799160,1690220,0.913086,-0.026855,-0.406738,-2.743902,-2.560976,0.670732,16.837500,-35.931252,0.950000,0.0,1.000000,0.000000,0.000000,0.000000
1782117190.808160,1690229,0.913574,-0.023438,-0.408691,-2.378049,-2.439024,0.548781,16.837500,-35.931252,0.950000,0.0,1.000000,0.000000,0.000000,0.000000
1782117190.818160,1690239,0.913574,-0.020020,-0.410156,-2.195122,-2.256098,0.426829,16.718750,-36.043751,1.006250,0.0,1.000000,0.000000,0.000000,0.000000
1782117190.828160,1690249,0.911621,-0.018555,-0.411133,-2.134146,-2.073171,0.365854,16.718750,-36.043751,1.006250,0.0,1.000000,0.000000,0.000000,0.000000
1782117190.838160,1690259,0.909668,-0.019043,-0.413086,-2.134146,-2.134146,0.243902,16.812500,-36.049999,0.925000,0.0,1.000000,0.000000,0.000000,0.000000
1782117190.849160,1690270,0.906738,-0.018555,-0.415039,-2.195122,-2.256098,0.243902,16.812500,-36.049999,0.925000,0.0,1.000000,0.000000,0.000000,0.000000
1782117190.861160,1690282,0.903809,-0.016113,-0.414551,-2.256098,-2.439024,0.182927,16.768751,-36.062500,0.956250,0.0,1.000000,0.000000,0.000000,0.000000
1782117190.869160,1690290,0.903809,-0.016113,-0.415527,-2.378049,-2.621951,0.121951,16.768751,-36.062500,0.956250,0.0,1.000000,0.000000,0.000000,0.000000
1782117190.878160,1690299,0.901367,-0.016113,-0.416016,-2.378049,-2.804878,0.060976,16.800001,-36.000000,0.912500,0.0,1.000000,0.000000,0.000000,0.000000
1782117190.888160,1690309,0.902344,-0.016113,-0.416992,-2.317073,-2.926829,0.060976,16.800001,-36.000000,0.912500,0.0,1.000000,0.000000,0.000000,0.000000
1782117190.898160,1690319,0.899902,-0.018555,-0.416016,-2.195122,-2.926829,0.000000,16.756250,-36.081249,0.975000,0.0,1.000000,0.000000,0.000000,0.000000
1782117190.908160,1690329,0.900879,-0.020996,-0.416016,-1.951220,-3.109756,-0.060976,16.756250,-36.081249,0.975000,0.0,1.000000,0.000000,0.000000,0.000000
1782117190.918160,1690339,0.898926,-0.025879,-0.414062,-1.707317,-3.231707,0.000000,16.756250,-36.025002,0.893750,0.0,1.000000,0.000000,0.000000,0.000000
1782117190.928160,1690349,0.892578,-0.033691,-0.413086,-0.975610,-3.902439,0.243902,16.756250,-36.025002,0.893750,0.0,1.000000,0.000000,0.000000,0.000000
1782117190.939160,1690360,0.887695,-0.042480,-0.408203,0.000000,-5.000000,0.548781,16.718750,-36.112499,0.893750,0.0,1.000000,0.000000,0.000000,0.000000
1782117190.948160,1690369,0.892578,-0.045410,-0.408203,1.158537,-6.158537,0.548781,16.718750,-36.112499,0.893750,0.0,1.000000,0.000000,0.000000,0.000000
1782117190.958160,1690379,0.903320,-0.035645,-0.413574,2.134146,-6.463415,0.304878,16.756250,-36.056252,0.693750,0.0,1.000000,0.000000,0.000000,0.000000
1782117190.968160,1690389,0.908691,-0.015625,-0.421875,2.256098,-5.609756,0.000000,16.756250,-36.056252,0.693750,0.0,1.000000,0.000000,0.000000,0.000000
1782117190.978160,1690399,0.910156,-0.002441,-0.430176,1.463415,-4.207317,-0.243902,16.712500,-36.131252,0.618750,0.0,1.000000,0.000000,0.000000,0.000000
1782117190.988160,1690409,0.909180,-0.005859,-0.437988,0.487805,-3.170732,-0.609756,16.712500,-36.131252,0.618750,0.0,1.000000,0.000000,0.000000,0.000000
1782117190.998160,1690419,0.907715,-0.019043,-0.445801,-0.121951,-2.682927,-0.548781,16.681250,-36.131252,0.556250,0.0,1.000000,0.000000,0.000000,0.000000
1782117191.008160,1690429,0.906738,-0.034668,-0.437988,-0.121951,-2.560976,-0.304878,16.681250,-36.131252,0.556250,0.0,1.000000,0.000000,0.000000,0.000000
1782117191.021160,1690442,0.896484,-0.047363,-0.425781,0.121951,-2.682927,0.000000,16.706251,-36.106251,0.600000,0.0,1.000000,0.000000,0.000000,0.000000
1782117191.029160,1690450,0.895996,-0.048828,-0.411133,0.670732,-3.902439,0.182927,16.706251,-36.106251,0.600000,0.0,1.000000,0.000000,0.000000,0.000000
1782117191.038160,1690459,0.915527,-0.044434,-0.405273,1.158537,-5.060976,0.000000,16.800001,-35.937500,0.400000,0.0,1.000000,0.000000,0.000000,0.000000
1782117191.048160,1690469,0.928711,-0.032715,-0.399902,1.524390,-4.878049,0.121951,16.800001,-35.937500,0.400000,0.0,1.000000,0.000000,0.000000,0.000000
1782117191.058160,1690479,0.934570,-0.016602,-0.398926,1.585366,-4.268293,0.365854,16.662500,-36.168751,0.375000,0.0,1.000000,0.000000,0.000000,0.000000
1782117191.070160,1690491,0.946777,-0.002441,-0.405762,0.670732,-3.353659,0.304878,16.662500,-36.168751,0.375000,0.0,1.000000,0.000000,0.000000,0.000000
1782117191.078160,1690499,0.944336,0.000977,-0.411133,-0.914634,-1.463415,0.548781,16.881250,-35.762501,0.143750,0.0,1.000000,0.000000,0.000000,0.000000
1782117191.088160,1690509,0.937012,-0.003906,-0.417480,-2.500000,-0.365854,0.670732,16.881250,-35.762501,0.143750,0.0,1.000000,0.000000,0.000000,0.000000
1782117191.100160,1690521,0.935547,-0.015625,-0.420410,-3.963415,0.487805,0.914634,16.643751,-36.143749,0.362500,0.0,1.000000,0.000000,0.000000,0.000000
1782117191.108160,1690529,0.924316,-0.018066,-0.421875,-5.121951,1.585366,1.402439,16.643751,-36.143749,0.362500,0.0,1.000000,0.000000,0.000000,0.000000
1782117191.118160,1690539,0.915039,-0.011719,-0.420410,-5.975610,1.951220,1.707317,16.650000,-36.137501,0.368750,0.0,1.000000,0.000000,0.000000,0.000000
1782117191.128160,1690549,0.913574,-0.002441,-0.423828,-6.707317,2.134146,1.768293,16.650000,-36.137501,0.368750,0.0,1.000000,0.000000,0.000000,0.000000
1782117191.138160,1690559,0.911133,0.005371,-0.430176,-7.500000,2.317073,1.890244,16.556250,-36.250000,0.531250,0.0,1.000000,0.000000,0.000000,0.000000
1782117191.148160,1690569,0.904297,0.011719,-0.434082,-8.170732,2.134146,2.195122,16.556250,-36.250000,0.531250,0.0,1.000000,0.000000,0.000000,0.000000
1782117191.158160,1690579,0.900879,0.011230,-0.437500,-8.719512,1.768293,2.378049,16.606251,-36.231251,0.643750,0.0,1.000000,0.000000,0.000000,0.000000
1782117191.168160,1690589,0.899414,0.007812,-0.438965,-9.085366,1.524390,2.378049,16.606251,-36.231251,0.643750,0.0,1.000000,0.000000,0.000000,0.000000
1782117191.180160,1690601,0.899902,0.004395,-0.442383,-9.146341,1.524390,2.134146,16.518751,-36.287502,0.712500,0.0,1.000000,0.000000,0.000000,0.000000
1782117191.189160,1690610,0.901855,-0.011230,-0.451660,-8.841464,1.707317,1.707317,16.518751,-36.287502,0.712500,0.0,1.000000,0.000000,0.000000,0.000000
1782117191.198160,1690619,0.906738,-0.017578,-0.459473,-7.804878,2.134146,1.402439,16.587500,-36.156250,0.768750,0.0,1.000000,0.000000,0.000000,0.000000
1782117191.208160,1690629,0.908691,-0.015625,-0.459961,-6.463415,2.682927,1.097561,16.587500,-36.156250,0.768750,0.0,1.000000,0.000000,0.000000,0.000000
1782117191.219160,1690640,0.906738,-0.011230,-0.453613,-5.121951,3.170732,0.487805,16.512501,-36.250000,0.937500,0.0,1.000000,0.000000,0.000000,0.000000
1782117191.228160,1690649,0.904785,-0.011719,-0.442871,-3.536585,3.536585,-0.304878,16.512501,-36.250000,0.937500,0.0,1.000000,0.000000,0.000000,0.000000
1782117191.238160,1690659,0.902344,-0.011719,-0.427246,-1.646341,3.780488,-1.158537,16.568750,-36.200001,0.925000,0.0,1.000000,0.000000,0.000000,0.000000
1782117191.249160,1690670,0.892578,-0.016113,-0.423340,0.487805,3.658537,-1.951220,16.568750,-36.200001,0.925000,0.0,1.000000,0.000000,0.000000,0.000000
1782117191.260160,1690681,0.885254,-0.017578,-0.421875,2.804878,2.743902,-2.865854,16.562500,-36.256252,0.962500,0.0,1.000000,0.000000,0.000000,0.000000
1782117191.269160,1690690,0.885254,-0.020508,-0.423340,4.695122,1.585366,-3.658537,16.562500,-36.256252,0.962500,0.0,1.000000,0.000000,0.000000,0.000000
1782117191.279160,1690700,0.887695,-0.025391,-0.423340,6.158537,0.853659,-4.207317,16.668751,-36.112499,0.906250,0.0,1.000000,0.000000,0.000000,0.000000
1782117191.288160,1690709,0.892578,-0.026367,-0.425293,7.195122,0.426829,-4.695122,16.668751,-36.112499,0.906250,0.0,1.000000,0.000000,0.000000,0.000000
1782117191.301160,1690722,0.902832,-0.020020,-0.432129,8.414635,-0.487805,-4.939024,16.668751,-36.206249,0.962500,0.0,1.000000,0.000000,0.000000,0.000000
1782117191.308160,1690729,0.902832,-0.020020,-0.432129,8.414635,-0.487805,-4.939024,16.668751,-36.206249,0.962500,0.0,1.000000,0.000000,0.000000,0.000000
1782117191.319160,1690740,0.901855,-0.017090,-0.431152,8.658537,-0.670732,-5.000000,16.850000,-35.937500,0.806250,0.0,1.000000,0.000000,0.000000,0.000000
1782117191.328160,1690749,0.907715,-0.018066,-0.429199,8.597561,-0.975610,-5.060976,16.850000,-35.937500,0.806250,0.0,1.000000,0.000000,0.000000,0.000000
1782117191.341160,1690762,0.921875,-0.008789,-0.424805,7.195122,-0.060976,-4.817073,16.831251,-36.062500,0.806250,0.0,1.000000,0.000000,0.000000,0.000000
1782117191.348160,1690769,0.921875,-0.008789,-0.424805,7.195122,-0.060976,-4.817073,16.831251,-36.062500,0.806250,0.0,1.000000,0.000000,0.000000,0.000000
1782117191.358160,1690779,0.924316,0.002930,-0.419434,5.670732,0.792683,-4.451220,16.937500,-35.950001,0.687500,0.0,1.000000,0.000000,0.000000,0.000000
1782117191.369160,1690790,0.926270,0.013672,-0.410156,3.780488,1.341463,-3.658537,16.937500,-35.950001,0.687500,0.0,1.000000,0.000000,0.000000,0.000000
1782117191.380160,1690801,0.928223,0.025391,-0.394531,0.000000,2.134146,-2.012195,16.912500,-36.056252,0.737500,0.0,1.000000,0.000000,0.000000,0.000000
1782117191.390160,1690811,0.926758,0.023926,-0.393066,-1.463415,2.682927,-1.158537,16.956251,-35.956249,0.706250,0.0,1.000000,0.000000,0.000000,0.000000
1782117191.398160,1690819,0.926758,0.023926,-0.393066,-1.463415,2.682927,-1.158537,16.956251,-35.956249,0.706250,0.0,1.000000,0.000000,0.000000,0.000000
1782117191.408160,1690829,0.921387,0.023438,-0.393066,-2.682927,2.987805,-0.182927,16.956251,-35.956249,0.706250,0.0,1.000000,0.000000,0.000000,0.000000
1782117191.420160,1690841,0.900879,0.013672,-0.397949,-5.365854,2.134146,1.219512,16.950001,-35.968750,0.800000,0.0,1.000000,0.000000,0.000000,0.000000
1782117191.428160,1690849,0.900879,0.013672,-0.397949,-5.365854,2.134146,1.219512,16.950001,-35.968750,0.800000,0.0,1.000000,0.000000,0.000000,0.000000
1782117191.438160,1690859,0.897949,-0.018066,-0.408691,-5.914634,0.670732,1.463415,16.950001,-35.906250,0.918750,0.0,1.000000,0.000000,0.000000,0.000000
1782117191.448160,1690869,0.902832,-0.029785,-0.415039,-5.060976,0.121951,1.280488,16.950001,-35.906250,0.918750,0.0,1.000000,0.000000,0.000000,0.000000
1782117191.461160,1690882,0.904297,-0.038086,-0.421875,-3.841464,0.060976,0.975610,16.868750,-36.100002,1.043750,0.0,1.000000,0.000000,0.000000,0.000000
1782117191.468160,1690889,0.902832,-0.040039,-0.426758,-2.743902,-0.121951,0.609756,16.868750,-36.100002,1.043750,0.0,1.000000,0.000000,0.000000,0.000000
1782117191.478160,1690899,0.903320,-0.041016,-0.428223,-1.524390,-0.365854,0.365854,16.887501,-36.037502,1.043750,0.0,1.000000,0.000000,0.000000,0.000000
1782117191.488160,1690909,0.904785,-0.035645,-0.429199,-0.426829,-0.670732,0.243902,16.887501,-36.037502,1.043750,0.0,1.000000,0.000000,0.000000,0.000000
1782117191.501160,1690922,0.908691,-0.025391,-0.429199,0.487805,-0.914634,-0.060976,16.875000,-36.087502,1.075000,0.0,1.000000,0.000000,0.000000,0.000000
1782117191.508160,1690929,0.904785,-0.013672,-0.431152,0.670732,-0.853659,0.000000,16.875000,-36.087502,1.075000,0.0,1.000000,0.000000,0.000000,0.000000
1782117191.518160,1690939,0.890137,0.002441,-0.428223,0.304878,-1.158537,0.304878,16.950001,-35.962502,1.000000,0.0,1.000000,0.000000,0.000000,0.000000
1782117191.528160,1690949,0.880859,0.015625,-0.420898,-0.548781,-2.317073,0.670732,16.950001,-35.962502,1.000000,0.0,1.000000,0.000000,0.000000,0.000000
1782117191.542160,1690963,0.887695,0.021973,-0.413086,-1.951220,-3.658537,0.670732,16.818750,-36.106251,0.993750,0.0,1.000000,0.000000,0.000000,0.000000
1782117191.548160,1690969,0.901855,0.019531,-0.408691,-3.597561,-4.207317,0.670732,16.818750,-36.106251,0.993750,0.0,1.000000,0.000000,0.000000,0.000000
1782117191.558160,1690979,0.916992,0.011230,-0.409180,-5.304878,-4.085366,0.975610,16.937500,-35.912502,0.793750,0.0,1.000000,0.000000,0.000000,0.000000
1782117191.568160,1690989,0.919434,0.002441,-0.409180,-6.768293,-3.902439,1.341463,16.937500,-35.912502,0.793750,0.0,1.000000,0.000000,0.000000,0.000000
1782117191.580160,1691001,0.917969,-0.009277,-0.404785,-6.951220,-3.902439,1.402439,16.893751,-35.950001,0.868750,0.0,1.000000,0.000000,0.000000,0.000000
1782117191.588160,1691009,0.919434,-0.021973,-0.396973,-6.402439,-3.597561,1.158537,16.887501,-35.924999,0.893750,0.0,1.000000,0.000000,0.000000,0.000000
1782117191.598160,1691019,0.920410,-0.034668,-0.392090,-5.243903,-3.170732,0.792683,16.887501,-35.924999,0.893750,0.0,1.000000,0.000000,0.000000,0.000000
1782117191.608160,1691029,0.921387,-0.045410,-0.393555,-3.841464,-2.804878,0.365854,16.887501,-35.924999,0.893750,0.0,1.000000,0.000000,0.000000,0.000000
1782117191.619160,1691040,0.920898,-0.051270,-0.398926,-2.256098,-2.500000,0.121951,16.793751,-36.174999,1.000000,0.0,1.000000,0.000000,0.000000,0.000000
1782117191.628160,1691049,0.920410,-0.050781,-0.410156,-0.609756,-2.378049,-0.182927,16.793751,-36.168751,0.975000,0.0,1.000000,0.000000,0.000000,0.000000
1782117191.640160,1691061,0.917480,-0.039551,-0.417480,0.792683,-2.256098,-0.304878,16.793751,-36.168751,0.975000,0.0,1.000000,0.000000,0.000000,0.000000
1782117191.649160,1691070,0.912598,-0.027832,-0.419922,2.012195,-1.951220,-0.426829,16.893751,-36.012501,0.881250,0.0,1.000000,0.000000,0.000000,0.000000
1782117191.660160,1691081,0.905762,-0.020020,-0.417480,2.682927,-1.829268,-0.548781,16.893751,-36.012501,0.881250,0.0,1.000000,0.000000,0.000000,0.000000
1782117191.668160,1691089,0.902832,-0.011230,-0.416504,2.743902,-2.134146,-0.670732,16.875000,-36.062500,0.868750,0.0,1.000000,0.000000,0.000000,0.000000
1782117191.678160,1691099,0.905273,-0.003906,-0.420898,2.134146,-1.951220,-0.853659,16.875000,-36.062500,0.868750,0.0,1.000000,0.000000,0.000000,0.000000
1782117191.688160,1691109,0.902344,0.001953,-0.423828,0.975610,-1.951220,-0.670732,16.881250,-36.118752,0.781250,0.0,1.000000,0.000000,0.000000,0.000000
1782117191.700160,1691121,0.904297,0.004883,-0.424805,-0.060976,-2.012195,-0.487805,16.881250,-36.118752,0.781250,0.0,1.000000,0.000000,0.000000,0.000000
1782117191.710160,1691131,0.905762,0.006348,-0.424316,-0.975610,-1.768293,-0.182927,16.906250,-36.087502,0.762500,0.0,1.000000,0.000000,0.000000,0.000000
1782117191.718160,1691139,0.905273,0.003906,-0.423340,-1.829268,-1.646341,0.243902,16.906250,-36.087502,0.762500,0.0,1.000000,0.000000,0.000000,0.000000
1782117191.728160,1691149,0.903320,0.004395,-0.420410,-2.500000,-1.768293,0.731707,16.868750,-36.093750,0.768750,0.0,1.000000,0.000000,0.000000,0.000000
1782117191.740160,1691161,0.902344,-0.000488,-0.416992,-3.231707,-1.707317,1.097561,16.868750,-36.093750,0.768750,0.0,1.000000,0.000000,0.000000,0.000000
1782117191.748160,1691169,0.900391,-0.007324,-0.412598,-3.597561,-1.707317,1.402439,16.925001,-36.037502,0.743750,0.0,1.000000,0.000000,0.000000,0.000000
1782117191.758160,1691179,0.905762,-0.009766,-0.410156,-3.963415,-1.646341,1.402439,16.925001,-36.037502,0.743750,0.0,1.000000,0.000000,0.000000,0.000000
1782117191.768160,1691189,0.913086,-0.014160,-0.414551,-4.329268,-1.463415,1.280488,16.837500,-36.118752,0.781250,0.0,1.000000,0.000000,0.000000,0.000000
1782117191.782160,1691203,0.915527,-0.016602,-0.420898,-4.573171,-1.097561,1.341463,16.837500,-36.118752,0.781250,0.0,1.000000,0.000000,0.000000,0.000000
1782117191.788160,1691209,0.911621,-0.019531,-0.426758,-4.207317,-0.609756,1.219512,16.843750,-36.137501,0.762500,0.0,1.000000,0.000000,0.000000,0.000000
1782117191.798160,1691219,0.906250,-0.022461,-0.430176,-3.353659,-0.487805,1.219512,16.843750,-36.137501,0.762500,0.0,1.000000,0.000000,0.000000,0.000000
1782117191.808160,1691229,0.904785,-0.020508,-0.429199,-2.743902,-0.487805,1.219512,16.768751,-36.212502,0.837500,0.0,1.000000,0.000000,0.000000,0.000000
1782117191.820160,1691241,0.904785,-0.017090,-0.430176,-2.621951,-0.182927,1.158537,16.768751,-36.212502,0.837500,0.0,1.000000,0.000000,0.000000,0.000000
1782117191.829160,1691250,0.900391,-0.012695,-0.430664,-2.682927,-0.243902,1.158537,16.937500,-35.875000,0.656250,0.0,1.000000,0.000000,0.000000,0.000000
1782117191.838160,1691259,0.899414,-0.013184,-0.429688,-2.804878,-0.304878,1.158537,16.937500,-35.875000,0.656250,0.0,1.000000,0.000000,0.000000,0.000000
1782117191.848160,1691269,0.902344,-0.009277,-0.431152,-2.926829,-0.426829,1.280488,16.737501,-36.256252,0.875000,0.0,1.000000,0.000000,0.000000,0.000000
1782117191.860160,1691281,0.905273,-0.002930,-0.428223,-3.109756,-0.365854,1.402439,16.737501,-36.256252,0.875000,0.0,1.000000,0.000000,0.000000,0.000000
1782117191.868160,1691289,0.906738,-0.001465,-0.425781,-3.170732,-0.182927,1.402439,16.718750,-36.243752,0.918750,0.0,1.000000,0.000000,0.000000,0.000000
1782117191.878160,1691299,0.906738,-0.003418,-0.419922,-3.170732,0.060976,1.402439,16.718750,-36.243752,0.918750,0.0,1.000000,0.000000,0.000000,0.000000
1782117191.888160,1691309,0.903809,-0.005371,-0.418457,-3.231707,0.304878,1.280488,16.843750,-36.006252,0.800000,0.0,1.000000,0.000000,0.000000,0.000000
1782117191.898160,1691319,0.903809,-0.011230,-0.416504,-3.048780,0.365854,1.036585,16.843750,-36.006252,0.800000,0.0,1.000000,0.000000,0.000000,0.000000
1782117191.908160,1691329,0.902344,-0.018555,-0.417480,-2.804878,0.304878,0.853659,16.750000,-36.200001,0.912500,0.0,1.000000,0.000000,0.000000,0.000000
1782117191.918160,1691339,0.906250,-0.023926,-0.423340,-2.439024,0.304878,0.670732,16.750000,-36.200001,0.912500,0.0,1.000000,0.000000,0.000000,0.000000
1782117191.928160,1691349,0.907715,-0.024414,-0.426758,-1.829268,0.487805,0.670732,16.787500,-36.231251,0.950000,0.0,1.000000,0.000000,0.000000,0.000000
1782117191.938160,1691359,0.909668,-0.022949,-0.429199,-1.036585,0.731707,0.548781,16.787500,-36.231251,0.950000,0.0,1.000000,0.000000,0.000000,0.000000
1782117191.948160,1691369,0.912109,-0.018066,-0.427734,-0.548781,0.914634,0.548781,16.718750,-36.262501,1.031250,0.0,1.000000,0.000000,0.000000,0.000000
1782117191.958160,1691379,0.912598,-0.014160,-0.423340,-0.487805,1.280488,0.792683,16.718750,-36.262501,1.031250,0.0,1.000000,0.000000,0.000000,0.000000
1782117191.968160,1691389,0.907715,-0.009277,-0.420410,-0.426829,1.524390,1.097561,16.693750,-36.262501,1.012500,0.0,1.000000,0.000000,0.000000,0.000000
1782117191.980160,1691401,0.907715,-0.003906,-0.415527,-0.548781,1.585366,1.341463,16.693750,-36.262501,1.012500,0.0,1.000000,0.000000,0.000000,0.000000
1782117191.989160,1691410,0.909180,-0.002930,-0.414551,-1.219512,1.646341,1.646341,16.700001,-36.237499,1.031250,0.0,1.000000,0.000000,0.000000,0.000000
1782117191.998160,1691419,0.906250,-0.000488,-0.417969,-2.073171,1.646341,1.829268,16.700001,-36.237499,1.031250,0.0,1.000000,0.000000,0.000000,0.000000
1782117192.009160,1691430,0.905762,0.000488,-0.417969,-2.804878,1.585366,1.951220,16.812500,-36.049999,0.912500,0.0,1.000000,0.000000,0.000000,0.000000
1782117192.021160,1691442,0.903809,-0.000488,-0.418945,-3.414634,1.585366,1.951220,16.812500,-36.049999,0.912500,0.0,1.000000,0.000000,0.000000,0.000000
1782117192.028160,1691449,0.901367,-0.001465,-0.420410,-3.841464,1.463415,1.890244,16.656250,-36.293751,1.143750,0.0,1.000000,0.000000,0.000000,0.000000
1782117192.038160,1691459,0.901367,-0.006348,-0.422852,-4.024390,1.280488,1.768293,16.656250,-36.293751,1.143750,0.0,1.000000,0.000000,0.000000,0.000000
1782117192.048160,1691469,0.902832,-0.010254,-0.424316,-3.902439,1.158537,1.524390,16.600000,-36.362499,1.181250,0.0,1.000000,0.000000,0.000000,0.000000
1782117192.060160,1691481,0.906250,-0.015137,-0.425781,-3.597561,1.097561,1.280488,16.600000,-36.362499,1.181250,0.0,1.000000,0.000000,0.000000,0.000000
1782117192.068160,1691489,0.906738,-0.017090,-0.426270,-3.292683,1.036585,1.280488,16.568750,-36.412502,1.268750,0.0,1.000000,0.000000,0.000000,0.000000
1782117192.078160,1691499,0.904785,-0.020020,-0.429199,-2.743902,0.975610,1.219512,16.568750,-36.412502,1.268750,0.0,1.000000,0.000000,0.000000,0.000000
1782117192.088160,1691509,0.901367,-0.019531,-0.430664,-2.439024,0.731707,1.219512,16.575001,-36.350002,1.287500,0.0,1.000000,0.000000,0.000000,0.000000
1782117192.102160,1691523,0.899414,-0.015625,-0.430176,-1.829268,-0.243902,0.975610,16.575001,-36.350002,1.287500,0.0,1.000000,0.000000,0.000000,0.000000
1782117192.108160,1691529,0.899414,-0.015625,-0.430176,-1.829268,-0.243902,0.975610,16.625000,-36.250000,1.268750,0.0,1.000000,0.000000,0.000000,0.000000
1782117192.119160,1691540,0.900391,-0.016113,-0.428711,-1.646341,-0.609756,0.975610,16.625000,-36.250000,1.268750,0.0,1.000000,0.000000,0.000000,0.000000
1782117192.129160,1691550,0.902832,-0.015137,-0.424805,-1.524390,-0.792683,0.792683,16.568750,-36.368752,1.275000,0.0,1.000000,0.000000,0.000000,0.000000
1782117192.141160,1691562,0.904297,-0.014648,-0.421875,-1.341463,-0.792683,0.670732,16.568750,-36.368752,1.275000,0.0,1.000000,0.000000,0.000000,0.000000
1782117192.148160,1691569,0.909668,-0.014160,-0.418945,-1.280488,-0.792683,0.548781,16.600000,-36.268749,1.293750,0.0,1.000000,0.000000,0.000000,0.000000
1782117192.158160,1691579,0.913574,-0.013672,-0.417480,-1.280488,-0.670732,0.487805,16.600000,-36.268749,1.293750,0.0,1.000000,0.000000,0.000000,0.000000
1782117192.168160,1691589,0.914551,-0.013672,-0.417480,-1.219512,-0.487805,0.487805,16.650000,-36.131252,1.175000,0.0,1.000000,0.000000,0.000000,0.000000
1782117192.179160,1691600,0.912598,-0.015625,-0.415527,-1.036585,-0.182927,0.487805,16.650000,-36.131252,1.175000,0.0,1.000000,0.000000,0.000000,0.000000
1782117192.189160,1691610,0.910645,-0.017090,-0.414062,-1.036585,-0.121951,0.487805,16.543751,-36.393749,1.337500,0.0,1.000000,0.000000,0.000000,0.000000
1782117192.198160,1691619,0.911133,-0.020508,-0.413574,-0.975610,-0.060976,0.426829,16.543751,-36.393749,1.337500,0.0,1.000000,0.000000,0.000000,0.000000
1782117192.208160,1691629,0.911133,-0.020996,-0.414551,-0.792683,-0.060976,0.426829,16.587500,-36.299999,1.256250,0.0,1.000000,0.000000,0.000000,0.000000
1782117192.218160,1691639,0.911621,-0.022949,-0.416016,-0.548781,-0.060976,0.304878,16.587500,-36.299999,1.256250,0.0,1.000000,0.000000,0.000000,0.000000
1782117192.229160,1691650,0.913574,-0.020508,-0.417480,-0.426829,0.060976,0.365854,16.637501,-36.156250,1.200000,0.0,1.000000,0.000000,0.000000,0.000000
1782117192.238160,1691659,0.908691,-0.018555,-0.420410,-0.426829,0.182927,0.426829,16.637501,-36.156250,1.200000,0.0,1.000000,0.000000,0.000000,0.000000
1782117192.249160,1691670,0.904785,-0.014160,-0.423340,-0.487805,0.060976,0.365854,16.550001,-36.412502,1.343750,0.0,1.000000,0.000000,0.000000,0.000000
1782117192.259160,1691680,0.902832,-0.011719,-0.422363,-0.487805,0.000000,0.243902,16.550001,-36.412502,1.343750,0.0,1.000000,0.000000,0.000000,0.000000
1782117192.268160,1691689,0.901855,-0.013672,-0.422363,-0.487805,-0.121951,0.182927,16.487501,-36.400002,1.256250,0.0,1.000000,0.000000,0.000000,0.000000
1782117192.278160,1691699,0.900879,-0.017090,-0.421387,-0.548781,-0.365854,0.182927,16.487501,-36.400002,1.256250,0.0,1.000000,0.000000,0.000000,0.000000
1782117192.288160,1691709,0.901367,-0.020996,-0.421875,-0.426829,-0.670732,0.182927,16.525000,-36.343750,1.368750,0.0,1.000000,0.000000,0.000000,0.000000
1782117192.298160,1691719,0.904785,-0.022949,-0.422363,-0.182927,-0.731707,0.121951,16.525000,-36.343750,1.368750,0.0,1.000000,0.000000,0.000000,0.000000
1782117192.308160,1691729,0.905762,-0.021973,-0.422852,0.000000,-0.487805,0.060976,16.575001,-36.318752,1.293750,0.0,1.000000,0.000000,0.000000,0.000000
1782117192.318160,1691739,0.904785,-0.021973,-0.421875,0.060976,-0.365854,0.060976,16.575001,-36.318752,1.293750,0.0,1.000000,0.000000,0.000000,0.000000
1782117192.328160,1691749,0.906250,-0.020996,-0.420410,0.182927,-0.365854,-0.060976,16.500000,-36.462502,1.343750,0.0,1.000000,0.000000,0.000000,0.000000
1782117192.338160,1691759,0.907227,-0.021484,-0.419434,0.243902,-0.304878,-0.243902,16.500000,-36.462502,1.343750,0.0,1.000000,0.000000,0.000000,0.000000
1782117192.348160,1691769,0.907715,-0.019531,-0.420410,0.182927,-0.365854,-0.243902,16.437500,-36.468750,1.350000,0.0,1.000000,0.000000,0.000000,0.000000
1782117192.358160,1691779,0.908203,-0.018066,-0.418945,0.426829,-0.243902,-0.304878,16.437500,-36.468750,1.350000,0.0,1.000000,0.000000,0.000000,0.000000
1782117192.368160,1691789,0.909668,-0.016602,-0.416992,0.609756,-0.304878,-0.243902,16.531250,-36.387501,1.343750,0.0,1.000000,0.000000,0.000000,0.000000
1782117192.379160,1691800,0.905762,-0.017090,-0.418457,0.548781,-0.243902,-0.304878,16.531250,-36.387501,1.343750,0.0,1.000000,0.000000,0.000000,0.000000
1782117192.388160,1691809,0.905273,-0.017578,-0.418945,0.426829,-0.487805,-0.243902,16.493750,-36.406250,1.318750,0.0,1.000000,0.000000,0.000000,0.000000
1782117192.399160,1691820,0.909668,-0.016602,-0.418457,0.304878,-0.487805,-0.304878,16.493750,-36.406250,1.318750,0.0,1.000000,0.000000,0.000000,0.000000
1782117192.410160,1691831,0.910156,-0.017090,-0.417480,0.060976,-0.365854,-0.304878,16.500000,-36.375000,1.343750,0.0,1.000000,0.000000,0.000000,0.000000
1782117192.419160,1691840,0.907715,-0.016602,-0.417969,-0.182927,-0.182927,-0.243902,16.500000,-36.375000,1.343750,0.0,1.000000,0.000000,0.000000,0.000000
1782117192.429160,1691850,0.907227,-0.015625,-0.421875,-0.304878,-0.304878,-0.304878,16.518751,-36.400002,1.268750,0.0,1.000000,0.000000,0.000000,0.000000
1782117192.438160,1691859,0.905762,-0.014648,-0.424316,-0.304878,-0.426829,-0.365854,16.518751,-36.400002,1.268750,0.0,1.000000,0.000000,0.000000,0.000000
1782117192.449160,1691870,0.905273,-0.014160,-0.421875,-0.243902,-0.487805,-0.426829,16.481251,-36.387501,1.331250,0.0,1.000000,0.000000,0.000000,0.000000
1782117192.458160,1691879,0.905273,-0.016602,-0.420410,-0.182927,-0.548781,-0.365854,16.481251,-36.387501,1.331250,0.0,1.000000,0.000000,0.000000,0.000000
1782117192.469160,1691890,0.906738,-0.015137,-0.418457,-0.121951,-0.487805,-0.304878,16.462500,-36.443752,1.306250,0.0,1.000000,0.000000,0.000000,0.000000
1782117192.479160,1691900,0.907715,-0.015625,-0.417480,-0.121951,-0.487805,-0.243902,16.462500,-36.443752,1.306250,0.0,1.000000,0.000000,0.000000,0.000000
1782117192.488160,1691909,0.909668,-0.014648,-0.416016,-0.243902,-0.426829,-0.182927,16.512501,-36.412502,1.331250,0.0,1.000000,0.000000,0.000000,0.000000
1782117192.500160,1691921,0.911133,-0.015137,-0.416992,-0.365854,-0.365854,-0.182927,16.512501,-36.412502,1.331250,0.0,1.000000,0.000000,0.000000,0.000000
1782117192.508160,1691929,0.906738,-0.016602,-0.419434,-0.365854,-0.304878,-0.121951,16.543751,-36.412502,1.281250,0.0,1.000000,0.000000,0.000000,0.000000
1782117192.518160,1691939,0.906738,-0.017090,-0.419922,-0.243902,-0.548781,-0.182927,16.543751,-36.412502,1.281250,0.0,1.000000,0.000000,0.000000,0.000000
1782117192.529160,1691950,0.908203,-0.018066,-0.418945,-0.121951,-0.731707,-0.304878,16.556250,-36.431252,1.293750,0.0,1.000000,0.000000,0.000000,0.000000
1782117192.538160,1691959,0.910645,-0.018066,-0.417969,-0.060976,-0.548781,-0.304878,16.556250,-36.431252,1.293750,0.0,1.000000,0.000000,0.000000,0.000000
1782117192.548160,1691969,0.909668,-0.016602,-0.419434,-0.060976,-0.365854,-0.304878,16.556250,-36.450001,1.281250,0.0,1.000000,0.000000,0.000000,0.000000
1782117192.558160,1691979,0.908203,-0.014648,-0.420410,-0.060976,-0.365854,-0.304878,16.556250,-36.450001,1.281250,0.0,1.000000,0.000000,0.000000,0.000000
1782117192.568160,1691989,0.908691,-0.012695,-0.419922,-0.121951,-0.365854,-0.365854,16.506250,-36.387501,1.300000,0.0,1.000000,0.000000,0.000000,0.000000
1782117192.578160,1691999,0.907715,-0.014160,-0.419922,-0.121951,-0.304878,-0.365854,16.506250,-36.387501,1.300000,0.0,1.000000,0.000000,0.000000,0.000000
1782117192.589160,1692010,0.908203,-0.015625,-0.418945,0.000000,-0.426829,-0.243902,16.518751,-36.418751,1.318750,0.0,1.000000,0.000000,0.000000,0.000000
1782117192.598160,1692019,0.910156,-0.015137,-0.419922,0.060976,-0.426829,-0.304878,16.518751,-36.418751,1.318750,0.0,1.000000,0.000000,0.000000,0.000000
1782117192.608160,1692029,0.909180,-0.015137,-0.420898,-0.182927,-0.243902,-0.182927,16.487501,-36.437500,1.300000,0.0,1.000000,0.000000,0.000000,0.000000
1782117192.619160,1692040,0.908203,-0.014648,-0.420898,-0.365854,-0.182927,-0.121951,16.487501,-36.437500,1.300000,0.0,1.000000,0.000000,0.000000,0.000000
1782117192.628160,1692049,0.910645,-0.012207,-0.417969,-0.548781,-0.060976,-0.060976,16.475000,-36.475002,1.343750,0.0,1.000000,0.000000,0.000000,0.000000
1782117192.638160,1692059,0.911133,-0.010254,-0.415039,-0.914634,0.121951,0.000000,16.475000,-36.475002,1.343750,0.0,1.000000,0.000000,0.000000,0.000000
1782117192.649160,1692070,0.910645,-0.011230,-0.415527,-1.280488,0.365854,0.121951,16.487501,-36.468750,1.350000,0.0,1.000000,0.000000,0.000000,0.000000
1782117192.658160,1692079,0.907715,-0.014160,-0.416504,-1.524390,0.670732,0.243902,16.487501,-36.468750,1.350000,0.0,1.000000,0.000000,0.000000,0.000000
1782117192.670160,1692091,0.904785,-0.015137,-0.421387,-1.707317,0.548781,0.304878,16.481251,-36.456249,1.318750,0.0,1.000000,0.000000,0.000000,0.000000
1782117192.678160,1692099,0.906250,-0.016602,-0.420898,-1.890244,0.182927,0.426829,16.481251,-36.456249,1.318750,0.0,1.000000,0.000000,0.000000,0.000000
1782117192.688160,1692109,0.910156,-0.015625,-0.419922,-2.134146,0.365854,0.548781,16.475000,-36.400002,1.331250,0.0,1.000000,0.000000,0.000000,0.000000
1782117192.698160,1692119,0.906250,-0.016602,-0.418945,-2.256098,0.487805,0.487805,16.475000,-36.400002,1.331250,0.0,1.000000,0.000000,0.000000,0.000000
1782117192.708160,1692129,0.904297,-0.014648,-0.418945,-2.317073,0.304878,0.243902,16.443750,-36.518749,1.381250,0.0,1.000000,0.000000,0.000000,0.000000
1782117192.719160,1692140,0.906250,-0.015625,-0.419922,-2.256098,0.243902,0.060976,16.443750,-36.518749,1.381250,0.0,1.000000,0.000000,0.000000,0.000000
1782117192.728160,1692149,0.906250,-0.020020,-0.423340,-1.951220,0.243902,-0.121951,16.425001,-36.506252,1.487500,0.0,1.000000,0.000000,0.000000,0.000000
1782117192.740160,1692161,0.906738,-0.023926,-0.422363,-1.646341,0.243902,-0.060976,16.425001,-36.506252,1.487500,0.0,1.000000,0.000000,0.000000,0.000000
1782117192.748160,1692169,0.907227,-0.025391,-0.422363,-1.158537,0.243902,-0.121951,16.700001,-36.031250,1.156250,0.0,1.000000,0.000000,0.000000,0.000000
1782117192.758160,1692179,0.909668,-0.023926,-0.420898,-0.731707,0.304878,-0.060976,16.700001,-36.031250,1.156250,0.0,1.000000,0.000000,0.000000,0.000000
1782117192.768160,1692189,0.908203,-0.020996,-0.420898,-0.487805,0.487805,0.000000,16.425001,-36.468750,1.456250,0.0,1.000000,0.000000,0.000000,0.000000
1782117192.778160,1692199,0.907715,-0.016113,-0.420410,-0.243902,0.670732,0.000000,16.425001,-36.468750,1.456250,0.0,1.000000,0.000000,0.000000,0.000000
1782117192.788160,1692209,0.908203,-0.012207,-0.420898,-0.243902,0.731707,-0.060976,16.381250,-36.512501,1.462500,0.0,1.000000,0.000000,0.000000,0.000000
1782117192.798160,1692219,0.909180,-0.010742,-0.419922,-0.487805,0.792683,0.000000,16.381250,-36.512501,1.462500,0.0,1.000000,0.000000,0.000000,0.000000
1782117192.808160,1692229,0.908203,-0.011719,-0.416504,-0.792683,0.853659,0.000000,16.368750,-36.525002,1.450000,0.0,1.000000,0.000000,0.000000,0.000000
1782117192.819160,1692240,0.908203,-0.014160,-0.416504,-0.975610,0.792683,0.060976,16.368750,-36.525002,1.450000,0.0,1.000000,0.000000,0.000000,0.000000
1782117192.830160,1692251,0.907715,-0.016113,-0.417969,-1.097561,0.731707,0.182927,16.456251,-36.487499,1.481250,0.0,1.000000,0.000000,0.000000,0.000000
1782117192.838160,1692259,0.907715,-0.014648,-0.416992,-1.036585,0.548781,0.304878,16.456251,-36.487499,1.481250,0.0,1.000000,0.000000,0.000000,0.000000
1782117192.848160,1692269,0.908691,-0.014160,-0.414551,-1.219512,0.487805,0.365854,16.656250,-36.043751,1.262500,0.0,1.000000,0.000000,0.000000,0.000000
1782117192.858160,1692279,0.910645,-0.016113,-0.414062,-1.463415,0.365854,0.243902,16.656250,-36.043751,1.262500,0.0,1.000000,0.000000,0.000000,0.000000
1782117192.868160,1692289,0.911133,-0.016113,-0.414551,-1.585366,0.487805,0.243902,16.375000,-36.556252,1.543750,0.0,1.000000,0.000000,0.000000,0.000000
1782117192.878160,1692299,0.911133,-0.015137,-0.416016,-1.585366,0.609756,0.121951,16.375000,-36.556252,1.543750,0.0,1.000000,0.000000,0.000000,0.000000
1782117192.888160,1692309,0.909668,-0.016113,-0.417480,-1.402439,0.609756,0.000000,16.393751,-36.518749,1.618750,0.0,1.000000,0.000000,0.000000,0.000000
1782117192.898160,1692319,0.909180,-0.017090,-0.416992,-1.219512,0.609756,0.000000,16.393751,-36.518749,1.618750,0.0,1.000000,0.000000,0.000000,0.000000
1782117192.911160,1692332,0.909668,-0.016113,-0.418945,-0.975610,0.670732,0.000000,16.443750,-36.518749,1.606250,0.0,1.000000,0.000000,0.000000,0.000000
1782117192.918160,1692339,0.907715,-0.017578,-0.418945,-0.731707,0.670732,-0.060976,16.443750,-36.518749,1.606250,0.0,1.000000,0.000000,0.000000,0.000000
1782117192.928160,1692349,0.905273,-0.015137,-0.418457,-0.548781,0.426829,-0.121951,16.656250,-35.968750,1.306250,0.0,1.000000,0.000000,0.000000,0.000000
1782117192.939160,1692360,0.908691,-0.013184,-0.416992,-0.487805,0.304878,-0.182927,16.656250,-35.968750,1.306250,0.0,1.000000,0.000000,0.000000,0.000000
1782117192.948160,1692369,0.912109,-0.012207,-0.415527,-0.487805,0.365854,-0.304878,16.343750,-36.568752,1.637500,0.0,1.000000,0.000000,0.000000,0.000000
1782117192.958160,1692379,0.910156,-0.010254,-0.416504,-0.731707,0.548781,-0.304878,16.343750,-36.568752,1.637500,0.0,1.000000,0.000000,0.000000,0.000000
1782117192.968160,1692389,0.908691,-0.009766,-0.414062,-0.792683,0.609756,-0.182927,16.418751,-36.487499,1.631250,0.0,1.000000,0.000000,0.000000,0.000000
1782117192.978160,1692399,0.907227,-0.011230,-0.412598,-0.792683,0.548781,-0.182927,16.418751,-36.487499,1.631250,0.0,1.000000,0.000000,0.000000,0.000000
1782117192.988160,1692409,0.907715,-0.014648,-0.411621,-0.731707,0.365854,-0.121951,16.350000,-36.506252,1.681250,0.0,1.000000,0.000000,0.000000,0.000000
1782117192.999160,1692420,0.909668,-0.016602,-0.412109,-0.609756,0.121951,-0.121951,16.350000,-36.506252,1.681250,0.0,1.000000,0.000000,0.000000,0.000000
1782117193.009160,1692430,0.912109,-0.016602,-0.412598,-0.365854,0.060976,-0.060976,16.387501,-36.468750,1.593750,0.0,1.000000,0.000000,0.000000,0.000000
1782117193.018160,1692439,0.912598,-0.012695,-0.412598,-0.365854,0.121951,-0.121951,16.387501,-36.468750,1.593750,0.0,1.000000,0.000000,0.000000,0.000000
1782117193.029160,1692450,0.911133,-0.013184,-0.412598,-0.304878,0.304878,-0.121951,16.418751,-36.468750,1.681250,0.0,1.000000,0.000000,0.000000,0.000000
1782117193.038160,1692459,0.910156,-0.011230,-0.410156,-0.243902,0.243902,-0.243902,16.418751,-36.468750,1.681250,0.0,1.000000,0.000000,0.000000,0.000000
1782117193.048160,1692469,0.912109,-0.012207,-0.409180,-0.243902,0.304878,-0.304878,16.443750,-36.493752,1.618750,0.0,1.000000,0.000000,0.000000,0.000000
1782117193.058160,1692479,0.911133,-0.014648,-0.411133,-0.182927,0.304878,-0.304878,16.443750,-36.493752,1.618750,0.0,1.000000,0.000000,0.000000,0.000000
1782117193.069160,1692490,0.908691,-0.014160,-0.412109,-0.182927,0.060976,-0.182927,16.350000,-36.549999,1.731250,0.0,1.000000,0.000000,0.000000,0.000000
1782117193.078160,1692499,0.909180,-0.015137,-0.412109,-0.121951,-0.182927,-0.121951,16.350000,-36.549999,1.731250,0.0,1.000000,0.000000,0.000000,0.000000
1782117193.088160,1692509,0.910645,-0.013672,-0.412109,-0.243902,-0.304878,0.000000,16.406250,-36.450001,1.612500,0.0,1.000000,0.000000,0.000000,0.000000
1782117193.098160,1692519,0.912598,-0.014648,-0.412109,-0.243902,-0.365854,0.060976,16.406250,-36.450001,1.612500,0.0,1.000000,0.000000,0.000000,0.000000
1782117193.108160,1692529,0.912598,-0.013184,-0.410156,-0.182927,-0.243902,0.060976,16.331251,-36.556252,1.725000,0.0,1.000000,0.000000,0.000000,0.000000
1782117193.121160,1692542,0.911621,-0.012207,-0.409668,-0.243902,-0.121951,0.121951,16.393751,-36.462502,1.643750,0.0,1.000000,0.000000,0.000000,0.000000
1782117193.128160,1692549,0.910645,-0.011230,-0.409180,-0.426829,-0.121951,0.121951,16.393751,-36.462502,1.643750,0.0,1.000000,0.000000,0.000000,0.000000
1782117193.140160,1692561,0.908691,-0.012695,-0.411133,-0.609756,-0.365854,0.243902,16.393751,-36.600002,1.656250,0.0,1.000000,0.000000,0.000000,0.000000
1782117193.150160,1692571,0.911621,-0.014160,-0.411133,-0.975610,-0.426829,0.304878,16.393751,-36.600002,1.656250,0.0,1.000000,0.000000,0.000000,0.000000
1782117193.158160,1692579,0.911621,-0.014160,-0.411133,-0.975610,-0.426829,0.304878,16.393751,-36.600002,1.656250,0.0,1.000000,0.000000,0.000000,0.000000
1782117193.168160,1692589,0.910156,-0.015137,-0.412109,-0.853659,-0.365854,0.365854,16.418751,-36.462502,1.600000,0.0,1.000000,0.000000,0.000000,0.000000
1782117193.178160,1692599,0.908691,-0.014160,-0.413086,-0.609756,-0.426829,0.304878,16.300001,-36.549999,1.687500,0.0,1.000000,0.000000,0.000000,0.000000
1782117193.189160,1692610,0.907715,-0.013184,-0.414551,-0.487805,-0.548781,0.182927,16.300001,-36.549999,1.687500,0.0,1.000000,0.000000,0.000000,0.000000
1782117193.198160,1692619,0.906250,-0.013672,-0.416016,-0.548781,-0.609756,0.182927,16.543751,-36.231251,1.531250,0.0,1.000000,0.000000,0.000000,0.000000
1782117193.208160,1692629,0.906250,-0.015137,-0.417480,-0.609756,-0.731707,0.121951,16.543751,-36.231251,1.531250,0.0,1.000000,0.000000,0.000000,0.000000
1782117193.218160,1692639,0.907227,-0.016602,-0.416992,-0.609756,-0.914634,0.121951,16.387501,-36.512501,1.631250,0.0,1.000000,0.000000,0.000000,0.000000
1782117193.229160,1692650,0.911133,-0.021484,-0.414551,-0.365854,-0.914634,0.182927,16.387501,-36.512501,1.631250,0.0,1.000000,0.000000,0.000000,0.000000
1782117193.239160,1692660,0.911133,-0.021484,-0.414551,-0.365854,-0.914634,0.182927,16.393751,-36.468750,1.606250,0.0,1.000000,0.000000,0.000000,0.000000
1782117193.249160,1692670,0.911133,-0.019043,-0.415039,0.182927,-0.792683,0.121951,16.393751,-36.468750,1.606250,0.0,1.000000,0.000000,0.000000,0.000000
1782117193.259160,1692680,0.912109,-0.018555,-0.412598,0.243902,-0.731707,0.121951,16.362501,-36.493752,1.618750,0.0,1.000000,0.000000,0.000000,0.000000
1782117193.269160,1692690,0.912109,-0.018555,-0.412598,0.243902,-0.731707,0.121951,16.362501,-36.493752,1.618750,0.0,1.000000,0.000000,0.000000,0.000000
1782117193.278160,1692699,0.908691,-0.018066,-0.411621,0.121951,-0.609756,0.304878,16.368750,-36.506252,1.543750,0.0,1.000000,0.000000,0.000000,0.000000
1782117193.288160,1692709,0.908691,-0.017090,-0.412109,0.060976,-0.731707,0.304878,16.368750,-36.506252,1.543750,0.0,1.000000,0.000000,0.000000,0.000000
1782117193.298160,1692719,0.908203,-0.015137,-0.415527,0.060976,-0.731707,0.243902,16.293751,-36.543751,1.650000,0.0,1.000000,0.000000,0.000000,0.000000
1782117193.308160,1692729,0.909668,-0.015625,-0.416992,0.060976,-0.792683,0.243902,16.293751,-36.543751,1.650000,0.0,1.000000,0.000000,0.000000,0.000000
1782117193.318160,1692739,0.910156,-0.015625,-0.418457,-0.060976,-0.670732,0.182927,16.412500,-36.468750,1.543750,0.0,1.000000,0.000000,0.000000,0.000000
1782117193.328160,1692749,0.908203,-0.016113,-0.416992,-0.060976,-0.609756,0.121951,16.412500,-36.468750,1.543750,0.0,1.000000,0.000000,0.000000,0.000000
1782117193.338160,1692759,0.906738,-0.014160,-0.417969,-0.182927,-0.670732,0.121951,16.387501,-36.575001,1.612500,0.0,1.000000,0.000000,0.000000,0.000000
1782117193.348160,1692769,0.906738,-0.016113,-0.417969,-0.304878,-0.731707,0.060976,16.387501,-36.575001,1.612500,0.0,1.000000,0.000000,0.000000,0.000000
1782117193.358160,1692779,0.904785,-0.018555,-0.418457,-0.365854,-0.792683,0.121951,16.387501,-36.462502,1.600000,0.0,1.000000,0.000000,0.000000,0.000000
1782117193.368160,1692789,0.904785,-0.019043,-0.419434,-0.365854,-0.975610,0.182927,16.387501,-36.462502,1.600000,0.0,1.000000,0.000000,0.000000,0.000000
1782117193.378160,1692799,0.906250,-0.021484,-0.419434,-0.365854,-0.975610,0.243902,16.331251,-36.575001,1.612500,0.0,1.000000,0.000000,0.000000,0.000000
1782117193.388160,1692809,0.907227,-0.022461,-0.419434,-0.182927,-1.036585,0.243902,16.331251,-36.575001,1.612500,0.0,1.000000,0.000000,0.000000,0.000000
1782117193.398160,1692819,0.909180,-0.022949,-0.419434,0.000000,-0.914634,0.243902,16.331251,-36.549999,1.568750,0.0,1.000000,0.000000,0.000000,0.000000
1782117193.410160,1692831,0.909668,-0.022461,-0.419434,0.304878,-0.853659,0.182927,16.331251,-36.549999,1.568750,0.0,1.000000,0.000000,0.000000,0.000000
1782117193.418160,1692839,0.909180,-0.020508,-0.420410,0.487805,-0.792683,0.121951,16.287500,-36.650002,1.581250,0.0,1.000000,0.000000,0.000000,0.000000
1782117193.429160,1692850,0.908203,-0.020508,-0.420898,0.426829,-0.609756,0.121951,16.287500,-36.650002,1.581250,0.0,1.000000,0.000000,0.000000,0.000000
1782117193.438160,1692859,0.906738,-0.019043,-0.423340,0.243902,-0.670732,0.121951,16.412500,-36.368752,1.456250,0.0,1.000000,0.000000,0.000000,0.000000
1782117193.448160,1692869,0.905273,-0.020020,-0.420898,0.182927,-0.731707,0.060976,16.412500,-36.368752,1.456250,0.0,1.000000,0.000000,0.000000,0.000000
1782117193.458160,1692879,0.907715,-0.020508,-0.419434,0.304878,-0.914634,0.000000,16.318750,-36.562500,1.550000,0.0,1.000000,0.000000,0.000000,0.000000
1782117193.468160,1692889,0.911133,-0.021484,-0.417480,0.548781,-1.036585,-0.121951,16.318750,-36.562500,1.550000,0.0,1.000000,0.000000,0.000000,0.000000
1782117193.478160,1692899,0.913086,-0.019531,-0.415527,0.670732,-0.792683,-0.121951,16.400000,-36.406250,1.425000,0.0,1.000000,0.000000,0.000000,0.000000
1782117193.488160,1692909,0.911133,-0.017578,-0.414062,0.487805,-0.670732,-0.182927,16.400000,-36.406250,1.425000,0.0,1.000000,0.000000,0.000000,0.000000
1782117193.501160,1692922,0.910645,-0.016113,-0.412598,0.060976,-0.548781,-0.182927,16.450001,-36.337502,1.343750,0.0,1.000000,0.000000,0.000000,0.000000
1782117193.509160,1692930,0.911133,-0.017090,-0.414551,-0.243902,-0.487805,-0.243902,16.450001,-36.337502,1.343750,0.0,1.000000,0.000000,0.000000,0.000000
1782117193.519160,1692940,0.910156,-0.017578,-0.415527,-0.365854,-0.426829,-0.182927,16.356251,-36.525002,1.481250,0.0,1.000000,0.000000,0.000000,0.000000
1782117193.528160,1692949,0.909180,-0.020020,-0.417480,-0.426829,-0.487805,-0.182927,16.356251,-36.525002,1.481250,0.0,1.000000,0.000000,0.000000,0.000000
1782117193.538160,1692959,0.910156,-0.021973,-0.416992,-0.304878,-0.426829,-0.182927,16.356251,-36.549999,1.506250,0.0,1.000000,0.000000,0.000000,0.000000
1782117193.548160,1692969,0.908203,-0.021973,-0.420898,-0.243902,-0.365854,-0.121951,16.356251,-36.549999,1.506250,0.0,1.000000,0.000000,0.000000,0.000000
1782117193.558160,1692979,0.907227,-0.021973,-0.420898,-0.121951,-0.304878,-0.121951,16.487501,-36.287502,1.300000,0.0,1.000000,0.000000,0.000000,0.000000
1782117193.568160,1692989,0.905273,-0.020020,-0.420898,0.000000,-0.304878,-0.243902,16.487501,-36.287502,1.300000,0.0,1.000000,0.000000,0.000000,0.000000
1782117193.578160,1692999,0.905762,-0.020020,-0.422363,0.000000,-0.304878,-0.304878,16.318750,-36.587502,1.525000,0.0,1.000000,0.000000,0.000000,0.000000
1782117193.588160,1693009,0.904785,-0.019043,-0.423828,-0.121951,-0.243902,-0.365854,16.318750,-36.587502,1.525000,0.0,1.000000,0.000000,0.000000,0.000000
1782117193.598160,1693019,0.903809,-0.020508,-0.424316,-0.060976,-0.304878,-0.365854,16.387501,-36.443752,1.425000,0.0,1.000000,0.000000,0.000000,0.000000
1782117193.608160,1693029,0.903320,-0.021484,-0.424805,0.182927,-0.426829,-0.304878,16.387501,-36.443752,1.425000,0.0,1.000000,0.000000,0.000000,0.000000
1782117193.618160,1693039,0.905762,-0.020996,-0.423828,0.304878,-0.609756,-0.243902,16.343750,-36.525002,1.506250,0.0,1.000000,0.000000,0.000000,0.000000
1782117193.629160,1693050,0.909668,-0.020508,-0.420410,0.304878,-0.609756,-0.243902,16.343750,-36.525002,1.506250,0.0,1.000000,0.000000,0.000000,0.000000
1782117193.638160,1693059,0.911133,-0.018555,-0.419922,0.182927,-0.365854,-0.243902,16.400000,-36.468750,1.425000,0.0,1.000000,0.000000,0.000000,0.000000
1782117193.649160,1693070,0.910156,-0.016602,-0.418457,0.060976,-0.243902,-0.182927,16.400000,-36.468750,1.425000,0.0,1.000000,0.000000,0.000000,0.000000
1782117193.658160,1693079,0.909180,-0.016113,-0.416504,-0.121951,-0.243902,-0.304878,16.318750,-36.625000,1.525000,0.0,1.000000,0.000000,0.000000,0.000000
1782117193.670160,1693091,0.909180,-0.016113,-0.415039,-0.243902,-0.121951,-0.365854,16.318750,-36.625000,1.525000,0.0,1.000000,0.000000,0.000000,0.000000
1782117193.679160,1693100,0.908691,-0.018066,-0.415527,-0.426829,-0.060976,-0.365854,16.318750,-36.543751,1.437500,0.0,1.000000,0.000000,0.000000,0.000000
1782117193.688160,1693109,0.906738,-0.021484,-0.416992,-0.609756,-0.121951,-0.304878,16.318750,-36.543751,1.437500,0.0,1.000000,0.000000,0.000000,0.000000
1782117193.699160,1693120,0.908203,-0.022461,-0.419434,-0.670732,-0.121951,-0.243902,16.312500,-36.512501,1.493750,0.0,1.000000,0.000000,0.000000,0.000000
1782117193.709160,1693130,0.907715,-0.023438,-0.421875,-0.670732,-0.182927,-0.182927,16.312500,-36.512501,1.493750,0.0,1.000000,0.000000,0.000000,0.000000
1782117193.718160,1693139,0.907715,-0.022949,-0.421875,-0.426829,-0.243902,-0.121951,16.462500,-36.281250,1.350000,0.0,1.000000,0.000000,0.000000,0.000000
1782117193.728160,1693149,0.907227,-0.023438,-0.420898,-0.304878,-0.243902,-0.182927,16.462500,-36.281250,1.350000,0.0,1.000000,0.000000,0.000000,0.000000
1782117193.738160,1693159,0.906738,-0.023926,-0.417480,-0.182927,-0.182927,-0.304878,16.412500,-36.437500,1.450000,0.0,1.000000,0.000000,0.000000,0.000000
1782117193.749160,1693170,0.907715,-0.023438,-0.417969,-0.060976,-0.121951,-0.548781,16.412500,-36.437500,1.450000,0.0,1.000000,0.000000,0.000000,0.000000
1782117193.758160,1693179,0.908203,-0.021973,-0.417969,0.000000,0.000000,-0.548781,16.331251,-36.575001,1.493750,0.0,1.000000,0.000000,0.000000,0.000000
1782117193.768160,1693189,0.905273,-0.021484,-0.416992,0.243902,-0.121951,-0.670732,16.331251,-36.575001,1.493750,0.0,1.000000,0.000000,0.000000,0.000000
1782117193.778160,1693199,0.908691,-0.019043,-0.417480,0.365854,-0.243902,-0.792683,16.300001,-36.481251,1.500000,0.0,1.000000,0.000000,0.000000,0.000000
1782117193.789160,1693210,0.910156,-0.020508,-0.417969,0.487805,-0.121951,-0.731707,16.300001,-36.481251,1.500000,0.0,1.000000,0.000000,0.000000,0.000000
1782117193.798160,1693219,0.907715,-0.019531,-0.417969,0.548781,-0.060976,-0.609756,16.406250,-36.506252,1.468750,0.0,1.000000,0.000000,0.000000,0.000000
1782117193.808160,1693229,0.908691,-0.019531,-0.416504,0.487805,-0.182927,-0.548781,16.406250,-36.506252,1.468750,0.0,1.000000,0.000000,0.000000,0.000000
1782117193.818160,1693239,0.910645,-0.020020,-0.415039,0.426829,-0.304878,-0.487805,16.306250,-36.593750,1.531250,0.0,1.000000,0.000000,0.000000,0.000000
1782117193.829160,1693250,0.911133,-0.019531,-0.416992,0.243902,-0.182927,-0.426829,16.306250,-36.593750,1.531250,0.0,1.000000,0.000000,0.000000,0.000000
1782117193.839160,1693260,0.910156,-0.020508,-0.416992,0.182927,-0.121951,-0.426829,16.437500,-36.424999,1.406250,0.0,1.000000,0.000000,0.000000,0.000000
1782117193.849160,1693270,0.908203,-0.019531,-0.417969,0.121951,-0.060976,-0.365854,16.437500,-36.424999,1.406250,0.0,1.000000,0.000000,0.000000,0.000000
1782117193.858160,1693279,0.908691,-0.017578,-0.416504,-0.060976,-0.182927,-0.365854,16.437500,-36.450001,1.418750,0.0,1.000000,0.000000,0.000000,0.000000
1782117193.870160,1693291,0.909668,-0.019043,-0.416992,-0.182927,-0.060976,-0.426829,16.437500,-36.450001,1.418750,0.0,1.000000,0.000000,0.000000,0.000000
1782117193.879160,1693300,0.909180,-0.018066,-0.418945,-0.182927,0.000000,-0.487805,16.425001,-36.518749,1.456250,0.0,1.000000,0.000000,0.000000,0.000000
1782117193.888160,1693309,0.907715,-0.019043,-0.417969,-0.121951,-0.060976,-0.487805,16.425001,-36.518749,1.456250,0.0,1.000000,0.000000,0.000000,0.000000
1782117193.898160,1693319,0.908203,-0.018555,-0.417480,-0.060976,-0.121951,-0.548781,16.343750,-36.568752,1.487500,0.0,1.000000,0.000000,0.000000,0.000000
1782117193.911160,1693332,0.907715,-0.021484,-0.416504,-0.182927,-0.121951,-0.487805,16.343750,-36.568752,1.487500,0.0,1.000000,0.000000,0.000000,0.000000
1782117193.918160,1693339,0.907715,-0.021484,-0.416504,-0.182927,-0.121951,-0.487805,16.406250,-36.481251,1.443750,0.0,1.000000,0.000000,0.000000,0.000000
1782117193.929160,1693350,0.908203,-0.020996,-0.416992,-0.304878,-0.121951,-0.426829,16.406250,-36.481251,1.443750,0.0,1.000000,0.000000,0.000000,0.000000
1782117193.938160,1693359,0.908203,-0.020508,-0.417480,-0.426829,-0.121951,-0.487805,16.331251,-36.531250,1.531250,0.0,1.000000,0.000000,0.000000,0.000000
1782117193.951160,1693372,0.908691,-0.018066,-0.417480,-0.426829,-0.121951,-0.426829,16.331251,-36.531250,1.531250,0.0,1.000000,0.000000,0.000000,0.000000
1782117193.958160,1693379,0.908203,-0.020508,-0.417480,-0.365854,-0.121951,-0.487805,16.350000,-36.506252,1.456250,0.0,1.000000,0.000000,0.000000,0.000000
1782117193.968160,1693389,0.906738,-0.020508,-0.417480,-0.182927,-0.182927,-0.548781,16.350000,-36.506252,1.456250,0.0,1.000000,0.000000,0.000000,0.000000
1782117193.978160,1693399,0.908203,-0.021484,-0.417969,0.060976,-0.304878,-0.670732,16.362501,-36.581249,1.531250,0.0,1.000000,0.000000,0.000000,0.000000
1782117193.991160,1693412,0.908691,-0.021973,-0.417969,0.304878,-0.304878,-0.731707,16.362501,-36.581249,1.531250,0.0,1.000000,0.000000,0.000000,0.000000
1782117193.998160,1693419,0.909668,-0.022461,-0.416016,0.304878,-0.304878,-0.731707,16.375000,-36.456249,1.456250,0.0,1.000000,0.000000,0.000000,0.000000
1782117194.008160,1693429,0.910156,-0.021973,-0.416016,0.243902,-0.243902,-0.731707,16.375000,-36.456249,1.456250,0.0,1.000000,0.000000,0.000000,0.000000
1782117194.018160,1693439,0.911133,-0.021484,-0.414551,0.243902,-0.243902,-0.792683,16.343750,-36.531250,1.500000,0.0,1.000000,0.000000,0.000000,0.000000
1782117194.030160,1693451,0.911133,-0.020508,-0.414551,0.304878,-0.182927,-0.731707,16.343750,-36.531250,1.500000,0.0,1.000000,0.000000,0.000000,0.000000
1782117194.038160,1693459,0.910645,-0.020996,-0.414062,0.304878,0.000000,-0.792683,16.362501,-36.487499,1.450000,0.0,1.000000,0.000000,0.000000,0.000000
1782117194.048160,1693469,0.909668,-0.018555,-0.415039,0.182927,0.000000,-0.670732,16.362501,-36.487499,1.450000,0.0,1.000000,0.000000,0.000000,0.000000
1782117194.058160,1693479,0.909668,-0.017578,-0.416016,-0.060976,-0.060976,-0.548781,16.362501,-36.575001,1.525000,0.0,1.000000,0.000000,0.000000,0.000000
1782117194.071160,1693492,0.908203,-0.015625,-0.416992,-0.182927,-0.182927,-0.487805,16.362501,-36.575001,1.525000,0.0,1.000000,0.000000,0.000000,0.000000
1782117194.079160,1693500,0.909180,-0.014648,-0.418945,-0.487805,-0.182927,-0.365854,16.375000,-36.549999,1.506250,0.0,1.000000,0.000000,0.000000,0.000000
1782117194.088160,1693509,0.906250,-0.013184,-0.418945,-0.792683,-0.121951,-0.304878,16.375000,-36.549999,1.506250,0.0,1.000000,0.000000,0.000000,0.000000
1782117194.099160,1693520,0.907227,-0.012695,-0.418457,-0.914634,-0.243902,-0.304878,16.343750,-36.556252,1.518750,0.0,1.000000,0.000000,0.000000,0.000000
1782117194.110160,1693531,0.908203,-0.018066,-0.416992,-0.853659,-0.182927,-0.365854,16.343750,-36.556252,1.518750,0.0,1.000000,0.000000,0.000000,0.000000
1782117194.119160,1693540,0.908203,-0.018066,-0.416992,-0.853659,-0.182927,-0.365854,16.406250,-36.450001,1.493750,0.0,1.000000,0.000000,0.000000,0.000000
1782117194.128160,1693549,0.908203,-0.020020,-0.416504,-0.670732,-0.182927,-0.487805,16.406250,-36.450001,1.493750,0.0,1.000000,0.000000,0.000000,0.000000
1782117194.138160,1693559,0.907715,-0.021973,-0.417480,-0.426829,-0.121951,-0.548781,16.337500,-36.581249,1.518750,0.0,1.000000,0.000000,0.000000,0.000000
1782117194.151160,1693572,0.906250,-0.020996,-0.418945,-0.182927,-0.121951,-0.609756,16.337500,-36.581249,1.518750,0.0,1.000000,0.000000,0.000000,0.000000
1782117194.158160,1693579,0.906250,-0.020996,-0.418945,-0.182927,-0.121951,-0.609756,16.337500,-36.549999,1.537500,0.0,1.000000,0.000000,0.000000,0.000000
1782117194.168160,1693589,0.908203,-0.019531,-0.418945,0.000000,-0.182927,-0.609756,16.337500,-36.549999,1.537500,0.0,1.000000,0.000000,0.000000,0.000000
1782117194.178160,1693599,0.907715,-0.018555,-0.418945,0.000000,-0.182927,-0.609756,16.343750,-36.556252,1.531250,0.0,1.000000,0.000000,0.000000,0.000000
1782117194.189160,1693610,0.909668,-0.016113,-0.417480,-0.121951,-0.243902,-0.548781,16.343750,-36.556252,1.531250,0.0,1.000000,0.000000,0.000000,0.000000
1782117194.198160,1693619,0.908203,-0.016113,-0.417480,-0.182927,-0.182927,-0.487805,16.381250,-36.537502,1.537500,0.0,1.000000,0.000000,0.000000,0.000000
1782117194.208160,1693629,0.907227,-0.015137,-0.417480,-0.365854,-0.243902,-0.487805,16.381250,-36.537502,1.537500,0.0,1.000000,0.000000,0.000000,0.000000
1782117194.218160,1693639,0.909180,-0.015137,-0.416992,-0.426829,-0.304878,-0.548781,16.368750,-36.581249,1.531250,0.0,1.000000,0.000000,0.000000,0.000000
1782117194.229160,1693650,0.910156,-0.017090,-0.416504,-0.365854,-0.304878,-0.548781,16.368750,-36.581249,1.531250,0.0,1.000000,0.000000,0.000000,0.000000
1782117194.239160,1693660,0.909180,-0.018555,-0.416504,-0.365854,-0.243902,-0.548781,16.337500,-36.537502,1.556250,0.0,1.000000,0.000000,0.000000,0.000000
1782117194.248160,1693669,0.909180,-0.020020,-0.414551,-0.243902,-0.182927,-0.548781,16.337500,-36.537502,1.556250,0.0,1.000000,0.000000,0.000000,0.000000
1782117194.258160,1693679,0.910645,-0.021484,-0.414551,0.060976,-0.182927,-0.670732,16.400000,-36.475002,1.493750,0.0,1.000000,0.000000,0.000000,0.000000
1782117194.271160,1693692,0.909180,-0.020020,-0.415527,0.243902,-0.182927,-0.731707,16.400000,-36.475002,1.493750,0.0,1.000000,0.000000,0.000000,0.000000
1782117194.278160,1693699,0.909668,-0.019043,-0.416992,0.304878,-0.121951,-0.792683,16.418751,-36.581249,1.500000,0.0,1.000000,0.000000,0.000000,0.000000
1782117194.288160,1693709,0.907227,-0.018555,-0.418945,0.243902,-0.121951,-0.731707,16.418751,-36.581249,1.500000,0.0,1.000000,0.000000,0.000000,0.000000
1782117194.299160,1693720,0.906250,-0.015625,-0.419434,0.182927,-0.304878,-0.731707,16.356251,-36.531250,1.562500,0.0,1.000000,0.000000,0.000000,0.000000
1782117194.308160,1693729,0.908203,-0.016113,-0.418457,0.060976,-0.365854,-0.731707,16.356251,-36.531250,1.562500,0.0,1.000000,0.000000,0.000000,0.000000
1782117194.319160,1693740,0.908203,-0.016113,-0.417480,0.000000,-0.304878,-0.670732,16.387501,-36.556252,1.531250,0.0,1.000000,0.000000,0.000000,0.000000
1782117194.329160,1693750,0.908203,-0.017090,-0.416016,-0.060976,-0.304878,-0.670732,16.387501,-36.556252,1.531250,0.0,1.000000,0.000000,0.000000,0.000000
1782117194.338160,1693759,0.908691,-0.016602,-0.415527,-0.060976,-0.304878,-0.609756,16.350000,-36.543751,1.487500,0.0,1.000000,0.000000,0.000000,0.000000
1782117194.348160,1693769,0.908691,-0.016113,-0.416992,-0.060976,-0.304878,-0.548781,16.350000,-36.543751,1.487500,0.0,1.000000,0.000000,0.000000,0.000000
1782117194.358160,1693779,0.908691,-0.016602,-0.416504,0.000000,-0.304878,-0.548781,16.362501,-36.487499,1.525000,0.0,1.000000,0.000000,0.000000,0.000000
1782117194.368160,1693789,0.909668,-0.017090,-0.415527,-0.060976,-0.243902,-0.609756,16.362501,-36.487499,1.525000,0.0,1.000000,0.000000,0.000000,0.000000
1782117194.378160,1693799,0.909668,-0.016602,-0.415527,-0.060976,-0.182927,-0.609756,16.387501,-36.568752,1.543750,0.0,1.000000,0.000000,0.000000,0.000000
1782117194.388160,1693809,0.910645,-0.015625,-0.416992,-0.121951,-0.182927,-0.670732,16.387501,-36.568752,1.543750,0.0,1.000000,0.000000,0.000000,0.000000
1782117194.398160,1693819,0.908203,-0.016113,-0.418457,-0.060976,-0.182927,-0.670732,16.406250,-36.487499,1.450000,0.0,1.000000,0.000000,0.000000,0.000000
1782117194.408160,1693829,0.907227,-0.015625,-0.417969,0.060976,-0.365854,-0.609756,16.406250,-36.487499,1.450000,0.0,1.000000,0.000000,0.000000,0.000000
1782117194.418160,1693839,0.908691,-0.016602,-0.416016,0.121951,-0.487805,-0.548781,16.350000,-36.518749,1.500000,0.0,1.000000,0.000000,0.000000,0.000000
1782117194.428160,1693849,0.910156,-0.016602,-0.415527,0.121951,-0.426829,-0.426829,16.350000,-36.518749,1.500000,0.0,1.000000,0.000000,0.000000,0.000000
1782117194.438160,1693859,0.907715,-0.015625,-0.418945,-0.060976,-0.487805,-0.487805,16.406250,-36.549999,1.493750,0.0,1.000000,0.000000,0.000000,0.000000
1782117194.448160,1693869,0.906250,-0.012695,-0.421387,-0.243902,-0.609756,-0.426829,16.406250,-36.549999,1.493750,0.0,1.000000,0.000000,0.000000,0.000000
1782117194.458160,1693879,0.907227,-0.008301,-0.420898,-0.426829,-0.853659,-0.670732,16.393751,-36.549999,1.525000,0.0,1.000000,0.000000,0.000000,0.000000
1782117194.468160,1693889,0.911133,-0.010254,-0.419434,-0.548781,-0.853659,-0.853659,16.393751,-36.549999,1.525000,0.0,1.000000,0.000000,0.000000,0.000000
1782117194.478160,1693899,0.910645,-0.016113,-0.411621,-0.304878,-0.365854,-0.792683,16.381250,-36.562500,1.462500,0.0,1.000000,0.000000,0.000000,0.000000
1782117194.488160,1693909,0.907227,-0.021484,-0.412598,-0.060976,-0.243902,-0.548781,16.381250,-36.562500,1.462500,0.0,1.000000,0.000000,0.000000,0.000000
1782117194.499160,1693920,0.905273,-0.019531,-0.416016,-0.060976,-0.426829,-0.426829,16.437500,-36.481251,1.456250,0.0,1.000000,0.000000,0.000000,0.000000
1782117194.508160,1693929,0.901855,-0.016602,-0.422363,0.000000,-0.792683,-0.609756,16.437500,-36.481251,1.456250,0.0,1.000000,0.000000,0.000000,0.000000
1782117194.518160,1693939,0.909668,-0.014160,-0.421875,-0.060976,-1.280488,-0.792683,16.487501,-36.368752,1.381250,0.0,1.000000,0.000000,0.000000,0.000000
1782117194.529160,1693950,0.913086,-0.012207,-0.420410,-0.121951,-0.914634,-0.548781,16.487501,-36.368752,1.381250,0.0,1.000000,0.000000,0.000000,0.000000
1782117194.538160,1693959,0.906250,-0.013184,-0.418457,-0.243902,-0.609756,-0.487805,16.443750,-36.462502,1.418750,0.0,1.000000,0.000000,0.000000,0.000000
1782117194.548160,1693969,0.907227,-0.013672,-0.416992,-0.182927,-0.792683,-0.548781,16.443750,-36.462502,1.418750,0.0,1.000000,0.000000,0.000000,0.000000
1782117194.560160,1693981,0.909668,-0.013672,-0.418945,-0.243902,-0.731707,-0.609756,16.350000,-36.537502,1.481250,0.0,1.000000,0.000000,0.000000,0.000000
1782117194.568160,1693989,0.909668,-0.012695,-0.419922,-0.304878,-0.487805,-0.548781,16.350000,-36.537502,1.481250,0.0,1.000000,0.000000,0.000000,0.000000
1782117194.578160,1693999,0.908691,-0.013184,-0.417480,-0.243902,-0.426829,-0.548781,16.493750,-36.375000,1.406250,0.0,1.000000,0.000000,0.000000,0.000000
1782117194.588160,1694009,0.907227,-0.015137,-0.417480,-0.304878,-0.487805,-0.487805,16.493750,-36.375000,1.406250,0.0,1.000000,0.000000,0.000000,0.000000
1782117194.599160,1694020,0.906738,-0.014160,-0.420898,-0.426829,-0.670732,-0.426829,16.406250,-36.512501,1.462500,0.0,1.000000,0.000000,0.000000,0.000000
1782117194.608160,1694029,0.905273,-0.014160,-0.422852,-0.548781,-0.792683,-0.365854,16.406250,-36.512501,1.462500,0.0,1.000000,0.000000,0.000000,0.000000
1782117194.618160,1694039,0.904297,-0.014160,-0.424316,-0.548781,-1.036585,-0.304878,16.493750,-36.281250,1.381250,0.0,1.000000,0.000000,0.000000,0.000000
1782117194.628160,1694049,0.904297,-0.016113,-0.424805,-0.609756,-1.036585,-0.426829,16.493750,-36.281250,1.381250,0.0,1.000000,0.000000,0.000000,0.000000
1782117194.641160,1694062,0.904297,-0.016602,-0.425293,-0.792683,-1.158537,-0.365854,16.362501,-36.581249,1.487500,0.0,1.000000,0.000000,0.000000,0.000000
1782117194.649160,1694070,0.907227,-0.016602,-0.428711,-0.914634,-1.280488,-0.304878,16.437500,-36.387501,1.431250,0.0,1.000000,0.000000,0.000000,0.000000
1782117194.658160,1694079,0.907227,-0.016113,-0.429688,-0.914634,-1.158537,-0.243902,16.437500,-36.387501,1.431250,0.0,1.000000,0.000000,0.000000,0.000000
1782117194.668160,1694089,0.902344,-0.015137,-0.432617,-1.097561,-1.097561,-0.182927,16.437500,-36.387501,1.431250,0.0,1.000000,0.000000,0.000000,0.000000
1782117194.681160,1694102,0.904297,-0.013672,-0.432617,-0.914634,-1.158537,-0.243902,16.375000,-36.500000,1.481250,0.0,1.000000,0.000000,0.000000,0.000000
1782117194.689160,1694110,0.906738,-0.018066,-0.430664,-0.487805,-0.914634,-0.304878,16.443750,-36.406250,1.456250,0.0,1.000000,0.000000,0.000000,0.000000
1782117194.698160,1694119,0.903809,-0.019531,-0.431641,-0.548781,-0.853659,-0.182927,16.443750,-36.406250,1.456250,0.0,1.000000,0.000000,0.000000,0.000000
1782117194.708160,1694129,0.907227,-0.012207,-0.437012,-0.792683,-0.853659,-0.182927,16.443750,-36.406250,1.456250,0.0,1.000000,0.000000,0.000000,0.000000
1782117194.720160,1694141,0.911621,-0.006348,-0.437012,-0.731707,-0.487805,-0.548781,16.350000,-36.543751,1.468750,0.0,1.000000,0.000000,0.000000,0.000000
1782117194.728160,1694149,0.902344,-0.005859,-0.433594,-0.914634,0.182927,-0.426829,16.350000,-36.543751,1.468750,0.0,1.000000,0.000000,0.000000,0.000000
1782117194.738160,1694159,0.895508,-0.001953,-0.432617,-1.280488,0.182927,-0.182927,16.350000,-36.450001,1.431250,0.0,1.000000,0.000000,0.000000,0.000000
1782117194.748160,1694169,0.903320,0.004395,-0.434570,-1.829268,-0.487805,-0.365854,16.350000,-36.475002,1.493750,0.0,1.000000,0.000000,0.000000,0.000000
1782117194.760160,1694181,0.901855,-0.007812,-0.423340,-1.524390,0.426829,-0.731707,16.350000,-36.475002,1.493750,0.0,1.000000,0.000000,0.000000,0.000000
1782117194.769160,1694190,0.894531,-0.028320,-0.430664,-1.341463,0.426829,-0.548781,16.350000,-36.475002,1.493750,0.0,1.000000,0.000000,0.000000,0.000000
1782117194.778160,1694199,0.907715,-0.025879,-0.443359,-1.585366,-0.426829,-0.365854,16.412500,-36.412502,1.481250,0.0,1.000000,0.000000,0.000000,0.000000
1782117194.788160,1694209,0.922363,-0.018066,-0.442383,-1.341463,-0.060976,-0.609756,16.400000,-36.506252,1.500000,0.0,1.000000,0.000000,0.000000,0.000000
1782117194.800160,1694221,0.924805,-0.025391,-0.436035,-0.548781,1.280488,-0.609756,16.400000,-36.506252,1.500000,0.0,1.000000,0.000000,0.000000,0.000000
1782117194.808160,1694229,0.910156,-0.027344,-0.438965,-0.487805,1.829268,-0.060976,16.418751,-36.400002,1.481250,0.0,1.000000,0.000000,0.000000,0.000000
1782117194.818160,1694239,0.914551,-0.012207,-0.440430,-0.243902,1.829268,-0.365854,16.418751,-36.400002,1.481250,0.0,1.000000,0.000000,0.000000,0.000000
1782117194.828160,1694249,0.916016,-0.011230,-0.437012,0.243902,2.439024,-0.670732,16.387501,-36.456249,1.562500,0.0,1.000000,0.000000,0.000000,0.000000
1782117194.838160,1694259,0.910156,-0.012695,-0.434570,0.365854,3.109756,-0.426829,16.387501,-36.456249,1.562500,0.0,1.000000,0.000000,0.000000,0.000000
1782117194.848160,1694269,0.898438,-0.004883,-0.441406,-0.121951,3.719512,-0.182927,16.400000,-36.337502,1.581250,0.0,1.000000,0.000000,0.000000,0.000000
1782117194.858160,1694279,0.887695,0.001953,-0.447266,-0.426829,3.780488,-0.304878,16.400000,-36.337502,1.581250,0.0,1.000000,0.000000,0.000000,0.000000
1782117194.869160,1694290,0.894043,0.004395,-0.445312,-0.365854,3.536585,-0.487805,16.387501,-36.424999,1.656250,0.0,1.000000,0.000000,0.000000,0.000000
1782117194.878160,1694299,0.896484,0.002930,-0.446289,-0.670732,4.085366,-0.426829,16.387501,-36.424999,1.656250,0.0,1.000000,0.000000,0.000000,0.000000
1782117194.889160,1694310,0.894531,-0.007812,-0.434082,0.182927,4.878049,-0.731707,16.687500,-35.799999,1.375000,0.0,1.000000,0.000000,0.000000,0.000000
1782117194.898160,1694319,0.890625,-0.021973,-0.439453,0.304878,5.182927,-0.487805,16.687500,-35.799999,1.375000,0.0,1.000000,0.000000,0.000000,0.000000
1782117194.908160,1694329,0.891113,-0.015625,-0.449219,0.000000,4.817073,-0.365854,16.412500,-36.256252,1.743750,0.0,1.000000,0.000000,0.000000,0.000000
1782117194.920160,1694341,0.885254,-0.015625,-0.447754,0.548781,5.182927,-0.670732,16.412500,-36.256252,1.743750,0.0,1.000000,0.000000,0.000000,0.000000
1782117194.929160,1694350,0.892090,-0.030762,-0.444824,1.768293,5.060976,-0.914634,16.412500,-36.218750,1.787500,0.0,1.000000,0.000000,0.000000,0.000000
1782117194.938160,1694359,0.896484,-0.037598,-0.452148,2.134146,5.609756,-0.731707,16.412500,-36.218750,1.787500,0.0,1.000000,0.000000,0.000000,0.000000
1782117194.948160,1694369,0.900879,-0.027832,-0.451660,2.439024,5.731708,-0.609756,16.337500,-36.356251,1.950000,0.0,1.000000,0.000000,0.000000,0.000000
1782117194.960160,1694381,0.901855,-0.026855,-0.446289,3.292683,6.951220,-0.792683,16.337500,-36.356251,1.950000,0.0,1.000000,0.000000,0.000000,0.000000
1782117194.968160,1694389,0.891602,-0.029785,-0.448242,3.963415,7.987805,-0.731707,16.306250,-36.293751,2.012500,0.0,1.000000,0.000000,0.000000,0.000000
1782117194.978160,1694399,0.887207,-0.020508,-0.454102,4.390244,8.170732,-0.853659,16.306250,-36.293751,2.012500,0.0,1.000000,0.000000,0.000000,0.000000
1782117194.989160,1694410,0.885742,-0.009766,-0.459961,4.512195,8.414635,-1.158537,16.418751,-36.093750,2.000000,0.0,1.000000,0.000000,0.000000,0.000000
1782117195.001160,1694422,0.886230,-0.005371,-0.465820,4.756098,8.658537,-1.280488,16.418751,-36.093750,2.000000,0.0,1.000000,0.000000,0.000000,0.000000
1782117195.008160,1694429,0.885254,-0.000977,-0.474121,4.695122,9.329268,-1.280488,16.343750,-36.212502,2.187500,0.0,1.000000,0.000000,0.000000,0.000000
1782117195.018160,1694439,0.882812,0.010254,-0.485352,4.329268,10.121951,-1.036585,16.343750,-36.212502,2.187500,0.0,1.000000,0.000000,0.000000,0.000000
1782117195.028160,1694449,0.879883,0.026855,-0.497070,3.475610,11.158537,-0.792683,16.331251,-36.075001,2.231250,0.0,1.000000,0.000000,0.000000,0.000000
1782117195.038160,1694459,0.875977,0.038574,-0.504395,2.134146,12.195122,-0.426829,16.331251,-36.075001,2.231250,0.0,1.000000,0.000000,0.000000,0.000000
1782117195.049160,1694470,0.866211,0.044434,-0.499512,-1.402439,13.963415,0.609756,16.162500,-36.187500,2.500000,0.0,1.000000,0.000000,0.000000,0.000000
1782117195.059160,1694480,0.837891,0.038574,-0.480469,-1.890244,15.243903,1.280488,16.162500,-36.187500,2.500000,0.0,1.000000,0.000000,0.000000,0.000000
1782117195.069160,1694490,0.817383,0.028809,-0.462402,-1.707317,15.060976,1.280488,16.175001,-36.012501,2.662500,0.0,1.000000,0.000000,0.000000,0.000000
1782117195.078160,1694499,0.829102,0.026855,-0.455566,-1.646341,13.536586,0.182927,16.175001,-36.012501,2.662500,0.0,1.000000,0.000000,0.000000,0.000000
1782117195.089160,1694510,0.853027,0.027832,-0.455566,-1.707317,13.841464,-1.158537,16.000000,-36.187500,2.962500,0.0,1.000000,0.000000,0.000000,0.000000
1782117195.099160,1694520,0.876465,0.027344,-0.461426,-1.951220,15.487805,-1.707317,16.000000,-36.187500,2.962500,0.0,1.000000,0.000000,0.000000,0.000000
1782117195.108160,1694529,0.900391,0.021973,-0.454102,-1.829268,17.682928,-1.707317,15.937500,-36.218750,3.225000,0.0,1.000000,0.000000,0.000000,0.000000
1782117195.119160,1694540,0.920898,0.019531,-0.435059,-1.524390,19.817074,-1.524390,15.937500,-36.218750,3.225000,0.0,1.000000,0.000000,0.000000,0.000000
1782117195.128160,1694549,0.937500,0.009277,-0.417969,-2.134146,21.829269,-0.914634,15.987500,-36.218750,3.500000,0.0,1.000000,0.000000,0.000000,0.000000
1782117195.138160,1694559,0.942871,0.001953,-0.401367,-4.146341,24.207317,0.426829,15.987500,-36.218750,3.500000,0.0,1.000000,0.000000,0.000000,0.000000
1782117195.148160,1694569,0.935059,-0.002930,-0.383789,-6.768293,25.670732,2.317073,16.068750,-36.018749,3.662500,0.0,1.000000,0.000000,0.000000,0.000000
1782117195.160160,1694581,0.915527,-0.016113,-0.369629,-9.207317,24.939026,3.902439,16.068750,-36.018749,3.662500,0.0,1.000000,0.000000,0.000000,0.000000
1782117195.168160,1694589,0.897949,-0.028320,-0.359375,-11.158537,21.585367,4.756098,15.862500,-36.250000,4.268750,0.0,1.000000,0.000000,0.000000,0.000000
1782117195.178160,1694599,0.894531,-0.046875,-0.362305,-12.134147,16.707317,5.000000,15.862500,-36.250000,4.268750,0.0,1.000000,0.000000,0.000000,0.000000
1782117195.188160,1694609,0.900391,-0.062500,-0.364258,-11.951220,11.890244,4.573171,15.931251,-36.049999,4.500000,0.0,1.000000,0.000000,0.000000,0.000000
1782117195.198160,1694619,0.917480,-0.073730,-0.365234,-11.402439,9.024390,3.841464,15.931251,-36.049999,4.500000,0.0,1.000000,0.000000,0.000000,0.000000
1782117195.210160,1694631,0.924805,-0.083008,-0.359375,-9.451220,7.500000,3.536585,15.737500,-36.337502,4.781250,0.0,1.000000,0.000000,0.000000,0.000000
1782117195.218160,1694639,0.910645,-0.095215,-0.356934,-6.158537,6.707317,2.621951,15.737500,-36.337502,4.781250,0.0,1.000000,0.000000,0.000000,0.000000
1782117195.228160,1694649,0.914062,-0.098633,-0.369629,-1.646341,2.926829,0.670732,15.681251,-36.362499,4.825000,0.0,1.000000,0.000000,0.000000,0.000000
1782117195.238160,1694659,0.924805,-0.074707,-0.367188,2.134146,1.524390,-0.304878,15.681251,-36.362499,4.825000,0.0,1.000000,0.000000,0.000000,0.000000
1782117195.249160,1694670,0.919922,-0.022461,-0.367188,3.841464,1.829268,-0.609756,15.481250,-36.400002,4.793750,0.0,1.000000,0.000000,0.000000,0.000000
1782117195.258160,1694679,0.910645,0.012207,-0.355469,5.731708,0.182927,-2.926829,15.481250,-36.400002,4.793750,0.0,1.000000,0.000000,0.000000,0.000000
1782117195.268160,1694689,0.932129,-0.005371,-0.332031,8.597561,-2.378049,-5.182927,15.450000,-36.468750,4.725000,0.0,1.000000,0.000000,0.000000,0.000000
1782117195.278160,1694699,0.960938,-0.038574,-0.298828,12.926829,-1.707317,-7.195122,15.450000,-36.468750,4.725000,0.0,1.000000,0.000000,0.000000,0.000000
1782117195.289160,1694710,0.989746,-0.048828,-0.264648,18.170732,2.012195,-9.024390,15.431251,-36.468750,4.650000,0.0,1.000000,0.000000,0.000000,0.000000
1782117195.298160,1694719,1.011719,-0.054199,-0.237305,22.134148,6.219512,-10.487805,15.431251,-36.468750,4.650000,0.0,1.000000,0.000000,0.000000,0.000000
1782117195.308160,1694729,1.018555,-0.057617,-0.230469,24.695122,10.121951,-10.121951,15.506250,-36.343750,4.531250,0.0,1.000000,0.000000,0.000000,0.000000
1782117195.318160,1694739,1.018066,-0.063477,-0.238770,26.036587,12.378049,-8.841464,15.506250,-36.343750,4.531250,0.0,1.000000,0.000000,0.000000,0.000000
1782117195.329160,1694750,1.016602,-0.064453,-0.244141,26.463415,13.658537,-7.012195,15.675000,-36.256252,4.518750,0.0,1.000000,0.000000,0.000000,0.000000
1782117195.339160,1694760,1.017578,-0.069824,-0.253906,25.670732,13.719513,-5.304878,15.675000,-36.256252,4.518750,0.0,1.000000,0.000000,0.000000,0.000000
1782117195.348160,1694769,1.021973,-0.069824,-0.255859,24.207317,14.573171,-3.597561,15.725000,-36.187500,4.481250,0.0,1.000000,0.000000,0.000000,0.000000
1782117195.358160,1694779,1.013184,-0.058594,-0.249512,22.134148,15.609756,-1.524390,15.725000,-36.187500,4.481250,0.0,1.000000,0.000000,0.000000,0.000000
1782117195.368160,1694789,1.003906,-0.048340,-0.237305,19.939024,15.548780,0.000000,15.762500,-36.143749,4.518750,0.0,1.000000,0.000000,0.000000,0.000000
1782117195.378160,1694799,0.996094,-0.050293,-0.217773,17.682928,14.573171,0.914634,15.762500,-36.143749,4.518750,0.0,1.000000,0.000000,0.000000,0.000000
1782117195.388160,1694809,0.997070,-0.055176,-0.201660,17.073172,14.146341,1.585366,15.762500,-36.143749,4.506250,0.0,1.000000,0.000000,0.000000,0.000000
1782117195.398160,1694819,1.003418,-0.068848,-0.197754,17.682928,13.475610,0.914634,15.762500,-36.143749,4.506250,0.0,1.000000,0.000000,0.000000,0.000000
1782117195.408160,1694829,1.000000,-0.069336,-0.194824,18.109756,13.963415,0.426829,15.737500,-36.106251,4.531250,0.0,1.000000,0.000000,0.000000,0.000000
1782117195.418160,1694839,0.981934,-0.033691,-0.203125,17.256098,14.390244,0.792683,15.737500,-36.106251,4.531250,0.0,1.000000,0.000000,0.000000,0.000000
1782117195.428160,1694849,0.941406,0.007812,-0.228027,13.902439,13.170732,1.219512,15.737500,-36.075001,4.493750,0.0,1.000000,0.000000,0.000000,0.000000
1782117195.438160,1694859,0.909668,0.025391,-0.240723,10.426829,8.902439,1.707317,15.737500,-36.075001,4.493750,0.0,1.000000,0.000000,0.000000,0.000000
1782117195.448160,1694869,0.902344,0.026855,-0.251953,6.768293,2.865854,2.560976,15.693750,-36.025002,4.587500,0.0,1.000000,0.000000,0.000000,0.000000
1782117195.458160,1694879,0.931641,0.022461,-0.251465,4.390244,-2.804878,2.865854,15.693750,-36.025002,4.587500,0.0,1.000000,0.000000,0.000000,0.000000
1782117195.469160,1694890,0.973633,0.008789,-0.246582,3.292683,-4.756098,3.109756,15.631250,-36.062500,4.537500,0.0,1.000000,0.000000,0.000000,0.000000
1782117195.479160,1694900,1.013184,-0.021484,-0.233398,3.597561,-6.402439,4.207317,15.631250,-36.062500,4.537500,0.0,1.000000,0.000000,0.000000,0.000000
1782117195.488160,1694909,1.067871,-0.059570,-0.228027,3.719512,-7.195122,7.012195,15.537500,-36.087502,4.437500,0.0,1.000000,0.000000,0.000000,0.000000
1782117195.498160,1694919,1.122559,-0.092285,-0.211914,4.085366,-5.914634,11.768293,15.537500,-36.087502,4.437500,0.0,1.000000,0.000000,0.000000,0.000000
1782117195.508160,1694929,1.132324,-0.102051,-0.196289,5.426829,-2.256098,16.463415,15.300000,-36.112499,4.312500,0.0,1.000000,0.000000,0.000000,0.000000
1782117195.519160,1694940,1.116699,-0.097168,-0.172363,7.073171,1.402439,19.207317,15.300000,-36.112499,4.312500,0.0,1.000000,0.000000,0.000000,0.000000
1782117195.528160,1694949,1.091309,-0.099609,-0.161621,7.987805,3.841464,19.878050,15.000000,-36.337502,4.325000,0.0,1.000000,0.000000,0.000000,0.000000
1782117195.538160,1694959,1.078125,-0.101562,-0.173828,8.780488,6.158537,19.207317,15.000000,-36.337502,4.325000,0.0,1.000000,0.000000,0.000000,0.000000
1782117195.548160,1694969,1.056641,-0.083008,-0.170410,9.329268,10.243902,17.865854,14.668750,-36.418751,4.300000,0.0,1.000000,0.000000,0.000000,0.000000
1782117195.558160,1694979,0.976074,-0.034180,-0.181152,10.792684,18.048780,15.609756,14.668750,-36.418751,4.300000,0.0,1.000000,0.000000,0.000000,0.000000
1782117195.568160,1694989,0.867188,0.036621,-0.149414,11.890244,21.097561,10.853659,14.487500,-36.462502,4.443750,0.0,1.000000,0.000000,0.000000,0.000000
1782117195.578160,1694999,0.795410,0.085938,-0.159180,10.365854,14.390244,5.243903,14.487500,-36.462502,4.443750,0.0,1.000000,0.000000,0.000000,0.000000
1782117195.588160,1695009,0.804688,0.109375,-0.186035,4.695122,2.743902,1.768293,14.400001,-36.437500,4.500000,0.0,1.000000,0.000000,0.000000,0.000000
1782117195.598160,1695019,0.873047,0.104004,-0.219727,-3.414634,-5.121951,1.036585,14.400001,-36.437500,4.500000,0.0,1.000000,0.000000,0.000000,0.000000
1782117195.609160,1695030,0.929688,0.062500,-0.251465,-11.219512,-7.378049,2.012195,14.368751,-36.537502,4.487500,0.0,1.000000,0.000000,0.000000,0.000000
1782117195.618160,1695039,0.959473,0.011719,-0.262695,-16.341463,-7.987805,3.231707,14.368751,-36.537502,4.487500,0.0,1.000000,0.000000,0.000000,0.000000
1782117195.628160,1695049,0.973633,-0.026855,-0.260742,-18.475611,-8.353659,3.841464,14.425000,-36.518749,4.493750,0.0,1.000000,0.000000,0.000000,0.000000
1782117195.638160,1695059,0.996094,-0.042969,-0.263184,-18.353659,-8.780488,2.865854,14.425000,-36.518749,4.493750,0.0,1.000000,0.000000,0.000000,0.000000
1782117195.648160,1695069,0.983887,-0.063965,-0.274414,-17.743902,-7.134147,2.012195,14.450000,-36.543751,4.581250,0.0,1.000000,0.000000,0.000000,0.000000
1782117195.658160,1695079,0.973633,-0.104980,-0.277832,-15.182927,-7.195122,1.768293,14.450000,-36.543751,4.581250,0.0,1.000000,0.000000,0.000000,0.000000
1782117195.668160,1695089,0.969238,-0.145996,-0.272461,-10.731708,-6.463415,1.951220,14.518750,-36.456249,4.568750,0.0,1.000000,0.000000,0.000000,0.000000
1782117195.678160,1695099,0.962402,-0.166992,-0.262207,-4.817073,-6.768293,1.585366,14.518750,-36.456249,4.568750,0.0,1.000000,0.000000,0.000000,0.000000
1782117195.688160,1695109,0.976562,-0.171387,-0.253418,0.975610,-8.780488,0.731707,14.506250,-36.475002,4.543750,0.0,1.000000,0.000000,0.000000,0.000000
1782117195.698160,1695119,0.992188,-0.153320,-0.249023,6.280488,-8.414635,-0.975610,14.506250,-36.475002,4.543750,0.0,1.000000,0.000000,0.000000,0.000000
1782117195.709160,1695130,0.988770,-0.137695,-0.242188,10.060976,-6.768293,-3.170732,14.537500,-36.424999,4.443750,0.0,1.000000,0.000000,0.000000,0.000000
1782117195.718160,1695139,0.982422,-0.125488,-0.235840,13.902439,-5.243903,-4.939024,14.537500,-36.424999,4.443750,0.0,1.000000,0.000000,0.000000,0.000000
1782117195.728160,1695149,0.975098,-0.104004,-0.230469,17.500000,-3.902439,-6.585366,14.681251,-36.431252,4.256250,0.0,1.000000,0.000000,0.000000,0.000000
1782117195.738160,1695159,0.965332,-0.068848,-0.225098,19.878050,-3.597561,-8.048780,14.681251,-36.431252,4.256250,0.0,1.000000,0.000000,0.000000,0.000000
1782117195.748160,1695169,0.958496,-0.025879,-0.229492,20.000000,-3.658537,-9.695122,14.825000,-36.350002,4.100000,0.0,1.000000,0.000000,0.000000,0.000000
1782117195.758160,1695179,0.945312,0.013184,-0.247070,17.621952,-3.841464,-10.670732,14.825000,-36.350002,4.100000,0.0,1.000000,0.000000,0.000000,0.000000
1782117195.768160,1695189,0.923340,0.037598,-0.267090,12.500000,-3.841464,-10.548780,14.975000,-36.275002,3.906250,0.0,1.000000,0.000000,0.000000,0.000000
1782117195.780160,1695201,0.906250,0.041016,-0.283691,5.365854,-4.390244,-9.573171,14.975000,-36.275002,3.906250,0.0,1.000000,0.000000,0.000000,0.000000
1782117195.788160,1695209,0.901367,0.035156,-0.297852,-2.256098,-6.463415,-7.621952,15.206250,-36.225002,3.875000,0.0,1.000000,0.000000,0.000000,0.000000
1782117195.798160,1695219,0.909668,0.020020,-0.311523,-9.024390,-9.329268,-5.670732,15.206250,-36.225002,3.875000,0.0,1.000000,0.000000,0.000000,0.000000
1782117195.809160,1695230,0.925293,-0.012207,-0.322266,-12.743903,-12.012196,-5.121951,15.281250,-36.237499,3.937500,0.0,1.000000,0.000000,0.000000,0.000000
1782117195.818160,1695239,0.940430,-0.061035,-0.330566,-13.841464,-14.146341,-4.024390,15.281250,-36.237499,3.937500,0.0,1.000000,0.000000,0.000000,0.000000
1782117195.828160,1695249,0.947754,-0.101562,-0.339844,-13.902439,-15.243903,-2.621951,15.506250,-36.056252,3.812500,0.0,1.000000,0.000000,0.000000,0.000000
1782117195.838160,1695259,0.946777,-0.121582,-0.348633,-13.658537,-16.280489,-0.731707,15.506250,-36.056252,3.812500,0.0,1.000000,0.000000,0.000000,0.000000
1782117195.848160,1695269,0.937500,-0.125977,-0.357910,-13.231708,-16.463415,-0.121951,15.475000,-36.237499,3.818750,0.0,1.000000,0.000000,0.000000,0.000000
1782117195.859160,1695280,0.925781,-0.126465,-0.370117,-12.317074,-16.768293,-0.243902,15.475000,-36.237499,3.818750,0.0,1.000000,0.000000,0.000000,0.000000
1782117195.868160,1695289,0.913574,-0.118652,-0.393555,-11.219512,-17.987804,-1.524390,15.693750,-36.000000,3.581250,0.0,1.000000,0.000000,0.000000,0.000000
1782117195.879160,1695300,0.907715,-0.110840,-0.417480,-8.841464,-19.451220,-4.329268,15.693750,-36.000000,3.581250,0.0,1.000000,0.000000,0.000000,0.000000
1782117195.888160,1695309,0.907715,-0.119629,-0.435547,-4.451220,-19.878050,-8.170732,15.631250,-36.287502,3.500000,0.0,1.000000,0.000000,0.000000,0.000000
1782117195.898160,1695319,0.912598,-0.128906,-0.457520,3.292683,-18.414635,-10.914635,15.631250,-36.287502,3.500000,0.0,1.000000,0.000000,0.000000,0.000000
1782117195.908160,1695329,0.908691,-0.107910,-0.459961,12.195122,-14.268293,-12.743903,15.806251,-36.193752,3.225000,0.0,1.000000,0.000000,0.000000,0.000000
1782117195.918160,1695339,0.895020,-0.066406,-0.462891,21.158537,-11.646341,-15.365854,15.806251,-36.193752,3.225000,0.0,1.000000,0.000000,0.000000,0.000000
1782117195.929160,1695350,0.920898,0.032227,-0.437012,34.085365,-10.609756,-19.878050,15.975000,-36.156250,2.893750,0.0,1.000000,0.000000,0.000000,0.000000
1782117195.938160,1695359,0.920898,0.032227,-0.437012,34.085365,-10.609756,-19.878050,15.975000,-36.156250,2.893750,0.0,1.000000,0.000000,0.000000,0.000000
1782117195.948160,1695369,0.932617,0.055664,-0.406738,35.426830,-10.182927,-18.841463,16.262501,-36.031250,2.450000,0.0,1.000000,0.000000,0.000000,0.000000
1782117195.958160,1695379,0.921875,0.047852,-0.390625,31.646341,-9.329268,-15.609756,16.262501,-36.031250,2.450000,0.0,1.000000,0.000000,0.000000,0.000000
1782117195.968160,1695389,0.902832,0.034668,-0.375000,25.304878,-10.121951,-11.097561,16.400000,-35.981251,2.150000,0.0,1.000000,0.000000,0.000000,0.000000
1782117195.979160,1695400,0.888672,0.018066,-0.381348,9.268292,-15.548780,-2.804878,16.400000,-35.981251,2.150000,0.0,1.000000,0.000000,0.000000,0.000000
1782117195.988160,1695409,0.888672,0.018066,-0.381348,9.268292,-15.548780,-2.804878,16.518751,-35.850002,1.837500,0.0,1.000000,0.000000,0.000000,0.000000
1782117195.998160,1695419,0.918945,0.020020,-0.380859,-3.536585,-16.951220,-0.121951,16.518751,-35.850002,1.837500,0.0,1.000000,0.000000,0.000000,0.000000
1782117196.008160,1695429,0.929199,0.008301,-0.373047,-9.207317,-16.341463,0.426829,16.512501,-35.956249,1.625000,0.0,1.000000,0.000000,0.000000,0.000000
1782117196.018160,1695439,0.943848,0.000977,-0.368164,-14.695123,-15.243903,0.975610,16.512501,-35.956249,1.625000,0.0,1.000000,0.000000,0.000000,0.000000
1782117196.028160,1695449,0.956055,-0.005859,-0.369629,-19.451220,-13.170732,0.975610,16.487501,-36.000000,1.462500,0.0,1.000000,0.000000,0.000000,0.000000
1782117196.038160,1695459,0.977051,-0.006836,-0.368164,-22.682928,-11.280488,0.731707,16.487501,-36.000000,1.462500,0.0,1.000000,0.000000,0.000000,0.000000
1782117196.049160,1695470,0.985840,-0.008301,-0.366699,-24.390244,-9.207317,0.975610,16.475000,-36.081249,1.518750,0.0,1.000000,0.000000,0.000000,0.000000
1782117196.058160,1695479,0.973633,-0.026367,-0.351074,-24.939026,-5.182927,2.134146,16.475000,-36.081249,1.518750,0.0,1.000000,0.000000,0.000000,0.000000
1782117196.068160,1695489,0.913086,-0.064941,-0.347168,-24.390244,-3.170732,4.573171,16.581251,-35.943752,1.550000,0.0,1.000000,0.000000,0.000000,0.000000
1782117196.078160,1695499,0.875000,-0.087891,-0.382812,-22.439024,-6.585366,5.365854,16.581251,-35.943752,1.550000,0.0,1.000000,0.000000,0.000000,0.000000
1782117196.091160,1695512,0.882324,-0.076660,-0.414062,-19.390244,-10.182927,5.731708,16.575001,-36.118752,1.681250,0.0,1.000000,0.000000,0.000000,0.000000
1782117196.099160,1695520,0.896484,-0.041504,-0.430664,-15.975610,-10.731708,4.390244,16.575001,-36.118752,1.681250,0.0,1.000000,0.000000,0.000000,0.000000
1782117196.108160,1695529,0.912109,-0.021973,-0.431641,-12.195122,-9.085366,3.109756,16.675001,-35.843750,1.475000,0.0,1.000000,0.000000,0.000000,0.000000
1782117196.119160,1695540,0.905273,-0.015625,-0.431641,-9.878049,-7.317073,2.560976,16.675001,-35.843750,1.475000,0.0,1.000000,0.000000,0.000000,0.000000
1782117196.129160,1695550,0.895996,-0.016113,-0.420898,-8.780488,-7.012195,1.768293,16.506250,-36.225002,1.737500,0.0,1.000000,0.000000,0.000000,0.000000
1782117196.139160,1695560,0.895020,-0.029297,-0.416992,-8.353659,-7.195122,1.097561,16.506250,-36.225002,1.737500,0.0,1.000000,0.000000,0.000000,0.000000
1782117196.148160,1695569,0.893066,-0.053711,-0.430176,-7.195122,-7.073171,0.548781,16.562500,-36.156250,1.575000,0.0,1.000000,0.000000,0.000000,0.000000
1782117196.158160,1695579,0.898926,-0.069336,-0.443848,-5.060976,-7.012195,0.609756,16.562500,-36.156250,1.575000,0.0,1.000000,0.000000,0.000000,0.000000
1782117196.170160,1695591,0.868652,-0.074707,-0.451172,-2.073171,-5.304878,0.731707,16.562500,-36.218750,1.593750,0.0,1.000000,0.000000,0.000000,0.000000
1782117196.178160,1695599,0.843262,-0.069824,-0.456543,1.890244,-7.134147,-1.219512,16.562500,-36.218750,1.593750,0.0,1.000000,0.000000,0.000000,0.000000
1782117196.188160,1695609,0.874023,-0.053711,-0.459961,5.975610,-10.182927,-2.012195,16.637501,-36.081249,1.518750,0.0,1.000000,0.000000,0.000000,0.000000
1782117196.198160,1695619,0.903809,-0.038574,-0.457520,9.939025,-9.268292,-2.256098,16.637501,-36.081249,1.518750,0.0,1.000000,0.000000,0.000000,0.000000
1782117196.211160,1695632,0.896973,-0.017578,-0.442871,13.536586,-7.560976,-2.926829,16.612501,-36.231251,1.337500,0.0,1.000000,0.000000,0.000000,0.000000
1782117196.218160,1695639,0.893555,-0.008789,-0.427246,15.609756,-8.292683,-3.597561,16.612501,-36.231251,1.337500,0.0,1.000000,0.000000,0.000000,0.000000
1782117196.228160,1695649,0.907715,-0.010254,-0.423340,16.341463,-8.597561,-3.963415,16.662500,-36.093750,1.006250,0.0,1.000000,0.000000,0.000000,0.000000
1782117196.238160,1695659,0.909180,-0.021484,-0.428223,16.890244,-7.804878,-4.207317,16.662500,-36.093750,1.006250,0.0,1.000000,0.000000,0.000000,0.000000
1782117196.251160,1695672,0.902832,-0.036621,-0.441895,18.048780,-7.317073,-4.390244,16.706251,-36.181252,0.825000,0.0,1.000000,0.000000,0.000000,0.000000
1782117196.258160,1695679,0.895020,-0.042969,-0.449707,20.609756,-7.378049,-4.939024,16.706251,-36.181252,0.825000,0.0,1.000000,0.000000,0.000000,0.000000
1782117196.269160,1695690,0.901367,-0.040039,-0.447266,23.475611,-7.621952,-5.609756,16.781250,-36.025002,0.562500,0.0,1.000000,0.000000,0.000000,0.000000
1782117196.278160,1695699,0.909180,-0.033691,-0.438477,25.304878,-7.621952,-6.280488,16.781250,-36.025002,0.562500,0.0,1.000000,0.000000,0.000000,0.000000
1782117196.290160,1695711,0.912598,-0.026855,-0.423340,25.487806,-7.621952,-6.585366,16.793751,-36.031250,0.343750,0.0,1.000000,0.000000,0.000000,0.000000
1782117196.299160,1695720,0.921875,-0.026855,-0.412109,23.902439,-6.463415,-4.939024,16.912500,-35.862499,-0.050000,0.0,1.000000,0.000000,0.000000,0.000000
1782117196.308160,1695729,0.919434,-0.032227,-0.400879,22.560976,-5.914634,-5.304878,16.912500,-35.862499,-0.050000,0.0,1.000000,0.000000,0.000000,0.000000
1782117196.318160,1695739,0.924316,-0.046387,-0.409180,20.670732,-5.914634,-5.182927,16.868750,-35.956249,-0.212500,0.0,1.000000,0.000000,0.000000,0.000000
1782117196.329160,1695750,0.918945,-0.033203,-0.430176,18.109756,-5.670732,-3.902439,16.868750,-35.956249,-0.212500,0.0,1.000000,0.000000,0.000000,0.000000
1782117196.338160,1695759,0.900391,-0.004883,-0.438965,16.219513,-4.329268,-3.170732,16.950001,-35.912502,-0.412500,0.0,1.000000,0.000000,0.000000,0.000000
1782117196.348160,1695769,0.875977,-0.001465,-0.437012,15.914635,-4.512195,-3.719512,16.950001,-35.912502,-0.412500,0.0,1.000000,0.000000,0.000000,0.000000
1782117196.358160,1695779,0.882812,-0.024902,-0.428223,16.951220,-6.646342,-4.268293,16.937500,-35.918751,-0.643750,0.0,1.000000,0.000000,0.000000,0.000000
1782117196.368160,1695789,0.914551,-0.042969,-0.423828,17.926830,-7.012195,-3.963415,16.937500,-35.918751,-0.643750,0.0,1.000000,0.000000,0.000000,0.000000
1782117196.378160,1695799,0.927246,-0.044434,-0.423340,18.109756,-5.121951,-4.024390,17.193750,-35.562500,-1.012500,0.0,1.000000,0.000000,0.000000,0.000000
1782117196.388160,1695809,0.911133,-0.044922,-0.424316,17.256098,-3.597561,-3.841464,17.193750,-35.562500,-1.012500,0.0,1.000000,0.000000,0.000000,0.000000
1782117196.398160,1695819,0.893066,-0.044922,-0.425781,15.609756,-4.573171,-4.024390,17.087500,-35.787502,-1.087500,0.0,1.000000,0.000000,0.000000,0.000000
1782117196.408160,1695829,0.895020,-0.052734,-0.427246,14.329268,-5.731708,-4.634146,17.087500,-35.787502,-1.087500,0.0,1.000000,0.000000,0.000000,0.000000
1782117196.418160,1695839,0.902832,-0.054688,-0.426270,13.963415,-6.158537,-4.939024,17.193750,-35.725002,-1.300000,0.0,1.000000,0.000000,0.000000,0.000000
1782117196.428160,1695849,0.907715,-0.058105,-0.426270,14.024390,-5.487805,-5.121951,17.193750,-35.725002,-1.300000,0.0,1.000000,0.000000,0.000000,0.000000
1782117196.438160,1695859,0.906738,-0.058594,-0.426270,14.634147,-4.573171,-5.243903,17.212500,-35.712502,-1.462500,0.0,1.000000,0.000000,0.000000,0.000000
1782117196.448160,1695869,0.910156,-0.055176,-0.410645,15.975610,-5.000000,-5.487805,17.212500,-35.712502,-1.462500,0.0,1.000000,0.000000,0.000000,0.000000
1782117196.458160,1695879,0.927246,-0.038574,-0.393066,16.036585,-5.365854,-5.060976,17.300001,-35.612499,-1.700000,0.0,1.000000,0.000000,0.000000,0.000000
1782117196.469160,1695890,0.921875,-0.025391,-0.383301,13.597561,-4.329268,-4.146341,17.300001,-35.612499,-1.700000,0.0,1.000000,0.000000,0.000000,0.000000
1782117196.480160,1695901,0.907715,-0.012207,-0.387695,9.268292,-4.695122,-2.987805,17.256250,-35.700001,-1.781250,0.0,1.000000,0.000000,0.000000,0.000000
1782117196.488160,1695909,0.907227,-0.009766,-0.397461,4.512195,-5.426829,-2.195122,17.256250,-35.700001,-1.781250,0.0,1.000000,0.000000,0.000000,0.000000
1782117196.498160,1695919,0.911621,-0.024414,-0.407715,0.670732,-5.426829,-1.280488,17.381250,-35.600002,-1.912500,0.0,1.000000,0.000000,0.000000,0.000000
1782117196.509160,1695930,0.919922,-0.033691,-0.414062,-1.646341,-4.573171,-0.365854,17.381250,-35.600002,-1.912500,0.0,1.000000,0.000000,0.000000,0.000000
1782117196.518160,1695939,0.922852,-0.037598,-0.416504,-2.621951,-3.719512,0.121951,17.368750,-35.581249,-1.981250,0.0,1.000000,0.000000,0.000000,0.000000
1782117196.529160,1695950,0.924316,-0.032715,-0.421875,-3.658537,-3.414634,0.548781,17.368750,-35.581249,-1.981250,0.0,1.000000,0.000000,0.000000,0.000000
1782117196.539160,1695960,0.921875,-0.025879,-0.427734,-5.121951,-3.170732,0.914634,17.393751,-35.549999,-1.943750,0.0,1.000000,0.000000,0.000000,0.000000
1782117196.548160,1695969,0.910645,-0.023926,-0.432129,-7.317073,-3.109756,1.524390,17.393751,-35.549999,-1.943750,0.0,1.000000,0.000000,0.000000,0.000000
1782117196.559160,1695980,0.885742,-0.021973,-0.438965,-10.487805,-3.475610,2.865854,17.331251,-35.562500,-1.943750,0.0,1.000000,0.000000,0.000000,0.000000
1782117196.568160,1695989,0.865723,-0.019531,-0.449707,-13.841464,-4.634146,4.207317,17.331251,-35.562500,-1.943750,0.0,1.000000,0.000000,0.000000,0.000000
1782117196.578160,1695999,0.860352,-0.016113,-0.461914,-16.646341,-5.914634,5.121951,17.256250,-35.612499,-1.881250,0.0,1.000000,0.000000,0.000000,0.000000
1782117196.588160,1696009,0.865234,-0.009766,-0.471680,-19.329269,-6.890244,5.609756,17.256250,-35.612499,-1.881250,0.0,1.000000,0.000000,0.000000,0.000000
1782117196.598160,1696019,0.877441,-0.006348,-0.475098,-21.768293,-7.134147,6.097561,17.356251,-35.468750,-1.906250,0.0,1.000000,0.000000,0.000000,0.000000
1782117196.608160,1696029,0.886230,-0.001465,-0.469238,-24.329269,-6.890244,6.463415,17.356251,-35.468750,-1.906250,0.0,1.000000,0.000000,0.000000,0.000000
1782117196.618160,1696039,0.902344,0.000488,-0.459961,-27.073172,-6.829268,7.378049,17.150000,-35.825001,-1.675000,0.0,1.000000,0.000000,0.000000,0.000000
1782117196.628160,1696049,0.913574,-0.003418,-0.450684,-29.390245,-5.853659,8.109756,17.150000,-35.825001,-1.675000,0.0,1.000000,0.000000,0.000000,0.000000
1782117196.638160,1696059,0.918945,-0.009766,-0.437012,-31.463415,-4.817073,8.597561,17.262501,-35.693752,-1.681250,0.0,1.000000,0.000000,0.000000,0.000000
1782117196.648160,1696069,0.926758,-0.021484,-0.431152,-32.926830,-3.780488,8.902439,17.262501,-35.693752,-1.681250,0.0,1.000000,0.000000,0.000000,0.000000
1782117196.659160,1696080,0.934570,-0.039551,-0.431641,-32.317074,-2.256098,9.024390,17.168751,-35.799999,-1.481250,0.0,1.000000,0.000000,0.000000,0.000000
1782117196.669160,1696090,0.943848,-0.048340,-0.425293,-29.512196,-0.365854,8.597561,17.168751,-35.799999,-1.481250,0.0,1.000000,0.000000,0.000000,0.000000
1782117196.678160,1696099,0.947754,-0.049805,-0.416992,-25.548780,2.621951,7.987805,16.968750,-36.006252,-1.112500,0.0,1.000000,0.000000,0.000000,0.000000
1782117196.688160,1696109,0.937500,-0.050781,-0.414062,-21.829269,5.060976,7.256098,16.968750,-36.006252,-1.112500,0.0,1.000000,0.000000,0.000000,0.000000
1782117196.700160,1696121,0.919434,-0.048340,-0.412598,-18.658537,5.914634,6.646342,17.031250,-35.862499,-1.025000,0.0,1.000000,0.000000,0.000000,0.000000
1782117196.708160,1696129,0.901367,-0.033691,-0.413086,-16.280489,5.792683,6.158537,17.031250,-35.862499,-1.025000,0.0,1.000000,0.000000,0.000000,0.000000
1782117196.718160,1696139,0.899414,-0.024414,-0.418945,-15.609756,4.939024,5.548780,16.925001,-36.118752,-0.718750,0.0,1.000000,0.000000,0.000000,0.000000
1782117196.728160,1696149,0.899414,-0.023926,-0.434082,-16.463415,5.000000,5.487805,16.925001,-36.118752,-0.718750,0.0,1.000000,0.000000,0.000000,0.000000
1782117196.739160,1696160,0.896484,-0.025879,-0.443848,-18.170732,4.573171,6.219512,16.956251,-36.043751,-0.643750,0.0,1.000000,0.000000,0.000000,0.000000
1782117196.748160,1696169,0.890625,-0.020020,-0.450195,-20.426830,4.207317,6.768293,16.956251,-36.043751,-0.643750,0.0,1.000000,0.000000,0.000000,0.000000
1782117196.758160,1696179,0.876465,-0.014160,-0.450195,-22.804878,3.536585,7.317073,16.831251,-36.225002,-0.400000,0.0,1.000000,0.000000,0.000000,0.000000
1782117196.768160,1696189,0.860352,-0.011230,-0.456543,-24.512196,2.865854,7.439024,16.831251,-36.225002,-0.400000,0.0,1.000000,0.000000,0.000000,0.000000
1782117196.781160,1696202,0.850098,-0.020020,-0.470703,-25.609756,-1.280488,6.585366,16.850000,-36.075001,-0.350000,0.0,1.000000,0.000000,0.000000,0.000000
1782117196.788160,1696209,0.850098,-0.020020,-0.470703,-25.609756,-1.280488,6.585366,16.850000,-36.075001,-0.350000,0.0,1.000000,0.000000,0.000000,0.000000
1782117196.798160,1696219,0.868164,-0.033691,-0.474121,-24.939026,-2.560976,5.731708,16.637501,-36.387501,0.018750,0.0,1.000000,0.000000,0.000000,0.000000
1782117196.808160,1696229,0.891113,-0.041504,-0.465332,-23.841463,-2.865854,4.817073,16.637501,-36.387501,0.018750,0.0,1.000000,0.000000,0.000000,0.000000
1782117196.818160,1696239,0.915039,-0.041992,-0.455078,-21.646341,-2.378049,3.475610,16.650000,-36.387501,0.125000,0.0,1.000000,0.000000,0.000000,0.000000
1782117196.828160,1696249,0.922363,-0.040039,-0.447754,-18.780489,-0.731707,2.500000,16.650000,-36.387501,0.125000,0.0,1.000000,0.000000,0.000000,0.000000
1782117196.838160,1696259,0.914062,-0.040527,-0.437988,-15.426829,0.365854,2.012195,16.718750,-36.250000,0.143750,0.0,1.000000,0.000000,0.000000,0.000000
1782117196.848160,1696269,0.913086,-0.041016,-0.435547,-12.378049,0.914634,1.829268,16.718750,-36.250000,0.143750,0.0,1.000000,0.000000,0.000000,0.000000
1782117196.858160,1696279,0.911621,-0.039062,-0.433594,-9.207317,1.707317,1.402439,16.675001,-36.424999,0.306250,0.0,1.000000,0.000000,0.000000,0.000000
1782117196.869160,1696290,0.906250,-0.053223,-0.443359,-6.097561,2.134146,1.341463,16.675001,-36.424999,0.306250,0.0,1.000000,0.000000,0.000000,0.000000
1782117196.878160,1696299,0.929199,-0.050293,-0.444824,-3.048780,0.792683,1.402439,16.643751,-36.418751,0.362500,0.0,1.000000,0.000000,0.000000,0.000000
1782117196.889160,1696310,0.956543,-0.041504,-0.423828,-0.853659,2.439024,0.914634,16.643751,-36.418751,0.362500,0.0,1.000000,0.000000,0.000000,0.000000
1782117196.900160,1696321,0.883301,-0.036133,-0.425293,1.036585,5.548780,0.609756,16.562500,-36.493752,0.493750,0.0,1.000000,0.000000,0.000000,0.000000
1782117196.909160,1696330,0.883301,-0.036133,-0.425293,1.036585,5.548780,0.609756,16.562500,-36.493752,0.493750,0.0,1.000000,0.000000,0.000000,0.000000
1782117196.919160,1696340,0.877441,-0.036621,-0.438477,1.646341,3.170732,0.000000,16.550001,-36.468750,0.600000,0.0,1.000000,0.000000,0.000000,0.000000
1782117196.928160,1696349,0.889648,-0.032715,-0.439453,4.207317,3.719512,-1.829268,16.550001,-36.468750,0.600000,0.0,1.000000,0.000000,0.000000,0.000000
1782117196.938160,1696359,0.892090,-0.032715,-0.433594,6.524390,3.963415,-2.804878,16.556250,-36.493752,0.568750,0.0,1.000000,0.000000,0.000000,0.000000
1782117196.948160,1696369,0.896484,-0.033203,-0.439453,9.512196,4.634146,-3.963415,16.556250,-36.493752,0.568750,0.0,1.000000,0.000000,0.000000,0.000000
1782117196.958160,1696379,0.880371,-0.035645,-0.447266,13.353659,4.634146,-4.878049,16.593750,-36.462502,0.625000,0.0,1.000000,0.000000,0.000000,0.000000
1782117196.968160,1696389,0.868164,-0.041504,-0.447754,17.560976,3.231707,-5.670732,16.593750,-36.462502,0.625000,0.0,1.000000,0.000000,0.000000,0.000000
1782117196.978160,1696399,0.863281,-0.057129,-0.450684,21.280489,1.402439,-7.195122,16.643751,-36.368752,0.512500,0.0,1.000000,0.000000,0.000000,0.000000
1782117196.988160,1696409,0.865234,-0.079590,-0.456543,24.390244,0.487805,-9.085366,16.643751,-36.368752,0.512500,0.0,1.000000,0.000000,0.000000,0.000000
1782117196.998160,1696419,0.881836,-0.094727,-0.462891,27.134148,-0.243902,-11.097561,16.806250,-36.174999,0.231250,0.0,1.000000,0.000000,0.000000,0.000000
1782117197.008160,1696429,0.893555,-0.107422,-0.462891,29.939026,0.365854,-12.500000,16.806250,-36.174999,0.231250,0.0,1.000000,0.000000,0.000000,0.000000
1782117197.019160,1696440,0.898438,-0.114258,-0.465332,32.500000,0.426829,-13.292684,16.850000,-36.200001,0.081250,0.0,1.000000,0.000000,0.000000,0.000000
1782117197.029160,1696450,0.919434,-0.103027,-0.471680,34.573170,-0.548781,-14.085366,16.850000,-36.200001,0.081250,0.0,1.000000,0.000000,0.000000,0.000000
1782117197.038160,1696459,0.929688,-0.088867,-0.461426,35.914635,-0.304878,-13.902439,16.937500,-36.087502,-0.093750,0.0,1.000000,0.000000,0.000000,0.000000
1782117197.049160,1696470,0.942871,-0.071777,-0.438965,37.317074,-0.609756,-12.865854,16.937500,-36.087502,-0.093750,0.0,1.000000,0.000000,0.000000,0.000000
1782117197.062160,1696483,0.951660,-0.054688,-0.403320,38.475609,0.365854,-11.768293,16.993750,-36.056252,-0.418750,0.0,1.000000,0.000000,0.000000,0.000000
1782117197.068160,1696489,0.951660,-0.037598,-0.375000,38.658539,1.036585,-10.487805,16.993750,-36.056252,-0.418750,0.0,1.000000,0.000000,0.000000,0.000000
1782117197.078160,1696499,0.961426,-0.009766,-0.359375,38.109756,0.548781,-9.939025,17.112501,-35.893749,-0.781250,0.0,1.000000,0.000000,0.000000,0.000000
1782117197.089160,1696510,0.963379,0.016113,-0.349121,35.304878,1.402439,-9.390244,17.112501,-35.893749,-0.781250,0.0,1.000000,0.000000,0.000000,0.000000
1782117197.098160,1696519,0.954590,0.023438,-0.353027,31.707317,2.012195,-8.353659,17.112501,-35.887501,-0.968750,0.0,1.000000,0.000000,0.000000,0.000000
1782117197.110160,1696531,0.955078,0.025879,-0.367188,29.329269,2.378049,-7.865854,17.112501,-35.887501,-0.968750,0.0,1.000000,0.000000,0.000000,0.000000
1782117197.118160,1696539,0.954102,0.024902,-0.368652,28.597561,4.024390,-7.743903,17.231251,-35.706249,-1.306250,0.0,1.000000,0.000000,0.000000,0.000000
1782117197.128160,1696549,0.928711,0.022949,-0.371582,27.926830,8.841464,-8.292683,17.231251,-35.706249,-1.306250,0.0,1.000000,0.000000,0.000000,0.000000
1782117197.141160,1696562,0.875000,0.010742,-0.386230,25.792683,10.304878,-8.780488,17.256250,-35.718750,-1.318750,0.0,1.000000,0.000000,0.000000,0.000000
1782117197.148160,1696569,0.852051,-0.002930,-0.412109,21.829269,7.073171,-8.536586,17.256250,-35.718750,-1.318750,0.0,1.000000,0.000000,0.000000,0.000000
1782117197.158160,1696579,0.860840,-0.020996,-0.436035,16.829269,3.841464,-8.414635,17.531250,-35.256252,-1.631250,0.0,1.000000,0.000000,0.000000,0.000000
1782117197.168160,1696589,0.857910,-0.053223,-0.456543,11.402439,2.378049,-7.195122,17.531250,-35.256252,-1.631250,0.0,1.000000,0.000000,0.000000,0.000000
1782117197.181160,1696602,0.834961,-0.080078,-0.469238,6.829268,0.182927,-5.487805,17.443750,-35.631252,-1.381250,0.0,1.000000,0.000000,0.000000,0.000000
1782117197.189160,1696610,0.826172,-0.087891,-0.475098,3.597561,-3.597561,-4.329268,17.443750,-35.631252,-1.381250,0.0,1.000000,0.000000,0.000000,0.000000
1782117197.198160,1696619,0.841309,-0.075195,-0.476562,2.134146,-6.097561,-4.268293,17.537500,-35.462502,-1.537500,0.0,1.000000,0.000000,0.000000,0.000000
1782117197.208160,1696629,0.868164,-0.062500,-0.460938,3.658537,-6.768293,-5.426829,17.537500,-35.462502,-1.537500,0.0,1.000000,0.000000,0.000000,0.000000
1782117197.222160,1696643,0.897461,-0.050781,-0.439941,6.646342,-5.792683,-6.646342,17.581251,-35.368752,-1.693750,0.0,1.000000,0.000000,0.000000,0.000000
1782117197.228160,1696649,0.917480,-0.023926,-0.417480,9.695122,-4.268293,-6.951220,17.581251,-35.368752,-1.693750,0.0,1.000000,0.000000,0.000000,0.000000
1782117197.239160,1696660,0.927246,0.009277,-0.399902,11.036586,-2.682927,-6.768293,17.531250,-35.518749,-1.800000,0.0,1.000000,0.000000,0.000000,0.000000
1782117197.248160,1696669,0.931152,0.034180,-0.389648,10.304878,-2.195122,-6.219512,17.531250,-35.518749,-1.800000,0.0,1.000000,0.000000,0.000000,0.000000
1782117197.258160,1696679,0.934570,0.044434,-0.382324,8.353659,-2.134146,-5.060976,17.500000,-35.587502,-1.868750,0.0,1.000000,0.000000,0.000000,0.000000
1782117197.268160,1696689,0.937988,0.043945,-0.374023,5.975610,-2.682927,-3.597561,17.500000,-35.587502,-1.868750,0.0,1.000000,0.000000,0.000000,0.000000
1782117197.278160,1696699,0.945801,0.041504,-0.363281,3.231707,-2.804878,-2.134146,17.650000,-35.381252,-2.037500,0.0,1.000000,0.000000,0.000000,0.000000
1782117197.289160,1696710,0.944336,0.038086,-0.361328,0.060976,-2.195122,-0.853659,17.650000,-35.381252,-2.037500,0.0,1.000000,0.000000,0.000000,0.000000
1782117197.299160,1696720,0.935059,0.035645,-0.380859,-3.353659,-1.402439,-0.243902,17.556250,-35.518749,-1.950000,0.0,1.000000,0.000000,0.000000,0.000000
1782117197.310160,1696731,0.919922,0.024414,-0.407715,-6.829268,-1.219512,-0.121951,17.556250,-35.518749,-1.950000,0.0,1.000000,0.000000,0.000000,0.000000
1782117197.318160,1696739,0.908203,0.001465,-0.421387,-9.085366,-1.219512,0.304878,17.668751,-35.268749,-2.025000,0.0,1.000000,0.000000,0.000000,0.000000
1782117197.328160,1696749,0.899414,-0.033203,-0.418457,-8.841464,-1.768293,0.609756,17.668751,-35.268749,-2.025000,0.0,1.000000,0.000000,0.000000,0.000000
1782117197.338160,1696759,0.906738,-0.061035,-0.419922,-7.317073,-2.256098,0.853659,17.600000,-35.400002,-1.868750,0.0,1.000000,0.000000,0.000000,0.000000
1782117197.348160,1696769,0.923340,-0.062500,-0.429688,-5.670732,-1.829268,0.487805,17.600000,-35.400002,-1.868750,0.0,1.000000,0.000000,0.000000,0.000000
1782117197.358160,1696779,0.923340,-0.048828,-0.436035,-5.304878,0.000000,0.365854,17.587500,-35.481251,-1.812500,0.0,1.000000,0.000000,0.000000,0.000000
