Unix_Time_s,EMG_t_s,sample_idx,fs,gain,flags,emg_valid,ch1_raw_uV,ch1_filt_uV,ch1_env_uV,ch2_raw_uV,ch2_filt_uV,ch2_env_uV
1782117452.458299,0.000000,1897840,1000,12,0,1,905.195,-14.465,11.191,399.680,15.464,18.990
1782117452.459299,0.001000,1897841,1000,12,0,1,898.349,-20.483,11.444,400.184,11.760,19.053
1782117452.460299,0.002000,1897842,1000,12,0,1,904.835,-13.014,11.570,397.326,4.990,18.753
1782117452.461299,0.003000,1897843,1000,12,0,1,912.569,-3.646,11.569,392.282,-3.388,18.250
1782117452.462299,0.004000,1897844,1000,12,0,1,915.260,-0.601,11.507,390.984,-7.509,17.468
1782117452.463299,0.005000,1897845,1000,12,0,1,914.179,-1.849,11.369,392.882,-7.294,16.542
1782117452.464299,0.006000,1897846,1000,12,0,1,912.449,-3.570,11.360,391.585,-8.606,16.118
1782117452.465299,0.007000,1897847,1000,12,0,1,914.563,-2.215,11.358,392.930,-8.502,15.962
1782117452.466299,0.008000,1897848,1000,12,0,1,915.452,-0.441,11.354,395.717,-4.635,15.930
1782117452.467299,0.009000,1897849,1000,12,0,1,916.196,-0.508,11.344,397.374,-2.512,15.933
1782117452.468299,0.010000,1897850,1000,12,0,1,909.279,-4.913,11.352,398.815,0.132,15.924
1782117452.469299,0.011000,1897851,1000,12,0,1,902.961,-11.186,11.396,399.656,2.217,15.924
1782117452.470299,0.012000,1897852,1000,12,0,1,907.501,-5.662,11.353,399.560,3.587,15.897
1782117452.471299,0.013000,1897853,1000,12,0,1,909.254,-1.216,11.347,399.656,4.902,15.726
1782117452.472299,0.014000,1897854,1000,12,0,1,909.495,-0.995,11.340,399.248,5.741,15.501
1782117452.473299,0.015000,1897855,1000,12,0,1,915.043,4.500,11.341,397.470,4.991,15.256
1782117452.474299,0.016000,1897856,1000,12,0,1,913.650,4.508,11.359,396.894,4.502,15.012
1782117452.475299,0.017000,1897857,1000,12,0,1,913.482,2.563,11.347,398.455,5.758,14.893
1782117452.476299,0.018000,1897858,1000,12,0,1,910.936,1.521,11.347,400.136,6.349,14.862
1782117452.477299,0.019000,1897859,1000,12,0,1,911.512,0.346,11.345,399.248,4.127,14.807
1782117452.478299,0.020000,1897860,1000,12,0,1,910.576,0.862,11.345,397.926,0.504,14.807
1782117452.479299,0.021000,1897861,1000,12,0,1,912.737,1.167,11.340,398.719,-1.091,14.659
1782117452.480299,0.022000,1897862,1000,12,0,1,914.443,3.424,11.328,398.407,-3.259,14.482
1782117452.481299,0.023000,1897863,1000,12,0,1,914.635,2.419,11.320,400.905,-3.879,14.329
1782117452.482299,0.024000,1897864,1000,12,0,1,913.242,0.807,11.280,400.737,-4.935,13.795
1782117452.483299,0.025000,1897865,1000,12,0,1,913.866,0.415,11.049,399.776,-8.063,12.076
1782117452.484299,0.026000,1897866,1000,12,0,1,914.779,1.090,10.891,399.055,-8.940,9.849
1782117452.485299,0.027000,1897867,1000,12,0,1,913.818,0.091,10.858,401.337,-7.496,8.517
1782117452.486299,0.028000,1897868,1000,12,0,1,911.801,-2.075,10.860,403.499,-4.395,8.243
1782117452.487299,0.029000,1897869,1000,12,0,1,911.729,-1.997,10.821,403.259,-3.771,8.258
1782117452.488299,0.030000,1897870,1000,12,0,1,913.362,-0.324,10.672,401.986,-3.595,8.258
1782117452.489299,0.031000,1897871,1000,12,0,1,916.172,2.469,10.515,402.202,-1.763,8.259
1782117452.490299,0.032000,1897872,1000,12,0,1,914.251,1.310,10.497,403.980,1.691,8.252
1782117452.491299,0.033000,1897873,1000,12,0,1,915.236,1.077,10.495,402.659,2.841,8.261
1782117452.492299,0.034000,1897874,1000,12,0,1,914.299,1.430,10.455,402.274,3.178,8.273
1782117452.493299,0.035000,1897875,1000,12,0,1,917.494,2.731,10.413,402.971,5.410,8.308
1782117452.494299,0.036000,1897876,1000,12,0,1,917.902,4.364,10.376,400.377,3.817,8.326
1782117452.495299,0.037000,1897877,1000,12,0,1,917.902,2.603,10.103,400.160,3.117,8.320
1782117452.496299,0.038000,1897878,1000,12,0,1,917.013,2.030,10.011,400.569,3.660,8.285
1782117452.497299,0.039000,1897879,1000,12,0,1,912.834,-2.178,10.014,400.569,2.391,8.219
1782117452.498299,0.040000,1897880,1000,12,0,1,909.999,-5.154,9.947,401.698,1.955,8.062
1782117452.499299,0.041000,1897881,1000,12,0,1,910.624,-4.077,9.619,401.457,0.141,7.896
1782117452.500299,0.042000,1897882,1000,12,0,1,913.578,-1.353,9.109,401.169,-2.357,7.826
1782117452.501299,0.043000,1897883,1000,12,0,1,916.028,1.279,8.868,398.791,-5.720,7.772
1782117452.502299,0.044000,1897884,1000,12,0,1,916.028,0.764,8.854,398.791,-7.756,7.498
1782117452.503299,0.045000,1897885,1000,12,0,1,930.657,10.899,8.890,407.343,-1.470,6.972
1782117452.504299,0.046000,1897886,1000,12,0,1,932.266,14.369,8.328,409.649,1.147,6.439
1782117452.505299,0.047000,1897887,1000,12,0,1,936.206,11.128,7.014,414.309,2.130,5.957
1782117452.506299,0.048000,1897888,1000,12,0,1,940.601,14.943,6.237,413.564,2.732,5.699
1782117452.507299,0.049000,1897889,1000,12,0,1,930.537,3.339,6.133,413.828,0.480,5.333
1782117452.508299,0.050000,1897890,1000,12,0,1,912.810,-13.891,6.106,412.771,1.355,4.867
1782117452.509299,0.051000,1897891,1000,12,0,1,905.964,-20.199,6.088,413.492,1.416,4.579
1782117452.510299,0.052000,1897892,1000,12,0,1,909.495,-14.144,6.138,414.164,3.875,4.557
1782117452.511299,0.053000,1897893,1000,12,0,1,910.432,-9.551,6.263,412.867,3.492,4.559
1782117452.512299,0.054000,1897894,1000,12,0,1,908.654,-9.682,6.411,411.690,3.175,4.456
1782117452.513299,0.055000,1897895,1000,12,0,1,913.602,-3.811,6.428,407.174,0.793,4.336
1782117452.514299,0.056000,1897896,1000,12,0,1,918.070,1.943,6.414,401.001,-4.357,4.207
1782117452.515299,0.057000,1897897,1000,12,0,1,907.213,-5.615,6.455,394.684,-8.151,4.193
1782117452.516299,0.058000,1897898,1000,12,0,1,896.620,-16.007,6.841,393.603,-8.732,4.322
1782117452.517299,0.059000,1897899,1000,12,0,1,907.693,-5.325,6.882,396.701,-4.256,4.349
1782117452.518299,0.060000,1897900,1000,12,0,1,927.102,13.979,7.126,397.182,-3.436,4.376
1782117452.519299,0.061000,1897901,1000,12,0,1,931.017,17.557,7.379,398.287,-3.360,4.391
1782117452.520299,0.062000,1897902,1000,12,0,1,934.837,15.690,7.663,393.002,-7.650,4.494
1782117452.521299,0.063000,1897903,1000,12,0,1,938.920,17.372,8.046,390.048,-12.263,4.767
1782117452.522299,0.064000,1897904,1000,12,0,1,930.705,7.310,8.111,391.033,-10.455,4.924
1782117452.523299,0.065000,1897905,1000,12,0,1,925.372,-1.380,8.088,392.786,-8.813,5.030
1782117452.524299,0.066000,1897906,1000,12,0,1,924.436,-2.228,8.069,394.491,-6.533,5.074
1782117452.525299,0.067000,1897907,1000,12,0,1,919.655,-6.442,8.112,396.797,-4.001,5.041
1782117452.526299,0.068000,1897908,1000,12,0,1,915.284,-9.910,8.229,396.437,-3.011,4.978
1782117452.527299,0.069000,1897909,1000,12,0,1,917.205,-7.300,8.294,395.116,-3.197,4.965
1782117452.528299,0.070000,1897910,1000,12,0,1,918.286,-3.941,8.312,395.356,-1.314,4.967
1782117452.529299,0.071000,1897911,1000,12,0,1,920.496,-1.640,8.313,401.097,5.228,5.020
1782117452.530299,0.072000,1897912,1000,12,0,1,922.898,1.850,8.303,401.145,8.189,5.131
1782117452.531299,0.073000,1897913,1000,12,0,1,933.299,9.624,8.407,396.990,5.006,5.151
1782117452.532299,0.074000,1897914,1000,12,0,1,934.260,12.062,8.578,394.155,3.978,5.134
1782117452.533299,0.075000,1897915,1000,12,0,1,932.771,6.794,8.631,394.852,5.758,5.072
1782117452.534299,0.076000,1897916,1000,12,0,1,936.998,9.240,8.728,392.210,5.339,4.969
1782117452.535299,0.077000,1897917,1000,12,0,1,945.430,14.074,8.952,390.360,3.556,4.881
1782117452.536299,0.078000,1897918,1000,12,0,1,953.645,18.517,9.323,390.312,4.142,4.876
1782117452.537299,0.079000,1897919,1000,12,0,1,945.742,9.586,9.416,391.921,5.007,4.898
1782117452.538299,0.080000,1897920,1000,12,0,1,931.642,-7.636,9.478,394.443,6.268,4.952
1782117452.539299,0.081000,1897921,1000,12,0,1,931.762,-9.398,9.564,393.771,4.427,4.985
1782117452.540299,0.082000,1897922,1000,12,0,1,935.869,-4.805,9.587,390.648,-0.582,4.980
1782117452.541299,0.083000,1897923,1000,12,0,1,931.594,-7.995,9.652,389.351,-3.454,4.988
1782117452.542299,0.084000,1897924,1000,12,0,1,927.462,-12.354,9.807,393.026,-1.920,4.975
1782117452.543299,0.085000,1897925,1000,12,0,1,924.075,-13.527,9.984,395.981,0.253,4.916
1782117452.544299,0.086000,1897926,1000,12,0,1,922.538,-13.831,10.155,397.038,-0.406,4.887
1782117452.545299,0.087000,1897927,1000,12,0,1,926.021,-8.865,10.226,397.854,-0.432,4.867
1782117452.546299,0.088000,1897928,1000,12,0,1,924.147,-7.713,10.280,398.071,-0.689,4.840
1782117452.547299,0.089000,1897929,1000,12,0,1,923.090,-8.367,10.343,398.047,-0.577,4.829
1782117452.548299,0.090000,1897930,1000,12,0,1,933.035,1.343,10.319,394.756,-2.297,4.832
1782117452.549299,0.091000,1897931,1000,12,0,1,939.857,9.088,10.383,393.002,-3.153,4.853
1782117452.550299,0.092000,1897932,1000,12,0,1,941.754,9.169,10.462,390.672,-2.476,4.854
1782117452.551299,0.093000,1897933,1000,12,0,1,936.950,4.532,10.480,393.891,1.279,4.789
1782117452.552299,0.094000,1897934,1000,12,0,1,933.876,-0.488,10.479,391.369,2.906,4.680
1782117452.553299,0.095000,1897935,1000,12,0,1,934.837,0.472,10.366,391.249,2.227,4.686
1782117452.554299,0.096000,1897936,1000,12,0,1,937.118,1.964,10.168,391.513,5.057,4.738
1782117452.555299,0.097000,1897937,1000,12,0,1,936.446,1.368,10.048,389.880,3.462,4.753
1782117452.556299,0.098000,1897938,1000,12,0,1,934.909,-0.892,9.824,390.240,3.738,4.767
1782117452.557299,0.099000,1897939,1000,12,0,1,933.948,-1.976,9.816,390.408,3.726,4.796
1782117452.558299,0.100000,1897940,1000,12,0,1,933.756,-2.242,9.623,391.321,2.962,4.810
1782117452.559299,0.101000,1897941,1000,12,0,1,933.756,-2.226,9.195,390.192,1.293,4.809
1782117452.560299,0.102000,1897942,1000,12,0,1,933.828,-1.994,8.979,389.327,-1.861,4.785
1782117452.561299,0.103000,1897943,1000,12,0,1,936.230,-0.218,8.877,389.351,-2.740,4.775
1782117452.562299,0.104000,1897944,1000,12,0,1,936.638,0.769,8.771,390.672,-3.330,4.778
1782117452.563299,0.105000,1897945,1000,12,0,1,936.902,0.112,8.755,391.201,-3.366,4.800
1782117452.564299,0.106000,1897946,1000,12,0,1,934.596,-1.268,8.752,392.618,-3.402,4.784
1782117452.565299,0.107000,1897947,1000,12,0,1,933.011,-3.358,8.729,392.882,-2.990,4.663
1782117452.566299,0.108000,1897948,1000,12,0,1,932.699,-2.770,8.439,394.612,-2.041,4.505
1782117452.567299,0.109000,1897949,1000,12,0,1,934.981,-0.785,8.406,395.476,-0.277,4.465
1782117452.568299,0.110000,1897950,1000,12,0,1,938.800,3.049,8.182,395.188,-0.101,4.439
1782117452.569299,0.111000,1897951,1000,12,0,1,939.905,4.036,7.817,395.140,0.917,4.415
1782117452.570299,0.112000,1897952,1000,12,0,1,940.289,3.379,7.511,396.269,3.047,4.302
1782117452.571299,0.113000,1897953,1000,12,0,1,939.737,2.622,7.107,396.846,4.853,3.997
1782117452.572299,0.114000,1897954,1000,12,0,1,939.953,1.732,7.036,396.053,5.158,3.784
1782117452.573299,0.115000,1897955,1000,12,0,1,940.986,2.387,7.041,394.804,4.626,3.632
1782117452.574299,0.116000,1897956,1000,12,0,1,939.857,0.920,7.035,396.125,5.990,3.613
1782117452.575299,0.117000,1897957,1000,12,0,1,941.754,1.431,6.979,395.164,5.678,3.658
1782117452.576299,0.118000,1897958,1000,12,0,1,939.833,0.358,6.837,394.347,3.856,3.674
1782117452.577299,0.119000,1897959,1000,12,0,1,937.791,-2.863,6.771,396.557,4.873,3.711
1782117452.578299,0.120000,1897960,1000,12,0,1,934.188,-5.053,6.786,398.455,5.329,3.782
1782117452.579299,0.121000,1897961,1000,12,0,1,934.140,-5.777,6.831,400.088,4.475,3.762
1782117452.580299,0.122000,1897962,1000,12,0,1,940.962,0.889,6.827,402.082,3.935,3.623
1782117452.581299,0.123000,1897963,1000,12,0,1,947.111,6.653,6.756,399.920,-0.042,3.553
1782117452.582299,0.124000,1897964,1000,12,0,1,943.844,3.491,6.555,400.377,-2.722,3.529
1782117452.583299,0.125000,1897965,1000,12,0,1,938.368,-2.919,6.498,399.704,-3.981,3.480
1782117452.584299,0.126000,1897966,1000,12,0,1,936.086,-5.031,6.405,401.217,-4.772,3.463
1782117452.585299,0.127000,1897967,1000,12,0,1,936.350,-4.254,6.117,403.355,-2.807,3.449
1782117452.586299,0.128000,1897968,1000,12,0,1,941.322,0.157,5.528,402.178,-4.145,3.449
1782117452.587299,0.129000,1897969,1000,12,0,1,939.953,0.619,5.360,401.193,-5.076,3.451
1782117452.588299,0.130000,1897970,1000,12,0,1,939.328,-1.626,5.255,401.097,-4.059,3.385
1782117452.589299,0.131000,1897971,1000,12,0,1,941.202,0.986,5.086,399.680,-3.961,3.373
1782117452.590299,0.132000,1897972,1000,12,0,1,948.048,5.691,5.105,398.095,-3.724,3.413
1782117452.591299,0.133000,1897973,1000,12,0,1,950.522,8.531,5.122,397.014,-2.872,3.402
1782117452.592299,0.134000,1897974,1000,12,0,1,947.279,3.690,4.843,398.335,-0.050,3.391
1782117452.593299,0.135000,1897975,1000,12,0,1,945.310,0.656,4.450,397.062,0.917,3.394
1782117452.594299,0.136000,1897976,1000,12,0,1,947.303,1.611,4.004,399.320,2.867,3.417
1782117452.595299,0.137000,1897977,1000,12,0,1,947.111,1.386,3.807,398.695,4.029,3.464
1782117452.596299,0.138000,1897978,1000,12,0,1,943.268,-2.473,3.664,398.863,2.773,3.485
1782117452.597299,0.139000,1897979,1000,12,0,1,936.902,-8.057,3.651,399.872,3.720,3.523
1782117452.598299,0.140000,1897980,1000,12,0,1,937.599,-7.630,3.802,399.632,2.147,3.521
1782117452.599299,0.141000,1897981,1000,12,0,1,939.857,-3.721,3.617,397.326,-1.023,3.496
1782117452.600299,0.142000,1897982,1000,12,0,1,943.244,-0.743,3.378,395.524,-4.121,3.527
1782117452.601299,0.143000,1897983,1000,12,0,1,939.617,-2.356,3.333,393.747,-6.452,3.639
1782117452.602299,0.144000,1897984,1000,12,0,1,936.062,-6.475,3.456,393.483,-7.395,3.764
1782117452.603299,0.145000,1897985,1000,12,0,1,932.939,-7.514,3.615,395.717,-5.770,3.838
1782117452.604299,0.146000,1897986,1000,12,0,1,926.669,-11.664,3.964,394.804,-5.863,3.861
1782117452.605299,0.147000,1897987,1000,12,0,1,913.050,-20.742,4.927,394.924,-6.375,3.934
1782117452.606299,0.148000,1897988,1000,12,0,1,908.606,-23.044,5.906,394.540,-5.136,3.966
1782117452.607299,0.149000,1897989,1000,12,0,1,922.033,-7.532,5.995,391.489,-6.887,4.050
1782117452.608299,0.150000,1897990,1000,12,0,1,930.104,4.397,6.019,390.960,-5.880,4.113
1782117452.609299,0.151000,1897991,1000,12,0,1,938.199,10.006,6.175,392.282,-2.393,4.123
1782117452.610299,0.152000,1897992,1000,12,0,1,935.317,9.750,6.321,395.693,2.279,4.127
1782117452.611299,0.153000,1897993,1000,12,0,1,922.106,-4.076,6.347,402.803,9.791,4.336
1782117452.612299,0.154000,1897994,1000,12,0,1,932.050,2.424,6.355,405.613,13.412,4.709
1782117452.613299,0.155000,1897995,1000,12,0,1,952.251,22.254,7.092,408.592,14.476,5.113
1782117452.614299,0.156000,1897996,1000,12,0,1,958.929,26.354,8.010,409.168,14.635,5.495
1782117452.615299,0.157000,1897997,1000,12,0,1,950.114,15.413,8.287,404.892,9.028,5.625
1782117452.616299,0.158000,1897998,1000,12,0,1,936.206,-0.361,8.278,401.121,3.931,5.645
1782117452.617299,0.159000,1897999,1000,12,0,1,926.141,-9.990,8.397,398.479,0.691,5.646
1782117452.618299,0.160000,1898000,1000,12,0,1,917.205,-15.978,8.685,400.641,0.952,5.647
1782117452.619299,0.161000,1898001,1000,12,0,1,919.583,-12.779,8.853,400.593,0.927,5.647
1782117452.620299,0.162000,1898002,1000,12,0,1,928.639,-1.097,8.841,400.136,-1.746,5.636
1782117452.621299,0.163000,1898003,1000,12,0,1,927.630,0.422,8.834,403.763,0.204,5.595
1782117452.622299,0.164000,1898004,1000,12,0,1,914.419,-10.017,8.943,404.556,0.009,5.547
1782117452.623299,0.165000,1898005,1000,12,0,1,904.138,-18.209,9.300,406.117,-0.882,5.510
1782117452.624299,0.166000,1898006,1000,12,0,1,908.077,-12.244,9.459,406.262,-1.231,5.447
1782117452.625299,0.167000,1898007,1000,12,0,1,920.784,2.098,9.462,406.069,-2.962,5.404
1782117452.626299,0.168000,1898008,1000,12,0,1,936.950,16.790,9.755,407.631,-1.837,5.382
1782117452.627299,0.169000,1898009,1000,12,0,1,938.440,18.636,10.097,404.340,-4.132,5.370
1782117452.628299,0.170000,1898010,1000,12,0,1,927.678,5.575,10.102,394.588,-11.904,5.577
1782117452.629299,0.171000,1898011,1000,12,0,1,935.941,8.504,10.141,391.609,-13.694,5.869
1782117452.630299,0.172000,1898012,1000,12,0,1,935.437,10.696,10.252,392.354,-9.208,5.986
1782117452.631299,0.173000,1898013,1000,12,0,1,932.122,2.752,10.216,393.290,-5.858,6.043
1782117452.632299,0.174000,1898014,1000,12,0,1,923.979,-2.590,10.211,397.470,0.008,6.031
1782117452.633299,0.175000,1898015,1000,12,0,1,920.304,-8.270,10.269,403.019,6.571,6.076
1782117452.634299,0.176000,1898016,1000,12,0,1,927.174,-0.497,10.245,405.061,8.966,6.170
1782117452.635299,0.177000,1898017,1000,12,0,1,936.494,8.416,10.296,403.523,7.098,6.239
1782117452.636299,0.178000,1898018,1000,12,0,1,940.265,11.588,10.426,408.784,9.552,6.356
1782117452.637299,0.179000,1898019,1000,12,0,1,946.342,14.616,10.628,412.987,12.996,6.578
1782117452.638299,0.180000,1898020,1000,12,0,1,950.210,16.645,10.884,409.144,7.107,6.629
1782117452.639299,0.181000,1898021,1000,12,0,1,947.399,11.912,11.012,405.301,0.955,6.607
1782117452.640299,0.182000,1898022,1000,12,0,1,945.526,7.035,11.028,403.187,-2.339,6.594
1782117452.641299,0.183000,1898023,1000,12,0,1,939.064,1.196,10.963,400.208,-5.901,6.634
1782117452.642299,0.184000,1898024,1000,12,0,1,933.107,-6.280,10.986,398.719,-7.896,6.728
1782117452.643299,0.185000,1898025,1000,12,0,1,929.696,-8.187,11.047,394.347,-10.904,6.901
1782117452.644299,0.186000,1898026,1000,12,0,1,934.933,-4.459,11.062,387.766,-16.038,7.253
1782117452.645299,0.187000,1898027,1000,12,0,1,942.355,3.543,11.072,387.525,-14.982,7.534
1782117452.646299,0.188000,1898028,1000,12,0,1,938.512,0.020,11.067,392.570,-7.855,7.606
1782117452.647299,0.189000,1898029,1000,12,0,1,932.266,-7.313,11.056,397.254,-1.643,7.591
1782117452.648299,0.190000,1898030,1000,12,0,1,934.140,-6.140,11.038,399.680,1.882,7.590
1782117452.649299,0.191000,1898031,1000,12,0,1,943.580,1.875,11.028,401.097,3.746,7.607
1782117452.650299,0.192000,1898032,1000,12,0,1,940.481,0.647,11.028,408.135,9.602,7.705
1782117452.651299,0.193000,1898033,1000,12,0,1,934.668,-7.425,11.073,417.383,17.798,8.054
1782117452.652299,0.194000,1898034,1000,12,0,1,928.063,-11.576,11.156,429.057,25.542,8.765
1782117452.653299,0.195000,1898035,1000,12,0,1,920.448,-17.749,11.385,433.909,27.767,9.570
1782117452.654299,0.196000,1898036,1000,12,0,1,928.351,-10.003,11.354,435.639,23.851,10.113
1782117452.655299,0.197000,1898037,1000,12,0,1,934.837,0.031,10.968,433.957,18.789,10.417
1782117452.656299,0.198000,1898038,1000,12,0,1,932.314,-2.052,10.477,430.282,10.945,10.506
1782117452.657299,0.199000,1898039,1000,12,0,1,925.901,-6.353,10.461,420.482,0.148,10.461
1782117452.658299,0.200000,1898040,1000,12,0,1,927.846,-4.884,10.466,408.616,-12.604,10.579
1782117452.659299,0.201000,1898041,1000,12,0,1,942.163,9.008,10.447,394.540,-24.028,11.107
1782117452.660299,0.202000,1898042,1000,12,0,1,950.522,17.485,10.647,383.106,-32.401,12.010
1782117452.661299,0.203000,1898043,1000,12,0,1,940.986,8.007,10.692,378.518,-32.607,12.790
1782117452.662299,0.204000,1898044,1000,12,0,1,925.757,-7.403,10.737,381.376,-25.653,13.159
1782117452.663299,0.205000,1898045,1000,12,0,1,914.227,-16.809,10.537,389.015,-14.973,13.170
1782117452.664299,0.206000,1898046,1000,12,0,1,919.295,-11.497,9.989,391.225,-9.149,13.071
1782117452.665299,0.207000,1898047,1000,12,0,1,926.405,-0.953,9.750,388.630,-10.189,13.088
1782117452.666299,0.208000,1898048,1000,12,0,1,919.607,-5.176,9.777,394.636,-4.209,13.089
1782117452.667299,0.209000,1898049,1000,12,0,1,911.512,-12.302,9.830,402.034,4.377,13.104
1782117452.668299,0.210000,1898050,1000,12,0,1,916.701,-6.650,9.612,398.935,2.500,13.108
1782117452.669299,0.211000,1898051,1000,12,0,1,929.480,6.365,9.484,393.122,-3.264,13.115
1782117452.670299,0.212000,1898052,1000,12,0,1,927.318,6.482,9.527,388.678,-5.776,13.138
1782117452.671299,0.213000,1898053,1000,12,0,1,917.806,-4.090,9.544,387.886,-5.201,13.159
1782117452.672299,0.214000,1898054,1000,12,0,1,915.116,-6.185,9.479,392.137,0.598,13.159
1782117452.673299,0.215000,1898055,1000,12,0,1,919.728,-1.336,9.124,392.714,3.502,13.168
1782117452.674299,0.216000,1898056,1000,12,0,1,928.879,7.495,9.021,389.615,1.560,13.169
1782117452.675299,0.217000,1898057,1000,12,0,1,931.185,10.327,9.134,385.436,-0.670,13.162
1782117452.676299,0.218000,1898058,1000,12,0,1,926.766,5.084,8.849,387.141,1.335,13.161
1782117452.677299,0.219000,1898059,1000,12,0,1,927.006,4.112,8.467,394.443,9.148,13.212
1782117452.678299,0.220000,1898060,1000,12,0,1,918.022,-1.745,8.434,396.821,11.961,13.213
1782117452.679299,0.221000,1898061,1000,12,0,1,908.318,-11.138,8.495,399.896,12.610,13.191
1782117452.680299,0.222000,1898062,1000,12,0,1,920.929,0.422,8.360,394.443,8.213,13.178
1782117452.681299,0.223000,1898063,1000,12,0,1,933.659,15.305,8.626,387.477,-0.804,13.152
1782117452.682299,0.224000,1898064,1000,12,0,1,931.065,12.137,8.788,392.113,2.445,13.157
1782117452.683299,0.225000,1898065,1000,12,0,1,921.985,2.671,8.718,396.677,7.016,13.161
1782117452.684299,0.226000,1898066,1000,12,0,1,914.803,-4.485,8.741,396.293,5.196,13.121
1782117452.685299,0.227000,1898067,1000,12,0,1,914.971,-4.115,8.679,399.488,6.068,13.110
1782117452.686299,0.228000,1898068,1000,12,0,1,924.652,4.718,8.549,396.773,3.626,13.051
1782117452.687299,0.229000,1898069,1000,12,0,1,929.024,9.679,8.407,395.933,0.248,12.921
1782117452.688299,0.230000,1898070,1000,12,0,1,913.098,-4.265,8.094,394.924,0.044,12.882
1782117452.689299,0.231000,1898071,1000,12,0,1,897.316,-20.085,8.410,395.548,-0.597,12.881
1782117452.690299,0.232000,1898072,1000,12,0,1,882.616,-28.737,9.288,397.878,1.985,12.880
1782117452.691299,0.233000,1898073,1000,12,0,1,878.388,-30.051,10.212,400.016,3.657,12.863
1782117452.692299,0.234000,1898074,1000,12,0,1,892.344,-12.610,10.329,404.965,7.239,12.856
1782117452.693299,0.235000,1898075,1000,12,0,1,916.437,11.808,10.399,405.229,7.885,12.811
1782117452.694299,0.236000,1898076,1000,12,0,1,949.970,39.895,11.814,405.445,5.865,12.636
1782117452.695299,0.237000,1898077,1000,12,0,1,974.495,58.378,14.404,403.956,4.829,12.476
1782117452.696299,0.238000,1898078,1000,12,0,1,960.683,40.167,15.484,402.562,1.954,12.430
1782117452.697299,0.239000,1898079,1000,12,0,1,922.538,-1.702,15.451,402.058,1.571,12.429
1782117452.698299,0.240000,1898080,1000,12,0,1,905.916,-21.694,15.729,400.232,-0.529,12.427
1782117452.699299,0.241000,1898081,1000,12,0,1,906.132,-17.376,15.917,400.088,-1.248,12.417
1782117452.700299,0.242000,1898082,1000,12,0,1,899.886,-18.752,16.136,405.277,2.612,12.348
1782117452.701299,0.243000,1898083,1000,12,0,1,890.711,-23.318,16.436,408.904,5.508,12.114
1782117452.702299,0.244000,1898084,1000,12,0,1,899.286,-13.269,16.462,401.674,-1.472,11.564
1782117452.703299,0.245000,1898085,1000,12,0,1,917.061,7.152,16.301,400.521,-5.592,10.906
1782117452.704299,0.246000,1898086,1000,12,0,1,927.174,17.329,16.423,400.160,-4.393,10.390
1782117452.705299,0.247000,1898087,1000,12,0,1,936.662,22.856,16.738,398.143,-7.335,10.098
1782117452.706299,0.248000,1898088,1000,12,0,1,938.392,22.690,17.041,398.743,-6.355,10.019
1782117452.707299,0.249000,1898089,1000,12,0,1,930.417,11.231,17.091,399.896,-4.981,10.043
1782117452.708299,0.250000,1898090,1000,12,0,1,930.273,6.750,17.104,400.809,-3.881,9.899
1782117452.709299,0.251000,1898091,1000,12,0,1,929.984,5.530,17.074,398.407,-5.074,9.325
1782117452.710299,0.252000,1898092,1000,12,0,1,922.178,-3.377,16.901,402.082,-2.696,8.131
1782117452.711299,0.253000,1898093,1000,12,0,1,912.737,-12.714,16.958,406.646,3.129,6.712
1782117452.712299,0.254000,1898094,1000,12,0,1,913.458,-12.664,17.021,411.258,6.083,5.712
1782117452.713299,0.255000,1898095,1000,12,0,1,924.339,-1.891,16.856,415.077,9.424,5.469
1782117452.714299,0.256000,1898096,1000,12,0,1,940.866,12.292,16.867,417.984,10.270,5.509
1782117452.715299,0.257000,1898097,1000,12,0,1,941.442,13.275,16.971,424.782,14.170,5.682
1782117452.716299,0.258000,1898098,1000,12,0,1,929.600,-0.700,16.955,434.246,20.210,6.333
1782117452.717299,0.259000,1898099,1000,12,0,1,920.688,-9.770,16.922,438.882,21.289,6.985
1782117452.718299,0.260000,1898100,1000,12,0,1,923.090,-7.629,16.930,438.353,16.649,7.362
1782117452.719299,0.261000,1898101,1000,12,0,1,927.678,-1.405,16.908,434.726,9.552,7.471
1782117452.720299,0.262000,1898102,1000,12,0,1,931.738,2.407,16.886,424.181,-1.982,7.432
1782117452.721299,0.263000,1898103,1000,12,0,1,935.437,5.736,16.896,401.962,-22.086,8.028
1782117452.722299,0.264000,1898104,1000,12,0,1,939.280,8.272,16.914,380.127,-40.417,9.854
1782117452.723299,0.265000,1898105,1000,12,0,1,947.471,13.384,17.018,376.740,-39.879,11.343
1782117452.724299,0.266000,1898106,1000,12,0,1,939.352,6.947,17.014,388.126,-23.554,11.820
1782117452.725299,0.267000,1898107,1000,12,0,1,923.307,-10.880,17.020,402.707,-6.340,11.854
1782117452.726299,0.268000,1898108,1000,12,0,1,915.019,-17.633,17.187,413.035,4.851,11.872
1782117452.727299,0.269000,1898109,1000,12,0,1,913.482,-17.282,17.350,424.085,13.032,11.944
1782117452.728299,0.270000,1898110,1000,12,0,1,899.958,-24.368,17.688,436.912,22.099,12.230
1782117452.729299,0.271000,1898111,1000,12,0,1,901.808,-23.447,17.927,438.113,20.483,12.441
1782117452.730299,0.272000,1898112,1000,12,0,1,906.252,-12.386,18.012,434.318,11.690,12.497
1782117452.731299,0.273000,1898113,1000,12,0,1,900.919,-15.257,18.011,440.251,12.621,12.623
1782117452.732299,0.274000,1898114,1000,12,0,1,910.576,-6.491,17.953,440.971,11.918,12.730
1782117452.733299,0.275000,1898115,1000,12,0,1,930.633,13.752,18.054,428.144,-1.937,12.695
1782117452.734299,0.276000,1898116,1000,12,0,1,932.050,15.636,18.177,417.864,-13.040,12.807
1782117452.735299,0.277000,1898117,1000,12,0,1,922.778,4.343,18.179,404.052,-22.114,13.155
1782117452.736299,0.278000,1898118,1000,12,0,1,920.953,0.616,18.166,393.675,-29.458,13.789
1782117452.737299,0.279000,1898119,1000,12,0,1,923.138,3.233,18.121,391.273,-25.995,14.271
1782117452.738299,0.280000,1898120,1000,12,0,1,919.583,0.530,18.111,392.522,-19.756,14.542
1782117452.739299,0.281000,1898121,1000,12,0,1,902.673,-12.313,17.971,400.641,-8.661,14.593
1782117452.740299,0.282000,1898122,1000,12,0,1,898.541,-16.760,17.665,401.890,-2.720,14.596
1782117452.741299,0.283000,1898123,1000,12,0,1,900.871,-8.544,17.189,399.776,-4.181,14.598
1782117452.742299,0.284000,1898124,1000,12,0,1,910.023,0.513,17.096,391.945,-8.040,14.607
1782117452.743299,0.285000,1898125,1000,12,0,1,917.806,11.094,17.087,382.361,-15.753,14.734
1782117452.744299,0.286000,1898126,1000,12,0,1,934.981,23.291,16.461,374.554,-19.281,14.961
1782117452.745299,0.287000,1898127,1000,12,0,1,957.128,41.486,15.403,375.491,-16.197,15.120
1782117452.746299,0.288000,1898128,1000,12,0,1,952.035,34.234,15.113,389.639,-1.042,15.118
1782117452.747299,0.289000,1898129,1000,12,0,1,939.665,14.243,15.245,407.703,16.540,15.296
1782117452.748299,0.290000,1898130,1000,12,0,1,939.785,10.520,15.007,414.453,21.921,15.607
1782117452.749299,0.291000,1898131,1000,12,0,1,950.786,15.915,14.975,409.480,14.620,15.742
1782117452.750299,0.292000,1898132,1000,12,0,1,951.171,15.145,14.893,403.787,6.425,15.764
1782117452.751299,0.293000,1898133,1000,12,0,1,927.294,-8.952,14.578,406.694,7.246,15.778
1782117452.752299,0.294000,1898134,1000,12,0,1,898.061,-36.439,15.348,414.020,13.212,15.887
1782117452.753299,0.295000,1898135,1000,12,0,1,892.176,-40.244,16.338,411.931,11.550,15.951
1782117452.754299,0.296000,1898136,1000,12,0,1,886.459,-36.233,16.946,401.241,0.920,15.940
1782117452.755299,0.297000,1898137,1000,12,0,1,886.435,-32.836,17.271,388.775,-9.216,15.959
1782117452.756299,0.298000,1898138,1000,12,0,1,902.553,-12.683,17.065,376.572,-17.327,16.121
1782117452.757299,0.299000,1898139,1000,12,0,1,923.331,9.351,17.042,374.170,-16.273,16.269
1782117452.758299,0.300000,1898140,1000,12,0,1,919.776,9.447,17.068,377.701,-7.875,16.298
1782117452.759299,0.301000,1898141,1000,12,0,1,905.411,-5.770,17.069,377.413,-4.097,16.293
1782117452.760299,0.302000,1898142,1000,12,0,1,906.060,-5.620,17.081,372.032,-5.922,16.310
1782117452.761299,0.303000,1898143,1000,12,0,1,912.665,2.936,16.991,364.249,-10.252,16.368
1782117452.762299,0.304000,1898144,1000,12,0,1,908.005,0.319,16.897,367.468,-6.273,16.370
1782117452.763299,0.305000,1898145,1000,12,0,1,889.702,-14.064,17.011,377.317,5.239,16.332
1782117452.764299,0.306000,1898146,1000,12,0,1,866.690,-31.940,17.515,388.943,14.922,16.404
1782117452.765299,0.307000,1898147,1000,12,0,1,866.137,-29.133,17.895,395.548,19.703,16.518
1782117452.766299,0.308000,1898148,1000,12,0,1,882.832,-7.218,17.923,401.578,20.515,16.525
1782117452.767299,0.309000,1898149,1000,12,0,1,908.654,18.287,18.056,407.126,21.812,16.539
1782117452.768299,0.310000,1898150,1000,12,0,1,922.058,32.230,18.591,409.937,19.660,16.605
1782117452.769299,0.311000,1898151,1000,12,0,1,915.452,23.197,18.878,409.649,15.231,16.689
1782117452.770299,0.312000,1898152,1000,12,0,1,904.931,9.919,18.927,398.239,3.022,16.692
1782117452.771299,0.313000,1898153,1000,12,0,1,897.004,1.680,18.911,393.122,-5.376,16.415
1782117452.772299,0.314000,1898154,1000,12,0,1,911.705,11.228,18.941,388.967,-6.479,15.415
1782117452.773299,0.315000,1898155,1000,12,0,1,928.591,28.077,19.260,384.115,-10.434,14.422
1782117452.774299,0.316000,1898156,1000,12,0,1,935.077,29.123,19.671,383.034,-8.475,14.083
1782117452.775299,0.317000,1898157,1000,12,0,1,946.871,33.696,20.181,383.730,-5.139,14.073
1782117452.776299,0.318000,1898158,1000,12,0,1,968.946,46.413,21.075,378.302,-6.299,14.085
1782117452.777299,0.319000,1898159,1000,12,0,1,968.393,41.526,21.741,378.446,-5.098,13.982
1782117452.778299,0.320000,1898160,1000,12,0,1,948.889,14.835,21.568,383.922,2.784,13.634
1782117452.779299,0.321000,1898161,1000,12,0,1,923.811,-11.454,21.373,387.069,6.901,13.359
1782117452.780299,0.322000,1898162,1000,12,0,1,914.539,-22.744,21.543,390.192,9.043,13.318
1782117452.781299,0.323000,1898163,1000,12,0,1,918.647,-16.217,21.557,388.654,7.608,13.241
1782117452.782299,0.324000,1898164,1000,12,0,1,914.851,-15.968,21.655,393.002,7.876,13.181
1782117452.783299,0.325000,1898165,1000,12,0,1,900.871,-26.275,21.886,397.638,11.418,13.276
1782117452.784299,0.326000,1898166,1000,12,0,1,883.985,-37.157,22.399,407.078,14.669,13.310
1782117452.785299,0.327000,1898167,1000,12,0,1,867.242,-46.470,23.335,411.546,16.674,13.151
1782117452.786299,0.328000,1898168,1000,12,0,1,849.827,-53.448,24.528,415.966,14.005,12.630
1782117452.787299,0.329000,1898169,1000,12,0,1,829.530,-61.721,26.031,423.821,16.803,12.314
1782117452.788299,0.330000,1898170,1000,12,0,1,836.520,-48.248,26.911,421.178,10.889,12.092
1782117452.789299,0.331000,1898171,1000,12,0,1,893.353,8.491,26.881,404.556,-7.349,12.074
1782117452.790299,0.332000,1898172,1000,12,0,1,921.337,43.431,27.472,394.083,-19.094,12.367
1782117452.791299,0.333000,1898173,1000,12,0,1,887.996,10.282,27.484,403.043,-10.817,12.447
1782117452.792299,0.334000,1898174,1000,12,0,1,860.853,-20.241,27.632,410.898,-0.017,12.395
1782117452.793299,0.335000,1898175,1000,12,0,1,869.981,-10.608,27.628,411.810,0.610,12.193
1782117452.794299,0.336000,1898176,1000,12,0,1,870.701,-3.016,27.435,413.420,2.507,11.890
1782117452.795299,0.337000,1898177,1000,12,0,1,891.335,11.387,26.848,408.736,-0.493,11.667
1782117452.796299,0.338000,1898178,1000,12,0,1,898.445,24.927,26.642,406.766,-2.936,11.674
1782117452.797299,0.339000,1898179,1000,12,0,1,909.495,26.651,26.832,402.731,-4.101,11.452
1782117452.798299,0.340000,1898180,1000,12,0,1,895.971,20.016,26.940,405.685,-2.590,11.030
1782117452.799299,0.341000,1898181,1000,12,0,1,870.485,-8.343,26.872,414.909,6.883,10.878
1782117452.800299,0.342000,1898182,1000,12,0,1,870.821,-6.882,26.804,414.092,6.087,10.874
1782117452.801299,0.343000,1898183,1000,12,0,1,914.611,31.744,27.148,403.067,-5.459,10.853
1782117452.802299,0.344000,1898184,1000,12,0,1,950.642,66.238,28.252,391.633,-16.566,10.945
1782117452.803299,0.345000,1898185,1000,12,0,1,968.225,72.344,29.504,383.946,-22.754,11.291
1782117452.804299,0.346000,1898186,1000,12,0,1,968.297,62.404,30.366,382.097,-22.601,11.734
1782117452.805299,0.347000,1898187,1000,12,0,1,945.406,32.522,30.360,392.882,-12.109,11.786
1782117452.806299,0.348000,1898188,1000,12,0,1,921.409,0.841,30.307,402.442,-0.885,11.529
1782117452.807299,0.349000,1898189,1000,12,0,1,916.437,-7.301,30.295,409.528,3.715,11.310
1782117452.808299,0.350000,1898190,1000,12,0,1,921.241,-4.842,30.274,417.623,9.737,11.339
1782117452.809299,0.351000,1898191,1000,12,0,1,915.620,-8.906,30.289,430.378,17.733,11.598
1782117452.810299,0.352000,1898192,1000,12,0,1,901.832,-23.261,30.457,441.068,24.725,12.085
1782117452.811299,0.353000,1898193,1000,12,0,1,884.225,-36.618,30.891,445.968,24.592,12.491
1782117452.812299,0.354000,1898194,1000,12,0,1,878.892,-40.462,31.416,448.130,21.931,12.840
1782117452.813299,0.355000,1898195,1000,12,0,1,892.368,-24.027,31.537,441.212,13.111,12.952
1782117452.814299,0.356000,1898196,1000,12,0,1,891.599,-18.410,31.320,432.156,1.546,12.781
1782117452.815299,0.357000,1898197,1000,12,0,1,865.849,-38.081,31.512,433.525,1.487,12.475
1782117452.816299,0.358000,1898198,1000,12,0,1,857.562,-44.072,32.106,426.583,-2.342,12.138
1782117452.817299,0.359000,1898199,1000,12,0,1,863.976,-29.551,32.273,410.826,-16.187,11.960
1782117452.818299,0.360000,1898200,1000,12,0,1,848.891,-33.761,32.305,405.373,-19.720,11.962
1782117452.819299,0.361000,1898201,1000,12,0,1,858.787,-24.628,32.326,394.876,-23.143,12.213
1782117452.820299,0.362000,1898202,1000,12,0,1,876.971,2.489,32.297,385.244,-29.614,12.904
1782117452.821299,0.363000,1898203,1000,12,0,1,885.354,10.940,32.333,384.955,-24.905,13.355
1782117452.822299,0.364000,1898204,1000,12,0,1,877.932,8.062,32.315,389.639,-17.017,13.539
1782117452.823299,0.365000,1898205,1000,12,0,1,902.120,23.018,32.234,385.652,-16.231,13.653
1782117452.824299,0.366000,1898206,1000,12,0,1,942.739,60.969,33.113,378.037,-21.819,13.946
1782117452.825299,0.367000,1898207,1000,12,0,1,958.137,68.750,34.180,374.554,-22.378,14.282
1782117452.826299,0.368000,1898208,1000,12,0,1,958.137,57.231,34.506,374.554,-19.494,14.518
1782117452.827299,0.369000,1898209,1000,12,0,1,958.137,47.183,34.652,374.554,-16.528,14.687
1782117452.828299,0.370000,1898210,1000,12,0,1,920.880,10.264,34.618,395.909,1.776,14.684
1782117452.829299,0.371000,1898211,1000,12,0,1,914.035,-9.116,34.604,409.600,18.375,14.880
1782117452.830299,0.372000,1898212,1000,12,0,1,926.838,6.780,34.468,417.792,20.944,15.118
1782117452.831299,0.373000,1898213,1000,12,0,1,929.816,6.590,34.404,418.536,21.292,15.378
1782117452.832299,0.374000,1898214,1000,12,0,1,916.245,-5.576,34.339,427.496,23.528,15.694
1782117452.833299,0.375000,1898215,1000,12,0,1,907.933,-16.232,34.215,434.510,29.643,16.164
1782117452.834299,0.376000,1898216,1000,12,0,1,902.337,-18.988,33.915,442.533,31.605,16.642
1782117452.835299,0.377000,1898217,1000,12,0,1,903.586,-17.408,33.363,447.169,33.478,17.141
1782117452.836299,0.378000,1898218,1000,12,0,1,909.855,-10.156,32.527,441.260,24.826,17.384
1782117452.837299,0.379000,1898219,1000,12,0,1,915.980,-3.614,31.339,425.022,7.729,17.255
1782117452.838299,0.380000,1898220,1000,12,0,1,922.250,0.533,30.587,400.641,-13.529,17.293
1782117452.839299,0.381000,1898221,1000,12,0,1,921.937,0.544,30.563,382.553,-28.799,17.735
1782117452.840299,0.382000,1898222,1000,12,0,1,913.482,-9.084,29.967,377.149,-28.130,17.974
1782117452.841299,0.383000,1898223,1000,12,0,1,896.644,-22.650,30.103,383.322,-18.509,18.099
1782117452.842299,0.384000,1898224,1000,12,0,1,887.300,-31.057,30.287,387.261,-9.474,18.149
1782117452.843299,0.385000,1898225,1000,12,0,1,904.594,-13.260,30.308,376.428,-16.545,18.299
1782117452.844299,0.386000,1898226,1000,12,0,1,921.313,6.454,30.318,370.999,-21.429,18.545
1782117452.845299,0.387000,1898227,1000,12,0,1,917.614,3.846,30.280,376.140,-14.424,18.657
1782117452.846299,0.388000,1898228,1000,12,0,1,905.291,-7.946,30.096,380.535,-8.857,18.694
1782117452.847299,0.389000,1898229,1000,12,0,1,896.019,-15.213,29.936,380.872,-8.148,18.720
1782117452.848299,0.390000,1898230,1000,12,0,1,883.192,-22.431,29.970,384.787,-5.546,18.733
1782117452.849299,0.391000,1898231,1000,12,0,1,876.106,-25.643,30.166,389.687,-0.775,18.708
1782117452.850299,0.392000,1898232,1000,12,0,1,887.828,-10.962,30.190,392.282,1.088,18.689
1782117452.851299,0.393000,1898233,1000,12,0,1,902.961,7.555,29.873,391.705,0.736,18.673
1782117452.852299,0.394000,1898234,1000,12,0,1,906.780,12.563,28.422,393.363,2.049,18.528
1782117452.853299,0.395000,1898235,1000,12,0,1,899.958,6.412,26.533,396.821,6.456,18.269
1782117452.854299,0.396000,1898236,1000,12,0,1,906.732,9.240,25.056,399.296,9.852,18.042
1782117452.855299,0.397000,1898237,1000,12,0,1,925.781,25.880,24.901,397.398,9.794,18.013
1782117452.856299,0.398000,1898238,1000,12,0,1,924.412,23.961,25.130,395.212,8.822,18.056
1782117452.857299,0.399000,1898239,1000,12,0,1,890.302,-8.526,25.138,397.614,12.231,18.131
1782117452.858299,0.400000,1898240,1000,12,0,1,869.692,-30.955,25.507,397.278,14.039,18.188
1782117452.859299,0.401000,1898241,1000,12,0,1,864.696,-29.275,25.810,402.370,17.350,18.180
1782117452.860299,0.402000,1898242,1000,12,0,1,863.567,-25.763,25.857,408.207,23.085,18.137
1782117452.861299,0.403000,1898243,1000,12,0,1,881.583,-6.780,25.352,406.166,19.112,18.004
1782117452.862299,0.404000,1898244,1000,12,0,1,895.082,10.993,24.746,406.382,15.349,17.868
1782117452.863299,0.405000,1898245,1000,12,0,1,890.975,7.104,24.532,414.453,18.676,17.966
1782117452.864299,0.406000,1898246,1000,12,0,1,903.081,14.356,24.478,414.621,15.770,18.103
1782117452.865299,0.407000,1898247,1000,12,0,1,908.053,21.320,24.068,419.785,12.755,18.191
1782117452.866299,0.408000,1898248,1000,12,0,1,897.052,8.264,23.276,424.013,12.909,18.280
1782117452.867299,0.409000,1898249,1000,12,0,1,898.133,6.179,22.915,421.227,4.287,18.146
1782117452.868299,0.410000,1898250,1000,12,0,1,910.600,17.108,22.542,418.104,-3.401,17.937
1782117452.869299,0.411000,1898251,1000,12,0,1,917.686,22.224,22.492,413.972,-9.939,17.692
1782117452.870299,0.412000,1898252,1000,12,0,1,919.776,20.862,22.682,410.465,-15.195,17.323
1782117452.871299,0.413000,1898253,1000,12,0,1,913.242,12.779,22.701,408.255,-16.799,17.126
1782117452.872299,0.414000,1898254,1000,12,0,1,908.798,5.128,22.684,403.523,-19.523,17.180
1782117452.873299,0.415000,1898255,1000,12,0,1,907.213,3.091,22.454,400.040,-20.244,17.265
1782117452.874299,0.416000,1898256,1000,12,0,1,903.562,-0.836,20.732,399.488,-17.093,17.158
1782117452.875299,0.417000,1898257,1000,12,0,1,900.943,-3.799,18.319,396.341,-15.027,16.997
1782117452.876299,0.418000,1898258,1000,12,0,1,889.413,-12.007,16.522,393.555,-13.688,16.883
1782117452.877299,0.419000,1898259,1000,12,0,1,874.809,-24.603,15.510,391.993,-10.163,16.782
1782117452.878299,0.420000,1898260,1000,12,0,1,877.379,-20.537,15.712,389.087,-8.481,16.823
1782117452.879299,0.421000,1898261,1000,12,0,1,880.526,-12.392,15.757,385.508,-7.841,16.658
1782117452.880299,0.422000,1898262,1000,12,0,1,888.164,-5.419,15.747,382.721,-7.056,16.423
1782117452.881299,0.423000,1898263,1000,12,0,1,897.989,5.527,15.738,381.304,-5.627,16.164
1782117452.882299,0.424000,1898264,1000,12,0,1,892.920,1.678,15.720,382.361,-2.923,15.823
1782117452.883299,0.425000,1898265,1000,12,0,1,878.868,-11.756,15.641,391.969,5.437,15.277
1782117452.884299,0.426000,1898266,1000,12,0,1,865.657,-21.984,15.719,400.689,13.326,14.730
1782117452.885299,0.427000,1898267,1000,12,0,1,859.796,-24.572,15.909,409.432,17.054,14.155
1782117452.886299,0.428000,1898268,1000,12,0,1,859.316,-19.956,16.093,415.630,19.138,13.978
1782117452.887299,0.429000,1898269,1000,12,0,1,866.330,-10.310,16.151,421.635,18.445,14.177
1782117452.888299,0.430000,1898270,1000,12,0,1,876.466,2.696,16.156,422.019,14.701,14.200
1782117452.889299,0.431000,1898271,1000,12,0,1,897.268,20.557,16.415,421.178,8.297,13.654
1782117452.890299,0.432000,1898272,1000,12,0,1,904.522,29.199,16.877,424.950,7.984,13.110
1782117452.891299,0.433000,1898273,1000,12,0,1,900.007,20.341,16.819,425.550,6.694,12.881
1782117452.892299,0.434000,1898274,1000,12,0,1,902.793,19.457,16.466,421.299,0.892,12.812
1782117452.893299,0.435000,1898275,1000,12,0,1,909.254,22.990,16.679,406.766,-10.722,12.688
1782117452.894299,0.436000,1898276,1000,12,0,1,909.615,20.666,16.909,386.228,-27.215,12.907
1782117452.895299,0.437000,1898277,1000,12,0,1,896.379,7.259,16.931,379.959,-28.904,13.385
1782117452.896299,0.438000,1898278,1000,12,0,1,873.416,-14.611,17.020,386.829,-15.786,13.512
1782117452.897299,0.439000,1898279,1000,12,0,1,860.444,-25.512,17.264,398.047,-0.387,13.463
1782117452.898299,0.440000,1898280,1000,12,0,1,853.959,-26.174,17.370,401.482,7.083,13.477
1782117452.899299,0.441000,1898281,1000,12,0,1,855.280,-21.158,17.248,399.752,6.157,13.505
1782117452.900299,0.442000,1898282,1000,12,0,1,865.369,-7.875,17.215,389.952,-0.710,13.504
1782117452.901299,0.443000,1898283,1000,12,0,1,890.398,14.878,17.310,382.289,-8.274,13.554
1782117452.902299,0.444000,1898284,1000,12,0,1,903.946,28.735,17.691,388.871,-2.137,13.555
1782117452.903299,0.445000,1898285,1000,12,0,1,884.609,9.193,17.716,399.320,7.874,13.570
1782117452.904299,0.446000,1898286,1000,12,0,1,866.522,-12.337,17.754,405.061,10.885,13.585
1782117452.905299,0.447000,1898287,1000,12,0,1,871.902,-7.665,17.406,406.598,9.069,13.575
1782117452.906299,0.448000,1898288,1000,12,0,1,884.081,4.768,17.086,408.015,6.094,13.545
1782117452.907299,0.449000,1898289,1000,12,0,1,887.900,8.517,17.086,408.255,3.360,13.443
1782117452.908299,0.450000,1898290,1000,12,0,1,883.985,3.624,16.524,412.267,3.034,13.302
1782117452.909299,0.451000,1898291,1000,12,0,1,883.600,1.656,15.998,411.402,1.460,13.076
1782117452.910299,0.452000,1898292,1000,12,0,1,887.900,5.284,15.596,401.770,-8.611,12.720
1782117452.911299,0.453000,1898293,1000,12,0,1,896.307,11.730,15.655,390.648,-17.931,12.686
1782117452.912299,0.454000,1898294,1000,12,0,1,901.063,15.508,15.731,382.769,-22.034,12.881
1782117452.913299,0.455000,1898295,1000,12,0,1,899.238,11.886,15.788,382.745,-17.925,12.860
1782117452.914299,0.456000,1898296,1000,12,0,1,887.540,0.916,15.658,384.451,-10.342,12.749
1782117452.915299,0.457000,1898297,1000,12,0,1,877.331,-9.496,15.423,388.078,-3.153,12.629
1782117452.916299,0.458000,1898298,1000,12,0,1,872.551,-11.746,15.469,395.693,7.391,12.540
1782117452.917299,0.459000,1898299,1000,12,0,1,870.893,-11.029,15.522,400.449,14.160,12.684
1782117452.918299,0.460000,1898300,1000,12,0,1,868.227,-10.496,15.404,404.148,17.389,12.911
1782117452.919299,0.461000,1898301,1000,12,0,1,857.562,-16.617,15.262,402.298,15.920,13.030
1782117452.920299,0.462000,1898302,1000,12,0,1,867.723,-8.741,15.025,397.854,9.815,12.927
1782117452.921299,0.463000,1898303,1000,12,0,1,887.420,13.007,15.029,394.155,5.308,12.729
1782117452.922299,0.464000,1898304,1000,12,0,1,891.791,16.080,15.183,387.670,-1.453,12.427
1782117452.923299,0.465000,1898305,1000,12,0,1,887.348,8.985,15.230,383.802,-6.541,12.128
1782117452.924299,0.466000,1898306,1000,12,0,1,885.138,3.945,15.240,378.878,-10.432,11.976
1782117452.925299,0.467000,1898307,1000,12,0,1,878.748,-2.498,15.234,381.400,-9.973,11.870
1782117452.926299,0.468000,1898308,1000,12,0,1,873.848,-8.545,15.187,387.646,-3.446,11.722
1782117452.927299,0.469000,1898309,1000,12,0,1,871.758,-9.545,14.845,390.192,-2.058,11.637
1782117452.928299,0.470000,1898310,1000,12,0,1,869.644,-10.233,14.630,390.864,-2.415,11.580
1782117452.929299,0.471000,1898311,1000,12,0,1,866.402,-11.303,14.612,393.146,-1.307,11.528
1782117452.930299,0.472000,1898312,1000,12,0,1,866.137,-9.692,14.656,393.723,-0.611,11.485
1782117452.931299,0.473000,1898313,1000,12,0,1,859.652,-11.570,14.727,395.861,0.917,11.458
1782117452.932299,0.474000,1898314,1000,12,0,1,850.308,-17.327,14.927,399.079,4.580,11.469
1782117452.933299,0.475000,1898315,1000,12,0,1,856.697,-9.330,14.893,397.878,4.680,11.463
1782117452.934299,0.476000,1898316,1000,12,0,1,863.543,2.475,14.569,393.915,1.875,11.310
1782117452.935299,0.477000,1898317,1000,12,0,1,858.835,0.362,14.149,396.029,4.596,11.069
1782117452.936299,0.478000,1898318,1000,12,0,1,848.794,-6.466,13.894,406.550,14.868,10.937
1782117452.937299,0.479000,1898319,1000,12,0,1,848.915,-5.497,13.840,413.204,21.816,11.060
1782117452.938299,0.480000,1898320,1000,12,0,1,858.259,5.664,13.858,411.570,18.656,11.179
1782117452.939299,0.481000,1898321,1000,12,0,1,861.261,10.194,13.626,409.168,14.025,11.292
1782117452.940299,0.482000,1898322,1000,12,0,1,852.710,2.719,12.991,416.999,17.430,11.503
1782117452.941299,0.483000,1898323,1000,12,0,1,849.155,-1.895,12.671,423.677,21.512,11.861
1782117452.942299,0.484000,1898324,1000,12,0,1,860.925,8.154,12.422,423.677,16.580,12.090
1782117452.943299,0.485000,1898325,1000,12,0,1,865.825,14.037,12.152,421.419,9.682,12.072
1782117452.944299,0.486000,1898326,1000,12,0,1,859.075,5.632,11.822,416.446,1.068,11.443
1782117452.945299,0.487000,1898327,1000,12,0,1,842.165,-9.163,11.849,422.428,0.765,10.689
1782117452.946299,0.488000,1898328,1000,12,0,1,827.656,-22.317,12.087,429.153,5.030,10.477
1782117452.947299,0.489000,1898329,1000,12,0,1,842.885,-8.217,11.594,418.656,-7.052,10.524
1782117452.948299,0.490000,1898330,1000,12,0,1,861.646,13.928,11.162,404.268,-23.056,10.972
1782117452.949299,0.491000,1898331,1000,12,0,1,855.088,9.086,10.830,403.355,-24.388,11.469
1782117452.950299,0.492000,1898332,1000,12,0,1,845.480,-1.701,10.776,406.718,-18.393,11.759
1782117452.951299,0.493000,1898333,1000,12,0,1,847.882,1.066,10.569,407.343,-15.712,11.910
1782117452.952299,0.494000,1898334,1000,12,0,1,853.719,7.865,9.820,405.685,-14.604,12.084
1782117452.953299,0.495000,1898335,1000,12,0,1,854.487,9.502,9.826,414.597,-5.782,12.061
1782117452.954299,0.496000,1898336,1000,12,0,1,862.991,15.060,9.902,429.994,10.404,12.052
1782117452.955299,0.497000,1898337,1000,12,0,1,881.078,29.949,10.715,446.376,24.086,12.458
1782117452.956299,0.498000,1898338,1000,12,0,1,883.192,30.632,11.538,456.489,31.202,13.189
1782117452.957299,0.499000,1898339,1000,12,0,1,869.188,13.268,11.627,458.531,28.534,13.784
1782117452.958299,0.500000,1898340,1000,12,0,1,861.405,2.229,11.620,452.694,18.997,14.037
1782117452.959299,0.501000,1898341,1000,12,0,1,858.739,-0.628,11.618,447.937,9.893,14.105
1782117452.960299,0.502000,1898342,1000,12,0,1,854.752,-4.572,11.612,438.449,-0.183,14.052
1782117452.961299,0.503000,1898343,1000,12,0,1,852.974,-6.469,11.529,433.813,-7.694,13.864
1782117452.962299,0.504000,1898344,1000,12,0,1,867.987,4.974,11.340,430.186,-10.330,13.588
1782117452.963299,0.505000,1898345,1000,12,0,1,893.401,26.492,11.824,410.970,-25.910,13.843
1782117452.964299,0.506000,1898346,1000,12,0,1,889.269,22.094,12.230,385.748,-47.132,15.295
1782117452.965299,0.507000,1898347,1000,12,0,1,873.536,0.113,12.156,368.741,-57.036,17.286
1782117452.966299,0.508000,1898348,1000,12,0,1,857.034,-15.143,12.231,374.194,-46.731,18.476
1782117452.967299,0.509000,1898349,1000,12,0,1,841.348,-29.494,12.828,383.994,-28.441,18.803
1782117452.968299,0.510000,1898350,1000,12,0,1,848.026,-22.567,13.135,385.796,-22.020,18.900
1782117452.969299,0.511000,1898351,1000,12,0,1,864.600,-3.092,12.931,388.871,-15.739,18.897
1782117452.970299,0.512000,1898352,1000,12,0,1,870.221,3.590,12.881,393.555,-8.164,18.881
1782117452.971299,0.513000,1898353,1000,12,0,1,874.280,5.853,12.776,387.405,-9.712,18.916
1782117452.972299,0.514000,1898354,1000,12,0,1,875.722,6.998,12.611,373.762,-19.136,19.107
1782117452.973299,0.515000,1898355,1000,12,0,1,866.137,-1.710,12.549,369.750,-19.375,19.281
1782117452.974299,0.516000,1898356,1000,12,0,1,855.808,-11.783,12.647,380.608,-4.687,19.236
1782117452.975299,0.517000,1898357,1000,12,0,1,856.001,-10.542,12.730,386.228,6.247,19.204
1782117452.976299,0.518000,1898358,1000,12,0,1,859.940,-4.557,12.689,382.337,5.336,19.213
1782117452.977299,0.519000,1898359,1000,12,0,1,859.724,-3.000,12.624,383.442,7.704,19.241
1782117452.978299,0.520000,1898360,1000,12,0,1,853.190,-7.466,12.585,389.135,15.315,19.360
1782117452.979299,0.521000,1898361,1000,12,0,1,846.585,-12.406,12.606,392.594,19.460,19.554
1782117452.980299,0.522000,1898362,1000,12,0,1,847.305,-10.285,12.615,387.117,15.565,19.677
1782117452.981299,0.523000,1898363,1000,12,0,1,847.449,-7.199,12.550,385.796,12.437,19.755
1782117452.982299,0.524000,1898364,1000,12,0,1,841.252,-10.869,12.404,392.522,18.502,19.917
1782117452.983299,0.525000,1898365,1000,12,0,1,837.433,-13.030,12.471,396.557,21.227,20.131
1782117452.984299,0.526000,1898366,1000,12,0,1,842.885,-6.490,12.499,391.081,14.693,20.236
1782117452.985299,0.527000,1898367,1000,12,0,1,849.299,1.514,12.501,385.099,6.362,20.246
1782117452.986299,0.528000,1898368,1000,12,0,1,862.270,11.784,12.578,382.097,2.542,20.140
1782117452.987299,0.529000,1898369,1000,12,0,1,870.990,19.939,12.867,380.031,-0.059,19.902
1782117452.988299,0.530000,1898370,1000,12,0,1,858.907,7.894,12.891,384.547,2.525,19.729
1782117452.989299,0.531000,1898371,1000,12,0,1,850.308,-3.745,12.821,389.039,6.739,19.653
1782117452.990299,0.532000,1898372,1000,12,0,1,856.529,2.189,12.819,391.033,6.650,19.520
1782117452.991299,0.533000,1898373,1000,12,0,1,857.514,4.807,12.834,392.426,6.662,19.305
1782117452.992299,0.534000,1898374,1000,12,0,1,845.600,-5.069,12.802,398.935,10.031,19.214
1782117452.993299,0.535000,1898375,1000,12,0,1,834.790,-14.203,12.806,404.172,13.966,19.267
1782117452.994299,0.536000,1898376,1000,12,0,1,826.888,-17.393,13.016,411.138,16.799,19.412
1782117452.995299,0.537000,1898377,1000,12,0,1,826.936,-14.385,13.110,414.741,18.521,19.588
1782117452.996299,0.538000,1898378,1000,12,0,1,827.344,-8.623,12.782,416.230,16.191,19.708
1782117452.997299,0.539000,1898379,1000,12,0,1,824.894,-7.802,12.777,414.309,12.573,19.763
1782117452.998299,0.540000,1898380,1000,12,0,1,828.233,-2.622,12.630,399.320,-1.416,19.493
1782117452.999299,0.541000,1898381,1000,12,0,1,827.993,0.675,12.565,392.642,-10.146,19.239
1782117453.000299,0.542000,1898382,1000,12,0,1,841.396,10.437,12.649,391.993,-7.501,19.092
1782117453.001299,0.543000,1898383,1000,12,0,1,854.559,24.360,13.109,394.323,-5.275,18.977
1782117453.002299,0.544000,1898384,1000,12,0,1,864.096,27.835,13.642,396.942,-0.970,18.865
1782117453.003299,0.545000,1898385,1000,12,0,1,875.626,33.789,14.392,394.275,-3.086,18.852
1782117453.004299,0.546000,1898386,1000,12,0,1,870.029,25.022,14.667,395.404,-3.160,18.800
1782117453.005299,0.547000,1898387,1000,12,0,1,864.768,12.303,14.149,395.044,-2.611,18.493
1782117453.006299,0.548000,1898388,1000,12,0,1,863.807,9.270,13.533,391.633,-6.827,17.984
1782117453.007299,0.549000,1898389,1000,12,0,1,856.313,0.083,13.403,390.144,-8.420,17.566
1782117453.008299,0.550000,1898390,1000,12,0,1,850.548,-6.694,13.432,392.642,-6.781,17.386
1782117453.009299,0.551000,1898391,1000,12,0,1,848.410,-8.073,13.481,396.533,-3.262,17.336
1782117453.010299,0.552000,1898392,1000,12,0,1,845.672,-9.082,13.526,397.422,-2.853,17.340
1782117453.011299,0.553000,1898393,1000,12,0,1,839.402,-12.425,13.609,398.287,-3.104,17.312
1782117453.012299,0.554000,1898394,1000,12,0,1,840.027,-10.769,13.676,401.554,-0.685,17.250
1782117453.013299,0.555000,1898395,1000,12,0,1,845.720,-2.534,13.158,398.983,-2.329,16.860
1782117453.014299,0.556000,1898396,1000,12,0,1,848.122,1.333,12.783,396.629,-5.228,15.504
1782117453.015299,0.557000,1898397,1000,12,0,1,847.593,1.526,12.784,396.509,-3.942,13.252
1782117453.016299,0.558000,1898398,1000,12,0,1,849.923,3.264,12.612,393.843,-4.730,11.506
1782117453.017299,0.559000,1898399,1000,12,0,1,851.100,4.643,11.921,392.041,-5.022,10.804
1782117453.018299,0.560000,1898400,1000,12,0,1,843.702,-1.914,11.489,395.284,-0.452,10.345
1782117453.019299,0.561000,1898401,1000,12,0,1,837.313,-8.848,11.548,400.256,5.604,10.134
1782117453.020299,0.562000,1898402,1000,12,0,1,837.024,-8.337,11.597,401.337,7.586,10.125
1782117453.021299,0.563000,1898403,1000,12,0,1,852.758,4.197,11.583,398.863,5.166,10.058
1782117453.022299,0.564000,1898404,1000,12,0,1,869.308,19.667,11.871,395.861,2.303,9.693
1782117453.023299,0.565000,1898405,1000,12,0,1,859.388,9.615,11.946,397.758,3.146,9.308
1782117453.024299,0.566000,1898406,1000,12,0,1,833.037,-17.050,12.073,400.929,5.987,9.323
1782117453.025299,0.567000,1898407,1000,12,0,1,815.286,-32.825,12.848,403.331,6.563,9.327
1782117453.026299,0.568000,1898408,1000,12,0,1,813.628,-30.444,13.535,408.952,9.248,9.388
1782117453.027299,0.569000,1898409,1000,12,0,1,810.506,-25.934,14.017,410.129,8.717,9.406
1782117453.028299,0.570000,1898410,1000,12,0,1,804.188,-26.648,14.476,411.138,5.695,9.188
1782117453.029299,0.571000,1898411,1000,12,0,1,798.976,-24.815,14.792,412.867,5.125,8.797
1782117453.030299,0.572000,1898412,1000,12,0,1,797.751,-20.152,14.993,414.573,3.708,8.533
1782117453.031299,0.573000,1898413,1000,12,0,1,823.453,5.120,14.976,412.867,0.689,8.350
1782117453.032299,0.574000,1898414,1000,12,0,1,859.123,40.955,15.983,409.096,-4.491,7.955
1782117453.033299,0.575000,1898415,1000,12,0,1,878.508,55.445,17.708,408.063,-6.146,7.418
1782117453.034299,0.576000,1898416,1000,12,0,1,869.068,42.154,18.662,411.306,-3.165,7.135
1782117453.035299,0.577000,1898417,1000,12,0,1,847.305,14.970,18.780,416.591,1.819,7.083
1782117453.036299,0.578000,1898418,1000,12,0,1,829.386,-4.187,18.715,420.410,5.389,7.115
1782117453.037299,0.579000,1898419,1000,12,0,1,817.520,-14.744,18.619,423.292,7.092,7.185
1782117453.038299,0.580000,1898420,1000,12,0,1,827.776,-6.162,18.606,413.828,-0.148,7.176
1782117453.039299,0.581000,1898421,1000,12,0,1,849.131,15.524,18.727,400.280,-13.245,7.355
1782117453.040299,0.582000,1898422,1000,12,0,1,857.730,22.415,18.991,397.014,-14.612,7.582
1782117453.041299,0.583000,1898423,1000,12,0,1,858.523,18.923,19.167,394.179,-13.278,7.754
1782117453.042299,0.584000,1898424,1000,12,0,1,847.041,6.646,19.176,398.095,-8.865,7.725
1782117453.043299,0.585000,1898425,1000,12,0,1,843.246,-1.881,19.073,404.076,-0.490,7.469
1782117453.044299,0.586000,1898426,1000,12,0,1,847.329,2.153,18.916,407.991,2.713,7.091
1782117453.045299,0.587000,1898427,1000,12,0,1,842.213,-2.495,18.810,405.493,0.905,6.591
1782117453.046299,0.588000,1898428,1000,12,0,1,836.544,-8.919,18.812,406.910,-0.445,6.181
1782117453.047299,0.589000,1898429,1000,12,0,1,833.397,-10.404,18.837,407.727,0.610,5.920
1782117453.048299,0.590000,1898430,1000,12,0,1,833.469,-9.734,18.884,406.093,-2.601,5.928
1782117453.049299,0.591000,1898431,1000,12,0,1,839.306,-3.172,18.889,405.469,-4.002,5.780
1782117453.050299,0.592000,1898432,1000,12,0,1,844.182,2.280,18.834,401.650,-7.168,5.771
1782117453.051299,0.593000,1898433,1000,12,0,1,846.200,3.897,18.525,397.926,-10.866,5.926
1782117453.052299,0.594000,1898434,1000,12,0,1,847.762,4.536,18.113,399.776,-8.164,6.035
1782117453.053299,0.595000,1898435,1000,12,0,1,845.576,2.369,17.474,401.626,-4.774,6.057
1782117453.054299,0.596000,1898436,1000,12,0,1,841.708,-1.999,17.115,400.977,-3.856,6.065
1782117453.055299,0.597000,1898437,1000,12,0,1,836.856,-5.908,17.047,399.464,-3.833,6.078
1782117453.056299,0.598000,1898438,1000,12,0,1,833.661,-8.481,17.038,402.562,0.074,6.001
1782117453.057299,0.599000,1898439,1000,12,0,1,836.039,-5.548,17.056,402.322,2.425,5.892
1782117453.058299,0.600000,1898440,1000,12,0,1,838.538,-1.854,17.032,402.683,2.907,5.828
1782117453.059299,0.601000,1898441,1000,12,0,1,835.367,-3.858,17.003,404.340,5.888,5.869
1782117453.060299,0.602000,1898442,1000,12,0,1,828.521,-9.314,17.005,406.214,7.700,5.955
1782117453.061299,0.603000,1898443,1000,12,0,1,824.269,-12.179,17.001,406.334,8.079,6.048
1782117453.062299,0.604000,1898444,1000,12,0,1,824.293,-10.174,16.994,406.982,7.707,6.145
1782117453.063299,0.605000,1898445,1000,12,0,1,819.513,-11.352,17.066,406.478,6.736,6.209
1782117453.064299,0.606000,1898446,1000,12,0,1,819.489,-10.655,17.131,405.469,4.494,6.198
1782117453.065299,0.607000,1898447,1000,12,0,1,819.489,-6.913,17.158,404.364,2.397,6.182
1782117453.066299,0.608000,1898448,1000,12,0,1,820.762,-4.915,17.166,406.526,2.679,6.158
1782117453.067299,0.609000,1898449,1000,12,0,1,825.110,0.935,17.154,408.496,3.489,6.136
1782117453.068299,0.610000,1898450,1000,12,0,1,829.266,5.460,17.169,408.856,2.102,6.143
1782117453.069299,0.611000,1898451,1000,12,0,1,827.728,4.887,17.137,410.345,1.589,6.096
1782117453.070299,0.612000,1898452,1000,12,0,1,820.282,-1.445,17.098,411.858,1.759,6.006
1782117453.071299,0.613000,1898453,1000,12,0,1,813.844,-6.768,17.114,412.027,0.540,5.962
1782117453.072299,0.614000,1898454,1000,12,0,1,806.686,-10.373,16.950,415.654,2.247,5.961
1782117453.073299,0.615000,1898455,1000,12,0,1,797.246,-16.023,17.047,417.936,4.006,5.972
1782117453.074299,0.616000,1898456,1000,12,0,1,783.338,-23.469,17.199,416.422,1.719,5.916
1782117453.075299,0.617000,1898457,1000,12,0,1,781.633,-21.985,16.850,414.188,-0.787,5.844
1782117453.076299,0.618000,1898458,1000,12,0,1,803.035,1.461,16.292,409.528,-4.220,5.727
1782117453.077299,0.619000,1898459,1000,12,0,1,829.674,28.262,16.369,408.448,-5.100,5.639
1782117453.078299,0.620000,1898460,1000,12,0,1,847.161,41.988,17.000,400.016,-9.094,5.728
1782117453.079299,0.621000,1898461,1000,12,0,1,848.530,38.959,17.523,399.127,-10.479,5.872
1782117453.080299,0.622000,1898462,1000,12,0,1,833.013,19.782,17.514,403.956,-2.218,5.857
1782117453.081299,0.623000,1898463,1000,12,0,1,827.320,8.203,17.538,409.528,3.212,5.873
1782117453.082299,0.624000,1898464,1000,12,0,1,829.146,9.145,16.604,411.546,6.106,5.903
1782117453.083299,0.625000,1898465,1000,12,0,1,828.209,6.479,14.665,410.874,4.380,5.871
1782117453.084299,0.626000,1898466,1000,12,0,1,825.783,3.130,13.406,410.033,2.602,5.865
1782117453.085299,0.627000,1898467,1000,12,0,1,830.275,5.225,13.258,411.138,2.344,5.869
1782117453.086299,0.628000,1898468,1000,12,0,1,838.201,11.701,13.348,408.808,-0.405,5.820
1782117453.087299,0.629000,1898469,1000,12,0,1,837.529,10.293,13.264,404.700,-5.257,5.781
1782117453.088299,0.630000,1898470,1000,12,0,1,830.323,1.632,13.237,408.063,-3.794,5.805
1782117453.089299,0.631000,1898471,1000,12,0,1,815.069,-11.347,13.152,409.985,-1.073,5.497
1782117453.090299,0.632000,1898472,1000,12,0,1,800.753,-23.887,13.204,410.345,-2.355,5.105
1782117453.091299,0.633000,1898473,1000,12,0,1,809.713,-14.664,13.095,408.928,-3.131,4.767
1782117453.092299,0.634000,1898474,1000,12,0,1,819.657,-0.386,13.062,408.808,-4.100,4.636
1782117453.093299,0.635000,1898475,1000,12,0,1,821.675,1.431,13.061,410.537,-1.738,4.642
1782117453.094299,0.636000,1898476,1000,12,0,1,826.407,5.169,13.077,413.900,1.348,4.630
1782117453.095299,0.637000,1898477,1000,12,0,1,830.803,8.552,13.128,416.711,4.423,4.670
1782117453.096299,0.638000,1898478,1000,12,0,1,833.685,9.121,13.131,418.608,5.960,4.745
1782117453.097299,0.639000,1898479,1000,12,0,1,830.154,4.963,13.067,418.584,5.904,4.818
1782117453.098299,0.640000,1898480,1000,12,0,1,833.061,3.735,13.005,416.783,4.129,4.839
1782117453.099299,0.641000,1898481,1000,12,0,1,832.196,3.760,13.009,413.059,0.907,4.807
1782117453.100299,0.642000,1898482,1000,12,0,1,832.653,0.689,13.005,410.705,-1.101,4.702
1782117453.101299,0.643000,1898483,1000,12,0,1,835.271,3.066,13.001,410.057,-1.070,4.446
1782117453.102299,0.644000,1898484,1000,12,0,1,825.759,-5.208,13.006,411.402,0.402,4.294
1782117453.103299,0.645000,1898485,1000,12,0,1,818.240,-13.491,13.140,417.719,5.399,4.309
1782117453.104299,0.646000,1898486,1000,12,0,1,808.440,-18.393,13.392,421.515,8.652,4.446
1782117453.105299,0.647000,1898487,1000,12,0,1,789.559,-31.967,14.110,425.526,9.230,4.602
1782117453.106299,0.648000,1898488,1000,12,0,1,786.149,-31.774,14.760,425.478,7.809,4.732
1782117453.107299,0.649000,1898489,1000,12,0,1,800.129,-13.053,14.854,421.371,1.046,4.722
1782117453.108299,0.650000,1898490,1000,12,0,1,808.968,0.388,14.852,416.494,-4.909,4.755
1782117453.109299,0.651000,1898491,1000,12,0,1,800.753,-3.893,14.852,416.615,-6.476,4.770
1782117453.110299,0.652000,1898492,1000,12,0,1,782.666,-17.949,15.010,419.353,-3.992,4.679
1782117453.111299,0.653000,1898493,1000,12,0,1,778.894,-19.713,15.169,420.290,-3.352,4.562
1782117453.112299,0.654000,1898494,1000,12,0,1,808.103,8.154,15.144,410.273,-11.055,4.697
1782117453.113299,0.655000,1898495,1000,12,0,1,823.044,27.227,15.544,407.655,-14.615,5.043
1782117453.114299,0.656000,1898496,1000,12,0,1,816.775,17.311,15.663,410.057,-8.930,5.160
1782117453.115299,0.657000,1898497,1000,12,0,1,821.483,17.056,15.817,406.574,-9.685,5.328
1782117453.116299,0.658000,1898498,1000,12,0,1,831.067,23.795,16.156,407.583,-7.709,5.425
1782117453.117299,0.659000,1898499,1000,12,0,1,840.387,27.338,16.612,411.018,-1.550,5.407
1782117453.118299,0.660000,1898500,1000,12,0,1,838.201,22.792,16.904,411.690,0.346,5.399
1782117453.119299,0.661000,1898501,1000,12,0,1,826.143,7.005,16.919,410.465,0.680,5.395
1782117453.120299,0.662000,1898502,1000,12,0,1,818.336,-2.521,16.922,409.793,0.517,5.390
1782117453.121299,0.663000,1898503,1000,12,0,1,819.946,-2.011,16.897,411.042,2.382,5.400
1782117453.122299,0.664000,1898504,1000,12,0,1,815.790,-3.569,16.841,414.212,5.162,5.439
1782117453.123299,0.665000,1898505,1000,12,0,1,814.469,-5.792,16.708,413.708,5.013,5.456
1782117453.124299,0.666000,1898506,1000,12,0,1,820.450,1.112,16.375,410.994,1.428,5.454
1782117453.125299,0.667000,1898507,1000,12,0,1,823.285,4.725,16.091,410.802,0.464,5.454
1782117453.126299,0.668000,1898508,1000,12,0,1,821.963,3.199,16.096,411.066,0.407,5.421
1782117453.127299,0.669000,1898509,1000,12,0,1,819.393,0.803,15.593,411.690,0.119,5.373
1782117453.128299,0.670000,1898510,1000,12,0,1,818.072,-0.915,14.418,411.210,-0.544,5.218
1782117453.129299,0.671000,1898511,1000,12,0,1,819.105,0.047,13.324,411.066,-1.534,5.007
1782117453.130299,0.672000,1898512,1000,12,0,1,818.120,-0.822,13.028,408.904,-3.080,5.016
1782117453.131299,0.673000,1898513,1000,12,0,1,817.616,-2.064,12.979,407.367,-4.822,5.042
1782117453.132299,0.674000,1898514,1000,12,0,1,814.661,-4.463,12.930,408.135,-3.340,4.990
1782117453.133299,0.675000,1898515,1000,12,0,1,810.385,-8.721,12.956,408.688,-1.938,4.959
1782117453.134299,0.676000,1898516,1000,12,0,1,809.401,-9.438,13.017,410.177,-0.060,4.945
1782117453.135299,0.677000,1898517,1000,12,0,1,806.542,-10.486,13.081,408.327,-0.214,4.934
1782117453.136299,0.678000,1898518,1000,12,0,1,805.942,-10.852,13.066,407.006,-1.298,4.937
1782117453.137299,0.679000,1898519,1000,12,0,1,808.464,-6.914,13.022,408.159,1.056,4.883
1782117453.138299,0.680000,1898520,1000,12,0,1,806.326,-7.098,13.058,409.504,3.028,4.873
1782117453.139299,0.681000,1898521,1000,12,0,1,793.451,-16.146,13.159,416.182,8.595,5.020
1782117453.140299,0.682000,1898522,1000,12,0,1,786.293,-21.392,13.073,418.032,11.170,5.252
1782117453.141299,0.683000,1898523,1000,12,0,1,776.276,-23.703,13.335,422.908,12.355,5.517
1782117453.142299,0.684000,1898524,1000,12,0,1,775.820,-21.598,13.681,422.259,12.041,5.745
1782117453.143299,0.685000,1898525,1000,12,0,1,788.983,-3.990,13.691,418.272,5.032,5.784
1782117453.144299,0.686000,1898526,1000,12,0,1,808.752,16.107,13.860,413.588,0.152,5.780
1782117453.145299,0.687000,1898527,1000,12,0,1,815.478,24.311,14.228,412.795,-2.404,5.757
1782117453.146299,0.688000,1898528,1000,12,0,1,814.805,20.494,14.463,412.507,-2.410,5.705
1782117453.147299,0.689000,1898529,1000,12,0,1,817.087,20.039,14.721,409.985,-5.028,5.688
1782117453.148299,0.690000,1898530,1000,12,0,1,816.679,17.982,14.930,409.697,-5.853,5.718
1782117453.149299,0.691000,1898531,1000,12,0,1,810.914,10.292,14.992,411.090,-4.008,5.745
1782117453.150299,0.692000,1898532,1000,12,0,1,809.328,6.555,15.020,407.631,-6.481,5.815
1782117453.151299,0.693000,1898533,1000,12,0,1,805.653,3.035,15.020,408.472,-6.206,5.879
1782117453.152299,0.694000,1898534,1000,12,0,1,800.441,-2.620,15.006,409.576,-3.537,5.900
1782117453.153299,0.695000,1898535,1000,12,0,1,799.600,-3.694,14.894,408.784,-3.839,5.876
1782117453.154299,0.696000,1898536,1000,12,0,1,801.161,-1.596,14.666,408.808,-3.063,5.763
1782117453.155299,0.697000,1898537,1000,12,0,1,802.218,-0.554,13.953,404.532,-5.103,5.660
1782117453.156299,0.698000,1898538,1000,12,0,1,802.963,0.238,13.209,401.361,-7.508,5.651
1782117453.157299,0.699000,1898539,1000,12,0,1,803.299,0.318,13.080,400.617,-5.790,5.708
1782117453.158299,0.700000,1898540,1000,12,0,1,805.269,1.732,13.082,401.578,-3.546,5.688
1782117453.159299,0.701000,1898541,1000,12,0,1,805.197,1.846,13.073,403.403,-0.088,5.614
1782117453.160299,0.702000,1898542,1000,12,0,1,801.065,-1.903,12.827,405.781,2.759,5.599
1782117453.161299,0.703000,1898543,1000,12,0,1,799.168,-3.900,12.532,405.517,3.436,5.600
1782117453.162299,0.704000,1898544,1000,12,0,1,798.087,-3.572,12.489,407.487,4.389,5.413
1782117453.163299,0.705000,1898545,1000,12,0,1,790.280,-8.757,11.945,410.705,7.322,5.109
1782117453.164299,0.706000,1898546,1000,12,0,1,779.135,-16.957,11.935,414.573,9.399,5.126
1782117453.165299,0.707000,1898547,1000,12,0,1,773.322,-19.363,12.006,416.879,10.235,5.147
1782117453.166299,0.708000,1898548,1000,12,0,1,775.820,-13.439,11.680,414.885,6.785,5.121
1782117453.167299,0.709000,1898549,1000,12,0,1,777.885,-7.227,11.069,411.786,2.050,5.125
1782117453.168299,0.710000,1898550,1000,12,0,1,782.978,-1.112,10.590,411.258,0.419,5.125
1782117453.169299,0.711000,1898551,1000,12,0,1,772.865,-5.338,10.571,414.933,2.585,5.137
1782117453.170299,0.712000,1898552,1000,12,0,1,757.300,-19.054,10.903,419.425,6.083,5.208
1782117453.171299,0.713000,1898553,1000,12,0,1,758.933,-14.945,11.102,420.074,5.609,5.257
1782117453.172299,0.714000,1898554,1000,12,0,1,769.142,-1.424,11.093,420.698,4.444,5.244
1782117453.173299,0.715000,1898555,1000,12,0,1,794.772,20.552,11.438,415.077,-0.401,5.196
1782117453.174299,0.716000,1898556,1000,12,0,1,806.230,33.410,12.374,410.537,-5.919,5.259
1782117453.175299,0.717000,1898557,1000,12,0,1,797.558,20.223,12.683,409.769,-5.409,5.314
1782117453.176299,0.718000,1898558,1000,12,0,1,801.882,18.411,12.940,413.276,-1.977,5.321
1782117453.177299,0.719000,1898559,1000,12,0,1,810.097,24.180,13.383,415.317,1.275,5.324
1782117453.178299,0.720000,1898560,1000,12,0,1,808.728,19.303,13.658,416.062,1.611,5.329
1782117453.179299,0.721000,1898561,1000,12,0,1,805.990,13.032,13.782,414.453,0.548,5.325
1782117453.180299,0.722000,1898562,1000,12,0,1,800.729,6.452,13.812,413.156,-1.117,5.309
1782117453.181299,0.723000,1898563,1000,12,0,1,791.986,-2.513,13.813,411.762,-2.047,5.273
1782117453.182299,0.724000,1898564,1000,12,0,1,786.581,-7.615,13.841,411.906,-2.132,5.261
1782117453.183299,0.725000,1898565,1000,12,0,1,789.632,-4.050,13.798,412.675,-1.269,5.257
1782117453.184299,0.726000,1898566,1000,12,0,1,791.097,-0.506,13.733,411.306,-2.327,5.267
1782117453.185299,0.727000,1898567,1000,12,0,1,789.920,-1.249,13.654,413.396,-1.497,5.271
1782117453.186299,0.728000,1898568,1000,12,0,1,788.575,-1.675,13.569,416.014,1.285,5.271
1782117453.187299,0.729000,1898569,1000,12,0,1,784.515,-4.405,13.548,415.029,-0.307,5.269
1782117453.188299,0.730000,1898570,1000,12,0,1,784.179,-4.875,13.529,415.582,-0.754,5.253
1782117453.189299,0.731000,1898571,1000,12,0,1,786.773,-1.454,13.336,415.870,-0.526,5.111
1782117453.190299,0.732000,1898572,1000,12,0,1,782.281,-4.496,13.004,410.369,-5.116,4.914
1782117453.191299,0.733000,1898573,1000,12,0,1,775.820,-10.556,12.653,409.384,-6.794,4.692
1782117453.192299,0.734000,1898574,1000,12,0,1,774.162,-11.255,12.382,409.697,-4.517,4.419
1782117453.193299,0.735000,1898575,1000,12,0,1,772.793,-10.651,12.460,413.996,-0.925,4.363
1782117453.194299,0.736000,1898576,1000,12,0,1,773.129,-9.477,12.323,414.789,1.845,4.371
1782117453.195299,0.737000,1898577,1000,12,0,1,774.619,-6.466,11.869,412.267,-0.842,4.359
1782117453.196299,0.738000,1898578,1000,12,0,1,780.408,-1.070,11.511,406.766,-4.437,4.391
1782117453.197299,0.739000,1898579,1000,12,0,1,790.616,8.408,11.220,404.532,-6.183,4.420
1782117453.198299,0.740000,1898580,1000,12,0,1,799.000,15.244,11.138,403.211,-5.123,4.402
1782117453.199299,0.741000,1898581,1000,12,0,1,795.541,11.416,11.160,404.652,-3.003,4.386
1782117453.200299,0.742000,1898582,1000,12,0,1,769.358,-11.297,11.236,409.913,2.723,4.307
1782117453.201299,0.743000,1898583,1000,12,0,1,750.286,-29.494,11.978,414.429,7.281,4.340
1782117453.202299,0.744000,1898584,1000,12,0,1,758.933,-17.551,12.226,413.804,6.210,4.400
1782117453.203299,0.745000,1898585,1000,12,0,1,763.713,-5.677,12.242,415.125,5.665,4.439
1782117453.204299,0.746000,1898586,1000,12,0,1,761.143,-5.800,12.267,415.341,5.354,4.482
1782117453.205299,0.747000,1898587,1000,12,0,1,762.368,-1.831,12.269,412.051,1.283,4.428
1782117453.206299,0.748000,1898588,1000,12,0,1,762.824,1.201,12.271,413.108,0.573,4.299
1782117453.207299,0.749000,1898589,1000,12,0,1,766.380,5.097,12.292,414.861,2.344,4.233
1782117453.208299,0.750000,1898590,1000,12,0,1,758.357,1.147,12.290,420.338,5.257,4.269
1782117453.209299,0.751000,1898591,1000,12,0,1,757.948,-1.790,12.290,416.278,2.868,4.288
1782117453.210299,0.752000,1898592,1000,12,0,1,778.726,17.077,12.522,411.258,-4.379,4.315
1782117453.211299,0.753000,1898593,1000,12,0,1,801.185,35.843,13.498,408.135,-5.759,4.364
1782117453.212299,0.754000,1898594,1000,12,0,1,796.525,29.286,14.110,408.688,-5.430,4.388
1782117453.213299,0.755000,1898595,1000,12,0,1,783.698,10.084,14.128,411.162,-1.605,4.270
1782117453.214299,0.756000,1898596,1000,12,0,1,780.215,3.545,13.932,409.985,-1.525,4.063
1782117453.215299,0.757000,1898597,1000,12,0,1,780.888,2.537,13.665,405.613,-4.755,3.856
1782117453.216299,0.758000,1898598,1000,12,0,1,776.756,-1.666,13.534,404.532,-4.905,3.798
1782117453.217299,0.759000,1898599,1000,12,0,1,772.889,-5.958,13.522,404.772,-3.149,3.813
1782117453.218299,0.760000,1898600,1000,12,0,1,777.693,-2.007,13.524,409.216,1.292,3.817
1782117453.219299,0.761000,1898601,1000,12,0,1,780.095,2.186,13.506,414.669,6.843,3.921
1782117453.220299,0.762000,1898602,1000,12,0,1,777.381,-0.595,13.235,413.972,6.255,3.926
1782117453.221299,0.763000,1898603,1000,12,0,1,777.597,-0.082,13.065,411.018,2.153,3.857
1782117453.222299,0.764000,1898604,1000,12,0,1,770.607,-4.179,13.077,410.201,0.873,3.808
1782117453.223299,0.765000,1898605,1000,12,0,1,754.081,-17.202,12.980,414.669,3.653,3.842
1782117453.224299,0.766000,1898606,1000,12,0,1,733.856,-31.430,12.880,421.659,9.288,3.973
1782117453.225299,0.767000,1898607,1000,12,0,1,721.749,-37.326,13.623,422.836,9.108,4.106
1782117453.226299,0.768000,1898608,1000,12,0,1,721.773,-30.184,14.037,424.998,7.946,4.248
1782117453.227299,0.769000,1898609,1000,12,0,1,724.968,-19.990,13.904,427.568,8.743,4.421
1782117453.228299,0.770000,1898610,1000,12,0,1,766.812,16.100,13.823,413.372,-3.871,4.449
1782117453.229299,0.771000,1898611,1000,12,0,1,804.524,55.121,15.762,401.457,-17.163,5.067
1782117453.230299,0.772000,1898612,1000,12,0,1,793.163,39.674,16.706,405.229,-12.049,5.344
1782117453.231299,0.773000,1898613,1000,12,0,1,769.094,8.753,16.748,412.171,-3.288,5.356
1782117453.232299,0.774000,1898614,1000,12,0,1,761.527,-2.414,16.717,415.582,0.925,5.349
1782117453.233299,0.775000,1898615,1000,12,0,1,758.044,-5.556,16.725,418.872,3.828,5.374
1782117453.234299,0.776000,1898616,1000,12,0,1,755.426,-8.062,16.764,421.058,5.716,5.424
1782117453.235299,0.777000,1898617,1000,12,0,1,759.486,-4.253,16.774,415.654,1.167,5.422
1782117453.236299,0.778000,1898618,1000,12,0,1,766.091,3.018,16.778,410.105,-4.868,5.463
1782117453.237299,0.779000,1898619,1000,12,0,1,767.244,4.586,16.779,407.391,-6.162,5.532
1782117453.238299,0.780000,1898620,1000,12,0,1,766.091,3.410,16.771,410.561,-3.210,5.549
1782117453.239299,0.781000,1898621,1000,12,0,1,776.997,11.487,16.849,411.906,-0.115,5.549
1782117453.240299,0.782000,1898622,1000,12,0,1,790.953,24.409,17.187,406.766,-4.429,5.537
1782117453.241299,0.783000,1898623,1000,12,0,1,788.358,20.831,17.373,407.943,-4.123,5.484
1782117453.242299,0.784000,1898624,1000,12,0,1,776.300,6.860,17.327,409.312,-1.085,5.449
1782117453.243299,0.785000,1898625,1000,12,0,1,772.169,0.936,17.262,411.210,-0.305,5.448
1782117453.244299,0.786000,1898626,1000,12,0,1,776.997,5.008,17.225,411.858,1.069,5.443
1782117453.245299,0.787000,1898627,1000,12,0,1,779.759,7.537,17.234,410.898,-0.598,5.443
1782117453.246299,0.788000,1898628,1000,12,0,1,775.291,2.542,17.237,407.487,-3.184,5.425
1782117453.247299,0.789000,1898629,1000,12,0,1,771.448,-2.719,17.200,406.069,-4.826,5.398
1782117453.248299,0.790000,1898630,1000,12,0,1,776.060,-0.071,17.064,405.685,-3.993,5.378
1782117453.249299,0.791000,1898631,1000,12,0,1,771.568,-2.949,16.993,408.087,-1.587,5.366
1782117453.250299,0.792000,1898632,1000,12,0,1,762.392,-13.341,17.022,411.642,2.464,5.364
1782117453.251299,0.793000,1898633,1000,12,0,1,761.191,-14.404,16.629,410.057,1.860,5.271
1782117453.252299,0.794000,1898634,1000,12,0,1,755.738,-16.858,16.614,412.507,2.786,5.212
1782117453.253299,0.795000,1898635,1000,12,0,1,758.429,-15.338,16.736,410.465,2.936,5.167
1782117453.254299,0.796000,1898636,1000,12,0,1,766.668,-5.086,16.731,407.895,-0.749,5.112
1782117453.255299,0.797000,1898637,1000,12,0,1,769.262,-2.175,16.732,408.808,1.132,5.111
1782117453.256299,0.798000,1898638,1000,12,0,1,768.157,-2.917,16.737,407.054,0.236,5.111
1782117453.257299,0.799000,1898639,1000,12,0,1,767.917,-3.058,16.727,407.847,0.620,5.101
1782117453.258299,0.800000,1898640,1000,12,0,1,765.803,-3.686,16.734,406.718,0.963,5.048
1782117453.259299,0.801000,1898641,1000,12,0,1,760.759,-6.836,16.760,407.222,0.472,5.032
1782117453.260299,0.802000,1898642,1000,12,0,1,758.068,-7.767,16.621,409.456,3.164,5.014
1782117453.261299,0.803000,1898643,1000,12,0,1,757.708,-5.322,15.847,410.249,3.304,4.969
1782117453.262299,0.804000,1898644,1000,12,0,1,760.807,-0.784,15.297,409.096,1.957,4.918
1782117453.263299,0.805000,1898645,1000,12,0,1,761.599,2.645,15.235,407.246,-0.388,4.913
1782117453.264299,0.806000,1898646,1000,12,0,1,759.390,1.474,15.228,409.456,0.723,4.909
1782117453.265299,0.807000,1898647,1000,12,0,1,757.516,0.874,15.224,410.033,1.695,4.869
1782117453.266299,0.808000,1898648,1000,12,0,1,744.617,-7.916,15.264,413.732,3.208,4.840
1782117453.267299,0.809000,1898649,1000,12,0,1,724.776,-23.985,15.613,416.999,6.312,4.902
1782117453.268299,0.810000,1898650,1000,12,0,1,733.519,-15.887,15.772,417.575,5.180,4.953
1782117453.269299,0.811000,1898651,1000,12,0,1,753.793,7.991,15.809,417.191,3.880,4.888
1782117453.270299,0.812000,1898652,1000,12,0,1,756.195,11.368,15.890,417.239,2.775,4.823
1782117453.271299,0.813000,1898653,1000,12,0,1,740.653,-3.080,15.896,420.794,4.807,4.862
1782117453.272299,0.814000,1898654,1000,12,0,1,723.166,-19.219,16.116,424.830,7.889,4.986
1782117453.273299,0.815000,1898655,1000,12,0,1,718.843,-21.506,16.219,426.199,7.776,5.080
1782117453.274299,0.816000,1898656,1000,12,0,1,711.636,-21.657,15.896,428.313,7.900,5.033
1782117453.275299,0.817000,1898657,1000,12,0,1,715.960,-16.620,15.177,423.557,3.346,4.888
1782117453.276299,0.818000,1898658,1000,12,0,1,749.781,15.963,14.738,412.075,-7.859,4.885
1782117453.277299,0.819000,1898659,1000,12,0,1,767.773,36.113,15.340,406.646,-12.968,5.070
1782117453.278299,0.820000,1898660,1000,12,0,1,760.518,25.264,15.585,412.867,-6.281,5.118
1782117453.279299,0.821000,1898661,1000,12,0,1,753.769,15.167,13.665,414.765,-1.969,4.514
1782117453.280299,0.822000,1898662,1000,12,0,1,748.748,9.593,12.534,410.898,-5.545,4.253
1782117453.281299,0.823000,1898663,1000,12,0,1,733.783,-2.776,12.478,409.576,-6.509,4.327
1782117453.282299,0.824000,1898664,1000,12,0,1,715.864,-17.521,12.717,412.387,-3.549,4.354
1782117453.283299,0.825000,1898665,1000,12,0,1,716.417,-14.885,12.867,408.904,-5.160,4.381
1782117453.284299,0.826000,1898666,1000,12,0,1,714.951,-8.618,12.874,407.847,-7.148,4.423
1782117453.285299,0.827000,1898667,1000,12,0,1,714.591,-7.306,12.901,416.975,1.143,4.423
1782117453.286299,0.828000,1898668,1000,12,0,1,721.365,2.664,12.900,420.266,5.275,4.432
1782117453.287299,0.829000,1898669,1000,12,0,1,740.053,18.941,13.159,421.659,4.025,4.383
1782117453.288299,0.830000,1898670,1000,12,0,1,745.482,25.853,13.649,421.899,4.072,4.397
1782117453.289299,0.831000,1898671,1000,12,0,1,740.509,16.468,13.750,423.821,3.623,4.427
1782117453.290299,0.832000,1898672,1000,12,0,1,744.785,16.223,13.506,420.194,1.086,4.385
1782117453.291299,0.833000,1898673,1000,12,0,1,746.635,16.190,13.379,419.377,-1.785,4.353
1782117453.292299,0.834000,1898674,1000,12,0,1,736.858,4.231,13.357,420.049,0.079,4.351
1782117453.293299,0.835000,1898675,1000,12,0,1,723.599,-9.488,13.423,424.734,3.210,4.374
1782117453.294299,0.836000,1898676,1000,12,0,1,713.006,-19.088,13.674,427.688,6.722,4.474
1782117453.295299,0.837000,1898677,1000,12,0,1,706.280,-22.484,13.998,429.370,6.843,4.576
1782117453.296299,0.838000,1898678,1000,12,0,1,700.107,-24.159,14.404,426.559,4.250,4.594
1782117453.297299,0.839000,1898679,1000,12,0,1,697.176,-22.452,14.745,422.908,-0.209,4.543
1782117453.298299,0.840000,1898680,1000,12,0,1,714.783,-4.535,14.759,415.942,-5.723,4.580
1782117453.299299,0.841000,1898681,1000,12,0,1,739.380,21.639,15.067,407.727,-12.497,4.904
1782117453.300299,0.842000,1898682,1000,12,0,1,737.074,21.375,15.251,409.817,-10.259,5.102
1782117453.301299,0.843000,1898683,1000,12,0,1,725.761,7.343,15.150,418.945,0.022,5.095
1782117453.302299,0.844000,1898684,1000,12,0,1,727.538,7.890,15.003,418.921,1.244,5.083
1782117453.303299,0.845000,1898685,1000,12,0,1,722.878,5.936,14.869,416.831,-2.000,5.074
1782117453.304299,0.846000,1898686,1000,12,0,1,740.389,16.444,15.033,410.249,-6.882,5.165
1782117453.305299,0.847000,1898687,1000,12,0,1,753.913,31.986,15.696,405.133,-12.072,5.438
1782117453.306299,0.848000,1898688,1000,12,0,1,751.295,23.800,16.047,398.935,-15.044,5.839
1782117453.307299,0.849000,1898689,1000,12,0,1,739.500,10.671,16.112,393.915,-18.056,6.372
1782117453.308299,0.850000,1898690,1000,12,0,1,742.407,7.208,16.136,398.767,-11.654,6.581
1782117453.309299,0.851000,1898691,1000,12,0,1,756.363,18.450,16.317,410.537,1.319,6.583
1782117453.310299,0.852000,1898692,1000,12,0,1,764.578,22.463,16.587,420.098,10.771,6.742
1782117453.311299,0.853000,1898693,1000,12,0,1,765.203,17.753,16.759,420.914,11.453,6.918
1782117453.312299,0.854000,1898694,1000,12,0,1,756.123,6.038,16.780,420.626,8.874,7.026
1782117453.313299,0.855000,1898695,1000,12,0,1,745.770,-7.930,16.814,416.591,5.543,7.069
1782117453.314299,0.856000,1898696,1000,12,0,1,744.256,-10.593,16.879,419.233,5.426,7.110
1782117453.315299,0.857000,1898697,1000,12,0,1,745.193,-9.830,16.936,422.139,9.407,7.229
1782117453.316299,0.858000,1898698,1000,12,0,1,737.050,-15.421,17.039,422.500,8.171,7.307
1782117453.317299,0.859000,1898699,1000,12,0,1,713.678,-33.868,17.371,414.693,2.064,7.258
1782117453.318299,0.860000,1898700,1000,12,0,1,695.182,-47.463,18.487,409.264,-4.325,7.247
1782117453.319299,0.861000,1898701,1000,12,0,1,703.109,-35.141,19.110,415.077,1.364,7.229
1782117453.320299,0.862000,1898702,1000,12,0,1,716.152,-14.715,19.155,423.532,9.713,7.347
1782117453.321299,0.863000,1898703,1000,12,0,1,717.618,-8.904,19.192,428.481,12.902,7.540
1782117453.322299,0.864000,1898704,1000,12,0,1,723.983,-2.053,19.001,426.679,9.989,7.590
1782117453.323299,0.865000,1898705,1000,12,0,1,744.929,17.137,18.912,414.765,-2.244,7.516
1782117453.324299,0.866000,1898706,1000,12,0,1,746.226,20.758,18.891,411.786,-7.525,7.509
1782117453.325299,0.867000,1898707,1000,12,0,1,724.127,-1.816,18.746,414.357,-3.918,7.514
1782117453.326299,0.868000,1898708,1000,12,0,1,733.687,1.013,18.610,407.343,-9.052,7.541
1782117453.327299,0.869000,1898709,1000,12,0,1,750.238,19.940,18.117,402.202,-14.319,7.590
1782117453.328299,0.870000,1898710,1000,12,0,1,751.198,17.347,17.930,409.625,-6.702,7.597
1782117453.329299,0.871000,1898711,1000,12,0,1,746.226,10.288,17.860,416.062,1.003,7.593
1782117453.330299,0.872000,1898712,1000,12,0,1,728.139,-6.497,17.832,414.933,0.106,7.552
1782117453.331299,0.873000,1898713,1000,12,0,1,715.432,-19.880,18.048,410.585,-3.995,7.517
1782117453.332299,0.874000,1898714,1000,12,0,1,719.707,-13.518,17.979,409.480,-4.925,7.533
1782117453.333299,0.875000,1898715,1000,12,0,1,719.179,-9.636,17.908,410.826,-2.611,7.507
1782117453.334299,0.876000,1898716,1000,12,0,1,704.983,-19.122,18.070,407.006,-4.231,7.462
1782117453.335299,0.877000,1898717,1000,12,0,1,704.983,-18.493,18.229,405.205,-5.640,7.503
1782117453.336299,0.878000,1898718,1000,12,0,1,713.942,-4.861,18.238,407.775,-1.427,7.468
1782117453.337299,0.879000,1898719,1000,12,0,1,736.282,14.403,18.154,406.574,-0.668,7.447
1782117453.338299,0.880000,1898720,1000,12,0,1,761.119,37.355,18.551,412.579,4.012,7.447
1782117453.339299,0.881000,1898721,1000,12,0,1,767.148,38.999,19.212,416.663,9.687,7.554
1782117453.340299,0.882000,1898722,1000,12,0,1,751.150,19.548,19.274,420.938,11.236,7.718
1782117453.341299,0.883000,1898723,1000,12,0,1,723.959,-8.601,19.176,422.884,12.797,7.923
1782117453.342299,0.884000,1898724,1000,12,0,1,714.807,-19.716,19.369,423.460,10.544,8.063
1782117453.343299,0.885000,1898725,1000,12,0,1,706.112,-21.391,19.558,414.140,2.182,8.056
1782117453.344299,0.886000,1898726,1000,12,0,1,688.096,-34.374,19.971,407.295,-6.735,8.056
1782117453.345299,0.887000,1898727,1000,12,0,1,708.105,-16.126,19.848,413.468,-1.365,8.000
1782117453.346299,0.888000,1898728,1000,12,0,1,737.339,17.747,19.712,414.693,1.480,7.980
1782117453.347299,0.889000,1898729,1000,12,0,1,732.126,14.299,19.559,416.663,0.811,7.981
1782117453.348299,0.890000,1898730,1000,12,0,1,718.050,-2.017,19.551,424.109,7.285,8.006
1782117453.349299,0.891000,1898731,1000,12,0,1,707.553,-10.381,19.366,427.040,8.650,7.904
1782117453.350299,0.892000,1898732,1000,12,0,1,697.921,-17.376,19.285,428.241,7.407,7.840
1782117453.351299,0.893000,1898733,1000,12,0,1,699.458,-13.893,19.357,422.572,1.615,7.843
1782117453.352299,0.894000,1898734,1000,12,0,1,695.519,-11.841,19.398,419.377,-3.695,7.859
1782117453.353299,0.895000,1898735,1000,12,0,1,717.497,4.902,19.392,418.632,-3.538,7.869
1782117453.354299,0.896000,1898736,1000,12,0,1,720.452,16.052,19.385,423.340,-0.308,7.809
1782117453.355299,0.897000,1898737,1000,12,0,1,688.937,-14.342,18.959,434.630,9.653,7.742
1782117453.356299,0.898000,1898738,1000,12,0,1,661.313,-37.363,19.392,446.160,18.510,7.890
1782117453.357299,0.899000,1898739,1000,12,0,1,660.280,-33.603,19.908,443.157,14.521,7.743
1782117453.358299,0.900000,1898740,1000,12,0,1,710.796,13.301,19.971,417.383,-9.691,7.689
1782117453.359299,0.901000,1898741,1000,12,0,1,785.596,82.372,22.973,387.670,-36.794,9.282
1782117453.360299,0.902000,1898742,1000,12,0,1,798.976,91.255,26.157,390.552,-32.770,10.262
1782117453.361299,0.903000,1898743,1000,12,0,1,773.850,51.298,27.028,402.322,-13.796,10.320
1782117453.362299,0.904000,1898744,1000,12,0,1,764.338,29.951,27.345,407.775,-6.341,10.282
1782117453.363299,0.905000,1898745,1000,12,0,1,765.467,24.550,27.541,411.306,-1.181,10.254
1782117453.364299,0.906000,1898746,1000,12,0,1,760.951,15.130,27.584,413.588,1.366,10.227
1782117453.365299,0.907000,1898747,1000,12,0,1,738.011,-7.191,27.567,417.215,4.032,10.156
1782117453.366299,0.908000,1898748,1000,12,0,1,733.759,-17.061,27.587,417.071,4.137,10.107
1782117453.367299,0.909000,1898749,1000,12,0,1,741.542,-6.002,27.181,410.009,-3.019,10.112
1782117453.368299,0.910000,1898750,1000,12,0,1,747.187,-1.915,26.341,409.384,-4.788,10.116
1782117453.369299,0.911000,1898751,1000,12,0,1,756.987,6.123,25.882,411.570,-1.670,10.117
1782117453.370299,0.912000,1898752,1000,12,0,1,767.773,13.778,25.872,407.655,-4.266,10.041
1782117453.371299,0.913000,1898753,1000,12,0,1,769.790,12.862,25.905,405.133,-6.641,9.919
1782117453.372299,0.914000,1898754,1000,12,0,1,766.692,5.799,25.916,404.364,-5.401,9.847
1782117453.373299,0.915000,1898755,1000,12,0,1,762.200,-1.651,25.804,407.463,-2.013,9.846
1782117453.374299,0.916000,1898756,1000,12,0,1,756.339,-8.991,25.668,408.904,1.571,9.791
1782117453.375299,0.917000,1898757,1000,12,0,1,750.166,-16.001,25.766,412.147,4.172,9.793
1782117453.376299,0.918000,1898758,1000,12,0,1,755.138,-13.025,25.831,413.612,6.941,9.759
1782117453.377299,0.919000,1898759,1000,12,0,1,750.382,-14.510,25.759,411.618,4.879,9.571
1782117453.378299,0.920000,1898760,1000,12,0,1,732.823,-30.183,25.995,409.865,3.381,9.536
1782117453.379299,0.921000,1898761,1000,12,0,1,735.201,-28.475,26.264,407.919,2.150,9.540
1782117453.380299,0.922000,1898762,1000,12,0,1,742.359,-16.150,26.348,405.757,0.483,9.540
1782117453.381299,0.923000,1898763,1000,12,0,1,743.704,-13.703,26.269,403.619,-0.655,9.524
1782117453.382299,0.924000,1898764,1000,12,0,1,744.713,-10.604,26.242,404.004,-0.242,9.498
1782117453.383299,0.925000,1898765,1000,12,0,1,739.164,-13.192,26.273,408.856,4.311,9.511
1782117453.384299,0.926000,1898766,1000,12,0,1,736.426,-14.686,26.216,412.915,7.814,9.556
1782117453.385299,0.927000,1898767,1000,12,0,1,727.442,-17.751,26.205,415.101,8.395,9.596
1782117453.386299,0.928000,1898768,1000,12,0,1,717.594,-24.350,26.422,412.483,5.004,9.620
1782117453.387299,0.929000,1898769,1000,12,0,1,714.879,-21.628,26.520,412.579,2.599,9.627
1782117453.388299,0.930000,1898770,1000,12,0,1,726.289,-8.187,26.014,419.593,7.484,9.668
1782117453.389299,0.931000,1898771,1000,12,0,1,746.154,13.106,25.491,419.161,6.889,9.620
1782117453.390299,0.932000,1898772,1000,12,0,1,753.817,21.507,25.522,414.981,0.502,9.488
1782117453.391299,0.933000,1898773,1000,12,0,1,741.230,9.151,25.526,414.188,-0.981,9.315
1782117453.392299,0.934000,1898774,1000,12,0,1,739.020,3.020,25.377,412.747,-2.264,9.201
1782117453.393299,0.935000,1898775,1000,12,0,1,741.686,7.017,25.215,413.204,-2.190,9.201
1782117453.394299,0.936000,1898776,1000,12,0,1,738.948,3.662,24.748,411.042,-2.818,9.160
1782117453.395299,0.937000,1898777,1000,12,0,1,746.106,7.818,24.667,411.570,-2.805,9.166
1782117453.396299,0.938000,1898778,1000,12,0,1,752.712,14.300,24.622,412.963,0.051,9.164
1782117453.397299,0.939000,1898779,1000,12,0,1,746.298,6.827,24.558,410.177,-1.765,9.167
1782117453.398299,0.940000,1898780,1000,12,0,1,739.837,-1.217,24.557,412.147,-0.337,9.109
1782117453.399299,0.941000,1898781,1000,12,0,1,733.808,-6.168,24.529,412.075,1.391,9.028
1782117453.400299,0.942000,1898782,1000,12,0,1,737.507,-3.794,24.411,410.778,-0.485,8.968
1782117453.401299,0.943000,1898783,1000,12,0,1,751.655,9.580,24.370,410.970,0.231,8.965
1782117453.402299,0.944000,1898784,1000,12,0,1,750.358,10.081,24.354,413.564,1.971,8.954
1782117453.403299,0.945000,1898785,1000,12,0,1,738.708,-2.782,24.347,415.125,3.439,8.953
1782117453.404299,0.946000,1898786,1000,12,0,1,720.980,-16.689,24.356,406.934,-3.641,8.968
1782117453.405299,0.947000,1898787,1000,12,0,1,721.197,-17.447,24.396,405.973,-6.836,8.916
1782117453.406299,0.948000,1898788,1000,12,0,1,715.672,-14.362,23.904,418.032,4.313,8.545
1782117453.407299,0.949000,1898789,1000,12,0,1,707.721,-20.699,23.609,422.379,8.743,8.386
1782117453.408299,0.950000,1898790,1000,12,0,1,723.815,-3.903,23.540,418.512,2.986,8.284
1782117453.409299,0.951000,1898791,1000,12,0,1,723.623,3.163,20.461,415.822,-1.018,6.447
1782117453.410299,0.952000,1898792,1000,12,0,1,717.906,-4.798,15.892,413.372,-3.533,4.510
1782117453.411299,0.953000,1898793,1000,12,0,1,738.107,13.119,14.260,408.736,-7.339,4.197
1782117453.412299,0.954000,1898794,1000,12,0,1,750.262,25.862,14.099,409.504,-6.707,4.208
1782117453.413299,0.955000,1898795,1000,12,0,1,738.612,12.694,13.783,413.324,-1.627,4.211
1782117453.414299,0.956000,1898796,1000,12,0,1,718.290,-7.978,13.662,418.969,3.556,4.237
1782117453.415299,0.957000,1898797,1000,12,0,1,705.103,-20.023,13.915,420.025,5.485,4.269
1782117453.416299,0.958000,1898798,1000,12,0,1,705.079,-17.607,13.929,417.647,2.533,4.244
1782117453.417299,0.959000,1898799,1000,12,0,1,722.157,-0.391,13.903,406.286,-6.116,4.310
1782117453.418299,0.960000,1898800,1000,12,0,1,745.986,22.454,14.259,394.083,-16.768,4.873
1782117453.419299,0.961000,1898801,1000,12,0,1,740.773,19.465,14.496,402.418,-8.612,5.017
1782117453.420299,0.962000,1898802,1000,12,0,1,722.350,-1.854,14.367,405.685,-0.096,4.981
1782117453.421299,0.963000,1898803,1000,12,0,1,722.926,-2.884,14.257,399.103,-6.273,4.971
1782117453.422299,0.964000,1898804,1000,12,0,1,729.628,5.250,14.253,396.437,-7.383,5.022
1782117453.423299,0.965000,1898805,1000,12,0,1,743.320,15.579,14.420,402.995,-1.140,5.016
1782117453.424299,0.966000,1898806,1000,12,0,1,758.044,28.162,14.906,410.874,7.189,5.113
1782117453.425299,0.967000,1898807,1000,12,0,1,757.996,25.200,15.158,415.606,10.335,5.285
1782117453.426299,0.968000,1898808,1000,12,0,1,756.771,18.342,15.268,414.741,8.278,5.324
1782117453.427299,0.969000,1898809,1000,12,0,1,741.230,4.103,15.140,411.714,3.477,5.302
1782117453.428299,0.970000,1898810,1000,12,0,1,734.240,-7.761,14.568,408.399,-0.571,5.281
1782117453.429299,0.971000,1898811,1000,12,0,1,733.567,-5.607,14.023,405.973,-3.215,5.291
1782117453.430299,0.972000,1898812,1000,12,0,1,735.729,-4.934,13.853,402.466,-5.826,5.355
1782117453.431299,0.973000,1898813,1000,12,0,1,736.594,-2.545,13.721,400.449,-6.984,5.444
1782117453.432299,0.974000,1898814,1000,12,0,1,733.663,-5.472,13.661,400.569,-5.446,5.498
1782117453.433299,0.975000,1898815,1000,12,0,1,739.765,-1.545,13.535,407.295,1.224,5.467
1782117453.434299,0.976000,1898816,1000,12,0,1,745.337,4.694,13.391,407.967,4.267,5.388
1782117453.435299,0.977000,1898817,1000,12,0,1,742.887,0.709,13.154,405.781,1.575,5.261
1782117453.436299,0.978000,1898818,1000,12,0,1,730.493,-9.974,12.773,404.436,1.358,5.216
1782117453.437299,0.979000,1898819,1000,12,0,1,726.409,-15.824,12.602,402.514,0.237,5.204
1782117453.438299,0.980000,1898820,1000,12,0,1,737.675,-4.154,12.562,396.221,-3.915,5.125
1782117453.439299,0.981000,1898821,1000,12,0,1,740.461,0.656,12.425,393.146,-6.240,5.108
1782117453.440299,0.982000,1898822,1000,12,0,1,731.574,-7.645,12.096,399.368,0.339,5.108
1782117453.441299,0.983000,1898823,1000,12,0,1,725.713,-12.819,12.162,404.628,6.732,5.194
1782117453.442299,0.984000,1898824,1000,12,0,1,724.656,-11.769,12.268,409.649,9.693,5.362
1782117453.443299,0.985000,1898825,1000,12,0,1,726.289,-8.216,12.283,414.453,13.056,5.663
1782117453.444299,0.986000,1898826,1000,12,0,1,735.849,1.209,12.273,411.762,8.884,5.787
1782117453.445299,0.987000,1898827,1000,12,0,1,746.683,12.217,12.345,407.775,2.646,5.785
1782117453.446299,0.988000,1898828,1000,12,0,1,743.824,9.926,12.259,407.126,0.646,5.786
1782117453.447299,0.989000,1898829,1000,12,0,1,736.690,1.332,12.222,410.513,2.377,5.790
1782117453.448299,0.990000,1898830,1000,12,0,1,733.015,-2.008,12.224,408.544,0.858,5.791
1782117453.449299,0.991000,1898831,1000,12,0,1,732.102,-2.538,12.198,408.207,-1.505,5.792
1782117453.450299,0.992000,1898832,1000,12,0,1,730.613,-2.774,12.193,405.805,-2.526,5.803
1782117453.451299,0.993000,1898833,1000,12,0,1,728.355,-4.155,12.132,405.157,-4.116,5.832
1782117453.452299,0.994000,1898834,1000,12,0,1,726.914,-4.616,12.065,405.325,-2.536,5.836
1782117453.453299,0.995000,1898835,1000,12,0,1,728.907,-2.276,12.063,406.142,-1.609,5.820
1782117453.454299,0.996000,1898836,1000,12,0,1,731.093,0.571,11.830,410.273,2.489,5.808
1782117453.455299,0.997000,1898837,1000,12,0,1,729.988,-0.088,11.570,409.625,3.185,5.745
1782117453.456299,0.998000,1898838,1000,12,0,1,726.121,-3.459,11.401,406.766,-0.144,5.712
1782117453.457299,0.999000,1898839,1000,12,0,1,720.620,-7.695,11.072,407.727,1.022,5.579
1782117453.458299,1.000000,1898840,1000,12,0,1,715.720,-11.023,11.168,410.249,3.369,5.583
1782117453.459299,1.001000,1898841,1000,12,0,1,710.844,-13.078,11.311,411.018,4.136,5.612
1782117453.460299,1.002000,1898842,1000,12,0,1,713.726,-9.267,11.366,409.504,2.137,5.598
1782117453.461299,1.003000,1898843,1000,12,0,1,724.175,2.367,11.219,409.649,1.335,5.504
1782117453.462299,1.004000,1898844,1000,12,0,1,730.589,9.472,10.690,411.042,2.070,5.429
1782117453.463299,1.005000,1898845,1000,12,0,1,735.057,12.197,10.679,409.504,0.240,5.425
1782117453.464299,1.006000,1898846,1000,12,0,1,731.694,9.349,10.701,410.994,-0.059,5.401
1782117453.465299,1.007000,1898847,1000,12,0,1,723.743,0.576,10.320,412.315,1.104,5.348
1782117453.466299,1.008000,1898848,1000,12,0,1,718.747,-3.684,10.029,409.360,-2.347,5.346
1782117453.467299,1.009000,1898849,1000,12,0,1,716.729,-4.409,10.048,406.742,-5.429,5.331
1782117453.468299,1.010000,1898850,1000,12,0,1,720.092,-0.506,9.533,408.279,-4.222,4.812
1782117453.469299,1.011000,1898851,1000,12,0,1,724.007,4.612,9.150,409.384,-2.547,4.669
1782117453.470299,1.012000,1898852,1000,12,0,1,721.053,2.760,9.155,410.009,-2.064,4.678
1782117453.471299,1.013000,1898853,1000,12,0,1,715.191,-2.426,9.152,409.889,-1.700,4.599
1782117453.472299,1.014000,1898854,1000,12,0,1,704.262,-10.296,9.237,410.153,-1.358,4.483
1782117453.473299,1.015000,1898855,1000,12,0,1,696.864,-15.885,9.248,413.372,1.604,4.486
1782117453.474299,1.016000,1898856,1000,12,0,1,709.691,-3.279,8.359,413.588,2.702,4.386
1782117453.475299,1.017000,1898857,1000,12,0,1,717.401,8.152,7.649,410.946,-0.012,4.136
1782117453.476299,1.018000,1898858,1000,12,0,1,708.225,-0.286,7.196,406.886,-2.957,3.988
1782117453.477299,1.019000,1898859,1000,12,0,1,711.276,0.083,7.172,405.421,-4.107,4.000
1782117453.478299,1.020000,1898860,1000,12,0,1,711.564,3.522,7.105,408.760,-0.269,4.000
1782117453.479299,1.021000,1898861,1000,12,0,1,706.472,-2.511,7.070,410.321,2.161,3.986
1782117453.480299,1.022000,1898862,1000,12,0,1,706.064,-2.197,7.042,414.261,4.622,3.954
1782117453.481299,1.023000,1898863,1000,12,0,1,712.885,3.778,7.053,413.756,4.847,3.889
1782117453.482299,1.024000,1898864,1000,12,0,1,715.023,7.151,7.083,407.463,-2.050,3.823
1782117453.483299,1.025000,1898865,1000,12,0,1,705.343,-1.317,7.082,406.646,-3.815,3.857
1782117453.484299,1.026000,1898866,1000,12,0,1,702.485,-5.224,7.090,409.384,-0.895,3.812
1782117453.485299,1.027000,1898867,1000,12,0,1,699.962,-4.050,7.112,410.946,0.255,3.806
1782117453.486299,1.028000,1898868,1000,12,0,1,697.945,-5.505,7.014,412.147,0.811,3.802
1782117453.487299,1.029000,1898869,1000,12,0,1,696.551,-3.715,6.668,408.640,-2.226,3.815
1782117453.488299,1.030000,1898870,1000,12,0,1,686.583,-9.821,6.786,406.478,-5.126,3.844
1782117453.489299,1.031000,1898871,1000,12,0,1,682.259,-12.439,7.010,408.015,-3.165,3.768
1782117453.490299,1.032000,1898872,1000,12,0,1,690.018,-2.296,6.933,404.772,-4.735,3.827
1782117453.491299,1.033000,1898873,1000,12,0,1,693.309,4.076,6.717,401.770,-7.374,3.850
1782117453.492299,1.034000,1898874,1000,12,0,1,691.291,2.881,6.520,400.593,-6.554,3.715
1782117453.493299,1.035000,1898875,1000,12,0,1,699.986,9.602,6.558,404.508,-2.424,3.242
1782117453.494299,1.036000,1898876,1000,12,0,1,715.840,23.547,7.353,408.496,3.121,3.021
1782117453.495299,1.037000,1898877,1000,12,0,1,715.912,22.755,7.838,410.826,5.151,3.085
1782117453.496299,1.038000,1898878,1000,12,0,1,707.577,10.698,7.859,404.940,1.171,3.089
1782117453.497299,1.039000,1898879,1000,12,0,1,709.186,8.725,7.953,402.923,-2.110,3.085
1782117453.498299,1.040000,1898880,1000,12,0,1,706.544,6.460,8.000,400.761,-1.764,3.092
1782117453.499299,1.041000,1898881,1000,12,0,1,700.251,-1.519,7.995,398.695,-3.677,3.129
1782117453.500299,1.042000,1898882,1000,12,0,1,695.735,-5.320,8.020,397.038,-3.593,3.149
1782117453.501299,1.043000,1898883,1000,12,0,1,697.392,-4.123,8.020,397.326,-2.807,3.120
1782117453.502299,1.044000,1898884,1000,12,0,1,707.313,5.206,8.027,405.973,4.660,3.169
1782117453.503299,1.045000,1898885,1000,12,0,1,714.495,12.168,8.203,411.282,10.543,3.495
1782117453.504299,1.046000,1898886,1000,12,0,1,718.434,13.573,8.425,408.399,6.151,3.584
1782117453.505299,1.047000,1898887,1000,12,0,1,712.501,7.917,8.499,406.886,3.104,3.583
1782117453.506299,1.048000,1898888,1000,12,0,1,705.944,-0.810,8.485,406.886,2.251,3.597
1782117453.507299,1.049000,1898889,1000,12,0,1,702.965,-2.953,8.426,405.301,0.395,3.594
1782117453.508299,1.050000,1898890,1000,12,0,1,705.223,-1.407,8.283,405.565,-0.274,3.563
1782117453.509299,1.051000,1898891,1000,12,0,1,709.979,3.561,8.089,410.946,4.015,3.560
1782117453.510299,1.052000,1898892,1000,12,0,1,711.829,4.970,8.013,409.504,3.542,3.582
1782117453.511299,1.053000,1898893,1000,12,0,1,710.195,2.606,8.015,407.991,0.297,3.578
1782117453.512299,1.054000,1898894,1000,12,0,1,708.394,0.011,7.902,407.343,0.488,3.566
1782117453.513299,1.055000,1898895,1000,12,0,1,707.000,-1.893,7.716,408.496,0.867,3.568
1782117453.514299,1.056000,1898896,1000,12,0,1,707.048,-2.339,7.609,405.805,-0.218,3.568
1782117453.515299,1.057000,1898897,1000,12,0,1,706.352,-3.082,7.621,405.421,-1.427,3.571
1782117453.516299,1.058000,1898898,1000,12,0,1,705.127,-4.460,7.629,406.190,0.537,3.556
1782117453.517299,1.059000,1898899,1000,12,0,1,702.941,-6.250,7.655,405.541,0.125,3.472
1782117453.518299,1.060000,1898900,1000,12,0,1,705.847,-4.190,7.678,403.836,-1.034,3.424
1782117453.519299,1.061000,1898901,1000,12,0,1,709.451,-0.108,7.650,404.460,-0.506,3.405
1782117453.520299,1.062000,1898902,1000,12,0,1,707.289,-1.901,7.645,408.303,2.806,3.416
1782117453.521299,1.063000,1898903,1000,12,0,1,705.799,-3.942,7.657,411.738,5.777,3.504
1782117453.522299,1.064000,1898904,1000,12,0,1,702.893,-5.283,7.555,407.871,1.884,3.509
1782117453.523299,1.065000,1898905,1000,12,0,1,701.740,-6.317,7.268,405.661,-1.911,3.512
1782117453.524299,1.066000,1898906,1000,12,0,1,698.377,-6.956,7.320,406.238,-1.389,3.497
1782117453.525299,1.067000,1898907,1000,12,0,1,703.878,-2.689,7.238,406.574,-1.426,3.503
1782117453.526299,1.068000,1898908,1000,12,0,1,706.784,3.199,7.252,409.048,0.095,3.478
1782117453.527299,1.069000,1898909,1000,12,0,1,704.430,0.452,7.252,409.889,1.011,3.432
1782117453.528299,1.070000,1898910,1000,12,0,1,702.220,-0.853,7.236,408.255,-1.211,3.436
1782117453.529299,1.071000,1898911,1000,12,0,1,693.789,-6.767,7.291,407.535,-2.090,3.435
1782117453.530299,1.072000,1898912,1000,12,0,1,691.723,-9.074,7.396,399.728,-7.671,3.542
1782117453.531299,1.073000,1898913,1000,12,0,1,695.350,-2.953,7.389,394.491,-12.561,3.903
1782117453.532299,1.074000,1898914,1000,12,0,1,698.329,0.398,7.319,399.103,-6.522,4.000
1782117453.533299,1.075000,1898915,1000,12,0,1,699.986,2.724,7.327,400.617,-2.280,3.977
1782117453.534299,1.076000,1898916,1000,12,0,1,705.583,6.507,7.348,403.379,0.129,3.975
1782117453.535299,1.077000,1898917,1000,12,0,1,709.523,10.061,7.462,402.274,1.384,3.979
1782117453.536299,1.078000,1898918,1000,12,0,1,709.042,7.754,7.502,403.019,0.979,3.980
1782117453.537299,1.079000,1898919,1000,12,0,1,706.928,4.316,7.509,404.965,4.035,4.008
1782117453.538299,1.080000,1898920,1000,12,0,1,706.304,2.302,7.386,406.142,4.491,3.993
1782117453.539299,1.081000,1898921,1000,12,0,1,706.520,1.785,7.178,404.604,3.299,3.995
1782117453.540299,1.082000,1898922,1000,12,0,1,703.493,-0.926,7.172,408.135,4.776,3.996
1782117453.541299,1.083000,1898923,1000,12,0,1,703.493,-1.975,7.154,408.135,5.474,3.935
1782117453.542299,1.084000,1898924,1000,12,0,1,706.808,1.649,7.146,408.135,3.288,3.852
1782117453.543299,1.085000,1898925,1000,12,0,1,707.072,2.138,7.023,406.982,2.206,3.849
1782117453.544299,1.086000,1898926,1000,12,0,1,705.439,0.523,6.183,406.382,0.289,3.824
1782117453.545299,1.087000,1898927,1000,12,0,1,705.175,0.232,5.280,408.087,1.259,3.758
1782117453.546299,1.088000,1898928,1000,12,0,1,704.070,-0.123,5.059,409.769,2.394,3.770
1782117453.547299,1.089000,1898929,1000,12,0,1,700.347,-2.904,4.923,407.967,0.283,3.758
1782117453.548299,1.090000,1898930,1000,12,0,1,696.431,-5.754,4.905,406.982,-1.328,3.755
1782117453.549299,1.091000,1898931,1000,12,0,1,692.708,-7.668,5.019,408.279,-0.379,3.719
1782117453.550299,1.092000,1898932,1000,12,0,1,689.345,-9.154,5.129,408.472,0.193,3.684
1782117453.551299,1.093000,1898933,1000,12,0,1,683.604,-11.868,5.365,408.375,-0.295,3.663
1782117453.552299,1.094000,1898934,1000,12,0,1,686.175,-8.974,5.463,407.583,-0.495,3.604
1782117453.553299,1.095000,1898935,1000,12,0,1,700.034,4.977,5.233,402.130,-4.714,3.348
1782117453.554299,1.096000,1898936,1000,12,0,1,707.841,13.054,5.206,400.256,-6.422,3.358
1782117453.555299,1.097000,1898937,1000,12,0,1,703.397,7.557,5.196,404.460,-1.453,3.336
1782117453.556299,1.098000,1898938,1000,12,0,1,698.617,0.929,5.196,405.085,0.635,3.322
1782117453.557299,1.099000,1898939,1000,12,0,1,695.326,-2.337,5.190,402.538,-1.679,3.330
1782117453.558299,1.100000,1898940,1000,12,0,1,695.687,-2.646,5.200,402.827,-1.321,3.335
1782117453.559299,1.101000,1898941,1000,12,0,1,696.551,-1.022,5.177,403.163,-0.341,3.287
1782117453.560299,1.102000,1898942,1000,12,0,1,690.546,-5.327,5.184,402.707,-0.756,3.250
1782117453.561299,1.103000,1898943,1000,12,0,1,676.758,-16.026,5.646,401.409,-1.650,3.258
1782117453.562299,1.104000,1898944,1000,12,0,1,679.905,-13.254,5.949,398.023,-4.332,3.314
1782117453.563299,1.105000,1898945,1000,12,0,1,696.479,5.396,5.992,399.464,-3.456,3.348
1782117453.564299,1.106000,1898946,1000,12,0,1,703.806,13.860,6.296,404.580,1.855,3.358
1782117453.565299,1.107000,1898947,1000,12,0,1,704.142,12.620,6.529,405.061,2.598,3.372
1782117453.566299,1.108000,1898948,1000,12,0,1,697.320,6.451,6.562,403.139,0.092,3.371
1782117453.567299,1.109000,1898949,1000,12,0,1,694.414,1.563,6.506,405.445,1.448,3.377
1782117453.568299,1.110000,1898950,1000,12,0,1,690.786,0.134,6.479,407.943,3.910,3.419
1782117453.569299,1.111000,1898951,1000,12,0,1,685.910,-4.601,6.512,410.105,4.951,3.489
1782117453.570299,1.112000,1898952,1000,12,0,1,692.372,1.083,6.508,406.238,1.911,3.477
1782117453.571299,1.113000,1898953,1000,12,0,1,705.655,13.421,6.756,403.163,-2.164,3.394
1782117453.572299,1.114000,1898954,1000,12,0,1,704.478,12.644,6.949,403.499,-1.071,3.387
1782117453.573299,1.115000,1898955,1000,12,0,1,691.051,-1.718,6.895,400.184,-2.897,3.401
1782117453.574299,1.116000,1898956,1000,12,0,1,677.143,-14.697,7.134,399.680,-3.480,3.431
1782117453.575299,1.117000,1898957,1000,12,0,1,678.056,-13.962,7.393,400.473,-1.025,3.428
1782117453.576299,1.118000,1898958,1000,12,0,1,695.014,2.712,7.389,407.535,4.464,3.485
1782117453.577299,1.119000,1898959,1000,12,0,1,702.340,11.539,7.567,405.397,4.981,3.553
1782117453.578299,1.120000,1898960,1000,12,0,1,702.437,8.553,7.662,405.565,1.926,3.559
1782117453.579299,1.121000,1898961,1000,12,0,1,701.163,6.422,7.656,410.225,6.855,3.677
1782117453.580299,1.122000,1898962,1000,12,0,1,698.377,2.140,7.554,414.693,9.074,3.740
1782117453.581299,1.123000,1898963,1000,12,0,1,690.258,-4.735,7.572,413.924,7.548,3.460
1782117453.582299,1.124000,1898964,1000,12,0,1,678.608,-14.699,7.852,405.541,-1.301,3.340
1782117453.583299,1.125000,1898965,1000,12,0,1,680.938,-12.229,8.031,404.004,-5.046,3.400
1782117453.584299,1.126000,1898966,1000,12,0,1,695.350,3.438,7.993,410.657,1.410,3.406
1782117453.585299,1.127000,1898967,1000,12,0,1,700.443,10.009,7.991,415.413,5.147,3.478
1782117453.586299,1.128000,1898968,1000,12,0,1,700.395,8.299,8.002,413.612,3.031,3.501
1782117453.587299,1.129000,1898969,1000,12,0,1,696.792,4.984,8.010,408.688,-2.819,3.477
1782117453.588299,1.130000,1898970,1000,12,0,1,691.363,-0.848,8.004,405.853,-5.592,3.509
1782117453.589299,1.131000,1898971,1000,12,0,1,689.898,-2.300,8.007,404.340,-6.354,3.592
1782117453.590299,1.132000,1898972,1000,12,0,1,687.928,-2.914,8.016,405.181,-4.974,3.598
1782117453.591299,1.133000,1898973,1000,12,0,1,688.408,-2.751,8.021,407.847,-1.647,3.521
1782117453.592299,1.134000,1898974,1000,12,0,1,688.216,-1.548,8.021,410.057,0.913,3.493
1782117453.593299,1.135000,1898975,1000,12,0,1,685.094,-4.250,8.037,406.646,-1.238,3.483
1782117453.594299,1.136000,1898976,1000,12,0,1,689.177,-1.168,8.039,409.144,-0.336,3.483
1782117453.595299,1.137000,1898977,1000,12,0,1,699.626,8.245,8.123,412.219,3.931,3.523
1782117453.596299,1.138000,1898978,1000,12,0,1,703.517,11.340,8.280,410.705,1.931,3.517
1782117453.597299,1.139000,1898979,1000,12,0,1,696.984,3.798,8.287,411.450,1.753,3.525
1782117453.598299,1.140000,1898980,1000,12,0,1,677.527,-13.493,8.465,416.663,5.719,3.612
1782117453.599299,1.141000,1898981,1000,12,0,1,651.633,-35.093,9.752,424.806,11.525,3.962
1782117453.600299,1.142000,1898982,1000,12,0,1,633.954,-46.281,11.673,425.983,11.617,4.289
1782117453.601299,1.143000,1898983,1000,12,0,1,640.823,-34.178,12.522,423.076,5.699,4.364
1782117453.602299,1.144000,1898984,1000,12,0,1,676.278,3.055,12.465,416.422,-1.233,4.367
1782117453.603299,1.145000,1898985,1000,12,0,1,700.587,30.576,13.175,411.642,-7.356,4.440
1782117453.604299,1.146000,1898986,1000,12,0,1,710.507,35.100,13.958,406.742,-10.536,4.594
1782117453.605299,1.147000,1898987,1000,12,0,1,704.694,27.695,14.458,403.643,-12.959,4.942
1782117453.606299,1.148000,1898988,1000,12,0,1,689.273,8.783,14.510,406.766,-8.800,5.095
1782117453.607299,1.149000,1898989,1000,12,0,1,676.975,-3.985,14.517,410.249,-3.788,5.118
1782117453.608299,1.150000,1898990,1000,12,0,1,670.153,-9.594,14.576,411.450,-2.108,5.123
1782117453.609299,1.151000,1898991,1000,12,0,1,665.805,-11.466,14.665,411.690,-1.291,5.126
1782117453.610299,1.152000,1898992,1000,12,0,1,668.976,-6.902,14.678,415.894,1.912,5.132
1782117453.611299,1.153000,1898993,1000,12,0,1,661.121,-9.228,14.561,421.515,7.214,5.227
1782117453.612299,1.154000,1898994,1000,12,0,1,644.907,-21.893,14.768,421.947,6.948,5.284
1782117453.613299,1.155000,1898995,1000,12,0,1,630.879,-29.887,15.342,416.783,1.440,5.265
1782117453.614299,1.156000,1898996,1000,12,0,1,619.109,-33.975,15.957,411.594,-4.066,5.290
1782117453.615299,1.157000,1898997,1000,12,0,1,635.611,-16.333,16.024,411.114,-4.472,5.315
1782117453.616299,1.158000,1898998,1000,12,0,1,679.233,27.367,16.459,417.311,1.163,5.317
1782117453.617299,1.159000,1898999,1000,12,0,1,692.300,42.353,17.514,419.545,4.202,5.346
1782117453.618299,1.160000,1899000,1000,12,0,1,712.885,48.327,18.800,416.134,0.276,5.318
1782117453.619299,1.161000,1899001,1000,12,0,1,729.412,60.329,20.635,414.092,-2.210,5.281
1782117453.620299,1.162000,1899002,1000,12,0,1,725.496,45.498,21.615,416.903,-0.035,5.274
1782117453.621299,1.163000,1899003,1000,12,0,1,714.087,26.774,21.862,423.388,5.362,5.319
1782117453.622299,1.164000,1899004,1000,12,0,1,703.349,10.336,21.837,424.902,6.622,5.399
1782117453.623299,1.165000,1899005,1000,12,0,1,687.255,-6.524,21.855,425.382,4.750,5.425
1782117453.624299,1.166000,1899006,1000,12,0,1,677.455,-17.020,21.889,429.345,6.902,5.490
1782117453.625299,1.167000,1899007,1000,12,0,1,686.343,-8.886,21.836,427.112,4.313,5.522
1782117453.626299,1.168000,1899008,1000,12,0,1,707.601,11.635,21.895,425.790,0.575,5.487
1782117453.627299,1.169000,1899009,1000,12,0,1,708.346,13.817,21.921,423.508,-1.188,5.444
1782117453.628299,1.170000,1899010,1000,12,0,1,694.077,-2.013,21.889,423.941,-2.362,5.447
1782117453.629299,1.171000,1899011,1000,12,0,1,682.235,-13.553,21.954,420.434,-4.040,5.391
1782117453.630299,1.172000,1899012,1000,12,0,1,687.087,-9.631,21.995,417.263,-7.759,5.349
1782117453.631299,1.173000,1899013,1000,12,0,1,703.421,5.999,22.001,415.029,-8.098,5.365
1782117453.632299,1.174000,1899014,1000,12,0,1,710.748,12.812,21.977,410.898,-10.520,5.565
1782117453.633299,1.175000,1899015,1000,12,0,1,714.327,11.415,21.968,415.630,-6.127,5.586
1782117453.634299,1.176000,1899016,1000,12,0,1,709.018,5.147,21.975,419.713,0.322,5.583
1782117453.635299,1.177000,1899017,1000,12,0,1,702.509,-5.514,21.943,416.999,-2.150,5.544
1782117453.636299,1.178000,1899018,1000,12,0,1,693.717,-13.331,21.993,413.300,-4.993,5.572
1782117453.637299,1.179000,1899019,1000,12,0,1,689.778,-18.793,22.142,412.339,-5.567,5.613
1782117453.638299,1.180000,1899020,1000,12,0,1,694.197,-13.662,22.225,419.377,0.812,5.559
1782117453.639299,1.181000,1899021,1000,12,0,1,702.581,-5.752,22.238,421.227,4.105,5.516
1782117453.640299,1.182000,1899022,1000,12,0,1,706.904,-1.368,22.235,419.425,0.959,5.473
1782117453.641299,1.183000,1899023,1000,12,0,1,701.524,-6.058,22.248,419.593,0.900,5.469
1782117453.642299,1.184000,1899024,1000,12,0,1,691.147,-15.486,22.355,421.034,1.665,5.473
1782117453.643299,1.185000,1899025,1000,12,0,1,684.301,-19.915,22.523,421.947,2.282,5.479
1782117453.644299,1.186000,1899026,1000,12,0,1,669.672,-27.905,22.866,419.377,-0.057,5.479
1782117453.645299,1.187000,1899027,1000,12,0,1,662.634,-31.344,23.262,413.108,-5.591,5.508
1782117453.646299,1.188000,1899028,1000,12,0,1,679.449,-11.630,23.265,414.309,-4.938,5.545
1782117453.647299,1.189000,1899029,1000,12,0,1,685.934,1.814,23.260,416.999,-0.541,5.540
1782117453.648299,1.190000,1899030,1000,12,0,1,677.359,-4.986,23.193,417.143,-0.113,5.481
1782117453.649299,1.191000,1899031,1000,12,0,1,677.335,-4.022,22.663,420.434,2.701,5.247
1782117453.650299,1.192000,1899032,1000,12,0,1,683.820,3.993,21.704,428.361,9.464,5.160
1782117453.651299,1.193000,1899033,1000,12,0,1,679.977,2.841,21.163,430.162,11.022,5.330
1782117453.652299,1.194000,1899034,1000,12,0,1,680.434,1.442,21.160,426.439,5.802,5.390
1782117453.653299,1.195000,1899035,1000,12,0,1,691.723,11.724,20.779,424.061,2.224,5.298
1782117453.654299,1.196000,1899036,1000,12,0,1,690.306,11.358,20.241,419.305,-1.873,5.091
1782117453.655299,1.197000,1899037,1000,12,0,1,676.230,-3.362,19.865,414.501,-6.675,4.842
1782117453.656299,1.198000,1899038,1000,12,0,1,668.399,-11.296,19.890,419.137,-2.655,4.694
1782117453.657299,1.199000,1899039,1000,12,0,1,667.558,-10.381,19.936,419.449,-0.274,4.664
1782117453.658299,1.200000,1899040,1000,12,0,1,660.040,-13.705,19.984,412.747,-6.534,4.745
1782117453.659299,1.201000,1899041,1000,12,0,1,660.040,-13.274,20.007,412.747,-6.808,4.839
1782117453.660299,1.202000,1899042,1000,12,0,1,660.040,-8.170,20.016,412.747,-4.679,4.876
1782117453.661299,1.203000,1899043,1000,12,0,1,683.412,10.194,20.025,397.590,-15.756,5.263
1782117453.662299,1.204000,1899044,1000,12,0,1,704.310,33.298,20.337,412.507,-6.268,5.246
1782117453.663299,1.205000,1899045,1000,12,0,1,705.055,29.716,20.332,419.401,8.075,5.365
1782117453.664299,1.206000,1899046,1000,12,0,1,697.152,18.933,19.937,416.711,1.244,5.337
1782117453.665299,1.207000,1899047,1000,12,0,1,691.267,10.236,19.856,415.365,1.658,5.305
1782117453.666299,1.208000,1899048,1000,12,0,1,692.228,8.976,19.516,422.091,5.322,5.355
1782117453.667299,1.209000,1899049,1000,12,0,1,695.831,11.774,18.649,418.896,4.802,5.365
1782117453.668299,1.210000,1899050,1000,12,0,1,694.774,9.529,17.403,414.309,-1.824,5.371
1782117453.669299,1.211000,1899051,1000,12,0,1,691.051,5.097,15.186,412.651,-2.392,5.373
1782117453.670299,1.212000,1899052,1000,12,0,1,686.727,0.111,13.755,429.778,10.656,5.580
1782117453.671299,1.213000,1899053,1000,12,0,1,683.412,-2.930,13.230,420.530,7.642,5.633
1782117453.672299,1.214000,1899054,1000,12,0,1,671.570,-11.983,13.258,413.420,-5.298,5.605
1782117453.673299,1.215000,1899055,1000,12,0,1,664.172,-18.809,13.491,430.763,10.807,5.771
1782117453.674299,1.216000,1899056,1000,12,0,1,676.350,-6.907,13.310,421.395,6.683,5.766
1782117453.675299,1.217000,1899057,1000,12,0,1,683.676,3.265,13.259,412.627,-7.636,5.834
1782117453.676299,1.218000,1899058,1000,12,0,1,687.207,3.931,13.168,417.119,-0.401,5.834
1782117453.677299,1.219000,1899059,1000,12,0,1,687.063,3.940,13.034,417.647,-0.335,5.832
1782117453.678299,1.220000,1899060,1000,12,0,1,691.099,4.054,13.044,408.664,-6.404,5.892
1782117453.679299,1.221000,1899061,1000,12,0,1,689.537,3.256,12.910,408.736,-8.341,5.982
1782117453.680299,1.222000,1899062,1000,12,0,1,694.245,3.242,12.846,410.850,-3.060,5.896
1782117453.681299,1.223000,1899063,1000,12,0,1,703.133,11.042,12.913,408.544,-5.022,5.827
1782117453.682299,1.224000,1899064,1000,12,0,1,694.318,2.918,12.792,411.018,-2.675,5.647
1782117453.683299,1.225000,1899065,1000,12,0,1,679.641,-12.697,12.816,412.339,-0.002,5.580
1782117453.684299,1.226000,1899066,1000,12,0,1,670.561,-18.912,13.072,412.987,-0.220,5.580
1782117453.685299,1.227000,1899067,1000,12,0,1,664.220,-21.533,13.399,416.855,3.387,5.592
1782117453.686299,1.228000,1899068,1000,12,0,1,655.356,-24.037,13.695,418.104,4.263,5.580
1782117453.687299,1.229000,1899069,1000,12,0,1,656.341,-20.057,13.731,412.459,-0.693,5.525
1782117453.688299,1.230000,1899070,1000,12,0,1,663.619,-7.480,13.635,405.517,-7.418,5.623
1782117453.689299,1.231000,1899071,1000,12,0,1,680.890,9.040,13.671,404.580,-7.444,5.691
1782117453.690299,1.232000,1899072,1000,12,0,1,689.609,20.102,13.962,408.808,-2.267,5.698
1782117453.691299,1.233000,1899073,1000,12,0,1,680.746,10.441,14.013,409.528,0.288,5.697
1782117453.692299,1.234000,1899074,1000,12,0,1,670.609,-0.733,13.842,405.589,-2.575,5.704
1782117453.693299,1.235000,1899075,1000,12,0,1,672.819,0.141,13.552,406.574,-1.553,5.699
1782117453.694299,1.236000,1899076,1000,12,0,1,676.086,4.061,12.977,407.679,1.283,5.702
1782117453.695299,1.237000,1899077,1000,12,0,1,684.181,9.112,12.265,405.853,0.077,5.647
1782117453.696299,1.238000,1899078,1000,12,0,1,693.261,16.136,12.366,404.532,-0.516,5.604
1782117453.697299,1.239000,1899079,1000,12,0,1,692.612,13.336,12.507,406.574,1.564,5.608
1782117453.698299,1.240000,1899080,1000,12,0,1,686.295,4.236,12.501,407.775,3.466,5.629
1782117453.699299,1.241000,1899081,1000,12,0,1,679.689,-3.160,12.496,408.015,3.308,5.635
1782117453.700299,1.242000,1899082,1000,12,0,1,676.758,-6.816,12.521,410.537,4.998,5.520
1782117453.701299,1.243000,1899083,1000,12,0,1,675.245,-6.860,12.552,411.138,5.437,5.350
1782117453.702299,1.244000,1899084,1000,12,0,1,680.986,-2.064,12.554,408.880,2.445,5.298
1782117453.703299,1.245000,1899085,1000,12,0,1,680.193,0.350,12.444,408.664,1.354,5.293
1782117453.704299,1.246000,1899086,1000,12,0,1,672.771,-6.515,12.374,411.594,3.398,5.308
1782117453.705299,1.247000,1899087,1000,12,0,1,677.863,-1.902,12.368,410.369,2.531,5.235
1782117453.706299,1.248000,1899088,1000,12,0,1,685.814,7.690,12.312,408.808,-0.145,5.222
1782117453.707299,1.249000,1899089,1000,12,0,1,691.219,11.717,12.336,410.201,1.036,5.224
1782117453.708299,1.250000,1899090,1000,12,0,1,692.396,12.447,12.309,405.709,-2.080,5.150
1782117453.709299,1.251000,1899091,1000,12,0,1,678.656,0.006,12.165,407.126,-2.301,5.069
1782117453.710299,1.252000,1899092,1000,12,0,1,660.833,-16.854,12.343,407.078,0.057,5.026
1782117453.711299,1.253000,1899093,1000,12,0,1,639.094,-32.289,13.081,400.377,-5.825,4.580
1782117453.712299,1.254000,1899094,1000,12,0,1,639.190,-31.096,12.972,396.389,-8.570,4.654
1782117453.713299,1.255000,1899095,1000,12,0,1,656.797,-8.582,12.333,403.739,-1.362,4.516
1782117453.714299,1.256000,1899096,1000,12,0,1,664.844,2.351,12.043,410.970,7.192,4.625
1782117453.715299,1.257000,1899097,1000,12,0,1,664.748,2.206,11.960,409.817,6.099,4.699
1782117453.716299,1.258000,1899098,1000,12,0,1,661.625,-0.350,11.892,403.355,-0.258,4.639
1782117453.717299,1.259000,1899099,1000,12,0,1,666.189,1.930,11.778,400.953,-3.058,4.609
1782117453.718299,1.260000,1899100,1000,12,0,1,668.351,5.497,11.727,403.187,-0.531,4.603
1782117453.719299,1.261000,1899101,1000,12,0,1,673.708,7.378,11.751,405.181,1.800,4.597
1782117453.720299,1.262000,1899102,1000,12,0,1,681.178,14.069,11.918,408.375,3.928,4.379
1782117453.721299,1.263000,1899103,1000,12,0,1,687.063,16.705,12.143,414.573,8.675,4.417
1782117453.722299,1.264000,1899104,1000,12,0,1,685.670,14.214,12.191,414.525,8.106,4.501
1782117453.723299,1.265000,1899105,1000,12,0,1,700.947,21.906,12.294,413.180,4.420,4.280
1782117453.724299,1.266000,1899106,1000,12,0,1,696.335,20.735,12.601,414.525,4.439,4.221
1782117453.725299,1.267000,1899107,1000,12,0,1,689.129,6.570,12.627,418.608,6.532,4.184
1782117453.726299,1.268000,1899108,1000,12,0,1,679.329,0.179,12.615,417.551,5.188,4.247
1782117453.727299,1.269000,1899109,1000,12,0,1,680.458,-2.374,12.607,414.068,0.249,4.247
1782117453.728299,1.270000,1899110,1000,12,0,1,678.872,0.240,12.594,410.970,-2.797,4.168
1782117453.729299,1.271000,1899111,1000,12,0,1,675.726,-3.749,12.597,412.027,-2.381,4.012
1782117453.730299,1.272000,1899112,1000,12,0,1,673.828,-4.040,12.601,410.705,-2.301,4.002
1782117453.731299,1.273000,1899113,1000,12,0,1,669.408,-6.668,12.540,404.965,-7.014,4.061
1782117453.732299,1.274000,1899114,1000,12,0,1,660.352,-13.858,12.685,397.206,-12.599,4.419
1782117453.733299,1.275000,1899115,1000,12,0,1,660.881,-12.746,12.686,399.632,-9.845,4.633
1782117453.734299,1.276000,1899116,1000,12,0,1,683.364,6.355,12.434,411.426,2.647,4.648
1782117453.735299,1.277000,1899117,1000,12,0,1,702.917,25.280,12.574,421.659,12.388,4.944
1782117453.736299,1.278000,1899118,1000,12,0,1,693.141,13.341,12.252,416.951,8.068,5.038
1782117453.737299,1.279000,1899119,1000,12,0,1,667.342,-13.654,12.074,409.937,-1.168,5.040
1782117453.738299,1.280000,1899120,1000,12,0,1,663.403,-21.173,12.395,413.708,0.933,4.931
1782117453.739299,1.281000,1899121,1000,12,0,1,675.966,-6.875,12.367,414.333,2.461,4.830
1782117453.740299,1.282000,1899122,1000,12,0,1,685.430,2.240,12.040,412.819,-0.769,4.821
1782117453.741299,1.283000,1899123,1000,12,0,1,694.774,9.309,12.022,414.669,0.532,4.821
1782117453.742299,1.284000,1899124,1000,12,0,1,690.546,6.119,12.052,417.984,2.613,4.821
1782117453.743299,1.285000,1899125,1000,12,0,1,682.740,-3.823,12.064,418.896,3.041,4.836
1782117453.744299,1.286000,1899126,1000,12,0,1,678.632,-6.272,12.083,417.695,0.814,4.834
1782117453.745299,1.287000,1899127,1000,12,0,1,679.160,-5.205,12.037,417.695,-0.022,4.834
1782117453.746299,1.288000,1899128,1000,12,0,1,677.959,-3.398,11.828,415.317,-1.921,4.841
1782117453.747299,1.289000,1899129,1000,12,0,1,675.053,-4.730,11.696,409.408,-7.075,4.938
1782117453.748299,1.290000,1899130,1000,12,0,1,665.877,-9.713,11.761,404.844,-10.397,5.129
1782117453.749299,1.291000,1899131,1000,12,0,1,657.782,-15.237,11.949,403.451,-9.992,5.299
1782117453.750299,1.292000,1899132,1000,12,0,1,661.145,-9.628,11.987,402.586,-8.515,5.388
1782117453.751299,1.293000,1899133,1000,12,0,1,663.163,-3.584,11.959,408.303,-2.637,5.346
1782117453.752299,1.294000,1899134,1000,12,0,1,657.638,-6.981,11.996,413.516,4.176,5.368
1782117453.753299,1.295000,1899135,1000,12,0,1,661.649,-3.529,12.006,412.243,3.087,5.382
1782117453.754299,1.296000,1899136,1000,12,0,1,677.887,11.213,12.075,410.297,0.789,5.362
1782117453.755299,1.297000,1899137,1000,12,0,1,681.947,15.491,12.269,406.742,-1.913,5.356
1782117453.756299,1.298000,1899138,1000,12,0,1,679.737,8.860,12.285,407.511,-2.031,5.364
1782117453.757299,1.299000,1899139,1000,12,0,1,674.404,2.686,12.179,411.426,2.249,5.372
1782117453.758299,1.300000,1899140,1000,12,0,1,663.787,-8.560,12.112,411.906,2.577,5.376
1782117453.759299,1.301000,1899141,1000,12,0,1,659.199,-13.380,12.259,414.669,3.700,5.391
1782117453.760299,1.302000,1899142,1000,12,0,1,657.542,-12.502,12.154,414.333,3.629,5.416
1782117453.761299,1.303000,1899143,1000,12,0,1,651.248,-15.542,11.476,417.239,3.870,5.381
1782117453.762299,1.304000,1899144,1000,12,0,1,654.948,-10.902,10.712,418.464,5.358,5.297
1782117453.763299,1.305000,1899145,1000,12,0,1,669.048,4.802,10.664,413.108,-0.546,5.294
1782117453.764299,1.306000,1899146,1000,12,0,1,671.882,10.466,10.761,410.922,-3.534,5.219
1782117453.765299,1.307000,1899147,1000,12,0,1,669.480,7.271,10.806,410.729,-2.787,5.163
1782117453.766299,1.308000,1899148,1000,12,0,1,661.409,2.153,10.810,410.273,-2.907,5.179
1782117453.767299,1.309000,1899149,1000,12,0,1,651.369,-6.362,10.844,408.327,-3.449,5.184
1782117453.768299,1.310000,1899150,1000,12,0,1,640.463,-12.496,10.959,408.135,-3.377,5.205
1782117453.769299,1.311000,1899151,1000,12,0,1,638.013,-12.521,11.052,410.321,-0.268,5.199
1782117453.770299,1.312000,1899152,1000,12,0,1,651.705,2.573,10.878,413.900,3.202,5.189
1782117453.771299,1.313000,1899153,1000,12,0,1,660.376,13.888,10.798,411.186,1.891,5.049
1782117453.772299,1.314000,1899154,1000,12,0,1,659.560,11.759,10.739,403.019,-5.577,4.980
1782117453.773299,1.315000,1899155,1000,12,0,1,672.771,19.711,10.654,404.892,-4.521,4.982
1782117453.774299,1.316000,1899156,1000,12,0,1,678.007,24.302,10.804,413.372,4.531,4.984
1782117453.775299,1.317000,1899157,1000,12,0,1,676.638,16.736,11.021,415.582,6.764,4.990
1782117453.776299,1.318000,1899158,1000,12,0,1,661.577,2.215,11.025,414.741,4.523,4.977
1782117453.777299,1.319000,1899159,1000,12,0,1,643.706,-17.614,11.298,413.876,2.791,4.992
1782117453.778299,1.320000,1899160,1000,12,0,1,632.729,-25.665,11.867,414.188,1.904,4.984
1782117453.779299,1.321000,1899161,1000,12,0,1,640.415,-17.744,12.117,412.987,0.516,4.973
1782117453.780299,1.322000,1899162,1000,12,0,1,659.848,3.077,12.112,409.384,-3.213,4.983
1782117453.781299,1.323000,1899163,1000,12,0,1,658.743,5.858,12.103,411.354,-2.340,4.895
1782117453.782299,1.324000,1899164,1000,12,0,1,654.779,-0.943,11.944,420.338,5.585,4.627
1782117453.783299,1.325000,1899165,1000,12,0,1,647.573,-3.752,11.820,414.188,1.846,4.420
1782117453.784299,1.326000,1899166,1000,12,0,1,646.180,-6.210,11.818,407.943,-6.657,4.504
1782117453.785299,1.327000,1899167,1000,12,0,1,660.881,9.071,11.337,414.236,-0.357,4.149
1782117453.786299,1.328000,1899168,1000,12,0,1,670.609,19.594,11.517,422.187,7.391,4.124
1782117453.787299,1.329000,1899169,1000,12,0,1,655.692,7.035,11.398,431.267,13.937,4.568
1782117453.788299,1.330000,1899170,1000,12,0,1,640.151,-9.303,11.076,432.156,14.271,4.992
1782117453.789299,1.331000,1899171,1000,12,0,1,633.377,-12.750,11.179,427.592,6.866,5.074
1782117453.790299,1.332000,1899172,1000,12,0,1,623.192,-17.752,11.453,426.991,4.484,5.112
1782117453.791299,1.333000,1899173,1000,12,0,1,623.192,-16.164,11.605,426.991,3.490,5.135
1782117453.792299,1.334000,1899174,1000,12,0,1,673.972,26.857,12.180,416.374,-5.506,5.181
1782117453.793299,1.335000,1899175,1000,12,0,1,654.083,22.755,12.586,418.104,-7.027,5.258
