Unix_Time_s,IMU1_RefTime,ax_g,ay_g,az_g,gx_dps,gy_dps,gz_dps,mx_uT,my_uT,mz_uT,temp_C,qw,qx,qy,qz
1782117452.458299,1951879,0.916016,-0.016602,-0.403320,-0.243902,-0.304878,-0.304878,16.487501,-36.362499,2.243750,0.0,1.000000,0.000000,0.000000,0.000000
1782117452.469299,1951890,0.915527,-0.016113,-0.400879,-0.304878,-0.304878,-0.243902,16.537500,-36.268749,2.206250,0.0,1.000000,0.000000,0.000000,0.000000
1782117452.479299,1951900,0.915039,-0.016602,-0.402344,-0.487805,-0.304878,-0.243902,16.537500,-36.268749,2.206250,0.0,1.000000,0.000000,0.000000,0.000000
1782117452.488299,1951909,0.916504,-0.016602,-0.400391,-0.731707,-0.304878,-0.182927,16.487501,-36.331249,2.193750,0.0,1.000000,0.000000,0.000000,0.000000
1782117452.499299,1951920,0.915527,-0.016113,-0.399414,-0.853659,-0.182927,-0.121951,16.487501,-36.331249,2.193750,0.0,1.000000,0.000000,0.000000,0.000000
1782117452.508299,1951929,0.913574,-0.016602,-0.397949,-0.975610,-0.304878,-0.182927,16.581251,-36.137501,2.168750,0.0,1.000000,0.000000,0.000000,0.000000
1782117452.518299,1951939,0.915039,-0.017578,-0.401855,-1.036585,-0.365854,-0.243902,16.581251,-36.137501,2.168750,0.0,1.000000,0.000000,0.000000,0.000000
1782117452.529299,1951950,0.915527,-0.018066,-0.405273,-0.914634,-0.365854,-0.121951,16.431250,-36.400002,2.262500,0.0,1.000000,0.000000,0.000000,0.000000
1782117452.539299,1951960,0.916504,-0.020996,-0.405762,-0.731707,-0.731707,-0.060976,16.431250,-36.400002,2.262500,0.0,1.000000,0.000000,0.000000,0.000000
1782117452.548299,1951969,0.917969,-0.020020,-0.400879,-0.487805,-0.609756,-0.060976,16.625000,-36.062500,2.100000,0.0,1.000000,0.000000,0.000000,0.000000
1782117452.558299,1951979,0.916016,-0.019043,-0.398438,-0.426829,-0.304878,0.000000,16.625000,-36.062500,2.100000,0.0,1.000000,0.000000,0.000000,0.000000
1782117452.568299,1951989,0.915527,-0.019043,-0.397949,-0.548781,-0.426829,-0.121951,16.481251,-36.287502,2.218750,0.0,1.000000,0.000000,0.000000,0.000000
1782117452.578299,1951999,0.916504,-0.018066,-0.398926,-0.670732,-0.487805,-0.182927,16.481251,-36.287502,2.218750,0.0,1.000000,0.000000,0.000000,0.000000
1782117452.589299,1952010,0.917480,-0.017578,-0.398926,-0.670732,-0.304878,-0.182927,16.493750,-36.293751,2.181250,0.0,1.000000,0.000000,0.000000,0.000000
1782117452.599299,1952020,0.915527,-0.018066,-0.398438,-0.609756,-0.365854,-0.304878,16.493750,-36.293751,2.181250,0.0,1.000000,0.000000,0.000000,0.000000
1782117452.608299,1952029,0.916992,-0.020508,-0.401855,-0.487805,-0.304878,-0.304878,16.600000,-36.037502,2.093750,0.0,1.000000,0.000000,0.000000,0.000000
1782117452.619299,1952040,0.916992,-0.020508,-0.402832,-0.365854,-0.304878,-0.243902,16.600000,-36.037502,2.093750,0.0,1.000000,0.000000,0.000000,0.000000
1782117452.628299,1952049,0.919434,-0.018066,-0.399902,-0.243902,-0.548781,-0.182927,16.450001,-36.312500,2.231250,0.0,1.000000,0.000000,0.000000,0.000000
1782117452.638299,1952059,0.918457,-0.017090,-0.396973,-0.304878,-0.304878,-0.182927,16.450001,-36.312500,2.231250,0.0,1.000000,0.000000,0.000000,0.000000
1782117452.648299,1952069,0.915039,-0.018066,-0.395508,-0.365854,-0.365854,-0.182927,16.468750,-36.318752,2.237500,0.0,1.000000,0.000000,0.000000,0.000000
1782117452.658299,1952079,0.916992,-0.018555,-0.397949,-0.426829,-0.487805,-0.304878,16.468750,-36.318752,2.237500,0.0,1.000000,0.000000,0.000000,0.000000
1782117452.668299,1952089,0.916504,-0.021484,-0.400391,-0.426829,-0.365854,-0.365854,16.612501,-36.087502,2.081250,0.0,1.000000,0.000000,0.000000,0.000000
1782117452.679299,1952100,0.916992,-0.021484,-0.401855,-0.304878,-0.365854,-0.365854,16.612501,-36.087502,2.081250,0.0,1.000000,0.000000,0.000000,0.000000
1782117452.688299,1952109,0.916504,-0.020508,-0.402344,-0.060976,-0.426829,-0.365854,16.500000,-36.381252,2.225000,0.0,1.000000,0.000000,0.000000,0.000000
1782117452.698299,1952119,0.916992,-0.020508,-0.402832,0.121951,-0.365854,-0.304878,16.500000,-36.381252,2.225000,0.0,1.000000,0.000000,0.000000,0.000000
1782117452.708299,1952129,0.917480,-0.018066,-0.398926,0.243902,-0.487805,-0.304878,16.475000,-36.306252,2.150000,0.0,1.000000,0.000000,0.000000,0.000000
1782117452.718299,1952139,0.916016,-0.018066,-0.399414,0.182927,-0.487805,-0.304878,16.475000,-36.306252,2.150000,0.0,1.000000,0.000000,0.000000,0.000000
1782117452.728299,1952149,0.915039,-0.018555,-0.398926,0.060976,-0.548781,-0.365854,16.462500,-36.325001,2.156250,0.0,1.000000,0.000000,0.000000,0.000000
1782117452.738299,1952159,0.916992,-0.018555,-0.400391,-0.182927,-0.548781,-0.365854,16.462500,-36.325001,2.156250,0.0,1.000000,0.000000,0.000000,0.000000
1782117452.749299,1952170,0.914551,-0.018555,-0.403320,-0.304878,-0.487805,-0.304878,16.518751,-36.293751,2.193750,0.0,1.000000,0.000000,0.000000,0.000000
1782117452.758299,1952179,0.915039,-0.020508,-0.402832,-0.304878,-0.731707,-0.304878,16.518751,-36.293751,2.193750,0.0,1.000000,0.000000,0.000000,0.000000
1782117452.768299,1952189,0.916016,-0.019043,-0.401855,-0.121951,-0.670732,-0.243902,16.543751,-36.218750,2.106250,0.0,1.000000,0.000000,0.000000,0.000000
1782117452.778299,1952199,0.915039,-0.019043,-0.399414,0.000000,-0.609756,-0.304878,16.543751,-36.218750,2.106250,0.0,1.000000,0.000000,0.000000,0.000000
1782117452.788299,1952209,0.915527,-0.019043,-0.400391,0.060976,-0.609756,-0.426829,16.456251,-36.331249,2.181250,0.0,1.000000,0.000000,0.000000,0.000000
1782117452.798299,1952219,0.916504,-0.020508,-0.401855,0.060976,-0.731707,-0.426829,16.456251,-36.331249,2.181250,0.0,1.000000,0.000000,0.000000,0.000000
1782117452.808299,1952229,0.916016,-0.020996,-0.401367,0.060976,-0.548781,-0.426829,16.468750,-36.331249,2.131250,0.0,1.000000,0.000000,0.000000,0.000000
1782117452.819299,1952240,0.911621,-0.023926,-0.402344,0.060976,-0.548781,-0.487805,16.468750,-36.331249,2.131250,0.0,1.000000,0.000000,0.000000,0.000000
1782117452.830299,1952251,0.913574,-0.026855,-0.405762,0.121951,-0.731707,-0.548781,16.506250,-36.306252,2.150000,0.0,1.000000,0.000000,0.000000,0.000000
1782117452.838299,1952259,0.916504,-0.026367,-0.405273,0.426829,-0.792683,-0.548781,16.506250,-36.306252,2.150000,0.0,1.000000,0.000000,0.000000,0.000000
1782117452.848299,1952269,0.917480,-0.025391,-0.407227,0.609756,-0.609756,-0.487805,16.506250,-36.312500,2.187500,0.0,1.000000,0.000000,0.000000,0.000000
1782117452.858299,1952279,0.914551,-0.020996,-0.405273,0.792683,-0.487805,-0.426829,16.506250,-36.312500,2.187500,0.0,1.000000,0.000000,0.000000,0.000000
1782117452.868299,1952289,0.913086,-0.016602,-0.402344,0.853659,-0.548781,-0.487805,16.493750,-36.343750,2.162500,0.0,1.000000,0.000000,0.000000,0.000000
1782117452.878299,1952299,0.913086,-0.015625,-0.401367,0.792683,-0.609756,-0.548781,16.493750,-36.343750,2.162500,0.0,1.000000,0.000000,0.000000,0.000000
1782117452.888299,1952309,0.915039,-0.016602,-0.403809,0.731707,-0.487805,-0.670732,16.506250,-36.231251,2.075000,0.0,1.000000,0.000000,0.000000,0.000000
1782117452.899299,1952320,0.912598,-0.018555,-0.405273,0.731707,-0.487805,-0.548781,16.506250,-36.231251,2.075000,0.0,1.000000,0.000000,0.000000,0.000000
1782117452.908299,1952329,0.911133,-0.022949,-0.403809,0.792683,-0.548781,-0.670732,16.518751,-36.362499,2.125000,0.0,1.000000,0.000000,0.000000,0.000000
1782117452.918299,1952339,0.912109,-0.028809,-0.409668,0.975610,-0.914634,-0.731707,16.518751,-36.362499,2.125000,0.0,1.000000,0.000000,0.000000,0.000000
1782117452.928299,1952349,0.915039,-0.028809,-0.410156,1.280488,-1.097561,-0.609756,16.456251,-36.299999,2.093750,0.0,1.000000,0.000000,0.000000,0.000000
1782117452.939299,1952360,0.919434,-0.022949,-0.403809,1.463415,-0.853659,-0.487805,16.456251,-36.299999,2.093750,0.0,1.000000,0.000000,0.000000,0.000000
1782117452.949299,1952370,0.919922,-0.017090,-0.397949,1.158537,-0.548781,-0.426829,16.456251,-36.337502,2.112500,0.0,1.000000,0.000000,0.000000,0.000000
1782117452.958299,1952379,0.912598,-0.014160,-0.395996,0.731707,-0.182927,-0.487805,16.456251,-36.337502,2.112500,0.0,1.000000,0.000000,0.000000,0.000000
1782117452.968299,1952389,0.906250,-0.011719,-0.401855,0.365854,-0.609756,-0.609756,16.500000,-36.343750,2.106250,0.0,1.000000,0.000000,0.000000,0.000000
1782117452.978299,1952399,0.910156,-0.014648,-0.406250,0.182927,-1.219512,-0.731707,16.500000,-36.343750,2.106250,0.0,1.000000,0.000000,0.000000,0.000000
1782117452.989299,1952410,0.920410,-0.019531,-0.408691,0.000000,-1.524390,-0.670732,16.537500,-36.287502,2.068750,0.0,1.000000,0.000000,0.000000,0.000000
1782117452.999299,1952420,0.923828,-0.023438,-0.401855,0.365854,-0.914634,-0.609756,16.537500,-36.287502,2.068750,0.0,1.000000,0.000000,0.000000,0.000000
1782117453.008299,1952429,0.917969,-0.024902,-0.400879,0.304878,-0.548781,-0.304878,16.475000,-36.325001,2.050000,0.0,1.000000,0.000000,0.000000,0.000000
1782117453.018299,1952439,0.916504,-0.018555,-0.402344,0.304878,-0.426829,-0.426829,16.475000,-36.325001,2.050000,0.0,1.000000,0.000000,0.000000,0.000000
1782117453.029299,1952450,0.913086,-0.017578,-0.404785,0.548781,-0.426829,-0.670732,16.525000,-36.275002,2.018750,0.0,1.000000,0.000000,0.000000,0.000000
1782117453.038299,1952459,0.917480,-0.019531,-0.406738,0.731707,-0.670732,-0.792683,16.525000,-36.275002,2.018750,0.0,1.000000,0.000000,0.000000,0.000000
1782117453.048299,1952469,0.921387,-0.019043,-0.400879,0.975610,-0.426829,-0.731707,16.475000,-36.350002,2.068750,0.0,1.000000,0.000000,0.000000,0.000000
1782117453.059299,1952480,0.918945,-0.020020,-0.398438,1.036585,-0.060976,-0.609756,16.475000,-36.350002,2.068750,0.0,1.000000,0.000000,0.000000,0.000000
1782117453.070299,1952491,0.917480,-0.016113,-0.399902,0.853659,-0.121951,-0.487805,16.525000,-36.306252,2.012500,0.0,1.000000,0.000000,0.000000,0.000000
1782117453.079299,1952500,0.915039,-0.010742,-0.399902,0.487805,-0.121951,-0.426829,16.525000,-36.306252,2.012500,0.0,1.000000,0.000000,0.000000,0.000000
1782117453.089299,1952510,0.912598,-0.011230,-0.403320,0.121951,-0.121951,-0.365854,16.506250,-36.312500,2.081250,0.0,1.000000,0.000000,0.000000,0.000000
1782117453.098299,1952519,0.912109,-0.010742,-0.402832,-0.121951,-0.304878,-0.365854,16.506250,-36.312500,2.081250,0.0,1.000000,0.000000,0.000000,0.000000
1782117453.108299,1952529,0.914551,-0.014160,-0.402344,-0.365854,-0.243902,-0.426829,16.456251,-36.343750,2.043750,0.0,1.000000,0.000000,0.000000,0.000000
1782117453.119299,1952540,0.915527,-0.022461,-0.406250,-0.487805,-0.243902,-0.365854,16.456251,-36.343750,2.043750,0.0,1.000000,0.000000,0.000000,0.000000
1782117453.128299,1952549,0.915527,-0.022461,-0.406250,-0.487805,-0.243902,-0.365854,16.550001,-36.331249,2.106250,0.0,1.000000,0.000000,0.000000,0.000000
1782117453.138299,1952559,0.915527,-0.020508,-0.406250,-0.243902,0.182927,-0.304878,16.550001,-36.331249,2.106250,0.0,1.000000,0.000000,0.000000,0.000000
1782117453.150299,1952571,0.914062,-0.020508,-0.405762,-0.121951,0.121951,-0.304878,16.475000,-36.337502,2.081250,0.0,1.000000,0.000000,0.000000,0.000000
1782117453.158299,1952579,0.914062,-0.018066,-0.407227,0.000000,0.000000,-0.243902,16.475000,-36.337502,2.081250,0.0,1.000000,0.000000,0.000000,0.000000
1782117453.168299,1952589,0.914551,-0.015625,-0.403809,0.060976,0.000000,-0.243902,16.475000,-36.350002,2.050000,0.0,1.000000,0.000000,0.000000,0.000000
1782117453.178299,1952599,0.913574,-0.016113,-0.400879,-0.060976,-0.060976,-0.243902,16.475000,-36.350002,2.050000,0.0,1.000000,0.000000,0.000000,0.000000
1782117453.188299,1952609,0.915527,-0.016602,-0.400391,-0.365854,-0.060976,-0.304878,16.487501,-36.312500,2.081250,0.0,1.000000,0.000000,0.000000,0.000000
1782117453.198299,1952619,0.915039,-0.018555,-0.400879,-0.426829,0.060976,-0.365854,16.487501,-36.312500,2.081250,0.0,1.000000,0.000000,0.000000,0.000000
1782117453.208299,1952629,0.915039,-0.019043,-0.404785,-0.304878,0.000000,-0.304878,16.481251,-36.331249,2.056250,0.0,1.000000,0.000000,0.000000,0.000000
1782117453.218299,1952639,0.915527,-0.018555,-0.405762,-0.182927,-0.060976,-0.304878,16.481251,-36.331249,2.056250,0.0,1.000000,0.000000,0.000000,0.000000
1782117453.228299,1952649,0.917480,-0.019531,-0.405762,-0.060976,0.060976,-0.304878,16.456251,-36.368752,2.075000,0.0,1.000000,0.000000,0.000000,0.000000
1782117453.238299,1952659,0.915039,-0.020508,-0.403320,0.121951,0.243902,-0.304878,16.456251,-36.368752,2.075000,0.0,1.000000,0.000000,0.000000,0.000000
1782117453.248299,1952669,0.914551,-0.021484,-0.401855,0.182927,0.121951,-0.304878,16.500000,-36.293751,2.043750,0.0,1.000000,0.000000,0.000000,0.000000
1782117453.258299,1952679,0.913574,-0.023926,-0.403809,0.243902,0.121951,-0.304878,16.500000,-36.293751,2.043750,0.0,1.000000,0.000000,0.000000,0.000000
1782117453.268299,1952689,0.915039,-0.024414,-0.404297,0.426829,0.060976,-0.365854,16.512501,-36.325001,2.112500,0.0,1.000000,0.000000,0.000000,0.000000
1782117453.278299,1952699,0.914551,-0.023438,-0.404785,0.487805,0.121951,-0.426829,16.512501,-36.325001,2.112500,0.0,1.000000,0.000000,0.000000,0.000000
1782117453.288299,1952709,0.916016,-0.020996,-0.405273,0.487805,0.243902,-0.609756,16.493750,-36.318752,2.075000,0.0,1.000000,0.000000,0.000000,0.000000
1782117453.298299,1952719,0.915527,-0.018555,-0.405762,0.487805,0.243902,-0.609756,16.493750,-36.318752,2.075000,0.0,1.000000,0.000000,0.000000,0.000000
1782117453.309299,1952730,0.915039,-0.018066,-0.403809,0.670732,0.182927,-0.548781,16.487501,-36.350002,2.112500,0.0,1.000000,0.000000,0.000000,0.000000
1782117453.319299,1952740,0.914551,-0.016113,-0.402344,0.731707,0.121951,-0.487805,16.487501,-36.350002,2.112500,0.0,1.000000,0.000000,0.000000,0.000000
1782117453.328299,1952749,0.913574,-0.014648,-0.402832,0.609756,0.060976,-0.487805,16.550001,-36.287502,2.068750,0.0,1.000000,0.000000,0.000000,0.000000
1782117453.338299,1952759,0.912109,-0.016113,-0.402832,0.487805,0.000000,-0.548781,16.550001,-36.287502,2.068750,0.0,1.000000,0.000000,0.000000,0.000000
1782117453.348299,1952769,0.911133,-0.018066,-0.401855,0.304878,-0.121951,-0.487805,16.462500,-36.400002,2.112500,0.0,1.000000,0.000000,0.000000,0.000000
1782117453.358299,1952779,0.913574,-0.021973,-0.405762,0.304878,-0.304878,-0.487805,16.462500,-36.400002,2.112500,0.0,1.000000,0.000000,0.000000,0.000000
1782117453.368299,1952789,0.915527,-0.021973,-0.405762,0.426829,-0.182927,-0.548781,16.487501,-36.368752,2.131250,0.0,1.000000,0.000000,0.000000,0.000000
1782117453.378299,1952799,0.918457,-0.020996,-0.405762,0.487805,-0.304878,-0.548781,16.487501,-36.368752,2.131250,0.0,1.000000,0.000000,0.000000,0.000000
1782117453.389299,1952810,0.918945,-0.018066,-0.401367,0.548781,0.060976,-0.487805,16.550001,-36.362499,2.081250,0.0,1.000000,0.000000,0.000000,0.000000
1782117453.399299,1952820,0.913086,-0.018555,-0.401367,0.426829,0.060976,-0.548781,16.550001,-36.362499,2.081250,0.0,1.000000,0.000000,0.000000,0.000000
1782117453.409299,1952830,0.912598,-0.018066,-0.402832,0.243902,-0.243902,-0.670732,16.600000,-36.181252,2.043750,0.0,1.000000,0.000000,0.000000,0.000000
1782117453.419299,1952840,0.911621,-0.017578,-0.406250,0.060976,-0.365854,-0.792683,16.600000,-36.181252,2.043750,0.0,1.000000,0.000000,0.000000,0.000000
1782117453.430299,1952851,0.909668,-0.017090,-0.408691,0.121951,-0.426829,-0.792683,16.600000,-36.075001,2.006250,0.0,1.000000,0.000000,0.000000,0.000000
1782117453.438299,1952859,0.910156,-0.016113,-0.410645,0.121951,-0.670732,-0.731707,16.600000,-36.075001,2.006250,0.0,1.000000,0.000000,0.000000,0.000000
1782117453.449299,1952870,0.913574,-0.014160,-0.414062,0.182927,-0.792683,-0.670732,16.550001,-36.256252,2.012500,0.0,1.000000,0.000000,0.000000,0.000000
1782117453.459299,1952880,0.913574,-0.011230,-0.413574,0.000000,-0.792683,-0.548781,16.550001,-36.256252,2.012500,0.0,1.000000,0.000000,0.000000,0.000000
1782117453.469299,1952890,0.911621,-0.008301,-0.413086,-0.182927,-0.548781,-0.426829,16.493750,-36.356251,2.056250,0.0,1.000000,0.000000,0.000000,0.000000
1782117453.479299,1952900,0.907227,-0.007324,-0.410156,-0.548781,-0.914634,-0.304878,16.493750,-36.356251,2.056250,0.0,1.000000,0.000000,0.000000,0.000000
1782117453.488299,1952909,0.907227,-0.007324,-0.407715,-1.158537,-1.219512,-0.243902,16.512501,-36.293751,2.087500,0.0,1.000000,0.000000,0.000000,0.000000
1782117453.498299,1952919,0.907227,-0.009766,-0.409180,-1.829268,-1.280488,-0.243902,16.512501,-36.293751,2.087500,0.0,1.000000,0.000000,0.000000,0.000000
1782117453.511299,1952932,0.906250,-0.010254,-0.412598,-2.317073,-1.280488,-0.182927,16.431250,-36.393749,2.100000,0.0,1.000000,0.000000,0.000000,0.000000
1782117453.518299,1952939,0.905762,-0.011719,-0.416504,-2.621951,-1.402439,-0.182927,16.431250,-36.393749,2.100000,0.0,1.000000,0.000000,0.000000,0.000000
1782117453.528299,1952949,0.906738,-0.015625,-0.420410,-2.865854,-1.524390,-0.182927,16.625000,-36.106251,1.937500,0.0,1.000000,0.000000,0.000000,0.000000
1782117453.538299,1952959,0.911133,-0.013672,-0.419434,-2.560976,-1.768293,0.000000,16.625000,-36.106251,1.937500,0.0,1.000000,0.000000,0.000000,0.000000
1782117453.551299,1952972,0.913574,-0.013672,-0.409668,-2.073171,-1.524390,0.000000,16.437500,-36.424999,2.137500,0.0,1.000000,0.000000,0.000000,0.000000
1782117453.558299,1952979,0.911621,-0.012695,-0.399902,-2.012195,-1.219512,0.121951,16.437500,-36.424999,2.137500,0.0,1.000000,0.000000,0.000000,0.000000
1782117453.568299,1952989,0.911133,-0.013184,-0.401855,-2.743902,-1.158537,0.182927,16.581251,-36.287502,1.962500,0.0,1.000000,0.000000,0.000000,0.000000
1782117453.578299,1952999,0.916992,-0.013672,-0.400391,-3.231707,-1.036585,0.182927,16.581251,-36.287502,1.962500,0.0,1.000000,0.000000,0.000000,0.000000
1782117453.590299,1953011,0.919434,-0.020508,-0.399902,-3.292683,-0.853659,0.182927,16.506250,-36.393749,2.106250,0.0,1.000000,0.000000,0.000000,0.000000
1782117453.598299,1953019,0.923828,-0.025879,-0.399902,-3.170732,-0.548781,0.304878,16.506250,-36.393749,2.106250,0.0,1.000000,0.000000,0.000000,0.000000
1782117453.608299,1953029,0.924805,-0.027832,-0.395996,-2.378049,0.182927,0.121951,16.531250,-36.287502,2.125000,0.0,1.000000,0.000000,0.000000,0.000000
1782117453.618299,1953039,0.926758,-0.031250,-0.395508,-1.402439,0.365854,0.060976,16.531250,-36.287502,2.125000,0.0,1.000000,0.000000,0.000000,0.000000
1782117453.630299,1953051,0.928223,-0.030273,-0.390625,-0.487805,0.609756,0.243902,16.456251,-36.406250,2.150000,0.0,1.000000,0.000000,0.000000,0.000000
1782117453.638299,1953059,0.926758,-0.024414,-0.391113,0.000000,0.975610,0.365854,16.456251,-36.406250,2.150000,0.0,1.000000,0.000000,0.000000,0.000000
1782117453.649299,1953070,0.928223,-0.020020,-0.388672,0.060976,1.036585,0.304878,16.518751,-36.318752,2.075000,0.0,1.000000,0.000000,0.000000,0.000000
1782117453.658299,1953079,0.926758,-0.016602,-0.386719,-0.365854,1.402439,0.365854,16.518751,-36.318752,2.075000,0.0,1.000000,0.000000,0.000000,0.000000
1782117453.669299,1953090,0.921387,-0.014160,-0.386230,-0.975610,1.524390,0.548781,16.456251,-36.375000,2.200000,0.0,1.000000,0.000000,0.000000,0.000000
1782117453.678299,1953099,0.916504,-0.010742,-0.388672,-2.012195,1.585366,0.609756,16.456251,-36.375000,2.200000,0.0,1.000000,0.000000,0.000000,0.000000
1782117453.688299,1953109,0.915039,-0.010742,-0.390625,-2.804878,1.402439,0.487805,16.468750,-36.362499,2.262500,0.0,1.000000,0.000000,0.000000,0.000000
1782117453.698299,1953119,0.916016,-0.016602,-0.393066,-3.170732,1.219512,0.426829,16.468750,-36.362499,2.262500,0.0,1.000000,0.000000,0.000000,0.000000
1782117453.710299,1953131,0.919434,-0.020508,-0.394531,-3.292683,1.219512,0.548781,16.512501,-36.350002,2.187500,0.0,1.000000,0.000000,0.000000,0.000000
1782117453.718299,1953139,0.921387,-0.022949,-0.395996,-3.170732,1.280488,0.731707,16.512501,-36.350002,2.187500,0.0,1.000000,0.000000,0.000000,0.000000
1782117453.728299,1953149,0.919434,-0.024414,-0.399902,-2.987805,1.219512,0.914634,16.525000,-36.350002,2.243750,0.0,1.000000,0.000000,0.000000,0.000000
1782117453.738299,1953159,0.916992,-0.023926,-0.399414,-2.743902,1.097561,0.975610,16.425001,-36.443752,2.356250,0.0,1.000000,0.000000,0.000000,0.000000
1782117453.751299,1953172,0.912598,-0.024902,-0.399414,-2.560976,0.731707,0.731707,16.425001,-36.443752,2.356250,0.0,1.000000,0.000000,0.000000,0.000000
1782117453.758299,1953179,0.912598,-0.024902,-0.399414,-2.560976,0.731707,0.731707,16.431250,-36.443752,2.356250,0.0,1.000000,0.000000,0.000000,0.000000
1782117453.768299,1953189,0.911133,-0.021973,-0.400391,-2.500000,0.548781,0.670732,16.431250,-36.443752,2.356250,0.0,1.000000,0.000000,0.000000,0.000000
1782117453.778299,1953199,0.914551,-0.019043,-0.402832,-2.500000,0.182927,0.548781,16.412500,-36.462502,2.381250,0.0,1.000000,0.000000,0.000000,0.000000
1782117453.789299,1953210,0.914551,-0.014648,-0.405273,-2.560976,0.121951,0.365854,16.412500,-36.462502,2.381250,0.0,1.000000,0.000000,0.000000,0.000000
1782117453.798299,1953219,0.915039,-0.009277,-0.403809,-2.378049,0.121951,0.243902,16.393751,-36.387501,2.318750,0.0,1.000000,0.000000,0.000000,0.000000
1782117453.808299,1953229,0.916016,-0.010742,-0.400391,-2.073171,-0.060976,0.060976,16.393751,-36.387501,2.318750,0.0,1.000000,0.000000,0.000000,0.000000
1782117453.818299,1953239,0.919922,-0.014648,-0.394531,-1.646341,0.060976,0.060976,16.400000,-36.412502,2.425000,0.0,1.000000,0.000000,0.000000,0.000000
1782117453.830299,1953251,0.915039,-0.015625,-0.398438,-1.768293,0.060976,0.365854,16.400000,-36.412502,2.425000,0.0,1.000000,0.000000,0.000000,0.000000
1782117453.838299,1953259,0.915039,-0.015625,-0.398438,-1.768293,0.060976,0.365854,16.406250,-36.393749,2.450000,0.0,1.000000,0.000000,0.000000,0.000000
1782117453.848299,1953269,0.914551,-0.011719,-0.397949,-2.012195,-0.182927,0.182927,16.406250,-36.393749,2.450000,0.0,1.000000,0.000000,0.000000,0.000000
1782117453.859299,1953280,0.913086,-0.014648,-0.398926,-2.378049,-0.365854,0.121951,16.343750,-36.512501,2.518750,0.0,1.000000,0.000000,0.000000,0.000000
1782117453.870299,1953291,0.916992,-0.022461,-0.395508,-2.682927,-0.365854,0.243902,16.343750,-36.512501,2.518750,0.0,1.000000,0.000000,0.000000,0.000000
1782117453.878299,1953299,0.916992,-0.022461,-0.395508,-2.682927,-0.365854,0.243902,16.500000,-36.212502,2.350000,0.0,1.000000,0.000000,0.000000,0.000000
1782117453.889299,1953310,0.916992,-0.022949,-0.396973,-2.804878,-0.182927,0.304878,16.500000,-36.212502,2.350000,0.0,1.000000,0.000000,0.000000,0.000000
1782117453.899299,1953320,0.916504,-0.017578,-0.402344,-2.987805,-0.304878,0.365854,16.406250,-36.424999,2.518750,0.0,1.000000,0.000000,0.000000,0.000000
1782117453.912299,1953333,0.918945,-0.011230,-0.398926,-3.109756,-0.548781,0.182927,16.406250,-36.424999,2.518750,0.0,1.000000,0.000000,0.000000,0.000000
1782117453.918299,1953339,0.918945,-0.011230,-0.398926,-3.109756,-0.548781,0.182927,16.337500,-36.468750,2.481250,0.0,1.000000,0.000000,0.000000,0.000000
1782117453.928299,1953349,0.917480,-0.015625,-0.397949,-3.048780,-0.487805,0.060976,16.337500,-36.468750,2.481250,0.0,1.000000,0.000000,0.000000,0.000000
1782117453.938299,1953359,0.912598,-0.020996,-0.403320,-2.743902,-0.487805,0.000000,16.368750,-36.450001,2.500000,0.0,1.000000,0.000000,0.000000,0.000000
1782117453.951299,1953372,0.913574,-0.020508,-0.407227,-2.012195,-1.341463,-0.243902,16.368750,-36.450001,2.500000,0.0,1.000000,0.000000,0.000000,0.000000
1782117453.959299,1953380,0.913574,-0.020508,-0.407227,-2.012195,-1.341463,-0.243902,16.418751,-36.400002,2.562500,0.0,1.000000,0.000000,0.000000,0.000000
1782117453.968299,1953389,0.916504,-0.019043,-0.399414,-1.524390,-1.219512,-0.365854,16.418751,-36.400002,2.562500,0.0,1.000000,0.000000,0.000000,0.000000
1782117453.978299,1953399,0.916992,-0.020996,-0.399902,-1.402439,-1.036585,-0.548781,16.481251,-36.262501,2.381250,0.0,1.000000,0.000000,0.000000,0.000000
1782117453.992299,1953413,0.920898,-0.019531,-0.399902,-1.402439,-1.036585,-0.487805,16.481251,-36.262501,2.381250,0.0,1.000000,0.000000,0.000000,0.000000
1782117453.998299,1953419,0.920898,-0.019531,-0.399902,-1.402439,-1.036585,-0.487805,16.381250,-36.456249,2.581250,0.0,1.000000,0.000000,0.000000,0.000000
1782117454.008299,1953429,0.921875,-0.019531,-0.404297,-1.341463,-0.731707,-0.548781,16.381250,-36.456249,2.581250,0.0,1.000000,0.000000,0.000000,0.000000
1782117454.018299,1953439,0.928711,-0.016602,-0.409668,-1.036585,-0.792683,-0.548781,16.412500,-36.406250,2.600000,0.0,1.000000,0.000000,0.000000,0.000000
1782117454.030299,1953451,0.910645,-0.020020,-0.416504,-1.097561,-0.121951,0.060976,16.412500,-36.406250,2.600000,0.0,1.000000,0.000000,0.000000,0.000000
1782117454.039299,1953460,0.910645,-0.020020,-0.416504,-1.097561,-0.121951,0.060976,16.375000,-36.437500,2.543750,0.0,1.000000,0.000000,0.000000,0.000000
1782117454.048299,1953469,0.902832,-0.016602,-0.430664,-0.853659,-1.036585,0.000000,16.375000,-36.437500,2.543750,0.0,1.000000,0.000000,0.000000,0.000000
1782117454.058299,1953479,0.910156,-0.026367,-0.427734,1.524390,-0.609756,-0.853659,16.437500,-36.418751,2.506250,0.0,1.000000,0.000000,0.000000,0.000000
1782117454.070299,1953491,0.901367,-0.025879,-0.432617,2.865854,0.000000,-1.036585,16.437500,-36.418751,2.506250,0.0,1.000000,0.000000,0.000000,0.000000
1782117454.078299,1953499,0.896973,-0.016602,-0.441895,3.902439,0.243902,-1.524390,16.493750,-36.362499,2.518750,0.0,1.000000,0.000000,0.000000,0.000000
1782117454.088299,1953509,0.898438,-0.009277,-0.447754,5.243903,0.487805,-2.560976,16.493750,-36.362499,2.518750,0.0,1.000000,0.000000,0.000000,0.000000
1782117454.098299,1953519,0.898438,-0.013672,-0.450195,6.890244,1.036585,-3.292683,16.487501,-36.375000,2.443750,0.0,1.000000,0.000000,0.000000,0.000000
1782117454.110299,1953531,0.903320,-0.012207,-0.450195,8.170732,1.219512,-3.475610,16.487501,-36.375000,2.443750,0.0,1.000000,0.000000,0.000000,0.000000
1782117454.119299,1953540,0.916016,-0.001953,-0.449219,9.146341,1.890244,-3.536585,16.543751,-36.381252,2.406250,0.0,1.000000,0.000000,0.000000,0.000000
1782117454.128299,1953549,0.907227,0.002441,-0.438965,9.634147,3.109756,-3.414634,16.543751,-36.381252,2.406250,0.0,1.000000,0.000000,0.000000,0.000000
1782117454.138299,1953559,0.892090,0.004395,-0.437988,9.207317,3.231707,-3.048780,16.593750,-36.256252,2.437500,0.0,1.000000,0.000000,0.000000,0.000000
1782117454.150299,1953571,0.889648,0.010254,-0.439453,8.231708,2.500000,-2.621951,16.593750,-36.256252,2.437500,0.0,1.000000,0.000000,0.000000,0.000000
1782117454.159299,1953580,0.900879,0.013184,-0.439453,7.134147,2.134146,-2.073171,16.606251,-36.312500,2.368750,0.0,1.000000,0.000000,0.000000,0.000000
1782117454.169299,1953590,0.905762,0.008789,-0.428223,5.914634,2.865854,-1.219512,16.606251,-36.312500,2.368750,0.0,1.000000,0.000000,0.000000,0.000000
1782117454.178299,1953599,0.905762,-0.000488,-0.422852,4.695122,3.902439,-0.426829,16.606251,-36.331249,2.406250,0.0,1.000000,0.000000,0.000000,0.000000
1782117454.191299,1953612,0.909180,-0.001953,-0.422363,3.719512,4.634146,0.060976,16.606251,-36.331249,2.406250,0.0,1.000000,0.000000,0.000000,0.000000
1782117454.198299,1953619,0.911621,-0.003418,-0.425781,3.048780,5.365854,0.243902,16.725000,-36.156250,2.375000,0.0,1.000000,0.000000,0.000000,0.000000
1782117454.208299,1953629,0.907227,-0.009277,-0.428223,2.682927,5.975610,0.487805,16.725000,-36.156250,2.375000,0.0,1.000000,0.000000,0.000000,0.000000
1782117454.219299,1953640,0.898438,-0.016602,-0.433105,2.743902,6.402439,0.792683,16.606251,-36.318752,2.568750,0.0,1.000000,0.000000,0.000000,0.000000
1782117454.230299,1953651,0.893555,-0.021484,-0.438477,3.170732,6.280488,0.853659,16.606251,-36.318752,2.568750,0.0,1.000000,0.000000,0.000000,0.000000
1782117454.238299,1953659,0.901855,-0.021973,-0.445801,4.024390,6.341464,0.731707,16.631250,-36.306252,2.662500,0.0,1.000000,0.000000,0.000000,0.000000
1782117454.248299,1953669,0.907227,-0.024414,-0.453613,4.878049,7.195122,0.609756,16.631250,-36.306252,2.662500,0.0,1.000000,0.000000,0.000000,0.000000
1782117454.259299,1953680,0.902344,-0.021484,-0.458496,5.609756,8.109756,1.036585,16.606251,-36.299999,2.775000,0.0,1.000000,0.000000,0.000000,0.000000
1782117454.270299,1953691,0.907715,-0.018066,-0.458984,6.463415,8.170732,1.097561,16.606251,-36.299999,2.775000,0.0,1.000000,0.000000,0.000000,0.000000
1782117454.278299,1953699,0.917969,-0.019531,-0.448242,7.500000,9.024390,1.036585,16.587500,-36.268749,2.793750,0.0,1.000000,0.000000,0.000000,0.000000
1782117454.288299,1953709,0.927734,-0.023926,-0.434082,8.902439,10.670732,1.219512,16.587500,-36.268749,2.793750,0.0,1.000000,0.000000,0.000000,0.000000
1782117454.298299,1953719,0.933594,-0.026367,-0.415527,11.097561,12.256098,1.280488,16.525000,-36.299999,2.956250,0.0,1.000000,0.000000,0.000000,0.000000
1782117454.308299,1953729,0.936523,-0.028809,-0.395020,13.475610,14.146341,1.524390,16.525000,-36.299999,2.956250,0.0,1.000000,0.000000,0.000000,0.000000
1782117454.318299,1953739,0.938965,-0.021484,-0.383789,15.853659,16.524391,1.463415,16.493750,-36.343750,3.112500,0.0,1.000000,0.000000,0.000000,0.000000
1782117454.328299,1953749,0.946289,-0.003418,-0.385254,17.317074,18.719513,0.731707,16.493750,-36.343750,3.112500,0.0,1.000000,0.000000,0.000000,0.000000
1782117454.338299,1953759,0.948242,0.014648,-0.403809,17.195122,20.609756,-0.182927,16.525000,-36.156250,3.112500,0.0,1.000000,0.000000,0.000000,0.000000
1782117454.348299,1953769,0.917480,0.027344,-0.409180,15.792684,22.804878,0.060976,16.525000,-36.156250,3.112500,0.0,1.000000,0.000000,0.000000,0.000000
1782117454.358299,1953779,0.874512,0.025391,-0.412109,14.634147,22.560976,0.731707,16.506250,-36.243752,3.412500,0.0,1.000000,0.000000,0.000000,0.000000
1782117454.368299,1953789,0.848145,-0.002930,-0.421387,13.536586,19.329269,0.548781,16.506250,-36.243752,3.412500,0.0,1.000000,0.000000,0.000000,0.000000
1782117454.378299,1953799,0.848145,-0.040039,-0.431152,11.768293,15.304878,0.365854,16.543751,-36.218750,3.637500,0.0,1.000000,0.000000,0.000000,0.000000
1782117454.388299,1953809,0.886230,-0.070312,-0.439941,10.121951,12.073171,-0.487805,16.543751,-36.218750,3.637500,0.0,1.000000,0.000000,0.000000,0.000000
1782117454.398299,1953819,0.925781,-0.094727,-0.452148,10.304878,11.646341,-1.829268,16.550001,-36.212502,3.843750,0.0,1.000000,0.000000,0.000000,0.000000
1782117454.408299,1953829,0.920410,-0.109863,-0.449707,12.439025,15.243903,-2.439024,16.550001,-36.212502,3.843750,0.0,1.000000,0.000000,0.000000,0.000000
1782117454.418299,1953839,0.886230,-0.106445,-0.444336,15.121951,17.134148,-1.951220,16.612501,-36.174999,3.993750,0.0,1.000000,0.000000,0.000000,0.000000
1782117454.428299,1953849,0.868164,-0.076660,-0.434082,18.048780,15.670732,-2.378049,16.612501,-36.174999,3.993750,0.0,1.000000,0.000000,0.000000,0.000000
1782117454.439299,1953860,0.872070,-0.038086,-0.418945,19.878050,14.451220,-3.231707,16.650000,-36.174999,4.081250,0.0,1.000000,0.000000,0.000000,0.000000
1782117454.448299,1953869,0.894043,-0.011230,-0.392578,21.097561,13.536586,-4.268293,16.650000,-36.174999,4.081250,0.0,1.000000,0.000000,0.000000,0.000000
1782117454.459299,1953880,0.929688,-0.005859,-0.381836,21.646341,11.219512,-4.939024,16.693750,-36.150002,4.143750,0.0,1.000000,0.000000,0.000000,0.000000
1782117454.468299,1953889,0.944824,-0.004395,-0.373047,21.219513,12.134147,-3.597561,16.693750,-36.150002,4.143750,0.0,1.000000,0.000000,0.000000,0.000000
1782117454.479299,1953900,0.934570,-0.005859,-0.358887,18.475611,13.902439,-1.097561,16.618750,-36.200001,4.200000,0.0,1.000000,0.000000,0.000000,0.000000
1782117454.488299,1953909,0.919434,-0.007812,-0.338379,14.512196,12.682927,1.585366,16.618750,-36.200001,4.200000,0.0,1.000000,0.000000,0.000000,0.000000
1782117454.502299,1953923,0.905273,-0.024414,-0.332520,10.365854,10.548780,3.414634,16.556250,-36.243752,4.268750,0.0,1.000000,0.000000,0.000000,0.000000
1782117454.509299,1953930,0.907227,-0.048340,-0.333008,6.646342,8.170732,4.390244,16.556250,-36.243752,4.268750,0.0,1.000000,0.000000,0.000000,0.000000
1782117454.520299,1953941,0.925781,-0.066895,-0.342773,4.024390,6.158537,6.219512,16.512501,-36.218750,4.437500,0.0,1.000000,0.000000,0.000000,0.000000
1782117454.528299,1953949,0.935059,-0.070312,-0.346680,2.012195,6.280488,7.621952,16.512501,-36.218750,4.437500,0.0,1.000000,0.000000,0.000000,0.000000
1782117454.538299,1953959,0.941895,-0.063965,-0.347168,0.000000,6.768293,8.597561,16.400000,-36.325001,4.543750,0.0,1.000000,0.000000,0.000000,0.000000
1782117454.548299,1953969,0.940918,-0.052734,-0.345703,-0.792683,7.134147,8.902439,16.400000,-36.325001,4.543750,0.0,1.000000,0.000000,0.000000,0.000000
1782117454.559299,1953980,0.942871,-0.044922,-0.336914,-1.097561,7.195122,8.414635,16.393751,-36.125000,4.531250,0.0,1.000000,0.000000,0.000000,0.000000
1782117454.568299,1953989,0.943359,-0.042969,-0.324219,-1.951220,7.195122,7.987805,16.393751,-36.125000,4.531250,0.0,1.000000,0.000000,0.000000,0.000000
1782117454.578299,1953999,0.929688,-0.045898,-0.313965,-2.987805,7.012195,7.865854,16.162500,-36.312500,4.737500,0.0,1.000000,0.000000,0.000000,0.000000
1782117454.588299,1954009,0.925293,-0.054688,-0.304199,-3.414634,5.426829,7.743903,16.162500,-36.312500,4.737500,0.0,1.000000,0.000000,0.000000,0.000000
1782117454.598299,1954019,0.925781,-0.066406,-0.298828,-2.926829,3.475610,7.134147,15.943750,-36.556252,4.881250,0.0,1.000000,0.000000,0.000000,0.000000
1782117454.609299,1954030,0.924805,-0.080078,-0.299316,-0.670732,2.439024,5.792683,15.943750,-36.556252,4.881250,0.0,1.000000,0.000000,0.000000,0.000000
1782117454.618299,1954039,0.925293,-0.089355,-0.297363,2.621951,0.792683,4.451220,15.793750,-36.656250,4.987500,0.0,1.000000,0.000000,0.000000,0.000000
1782117454.628299,1954049,0.925781,-0.091797,-0.286133,6.951220,-0.304878,2.743902,15.793750,-36.656250,4.987500,0.0,1.000000,0.000000,0.000000,0.000000
1782117454.638299,1954059,0.926270,-0.090820,-0.280762,10.792684,-2.073171,0.731707,15.687500,-36.737499,4.856250,0.0,1.000000,0.000000,0.000000,0.000000
1782117454.648299,1954069,0.942871,-0.082031,-0.270996,14.207317,-4.268293,-0.853659,15.687500,-36.737499,4.856250,0.0,1.000000,0.000000,0.000000,0.000000
1782117454.658299,1954079,0.952637,-0.070312,-0.248535,17.073172,-4.573171,-2.621951,15.575000,-36.787502,4.737500,0.0,1.000000,0.000000,0.000000,0.000000
1782117454.668299,1954089,0.963379,-0.080078,-0.226562,19.573172,-5.182927,-4.390244,15.575000,-36.787502,4.737500,0.0,1.000000,0.000000,0.000000,0.000000
1782117454.678299,1954099,0.986816,-0.100098,-0.208496,21.646341,-6.280488,-5.121951,15.543750,-36.850002,4.556250,0.0,1.000000,0.000000,0.000000,0.000000
1782117454.688299,1954109,1.015625,-0.112793,-0.188965,23.353659,-5.975610,-5.121951,15.543750,-36.850002,4.556250,0.0,1.000000,0.000000,0.000000,0.000000
1782117454.698299,1954119,1.032227,-0.122559,-0.172852,23.902439,-4.390244,-3.780488,15.587501,-36.806252,4.250000,0.0,1.000000,0.000000,0.000000,0.000000
1782117454.708299,1954129,1.042969,-0.125977,-0.164062,24.268293,-2.560976,-2.073171,15.587501,-36.806252,4.250000,0.0,1.000000,0.000000,0.000000,0.000000
1782117454.718299,1954139,1.056152,-0.109375,-0.151855,24.756098,-0.853659,-0.853659,15.550000,-36.787502,4.075000,0.0,1.000000,0.000000,0.000000,0.000000
1782117454.728299,1954149,1.056641,-0.079102,-0.136230,25.060976,1.158537,-0.975610,15.550000,-36.787502,4.075000,0.0,1.000000,0.000000,0.000000,0.000000
1782117454.739299,1954160,1.051270,-0.046387,-0.131836,23.597561,2.682927,-2.195122,15.537500,-36.781250,3.837500,0.0,1.000000,0.000000,0.000000,0.000000
1782117454.748299,1954169,1.031250,-0.021484,-0.130371,20.609756,4.146341,-3.414634,15.537500,-36.781250,3.837500,0.0,1.000000,0.000000,0.000000,0.000000
1782117454.758299,1954179,1.003906,-0.012207,-0.137695,16.402439,4.695122,-3.902439,15.675000,-36.662502,3.668750,0.0,1.000000,0.000000,0.000000,0.000000
1782117454.769299,1954190,0.977051,-0.010254,-0.155273,11.707317,3.536585,-3.780488,15.675000,-36.662502,3.668750,0.0,1.000000,0.000000,0.000000,0.000000
1782117454.778299,1954199,0.969238,-0.011719,-0.171875,7.012195,0.548781,-3.353659,15.668750,-36.612499,3.668750,0.0,1.000000,0.000000,0.000000,0.000000
1782117454.788299,1954209,0.972168,-0.017090,-0.180176,2.560976,-1.219512,-3.292683,15.668750,-36.612499,3.668750,0.0,1.000000,0.000000,0.000000,0.000000
1782117454.798299,1954219,0.970703,-0.039551,-0.189453,0.000000,-2.317073,-3.902439,15.706250,-36.575001,3.700000,0.0,1.000000,0.000000,0.000000,0.000000
1782117454.808299,1954229,0.978516,-0.070801,-0.192383,-0.609756,-3.963415,-3.963415,15.706250,-36.575001,3.700000,0.0,1.000000,0.000000,0.000000,0.000000
1782117454.819299,1954240,0.981934,-0.081543,-0.194824,-0.121951,-5.487805,-3.780488,15.737500,-36.549999,3.668750,0.0,1.000000,0.000000,0.000000,0.000000
1782117454.828299,1954249,0.993652,-0.083984,-0.187988,1.036585,-6.463415,-4.085366,15.737500,-36.549999,3.668750,0.0,1.000000,0.000000,0.000000,0.000000
1782117454.838299,1954259,0.992188,-0.080566,-0.183105,2.073171,-5.731708,-4.573171,15.800000,-36.575001,3.562500,0.0,1.000000,0.000000,0.000000,0.000000
1782117454.849299,1954270,0.970703,-0.078613,-0.178223,1.646341,-5.426829,-4.817073,15.800000,-36.575001,3.562500,0.0,1.000000,0.000000,0.000000,0.000000
1782117454.859299,1954280,0.974121,-0.073242,-0.177734,0.243902,-6.951220,-5.182927,15.831250,-36.387501,3.475000,0.0,1.000000,0.000000,0.000000,0.000000
1782117454.868299,1954289,1.007324,-0.066895,-0.183105,-1.036585,-7.317073,-6.402439,15.831250,-36.387501,3.475000,0.0,1.000000,0.000000,0.000000,0.000000
1782117454.879299,1954300,1.034180,-0.069824,-0.193848,-1.768293,-5.792683,-7.378049,15.893750,-36.512501,3.475000,0.0,1.000000,0.000000,0.000000,0.000000
1782117454.888299,1954309,1.040039,-0.073242,-0.203125,-2.012195,-3.231707,-7.378049,15.893750,-36.512501,3.475000,0.0,1.000000,0.000000,0.000000,0.000000
1782117454.898299,1954319,1.019531,-0.071777,-0.204102,-1.707317,-1.707317,-7.500000,15.968750,-36.431252,3.406250,0.0,1.000000,0.000000,0.000000,0.000000
1782117454.908299,1954329,1.020508,-0.066895,-0.208008,-1.707317,-2.073171,-6.341464,15.968750,-36.431252,3.406250,0.0,1.000000,0.000000,0.000000,0.000000
1782117454.918299,1954339,1.012695,-0.055176,-0.215332,-2.134146,-0.426829,-5.365854,16.050001,-36.450001,3.387500,0.0,1.000000,0.000000,0.000000,0.000000
1782117454.929299,1954350,0.996582,-0.037598,-0.228027,-3.475610,0.000000,-5.304878,16.050001,-36.450001,3.387500,0.0,1.000000,0.000000,0.000000,0.000000
1782117454.938299,1954359,0.983398,-0.028320,-0.245605,-7.012195,1.097561,-4.451220,16.175001,-36.356251,3.437500,0.0,1.000000,0.000000,0.000000,0.000000
1782117454.948299,1954369,0.983398,-0.028320,-0.245605,-7.012195,1.097561,-4.451220,16.175001,-36.356251,3.437500,0.0,1.000000,0.000000,0.000000,0.000000
1782117454.959299,1954380,0.946289,-0.015137,-0.275391,-12.256098,1.280488,-2.134146,16.287500,-36.293751,3.487500,0.0,1.000000,0.000000,0.000000,0.000000
1782117454.968299,1954389,0.946289,-0.015137,-0.275391,-12.256098,1.280488,-2.134146,16.287500,-36.293751,3.487500,0.0,1.000000,0.000000,0.000000,0.000000
1782117454.978299,1954399,0.949219,-0.033691,-0.295898,-15.060976,-1.402439,-1.341463,16.431250,-36.075001,3.506250,0.0,1.000000,0.000000,0.000000,0.000000
1782117454.989299,1954410,0.948242,-0.048828,-0.310059,-15.000000,-1.097561,-1.158537,16.431250,-36.075001,3.506250,0.0,1.000000,0.000000,0.000000,0.000000
1782117454.999299,1954420,0.940430,-0.056152,-0.318359,-15.304878,-0.792683,-0.975610,16.456251,-36.243752,3.743750,0.0,1.000000,0.000000,0.000000,0.000000
1782117455.009299,1954430,0.934082,-0.051758,-0.327637,-15.792684,-1.097561,-0.853659,16.456251,-36.243752,3.743750,0.0,1.000000,0.000000,0.000000,0.000000
1782117455.019299,1954440,0.925781,-0.048340,-0.332031,-15.731708,-1.768293,-1.036585,16.575001,-36.106251,3.712500,0.0,1.000000,0.000000,0.000000,0.000000
1782117455.028299,1954449,0.923828,-0.053223,-0.334473,-15.365854,-2.621951,-1.585366,16.575001,-36.106251,3.712500,0.0,1.000000,0.000000,0.000000,0.000000
1782117455.038299,1954459,0.933105,-0.062012,-0.340820,-14.878049,-3.231707,-2.012195,16.612501,-36.143749,3.862500,0.0,1.000000,0.000000,0.000000,0.000000
1782117455.048299,1954469,0.949707,-0.069336,-0.351074,-14.024390,-2.500000,-2.195122,16.612501,-36.143749,3.862500,0.0,1.000000,0.000000,0.000000,0.000000
1782117455.058299,1954479,0.953125,-0.070312,-0.356445,-12.926829,-0.609756,-2.134146,16.731251,-36.018749,3.925000,0.0,1.000000,0.000000,0.000000,0.000000
1782117455.068299,1954489,0.953125,-0.065918,-0.355957,-11.707317,0.121951,-2.134146,16.731251,-36.018749,3.925000,0.0,1.000000,0.000000,0.000000,0.000000
1782117455.078299,1954499,0.945312,-0.055176,-0.358887,-9.878049,0.365854,-3.719512,16.743750,-35.981251,3.956250,0.0,1.000000,0.000000,0.000000,0.000000
1782117455.088299,1954509,0.950684,-0.053223,-0.358398,-8.231708,-0.182927,-3.780488,16.743750,-35.981251,3.956250,0.0,1.000000,0.000000,0.000000,0.000000
1782117455.098299,1954519,0.938965,-0.051270,-0.354492,-7.073171,0.243902,-3.536585,16.862501,-35.943752,4.093750,0.0,1.000000,0.000000,0.000000,0.000000
1782117455.108299,1954529,0.930176,-0.043945,-0.355957,-6.768293,-0.731707,-3.353659,16.862501,-35.943752,4.093750,0.0,1.000000,0.000000,0.000000,0.000000
1782117455.118299,1954539,0.933594,-0.039062,-0.363770,-7.987805,-1.036585,-1.402439,16.806250,-35.937500,4.156250,0.0,1.000000,0.000000,0.000000,0.000000
1782117455.128299,1954549,0.936523,-0.027832,-0.364258,-8.414635,-0.426829,-0.487805,16.806250,-35.937500,4.156250,0.0,1.000000,0.000000,0.000000,0.000000
1782117455.138299,1954559,0.933105,-0.021973,-0.363770,-7.865854,-0.243902,-0.365854,16.937500,-35.781250,4.062500,0.0,1.000000,0.000000,0.000000,0.000000
1782117455.149299,1954570,0.929199,-0.022949,-0.358887,-7.439024,-0.182927,-0.304878,16.937500,-35.781250,4.062500,0.0,1.000000,0.000000,0.000000,0.000000
1782117455.158299,1954579,0.923340,-0.017090,-0.358398,-7.682927,-0.548781,0.670732,16.812500,-36.012501,4.218750,0.0,1.000000,0.000000,0.000000,0.000000
1782117455.168299,1954589,0.915527,-0.005859,-0.358398,-9.207317,-0.731707,1.219512,16.812500,-36.012501,4.218750,0.0,1.000000,0.000000,0.000000,0.000000
1782117455.178299,1954599,0.936035,-0.000488,-0.351562,-11.158537,-2.560976,1.402439,16.825001,-35.906250,4.137500,0.0,1.000000,0.000000,0.000000,0.000000
1782117455.188299,1954609,0.967773,-0.013184,-0.348145,-13.353659,-2.378049,3.780488,16.825001,-35.906250,4.137500,0.0,1.000000,0.000000,0.000000,0.000000
1782117455.199299,1954620,0.947754,-0.028320,-0.348145,-14.756098,0.975610,4.085366,16.775000,-35.943752,4.225000,0.0,1.000000,0.000000,0.000000,0.000000
1782117455.208299,1954629,0.910645,-0.039062,-0.348145,-15.304878,0.182927,4.024390,16.775000,-35.943752,4.225000,0.0,1.000000,0.000000,0.000000,0.000000
1782117455.218299,1954639,0.898926,-0.031738,-0.352539,-16.036585,-2.439024,4.695122,16.756250,-35.943752,4.287500,0.0,1.000000,0.000000,0.000000,0.000000
1782117455.229299,1954650,0.908203,-0.008301,-0.349121,-16.646341,-4.329268,4.573171,16.618750,-36.081249,4.362500,0.0,1.000000,0.000000,0.000000,0.000000
1782117455.239299,1954660,0.927734,0.008789,-0.334961,-17.134148,-4.329268,3.475610,16.618750,-36.081249,4.362500,0.0,1.000000,0.000000,0.000000,0.000000
1782117455.248299,1954669,0.934570,0.006836,-0.327637,-18.353659,-2.743902,3.536585,16.618750,-36.081249,4.362500,0.0,1.000000,0.000000,0.000000,0.000000
1782117455.258299,1954679,0.922363,-0.002930,-0.326660,-20.060976,-2.378049,4.085366,16.625000,-35.968750,4.343750,0.0,1.000000,0.000000,0.000000,0.000000
1782117455.268299,1954689,0.905762,-0.015625,-0.332520,-22.621952,-3.109756,5.000000,16.625000,-35.968750,4.343750,0.0,1.000000,0.000000,0.000000,0.000000
1782117455.279299,1954700,0.906738,-0.026855,-0.342285,-24.268293,-4.634146,4.756098,16.550001,-36.093750,4.512500,0.0,1.000000,0.000000,0.000000,0.000000
1782117455.288299,1954709,0.920898,-0.041016,-0.345703,-24.695122,-6.890244,4.573171,16.550001,-36.093750,4.512500,0.0,1.000000,0.000000,0.000000,0.000000
1782117455.298299,1954719,0.964844,-0.054199,-0.339355,-23.658537,-7.500000,4.634146,16.518751,-36.037502,4.531250,0.0,1.000000,0.000000,0.000000,0.000000
1782117455.308299,1954729,0.967773,-0.077148,-0.332520,-23.658537,-1.463415,7.804878,16.393751,-36.150002,4.637500,0.0,1.000000,0.000000,0.000000,0.000000
1782117455.318299,1954739,0.891113,-0.062988,-0.343750,-21.158537,-0.182927,4.268293,16.393751,-36.150002,4.637500,0.0,1.000000,0.000000,0.000000,0.000000
1782117455.328299,1954749,0.909180,-0.053711,-0.344238,-19.756098,-6.219512,3.597561,16.443750,-36.075001,4.725000,0.0,1.000000,0.000000,0.000000,0.000000
1782117455.338299,1954759,0.933594,-0.032227,-0.345215,-18.658537,-7.256098,2.621951,16.443750,-36.075001,4.725000,0.0,1.000000,0.000000,0.000000,0.000000
1782117455.349299,1954770,0.932129,-0.022949,-0.337402,-18.597561,-6.219512,2.378049,16.356251,-36.137501,4.743750,0.0,1.000000,0.000000,0.000000,0.000000
1782117455.358299,1954779,0.912109,-0.011719,-0.338379,-18.780489,-5.914634,2.012195,16.356251,-36.137501,4.743750,0.0,1.000000,0.000000,0.000000,0.000000
1782117455.369299,1954790,0.912109,-0.004395,-0.337891,-18.963415,-7.987805,1.463415,16.437500,-35.931252,4.600000,0.0,1.000000,0.000000,0.000000,0.000000
1782117455.379299,1954800,0.938477,-0.012207,-0.331543,-18.902439,-9.268292,0.914634,16.437500,-35.931252,4.600000,0.0,1.000000,0.000000,0.000000,0.000000
1782117455.388299,1954809,0.947266,-0.027344,-0.331543,-18.414635,-8.841464,0.975610,16.262501,-36.206249,4.731250,0.0,1.000000,0.000000,0.000000,0.000000
1782117455.399299,1954820,0.936035,-0.035645,-0.332031,-18.414635,-9.085366,1.219512,16.262501,-36.206249,4.731250,0.0,1.000000,0.000000,0.000000,0.000000
1782117455.408299,1954829,0.929199,-0.032715,-0.341797,-19.512196,-9.756098,1.951220,16.300001,-36.131252,4.781250,0.0,1.000000,0.000000,0.000000,0.000000
1782117455.419299,1954840,0.925781,-0.020020,-0.356934,-21.463415,-10.548780,2.378049,16.300001,-36.131252,4.781250,0.0,1.000000,0.000000,0.000000,0.000000
1782117455.428299,1954849,0.929199,-0.008301,-0.362793,-22.987806,-10.426829,1.951220,16.156250,-36.275002,4.768750,0.0,1.000000,0.000000,0.000000,0.000000
1782117455.438299,1954859,0.928223,-0.012695,-0.371094,-23.597561,-10.609756,1.463415,16.156250,-36.275002,4.768750,0.0,1.000000,0.000000,0.000000,0.000000
1782117455.448299,1954869,0.928711,-0.033691,-0.374023,-23.109756,-11.097561,1.341463,16.250000,-36.143749,4.675000,0.0,1.000000,0.000000,0.000000,0.000000
1782117455.459299,1954880,0.927246,-0.056641,-0.382324,-21.341463,-11.341464,1.219512,16.250000,-36.143749,4.675000,0.0,1.000000,0.000000,0.000000,0.000000
1782117455.468299,1954889,0.926270,-0.068848,-0.384277,-18.536585,-11.219512,1.158537,16.256250,-36.056252,4.550000,0.0,1.000000,0.000000,0.000000,0.000000
1782117455.478299,1954899,0.927734,-0.068848,-0.391113,-14.817074,-11.402439,1.097561,16.256250,-36.056252,4.550000,0.0,1.000000,0.000000,0.000000,0.000000
1782117455.488299,1954909,0.927734,-0.056152,-0.387207,-10.670732,-10.609756,1.036585,16.181250,-36.112499,4.512500,0.0,1.000000,0.000000,0.000000,0.000000
1782117455.498299,1954919,0.916992,-0.032715,-0.378418,-7.073171,-10.365854,0.792683,16.181250,-36.112499,4.512500,0.0,1.000000,0.000000,0.000000,0.000000
1782117455.508299,1954929,0.920898,-0.009766,-0.370605,-4.695122,-10.853659,0.000000,16.050001,-36.281250,4.462500,0.0,1.000000,0.000000,0.000000,0.000000
1782117455.520299,1954941,0.934570,0.005859,-0.373047,-3.048780,-10.548780,-0.975610,16.050001,-36.281250,4.462500,0.0,1.000000,0.000000,0.000000,0.000000
1782117455.528299,1954949,0.930664,0.002930,-0.383301,-1.463415,-8.414635,-1.646341,16.012501,-36.299999,4.331250,0.0,1.000000,0.000000,0.000000,0.000000
1782117455.538299,1954959,0.917480,-0.005371,-0.400879,1.158537,-7.743903,-1.951220,16.012501,-36.299999,4.331250,0.0,1.000000,0.000000,0.000000,0.000000
1782117455.548299,1954969,0.911133,-0.010254,-0.403320,4.695122,-8.109756,-2.378049,16.018751,-36.299999,4.125000,0.0,1.000000,0.000000,0.000000,0.000000
1782117455.560299,1954981,0.891113,-0.013672,-0.406738,7.134147,-8.231708,-2.439024,16.018751,-36.299999,4.125000,0.0,1.000000,0.000000,0.000000,0.000000
1782117455.568299,1954989,0.892090,-0.004883,-0.424316,8.048780,-10.609756,-2.804878,16.125000,-36.087502,3.806250,0.0,1.000000,0.000000,0.000000,0.000000
1782117455.578299,1954999,0.906738,0.001465,-0.434082,8.048780,-12.317074,-3.353659,16.125000,-36.087502,3.806250,0.0,1.000000,0.000000,0.000000,0.000000
1782117455.588299,1955009,0.902344,-0.007324,-0.447754,7.134147,-12.560976,-3.658537,16.143751,-36.212502,3.700000,0.0,1.000000,0.000000,0.000000,0.000000
1782117455.600299,1955021,0.898926,-0.014160,-0.455566,6.951220,-13.780488,-3.780488,16.143751,-36.212502,3.700000,0.0,1.000000,0.000000,0.000000,0.000000
1782117455.608299,1955029,0.907715,-0.013672,-0.443848,7.012195,-14.268293,-3.780488,16.237501,-36.156250,3.350000,0.0,1.000000,0.000000,0.000000,0.000000
1782117455.618299,1955039,0.915527,0.007812,-0.430664,6.524390,-13.780488,-3.902439,16.237501,-36.156250,3.350000,0.0,1.000000,0.000000,0.000000,0.000000
1782117455.628299,1955049,0.984375,0.028320,-0.407715,4.939024,-13.048780,-1.097561,16.131250,-36.231251,3.137500,0.0,1.000000,0.000000,0.000000,0.000000
1782117455.640299,1955061,0.887695,0.052246,-0.401367,2.317073,-6.829268,-2.378049,16.131250,-36.231251,3.137500,0.0,1.000000,0.000000,0.000000,0.000000
1782117455.648299,1955069,0.865723,0.053223,-0.396484,1.036585,-12.378049,-4.207317,16.118750,-36.275002,3.068750,0.0,1.000000,0.000000,0.000000,0.000000
1782117455.658299,1955079,0.907227,0.049805,-0.406250,-0.182927,-16.158537,-5.548780,16.118750,-36.275002,3.068750,0.0,1.000000,0.000000,0.000000,0.000000
1782117455.668299,1955089,0.947754,0.030273,-0.401855,-1.158537,-14.573171,-4.573171,16.168751,-36.243752,2.762500,0.0,1.000000,0.000000,0.000000,0.000000
1782117455.681299,1955102,0.933105,-0.032715,-0.412598,1.219512,-10.670732,-5.060976,16.168751,-36.243752,2.762500,0.0,1.000000,0.000000,0.000000,0.000000
1782117455.688299,1955109,0.933105,-0.032715,-0.412598,1.219512,-10.670732,-5.060976,16.375000,-35.987499,2.543750,0.0,1.000000,0.000000,0.000000,0.000000
1782117455.698299,1955119,0.944336,-0.055176,-0.419922,3.109756,-10.487805,-4.146341,16.375000,-35.987499,2.543750,0.0,1.000000,0.000000,0.000000,0.000000
1782117455.708299,1955129,0.943359,-0.057617,-0.423828,4.573171,-8.414635,-2.865854,16.293751,-36.193752,2.506250,0.0,1.000000,0.000000,0.000000,0.000000
1782117455.720299,1955141,0.923828,-0.048340,-0.429688,5.609756,-6.585366,-2.195122,16.293751,-36.193752,2.506250,0.0,1.000000,0.000000,0.000000,0.000000
1782117455.728299,1955149,0.908203,-0.028320,-0.432617,5.731708,-6.402439,-2.195122,16.593750,-35.681252,2.087500,0.0,1.000000,0.000000,0.000000,0.000000
1782117455.738299,1955159,0.910645,-0.010742,-0.433594,4.939024,-6.463415,-2.073171,16.593750,-35.681252,2.087500,0.0,1.000000,0.000000,0.000000,0.000000
1782117455.748299,1955169,0.911621,0.003906,-0.433105,4.268293,-5.487805,-2.378049,16.356251,-36.131252,2.193750,0.0,1.000000,0.000000,0.000000,0.000000
1782117455.759299,1955180,0.904785,0.011230,-0.433105,4.329268,-4.634146,-2.439024,16.356251,-36.131252,2.193750,0.0,1.000000,0.000000,0.000000,0.000000
1782117455.768299,1955189,0.903320,0.015137,-0.432617,4.878049,-4.573171,-2.317073,16.550001,-35.831249,1.893750,0.0,1.000000,0.000000,0.000000,0.000000
1782117455.778299,1955199,0.906250,0.018555,-0.431641,4.695122,-4.451220,-1.890244,16.550001,-35.831249,1.893750,0.0,1.000000,0.000000,0.000000,0.000000
1782117455.789299,1955210,0.900391,0.023438,-0.433105,3.780488,-4.451220,-1.341463,16.362501,-36.093750,1.968750,0.0,1.000000,0.000000,0.000000,0.000000
1782117455.802299,1955223,0.891602,0.017578,-0.443848,1.158537,-5.243903,-1.280488,16.362501,-36.093750,1.968750,0.0,1.000000,0.000000,0.000000,0.000000
1782117455.809299,1955230,0.891602,0.017578,-0.443848,1.158537,-5.243903,-1.280488,16.525000,-35.762501,1.687500,0.0,1.000000,0.000000,0.000000,0.000000
1782117455.819299,1955240,0.897949,0.012695,-0.447266,0.121951,-5.243903,-1.585366,16.525000,-35.762501,1.687500,0.0,1.000000,0.000000,0.000000,0.000000
1782117455.829299,1955250,0.893555,0.004395,-0.450684,-0.426829,-4.634146,-1.524390,16.362501,-36.012501,1.825000,0.0,1.000000,0.000000,0.000000,0.000000
1782117455.841299,1955262,0.878906,-0.005859,-0.454102,-0.365854,-5.121951,-1.280488,16.362501,-36.012501,1.825000,0.0,1.000000,0.000000,0.000000,0.000000
1782117455.848299,1955269,0.878906,-0.005859,-0.454102,-0.365854,-5.121951,-1.280488,16.531250,-35.793751,1.562500,0.0,1.000000,0.000000,0.000000,0.000000
1782117455.858299,1955279,0.885254,-0.002930,-0.449219,-0.060976,-5.121951,-1.341463,16.531250,-35.793751,1.562500,0.0,1.000000,0.000000,0.000000,0.000000
1782117455.869299,1955290,0.888672,-0.002930,-0.443359,-0.182927,-5.121951,-1.463415,16.431250,-36.081249,1.668750,0.0,1.000000,0.000000,0.000000,0.000000
1782117455.878299,1955299,0.888184,-0.006348,-0.442383,-0.304878,-5.182927,-1.524390,16.431250,-36.081249,1.668750,0.0,1.000000,0.000000,0.000000,0.000000
1782117455.888299,1955309,0.890625,-0.001465,-0.442871,-0.121951,-5.487805,-1.585366,16.537500,-35.825001,1.493750,0.0,1.000000,0.000000,0.000000,0.000000
1782117455.898299,1955319,0.894043,-0.000977,-0.446289,0.121951,-5.426829,-1.707317,16.537500,-35.825001,1.493750,0.0,1.000000,0.000000,0.000000,0.000000
1782117455.908299,1955329,0.895020,-0.004395,-0.444824,0.670732,-5.731708,-1.646341,16.437500,-35.931252,1.518750,0.0,1.000000,0.000000,0.000000,0.000000
1782117455.920299,1955341,0.899902,-0.008789,-0.435547,1.219512,-5.914634,-1.585366,16.437500,-35.931252,1.518750,0.0,1.000000,0.000000,0.000000,0.000000
1782117455.928299,1955349,0.902832,-0.007812,-0.430176,1.585366,-5.426829,-1.524390,16.512501,-35.987499,1.418750,0.0,1.000000,0.000000,0.000000,0.000000
1782117455.938299,1955359,0.901855,-0.003418,-0.423828,1.707317,-5.365854,-1.524390,16.512501,-35.987499,1.418750,0.0,1.000000,0.000000,0.000000,0.000000
1782117455.948299,1955369,0.905762,0.000977,-0.422363,1.341463,-5.731708,-1.768293,16.575001,-35.762501,1.225000,0.0,1.000000,0.000000,0.000000,0.000000
1782117455.960299,1955381,0.907227,0.002930,-0.427246,0.670732,-5.670732,-2.012195,16.575001,-35.762501,1.225000,0.0,1.000000,0.000000,0.000000,0.000000
1782117455.969299,1955390,0.909180,0.000488,-0.424316,0.182927,-5.670732,-1.951220,16.556250,-35.962502,1.225000,0.0,1.000000,0.000000,0.000000,0.000000
1782117455.979299,1955400,0.907227,-0.004883,-0.422363,0.000000,-5.609756,-1.707317,16.556250,-35.962502,1.225000,0.0,1.000000,0.000000,0.000000,0.000000
1782117455.988299,1955409,0.910645,-0.010742,-0.419434,-0.121951,-5.304878,-1.585366,16.475000,-36.025002,1.193750,0.0,1.000000,0.000000,0.000000,0.000000
1782117456.000299,1955421,0.911621,-0.016113,-0.419922,-0.426829,-5.243903,-1.280488,16.475000,-36.025002,1.193750,0.0,1.000000,0.000000,0.000000,0.000000
1782117456.009299,1955430,0.921387,-0.016602,-0.420410,-0.487805,-5.182927,-1.097561,16.562500,-35.987499,1.118750,0.0,1.000000,0.000000,0.000000,0.000000
1782117456.019299,1955440,0.920410,-0.012207,-0.424316,-0.731707,-4.573171,-0.792683,16.562500,-35.987499,1.118750,0.0,1.000000,0.000000,0.000000,0.000000
1782117456.029299,1955450,0.916504,-0.001953,-0.422363,-0.853659,-4.451220,-0.609756,16.575001,-35.993752,1.068750,0.0,1.000000,0.000000,0.000000,0.000000
1782117456.041299,1955462,0.912109,0.000488,-0.418457,-0.853659,-4.268293,-0.548781,16.575001,-35.993752,1.068750,0.0,1.000000,0.000000,0.000000,0.000000
1782117456.048299,1955469,0.908691,-0.003418,-0.418457,-1.036585,-4.146341,-0.365854,16.618750,-35.912502,0.968750,0.0,1.000000,0.000000,0.000000,0.000000
1782117456.058299,1955479,0.910156,-0.002930,-0.419434,-1.341463,-3.841464,-0.243902,16.618750,-35.912502,0.968750,0.0,1.000000,0.000000,0.000000,0.000000
1782117456.068299,1955489,0.911133,-0.000977,-0.423340,-1.585366,-3.292683,-0.182927,16.556250,-36.006252,0.918750,0.0,1.000000,0.000000,0.000000,0.000000
1782117456.079299,1955500,0.908691,-0.000488,-0.421875,-1.768293,-2.865854,-0.182927,16.556250,-36.006252,0.918750,0.0,1.000000,0.000000,0.000000,0.000000
1782117456.088299,1955509,0.908203,0.004395,-0.423340,-1.951220,-2.621951,-0.182927,16.531250,-36.043751,0.912500,0.0,1.000000,0.000000,0.000000,0.000000
1782117456.098299,1955519,0.906738,0.003906,-0.420898,-2.073171,-2.621951,-0.121951,16.531250,-36.043751,0.912500,0.0,1.000000,0.000000,0.000000,0.000000
1782117456.108299,1955529,0.907227,0.002441,-0.422363,-2.317073,-2.743902,0.121951,16.625000,-35.931252,0.843750,0.0,1.000000,0.000000,0.000000,0.000000
1782117456.122299,1955543,0.908691,0.000000,-0.422852,-2.500000,-2.804878,0.304878,16.625000,-35.931252,0.843750,0.0,1.000000,0.000000,0.000000,0.000000
1782117456.128299,1955549,0.905273,-0.001953,-0.424805,-2.804878,-2.926829,0.548781,16.700001,-35.837502,0.787500,0.0,1.000000,0.000000,0.000000,0.000000
1782117456.138299,1955559,0.906250,-0.003418,-0.430664,-3.170732,-3.231707,0.548781,16.700001,-35.837502,0.787500,0.0,1.000000,0.000000,0.000000,0.000000
1782117456.148299,1955569,0.899902,-0.005859,-0.439941,-3.353659,-3.231707,0.670732,16.587500,-35.981251,0.843750,0.0,1.000000,0.000000,0.000000,0.000000
1782117456.161299,1955582,0.901855,-0.002441,-0.446777,-3.170732,-4.085366,0.731707,16.587500,-35.981251,0.843750,0.0,1.000000,0.000000,0.000000,0.000000
1782117456.168299,1955589,0.902832,0.002930,-0.437988,-2.682927,-3.963415,0.548781,16.606251,-35.937500,0.756250,0.0,1.000000,0.000000,0.000000,0.000000
1782117456.178299,1955599,0.897949,0.003418,-0.437988,-2.682927,-3.963415,0.426829,16.606251,-35.937500,0.756250,0.0,1.000000,0.000000,0.000000,0.000000
1782117456.188299,1955609,0.898926,0.002441,-0.437500,-2.621951,-4.207317,0.182927,16.537500,-36.043751,0.750000,0.0,1.000000,0.000000,0.000000,0.000000
1782117456.201299,1955622,0.900879,0.000488,-0.436523,-2.682927,-3.963415,0.121951,16.537500,-36.043751,0.750000,0.0,1.000000,0.000000,0.000000,0.000000
1782117456.208299,1955629,0.900879,0.000977,-0.433105,-2.804878,-3.475610,0.121951,16.600000,-36.006252,0.706250,0.0,1.000000,0.000000,0.000000,0.000000
1782117456.219299,1955640,0.899414,-0.000977,-0.429199,-2.682927,-3.170732,0.121951,16.600000,-36.006252,0.706250,0.0,1.000000,0.000000,0.000000,0.000000
1782117456.228299,1955649,0.897461,-0.003418,-0.430664,-2.743902,-3.109756,0.182927,16.575001,-36.056252,0.675000,0.0,1.000000,0.000000,0.000000,0.000000
1782117456.241299,1955662,0.900391,-0.004395,-0.432617,-2.682927,-3.353659,0.182927,16.575001,-36.056252,0.675000,0.0,1.000000,0.000000,0.000000,0.000000
1782117456.248299,1955669,0.902344,-0.008301,-0.434570,-2.804878,-3.109756,0.182927,16.556250,-35.987499,0.637500,0.0,1.000000,0.000000,0.000000,0.000000
1782117456.258299,1955679,0.897461,-0.011230,-0.437988,-2.865854,-2.804878,0.243902,16.556250,-35.987499,0.637500,0.0,1.000000,0.000000,0.000000,0.000000
1782117456.268299,1955689,0.895508,-0.012207,-0.439453,-3.170732,-2.987805,0.304878,16.537500,-36.062500,0.668750,0.0,1.000000,0.000000,0.000000,0.000000
1782117456.280299,1955701,0.899414,-0.012695,-0.437988,-3.353659,-2.987805,0.304878,16.537500,-36.062500,0.668750,0.0,1.000000,0.000000,0.000000,0.000000
1782117456.288299,1955709,0.905762,-0.010254,-0.437012,-3.475610,-2.378049,0.243902,16.550001,-36.056252,0.643750,0.0,1.000000,0.000000,0.000000,0.000000
1782117456.298299,1955719,0.909180,-0.006348,-0.438965,-3.353659,-1.524390,0.121951,16.550001,-36.056252,0.643750,0.0,1.000000,0.000000,0.000000,0.000000
1782117456.308299,1955729,0.911621,-0.005859,-0.438477,-2.987805,-0.670732,0.060976,16.506250,-36.137501,0.668750,0.0,1.000000,0.000000,0.000000,0.000000
1782117456.320299,1955741,0.907227,-0.007324,-0.437988,-2.743902,0.304878,0.426829,16.506250,-36.137501,0.668750,0.0,1.000000,0.000000,0.000000,0.000000
1782117456.328299,1955749,0.899414,-0.006836,-0.443359,-2.500000,0.731707,0.365854,16.512501,-36.031250,0.643750,0.0,1.000000,0.000000,0.000000,0.000000
1782117456.338299,1955759,0.895996,-0.008301,-0.446777,-2.378049,0.426829,0.487805,16.512501,-36.031250,0.643750,0.0,1.000000,0.000000,0.000000,0.000000
1782117456.348299,1955769,0.897461,-0.009766,-0.453613,-2.378049,0.000000,0.731707,16.518751,-36.106251,0.718750,0.0,1.000000,0.000000,0.000000,0.000000
1782117456.360299,1955781,0.893066,-0.006348,-0.459961,-2.621951,0.182927,0.853659,16.518751,-36.106251,0.718750,0.0,1.000000,0.000000,0.000000,0.000000
1782117456.368299,1955789,0.888672,-0.002930,-0.462891,-2.682927,0.243902,0.792683,16.525000,-36.087502,0.668750,0.0,1.000000,0.000000,0.000000,0.000000
1782117456.378299,1955799,0.889160,-0.001465,-0.463867,-2.560976,0.365854,0.670732,16.525000,-36.087502,0.668750,0.0,1.000000,0.000000,0.000000,0.000000
1782117456.388299,1955809,0.884766,-0.000977,-0.462891,-2.073171,0.548781,0.365854,16.512501,-36.106251,0.750000,0.0,1.000000,0.000000,0.000000,0.000000
1782117456.399299,1955820,0.885742,-0.000977,-0.459961,-1.585366,0.609756,0.182927,16.512501,-36.106251,0.750000,0.0,1.000000,0.000000,0.000000,0.000000
1782117456.408299,1955829,0.889160,0.000977,-0.460449,-1.219512,0.670732,0.060976,16.500000,-36.125000,0.800000,0.0,1.000000,0.000000,0.000000,0.000000
1782117456.419299,1955840,0.891113,0.003906,-0.463867,-1.036585,0.853659,-0.182927,16.500000,-36.125000,0.800000,0.0,1.000000,0.000000,0.000000,0.000000
1782117456.428299,1955849,0.889160,0.004395,-0.467285,-0.914634,0.975610,-0.304878,16.512501,-36.100002,0.800000,0.0,1.000000,0.000000,0.000000,0.000000
1782117456.438299,1955859,0.886719,0.004395,-0.467773,-0.670732,0.731707,-0.182927,16.512501,-36.100002,0.800000,0.0,1.000000,0.000000,0.000000,0.000000
1782117456.449299,1955870,0.887207,0.000977,-0.463379,-0.365854,0.548781,0.000000,16.512501,-36.087502,0.850000,0.0,1.000000,0.000000,0.000000,0.000000
1782117456.459299,1955880,0.886230,-0.003418,-0.459961,-0.060976,0.487805,0.000000,16.512501,-36.087502,0.850000,0.0,1.000000,0.000000,0.000000,0.000000
1782117456.468299,1955889,0.887695,-0.006836,-0.456055,0.121951,0.487805,-0.121951,16.512501,-36.093750,0.825000,0.0,1.000000,0.000000,0.000000,0.000000
1782117456.482299,1955903,0.892090,-0.011230,-0.458008,0.304878,0.365854,-0.182927,16.512501,-36.093750,0.825000,0.0,1.000000,0.000000,0.000000,0.000000
1782117456.489299,1955910,0.894531,-0.010254,-0.460449,0.426829,0.548781,-0.182927,16.475000,-36.056252,0.856250,0.0,1.000000,0.000000,0.000000,0.000000
1782117456.498299,1955919,0.891602,-0.005859,-0.465332,0.548781,0.731707,-0.182927,16.475000,-36.056252,0.856250,0.0,1.000000,0.000000,0.000000,0.000000
1782117456.508299,1955929,0.889160,-0.003906,-0.464355,0.792683,0.548781,-0.182927,16.500000,-36.087502,0.800000,0.0,1.000000,0.000000,0.000000,0.000000
1782117456.518299,1955939,0.891113,-0.001953,-0.461914,0.975610,0.426829,-0.121951,16.500000,-36.087502,0.800000,0.0,1.000000,0.000000,0.000000,0.000000
1782117456.528299,1955949,0.893555,0.002930,-0.459961,1.036585,0.609756,-0.121951,16.468750,-36.131252,0.837500,0.0,1.000000,0.000000,0.000000,0.000000
1782117456.538299,1955959,0.891602,0.004395,-0.455078,0.914634,0.792683,-0.182927,16.468750,-36.131252,0.837500,0.0,1.000000,0.000000,0.000000,0.000000
1782117456.548299,1955969,0.888672,0.005859,-0.451660,0.731707,0.914634,-0.060976,16.556250,-35.993752,0.793750,0.0,1.000000,0.000000,0.000000,0.000000
1782117456.559299,1955980,0.887207,0.009766,-0.449219,0.304878,0.853659,-0.060976,16.556250,-35.993752,0.793750,0.0,1.000000,0.000000,0.000000,0.000000
1782117456.569299,1955990,0.887695,0.007812,-0.449707,-0.182927,0.670732,-0.243902,16.568750,-35.937500,0.756250,0.0,1.000000,0.000000,0.000000,0.000000
1782117456.578299,1955999,0.889160,0.002441,-0.451660,-0.243902,0.609756,-0.182927,16.568750,-35.937500,0.756250,0.0,1.000000,0.000000,0.000000,0.000000
1782117456.589299,1956010,0.890137,-0.002441,-0.453125,0.000000,0.426829,-0.304878,16.506250,-36.137501,0.818750,0.0,1.000000,0.000000,0.000000,0.000000
1782117456.601299,1956022,0.891113,-0.006348,-0.450195,0.304878,0.426829,-0.182927,16.506250,-36.137501,0.818750,0.0,1.000000,0.000000,0.000000,0.000000
1782117456.608299,1956029,0.892578,-0.005371,-0.448730,0.426829,0.426829,-0.304878,16.537500,-36.081249,0.900000,0.0,1.000000,0.000000,0.000000,0.000000
1782117456.619299,1956040,0.895508,-0.008301,-0.445801,0.731707,0.670732,-0.487805,16.537500,-36.081249,0.900000,0.0,1.000000,0.000000,0.000000,0.000000
1782117456.628299,1956049,0.893066,-0.007812,-0.444824,1.097561,0.914634,-0.487805,16.493750,-36.150002,0.862500,0.0,1.000000,0.000000,0.000000,0.000000
1782117456.638299,1956059,0.891602,-0.004395,-0.441895,1.524390,0.975610,-0.548781,16.493750,-36.150002,0.862500,0.0,1.000000,0.000000,0.000000,0.000000
1782117456.648299,1956069,0.895020,-0.002441,-0.438477,1.829268,1.097561,-0.792683,16.518751,-36.162502,0.925000,0.0,1.000000,0.000000,0.000000,0.000000
1782117456.658299,1956079,0.894043,-0.006348,-0.434082,2.317073,1.280488,-0.914634,16.518751,-36.162502,0.925000,0.0,1.000000,0.000000,0.000000,0.000000
1782117456.668299,1956089,0.896484,-0.007324,-0.438965,2.560976,1.097561,-0.853659,16.562500,-36.187500,0.925000,0.0,1.000000,0.000000,0.000000,0.000000
1782117456.678299,1956099,0.900391,-0.004395,-0.435547,2.926829,1.280488,-0.792683,16.562500,-36.187500,0.925000,0.0,1.000000,0.000000,0.000000,0.000000
1782117456.689299,1956110,0.905273,-0.006348,-0.432129,3.536585,1.402439,-0.609756,16.518751,-36.187500,0.937500,0.0,1.000000,0.000000,0.000000,0.000000
1782117456.698299,1956119,0.905273,-0.006348,-0.432129,3.536585,1.402439,-0.609756,16.518751,-36.187500,0.937500,0.0,1.000000,0.000000,0.000000,0.000000
1782117456.708299,1956129,0.907715,-0.004883,-0.427246,3.902439,1.585366,-0.670732,16.593750,-36.093750,0.962500,0.0,1.000000,0.000000,0.000000,0.000000
1782117456.718299,1956139,0.909180,-0.005859,-0.419922,4.024390,1.829268,-0.670732,16.593750,-36.093750,0.962500,0.0,1.000000,0.000000,0.000000,0.000000
1782117456.729299,1956150,0.910156,-0.003418,-0.419922,3.963415,1.951220,-0.731707,16.593750,-36.200001,0.937500,0.0,1.000000,0.000000,0.000000,0.000000
1782117456.738299,1956159,0.908691,-0.001465,-0.424805,3.536585,2.073171,-0.792683,16.593750,-36.200001,0.937500,0.0,1.000000,0.000000,0.000000,0.000000
1782117456.748299,1956169,0.903809,0.003906,-0.429199,3.292683,2.012195,-0.914634,16.656250,-35.975002,0.806250,0.0,1.000000,0.000000,0.000000,0.000000
1782117456.758299,1956179,0.902344,0.006348,-0.430664,3.109756,1.646341,-0.975610,16.656250,-35.975002,0.806250,0.0,1.000000,0.000000,0.000000,0.000000
1782117456.768299,1956189,0.905762,0.001465,-0.432129,3.048780,1.463415,-1.036585,16.587500,-36.181252,1.018750,0.0,1.000000,0.000000,0.000000,0.000000
1782117456.778299,1956199,0.908203,0.000977,-0.432129,2.926829,1.402439,-0.853659,16.587500,-36.181252,1.018750,0.0,1.000000,0.000000,0.000000,0.000000
1782117456.788299,1956209,0.907227,-0.000488,-0.427734,2.500000,1.341463,-0.243902,16.587500,-36.112499,0.956250,0.0,1.000000,0.000000,0.000000,0.000000
1782117456.799299,1956220,0.908203,0.000488,-0.422363,2.012195,1.158537,0.000000,16.731251,-35.918751,0.887500,0.0,1.000000,0.000000,0.000000,0.000000
1782117456.809299,1956230,0.907227,0.000977,-0.422852,1.402439,1.219512,0.121951,16.731251,-35.918751,0.887500,0.0,1.000000,0.000000,0.000000,0.000000
1782117456.819299,1956240,0.906738,-0.001465,-0.420898,0.853659,1.097561,0.182927,16.681250,-36.137501,0.925000,0.0,1.000000,0.000000,0.000000,0.000000
1782117456.828299,1956249,0.905762,-0.002930,-0.420898,0.487805,1.280488,0.243902,16.681250,-36.137501,0.925000,0.0,1.000000,0.000000,0.000000,0.000000
1782117456.838299,1956259,0.904785,-0.003906,-0.422363,0.365854,1.402439,0.121951,16.681250,-36.137501,0.925000,0.0,1.000000,0.000000,0.000000,0.000000
1782117456.848299,1956269,0.906250,-0.005371,-0.418945,0.609756,1.341463,0.060976,16.600000,-36.168751,0.962500,0.0,1.000000,0.000000,0.000000,0.000000
1782117456.858299,1956279,0.907227,-0.007324,-0.418945,0.731707,1.097561,0.243902,16.600000,-36.168751,0.962500,0.0,1.000000,0.000000,0.000000,0.000000
1782117456.868299,1956289,0.907227,-0.009766,-0.421387,0.548781,1.219512,0.426829,16.612501,-36.100002,1.000000,0.0,1.000000,0.000000,0.000000,0.000000
1782117456.878299,1956299,0.905762,-0.011230,-0.421387,0.792683,1.341463,0.609756,16.612501,-36.100002,1.000000,0.0,1.000000,0.000000,0.000000,0.000000
1782117456.890299,1956311,0.908203,-0.012695,-0.418457,0.853659,1.097561,0.670732,16.656250,-36.068752,1.006250,0.0,1.000000,0.000000,0.000000,0.000000
1782117456.899299,1956320,0.911133,-0.015137,-0.415039,1.036585,1.280488,0.548781,16.637501,-36.143749,1.018750,0.0,1.000000,0.000000,0.000000,0.000000
1782117456.908299,1956329,0.911133,-0.015625,-0.416016,1.097561,1.585366,0.548781,16.637501,-36.143749,1.018750,0.0,1.000000,0.000000,0.000000,0.000000
1782117456.920299,1956341,0.908203,-0.013672,-0.416992,1.402439,1.890244,0.487805,16.718750,-36.068752,0.918750,0.0,1.000000,0.000000,0.000000,0.000000
1782117456.928299,1956349,0.908691,-0.015625,-0.417480,1.768293,1.768293,0.365854,16.718750,-36.068752,0.918750,0.0,1.000000,0.000000,0.000000,0.000000
1782117456.938299,1956359,0.912598,-0.016113,-0.418457,2.012195,1.768293,0.304878,16.668751,-36.131252,1.025000,0.0,1.000000,0.000000,0.000000,0.000000
1782117456.948299,1956369,0.907715,-0.016602,-0.421875,1.890244,1.890244,0.304878,16.668751,-36.131252,1.025000,0.0,1.000000,0.000000,0.000000,0.000000
1782117456.958299,1956379,0.903809,-0.016113,-0.423828,1.951220,1.646341,0.365854,16.612501,-36.187500,1.075000,0.0,1.000000,0.000000,0.000000,0.000000
1782117456.968299,1956389,0.903809,-0.012207,-0.427734,1.829268,1.280488,0.426829,16.612501,-36.187500,1.075000,0.0,1.000000,0.000000,0.000000,0.000000
1782117456.978299,1956399,0.903320,-0.010254,-0.430176,1.707317,1.036585,0.304878,16.643751,-36.143749,1.050000,0.0,1.000000,0.000000,0.000000,0.000000
1782117456.988299,1956409,0.902344,-0.010254,-0.429688,1.768293,0.975610,0.304878,16.643751,-36.143749,1.050000,0.0,1.000000,0.000000,0.000000,0.000000
1782117456.999299,1956420,0.905273,-0.012207,-0.428711,1.829268,0.792683,0.243902,16.743750,-36.056252,0.975000,0.0,1.000000,0.000000,0.000000,0.000000
1782117457.009299,1956430,0.906738,-0.012695,-0.428223,1.890244,1.036585,0.121951,16.743750,-36.056252,0.975000,0.0,1.000000,0.000000,0.000000,0.000000
1782117457.018299,1956439,0.902832,-0.012695,-0.426758,1.951220,1.219512,0.060976,16.650000,-36.162502,1.031250,0.0,1.000000,0.000000,0.000000,0.000000
1782117457.028299,1956449,0.904785,-0.012207,-0.424805,2.195122,1.158537,-0.060976,16.650000,-36.162502,1.031250,0.0,1.000000,0.000000,0.000000,0.000000
1782117457.038299,1956459,0.905273,-0.014160,-0.424805,2.500000,1.097561,-0.060976,16.618750,-36.256252,1.156250,0.0,1.000000,0.000000,0.000000,0.000000
1782117457.048299,1956469,0.902344,-0.014648,-0.425293,2.682927,1.036585,0.000000,16.618750,-36.256252,1.156250,0.0,1.000000,0.000000,0.000000,0.000000
1782117457.058299,1956479,0.902344,-0.015137,-0.427246,2.682927,0.914634,0.060976,16.650000,-36.137501,1.031250,0.0,1.000000,0.000000,0.000000,0.000000
1782117457.068299,1956489,0.902344,-0.015625,-0.429199,2.560976,0.853659,0.000000,16.650000,-36.137501,1.031250,0.0,1.000000,0.000000,0.000000,0.000000
1782117457.078299,1956499,0.904785,-0.015625,-0.424316,2.378049,0.792683,0.060976,16.593750,-36.187500,1.087500,0.0,1.000000,0.000000,0.000000,0.000000
1782117457.089299,1956510,0.906738,-0.016113,-0.422363,2.256098,0.853659,0.060976,16.593750,-36.187500,1.087500,0.0,1.000000,0.000000,0.000000,0.000000
1782117457.098299,1956519,0.908691,-0.013184,-0.420898,1.951220,0.975610,0.060976,16.781250,-35.968750,0.950000,0.0,1.000000,0.000000,0.000000,0.000000
1782117457.108299,1956529,0.907715,-0.013184,-0.420410,1.646341,1.158537,0.060976,16.781250,-35.968750,0.950000,0.0,1.000000,0.000000,0.000000,0.000000
1782117457.118299,1956539,0.908203,-0.014648,-0.418945,1.341463,1.158537,0.121951,16.668751,-36.174999,1.106250,0.0,1.000000,0.000000,0.000000,0.000000
1782117457.129299,1956550,0.907715,-0.014648,-0.416992,0.975610,1.158537,0.243902,16.668751,-36.174999,1.106250,0.0,1.000000,0.000000,0.000000,0.000000
1782117457.138299,1956559,0.907227,-0.017578,-0.416016,0.548781,1.219512,0.365854,16.637501,-36.131252,1.050000,0.0,1.000000,0.000000,0.000000,0.000000
1782117457.148299,1956569,0.907227,-0.020020,-0.418457,0.365854,1.158537,0.426829,16.637501,-36.131252,1.050000,0.0,1.000000,0.000000,0.000000,0.000000
1782117457.158299,1956579,0.909180,-0.020508,-0.418457,0.365854,1.219512,0.426829,16.643751,-36.256252,1.175000,0.0,1.000000,0.000000,0.000000,0.000000
1782117457.169299,1956590,0.908203,-0.021973,-0.419434,0.365854,1.341463,0.426829,16.643751,-36.256252,1.175000,0.0,1.000000,0.000000,0.000000,0.000000
1782117457.179299,1956600,0.907227,-0.021484,-0.420410,0.304878,1.341463,0.365854,16.631250,-36.174999,1.087500,0.0,1.000000,0.000000,0.000000,0.000000
1782117457.189299,1956610,0.906738,-0.020996,-0.419434,0.243902,1.402439,0.243902,16.631250,-36.174999,1.087500,0.0,1.000000,0.000000,0.000000,0.000000
1782117457.199299,1956620,0.904297,-0.018555,-0.421387,0.121951,1.341463,0.182927,16.593750,-36.281250,1.143750,0.0,1.000000,0.000000,0.000000,0.000000
1782117457.208299,1956629,0.904297,-0.016602,-0.423340,-0.060976,1.280488,0.060976,16.593750,-36.281250,1.143750,0.0,1.000000,0.000000,0.000000,0.000000
1782117457.218299,1956639,0.906738,-0.017090,-0.423340,-0.121951,1.219512,-0.060976,16.668751,-36.168751,1.143750,0.0,1.000000,0.000000,0.000000,0.000000
1782117457.228299,1956649,0.908203,-0.017578,-0.423828,-0.060976,1.219512,-0.060976,16.668751,-36.168751,1.143750,0.0,1.000000,0.000000,0.000000,0.000000
1782117457.239299,1956660,0.908203,-0.016113,-0.421875,0.121951,1.341463,0.000000,16.750000,-36.012501,1.031250,0.0,1.000000,0.000000,0.000000,0.000000
1782117457.248299,1956669,0.909180,-0.014648,-0.422363,0.243902,1.341463,-0.060976,16.750000,-36.012501,1.031250,0.0,1.000000,0.000000,0.000000,0.000000
1782117457.259299,1956680,0.908203,-0.014648,-0.419434,0.243902,1.463415,-0.121951,16.656250,-36.181252,1.231250,0.0,1.000000,0.000000,0.000000,0.000000
1782117457.269299,1956690,0.906738,-0.014160,-0.420410,0.243902,1.524390,-0.182927,16.656250,-36.181252,1.231250,0.0,1.000000,0.000000,0.000000,0.000000
1782117457.278299,1956699,0.906250,-0.011230,-0.422363,0.182927,1.402439,-0.121951,16.631250,-36.250000,1.256250,0.0,1.000000,0.000000,0.000000,0.000000
1782117457.288299,1956709,0.904297,-0.011230,-0.422852,-0.182927,1.280488,-0.182927,16.631250,-36.250000,1.256250,0.0,1.000000,0.000000,0.000000,0.000000
1782117457.299299,1956720,0.905273,-0.015137,-0.426270,-0.060976,1.036585,-0.304878,16.681250,-36.150002,1.287500,0.0,1.000000,0.000000,0.000000,0.000000
1782117457.308299,1956729,0.906738,-0.019043,-0.427246,0.000000,0.914634,-0.365854,16.681250,-36.150002,1.287500,0.0,1.000000,0.000000,0.000000,0.000000
1782117457.318299,1956739,0.907227,-0.022461,-0.424805,0.243902,0.975610,-0.304878,16.668751,-36.262501,1.300000,0.0,1.000000,0.000000,0.000000,0.000000
1782117457.330299,1956751,0.905762,-0.024414,-0.422852,0.487805,1.036585,-0.182927,16.668751,-36.262501,1.300000,0.0,1.000000,0.000000,0.000000,0.000000
1782117457.338299,1956759,0.902344,-0.022461,-0.423340,0.487805,0.975610,-0.060976,16.643751,-36.218750,1.306250,0.0,1.000000,0.000000,0.000000,0.000000
1782117457.348299,1956769,0.901855,-0.019043,-0.423340,0.304878,0.914634,-0.121951,16.643751,-36.218750,1.306250,0.0,1.000000,0.000000,0.000000,0.000000
1782117457.358299,1956779,0.900879,-0.018555,-0.423828,0.121951,0.731707,-0.182927,16.675001,-36.181252,1.293750,0.0,1.000000,0.000000,0.000000,0.000000
