Unix_Time_s,RelativeTime_s,P_1,P_2,P_3,P_4,P_5,P_6,P_7,P_8,P_9,P_10,P_11,P_12,P_13,P_14,P_15,P_16,P_17,P_18,P_19,P_20,P_21,P_22,P_23,P_24,P_25,P_26,P_27,P_28,P_29,P_30,P_31,P_32,P_33,P_34,P_35,P_36,P_37,P_38,P_39,P_40,P_41,P_42,P_43,P_44,P_45,P_46,P_47,P_48,P_49,P_50,P_51,P_52,P_53,P_54,P_55,P_56,P_57,P_58,P_59,P_60,P_61,P_62,P_63,P_64,P_65,P_66,P_67,P_68,P_69,P_70,P_71,P_72,P_73,P_74,P_75,P_76,P_77,P_78,P_79,P_80,P_81,P_82,P_83,P_84,P_85,P_86,P_87,P_88,P_89,P_90,P_91,P_92,P_93,P_94,P_95,P_96,P_97,P_98,P_99,P_100,P_101,P_102,P_103,P_104,P_105,P_106,P_107,P_108,P_109,P_110,P_111,P_112,P_113,P_114,P_115,P_116,P_117,P_118,P_119,P_120,P_121,P_122,P_123,P_124,P_125,P_126,P_127,P_128,P_129,P_130,P_131,P_132,P_133,P_134,P_135,P_136,P_137,P_138,P_139,P_140,P_141,P_142,P_143,P_144,P_145,P_146,P_147,P_148,P_149,P_150,P_151,P_152,P_153,P_154,P_155,P_156,P_157,P_158,P_159,P_160,P_161,P_162,P_163,P_164,P_165,P_166,P_167,P_168,P_169,P_170,P_171,P_172,P_173,P_174,P_175,P_176,P_177,P_178,P_179,P_180,P_181,P_182,P_183,P_184,P_185,P_186,P_187,P_188,P_189,P_190,P_191,P_192,P_193,P_194,P_195,P_196,P_197,P_198,P_199,P_200,P_201,P_202,P_203,P_204,P_205,P_206,P_207,P_208,P_209,P_210,P_211,P_212,P_213,P_214,P_215,P_216,P_217,P_218,P_219,P_220,P_221,P_222,P_223,P_224,P_225,P_226,P_227,P_228,P_229,P_230,P_231,P_232,P_233,Flex1,Flex2,Bat,IMU1_RefTime,IMU1_Ax,IMU1_Ay,IMU1_Az,IMU1_Wx,IMU1_Wy,IMU1_Wz,IMU1_Roll,IMU1_Pitch,IMU1_Yaw,IMU1_Hx,IMU1_Hy,IMU1_Hz,IMU1_Q0,IMU1_Q1,IMU1_Q2,IMU1_Q3,IMU2_RefTime,IMU2_Ax,IMU2_Ay,IMU2_Az,IMU2_Wx,IMU2_Wy,IMU2_Wz,IMU2_Roll,IMU2_Pitch,IMU2_Yaw,IMU2_Hx,IMU2_Hy,IMU2_Hz,IMU2_Q0,IMU2_Q1,IMU2_Q2,IMU2_Q3,IMU1_FusedRoll,IMU1_FusedPitch,IMU1_FusedYaw,IMU1_FusedQ0,IMU1_FusedQ1,IMU1_FusedQ2,IMU1_FusedQ3,IMU1_MagValid,IMU2_FusedRoll,IMU2_FusedPitch,IMU2_FusedYaw,IMU2_FusedQ0,IMU2_FusedQ1,IMU2_FusedQ2,IMU2_FusedQ3,IMU2_MagValid
1782117452.470016,0.012,1022.0,1029.0,1019.0,1023.0,1018.0,1029.0,1020.0,1021.0,1007.0,1024.0,1019.0,1030.0,1021.0,1021.0,1007.0,1020.0,1024.0,1019.0,1029.0,1020.0,1021.0,1007.0,1020.0,1021.0,1024.0,1019.0,1030.0,1021.0,1021.0,1007.0,1020.0,1020.0,1021.0,1024.0,1019.0,1030.0,1021.0,1021.0,1008.0,1020.0,1021.0,1021.0,1024.0,1019.0,1030.0,1021.0,1021.0,1007.0,1020.0,1020.0,1020.0,1019.0,1024.0,1019.0,1030.0,1021.0,1021.0,1007.0,1020.0,1020.0,1020.0,1018.0,1025.0,1019.0,1030.0,1021.0,1022.0,1007.0,1020.0,1021.0,1021.0,1020.0,1024.0,1019.0,1030.0,1021.0,1021.0,1007.0,1020.0,1020.0,1021.0,1019.0,1025.0,1019.0,1030.0,1021.0,1022.0,1008.0,1020.0,1020.0,1020.0,1019.0,1027.0,1020.0,1031.0,1021.0,1022.0,1008.0,1020.0,1021.0,1022.0,1020.0,1026.0,1020.0,1031.0,1021.0,1022.0,1008.0,1020.0,1021.0,1021.0,1020.0,1027.0,1021.0,1032.0,1021.0,1024.0,1009.0,1020.0,1022.0,1023.0,1026.0,1020.0,1032.0,1021.0,1024.0,1010.0,1021.0,1022.0,1026.0,1021.0,1032.0,1021.0,1022.0,1009.0,1021.0,1026.0,1021.0,1032.0,1021.0,1024.0,1010.0,1021.0,1025.0,1021.0,1031.0,1021.0,1023.0,1010.0,1019.0,1025.0,1020.0,1031.0,1021.0,1022.0,1009.0,1025.0,1019.0,1030.0,1021.0,1021.0,1009.0,1026.0,1020.0,1031.0,1022.0,1022.0,1010.0,1026.0,1021.0,1032.0,1022.0,1024.0,1011.0,1025.0,1020.0,1031.0,1021.0,1021.0,1010.0,1027.0,1021.0,1032.0,1022.0,1023.0,1012.0,1026.0,1021.0,1032.0,1022.0,1023.0,1013.0,1028.0,1022.0,1033.0,1022.0,1024.0,1014.0,1028.0,1022.0,1033.0,1023.0,1024.0,1014.0,1030.0,1023.0,1035.0,1023.0,1024.0,1018.0,1034.0,1026.0,1039.0,1025.0,1025.0,1023.0,1035.0,1027.0,1040.0,1025.0,1024.0,1024.0,1048.0,1040.0,1056.0,1032.0,1030.0,1107.0,1045.0,1037.0,1055.0,1032.0,1029.0,2260,2228,1901,	00:32:23.342,-0.0078125,0.0478515625,1.0205078125,0.06103515625,0.42724609375,0.1220703125,2.6751708984375,0.4449462890625,-39.4683837890625,39.0,-472.0,-4142.0,-0.94097900390625,-0.023284912109375,0.004241943359375,0.337646484375,2.677308635569725,0.44337815140564824,-43.9419242800101,-0.9270797273116189,-0.023112166369737994,0.005153230322048691,0.37411555860557305,1,	00:32:23.344,0.0283203125,0.06982421875,1.01904296875,-0.3662109375,0.18310546875,0.42724609375,3.955078125,-1.5875244140625,128.84765625,-77.0,696.0,-1792.0,0.43096923828125,0.027374267578125,0.025177001953125,0.901611328125,3.9570084690430565,-1.5871959540487448,121.72911425894559,0.4861211958375207,0.02889831720993932,0.023413877551546013,0.8730995708153416,1
1782117452.482035,0.024,1021.0,1028.0,1020.0,1023.0,1019.0,1029.0,1021.0,1021.0,1007.0,1024.0,1019.0,1030.0,1021.0,1021.0,1007.0,1019.0,1024.0,1019.0,1030.0,1021.0,1021.0,1007.0,1020.0,1020.0,1024.0,1019.0,1029.0,1021.0,1021.0,1007.0,1020.0,1021.0,1020.0,1024.0,1019.0,1030.0,1021.0,1022.0,1007.0,1020.0,1021.0,1020.0,1024.0,1019.0,1030.0,1021.0,1021.0,1007.0,1020.0,1020.0,1020.0,1019.0,1024.0,1019.0,1030.0,1021.0,1021.0,1007.0,1020.0,1020.0,1019.0,1018.0,1025.0,1019.0,1030.0,1021.0,1022.0,1007.0,1020.0,1021.0,1021.0,1020.0,1025.0,1020.0,1030.0,1021.0,1021.0,1007.0,1020.0,1020.0,1021.0,1019.0,1025.0,1020.0,1030.0,1021.0,1022.0,1007.0,1020.0,1021.0,1020.0,1019.0,1026.0,1020.0,1032.0,1021.0,1022.0,1008.0,1020.0,1021.0,1021.0,1021.0,1026.0,1021.0,1031.0,1021.0,1022.0,1008.0,1020.0,1021.0,1021.0,1020.0,1027.0,1021.0,1032.0,1021.0,1024.0,1009.0,1020.0,1022.0,1023.0,1027.0,1021.0,1032.0,1022.0,1024.0,1010.0,1020.0,1022.0,1026.0,1021.0,1032.0,1021.0,1022.0,1009.0,1020.0,1026.0,1021.0,1031.0,1022.0,1024.0,1010.0,1020.0,1026.0,1020.0,1032.0,1021.0,1023.0,1009.0,1020.0,1025.0,1020.0,1031.0,1021.0,1022.0,1009.0,1024.0,1020.0,1030.0,1021.0,1020.0,1008.0,1026.0,1021.0,1031.0,1021.0,1023.0,1010.0,1026.0,1021.0,1031.0,1022.0,1024.0,1012.0,1025.0,1021.0,1031.0,1022.0,1021.0,1009.0,1027.0,1021.0,1032.0,1022.0,1023.0,1012.0,1026.0,1021.0,1032.0,1022.0,1023.0,1012.0,1027.0,1022.0,1033.0,1022.0,1023.0,1014.0,1028.0,1022.0,1033.0,1022.0,1023.0,1014.0,1031.0,1024.0,1035.0,1023.0,1023.0,1018.0,1034.0,1026.0,1038.0,1024.0,1024.0,1023.0,1036.0,1027.0,1040.0,1025.0,1024.0,1024.0,1049.0,1040.0,1056.0,1032.0,1029.0,1108.0,1046.0,1038.0,1055.0,1031.0,1029.0,2261,2228,1901,	00:32:23.353,-0.00830078125,0.04833984375,1.02099609375,0.06103515625,0.3662109375,0.1220703125,2.7520751953125,0.4998779296875,-39.4683837890625,40.0,-469.0,-4145.0,-0.940948486328125,-0.024078369140625,0.0040283203125,0.337646484375,2.7544967715623385,0.49723417938052805,-43.93990507832672,-0.927064526439971,-0.023912465977450757,0.0049690724841446885,0.3741054211130294,1,	00:32:23.354,0.02880859375,0.07080078125,1.01953125,-0.30517578125,0.18310546875,0.48828125,3.9990234375,-1.6644287109375,128.8531494140625,-77.0,697.0,-1787.0,0.430908203125,0.028167724609375,0.02520751953125,0.901611328125,3.998756949626162,-1.6654384286175519,121.7328402609274,0.4860567253270137,0.02967047367939775,0.02340043655988492,0.8731099256822287,1
1782117452.489599,0.031,1022.0,1029.0,1020.0,1023.0,1019.0,1029.0,1021.0,1021.0,1007.0,1024.0,1019.0,1029.0,1021.0,1021.0,1007.0,1020.0,1024.0,1019.0,1030.0,1021.0,1021.0,1007.0,1020.0,1021.0,1024.0,1018.0,1030.0,1021.0,1021.0,1007.0,1020.0,1020.0,1021.0,1024.0,1019.0,1030.0,1021.0,1021.0,1007.0,1020.0,1020.0,1021.0,1024.0,1019.0,1030.0,1021.0,1021.0,1007.0,1020.0,1020.0,1020.0,1018.0,1024.0,1019.0,1029.0,1021.0,1021.0,1007.0,1019.0,1020.0,1020.0,1018.0,1024.0,1020.0,1031.0,1021.0,1022.0,1007.0,1020.0,1020.0,1021.0,1020.0,1025.0,1019.0,1030.0,1021.0,1021.0,1007.0,1019.0,1020.0,1021.0,1019.0,1024.0,1020.0,1030.0,1021.0,1021.0,1007.0,1020.0,1020.0,1021.0,1019.0,1026.0,1020.0,1031.0,1021.0,1023.0,1007.0,1020.0,1021.0,1021.0,1021.0,1026.0,1020.0,1031.0,1022.0,1022.0,1008.0,1020.0,1021.0,1022.0,1020.0,1027.0,1021.0,1033.0,1022.0,1024.0,1009.0,1020.0,1022.0,1023.0,1026.0,1021.0,1032.0,1021.0,1024.0,1008.0,1020.0,1021.0,1026.0,1020.0,1032.0,1022.0,1023.0,1008.0,1020.0,1026.0,1021.0,1032.0,1022.0,1024.0,1009.0,1021.0,1026.0,1021.0,1031.0,1022.0,1023.0,1009.0,1020.0,1025.0,1020.0,1031.0,1022.0,1022.0,1009.0,1024.0,1020.0,1030.0,1021.0,1021.0,1008.0,1026.0,1020.0,1031.0,1022.0,1023.0,1010.0,1027.0,1020.0,1031.0,1022.0,1023.0,1011.0,1025.0,1020.0,1031.0,1021.0,1021.0,1009.0,1027.0,1021.0,1033.0,1022.0,1023.0,1011.0,1027.0,1021.0,1032.0,1022.0,1023.0,1012.0,1028.0,1022.0,1033.0,1023.0,1024.0,1014.0,1028.0,1022.0,1033.0,1022.0,1024.0,1015.0,1031.0,1023.0,1035.0,1023.0,1024.0,1018.0,1035.0,1026.0,1039.0,1025.0,1025.0,1023.0,1036.0,1027.0,1039.0,1025.0,1024.0,1024.0,1050.0,1040.0,1057.0,1032.0,1030.0,1107.0,1046.0,1038.0,1055.0,1032.0,1029.0,2261,2228,1902,	00:32:23.363,-0.00830078125,0.0478515625,1.02099609375,0.1220703125,0.3662109375,0.1220703125,2.669677734375,0.46142578125,-39.4683837890625,41.0,-472.0,-4145.0,-0.94097900390625,-0.0233154296875,0.004058837890625,0.337615966796875,2.672182941273435,0.46333391423834436,-43.939210381904026,-0.9270874623203876,-0.023135937384695996,0.004974488092274345,0.3740973403780024,1,	00:32:23.364,0.02783203125,0.0703125,1.017578125,-0.244140625,0.1220703125,0.42724609375,3.9605712890625,-1.58203125,128.858642578125,-77.0,697.0,-1791.0,0.430908203125,0.02734375,0.02520751953125,0.901641845703125,3.9586773427906596,-1.581011893105503,121.73825017126941,0.48605315573149044,0.028856434349133528,0.02345517287688087,0.873137727317649,1
1782117452.500155,0.042,1022.0,1029.0,1019.0,1023.0,1019.0,1029.0,1021.0,1021.0,1007.0,1024.0,1018.0,1029.0,1021.0,1021.0,1007.0,1020.0,1024.0,1019.0,1030.0,1021.0,1021.0,1006.0,1020.0,1021.0,1024.0,1019.0,1030.0,1020.0,1021.0,1006.0,1020.0,1020.0,1021.0,1025.0,1019.0,1030.0,1021.0,1022.0,1007.0,1020.0,1021.0,1021.0,1024.0,1019.0,1030.0,1021.0,1021.0,1007.0,1020.0,1020.0,1020.0,1019.0,1025.0,1019.0,1030.0,1020.0,1021.0,1007.0,1020.0,1019.0,1019.0,1018.0,1025.0,1019.0,1030.0,1021.0,1022.0,1007.0,1020.0,1021.0,1021.0,1019.0,1025.0,1019.0,1030.0,1021.0,1021.0,1007.0,1020.0,1021.0,1021.0,1018.0,1024.0,1019.0,1031.0,1021.0,1022.0,1007.0,1019.0,1021.0,1021.0,1019.0,1026.0,1020.0,1031.0,1022.0,1023.0,1008.0,1020.0,1021.0,1021.0,1021.0,1026.0,1020.0,1031.0,1021.0,1022.0,1008.0,1020.0,1021.0,1022.0,1020.0,1027.0,1021.0,1033.0,1022.0,1024.0,1009.0,1021.0,1022.0,1023.0,1027.0,1021.0,1032.0,1022.0,1024.0,1009.0,1020.0,1022.0,1026.0,1020.0,1031.0,1021.0,1023.0,1009.0,1020.0,1025.0,1021.0,1032.0,1022.0,1024.0,1009.0,1020.0,1026.0,1020.0,1031.0,1021.0,1023.0,1009.0,1020.0,1025.0,1020.0,1031.0,1021.0,1023.0,1010.0,1025.0,1020.0,1030.0,1021.0,1021.0,1008.0,1026.0,1020.0,1031.0,1022.0,1023.0,1010.0,1026.0,1021.0,1031.0,1022.0,1024.0,1011.0,1025.0,1020.0,1030.0,1021.0,1022.0,1009.0,1027.0,1020.0,1032.0,1022.0,1023.0,1012.0,1026.0,1021.0,1032.0,1022.0,1024.0,1012.0,1027.0,1021.0,1033.0,1022.0,1024.0,1013.0,1028.0,1022.0,1033.0,1022.0,1024.0,1015.0,1030.0,1024.0,1035.0,1024.0,1024.0,1018.0,1035.0,1026.0,1039.0,1024.0,1025.0,1023.0,1036.0,1028.0,1040.0,1025.0,1024.0,1024.0,1049.0,1041.0,1057.0,1032.0,1030.0,1108.0,1046.0,1038.0,1056.0,1032.0,1030.0,2261,2229,1901,	00:32:23.373,-0.00830078125,0.0478515625,1.0205078125,0.0,0.42724609375,0.18310546875,2.7630615234375,0.4833984375,-39.462890625,38.0,-470.0,-4145.0,-0.94097900390625,-0.02410888671875,0.004180908203125,0.337615966796875,2.7623891161736696,0.4833576709508662,-43.93643704796167,-0.9270757711815762,-0.023931191755608955,0.005106386710682624,0.3740745077708487,1,	00:32:23.374,0.02734375,0.07080078125,1.01904296875,-0.18310546875,0.18310546875,0.48828125,3.988037109375,-1.494140625,128.8641357421875,-77.0,695.0,-1789.0,0.430877685546875,0.0267333984375,0.0257568359375,0.901641845703125,3.98541558769724,-1.4924569537679904,121.74247827761813,0.4860427052879573,0.028294566606751004,0.024036201243718767,0.8731461316221194,1
1782117452.510262,0.052,1021.0,1028.0,1020.0,1023.0,1018.0,1030.0,1021.0,1021.0,1007.0,1024.0,1019.0,1029.0,1021.0,1021.0,1007.0,1020.0,1024.0,1019.0,1030.0,1020.0,1021.0,1006.0,1020.0,1020.0,1024.0,1019.0,1030.0,1021.0,1022.0,1007.0,1020.0,1020.0,1020.0,1024.0,1019.0,1029.0,1021.0,1022.0,1007.0,1020.0,1021.0,1021.0,1024.0,1019.0,1029.0,1021.0,1021.0,1007.0,1020.0,1020.0,1021.0,1019.0,1024.0,1019.0,1030.0,1020.0,1021.0,1007.0,1020.0,1020.0,1020.0,1018.0,1025.0,1020.0,1030.0,1021.0,1022.0,1007.0,1020.0,1021.0,1021.0,1019.0,1025.0,1019.0,1030.0,1020.0,1022.0,1007.0,1020.0,1020.0,1020.0,1019.0,1025.0,1020.0,1031.0,1021.0,1022.0,1007.0,1020.0,1020.0,1021.0,1019.0,1026.0,1020.0,1031.0,1021.0,1023.0,1008.0,1020.0,1022.0,1021.0,1021.0,1027.0,1020.0,1030.0,1021.0,1023.0,1008.0,1020.0,1021.0,1021.0,1020.0,1027.0,1021.0,1032.0,1022.0,1024.0,1009.0,1021.0,1023.0,1023.0,1027.0,1021.0,1032.0,1022.0,1024.0,1009.0,1020.0,1022.0,1026.0,1020.0,1031.0,1021.0,1023.0,1009.0,1020.0,1026.0,1020.0,1032.0,1022.0,1024.0,1009.0,1021.0,1026.0,1020.0,1031.0,1021.0,1023.0,1010.0,1020.0,1025.0,1020.0,1031.0,1021.0,1022.0,1009.0,1025.0,1020.0,1030.0,1021.0,1020.0,1008.0,1026.0,1020.0,1031.0,1022.0,1023.0,1010.0,1026.0,1020.0,1031.0,1022.0,1024.0,1011.0,1025.0,1019.0,1031.0,1021.0,1022.0,1010.0,1027.0,1021.0,1032.0,1022.0,1023.0,1012.0,1027.0,1021.0,1032.0,1022.0,1023.0,1012.0,1027.0,1022.0,1034.0,1022.0,1024.0,1014.0,1028.0,1022.0,1033.0,1022.0,1023.0,1014.0,1031.0,1024.0,1035.0,1023.0,1024.0,1017.0,1035.0,1026.0,1039.0,1025.0,1026.0,1023.0,1036.0,1027.0,1040.0,1025.0,1024.0,1024.0,1050.0,1040.0,1056.0,1032.0,1031.0,1108.0,1046.0,1038.0,1055.0,1031.0,1030.0,2261,2229,1902,	00:32:23.383,-0.0078125,0.0478515625,1.02099609375,0.0,0.3662109375,0.18310546875,2.6806640625,0.439453125,-39.462890625,39.0,-471.0,-4143.0,-0.94097900390625,-0.023345947265625,0.0042724609375,0.33758544921875,2.683003541208917,0.4412928580388202,-43.9350721897317,-0.9271011709024284,-0.023151745085195193,0.005187310383239515,0.3740594971683573,1,	00:32:23.384,0.02880859375,0.07080078125,1.01953125,-0.18310546875,0.1220703125,0.48828125,3.9715576171875,-1.58203125,128.86962890625,-78.0,697.0,-1790.0,0.430816650390625,0.02740478515625,0.02532958984375,0.90167236328125,3.9738161464337534,-1.5827267110794199,121.74769592577024,0.4859768116366943,0.028931763794051223,0.023565622627857285,0.8731747551466198,1
1782117452.521342,0.063,1022.0,1028.0,1020.0,1024.0,1019.0,1029.0,1020.0,1020.0,1007.0,1024.0,1019.0,1030.0,1021.0,1021.0,1007.0,1020.0,1024.0,1019.0,1029.0,1021.0,1021.0,1007.0,1020.0,1021.0,1024.0,1019.0,1029.0,1021.0,1021.0,1007.0,1020.0,1021.0,1020.0,1025.0,1019.0,1029.0,1021.0,1022.0,1007.0,1020.0,1020.0,1020.0,1024.0,1019.0,1030.0,1021.0,1021.0,1007.0,1020.0,1020.0,1020.0,1019.0,1024.0,1019.0,1029.0,1021.0,1021.0,1007.0,1019.0,1020.0,1020.0,1018.0,1025.0,1019.0,1030.0,1021.0,1022.0,1007.0,1021.0,1021.0,1021.0,1019.0,1025.0,1019.0,1030.0,1021.0,1022.0,1007.0,1020.0,1020.0,1021.0,1019.0,1025.0,1019.0,1030.0,1021.0,1022.0,1007.0,1020.0,1020.0,1020.0,1020.0,1026.0,1020.0,1031.0,1021.0,1022.0,1008.0,1020.0,1021.0,1021.0,1020.0,1026.0,1020.0,1031.0,1021.0,1022.0,1008.0,1020.0,1021.0,1021.0,1020.0,1027.0,1021.0,1032.0,1021.0,1024.0,1009.0,1021.0,1023.0,1023.0,1027.0,1021.0,1032.0,1022.0,1024.0,1009.0,1021.0,1022.0,1026.0,1021.0,1032.0,1021.0,1023.0,1008.0,1020.0,1026.0,1021.0,1032.0,1021.0,1024.0,1010.0,1021.0,1026.0,1020.0,1032.0,1022.0,1023.0,1009.0,1020.0,1026.0,1020.0,1030.0,1021.0,1022.0,1009.0,1025.0,1019.0,1030.0,1021.0,1020.0,1008.0,1026.0,1020.0,1031.0,1022.0,1023.0,1010.0,1026.0,1021.0,1032.0,1022.0,1024.0,1011.0,1025.0,1019.0,1030.0,1022.0,1022.0,1010.0,1027.0,1021.0,1032.0,1023.0,1023.0,1012.0,1027.0,1021.0,1032.0,1022.0,1023.0,1012.0,1028.0,1022.0,1033.0,1023.0,1024.0,1014.0,1028.0,1022.0,1033.0,1023.0,1023.0,1015.0,1031.0,1024.0,1035.0,1023.0,1024.0,1018.0,1035.0,1026.0,1039.0,1024.0,1025.0,1022.0,1035.0,1027.0,1040.0,1025.0,1024.0,1024.0,1050.0,1041.0,1057.0,1033.0,1030.0,1108.0,1046.0,1039.0,1055.0,1031.0,1029.0,2261,2229,1901,	00:32:23.394,-0.0078125,0.04736328125,1.021484375,0.0,0.3662109375,0.1220703125,2.5927734375,0.4339599609375,-39.462890625,40.0,-469.0,-4141.0,-0.941009521484375,-0.022552490234375,0.00408935546875,0.33758544921875,2.592156737427778,0.43344137583005904,-43.934374861617734,-0.9271223324566826,-0.022391154693919123,0.004954150657875875,0.37405651076115803,1,	00:32:23.395,0.0283203125,0.0703125,1.01953125,-0.1220703125,0.18310546875,0.42724609375,3.8836669921875,-1.5985107421875,128.8751220703125,-78.0,696.0,-1791.0,0.4307861328125,0.02716064453125,0.0245361328125,0.901702880859375,3.882129649935447,-1.5958488125647805,121.7545927422754,0.48594308938127234,0.028641482689706517,0.022812951734883943,0.8732230806529693,1
1782117452.530100,0.072,1022.0,1029.0,1020.0,1024.0,1019.0,1029.0,1020.0,1021.0,1008.0,1024.0,1019.0,1029.0,1021.0,1021.0,1007.0,1020.0,1024.0,1019.0,1030.0,1021.0,1021.0,1007.0,1020.0,1020.0,1024.0,1019.0,1029.0,1021.0,1021.0,1007.0,1020.0,1020.0,1020.0,1025.0,1019.0,1030.0,1021.0,1022.0,1007.0,1020.0,1021.0,1020.0,1024.0,1019.0,1030.0,1021.0,1021.0,1007.0,1020.0,1020.0,1020.0,1018.0,1024.0,1018.0,1029.0,1021.0,1021.0,1007.0,1019.0,1020.0,1020.0,1018.0,1025.0,1020.0,1030.0,1021.0,1022.0,1008.0,1020.0,1021.0,1021.0,1020.0,1025.0,1019.0,1030.0,1021.0,1022.0,1007.0,1020.0,1020.0,1020.0,1019.0,1025.0,1019.0,1030.0,1021.0,1022.0,1007.0,1020.0,1020.0,1020.0,1019.0,1026.0,1020.0,1031.0,1021.0,1022.0,1007.0,1020.0,1021.0,1022.0,1020.0,1026.0,1020.0,1031.0,1022.0,1022.0,1008.0,1020.0,1021.0,1021.0,1020.0,1028.0,1020.0,1032.0,1021.0,1024.0,1009.0,1020.0,1023.0,1023.0,1026.0,1020.0,1032.0,1021.0,1023.0,1009.0,1021.0,1021.0,1026.0,1020.0,1031.0,1022.0,1022.0,1009.0,1020.0,1026.0,1021.0,1031.0,1022.0,1024.0,1009.0,1021.0,1026.0,1019.0,1031.0,1022.0,1023.0,1009.0,1020.0,1025.0,1020.0,1030.0,1021.0,1023.0,1009.0,1025.0,1019.0,1030.0,1021.0,1021.0,1009.0,1026.0,1020.0,1031.0,1021.0,1023.0,1010.0,1026.0,1021.0,1031.0,1022.0,1024.0,1011.0,1025.0,1020.0,1031.0,1022.0,1022.0,1009.0,1027.0,1021.0,1032.0,1023.0,1023.0,1012.0,1025.0,1021.0,1032.0,1022.0,1023.0,1012.0,1028.0,1022.0,1033.0,1023.0,1024.0,1014.0,1028.0,1022.0,1033.0,1023.0,1023.0,1014.0,1031.0,1024.0,1034.0,1023.0,1024.0,1018.0,1034.0,1027.0,1038.0,1025.0,1026.0,1022.0,1035.0,1027.0,1040.0,1025.0,1024.0,1024.0,1049.0,1040.0,1057.0,1032.0,1031.0,1108.0,1046.0,1038.0,1055.0,1032.0,1030.0,2261,2229,1902,	00:32:23.404,-0.0078125,0.04833984375,1.02099609375,0.0,0.42724609375,0.1220703125,2.6861572265625,0.439453125,-39.4573974609375,39.0,-471.0,-4142.0,-0.941009521484375,-0.023345947265625,0.0042724609375,0.337554931640625,2.6836801701542345,0.4411101888160288,-43.932263780730025,-0.9271102210038025,-0.023156750536652504,0.005190429558656206,0.37403671271127964,1,	00:32:23.405,0.02783203125,0.07080078125,1.02001953125,-0.18310546875,0.1220703125,0.42724609375,3.966064453125,-1.56005859375,128.8751220703125,-76.0,696.0,-1789.0,0.430755615234375,0.027191162109375,0.02532958984375,0.901702880859375,3.9647906226937946,-1.559894959651369,121.75660907132466,0.48591851938435543,0.028717768025309006,0.02359607743842862,0.8732134375102573,1
1782117452.541159,0.083,1021.0,1029.0,1020.0,1023.0,1018.0,1030.0,1021.0,1021.0,1007.0,1024.0,1019.0,1029.0,1021.0,1021.0,1007.0,1020.0,1024.0,1019.0,1029.0,1021.0,1022.0,1007.0,1020.0,1020.0,1024.0,1018.0,1029.0,1021.0,1021.0,1006.0,1020.0,1021.0,1020.0,1025.0,1020.0,1030.0,1021.0,1022.0,1007.0,1020.0,1020.0,1020.0,1025.0,1019.0,1029.0,1021.0,1022.0,1007.0,1021.0,1021.0,1020.0,1018.0,1024.0,1018.0,1029.0,1021.0,1021.0,1007.0,1020.0,1019.0,1019.0,1018.0,1025.0,1019.0,1030.0,1021.0,1022.0,1007.0,1020.0,1021.0,1021.0,1019.0,1024.0,1019.0,1030.0,1021.0,1022.0,1007.0,1020.0,1021.0,1020.0,1019.0,1025.0,1020.0,1030.0,1021.0,1021.0,1007.0,1020.0,1021.0,1020.0,1019.0,1027.0,1020.0,1031.0,1021.0,1022.0,1007.0,1020.0,1021.0,1022.0,1021.0,1026.0,1020.0,1031.0,1021.0,1022.0,1008.0,1020.0,1021.0,1021.0,1021.0,1027.0,1021.0,1032.0,1022.0,1024.0,1009.0,1021.0,1022.0,1023.0,1026.0,1020.0,1032.0,1021.0,1024.0,1009.0,1020.0,1021.0,1026.0,1021.0,1032.0,1021.0,1023.0,1009.0,1020.0,1026.0,1021.0,1031.0,1021.0,1024.0,1009.0,1021.0,1026.0,1020.0,1031.0,1022.0,1024.0,1009.0,1021.0,1026.0,1020.0,1030.0,1022.0,1022.0,1009.0,1025.0,1019.0,1030.0,1021.0,1021.0,1008.0,1026.0,1020.0,1031.0,1022.0,1023.0,1010.0,1026.0,1020.0,1031.0,1023.0,1024.0,1011.0,1025.0,1019.0,1031.0,1021.0,1021.0,1009.0,1028.0,1021.0,1032.0,1023.0,1024.0,1011.0,1027.0,1021.0,1032.0,1022.0,1023.0,1012.0,1028.0,1022.0,1033.0,1023.0,1024.0,1014.0,1028.0,1021.0,1033.0,1023.0,1023.0,1014.0,1031.0,1024.0,1035.0,1024.0,1024.0,1017.0,1035.0,1026.0,1038.0,1024.0,1025.0,1022.0,1036.0,1027.0,1039.0,1025.0,1025.0,1023.0,1050.0,1040.0,1057.0,1033.0,1031.0,1109.0,1047.0,1038.0,1055.0,1032.0,1030.0,2261,2230,1902,	00:32:23.414,-0.0078125,0.048828125,1.02197265625,0.06103515625,0.42724609375,0.18310546875,2.7740478515625,0.439453125,-39.4573974609375,39.0,-473.0,-4142.0,-0.94097900390625,-0.024078369140625,0.00457763671875,0.337554931640625,2.7756578969920933,0.43890080831066947,-43.92953318287579,-0.9271004912687185,-0.023893817645466425,0.005507957820660011,0.3740099289701705,1,	00:32:23.415,0.0283203125,0.06982421875,1.0205078125,-0.18310546875,0.18310546875,0.42724609375,3.8836669921875,-1.5985107421875,128.880615234375,-77.0,695.0,-1789.0,0.43072509765625,0.027191162109375,0.0245361328125,0.9017333984375,3.881363093904535,-1.6002083561277252,121.76324700991935,0.4858759479402472,0.028669714442210968,0.02279075693666711,0.8732600941788318,1
1782117452.550992,0.093,1022.0,1029.0,1020.0,1024.0,1019.0,1029.0,1021.0,1020.0,1007.0,1024.0,1019.0,1029.0,1021.0,1021.0,1007.0,1020.0,1024.0,1019.0,1030.0,1021.0,1022.0,1006.0,1020.0,1020.0,1024.0,1019.0,1030.0,1021.0,1021.0,1007.0,1020.0,1020.0,1020.0,1025.0,1019.0,1030.0,1021.0,1021.0,1007.0,1020.0,1021.0,1021.0,1025.0,1018.0,1029.0,1021.0,1022.0,1006.0,1020.0,1020.0,1020.0,1019.0,1024.0,1019.0,1029.0,1021.0,1021.0,1006.0,1019.0,1020.0,1020.0,1018.0,1025.0,1019.0,1030.0,1021.0,1021.0,1007.0,1020.0,1021.0,1021.0,1020.0,1025.0,1020.0,1030.0,1021.0,1022.0,1007.0,1020.0,1020.0,1020.0,1019.0,1025.0,1019.0,1029.0,1021.0,1022.0,1007.0,1020.0,1020.0,1020.0,1020.0,1026.0,1020.0,1031.0,1021.0,1022.0,1007.0,1020.0,1021.0,1021.0,1021.0,1027.0,1020.0,1031.0,1021.0,1022.0,1008.0,1020.0,1021.0,1021.0,1020.0,1027.0,1021.0,1032.0,1022.0,1024.0,1009.0,1021.0,1023.0,1023.0,1027.0,1021.0,1032.0,1022.0,1024.0,1009.0,1021.0,1022.0,1027.0,1020.0,1031.0,1021.0,1023.0,1009.0,1020.0,1026.0,1020.0,1031.0,1021.0,1024.0,1009.0,1021.0,1026.0,1020.0,1031.0,1022.0,1023.0,1009.0,1020.0,1025.0,1020.0,1030.0,1021.0,1023.0,1009.0,1025.0,1020.0,1030.0,1021.0,1021.0,1008.0,1026.0,1020.0,1031.0,1022.0,1023.0,1010.0,1026.0,1021.0,1032.0,1022.0,1024.0,1011.0,1025.0,1020.0,1030.0,1021.0,1021.0,1009.0,1027.0,1021.0,1032.0,1022.0,1023.0,1012.0,1027.0,1021.0,1032.0,1023.0,1023.0,1012.0,1028.0,1022.0,1032.0,1022.0,1023.0,1014.0,1028.0,1022.0,1033.0,1022.0,1023.0,1014.0,1031.0,1024.0,1035.0,1023.0,1024.0,1018.0,1035.0,1027.0,1038.0,1025.0,1025.0,1022.0,1036.0,1027.0,1039.0,1025.0,1024.0,1023.0,1050.0,1040.0,1057.0,1032.0,1031.0,1109.0,1047.0,1038.0,1055.0,1032.0,1030.0,2261,2230,1901,	00:32:23.424,-0.00732421875,0.04736328125,1.0224609375,-0.06103515625,0.42724609375,0.1220703125,2.6861572265625,0.4229736328125,-39.4573974609375,39.0,-471.0,-4143.0,-0.941009521484375,-0.0233154296875,0.00445556640625,0.3375244140625,2.6859018932562755,0.4222252358008002,-43.928776813724305,-0.927123173438874,-0.02311327349218833,0.005349779008409783,0.3740050504012857,1,	00:32:23.425,0.02880859375,0.0703125,1.01953125,-0.1220703125,0.18310546875,0.48828125,3.9715576171875,-1.6204833984375,128.8861083984375,-76.0,696.0,-1788.0,0.4306640625,0.027679443359375,0.025146484375,0.9017333984375,3.9691884080361586,-1.6190020651844665,121.76573930144369,0.4858287579432108,0.029184722190138613,0.023380847467495185,0.873253689323866,1
1782117452.561154,0.103,1022.0,1028.0,1020.0,1024.0,1019.0,1028.0,1021.0,1021.0,1007.0,1024.0,1019.0,1029.0,1021.0,1021.0,1006.0,1020.0,1024.0,1019.0,1030.0,1021.0,1021.0,1007.0,1020.0,1021.0,1024.0,1019.0,1029.0,1021.0,1021.0,1007.0,1020.0,1020.0,1020.0,1025.0,1019.0,1029.0,1021.0,1022.0,1007.0,1020.0,1021.0,1021.0,1024.0,1019.0,1030.0,1021.0,1022.0,1007.0,1019.0,1020.0,1020.0,1019.0,1024.0,1019.0,1029.0,1020.0,1021.0,1007.0,1019.0,1020.0,1020.0,1018.0,1025.0,1019.0,1030.0,1021.0,1022.0,1007.0,1020.0,1021.0,1021.0,1020.0,1025.0,1020.0,1029.0,1021.0,1022.0,1007.0,1020.0,1020.0,1020.0,1019.0,1025.0,1019.0,1030.0,1021.0,1022.0,1007.0,1020.0,1020.0,1021.0,1019.0,1027.0,1020.0,1031.0,1021.0,1023.0,1008.0,1020.0,1021.0,1022.0,1021.0,1026.0,1020.0,1031.0,1021.0,1023.0,1008.0,1020.0,1022.0,1021.0,1021.0,1027.0,1021.0,1032.0,1022.0,1024.0,1008.0,1021.0,1023.0,1023.0,1027.0,1021.0,1031.0,1022.0,1024.0,1009.0,1021.0,1022.0,1026.0,1020.0,1031.0,1022.0,1023.0,1009.0,1020.0,1027.0,1020.0,1031.0,1022.0,1024.0,1009.0,1021.0,1026.0,1020.0,1031.0,1022.0,1023.0,1009.0,1020.0,1026.0,1020.0,1030.0,1021.0,1023.0,1009.0,1025.0,1019.0,1029.0,1021.0,1021.0,1008.0,1026.0,1020.0,1030.0,1022.0,1023.0,1010.0,1027.0,1021.0,1031.0,1022.0,1023.0,1011.0,1025.0,1020.0,1030.0,1021.0,1022.0,1009.0,1028.0,1021.0,1032.0,1023.0,1023.0,1012.0,1027.0,1021.0,1032.0,1023.0,1023.0,1012.0,1028.0,1022.0,1032.0,1023.0,1023.0,1014.0,1028.0,1021.0,1033.0,1022.0,1024.0,1014.0,1031.0,1024.0,1035.0,1024.0,1024.0,1019.0,1035.0,1026.0,1038.0,1025.0,1025.0,1023.0,1036.0,1027.0,1039.0,1025.0,1024.0,1024.0,1050.0,1040.0,1057.0,1033.0,1031.0,1109.0,1047.0,1038.0,1055.0,1033.0,1030.0,2261,2230,1902,	00:32:23.434,-0.00732421875,0.0478515625,1.0205078125,0.0,0.42724609375,0.18310546875,2.6751708984375,0.3350830078125,-39.451904296875,39.0,-471.0,-4141.0,-0.9410400390625,-0.022979736328125,0.005126953125,0.337493896484375,2.675812175947343,0.33529885073168314,-43.926814294121556,-0.9271405592700012,-0.02274814677620447,0.0060198004591264466,0.37397415308706844,1,	00:32:23.436,0.0283203125,0.07080078125,1.02001953125,-0.1220703125,0.1220703125,0.42724609375,3.9715576171875,-1.527099609375,128.8916015625,-77.0,697.0,-1790.0,0.4306640625,0.026947021484375,0.0255126953125,0.9017333984375,3.9718336699004975,-1.5265206505001963,121.76997727141169,0.48582560550073506,0.028490671074088095,0.023794831107678605,0.8732671806006163,1
1782117452.571691,0.113,1022.0,1028.0,1020.0,1024.0,1019.0,1029.0,1021.0,1020.0,1006.0,1024.0,1019.0,1030.0,1021.0,1021.0,1007.0,1019.0,1024.0,1019.0,1029.0,1021.0,1021.0,1007.0,1020.0,1020.0,1024.0,1019.0,1029.0,1021.0,1022.0,1007.0,1020.0,1021.0,1021.0,1025.0,1019.0,1030.0,1021.0,1022.0,1007.0,1020.0,1020.0,1021.0,1025.0,1019.0,1029.0,1021.0,1021.0,1007.0,1020.0,1020.0,1020.0,1019.0,1025.0,1019.0,1029.0,1021.0,1021.0,1007.0,1020.0,1020.0,1020.0,1018.0,1025.0,1019.0,1030.0,1021.0,1022.0,1007.0,1020.0,1022.0,1021.0,1020.0,1025.0,1020.0,1030.0,1021.0,1022.0,1007.0,1020.0,1020.0,1020.0,1019.0,1025.0,1019.0,1030.0,1021.0,1022.0,1007.0,1019.0,1021.0,1020.0,1019.0,1027.0,1020.0,1031.0,1021.0,1023.0,1007.0,1020.0,1022.0,1021.0,1020.0,1027.0,1020.0,1031.0,1022.0,1022.0,1008.0,1020.0,1021.0,1021.0,1021.0,1028.0,1021.0,1031.0,1022.0,1024.0,1009.0,1021.0,1023.0,1023.0,1027.0,1021.0,1032.0,1022.0,1024.0,1009.0,1020.0,1022.0,1026.0,1020.0,1031.0,1022.0,1023.0,1009.0,1020.0,1027.0,1020.0,1031.0,1022.0,1025.0,1009.0,1021.0,1027.0,1020.0,1030.0,1022.0,1023.0,1009.0,1020.0,1026.0,1020.0,1030.0,1022.0,1022.0,1009.0,1025.0,1019.0,1030.0,1022.0,1021.0,1008.0,1026.0,1020.0,1030.0,1022.0,1023.0,1010.0,1026.0,1021.0,1031.0,1022.0,1024.0,1011.0,1026.0,1020.0,1030.0,1021.0,1022.0,1009.0,1027.0,1022.0,1031.0,1023.0,1023.0,1011.0,1027.0,1021.0,1031.0,1023.0,1023.0,1012.0,1028.0,1022.0,1033.0,1023.0,1024.0,1014.0,1028.0,1022.0,1033.0,1023.0,1023.0,1014.0,1031.0,1024.0,1034.0,1024.0,1024.0,1018.0,1035.0,1026.0,1038.0,1025.0,1025.0,1023.0,1036.0,1027.0,1039.0,1026.0,1024.0,1024.0,1051.0,1040.0,1056.0,1033.0,1031.0,1110.0,1047.0,1038.0,1055.0,1033.0,1031.0,2262,2230,1901,	00:32:23.445,-0.0087890625,0.0478515625,1.02197265625,0.0,0.42724609375,0.18310546875,2.6806640625,0.428466796875,-39.451904296875,39.0,-472.0,-4142.0,-0.9410400390625,-0.023284912109375,0.004364013671875,0.337493896484375,2.678731204322847,0.4311052729380751,-43.9247663009687,-0.9271367620037944,-0.02308441194111161,0.00525371669718948,0.37397450839237456,1,	00:32:23.446,0.02880859375,0.06982421875,1.01904296875,-0.06103515625,0.1220703125,0.42724609375,3.922119140625,-1.60400390625,128.8970947265625,-78.0,696.0,-1788.0,0.43060302734375,0.02740478515625,0.02484130859375,0.90179443359375,3.9248091952327986,-1.604725209800927,121.77559106076443,0.48576952470974777,0.02888584051459286,0.023105769532047845,0.8733038992786893,1
1782117452.585765,0.127,1022.0,1028.0,1020.0,1024.0,1018.0,1029.0,1021.0,1021.0,1007.0,1024.0,1019.0,1029.0,1021.0,1021.0,1007.0,1020.0,1024.0,1019.0,1029.0,1021.0,1022.0,1007.0,1020.0,1021.0,1025.0,1019.0,1029.0,1022.0,1021.0,1006.0,1019.0,1020.0,1020.0,1025.0,1019.0,1029.0,1021.0,1022.0,1007.0,1020.0,1021.0,1021.0,1025.0,1019.0,1029.0,1022.0,1021.0,1007.0,1020.0,1021.0,1020.0,1018.0,1024.0,1019.0,1029.0,1021.0,1020.0,1007.0,1020.0,1020.0,1020.0,1018.0,1025.0,1020.0,1030.0,1022.0,1022.0,1007.0,1020.0,1021.0,1021.0,1020.0,1026.0,1020.0,1029.0,1022.0,1021.0,1007.0,1019.0,1020.0,1020.0,1019.0,1025.0,1019.0,1030.0,1021.0,1022.0,1007.0,1020.0,1020.0,1020.0,1019.0,1027.0,1021.0,1031.0,1022.0,1022.0,1008.0,1020.0,1022.0,1021.0,1020.0,1026.0,1020.0,1031.0,1021.0,1023.0,1008.0,1020.0,1021.0,1021.0,1020.0,1028.0,1021.0,1032.0,1022.0,1024.0,1008.0,1020.0,1022.0,1022.0,1027.0,1021.0,1032.0,1022.0,1024.0,1009.0,1020.0,1022.0,1027.0,1021.0,1031.0,1021.0,1023.0,1008.0,1020.0,1027.0,1020.0,1032.0,1022.0,1024.0,1009.0,1021.0,1026.0,1020.0,1031.0,1022.0,1023.0,1009.0,1020.0,1026.0,1020.0,1030.0,1021.0,1023.0,1009.0,1025.0,1020.0,1030.0,1021.0,1021.0,1008.0,1026.0,1021.0,1030.0,1022.0,1023.0,1010.0,1026.0,1020.0,1031.0,1023.0,1024.0,1011.0,1026.0,1020.0,1030.0,1022.0,1022.0,1009.0,1027.0,1021.0,1032.0,1023.0,1024.0,1011.0,1026.0,1021.0,1032.0,1023.0,1023.0,1012.0,1028.0,1022.0,1033.0,1023.0,1024.0,1013.0,1029.0,1022.0,1033.0,1023.0,1023.0,1014.0,1031.0,1024.0,1035.0,1023.0,1024.0,1018.0,1035.0,1026.0,1038.0,1025.0,1025.0,1023.0,1036.0,1028.0,1039.0,1026.0,1024.0,1024.0,1051.0,1040.0,1057.0,1033.0,1030.0,1109.0,1047.0,1038.0,1055.0,1032.0,1030.0,2262,2230,1902,	00:32:23.455,-0.0078125,0.046875,1.02099609375,-0.06103515625,0.42724609375,0.18310546875,2.5872802734375,0.4449462890625,-39.451904296875,39.0,-472.0,-4142.0,-0.9410400390625,-0.0225830078125,0.003936767578125,0.337493896484375,2.5873946315948575,0.44769122486756824,-43.92343341086897,-0.927157480414008,-0.022399581843300587,0.004821168263566809,0.37397061593415065,1,	00:32:23.456,0.02880859375,0.0703125,1.0185546875,-0.06103515625,0.06103515625,0.42724609375,4.0045166015625,-1.6424560546875,128.8970947265625,-77.0,696.0,-1790.0,0.430572509765625,0.02801513671875,0.025360107421875,0.901763916015625,4.006587810313445,-1.6438437505757713,121.77755820468299,0.4857210176517399,0.029530052469377805,0.023563391297396402,0.8732971061460583,1
1782117452.592123,0.134,1022.0,1028.0,1020.0,1024.0,1019.0,1028.0,1021.0,1021.0,1007.0,1024.0,1018.0,1029.0,1021.0,1021.0,1006.0,1020.0,1025.0,1019.0,1029.0,1021.0,1022.0,1007.0,1019.0,1020.0,1024.0,1020.0,1030.0,1021.0,1021.0,1007.0,1020.0,1021.0,1021.0,1025.0,1019.0,1030.0,1021.0,1022.0,1007.0,1020.0,1021.0,1020.0,1025.0,1019.0,1030.0,1021.0,1021.0,1006.0,1020.0,1020.0,1020.0,1019.0,1025.0,1019.0,1029.0,1021.0,1021.0,1007.0,1019.0,1020.0,1020.0,1018.0,1026.0,1019.0,1030.0,1021.0,1022.0,1007.0,1020.0,1021.0,1021.0,1019.0,1025.0,1019.0,1029.0,1021.0,1022.0,1007.0,1020.0,1021.0,1020.0,1019.0,1025.0,1019.0,1030.0,1021.0,1021.0,1007.0,1020.0,1021.0,1021.0,1019.0,1028.0,1020.0,1031.0,1022.0,1023.0,1008.0,1020.0,1021.0,1021.0,1020.0,1027.0,1020.0,1031.0,1022.0,1022.0,1008.0,1020.0,1021.0,1021.0,1020.0,1028.0,1021.0,1032.0,1022.0,1024.0,1008.0,1021.0,1024.0,1023.0,1027.0,1021.0,1032.0,1021.0,1024.0,1009.0,1021.0,1022.0,1026.0,1020.0,1031.0,1022.0,1023.0,1009.0,1020.0,1026.0,1020.0,1032.0,1022.0,1024.0,1009.0,1020.0,1026.0,1020.0,1031.0,1022.0,1023.0,1009.0,1020.0,1025.0,1020.0,1031.0,1022.0,1023.0,1009.0,1025.0,1020.0,1031.0,1021.0,1021.0,1008.0,1026.0,1020.0,1031.0,1022.0,1023.0,1009.0,1026.0,1021.0,1031.0,1022.0,1024.0,1010.0,1025.0,1020.0,1030.0,1022.0,1021.0,1009.0,1027.0,1022.0,1032.0,1022.0,1023.0,1012.0,1027.0,1021.0,1031.0,1023.0,1023.0,1012.0,1028.0,1022.0,1033.0,1023.0,1024.0,1014.0,1028.0,1022.0,1034.0,1023.0,1024.0,1014.0,1031.0,1023.0,1035.0,1024.0,1024.0,1018.0,1035.0,1027.0,1039.0,1026.0,1025.0,1023.0,1037.0,1027.0,1040.0,1026.0,1024.0,1024.0,1050.0,1040.0,1057.0,1033.0,1030.0,1110.0,1046.0,1039.0,1055.0,1032.0,1030.0,2262,2230,1902,	00:32:23.465,-0.0087890625,0.048828125,1.0205078125,0.0,0.42724609375,0.18310546875,2.6751708984375,0.4779052734375,-39.4464111328125,38.0,-470.0,-4142.0,-0.9410400390625,-0.02337646484375,0.00396728515625,0.337493896484375,2.6751888646348627,0.47798169356742426,-43.92070228950864,-0.9271456621485231,-0.02320883875864851,0.004862037932899142,0.3739500388418095,1,	00:32:23.466,0.02978515625,0.0712890625,1.0185546875,-0.06103515625,0.1220703125,0.42724609375,3.9935302734375,-1.73583984375,128.902587890625,-77.0,695.0,-1789.0,0.43048095703125,0.0286865234375,0.024932861328125,0.90179443359375,3.995881223947468,-1.7340327379848552,121.78220170376567,0.48565877572524363,0.030170669875222263,0.02310003674498586,0.8733222043110538,1
1782117452.602676,0.144,1022.0,1028.0,1020.0,1024.0,1019.0,1029.0,1021.0,1021.0,1007.0,1024.0,1019.0,1029.0,1021.0,1021.0,1006.0,1020.0,1024.0,1018.0,1029.0,1021.0,1021.0,1006.0,1020.0,1021.0,1025.0,1019.0,1029.0,1021.0,1022.0,1007.0,1019.0,1021.0,1020.0,1025.0,1019.0,1030.0,1021.0,1022.0,1007.0,1020.0,1021.0,1021.0,1025.0,1019.0,1030.0,1021.0,1021.0,1006.0,1020.0,1020.0,1020.0,1019.0,1024.0,1019.0,1029.0,1020.0,1021.0,1006.0,1020.0,1020.0,1019.0,1018.0,1025.0,1019.0,1030.0,1021.0,1022.0,1008.0,1020.0,1021.0,1021.0,1020.0,1025.0,1019.0,1030.0,1021.0,1022.0,1007.0,1020.0,1021.0,1020.0,1019.0,1025.0,1019.0,1030.0,1021.0,1022.0,1006.0,1020.0,1020.0,1020.0,1019.0,1027.0,1020.0,1030.0,1022.0,1022.0,1008.0,1020.0,1021.0,1022.0,1020.0,1027.0,1020.0,1031.0,1022.0,1023.0,1008.0,1020.0,1021.0,1022.0,1020.0,1028.0,1021.0,1032.0,1022.0,1024.0,1008.0,1021.0,1023.0,1023.0,1028.0,1021.0,1031.0,1022.0,1024.0,1009.0,1021.0,1022.0,1027.0,1021.0,1031.0,1022.0,1023.0,1009.0,1020.0,1026.0,1021.0,1031.0,1022.0,1025.0,1009.0,1020.0,1026.0,1020.0,1031.0,1022.0,1024.0,1008.0,1021.0,1026.0,1020.0,1030.0,1022.0,1022.0,1009.0,1026.0,1019.0,1030.0,1021.0,1021.0,1008.0,1026.0,1020.0,1031.0,1022.0,1023.0,1010.0,1026.0,1021.0,1031.0,1022.0,1024.0,1011.0,1025.0,1020.0,1031.0,1021.0,1022.0,1009.0,1028.0,1021.0,1032.0,1022.0,1024.0,1011.0,1027.0,1021.0,1032.0,1022.0,1024.0,1012.0,1028.0,1022.0,1033.0,1023.0,1024.0,1013.0,1028.0,1022.0,1033.0,1023.0,1023.0,1014.0,1032.0,1024.0,1035.0,1024.0,1024.0,1018.0,1036.0,1027.0,1039.0,1025.0,1025.0,1023.0,1036.0,1028.0,1039.0,1025.0,1024.0,1024.0,1050.0,1040.0,1057.0,1033.0,1031.0,1108.0,1047.0,1038.0,1055.0,1032.0,1030.0,2262,2230,1902,	00:32:23.476,-0.00732421875,0.04833984375,1.02099609375,0.0,0.3662109375,0.18310546875,2.7191162109375,0.4010009765625,-39.4464111328125,39.0,-470.0,-4141.0,-0.9410400390625,-0.02349853515625,0.00469970703125,0.337432861328125,2.7179047316754743,0.4004436005262988,-43.91837495382997,-0.9271529463474629,-0.023301647743527897,0.005628354074809712,0.3739154569178219,1,	00:32:23.477,0.029296875,0.07177734375,1.01904296875,0.0,0.06103515625,0.3662109375,4.0264892578125,-1.64794921875,128.902587890625,-77.0,697.0,-1789.0,0.43048095703125,0.028106689453125,0.0255126953125,0.90179443359375,4.027051744775927,-1.6475040756096642,121.78497607167819,0.48565800093723027,0.029643137668874994,0.023705721533937314,0.8733244696453619,1
1782117452.613235,0.155,1022.0,1029.0,1020.0,1024.0,1019.0,1029.0,1021.0,1021.0,1006.0,1024.0,1019.0,1029.0,1021.0,1021.0,1006.0,1020.0,1024.0,1019.0,1029.0,1021.0,1021.0,1007.0,1020.0,1021.0,1024.0,1019.0,1030.0,1021.0,1021.0,1007.0,1020.0,1021.0,1020.0,1025.0,1019.0,1030.0,1021.0,1022.0,1006.0,1020.0,1021.0,1020.0,1025.0,1020.0,1030.0,1022.0,1021.0,1007.0,1020.0,1021.0,1020.0,1019.0,1025.0,1019.0,1029.0,1021.0,1021.0,1007.0,1019.0,1020.0,1020.0,1018.0,1026.0,1020.0,1030.0,1021.0,1022.0,1007.0,1020.0,1021.0,1021.0,1020.0,1025.0,1019.0,1030.0,1021.0,1022.0,1007.0,1020.0,1020.0,1020.0,1019.0,1025.0,1020.0,1030.0,1021.0,1022.0,1007.0,1020.0,1021.0,1021.0,1019.0,1026.0,1021.0,1031.0,1021.0,1023.0,1007.0,1020.0,1021.0,1021.0,1020.0,1028.0,1020.0,1031.0,1021.0,1022.0,1007.0,1020.0,1021.0,1021.0,1020.0,1028.0,1021.0,1032.0,1021.0,1024.0,1009.0,1021.0,1023.0,1023.0,1027.0,1021.0,1031.0,1022.0,1024.0,1009.0,1021.0,1022.0,1026.0,1021.0,1031.0,1022.0,1024.0,1008.0,1020.0,1027.0,1020.0,1032.0,1022.0,1024.0,1009.0,1020.0,1026.0,1020.0,1031.0,1022.0,1023.0,1009.0,1020.0,1026.0,1020.0,1030.0,1021.0,1023.0,1009.0,1025.0,1019.0,1030.0,1021.0,1021.0,1008.0,1026.0,1020.0,1031.0,1022.0,1023.0,1010.0,1027.0,1020.0,1031.0,1022.0,1024.0,1011.0,1025.0,1019.0,1030.0,1021.0,1022.0,1009.0,1027.0,1021.0,1032.0,1022.0,1024.0,1012.0,1027.0,1021.0,1032.0,1022.0,1023.0,1012.0,1028.0,1022.0,1033.0,1023.0,1024.0,1014.0,1028.0,1022.0,1033.0,1023.0,1024.0,1014.0,1031.0,1024.0,1035.0,1023.0,1024.0,1018.0,1035.0,1027.0,1038.0,1025.0,1025.0,1023.0,1036.0,1027.0,1039.0,1025.0,1024.0,1024.0,1051.0,1041.0,1057.0,1033.0,1031.0,1111.0,1047.0,1038.0,1055.0,1032.0,1031.0,2261,2230,1901,	00:32:23.486,-0.00732421875,0.048828125,1.02099609375,0.0,0.3662109375,0.18310546875,2.801513671875,0.4449462890625,-39.44091796875,39.0,-472.0,-4142.0,-0.9410400390625,-0.024322509765625,0.00457763671875,0.337432861328125,2.799770499611071,0.445083650110172,-43.91576837770966,-0.9271396765783413,-0.024109734906742224,0.005533735979018703,0.3738985404665953,1,	00:32:23.487,0.0283203125,0.07177734375,1.01953125,0.0,0.1220703125,0.3662109375,4.0264892578125,-1.5545654296875,128.9080810546875,-78.0,698.0,-1788.0,0.43048095703125,0.027374267578125,0.025848388671875,0.90179443359375,4.027035666480215,-1.5549057673756201,121.78871385544426,0.4856598114719395,0.028936961320522637,0.0240996953317066,0.8733363638802026,1
1782117452.623309,0.165,1022.0,1029.0,1020.0,1024.0,1019.0,1028.0,1020.0,1021.0,1006.0,1024.0,1019.0,1030.0,1021.0,1021.0,1006.0,1020.0,1024.0,1019.0,1029.0,1021.0,1021.0,1006.0,1020.0,1020.0,1024.0,1019.0,1029.0,1021.0,1021.0,1006.0,1020.0,1021.0,1020.0,1026.0,1019.0,1030.0,1021.0,1022.0,1007.0,1020.0,1021.0,1021.0,1025.0,1019.0,1030.0,1021.0,1021.0,1007.0,1020.0,1020.0,1020.0,1018.0,1024.0,1018.0,1029.0,1021.0,1021.0,1007.0,1019.0,1020.0,1020.0,1018.0,1025.0,1019.0,1030.0,1021.0,1022.0,1007.0,1020.0,1021.0,1021.0,1020.0,1025.0,1019.0,1030.0,1021.0,1022.0,1007.0,1020.0,1020.0,1020.0,1019.0,1025.0,1019.0,1030.0,1021.0,1022.0,1007.0,1021.0,1020.0,1021.0,1019.0,1027.0,1020.0,1031.0,1022.0,1022.0,1007.0,1020.0,1022.0,1021.0,1021.0,1027.0,1020.0,1031.0,1021.0,1023.0,1007.0,1020.0,1021.0,1021.0,1020.0,1028.0,1021.0,1032.0,1022.0,1024.0,1008.0,1021.0,1023.0,1023.0,1027.0,1020.0,1032.0,1022.0,1024.0,1009.0,1020.0,1022.0,1027.0,1020.0,1032.0,1022.0,1023.0,1009.0,1020.0,1027.0,1020.0,1032.0,1022.0,1024.0,1009.0,1020.0,1027.0,1021.0,1031.0,1022.0,1023.0,1009.0,1020.0,1026.0,1020.0,1031.0,1022.0,1022.0,1009.0,1025.0,1020.0,1030.0,1021.0,1021.0,1008.0,1026.0,1020.0,1031.0,1022.0,1024.0,1010.0,1027.0,1020.0,1031.0,1022.0,1024.0,1010.0,1026.0,1019.0,1031.0,1021.0,1021.0,1009.0,1028.0,1021.0,1032.0,1023.0,1023.0,1012.0,1027.0,1021.0,1032.0,1023.0,1023.0,1012.0,1028.0,1022.0,1033.0,1023.0,1023.0,1014.0,1029.0,1022.0,1033.0,1023.0,1024.0,1014.0,1032.0,1024.0,1035.0,1024.0,1024.0,1017.0,1036.0,1027.0,1039.0,1025.0,1025.0,1022.0,1037.0,1028.0,1039.0,1025.0,1024.0,1024.0,1051.0,1040.0,1058.0,1032.0,1031.0,1110.0,1048.0,1039.0,1056.0,1031.0,1030.0,2262,2230,1902,	00:32:23.496,-0.0078125,0.04833984375,1.02099609375,-0.06103515625,0.42724609375,0.18310546875,2.7081298828125,0.439453125,-39.44091796875,37.0,-468.0,-4140.0,-0.9410400390625,-0.023529052734375,0.00433349609375,0.337432861328125,2.707902285685366,0.4419225682220275,-43.91443716397221,-0.927163393727965,-0.0233561894917978,0.005259286079012328,0.3738915212373836,1,	00:32:23.497,0.02783203125,0.0703125,1.01953125,0.1220703125,0.244140625,0.42724609375,3.9385986328125,-1.56005859375,128.91357421875,-77.0,695.0,-1791.0,0.430450439453125,0.027069091796875,0.025115966796875,0.90185546875,3.9368157256112846,-1.5584691755853193,121.79562986937826,0.4856285939900794,0.028580316037351235,0.023398691479007926,0.8733845289856548,1
1782117452.633859,0.176,1022.0,1028.0,1020.0,1024.0,1018.0,1029.0,1021.0,1021.0,1007.0,1025.0,1019.0,1028.0,1021.0,1021.0,1006.0,1020.0,1024.0,1019.0,1029.0,1021.0,1022.0,1006.0,1020.0,1021.0,1024.0,1019.0,1029.0,1021.0,1022.0,1006.0,1019.0,1021.0,1020.0,1024.0,1019.0,1029.0,1021.0,1022.0,1007.0,1020.0,1021.0,1021.0,1025.0,1019.0,1029.0,1021.0,1021.0,1006.0,1019.0,1021.0,1020.0,1018.0,1024.0,1019.0,1029.0,1021.0,1021.0,1007.0,1019.0,1019.0,1020.0,1018.0,1026.0,1019.0,1030.0,1021.0,1022.0,1007.0,1020.0,1022.0,1021.0,1020.0,1026.0,1019.0,1029.0,1021.0,1022.0,1007.0,1019.0,1020.0,1020.0,1019.0,1025.0,1019.0,1030.0,1021.0,1022.0,1006.0,1019.0,1021.0,1021.0,1019.0,1028.0,1021.0,1031.0,1022.0,1023.0,1007.0,1020.0,1022.0,1022.0,1021.0,1027.0,1021.0,1031.0,1021.0,1022.0,1007.0,1020.0,1021.0,1022.0,1020.0,1028.0,1021.0,1032.0,1022.0,1025.0,1008.0,1021.0,1023.0,1023.0,1027.0,1021.0,1031.0,1022.0,1024.0,1009.0,1021.0,1022.0,1027.0,1020.0,1032.0,1022.0,1024.0,1008.0,1020.0,1027.0,1021.0,1031.0,1022.0,1025.0,1009.0,1020.0,1027.0,1020.0,1031.0,1022.0,1023.0,1009.0,1020.0,1026.0,1020.0,1031.0,1021.0,1023.0,1009.0,1025.0,1019.0,1029.0,1021.0,1021.0,1008.0,1027.0,1020.0,1031.0,1022.0,1024.0,1010.0,1026.0,1021.0,1032.0,1023.0,1024.0,1011.0,1026.0,1020.0,1030.0,1021.0,1022.0,1009.0,1027.0,1022.0,1032.0,1023.0,1024.0,1011.0,1027.0,1021.0,1032.0,1022.0,1023.0,1012.0,1028.0,1022.0,1033.0,1023.0,1024.0,1013.0,1029.0,1023.0,1033.0,1023.0,1024.0,1014.0,1031.0,1024.0,1035.0,1024.0,1025.0,1017.0,1035.0,1026.0,1038.0,1026.0,1026.0,1022.0,1037.0,1028.0,1039.0,1025.0,1025.0,1024.0,1051.0,1040.0,1057.0,1033.0,1031.0,1110.0,1047.0,1039.0,1055.0,1032.0,1030.0,2261,2230,1901,	00:32:23.507,-0.0078125,0.0478515625,1.02099609375,0.0,0.42724609375,0.18310546875,2.6202392578125,0.4339599609375,-39.44091796875,39.0,-473.0,-4141.0,-0.941070556640625,-0.02276611328125,0.004150390625,0.33740234375,2.6175310268024936,0.43140428138766,-43.91309501977272,-0.9271870123362113,-0.022590740418220057,0.005049266249463873,0.37388287940576914,1,	00:32:23.508,0.02880859375,0.0703125,1.01904296875,0.06103515625,0.244140625,0.42724609375,3.955078125,-1.64794921875,128.9190673828125,-77.0,694.0,-1789.0,0.430389404296875,0.02783203125,0.024932861328125,0.90185546875,3.953514952588866,-1.6464837942331483,121.79960769851698,0.48556573799651065,0.029320742786104644,0.023153354565861022,0.8734014714315076,1
1782117452.643566,0.185,1022.0,1028.0,1020.0,1024.0,1018.0,1029.0,1021.0,1020.0,1006.0,1024.0,1019.0,1028.0,1021.0,1021.0,1006.0,1020.0,1025.0,1019.0,1029.0,1021.0,1022.0,1006.0,1020.0,1020.0,1024.0,1019.0,1029.0,1021.0,1021.0,1007.0,1019.0,1020.0,1020.0,1025.0,1019.0,1030.0,1021.0,1022.0,1007.0,1020.0,1021.0,1021.0,1025.0,1019.0,1029.0,1021.0,1021.0,1007.0,1019.0,1020.0,1020.0,1018.0,1025.0,1019.0,1030.0,1021.0,1021.0,1006.0,1020.0,1019.0,1020.0,1019.0,1026.0,1019.0,1030.0,1021.0,1022.0,1007.0,1020.0,1021.0,1021.0,1019.0,1025.0,1019.0,1029.0,1021.0,1021.0,1007.0,1020.0,1020.0,1020.0,1019.0,1025.0,1020.0,1030.0,1022.0,1022.0,1007.0,1020.0,1021.0,1021.0,1019.0,1027.0,1020.0,1031.0,1022.0,1023.0,1007.0,1020.0,1022.0,1022.0,1020.0,1027.0,1020.0,1031.0,1022.0,1023.0,1007.0,1020.0,1021.0,1021.0,1020.0,1028.0,1020.0,1032.0,1022.0,1024.0,1008.0,1021.0,1023.0,1024.0,1027.0,1021.0,1032.0,1022.0,1024.0,1008.0,1021.0,1022.0,1027.0,1020.0,1031.0,1022.0,1024.0,1009.0,1020.0,1027.0,1021.0,1032.0,1022.0,1025.0,1009.0,1020.0,1026.0,1020.0,1031.0,1022.0,1024.0,1009.0,1020.0,1026.0,1020.0,1031.0,1022.0,1023.0,1009.0,1026.0,1019.0,1030.0,1021.0,1022.0,1008.0,1026.0,1020.0,1030.0,1023.0,1024.0,1010.0,1027.0,1021.0,1031.0,1023.0,1024.0,1011.0,1026.0,1020.0,1030.0,1022.0,1022.0,1009.0,1028.0,1021.0,1032.0,1023.0,1024.0,1012.0,1027.0,1021.0,1031.0,1023.0,1023.0,1012.0,1028.0,1022.0,1032.0,1023.0,1024.0,1014.0,1029.0,1022.0,1033.0,1023.0,1023.0,1015.0,1032.0,1024.0,1035.0,1024.0,1025.0,1018.0,1035.0,1026.0,1038.0,1025.0,1026.0,1023.0,1037.0,1028.0,1040.0,1025.0,1024.0,1023.0,1051.0,1040.0,1057.0,1033.0,1031.0,1110.0,1048.0,1039.0,1055.0,1032.0,1030.0,2261,2230,1901,	00:32:23.517,-0.00830078125,0.0478515625,1.02099609375,-0.06103515625,0.3662109375,0.18310546875,2.6971435546875,0.4779052734375,-39.4354248046875,39.0,-471.0,-4145.0,-0.941070556640625,-0.0235595703125,0.0040283203125,0.33740234375,2.698357842012887,0.47690720805506465,-43.91045349516954,-0.9271745108278929,-0.023393233129698543,0.004944247799629125,0.37386593523413286,1,	00:32:23.518,0.02880859375,0.07080078125,1.01953125,0.06103515625,0.244140625,0.42724609375,3.9990234375,-1.5655517578125,128.924560546875,-76.0,695.0,-1789.0,0.430389404296875,0.027374267578125,0.025604248046875,0.90185546875,4.0009747919533725,-1.5656167662277434,121.80272382336908,0.4855561321165146,0.02890518207930893,0.023859137919584803,0.8734016685069623,1
1782117452.654773,0.196,1023.0,1028.0,1020.0,1024.0,1019.0,1029.0,1021.0,1021.0,1006.0,1025.0,1018.0,1029.0,1021.0,1022.0,1007.0,1020.0,1025.0,1019.0,1029.0,1021.0,1021.0,1007.0,1020.0,1021.0,1024.0,1019.0,1029.0,1021.0,1021.0,1007.0,1020.0,1021.0,1020.0,1025.0,1019.0,1030.0,1021.0,1022.0,1006.0,1020.0,1021.0,1021.0,1025.0,1019.0,1029.0,1021.0,1022.0,1006.0,1020.0,1020.0,1020.0,1019.0,1025.0,1019.0,1030.0,1021.0,1021.0,1007.0,1020.0,1020.0,1020.0,1018.0,1025.0,1020.0,1030.0,1021.0,1022.0,1007.0,1020.0,1021.0,1021.0,1020.0,1026.0,1019.0,1029.0,1021.0,1022.0,1006.0,1020.0,1020.0,1021.0,1019.0,1025.0,1019.0,1030.0,1021.0,1022.0,1007.0,1020.0,1021.0,1021.0,1019.0,1027.0,1020.0,1031.0,1021.0,1023.0,1007.0,1020.0,1022.0,1022.0,1021.0,1026.0,1021.0,1031.0,1021.0,1023.0,1008.0,1020.0,1021.0,1021.0,1020.0,1028.0,1021.0,1032.0,1022.0,1025.0,1008.0,1021.0,1022.0,1023.0,1027.0,1020.0,1032.0,1022.0,1024.0,1009.0,1021.0,1022.0,1027.0,1021.0,1031.0,1022.0,1024.0,1009.0,1020.0,1026.0,1020.0,1031.0,1022.0,1025.0,1010.0,1021.0,1026.0,1020.0,1031.0,1021.0,1023.0,1009.0,1020.0,1026.0,1020.0,1031.0,1022.0,1023.0,1008.0,1025.0,1020.0,1029.0,1021.0,1021.0,1008.0,1026.0,1020.0,1030.0,1022.0,1024.0,1010.0,1027.0,1021.0,1031.0,1022.0,1024.0,1011.0,1025.0,1019.0,1030.0,1021.0,1022.0,1009.0,1028.0,1021.0,1031.0,1022.0,1024.0,1012.0,1026.0,1021.0,1032.0,1023.0,1023.0,1012.0,1028.0,1022.0,1033.0,1023.0,1024.0,1013.0,1029.0,1022.0,1033.0,1023.0,1024.0,1015.0,1032.0,1024.0,1034.0,1024.0,1024.0,1017.0,1036.0,1026.0,1038.0,1025.0,1026.0,1023.0,1037.0,1028.0,1040.0,1026.0,1025.0,1024.0,1052.0,1041.0,1058.0,1032.0,1032.0,1111.0,1048.0,1039.0,1055.0,1032.0,1031.0,2261,2230,1901,	00:32:23.527,-0.0078125,0.0478515625,1.02001953125,0.0,0.42724609375,0.1220703125,2.669677734375,0.3955078125,-39.4354248046875,39.0,-468.0,-4141.0,-0.941070556640625,-0.023101806640625,0.004638671875,0.337371826171875,2.670219148620717,0.39389558376149797,-43.90924686038928,-0.9271930265868397,-0.022894906940294134,0.005523914069545924,0.3738427491048656,1,	00:32:23.528,0.0283203125,0.0703125,1.01953125,0.0,0.30517578125,0.48828125,3.9166259765625,-1.5985107421875,128.9300537109375,-78.0,694.0,-1787.0,0.430328369140625,0.02728271484375,0.024810791015625,0.90191650390625,3.915522560196234,-1.5961761737575006,121.81016347967122,0.4855110977134891,0.02877439331826681,0.023079981223930825,0.8734519578963181,1
1782117452.664679,0.206,1023.0,1029.0,1020.0,1024.0,1018.0,1029.0,1020.0,1021.0,1006.0,1024.0,1018.0,1029.0,1020.0,1021.0,1006.0,1020.0,1024.0,1019.0,1029.0,1021.0,1022.0,1006.0,1020.0,1021.0,1024.0,1019.0,1029.0,1021.0,1022.0,1006.0,1020.0,1020.0,1020.0,1025.0,1019.0,1030.0,1021.0,1022.0,1007.0,1020.0,1021.0,1021.0,1025.0,1019.0,1030.0,1021.0,1022.0,1006.0,1020.0,1021.0,1020.0,1018.0,1024.0,1019.0,1029.0,1021.0,1021.0,1006.0,1020.0,1020.0,1020.0,1018.0,1026.0,1020.0,1030.0,1021.0,1022.0,1007.0,1020.0,1021.0,1021.0,1019.0,1025.0,1019.0,1030.0,1021.0,1022.0,1006.0,1020.0,1021.0,1020.0,1018.0,1026.0,1020.0,1030.0,1021.0,1022.0,1007.0,1020.0,1020.0,1020.0,1020.0,1028.0,1020.0,1031.0,1021.0,1023.0,1007.0,1021.0,1022.0,1021.0,1021.0,1027.0,1021.0,1031.0,1021.0,1023.0,1008.0,1020.0,1022.0,1021.0,1020.0,1028.0,1021.0,1032.0,1022.0,1024.0,1009.0,1021.0,1023.0,1023.0,1028.0,1020.0,1032.0,1022.0,1024.0,1009.0,1021.0,1022.0,1027.0,1021.0,1031.0,1022.0,1024.0,1008.0,1021.0,1026.0,1020.0,1031.0,1021.0,1024.0,1009.0,1021.0,1026.0,1020.0,1031.0,1022.0,1023.0,1009.0,1020.0,1026.0,1020.0,1030.0,1021.0,1023.0,1009.0,1025.0,1019.0,1030.0,1021.0,1021.0,1009.0,1026.0,1020.0,1031.0,1022.0,1024.0,1010.0,1028.0,1021.0,1032.0,1022.0,1024.0,1011.0,1026.0,1020.0,1030.0,1022.0,1022.0,1009.0,1027.0,1020.0,1032.0,1023.0,1024.0,1011.0,1027.0,1021.0,1032.0,1022.0,1024.0,1012.0,1029.0,1021.0,1033.0,1023.0,1024.0,1013.0,1029.0,1022.0,1033.0,1023.0,1024.0,1014.0,1031.0,1024.0,1034.0,1023.0,1024.0,1018.0,1036.0,1027.0,1039.0,1025.0,1025.0,1023.0,1037.0,1027.0,1039.0,1025.0,1025.0,1024.0,1051.0,1041.0,1057.0,1033.0,1032.0,1110.0,1048.0,1039.0,1056.0,1032.0,1031.0,2261,2230,1901,	00:32:23.537,-0.00830078125,0.04833984375,1.02099609375,0.0,0.42724609375,0.18310546875,2.713623046875,0.4779052734375,-39.4354248046875,38.0,-470.0,-4145.0,-0.941070556640625,-0.023712158203125,0.004058837890625,0.337371826171875,2.715422565878971,0.4777937076332802,-43.90687499073374,-0.9271825932074487,-0.02353435243830978,0.004992014782484568,0.3738363985713962,1,	00:32:23.538,0.0283203125,0.0712890625,1.01953125,0.0,0.30517578125,0.48828125,4.0045166015625,-1.58203125,128.9300537109375,-76.0,696.0,-1789.0,0.4302978515625,0.02752685546875,0.02557373046875,0.90191650390625,4.006384803639382,-1.5838489127486375,121.81271986048917,0.48547265487537505,0.02906491608263711,0.023825520244434774,0.8734436882858828,1
1782117452.674718,0.216,1022.0,1028.0,1020.0,1024.0,1018.0,1029.0,1021.0,1021.0,1006.0,1024.0,1019.0,1029.0,1021.0,1021.0,1007.0,1020.0,1025.0,1019.0,1029.0,1021.0,1022.0,1006.0,1020.0,1021.0,1024.0,1019.0,1029.0,1020.0,1022.0,1006.0,1020.0,1020.0,1020.0,1025.0,1019.0,1030.0,1021.0,1022.0,1007.0,1020.0,1021.0,1021.0,1025.0,1020.0,1030.0,1021.0,1022.0,1007.0,1020.0,1020.0,1020.0,1018.0,1025.0,1019.0,1029.0,1021.0,1021.0,1006.0,1019.0,1020.0,1020.0,1018.0,1026.0,1020.0,1030.0,1021.0,1022.0,1006.0,1020.0,1021.0,1021.0,1020.0,1025.0,1020.0,1030.0,1021.0,1021.0,1007.0,1020.0,1021.0,1021.0,1019.0,1025.0,1019.0,1030.0,1021.0,1022.0,1007.0,1020.0,1021.0,1021.0,1019.0,1027.0,1020.0,1031.0,1021.0,1023.0,1007.0,1020.0,1021.0,1022.0,1020.0,1027.0,1020.0,1031.0,1021.0,1023.0,1008.0,1020.0,1021.0,1021.0,1021.0,1028.0,1021.0,1032.0,1022.0,1025.0,1008.0,1021.0,1022.0,1023.0,1027.0,1021.0,1032.0,1022.0,1025.0,1009.0,1020.0,1022.0,1027.0,1021.0,1031.0,1021.0,1023.0,1009.0,1020.0,1027.0,1020.0,1031.0,1022.0,1025.0,1009.0,1021.0,1026.0,1020.0,1031.0,1021.0,1024.0,1009.0,1020.0,1026.0,1020.0,1030.0,1022.0,1023.0,1009.0,1025.0,1020.0,1030.0,1021.0,1021.0,1008.0,1026.0,1020.0,1031.0,1022.0,1024.0,1010.0,1027.0,1020.0,1031.0,1022.0,1024.0,1011.0,1026.0,1020.0,1031.0,1022.0,1022.0,1010.0,1027.0,1021.0,1031.0,1023.0,1024.0,1012.0,1027.0,1021.0,1031.0,1022.0,1024.0,1012.0,1029.0,1022.0,1033.0,1023.0,1024.0,1014.0,1028.0,1022.0,1033.0,1023.0,1024.0,1014.0,1031.0,1024.0,1035.0,1023.0,1025.0,1018.0,1036.0,1026.0,1038.0,1025.0,1026.0,1023.0,1037.0,1028.0,1040.0,1025.0,1026.0,1024.0,1052.0,1041.0,1057.0,1032.0,1033.0,1111.0,1048.0,1039.0,1056.0,1032.0,1031.0,2261,2230,1901,	00:32:23.547,-0.00830078125,0.04833984375,1.02099609375,-0.06103515625,0.42724609375,0.18310546875,2.6806640625,0.3955078125,-39.429931640625,39.0,-470.0,-4143.0,-0.94110107421875,-0.023193359375,0.004638671875,0.33734130859375,2.682381303831683,0.3962633475971023,-43.905090546444484,-0.9272039034634812,-0.02300123684355835,0.005543598059439223,0.3738089525764536,1,	00:32:23.549,0.02783203125,0.0703125,1.01904296875,-0.06103515625,0.244140625,0.48828125,3.922119140625,-1.549072265625,128.9410400390625,-76.0,696.0,-1790.0,0.430267333984375,0.02691650390625,0.025054931640625,0.901947021484375,3.9204148093937863,-1.5485768456623752,121.82009256766241,0.4854493687876976,0.028430474259636504,0.023321751112817805,0.8734911072254999,1
1782117452.687119,0.229,1023.0,1028.0,1019.0,1024.0,1019.0,1029.0,1021.0,1020.0,1007.0,1025.0,1018.0,1029.0,1021.0,1021.0,1007.0,1020.0,1025.0,1019.0,1029.0,1021.0,1022.0,1006.0,1020.0,1020.0,1025.0,1019.0,1029.0,1021.0,1022.0,1006.0,1019.0,1021.0,1021.0,1026.0,1019.0,1029.0,1021.0,1022.0,1006.0,1020.0,1021.0,1021.0,1025.0,1019.0,1030.0,1021.0,1022.0,1006.0,1019.0,1020.0,1020.0,1019.0,1025.0,1019.0,1029.0,1021.0,1022.0,1007.0,1020.0,1020.0,1020.0,1018.0,1025.0,1019.0,1029.0,1021.0,1022.0,1007.0,1020.0,1020.0,1021.0,1019.0,1025.0,1020.0,1030.0,1021.0,1022.0,1007.0,1020.0,1020.0,1020.0,1019.0,1026.0,1020.0,1030.0,1021.0,1022.0,1007.0,1020.0,1021.0,1021.0,1019.0,1028.0,1020.0,1031.0,1021.0,1023.0,1007.0,1020.0,1021.0,1022.0,1021.0,1027.0,1020.0,1031.0,1021.0,1022.0,1008.0,1020.0,1021.0,1021.0,1021.0,1029.0,1021.0,1032.0,1022.0,1025.0,1008.0,1021.0,1023.0,1023.0,1027.0,1021.0,1032.0,1021.0,1024.0,1009.0,1021.0,1022.0,1027.0,1021.0,1031.0,1022.0,1023.0,1009.0,1020.0,1027.0,1021.0,1031.0,1021.0,1025.0,1009.0,1021.0,1026.0,1020.0,1030.0,1021.0,1023.0,1009.0,1020.0,1026.0,1020.0,1030.0,1021.0,1024.0,1009.0,1025.0,1020.0,1031.0,1021.0,1021.0,1008.0,1027.0,1021.0,1031.0,1022.0,1024.0,1010.0,1028.0,1021.0,1031.0,1022.0,1024.0,1011.0,1026.0,1020.0,1031.0,1021.0,1022.0,1009.0,1028.0,1021.0,1031.0,1023.0,1024.0,1011.0,1027.0,1021.0,1032.0,1022.0,1024.0,1012.0,1029.0,1022.0,1033.0,1023.0,1024.0,1014.0,1028.0,1022.0,1033.0,1023.0,1024.0,1014.0,1032.0,1024.0,1035.0,1024.0,1024.0,1018.0,1036.0,1026.0,1038.0,1024.0,1026.0,1023.0,1037.0,1027.0,1039.0,1025.0,1026.0,1025.0,1052.0,1041.0,1057.0,1032.0,1032.0,1111.0,1048.0,1039.0,1055.0,1031.0,1031.0,2261,2230,1901,	00:32:23.558,-0.0078125,0.0478515625,1.021484375,0.0,0.42724609375,0.18310546875,2.6806640625,0.494384765625,-39.429931640625,38.0,-473.0,-4141.0,-0.941070556640625,-0.023468017578125,0.00384521484375,0.33734130859375,2.6817023963478492,0.4921135694913382,-43.90306687227656,-0.9272003177939754,-0.02330836696122729,0.004765358591553535,0.37380955320837583,1,	00:32:23.559,0.02783203125,0.07080078125,1.02001953125,-0.1220703125,0.244140625,0.42724609375,4.010009765625,-1.5655517578125,128.9410400390625,-77.0,693.0,-1787.0,0.43023681640625,0.02740478515625,0.025665283203125,0.901947021484375,4.008543489486292,-1.5654150290431705,121.82209251436147,0.48540665511148273,0.028931672819318684,0.023922572239932865,0.8734821394961565,1
1782117452.695164,0.237,1023.0,1028.0,1020.0,1024.0,1019.0,1028.0,1020.0,1021.0,1007.0,1025.0,1019.0,1029.0,1021.0,1021.0,1006.0,1020.0,1025.0,1019.0,1029.0,1021.0,1021.0,1007.0,1019.0,1021.0,1024.0,1019.0,1029.0,1021.0,1021.0,1007.0,1020.0,1020.0,1021.0,1026.0,1019.0,1029.0,1021.0,1022.0,1006.0,1020.0,1021.0,1021.0,1025.0,1019.0,1029.0,1021.0,1022.0,1006.0,1019.0,1020.0,1020.0,1018.0,1025.0,1019.0,1029.0,1021.0,1021.0,1006.0,1020.0,1020.0,1020.0,1018.0,1026.0,1019.0,1031.0,1021.0,1022.0,1007.0,1020.0,1021.0,1021.0,1019.0,1025.0,1020.0,1030.0,1021.0,1021.0,1007.0,1020.0,1020.0,1020.0,1019.0,1026.0,1020.0,1030.0,1021.0,1022.0,1007.0,1020.0,1021.0,1021.0,1020.0,1028.0,1021.0,1031.0,1021.0,1023.0,1008.0,1020.0,1021.0,1022.0,1021.0,1027.0,1020.0,1031.0,1021.0,1023.0,1007.0,1020.0,1021.0,1021.0,1020.0,1028.0,1021.0,1032.0,1022.0,1024.0,1008.0,1021.0,1023.0,1024.0,1028.0,1021.0,1031.0,1022.0,1024.0,1009.0,1020.0,1022.0,1027.0,1021.0,1031.0,1021.0,1024.0,1009.0,1020.0,1027.0,1021.0,1032.0,1022.0,1025.0,1009.0,1021.0,1027.0,1020.0,1030.0,1022.0,1024.0,1009.0,1020.0,1026.0,1020.0,1030.0,1021.0,1022.0,1008.0,1025.0,1020.0,1030.0,1021.0,1022.0,1008.0,1026.0,1019.0,1030.0,1022.0,1024.0,1010.0,1027.0,1020.0,1031.0,1023.0,1024.0,1011.0,1026.0,1020.0,1031.0,1021.0,1022.0,1009.0,1027.0,1021.0,1032.0,1023.0,1024.0,1012.0,1027.0,1021.0,1032.0,1023.0,1023.0,1012.0,1028.0,1022.0,1032.0,1023.0,1024.0,1014.0,1029.0,1022.0,1033.0,1023.0,1024.0,1014.0,1032.0,1024.0,1035.0,1024.0,1025.0,1018.0,1036.0,1027.0,1038.0,1025.0,1026.0,1023.0,1037.0,1028.0,1040.0,1026.0,1025.0,1025.0,1052.0,1041.0,1057.0,1033.0,1032.0,1111.0,1049.0,1039.0,1055.0,1032.0,1031.0,2260,2230,1902,	00:32:23.568,-0.00732421875,0.0478515625,1.02001953125,0.0,0.42724609375,0.18310546875,2.6861572265625,0.406494140625,-39.429931640625,39.0,-469.0,-4139.0,-0.94110107421875,-0.02325439453125,0.00457763671875,0.337310791015625,2.6864679836377974,0.4047467880429532,-43.90100069225659,-0.9272155348556654,-0.02306216218447659,0.005487458920744162,0.3737771747877235,1,	00:32:23.569,0.0283203125,0.07080078125,1.01953125,-0.06103515625,0.244140625,0.42724609375,3.9276123046875,-1.6094970703125,128.946533203125,-75.0,694.0,-1787.0,0.43017578125,0.027435302734375,0.024871826171875,0.9019775390625,3.9295226443729865,-1.6108453566298924,121.82869705090428,0.48536159886165725,0.028941722354167393,0.023129117003168897,0.8735282130556996,1
1782117452.705800,0.248,1022.0,1029.0,1020.0,1024.0,1019.0,1028.0,1021.0,1021.0,1006.0,1024.0,1019.0,1029.0,1021.0,1022.0,1006.0,1020.0,1025.0,1019.0,1029.0,1021.0,1021.0,1007.0,1020.0,1021.0,1025.0,1019.0,1029.0,1020.0,1021.0,1007.0,1020.0,1020.0,1021.0,1025.0,1019.0,1030.0,1021.0,1022.0,1007.0,1020.0,1021.0,1021.0,1025.0,1019.0,1030.0,1021.0,1021.0,1006.0,1020.0,1020.0,1020.0,1019.0,1025.0,1019.0,1029.0,1021.0,1021.0,1006.0,1019.0,1021.0,1020.0,1018.0,1025.0,1020.0,1029.0,1021.0,1022.0,1006.0,1020.0,1021.0,1021.0,1020.0,1025.0,1019.0,1030.0,1021.0,1022.0,1007.0,1020.0,1021.0,1020.0,1019.0,1025.0,1020.0,1030.0,1021.0,1022.0,1006.0,1020.0,1021.0,1021.0,1019.0,1028.0,1021.0,1031.0,1021.0,1023.0,1007.0,1020.0,1021.0,1021.0,1021.0,1027.0,1021.0,1031.0,1021.0,1022.0,1007.0,1020.0,1021.0,1021.0,1020.0,1028.0,1021.0,1032.0,1022.0,1024.0,1008.0,1021.0,1023.0,1023.0,1027.0,1021.0,1032.0,1022.0,1024.0,1009.0,1021.0,1022.0,1027.0,1020.0,1032.0,1022.0,1024.0,1008.0,1020.0,1027.0,1021.0,1031.0,1022.0,1025.0,1009.0,1020.0,1026.0,1020.0,1031.0,1022.0,1023.0,1009.0,1021.0,1026.0,1020.0,1031.0,1021.0,1023.0,1009.0,1025.0,1020.0,1030.0,1022.0,1021.0,1008.0,1026.0,1020.0,1030.0,1022.0,1023.0,1010.0,1027.0,1021.0,1031.0,1023.0,1023.0,1011.0,1026.0,1020.0,1031.0,1022.0,1022.0,1009.0,1027.0,1021.0,1032.0,1023.0,1024.0,1012.0,1028.0,1021.0,1031.0,1022.0,1023.0,1012.0,1028.0,1022.0,1033.0,1023.0,1024.0,1014.0,1028.0,1022.0,1032.0,1023.0,1024.0,1014.0,1032.0,1023.0,1035.0,1024.0,1024.0,1018.0,1036.0,1027.0,1039.0,1025.0,1025.0,1023.0,1037.0,1027.0,1040.0,1025.0,1025.0,1025.0,1051.0,1042.0,1057.0,1033.0,1032.0,1111.0,1048.0,1040.0,1056.0,1032.0,1031.0,2260,2230,1901,	00:32:23.578,-0.0078125,0.04736328125,1.02099609375,-0.06103515625,0.42724609375,0.18310546875,2.625732421875,0.4779052734375,-39.4244384765625,37.0,-471.0,-4143.0,-0.94110107421875,-0.02294921875,0.003814697265625,0.337310791015625,2.623907141553763,0.4764493761458019,-43.89944817460558,-0.9272254653790575,-0.022789797125814585,0.004702860252533863,0.37377994141606863,1,	00:32:23.579,0.02880859375,0.07177734375,1.01904296875,-0.1220703125,0.18310546875,0.48828125,4.02099609375,-1.614990234375,128.9520263671875,-78.0,694.0,-1789.0,0.430145263671875,0.027801513671875,0.02557373046875,0.9019775390625,4.019550661843832,-1.6134801730114319,121.83112446574317,0.4853193456257852,0.029342603584579754,0.02380483313638014,0.8735201625008931,1
1782117452.717441,0.259,1022.0,1029.0,1020.0,1024.0,1018.0,1029.0,1020.0,1021.0,1007.0,1024.0,1019.0,1029.0,1021.0,1021.0,1006.0,1020.0,1025.0,1019.0,1029.0,1021.0,1021.0,1006.0,1019.0,1021.0,1024.0,1019.0,1029.0,1021.0,1021.0,1006.0,1020.0,1021.0,1020.0,1025.0,1019.0,1030.0,1021.0,1022.0,1006.0,1020.0,1021.0,1021.0,1025.0,1020.0,1030.0,1021.0,1021.0,1007.0,1020.0,1021.0,1020.0,1018.0,1025.0,1019.0,1029.0,1021.0,1021.0,1006.0,1020.0,1020.0,1019.0,1018.0,1026.0,1019.0,1030.0,1021.0,1022.0,1007.0,1020.0,1021.0,1021.0,1020.0,1026.0,1019.0,1030.0,1021.0,1022.0,1007.0,1019.0,1021.0,1020.0,1019.0,1026.0,1019.0,1030.0,1021.0,1022.0,1007.0,1020.0,1021.0,1020.0,1019.0,1028.0,1021.0,1031.0,1021.0,1023.0,1007.0,1020.0,1022.0,1022.0,1021.0,1027.0,1021.0,1031.0,1021.0,1022.0,1007.0,1020.0,1021.0,1021.0,1020.0,1028.0,1021.0,1031.0,1022.0,1024.0,1008.0,1021.0,1023.0,1023.0,1027.0,1021.0,1032.0,1022.0,1024.0,1008.0,1020.0,1022.0,1027.0,1021.0,1031.0,1022.0,1024.0,1008.0,1020.0,1027.0,1021.0,1031.0,1022.0,1024.0,1010.0,1021.0,1027.0,1020.0,1031.0,1022.0,1024.0,1009.0,1020.0,1026.0,1020.0,1030.0,1021.0,1023.0,1009.0,1025.0,1019.0,1030.0,1021.0,1021.0,1008.0,1026.0,1020.0,1031.0,1022.0,1023.0,1010.0,1027.0,1020.0,1031.0,1022.0,1024.0,1011.0,1026.0,1020.0,1030.0,1022.0,1022.0,1010.0,1028.0,1021.0,1032.0,1023.0,1024.0,1011.0,1027.0,1021.0,1032.0,1022.0,1023.0,1012.0,1028.0,1022.0,1033.0,1023.0,1024.0,1013.0,1028.0,1022.0,1033.0,1023.0,1024.0,1014.0,1032.0,1023.0,1034.0,1024.0,1024.0,1017.0,1035.0,1026.0,1039.0,1025.0,1025.0,1023.0,1037.0,1028.0,1039.0,1026.0,1025.0,1024.0,1051.0,1041.0,1057.0,1033.0,1032.0,1110.0,1048.0,1039.0,1055.0,1032.0,1031.0,2260,2230,1902,	00:32:23.588,-0.00830078125,0.0478515625,1.0205078125,0.0,0.42724609375,0.1220703125,2.713623046875,0.4669189453125,-39.4244384765625,37.0,-471.0,-4140.0,-0.94110107421875,-0.023651123046875,0.004180908203125,0.3372802734375,2.714056564800944,0.4644370311702962,-43.897293067891226,-0.9272156060245553,-0.023480173051478117,0.005093675147969981,0.3737565462857822,1,	00:32:23.589,0.029296875,0.07177734375,1.01953125,-0.1220703125,0.244140625,0.42724609375,4.04296875,-1.6973876953125,128.9520263671875,-76.0,695.0,-1789.0,0.430084228515625,0.028564453125,0.025421142578125,0.9019775390625,4.041730548472296,-1.6998502281649281,121.83488003886139,0.48525651026237726,0.030093780492396038,0.023608442169624107,0.8735348448012696,1
1782117452.726034,0.268,1022.0,1028.0,1020.0,1024.0,1019.0,1029.0,1020.0,1021.0,1007.0,1024.0,1019.0,1029.0,1020.0,1021.0,1006.0,1020.0,1025.0,1019.0,1030.0,1021.0,1021.0,1006.0,1020.0,1021.0,1025.0,1019.0,1029.0,1021.0,1022.0,1006.0,1019.0,1021.0,1020.0,1025.0,1020.0,1030.0,1021.0,1022.0,1007.0,1020.0,1021.0,1021.0,1025.0,1019.0,1030.0,1021.0,1022.0,1006.0,1019.0,1020.0,1020.0,1018.0,1024.0,1019.0,1029.0,1021.0,1021.0,1007.0,1020.0,1020.0,1020.0,1018.0,1025.0,1020.0,1030.0,1021.0,1022.0,1007.0,1020.0,1022.0,1021.0,1019.0,1025.0,1019.0,1030.0,1021.0,1022.0,1007.0,1020.0,1021.0,1020.0,1019.0,1026.0,1020.0,1030.0,1021.0,1022.0,1007.0,1019.0,1021.0,1020.0,1019.0,1027.0,1020.0,1031.0,1021.0,1023.0,1007.0,1020.0,1022.0,1022.0,1020.0,1027.0,1020.0,1031.0,1021.0,1023.0,1007.0,1020.0,1022.0,1022.0,1020.0,1028.0,1021.0,1032.0,1021.0,1024.0,1008.0,1020.0,1023.0,1023.0,1027.0,1021.0,1032.0,1022.0,1024.0,1009.0,1020.0,1023.0,1027.0,1021.0,1032.0,1022.0,1024.0,1008.0,1020.0,1027.0,1021.0,1032.0,1022.0,1024.0,1009.0,1021.0,1026.0,1020.0,1031.0,1022.0,1023.0,1009.0,1020.0,1026.0,1020.0,1031.0,1022.0,1023.0,1009.0,1026.0,1020.0,1030.0,1022.0,1021.0,1008.0,1027.0,1020.0,1030.0,1022.0,1023.0,1010.0,1027.0,1021.0,1031.0,1022.0,1024.0,1011.0,1026.0,1020.0,1030.0,1022.0,1022.0,1009.0,1027.0,1021.0,1032.0,1023.0,1024.0,1011.0,1026.0,1021.0,1032.0,1023.0,1023.0,1012.0,1029.0,1022.0,1033.0,1023.0,1024.0,1014.0,1028.0,1022.0,1033.0,1023.0,1024.0,1014.0,1032.0,1024.0,1035.0,1024.0,1025.0,1018.0,1036.0,1027.0,1039.0,1025.0,1026.0,1023.0,1037.0,1028.0,1040.0,1025.0,1025.0,1024.0,1052.0,1041.0,1058.0,1033.0,1032.0,1111.0,1047.0,1040.0,1056.0,1032.0,1031.0,2260,2229,1901,	00:32:23.599,-0.0087890625,0.0478515625,1.021484375,0.0,0.42724609375,0.1220703125,2.647705078125,0.52734375,-39.4244384765625,40.0,-469.0,-4143.0,-0.94110107421875,-0.023284912109375,0.003448486328125,0.3372802734375,2.6451111208604963,0.5289957246237449,-43.89646914274172,-0.9272251280265379,-0.023132796792933064,0.004346209062551932,0.3737640246672917,1,	00:32:23.600,0.02880859375,0.07080078125,1.0205078125,-0.18310546875,0.244140625,0.48828125,3.9825439453125,-1.6259765625,128.9630126953125,-77.0,693.0,-1789.0,0.4300537109375,0.02777099609375,0.025238037109375,0.902008056640625,3.980824744926607,-1.6277807711002055,121.84163492044085,0.48524446626595524,0.029285392115391846,0.023451639996353024,0.8735732335347721,1
1782117452.736164,0.278,1022.0,1029.0,1020.0,1024.0,1018.0,1029.0,1021.0,1021.0,1007.0,1024.0,1019.0,1029.0,1020.0,1022.0,1006.0,1019.0,1024.0,1019.0,1029.0,1021.0,1021.0,1006.0,1020.0,1021.0,1025.0,1019.0,1030.0,1021.0,1021.0,1006.0,1020.0,1021.0,1020.0,1025.0,1020.0,1029.0,1021.0,1022.0,1007.0,1021.0,1021.0,1021.0,1025.0,1019.0,1030.0,1021.0,1022.0,1007.0,1019.0,1020.0,1020.0,1018.0,1024.0,1019.0,1029.0,1021.0,1021.0,1006.0,1019.0,1020.0,1020.0,1018.0,1025.0,1020.0,1030.0,1021.0,1022.0,1007.0,1020.0,1021.0,1021.0,1020.0,1025.0,1019.0,1031.0,1022.0,1022.0,1007.0,1019.0,1021.0,1020.0,1018.0,1026.0,1019.0,1030.0,1021.0,1022.0,1007.0,1020.0,1020.0,1021.0,1019.0,1027.0,1021.0,1031.0,1021.0,1023.0,1007.0,1019.0,1022.0,1022.0,1021.0,1026.0,1020.0,1031.0,1021.0,1023.0,1008.0,1020.0,1021.0,1022.0,1020.0,1028.0,1021.0,1032.0,1022.0,1024.0,1008.0,1021.0,1024.0,1023.0,1027.0,1021.0,1032.0,1022.0,1024.0,1009.0,1020.0,1022.0,1027.0,1021.0,1031.0,1022.0,1023.0,1009.0,1020.0,1026.0,1020.0,1031.0,1022.0,1024.0,1009.0,1021.0,1026.0,1020.0,1031.0,1022.0,1023.0,1008.0,1020.0,1026.0,1020.0,1030.0,1022.0,1023.0,1008.0,1025.0,1020.0,1029.0,1021.0,1021.0,1008.0,1026.0,1020.0,1030.0,1022.0,1024.0,1010.0,1027.0,1021.0,1031.0,1023.0,1024.0,1010.0,1026.0,1020.0,1030.0,1022.0,1023.0,1009.0,1027.0,1021.0,1031.0,1023.0,1024.0,1011.0,1027.0,1021.0,1032.0,1022.0,1023.0,1011.0,1028.0,1022.0,1033.0,1023.0,1024.0,1014.0,1028.0,1022.0,1033.0,1024.0,1024.0,1014.0,1032.0,1024.0,1035.0,1023.0,1025.0,1018.0,1036.0,1026.0,1038.0,1025.0,1026.0,1023.0,1037.0,1028.0,1039.0,1026.0,1025.0,1025.0,1052.0,1041.0,1058.0,1033.0,1031.0,1111.0,1048.0,1039.0,1056.0,1032.0,1031.0,2260,2229,1901,	00:32:23.609,-0.0078125,0.04736328125,1.02001953125,0.0,0.3662109375,0.18310546875,2.65869140625,0.439453125,-39.4189453125,39.0,-469.0,-4143.0,-0.941131591796875,-0.02313232421875,0.004180908203125,0.337249755859375,2.6585689076665795,0.4418866650505334,-43.89435709543189,-0.9272388706168584,-0.022957805639172327,0.0050945873727967226,0.373731268636848,1,	00:32:23.610,0.029296875,0.07177734375,1.02001953125,-0.3662109375,0.30517578125,0.48828125,4.06494140625,-1.6534423828125,128.9630126953125,-77.0,696.0,-1787.0,0.430023193359375,0.02825927734375,0.025787353515625,0.902008056640625,4.064584683275962,-1.6514355192930381,121.84421484415122,0.4851954316192056,0.029819753835308604,0.02399049239772834,0.8735677602175856,1
1782117452.745885,0.288,1022.0,1028.0,1020.0,1024.0,1019.0,1029.0,1020.0,1021.0,1006.0,1024.0,1019.0,1029.0,1021.0,1021.0,1006.0,1020.0,1025.0,1019.0,1029.0,1021.0,1022.0,1006.0,1020.0,1021.0,1025.0,1019.0,1029.0,1021.0,1021.0,1006.0,1020.0,1020.0,1020.0,1025.0,1020.0,1030.0,1021.0,1022.0,1007.0,1020.0,1021.0,1021.0,1025.0,1019.0,1030.0,1021.0,1022.0,1006.0,1020.0,1021.0,1020.0,1018.0,1025.0,1019.0,1030.0,1022.0,1021.0,1006.0,1020.0,1020.0,1020.0,1018.0,1025.0,1020.0,1030.0,1021.0,1022.0,1007.0,1020.0,1021.0,1021.0,1020.0,1026.0,1019.0,1030.0,1021.0,1022.0,1007.0,1020.0,1021.0,1021.0,1019.0,1025.0,1020.0,1030.0,1021.0,1022.0,1007.0,1020.0,1021.0,1021.0,1019.0,1027.0,1020.0,1031.0,1021.0,1023.0,1007.0,1020.0,1022.0,1022.0,1020.0,1027.0,1020.0,1031.0,1022.0,1022.0,1008.0,1020.0,1022.0,1021.0,1021.0,1029.0,1021.0,1032.0,1022.0,1024.0,1009.0,1020.0,1023.0,1023.0,1027.0,1021.0,1031.0,1022.0,1025.0,1008.0,1020.0,1023.0,1027.0,1021.0,1031.0,1022.0,1023.0,1008.0,1020.0,1027.0,1021.0,1032.0,1022.0,1024.0,1009.0,1021.0,1026.0,1020.0,1031.0,1021.0,1023.0,1008.0,1021.0,1025.0,1020.0,1030.0,1022.0,1023.0,1009.0,1026.0,1020.0,1029.0,1021.0,1021.0,1007.0,1026.0,1021.0,1031.0,1022.0,1024.0,1010.0,1027.0,1021.0,1031.0,1023.0,1024.0,1011.0,1026.0,1020.0,1030.0,1022.0,1022.0,1009.0,1028.0,1021.0,1032.0,1023.0,1024.0,1012.0,1027.0,1021.0,1032.0,1023.0,1023.0,1012.0,1028.0,1022.0,1033.0,1023.0,1024.0,1013.0,1028.0,1022.0,1033.0,1024.0,1024.0,1015.0,1032.0,1024.0,1035.0,1024.0,1024.0,1018.0,1036.0,1026.0,1038.0,1025.0,1026.0,1023.0,1037.0,1027.0,1039.0,1026.0,1025.0,1024.0,1052.0,1041.0,1058.0,1033.0,1031.0,1111.0,1048.0,1040.0,1056.0,1032.0,1031.0,2260,2229,1902,	00:32:23.619,-0.00830078125,0.0478515625,1.0205078125,0.06103515625,0.42724609375,0.18310546875,2.724609375,0.50537109375,-39.4189453125,40.0,-470.0,-4143.0,-0.94110107421875,-0.023895263671875,0.00384521484375,0.337249755859375,2.7270504077397,0.5076023016399964,-43.8917672471752,-0.9272261283277439,-0.023726263489478372,0.0047856147049025535,0.3737189709649031,1,	00:32:23.620,0.02880859375,0.0703125,1.01953125,-0.42724609375,0.30517578125,0.48828125,3.9715576171875,-1.6204833984375,128.9739990234375,-76.0,694.0,-1789.0,0.42999267578125,0.027679443359375,0.025177001953125,0.902069091796875,3.972756713970832,-1.6218593456653503,121.85179944686372,0.4851709581040534,0.029204033828908578,0.023417844109703465,0.8736176912115324,1
1782117452.756805,0.299,1022.0,1029.0,1020.0,1024.0,1018.0,1029.0,1021.0,1021.0,1006.0,1024.0,1019.0,1029.0,1021.0,1021.0,1006.0,1020.0,1025.0,1019.0,1029.0,1021.0,1021.0,1006.0,1020.0,1020.0,1024.0,1019.0,1029.0,1021.0,1021.0,1007.0,1020.0,1021.0,1021.0,1025.0,1020.0,1030.0,1021.0,1021.0,1007.0,1020.0,1021.0,1021.0,1025.0,1019.0,1029.0,1021.0,1021.0,1007.0,1020.0,1020.0,1020.0,1018.0,1025.0,1019.0,1029.0,1021.0,1021.0,1006.0,1020.0,1020.0,1020.0,1017.0,1025.0,1020.0,1030.0,1021.0,1022.0,1006.0,1020.0,1021.0,1021.0,1019.0,1026.0,1019.0,1030.0,1021.0,1022.0,1006.0,1020.0,1021.0,1021.0,1018.0,1025.0,1019.0,1030.0,1021.0,1022.0,1006.0,1020.0,1021.0,1020.0,1019.0,1027.0,1020.0,1030.0,1022.0,1023.0,1007.0,1020.0,1021.0,1021.0,1020.0,1027.0,1020.0,1031.0,1021.0,1023.0,1008.0,1020.0,1021.0,1021.0,1020.0,1028.0,1021.0,1032.0,1022.0,1024.0,1008.0,1021.0,1023.0,1024.0,1028.0,1021.0,1032.0,1022.0,1024.0,1009.0,1020.0,1023.0,1027.0,1020.0,1032.0,1021.0,1023.0,1008.0,1020.0,1027.0,1020.0,1031.0,1021.0,1024.0,1009.0,1021.0,1026.0,1020.0,1032.0,1022.0,1023.0,1009.0,1020.0,1026.0,1020.0,1030.0,1021.0,1023.0,1008.0,1026.0,1020.0,1030.0,1021.0,1021.0,1008.0,1027.0,1020.0,1030.0,1022.0,1024.0,1010.0,1027.0,1020.0,1031.0,1023.0,1024.0,1011.0,1026.0,1020.0,1030.0,1022.0,1021.0,1009.0,1027.0,1022.0,1032.0,1023.0,1023.0,1012.0,1027.0,1021.0,1032.0,1023.0,1023.0,1012.0,1028.0,1022.0,1033.0,1023.0,1024.0,1013.0,1029.0,1022.0,1033.0,1023.0,1024.0,1014.0,1032.0,1024.0,1035.0,1024.0,1024.0,1018.0,1036.0,1026.0,1039.0,1025.0,1025.0,1023.0,1037.0,1028.0,1040.0,1025.0,1024.0,1025.0,1052.0,1041.0,1058.0,1033.0,1031.0,1112.0,1048.0,1040.0,1056.0,1032.0,1030.0,2260,2229,1901,	00:32:23.630,-0.0078125,0.04736328125,1.021484375,0.06103515625,0.3662109375,0.1220703125,2.6641845703125,0.4449462890625,-39.4189453125,38.0,-468.0,-4142.0,-0.941131591796875,-0.023193359375,0.004150390625,0.33721923828125,2.6617974336631747,0.4475505562062882,-43.89092300333431,-0.9272488161207609,-0.023002545538025606,0.005058593901414391,0.37370433035912076,1,	00:32:23.631,0.0283203125,0.0712890625,1.01904296875,-0.3662109375,0.30517578125,0.48828125,4.0264892578125,-1.549072265625,128.9739990234375,-76.0,694.0,-1788.0,0.429962158203125,0.02734375,0.025909423828125,0.902069091796875,4.0285518499737245,-1.5495152129653467,121.85523222052527,0.4851541451063153,0.028888311662426072,0.02415090914160308,0.8736175676593788,1
1782117452.766451,0.308,1023.0,1028.0,1020.0,1024.0,1018.0,1029.0,1020.0,1020.0,1006.0,1024.0,1019.0,1030.0,1021.0,1021.0,1006.0,1020.0,1025.0,1019.0,1030.0,1021.0,1021.0,1006.0,1020.0,1021.0,1025.0,1019.0,1029.0,1021.0,1022.0,1006.0,1020.0,1021.0,1021.0,1025.0,1019.0,1029.0,1021.0,1021.0,1007.0,1020.0,1021.0,1021.0,1025.0,1019.0,1030.0,1021.0,1022.0,1006.0,1020.0,1020.0,1020.0,1019.0,1025.0,1018.0,1029.0,1021.0,1021.0,1006.0,1019.0,1020.0,1020.0,1018.0,1026.0,1020.0,1030.0,1021.0,1022.0,1007.0,1020.0,1021.0,1021.0,1020.0,1025.0,1020.0,1030.0,1021.0,1022.0,1007.0,1020.0,1021.0,1021.0,1019.0,1025.0,1019.0,1030.0,1021.0,1022.0,1007.0,1019.0,1021.0,1021.0,1019.0,1028.0,1020.0,1030.0,1021.0,1023.0,1007.0,1020.0,1022.0,1022.0,1020.0,1027.0,1020.0,1031.0,1022.0,1023.0,1008.0,1020.0,1022.0,1021.0,1020.0,1028.0,1021.0,1032.0,1021.0,1024.0,1008.0,1021.0,1023.0,1024.0,1027.0,1020.0,1032.0,1022.0,1024.0,1009.0,1020.0,1022.0,1027.0,1020.0,1031.0,1022.0,1023.0,1008.0,1020.0,1027.0,1020.0,1031.0,1022.0,1024.0,1009.0,1021.0,1026.0,1020.0,1031.0,1022.0,1023.0,1009.0,1021.0,1025.0,1020.0,1031.0,1022.0,1022.0,1009.0,1025.0,1020.0,1030.0,1022.0,1021.0,1008.0,1026.0,1020.0,1031.0,1022.0,1023.0,1010.0,1027.0,1021.0,1031.0,1023.0,1024.0,1011.0,1026.0,1019.0,1031.0,1022.0,1022.0,1010.0,1027.0,1021.0,1031.0,1023.0,1023.0,1012.0,1027.0,1021.0,1031.0,1023.0,1023.0,1012.0,1028.0,1022.0,1032.0,1024.0,1024.0,1014.0,1029.0,1022.0,1033.0,1023.0,1023.0,1014.0,1032.0,1024.0,1035.0,1025.0,1024.0,1018.0,1036.0,1027.0,1038.0,1026.0,1026.0,1023.0,1037.0,1027.0,1040.0,1026.0,1024.0,1025.0,1052.0,1041.0,1058.0,1034.0,1031.0,1111.0,1048.0,1040.0,1056.0,1032.0,1031.0,2260,2229,1902,	00:32:23.640,-0.00732421875,0.04833984375,1.021484375,0.1220703125,0.42724609375,0.1220703125,2.735595703125,0.3955078125,-39.4134521484375,39.0,-468.0,-4143.0,-0.941131591796875,-0.02362060546875,0.004791259765625,0.337188720703125,2.7352240501070577,0.39534116448791984,-43.88897472314176,-0.9272458575114009,-0.02342660284436604,0.005720143259175167,0.3736757872383678,1,	00:32:23.641,0.02880859375,0.072265625,1.02001953125,-0.3662109375,0.30517578125,0.48828125,4.0594482421875,-1.6314697265625,128.9794921875,-77.0,694.0,-1787.0,0.429901123046875,0.028106689453125,0.02581787109375,0.902069091796875,4.056713758994253,-1.6326148424640863,121.8594343441027,0.48508767422349297,0.029639842833536524,0.024014262239279875,0.8736330712847064,1
1782117452.776507,0.318,1023.0,1029.0,1020.0,1024.0,1019.0,1029.0,1020.0,1021.0,1007.0,1024.0,1019.0,1029.0,1021.0,1021.0,1006.0,1020.0,1024.0,1019.0,1029.0,1021.0,1021.0,1006.0,1020.0,1021.0,1024.0,1019.0,1029.0,1021.0,1021.0,1007.0,1020.0,1021.0,1020.0,1025.0,1019.0,1029.0,1021.0,1021.0,1006.0,1020.0,1021.0,1021.0,1025.0,1019.0,1030.0,1021.0,1021.0,1007.0,1020.0,1020.0,1020.0,1019.0,1024.0,1019.0,1029.0,1021.0,1021.0,1006.0,1020.0,1020.0,1020.0,1018.0,1025.0,1020.0,1030.0,1022.0,1022.0,1007.0,1020.0,1021.0,1021.0,1019.0,1026.0,1020.0,1030.0,1021.0,1022.0,1007.0,1020.0,1021.0,1020.0,1018.0,1026.0,1019.0,1030.0,1021.0,1022.0,1007.0,1019.0,1021.0,1021.0,1019.0,1026.0,1020.0,1031.0,1021.0,1022.0,1007.0,1020.0,1022.0,1021.0,1021.0,1026.0,1021.0,1031.0,1022.0,1023.0,1008.0,1020.0,1022.0,1021.0,1019.0,1028.0,1021.0,1032.0,1022.0,1024.0,1008.0,1021.0,1023.0,1023.0,1027.0,1021.0,1031.0,1022.0,1024.0,1009.0,1020.0,1023.0,1026.0,1020.0,1031.0,1022.0,1023.0,1009.0,1020.0,1026.0,1021.0,1031.0,1022.0,1024.0,1009.0,1020.0,1026.0,1020.0,1031.0,1022.0,1023.0,1008.0,1020.0,1026.0,1019.0,1031.0,1022.0,1023.0,1008.0,1025.0,1020.0,1030.0,1021.0,1021.0,1008.0,1026.0,1020.0,1030.0,1023.0,1024.0,1010.0,1026.0,1021.0,1031.0,1023.0,1024.0,1011.0,1025.0,1020.0,1030.0,1022.0,1021.0,1009.0,1027.0,1021.0,1031.0,1024.0,1024.0,1012.0,1027.0,1020.0,1031.0,1023.0,1023.0,1012.0,1028.0,1022.0,1032.0,1023.0,1024.0,1014.0,1028.0,1022.0,1033.0,1023.0,1024.0,1014.0,1032.0,1023.0,1034.0,1024.0,1024.0,1017.0,1035.0,1027.0,1038.0,1026.0,1025.0,1023.0,1037.0,1027.0,1039.0,1026.0,1025.0,1025.0,1052.0,1041.0,1058.0,1033.0,1031.0,1111.0,1048.0,1039.0,1056.0,1032.0,1031.0,2259,2229,1902,	00:32:23.650,-0.0078125,0.048828125,1.02099609375,0.06103515625,0.42724609375,0.18310546875,2.7410888671875,0.4888916015625,-39.4134521484375,39.0,-471.0,-4142.0,-0.941131591796875,-0.023956298828125,0.0040283203125,0.337188720703125,2.7418745282950647,0.49099095904519635,-43.88689470743676,-0.9272408229608837,-0.023792278551572472,0.004967372001133972,0.37367594106598556,1,	00:32:23.651,0.0283203125,0.0712890625,1.02001953125,-0.3662109375,0.42724609375,0.48828125,3.9825439453125,-1.571044921875,128.9849853515625,-77.0,694.0,-1790.0,0.429901123046875,0.02734375,0.02545166015625,0.902099609375,3.9809278623040716,-1.5722746360142463,121.86662033286983,0.485071942997601,0.028857748589737203,0.0236941775926696,0.8736767287796275,1
1782117452.789572,0.331,1022.0,1028.0,1020.0,1024.0,1018.0,1029.0,1021.0,1020.0,1007.0,1024.0,1019.0,1029.0,1020.0,1022.0,1006.0,1020.0,1024.0,1019.0,1029.0,1021.0,1022.0,1007.0,1019.0,1021.0,1024.0,1019.0,1029.0,1021.0,1022.0,1006.0,1020.0,1021.0,1020.0,1025.0,1019.0,1029.0,1021.0,1022.0,1007.0,1020.0,1021.0,1021.0,1024.0,1019.0,1030.0,1021.0,1022.0,1007.0,1020.0,1021.0,1020.0,1018.0,1025.0,1019.0,1029.0,1021.0,1021.0,1006.0,1020.0,1020.0,1020.0,1018.0,1025.0,1019.0,1030.0,1021.0,1022.0,1007.0,1020.0,1021.0,1021.0,1019.0,1025.0,1019.0,1030.0,1021.0,1022.0,1007.0,1020.0,1021.0,1021.0,1019.0,1025.0,1020.0,1030.0,1021.0,1022.0,1007.0,1020.0,1021.0,1021.0,1019.0,1027.0,1020.0,1031.0,1021.0,1023.0,1008.0,1020.0,1022.0,1022.0,1021.0,1026.0,1020.0,1031.0,1021.0,1023.0,1008.0,1020.0,1022.0,1021.0,1020.0,1027.0,1021.0,1032.0,1022.0,1024.0,1009.0,1021.0,1023.0,1023.0,1027.0,1021.0,1031.0,1022.0,1024.0,1009.0,1020.0,1023.0,1026.0,1020.0,1031.0,1022.0,1023.0,1009.0,1020.0,1026.0,1021.0,1032.0,1022.0,1024.0,1009.0,1021.0,1026.0,1020.0,1031.0,1022.0,1023.0,1009.0,1021.0,1026.0,1020.0,1030.0,1022.0,1023.0,1009.0,1025.0,1020.0,1030.0,1021.0,1021.0,1008.0,1026.0,1020.0,1030.0,1022.0,1023.0,1010.0,1027.0,1020.0,1031.0,1022.0,1024.0,1011.0,1025.0,1020.0,1030.0,1022.0,1022.0,1010.0,1027.0,1021.0,1031.0,1023.0,1023.0,1012.0,1027.0,1021.0,1031.0,1023.0,1023.0,1012.0,1028.0,1022.0,1033.0,1023.0,1024.0,1014.0,1028.0,1022.0,1032.0,1023.0,1024.0,1015.0,1032.0,1023.0,1034.0,1024.0,1024.0,1018.0,1036.0,1026.0,1038.0,1025.0,1026.0,1024.0,1037.0,1028.0,1040.0,1026.0,1025.0,1025.0,1052.0,1041.0,1058.0,1033.0,1031.0,1112.0,1048.0,1039.0,1056.0,1032.0,1031.0,2259,2229,1902,	00:32:23.660,-0.0087890625,0.04833984375,1.02099609375,0.1220703125,0.42724609375,0.18310546875,2.6531982421875,0.4998779296875,-39.4134521484375,40.0,-469.0,-4140.0,-0.941131591796875,-0.02325439453125,0.003692626953125,0.337188720703125,2.651665455733659,0.5000560603299247,-43.88565199337402,-0.9272623166675543,-0.023091922554939876,0.004599594457412096,0.3736712498063828,1,	00:32:23.661,0.02783203125,0.0712890625,1.01953125,-0.30517578125,0.48828125,0.48828125,4.053955078125,-1.51611328125,128.990478515625,-75.0,695.0,-1788.0,0.42987060546875,0.02716064453125,0.026214599609375,0.902099609375,4.05437293063563,-1.5175581189710803,121.86976435437136,0.4850472645207332,0.02875102337459321,0.024486937680534376,0.8736720893555528,1
1782117452.797113,0.339,1022.0,1028.0,1020.0,1024.0,1019.0,1030.0,1020.0,1021.0,1007.0,1024.0,1019.0,1030.0,1021.0,1022.0,1006.0,1020.0,1024.0,1018.0,1030.0,1020.0,1021.0,1007.0,1019.0,1020.0,1024.0,1019.0,1030.0,1021.0,1022.0,1007.0,1020.0,1021.0,1021.0,1025.0,1019.0,1029.0,1021.0,1022.0,1007.0,1020.0,1021.0,1021.0,1024.0,1020.0,1030.0,1021.0,1021.0,1007.0,1019.0,1021.0,1020.0,1019.0,1024.0,1019.0,1030.0,1021.0,1021.0,1006.0,1019.0,1020.0,1020.0,1018.0,1025.0,1019.0,1030.0,1020.0,1023.0,1007.0,1020.0,1022.0,1021.0,1019.0,1024.0,1019.0,1030.0,1021.0,1022.0,1007.0,1020.0,1021.0,1021.0,1019.0,1025.0,1019.0,1030.0,1021.0,1022.0,1007.0,1020.0,1020.0,1021.0,1019.0,1026.0,1019.0,1031.0,1021.0,1023.0,1007.0,1020.0,1022.0,1021.0,1020.0,1026.0,1020.0,1031.0,1021.0,1023.0,1007.0,1020.0,1021.0,1022.0,1020.0,1027.0,1021.0,1032.0,1022.0,1024.0,1009.0,1020.0,1023.0,1024.0,1027.0,1021.0,1031.0,1021.0,1024.0,1009.0,1021.0,1022.0,1026.0,1021.0,1031.0,1022.0,1024.0,1009.0,1020.0,1027.0,1021.0,1031.0,1022.0,1025.0,1010.0,1021.0,1026.0,1020.0,1031.0,1021.0,1023.0,1009.0,1020.0,1025.0,1020.0,1030.0,1022.0,1023.0,1009.0,1025.0,1019.0,1029.0,1021.0,1021.0,1008.0,1026.0,1020.0,1030.0,1022.0,1023.0,1010.0,1027.0,1020.0,1030.0,1023.0,1024.0,1011.0,1025.0,1020.0,1030.0,1022.0,1022.0,1009.0,1027.0,1021.0,1032.0,1023.0,1024.0,1012.0,1027.0,1021.0,1032.0,1023.0,1023.0,1012.0,1028.0,1022.0,1033.0,1023.0,1024.0,1013.0,1028.0,1022.0,1033.0,1023.0,1023.0,1014.0,1032.0,1024.0,1035.0,1024.0,1025.0,1018.0,1036.0,1026.0,1038.0,1025.0,1026.0,1024.0,1037.0,1027.0,1040.0,1025.0,1025.0,1026.0,1051.0,1041.0,1057.0,1033.0,1032.0,1113.0,1048.0,1039.0,1055.0,1032.0,1031.0,2259,2229,1902,	00:32:23.671,-0.0087890625,0.04736328125,1.02099609375,0.06103515625,0.48828125,0.18310546875,2.6971435546875,0.428466796875,-39.407958984375,40.0,-469.0,-4141.0,-0.941131591796875,-0.0234375,0.00445556640625,0.337158203125,2.6987745553922466,0.425846870003954,-43.883221794428096,-0.9272687940189984,-0.023231367074360423,0.005353254420988447,0.37363649432237306,1,	00:32:23.672,0.02734375,0.0712890625,1.01953125,-0.18310546875,0.67138671875,0.42724609375,3.966064453125,-1.5380859375,128.9959716796875,-77.0,697.0,-1790.0,0.4298095703125,0.0269775390625,0.02545166015625,0.90216064453125,3.9641531991216503,-1.5354228964269685,121.87685426567795,0.4850099721792498,0.028503799703711783,0.023725090739534934,0.8737219124861954,1
1782117452.807695,0.349,1022.0,1029.0,1020.0,1023.0,1019.0,1029.0,1021.0,1020.0,1007.0,1024.0,1019.0,1029.0,1021.0,1021.0,1006.0,1020.0,1024.0,1019.0,1030.0,1021.0,1022.0,1006.0,1020.0,1021.0,1024.0,1019.0,1029.0,1021.0,1022.0,1006.0,1020.0,1020.0,1020.0,1024.0,1019.0,1030.0,1021.0,1022.0,1007.0,1020.0,1021.0,1021.0,1024.0,1019.0,1030.0,1021.0,1022.0,1006.0,1020.0,1020.0,1020.0,1019.0,1024.0,1019.0,1029.0,1021.0,1021.0,1006.0,1020.0,1020.0,1020.0,1018.0,1025.0,1020.0,1030.0,1021.0,1022.0,1007.0,1020.0,1021.0,1022.0,1020.0,1025.0,1019.0,1030.0,1021.0,1022.0,1007.0,1020.0,1021.0,1020.0,1019.0,1025.0,1020.0,1030.0,1021.0,1022.0,1007.0,1020.0,1020.0,1021.0,1019.0,1026.0,1020.0,1030.0,1021.0,1023.0,1007.0,1020.0,1021.0,1022.0,1020.0,1026.0,1020.0,1032.0,1021.0,1023.0,1007.0,1020.0,1021.0,1022.0,1020.0,1027.0,1020.0,1032.0,1022.0,1025.0,1009.0,1020.0,1023.0,1023.0,1027.0,1020.0,1032.0,1022.0,1025.0,1009.0,1021.0,1022.0,1026.0,1020.0,1032.0,1021.0,1023.0,1009.0,1021.0,1026.0,1020.0,1032.0,1021.0,1024.0,1009.0,1021.0,1026.0,1020.0,1031.0,1022.0,1024.0,1009.0,1020.0,1026.0,1020.0,1030.0,1021.0,1023.0,1009.0,1025.0,1019.0,1030.0,1021.0,1021.0,1008.0,1026.0,1020.0,1031.0,1021.0,1023.0,1010.0,1026.0,1020.0,1031.0,1022.0,1024.0,1011.0,1025.0,1020.0,1031.0,1022.0,1023.0,1009.0,1027.0,1021.0,1031.0,1022.0,1023.0,1011.0,1027.0,1021.0,1032.0,1023.0,1024.0,1012.0,1028.0,1022.0,1033.0,1023.0,1024.0,1013.0,1028.0,1022.0,1032.0,1023.0,1024.0,1014.0,1031.0,1024.0,1035.0,1024.0,1025.0,1018.0,1035.0,1026.0,1038.0,1025.0,1026.0,1023.0,1037.0,1027.0,1040.0,1025.0,1025.0,1025.0,1051.0,1041.0,1058.0,1033.0,1032.0,1111.0,1048.0,1039.0,1056.0,1032.0,1031.0,2259,2228,1902,	00:32:23.681,-0.00732421875,0.04736328125,1.021484375,0.06103515625,0.48828125,0.1220703125,2.61474609375,0.4010009765625,-39.407958984375,39.0,-469.0,-4147.0,-0.941162109375,-0.02264404296875,0.00439453125,0.337158203125,2.612996327715895,0.4003073307782166,-43.882395477476074,-0.9272912623128549,-0.02245404540334034,0.00528008549351262,0.3736292967373382,1,	00:32:23.682,0.02880859375,0.0712890625,1.01953125,-0.1220703125,0.8544921875,0.3662109375,3.9990234375,-1.6094970703125,129.00146484375,-77.0,694.0,-1789.0,0.429779052734375,0.0277099609375,0.02545166015625,0.90216064453125,4.000394823601775,-1.6106329370662877,121.88006906243189,0.48495202579695956,0.029229668707752253,0.02368337663566475,0.8737312268734552,1
1782117452.819747,0.361,1023.0,1029.0,1020.0,1023.0,1018.0,1029.0,1021.0,1021.0,1006.0,1024.0,1019.0,1029.0,1021.0,1021.0,1006.0,1019.0,1024.0,1018.0,1030.0,1021.0,1022.0,1006.0,1020.0,1021.0,1024.0,1019.0,1030.0,1021.0,1022.0,1006.0,1020.0,1020.0,1021.0,1025.0,1019.0,1030.0,1021.0,1022.0,1007.0,1020.0,1020.0,1021.0,1024.0,1019.0,1030.0,1021.0,1022.0,1007.0,1020.0,1020.0,1021.0,1019.0,1024.0,1019.0,1030.0,1021.0,1022.0,1006.0,1020.0,1020.0,1020.0,1018.0,1025.0,1019.0,1030.0,1021.0,1022.0,1007.0,1020.0,1021.0,1021.0,1020.0,1025.0,1019.0,1029.0,1021.0,1022.0,1007.0,1020.0,1020.0,1021.0,1019.0,1025.0,1020.0,1030.0,1021.0,1022.0,1007.0,1020.0,1021.0,1021.0,1020.0,1025.0,1019.0,1031.0,1021.0,1023.0,1008.0,1021.0,1021.0,1021.0,1021.0,1025.0,1021.0,1031.0,1021.0,1023.0,1007.0,1020.0,1021.0,1021.0,1020.0,1026.0,1021.0,1031.0,1021.0,1025.0,1009.0,1021.0,1023.0,1024.0,1026.0,1021.0,1031.0,1022.0,1024.0,1009.0,1020.0,1022.0,1026.0,1021.0,1031.0,1021.0,1024.0,1009.0,1020.0,1026.0,1020.0,1031.0,1022.0,1024.0,1009.0,1020.0,1026.0,1020.0,1031.0,1022.0,1023.0,1009.0,1020.0,1025.0,1020.0,1030.0,1022.0,1023.0,1009.0,1025.0,1020.0,1030.0,1021.0,1021.0,1008.0,1026.0,1020.0,1030.0,1022.0,1024.0,1009.0,1027.0,1021.0,1031.0,1023.0,1024.0,1011.0,1025.0,1019.0,1030.0,1022.0,1022.0,1009.0,1027.0,1021.0,1032.0,1023.0,1024.0,1011.0,1027.0,1021.0,1031.0,1023.0,1024.0,1012.0,1028.0,1022.0,1033.0,1023.0,1024.0,1013.0,1028.0,1022.0,1033.0,1023.0,1024.0,1014.0,1031.0,1024.0,1035.0,1024.0,1025.0,1018.0,1035.0,1027.0,1038.0,1026.0,1026.0,1023.0,1036.0,1028.0,1040.0,1025.0,1025.0,1024.0,1051.0,1041.0,1058.0,1033.0,1031.0,1111.0,1047.0,1040.0,1056.0,1033.0,1032.0,2259,2228,1902,	00:32:23.691,-0.0087890625,0.0478515625,1.021484375,0.06103515625,0.54931640625,0.244140625,2.669677734375,0.4779052734375,-39.407958984375,38.0,-471.0,-4146.0,-0.941162109375,-0.023345947265625,0.00390625,0.337127685546875,2.6685887285829506,0.4789886253657844,-43.87928400585838,-0.9272819879490287,-0.023160467337208612,0.004823981031212714,0.3736153594072789,1,	00:32:23.692,0.03173828125,0.0712890625,1.01806640625,0.244140625,1.40380859375,0.3662109375,4.0045166015625,-1.6864013671875,129.0069580078125,-76.0,694.0,-1787.0,0.4296875,0.0283203125,0.02520751953125,0.90216064453125,4.005464560375817,-1.6884729370807012,121.8846223324803,0.4848905193003874,0.029843372719849968,0.023393210775732236,0.8737524335227382,1
1782117452.828113,0.370,1022.0,1029.0,1020.0,1024.0,1018.0,1029.0,1021.0,1021.0,1007.0,1024.0,1019.0,1029.0,1021.0,1021.0,1007.0,1019.0,1024.0,1019.0,1029.0,1021.0,1021.0,1007.0,1019.0,1021.0,1024.0,1019.0,1029.0,1021.0,1021.0,1006.0,1020.0,1020.0,1021.0,1024.0,1019.0,1030.0,1022.0,1022.0,1006.0,1020.0,1021.0,1020.0,1024.0,1019.0,1030.0,1021.0,1022.0,1006.0,1020.0,1021.0,1021.0,1018.0,1024.0,1019.0,1029.0,1021.0,1021.0,1007.0,1020.0,1020.0,1020.0,1018.0,1025.0,1019.0,1029.0,1022.0,1022.0,1007.0,1020.0,1021.0,1021.0,1020.0,1025.0,1019.0,1030.0,1021.0,1022.0,1006.0,1020.0,1021.0,1020.0,1019.0,1025.0,1020.0,1030.0,1021.0,1022.0,1007.0,1020.0,1021.0,1020.0,1019.0,1025.0,1020.0,1030.0,1021.0,1022.0,1008.0,1020.0,1022.0,1022.0,1020.0,1025.0,1019.0,1031.0,1021.0,1023.0,1007.0,1020.0,1021.0,1022.0,1020.0,1026.0,1021.0,1032.0,1022.0,1024.0,1008.0,1021.0,1023.0,1024.0,1026.0,1021.0,1031.0,1022.0,1024.0,1009.0,1021.0,1022.0,1026.0,1021.0,1031.0,1021.0,1024.0,1008.0,1020.0,1026.0,1020.0,1031.0,1022.0,1025.0,1009.0,1020.0,1026.0,1019.0,1031.0,1022.0,1024.0,1008.0,1020.0,1025.0,1020.0,1031.0,1022.0,1022.0,1008.0,1025.0,1020.0,1030.0,1021.0,1022.0,1008.0,1025.0,1020.0,1031.0,1022.0,1023.0,1009.0,1026.0,1021.0,1031.0,1022.0,1023.0,1010.0,1025.0,1020.0,1030.0,1021.0,1022.0,1009.0,1027.0,1021.0,1031.0,1023.0,1024.0,1011.0,1027.0,1021.0,1032.0,1023.0,1023.0,1011.0,1028.0,1022.0,1032.0,1023.0,1024.0,1013.0,1028.0,1022.0,1033.0,1024.0,1024.0,1014.0,1031.0,1024.0,1035.0,1024.0,1025.0,1018.0,1035.0,1026.0,1038.0,1026.0,1026.0,1023.0,1036.0,1028.0,1040.0,1026.0,1025.0,1024.0,1052.0,1041.0,1058.0,1034.0,1032.0,1111.0,1048.0,1040.0,1056.0,1033.0,1031.0,2259,2228,1902,	00:32:23.701,-0.0078125,0.048828125,1.02099609375,0.06103515625,0.67138671875,0.244140625,2.74658203125,0.439453125,-39.4024658203125,40.0,-469.0,-4144.0,-0.941162109375,-0.02386474609375,0.004486083984375,0.33709716796875,2.7480704974076833,0.4389327973619887,-43.8759012625111,-0.9272811589756524,-0.0236732590815105,0.0054065785084428785,0.37357729845650733,1,	00:32:23.702,0.0263671875,0.06982421875,1.0185546875,0.18310546875,1.3427734375,0.3662109375,3.9715576171875,-1.593017578125,129.012451171875,-76.0,694.0,-1790.0,0.4296875,0.027435302734375,0.02532958984375,0.902191162109375,3.9730842403056625,-1.5903590344365068,121.8901919809485,0.48488835126092333,0.028957506865185913,0.0235636487600216,0.8737788645101977,1
1782117452.838918,0.381,1022.0,1028.0,1021.0,1023.0,1018.0,1029.0,1021.0,1021.0,1006.0,1024.0,1019.0,1029.0,1021.0,1021.0,1006.0,1020.0,1024.0,1019.0,1030.0,1021.0,1022.0,1006.0,1020.0,1021.0,1024.0,1019.0,1029.0,1021.0,1022.0,1006.0,1020.0,1021.0,1020.0,1024.0,1019.0,1030.0,1021.0,1022.0,1006.0,1020.0,1021.0,1021.0,1024.0,1019.0,1029.0,1021.0,1022.0,1006.0,1020.0,1021.0,1021.0,1018.0,1024.0,1019.0,1029.0,1022.0,1021.0,1006.0,1020.0,1020.0,1019.0,1018.0,1024.0,1019.0,1030.0,1021.0,1023.0,1007.0,1020.0,1021.0,1021.0,1020.0,1024.0,1019.0,1030.0,1021.0,1022.0,1007.0,1020.0,1021.0,1020.0,1019.0,1024.0,1019.0,1029.0,1021.0,1022.0,1007.0,1020.0,1021.0,1021.0,1019.0,1025.0,1020.0,1030.0,1022.0,1023.0,1007.0,1020.0,1021.0,1021.0,1020.0,1026.0,1020.0,1031.0,1022.0,1023.0,1007.0,1020.0,1021.0,1022.0,1020.0,1026.0,1020.0,1032.0,1022.0,1024.0,1008.0,1021.0,1023.0,1023.0,1027.0,1020.0,1031.0,1021.0,1024.0,1008.0,1021.0,1022.0,1026.0,1019.0,1030.0,1022.0,1023.0,1008.0,1020.0,1026.0,1020.0,1031.0,1022.0,1025.0,1009.0,1020.0,1026.0,1020.0,1031.0,1022.0,1023.0,1008.0,1020.0,1025.0,1020.0,1030.0,1022.0,1022.0,1008.0,1025.0,1020.0,1030.0,1021.0,1021.0,1008.0,1026.0,1020.0,1031.0,1021.0,1023.0,1009.0,1026.0,1020.0,1031.0,1022.0,1024.0,1010.0,1025.0,1020.0,1030.0,1021.0,1022.0,1009.0,1027.0,1021.0,1031.0,1022.0,1024.0,1011.0,1027.0,1021.0,1032.0,1023.0,1023.0,1011.0,1028.0,1022.0,1033.0,1023.0,1024.0,1013.0,1028.0,1022.0,1033.0,1023.0,1024.0,1014.0,1032.0,1024.0,1035.0,1023.0,1025.0,1017.0,1036.0,1026.0,1038.0,1025.0,1026.0,1022.0,1037.0,1027.0,1040.0,1025.0,1026.0,1024.0,1052.0,1041.0,1058.0,1033.0,1032.0,1111.0,1049.0,1040.0,1056.0,1032.0,1031.0,2259,2228,1902,	00:32:23.711,-0.0078125,0.04833984375,1.021484375,0.06103515625,0.67138671875,0.244140625,2.65869140625,0.4449462890625,-39.4024658203125,40.0,-472.0,-4139.0,-0.941192626953125,-0.02313232421875,0.004180908203125,0.33709716796875,2.657174475495696,0.44263085810908165,-43.87384468652848,-0.9273059551662242,-0.022949858074536318,0.005079909283110749,0.37356547491609926,1,	00:32:23.713,0.0244140625,0.0703125,1.017578125,0.244140625,1.3427734375,0.30517578125,3.966064453125,-1.4886474609375,129.012451171875,-76.0,695.0,-1788.0,0.4296875,0.026580810546875,0.025665283203125,0.9022216796875,3.9669501997429686,-1.4859435546497175,121.89439777287228,0.48489133310799465,0.02813489898059138,0.023960493907720384,0.8737932920707286,1
1782117452.849432,0.391,1022.0,1029.0,1020.0,1024.0,1018.0,1030.0,1020.0,1021.0,1006.0,1024.0,1019.0,1029.0,1021.0,1021.0,1006.0,1020.0,1024.0,1019.0,1030.0,1021.0,1022.0,1006.0,1020.0,1020.0,1024.0,1019.0,1029.0,1021.0,1022.0,1006.0,1020.0,1020.0,1020.0,1025.0,1019.0,1030.0,1021.0,1022.0,1006.0,1020.0,1021.0,1021.0,1025.0,1019.0,1029.0,1021.0,1021.0,1006.0,1020.0,1020.0,1020.0,1018.0,1025.0,1019.0,1030.0,1020.0,1022.0,1006.0,1019.0,1020.0,1019.0,1019.0,1025.0,1019.0,1030.0,1021.0,1022.0,1006.0,1020.0,1021.0,1021.0,1020.0,1025.0,1019.0,1030.0,1021.0,1022.0,1007.0,1020.0,1020.0,1021.0,1019.0,1025.0,1019.0,1030.0,1021.0,1022.0,1006.0,1019.0,1021.0,1021.0,1019.0,1027.0,1019.0,1031.0,1021.0,1023.0,1007.0,1020.0,1021.0,1021.0,1020.0,1026.0,1020.0,1031.0,1021.0,1023.0,1008.0,1019.0,1020.0,1020.0,1020.0,1027.0,1020.0,1032.0,1022.0,1025.0,1008.0,1021.0,1022.0,1023.0,1027.0,1021.0,1032.0,1022.0,1024.0,1008.0,1020.0,1022.0,1026.0,1020.0,1032.0,1021.0,1023.0,1008.0,1020.0,1027.0,1021.0,1031.0,1022.0,1024.0,1009.0,1020.0,1026.0,1020.0,1031.0,1021.0,1023.0,1009.0,1019.0,1026.0,1020.0,1030.0,1021.0,1022.0,1009.0,1026.0,1019.0,1030.0,1021.0,1022.0,1007.0,1026.0,1020.0,1031.0,1021.0,1023.0,1009.0,1027.0,1021.0,1031.0,1022.0,1024.0,1009.0,1025.0,1019.0,1030.0,1021.0,1022.0,1009.0,1028.0,1021.0,1032.0,1023.0,1024.0,1011.0,1027.0,1021.0,1032.0,1022.0,1023.0,1011.0,1028.0,1022.0,1032.0,1023.0,1024.0,1013.0,1028.0,1022.0,1033.0,1022.0,1024.0,1013.0,1032.0,1024.0,1034.0,1023.0,1024.0,1017.0,1035.0,1026.0,1038.0,1026.0,1026.0,1022.0,1037.0,1028.0,1039.0,1026.0,1025.0,1024.0,1052.0,1041.0,1057.0,1033.0,1032.0,1111.0,1049.0,1040.0,1055.0,1032.0,1031.0,2260,2228,1902,	00:32:23.722,-0.0078125,0.048828125,1.021484375,0.06103515625,0.6103515625,0.244140625,2.74658203125,0.4449462890625,-39.39697265625,40.0,-471.0,-4143.0,-0.941162109375,-0.023895263671875,0.00445556640625,0.337066650390625,2.7492070946770872,0.44294682527000856,-43.8704166106689,-0.9272983645467651,-0.023695793908059107,0.005376665632811627,0.37353359143005394,1,	00:32:23.723,0.025390625,0.0712890625,1.021484375,0.244140625,1.220703125,0.30517578125,4.0045166015625,-1.3897705078125,129.0179443359375,-75.0,692.0,-1794.0,0.4296875,0.025970458984375,0.02630615234375,0.9022216796875,4.002241827206686,-1.388426445989155,121.897463564982,0.48489042239737506,0.027540348641032213,0.024643636995610143,0.873793739173985,1
1782117452.859432,0.401,1023.0,1028.0,1020.0,1024.0,1018.0,1029.0,1021.0,1021.0,1007.0,1024.0,1019.0,1029.0,1021.0,1021.0,1006.0,1019.0,1024.0,1018.0,1029.0,1021.0,1022.0,1007.0,1019.0,1021.0,1025.0,1019.0,1029.0,1021.0,1022.0,1007.0,1019.0,1020.0,1021.0,1024.0,1019.0,1030.0,1021.0,1022.0,1007.0,1020.0,1021.0,1020.0,1024.0,1019.0,1030.0,1021.0,1022.0,1007.0,1019.0,1020.0,1020.0,1018.0,1024.0,1019.0,1030.0,1021.0,1021.0,1007.0,1020.0,1020.0,1020.0,1018.0,1025.0,1019.0,1030.0,1021.0,1023.0,1006.0,1020.0,1021.0,1021.0,1020.0,1025.0,1019.0,1030.0,1021.0,1022.0,1007.0,1020.0,1020.0,1021.0,1019.0,1024.0,1019.0,1030.0,1022.0,1022.0,1007.0,1020.0,1020.0,1021.0,1019.0,1026.0,1020.0,1031.0,1022.0,1023.0,1007.0,1020.0,1022.0,1021.0,1020.0,1026.0,1020.0,1031.0,1021.0,1023.0,1008.0,1020.0,1020.0,1021.0,1020.0,1027.0,1020.0,1032.0,1022.0,1024.0,1008.0,1020.0,1022.0,1023.0,1027.0,1020.0,1032.0,1022.0,1024.0,1009.0,1020.0,1022.0,1026.0,1020.0,1032.0,1021.0,1024.0,1008.0,1019.0,1026.0,1020.0,1032.0,1022.0,1025.0,1009.0,1020.0,1026.0,1020.0,1031.0,1022.0,1023.0,1009.0,1019.0,1026.0,1020.0,1030.0,1022.0,1022.0,1009.0,1025.0,1020.0,1030.0,1021.0,1021.0,1008.0,1026.0,1020.0,1030.0,1021.0,1023.0,1009.0,1026.0,1020.0,1031.0,1022.0,1024.0,1011.0,1025.0,1019.0,1030.0,1021.0,1022.0,1009.0,1027.0,1021.0,1031.0,1022.0,1023.0,1011.0,1027.0,1021.0,1031.0,1022.0,1023.0,1012.0,1028.0,1022.0,1033.0,1022.0,1024.0,1014.0,1028.0,1022.0,1033.0,1023.0,1024.0,1014.0,1032.0,1024.0,1035.0,1024.0,1025.0,1018.0,1035.0,1026.0,1038.0,1026.0,1025.0,1023.0,1037.0,1028.0,1040.0,1026.0,1024.0,1024.0,1051.0,1041.0,1057.0,1033.0,1031.0,1111.0,1048.0,1039.0,1055.0,1032.0,1031.0,2260,2228,1902,	00:32:23.732,-0.0078125,0.04736328125,1.021484375,0.0,0.54931640625,0.244140625,2.65869140625,0.4449462890625,-39.39697265625,40.0,-469.0,-4146.0,-0.941192626953125,-0.02313232421875,0.004180908203125,0.3370361328125,2.6577946091943883,0.44326956902150844,-43.86842146454095,-0.927323441210806,-0.022957197858027124,0.005075675429284108,0.3735216726863285,1,	00:32:23.733,0.02685546875,0.072265625,1.02099609375,0.244140625,1.0986328125,0.244140625,4.0374755859375,-1.461181640625,129.0179443359375,-75.0,693.0,-1790.0,0.429656982421875,0.02667236328125,0.02630615234375,0.9022216796875,4.038968637888917,-1.4625109839292723,121.89981026607745,0.4848398590563124,0.0282598884938737,0.02461029863466491,0.8737997613719527,1
1782117452.869433,0.411,1022.0,1029.0,1021.0,1024.0,1018.0,1029.0,1021.0,1021.0,1006.0,1024.0,1019.0,1029.0,1021.0,1022.0,1006.0,1020.0,1024.0,1018.0,1029.0,1021.0,1022.0,1006.0,1019.0,1020.0,1025.0,1019.0,1029.0,1021.0,1021.0,1006.0,1020.0,1020.0,1020.0,1024.0,1019.0,1030.0,1021.0,1022.0,1006.0,1020.0,1020.0,1020.0,1024.0,1019.0,1030.0,1021.0,1021.0,1007.0,1019.0,1020.0,1020.0,1018.0,1024.0,1019.0,1030.0,1021.0,1021.0,1007.0,1019.0,1020.0,1019.0,1018.0,1024.0,1019.0,1030.0,1021.0,1023.0,1007.0,1019.0,1020.0,1021.0,1019.0,1025.0,1019.0,1030.0,1021.0,1022.0,1007.0,1020.0,1020.0,1020.0,1019.0,1025.0,1020.0,1031.0,1021.0,1023.0,1006.0,1020.0,1021.0,1020.0,1019.0,1025.0,1019.0,1031.0,1021.0,1023.0,1007.0,1020.0,1021.0,1022.0,1021.0,1025.0,1020.0,1031.0,1021.0,1023.0,1007.0,1020.0,1021.0,1021.0,1020.0,1027.0,1021.0,1032.0,1022.0,1024.0,1008.0,1020.0,1022.0,1023.0,1026.0,1021.0,1032.0,1022.0,1024.0,1009.0,1020.0,1022.0,1026.0,1020.0,1032.0,1022.0,1023.0,1008.0,1019.0,1026.0,1020.0,1032.0,1022.0,1024.0,1009.0,1020.0,1026.0,1020.0,1031.0,1021.0,1023.0,1008.0,1020.0,1025.0,1020.0,1030.0,1021.0,1022.0,1009.0,1025.0,1019.0,1030.0,1021.0,1021.0,1008.0,1026.0,1020.0,1031.0,1022.0,1022.0,1010.0,1027.0,1021.0,1031.0,1022.0,1023.0,1010.0,1025.0,1019.0,1031.0,1022.0,1021.0,1009.0,1027.0,1021.0,1032.0,1022.0,1023.0,1011.0,1027.0,1021.0,1032.0,1022.0,1023.0,1011.0,1028.0,1022.0,1033.0,1023.0,1024.0,1013.0,1028.0,1022.0,1033.0,1022.0,1023.0,1014.0,1032.0,1024.0,1035.0,1023.0,1024.0,1018.0,1035.0,1026.0,1038.0,1025.0,1026.0,1023.0,1037.0,1028.0,1040.0,1025.0,1025.0,1024.0,1052.0,1041.0,1058.0,1032.0,1031.0,1110.0,1048.0,1039.0,1056.0,1032.0,1031.0,2261,2228,1902,	00:32:23.742,-0.00830078125,0.04833984375,1.02099609375,0.06103515625,0.6103515625,0.18310546875,2.7410888671875,0.4833984375,-39.3914794921875,40.0,-469.0,-4143.0,-0.941192626953125,-0.023956298828125,0.00408935546875,0.3370361328125,2.742966125762577,0.4844730507978926,-43.865624669686675,-0.9273106735673634,-0.02378079979046692,0.005019262933705594,0.3735026040725431,1,	00:32:23.743,0.02783203125,0.07177734375,1.02001953125,0.1220703125,1.03759765625,0.30517578125,4.0264892578125,-1.5435791015625,129.0234375,-75.0,693.0,-1792.0,0.429595947265625,0.027252197265625,0.025909423828125,0.902252197265625,4.027146750931361,-1.5431190542634694,121.90392519693877,0.4847853120533035,0.028823353845790916,0.024179573192972825,0.8738236456692317,1
1782117452.879470,0.421,1022.0,1029.0,1020.0,1024.0,1019.0,1029.0,1020.0,1021.0,1006.0,1023.0,1019.0,1029.0,1021.0,1021.0,1006.0,1019.0,1024.0,1019.0,1030.0,1021.0,1022.0,1007.0,1019.0,1020.0,1025.0,1019.0,1030.0,1021.0,1021.0,1006.0,1020.0,1021.0,1020.0,1024.0,1019.0,1030.0,1021.0,1022.0,1006.0,1020.0,1020.0,1020.0,1024.0,1019.0,1030.0,1021.0,1022.0,1006.0,1019.0,1020.0,1020.0,1018.0,1025.0,1019.0,1030.0,1021.0,1022.0,1006.0,1019.0,1020.0,1020.0,1018.0,1025.0,1019.0,1030.0,1021.0,1022.0,1007.0,1019.0,1021.0,1021.0,1019.0,1025.0,1019.0,1030.0,1021.0,1022.0,1006.0,1019.0,1020.0,1020.0,1019.0,1025.0,1019.0,1031.0,1021.0,1023.0,1007.0,1020.0,1020.0,1021.0,1019.0,1026.0,1020.0,1031.0,1021.0,1024.0,1007.0,1020.0,1021.0,1021.0,1020.0,1026.0,1020.0,1031.0,1021.0,1023.0,1007.0,1020.0,1021.0,1021.0,1020.0,1027.0,1020.0,1032.0,1021.0,1025.0,1008.0,1020.0,1022.0,1022.0,1027.0,1020.0,1032.0,1021.0,1024.0,1009.0,1020.0,1022.0,1026.0,1020.0,1032.0,1021.0,1023.0,1008.0,1019.0,1026.0,1020.0,1032.0,1021.0,1024.0,1009.0,1020.0,1026.0,1020.0,1031.0,1021.0,1023.0,1008.0,1019.0,1026.0,1020.0,1031.0,1021.0,1023.0,1008.0,1025.0,1020.0,1030.0,1021.0,1021.0,1008.0,1026.0,1020.0,1031.0,1022.0,1023.0,1009.0,1027.0,1021.0,1031.0,1022.0,1024.0,1010.0,1026.0,1020.0,1031.0,1021.0,1021.0,1008.0,1027.0,1021.0,1032.0,1023.0,1024.0,1011.0,1027.0,1021.0,1032.0,1023.0,1023.0,1011.0,1028.0,1021.0,1033.0,1023.0,1024.0,1013.0,1029.0,1021.0,1033.0,1022.0,1024.0,1014.0,1032.0,1024.0,1035.0,1024.0,1024.0,1017.0,1036.0,1026.0,1039.0,1025.0,1025.0,1022.0,1037.0,1028.0,1040.0,1025.0,1024.0,1024.0,1052.0,1042.0,1058.0,1033.0,1031.0,1110.0,1049.0,1039.0,1056.0,1032.0,1030.0,2261,2228,1901,	00:32:23.752,-0.00830078125,0.048828125,1.021484375,0.0,0.67138671875,0.18310546875,2.713623046875,0.406494140625,-39.3914794921875,38.0,-467.0,-4142.0,-0.941192626953125,-0.02349853515625,0.004669189453125,0.337005615234375,2.7149208610399147,0.4038423929375472,-43.86369186041642,-0.9273315207810118,-0.023291256653070715,0.005580002399486167,0.37347373602800826,1,	00:32:23.753,0.02734375,0.07080078125,1.02099609375,-0.06103515625,0.91552734375,0.3662109375,3.9385986328125,-1.51611328125,129.0289306640625,-74.0,693.0,-1789.0,0.4295654296875,0.026702880859375,0.02532958984375,0.90228271484375,3.9369238929617105,-1.5154060844985677,121.91061131294498,0.48476569611585313,0.028229051701238104,0.02361065544837594,0.8738694853687586,1
1782117452.892478,0.434,1022.0,1029.0,1020.0,1024.0,1019.0,1029.0,1020.0,1021.0,1006.0,1024.0,1019.0,1029.0,1021.0,1021.0,1006.0,1019.0,1024.0,1019.0,1029.0,1021.0,1022.0,1006.0,1020.0,1020.0,1024.0,1019.0,1029.0,1021.0,1022.0,1006.0,1019.0,1020.0,1020.0,1024.0,1019.0,1030.0,1021.0,1022.0,1007.0,1020.0,1020.0,1020.0,1025.0,1019.0,1030.0,1021.0,1022.0,1006.0,1019.0,1020.0,1020.0,1019.0,1024.0,1019.0,1029.0,1021.0,1022.0,1006.0,1020.0,1020.0,1020.0,1018.0,1025.0,1019.0,1030.0,1021.0,1023.0,1006.0,1019.0,1020.0,1021.0,1020.0,1025.0,1019.0,1030.0,1021.0,1022.0,1006.0,1019.0,1020.0,1020.0,1019.0,1025.0,1020.0,1031.0,1021.0,1022.0,1007.0,1020.0,1020.0,1021.0,1019.0,1027.0,1020.0,1030.0,1021.0,1023.0,1007.0,1019.0,1021.0,1021.0,1020.0,1026.0,1020.0,1031.0,1022.0,1023.0,1007.0,1019.0,1021.0,1021.0,1020.0,1027.0,1021.0,1032.0,1022.0,1025.0,1008.0,1020.0,1022.0,1023.0,1027.0,1021.0,1032.0,1022.0,1024.0,1008.0,1020.0,1021.0,1027.0,1020.0,1031.0,1022.0,1023.0,1008.0,1019.0,1027.0,1020.0,1031.0,1022.0,1025.0,1008.0,1020.0,1026.0,1020.0,1031.0,1022.0,1023.0,1008.0,1020.0,1026.0,1020.0,1031.0,1022.0,1022.0,1009.0,1025.0,1020.0,1030.0,1021.0,1021.0,1008.0,1026.0,1020.0,1031.0,1022.0,1023.0,1009.0,1026.0,1021.0,1032.0,1022.0,1023.0,1010.0,1025.0,1020.0,1030.0,1021.0,1022.0,1008.0,1027.0,1022.0,1032.0,1022.0,1024.0,1011.0,1027.0,1021.0,1032.0,1022.0,1024.0,1011.0,1028.0,1022.0,1033.0,1023.0,1024.0,1012.0,1028.0,1022.0,1033.0,1023.0,1023.0,1013.0,1032.0,1023.0,1034.0,1024.0,1024.0,1017.0,1034.0,1026.0,1038.0,1025.0,1025.0,1022.0,1037.0,1027.0,1040.0,1025.0,1025.0,1024.0,1052.0,1042.0,1058.0,1033.0,1031.0,1109.0,1049.0,1040.0,1056.0,1032.0,1030.0,2262,2228,1902,	00:32:23.763,-0.0078125,0.04833984375,1.02099609375,0.06103515625,0.54931640625,0.18310546875,2.70263671875,0.4998779296875,-39.385986328125,41.0,-472.0,-4142.0,-0.941192626953125,-0.023681640625,0.00384521484375,0.337005615234375,2.7042483307478835,0.5002169449444647,-43.86169122341361,-0.9273297176257429,-0.023518936147234215,0.004764841704459584,0.3734752344322095,1,	00:32:23.764,0.02685546875,0.072265625,1.0185546875,-0.244140625,0.8544921875,0.3662109375,4.0264892578125,-1.4996337890625,129.034423828125,-74.0,694.0,-1792.0,0.429534912109375,0.02691650390625,0.02606201171875,0.90228271484375,4.0256252395069305,-1.500470511177502,121.91245097395279,0.4847345047834876,0.028490055592854138,0.02435082362185669,0.873858005624232,1
1782117452.899475,0.441,1023.0,1029.0,1020.0,1024.0,1019.0,1029.0,1021.0,1021.0,1006.0,1024.0,1019.0,1030.0,1021.0,1022.0,1006.0,1019.0,1025.0,1019.0,1029.0,1021.0,1022.0,1006.0,1020.0,1020.0,1024.0,1019.0,1029.0,1021.0,1021.0,1006.0,1020.0,1021.0,1020.0,1025.0,1019.0,1030.0,1022.0,1022.0,1006.0,1020.0,1020.0,1020.0,1025.0,1019.0,1030.0,1021.0,1021.0,1007.0,1020.0,1020.0,1020.0,1018.0,1025.0,1019.0,1030.0,1021.0,1021.0,1006.0,1020.0,1019.0,1020.0,1018.0,1026.0,1019.0,1030.0,1022.0,1023.0,1006.0,1020.0,1020.0,1021.0,1020.0,1025.0,1019.0,1030.0,1021.0,1022.0,1006.0,1020.0,1020.0,1020.0,1019.0,1025.0,1019.0,1030.0,1022.0,1022.0,1006.0,1020.0,1021.0,1020.0,1020.0,1027.0,1020.0,1031.0,1021.0,1023.0,1007.0,1020.0,1021.0,1021.0,1020.0,1026.0,1019.0,1031.0,1021.0,1023.0,1007.0,1020.0,1021.0,1021.0,1019.0,1028.0,1020.0,1032.0,1022.0,1024.0,1009.0,1020.0,1022.0,1023.0,1027.0,1020.0,1031.0,1022.0,1024.0,1008.0,1020.0,1022.0,1026.0,1020.0,1032.0,1022.0,1024.0,1008.0,1019.0,1027.0,1020.0,1031.0,1022.0,1024.0,1009.0,1020.0,1026.0,1020.0,1031.0,1022.0,1023.0,1008.0,1020.0,1026.0,1020.0,1031.0,1022.0,1022.0,1008.0,1025.0,1019.0,1030.0,1021.0,1021.0,1007.0,1026.0,1020.0,1030.0,1022.0,1023.0,1009.0,1027.0,1021.0,1032.0,1022.0,1023.0,1010.0,1025.0,1019.0,1031.0,1022.0,1022.0,1008.0,1027.0,1021.0,1032.0,1023.0,1023.0,1011.0,1026.0,1021.0,1031.0,1022.0,1023.0,1011.0,1028.0,1021.0,1033.0,1024.0,1024.0,1012.0,1029.0,1022.0,1033.0,1023.0,1024.0,1013.0,1032.0,1024.0,1035.0,1024.0,1024.0,1016.0,1035.0,1026.0,1038.0,1025.0,1025.0,1021.0,1037.0,1028.0,1040.0,1025.0,1025.0,1023.0,1052.0,1042.0,1059.0,1033.0,1031.0,1109.0,1048.0,1039.0,1056.0,1032.0,1030.0,2262,2227,1902,	00:32:23.773,-0.0087890625,0.04833984375,1.02197265625,0.06103515625,0.48828125,0.18310546875,2.74658203125,0.4229736328125,-39.385986328125,40.0,-472.0,-4142.0,-0.941192626953125,-0.0238037109375,0.004608154296875,0.33697509765625,2.744534982420476,0.4223651685395271,-43.85931291554398,-0.927337755514615,-0.02359146223147468,0.005525713514337882,0.37344021823720913,1,	00:32:23.774,0.02587890625,0.0703125,1.0185546875,-0.18310546875,0.732421875,0.42724609375,3.944091796875,-1.4447021484375,129.0399169921875,-75.0,693.0,-1793.0,0.429534912109375,0.02618408203125,0.025665283203125,0.902313232421875,3.9463811629435566,-1.4445707642151309,121.91921414087524,0.484720238607971,0.02772734140472342,0.023985004082128305,0.873900568944567,1
1782117452.909605,0.451,1022.0,1029.0,1020.0,1024.0,1019.0,1029.0,1020.0,1021.0,1006.0,1024.0,1019.0,1030.0,1021.0,1021.0,1006.0,1020.0,1024.0,1019.0,1029.0,1021.0,1022.0,1006.0,1020.0,1020.0,1024.0,1019.0,1030.0,1021.0,1021.0,1006.0,1019.0,1020.0,1020.0,1024.0,1019.0,1030.0,1021.0,1021.0,1006.0,1020.0,1020.0,1020.0,1025.0,1019.0,1030.0,1021.0,1021.0,1006.0,1019.0,1020.0,1020.0,1019.0,1024.0,1019.0,1030.0,1021.0,1021.0,1006.0,1019.0,1020.0,1020.0,1018.0,1025.0,1019.0,1030.0,1022.0,1022.0,1007.0,1020.0,1021.0,1021.0,1020.0,1025.0,1019.0,1030.0,1021.0,1022.0,1006.0,1019.0,1020.0,1020.0,1019.0,1025.0,1019.0,1030.0,1021.0,1022.0,1007.0,1020.0,1020.0,1021.0,1019.0,1026.0,1020.0,1031.0,1021.0,1022.0,1007.0,1020.0,1021.0,1022.0,1020.0,1027.0,1019.0,1031.0,1022.0,1023.0,1007.0,1020.0,1021.0,1021.0,1020.0,1027.0,1021.0,1032.0,1022.0,1024.0,1008.0,1020.0,1022.0,1023.0,1027.0,1020.0,1032.0,1022.0,1024.0,1008.0,1020.0,1022.0,1027.0,1020.0,1031.0,1022.0,1022.0,1008.0,1020.0,1027.0,1021.0,1032.0,1023.0,1024.0,1009.0,1020.0,1026.0,1020.0,1031.0,1023.0,1022.0,1008.0,1019.0,1026.0,1019.0,1031.0,1021.0,1022.0,1008.0,1026.0,1020.0,1030.0,1021.0,1021.0,1007.0,1025.0,1020.0,1031.0,1022.0,1023.0,1009.0,1027.0,1021.0,1031.0,1023.0,1023.0,1010.0,1026.0,1019.0,1031.0,1022.0,1021.0,1008.0,1027.0,1021.0,1032.0,1023.0,1023.0,1010.0,1027.0,1021.0,1032.0,1023.0,1023.0,1010.0,1028.0,1022.0,1033.0,1023.0,1024.0,1013.0,1028.0,1022.0,1033.0,1023.0,1024.0,1014.0,1031.0,1024.0,1035.0,1024.0,1024.0,1016.0,1036.0,1027.0,1038.0,1026.0,1025.0,1021.0,1037.0,1028.0,1040.0,1026.0,1024.0,1024.0,1053.0,1041.0,1058.0,1033.0,1030.0,1110.0,1049.0,1040.0,1056.0,1032.0,1030.0,2262,2227,1902,	00:32:23.783,-0.00830078125,0.0478515625,1.0205078125,0.06103515625,0.48828125,0.1220703125,2.669677734375,0.4833984375,-39.385986328125,42.0,-470.0,-4141.0,-0.94122314453125,-0.023345947265625,0.00390625,0.33697509765625,2.670815468307647,0.48074000492430524,-43.858445291828936,-0.9273492727266263,-0.023185069306585624,0.004812851561082856,0.3734469378566347,1,	00:32:23.784,0.02685546875,0.0703125,1.01806640625,-0.18310546875,0.48828125,0.42724609375,3.9495849609375,-1.5325927734375,129.04541015625,-75.0,692.0,-1790.0,0.429473876953125,0.026885986328125,0.025360107421875,0.90234375,3.950917988129517,-1.5313940152677268,121.92364698058024,0.48465772867062945,0.02840742202768242,0.023652859298638005,0.8739224488823744,1
1782117452.922817,0.465,1023.0,1029.0,1020.0,1025.0,1018.0,1029.0,1021.0,1021.0,1007.0,1024.0,1019.0,1029.0,1020.0,1021.0,1006.0,1020.0,1025.0,1019.0,1030.0,1021.0,1022.0,1006.0,1019.0,1021.0,1025.0,1019.0,1029.0,1021.0,1022.0,1007.0,1020.0,1020.0,1020.0,1025.0,1019.0,1030.0,1021.0,1022.0,1006.0,1019.0,1021.0,1020.0,1025.0,1019.0,1029.0,1021.0,1021.0,1006.0,1020.0,1020.0,1020.0,1018.0,1024.0,1019.0,1029.0,1021.0,1021.0,1006.0,1020.0,1020.0,1020.0,1018.0,1025.0,1019.0,1030.0,1021.0,1022.0,1007.0,1020.0,1021.0,1021.0,1020.0,1025.0,1019.0,1030.0,1021.0,1022.0,1006.0,1019.0,1020.0,1020.0,1019.0,1026.0,1019.0,1030.0,1021.0,1022.0,1007.0,1019.0,1020.0,1020.0,1019.0,1027.0,1019.0,1031.0,1021.0,1023.0,1007.0,1020.0,1021.0,1021.0,1021.0,1026.0,1020.0,1031.0,1022.0,1022.0,1007.0,1020.0,1021.0,1021.0,1020.0,1028.0,1020.0,1032.0,1022.0,1024.0,1008.0,1021.0,1023.0,1022.0,1028.0,1020.0,1032.0,1022.0,1024.0,1008.0,1020.0,1022.0,1027.0,1020.0,1031.0,1022.0,1023.0,1008.0,1020.0,1027.0,1021.0,1031.0,1022.0,1024.0,1009.0,1020.0,1026.0,1020.0,1030.0,1022.0,1022.0,1008.0,1019.0,1025.0,1020.0,1030.0,1022.0,1022.0,1008.0,1025.0,1020.0,1030.0,1021.0,1020.0,1007.0,1026.0,1020.0,1030.0,1022.0,1023.0,1009.0,1027.0,1021.0,1031.0,1023.0,1023.0,1010.0,1025.0,1020.0,1030.0,1022.0,1021.0,1009.0,1027.0,1021.0,1031.0,1023.0,1023.0,1011.0,1027.0,1021.0,1032.0,1023.0,1023.0,1011.0,1029.0,1022.0,1032.0,1023.0,1023.0,1013.0,1029.0,1022.0,1033.0,1023.0,1024.0,1014.0,1032.0,1023.0,1035.0,1024.0,1024.0,1017.0,1036.0,1026.0,1038.0,1025.0,1025.0,1022.0,1038.0,1028.0,1040.0,1026.0,1025.0,1024.0,1052.0,1041.0,1058.0,1033.0,1031.0,1111.0,1049.0,1039.0,1056.0,1032.0,1030.0,2263,2227,1902,	00:32:23.793,-0.0078125,0.04736328125,1.0205078125,0.06103515625,0.48828125,0.18310546875,2.6422119140625,0.3955078125,-39.3804931640625,41.0,-473.0,-4138.0,-0.94122314453125,-0.02288818359375,0.0045166015625,0.336944580078125,2.6436743928930606,0.3981874606508062,-43.856602028284094,-0.9273695134230673,-0.022696601064845032,0.0053921587214979605,0.37341876559419057,1,	00:32:23.794,0.02587890625,0.072265625,1.01904296875,-0.18310546875,0.3662109375,0.42724609375,4.02099609375,-1.47216796875,129.04541015625,-74.0,694.0,-1791.0,0.429443359375,0.02667236328125,0.026153564453125,0.902313232421875,4.021856096711026,-1.472522238476796,121.92625156205547,0.4846392133910004,0.02825814649582433,0.02444390369025444,0.8739157886048028,1
1782117452.930387,0.472,1022.0,1028.0,1020.0,1024.0,1019.0,1029.0,1021.0,1021.0,1006.0,1024.0,1019.0,1029.0,1021.0,1021.0,1006.0,1019.0,1024.0,1019.0,1029.0,1021.0,1021.0,1006.0,1020.0,1020.0,1024.0,1019.0,1029.0,1021.0,1021.0,1006.0,1019.0,1020.0,1020.0,1025.0,1019.0,1030.0,1021.0,1022.0,1006.0,1020.0,1020.0,1021.0,1025.0,1019.0,1029.0,1021.0,1021.0,1006.0,1020.0,1021.0,1020.0,1019.0,1025.0,1019.0,1029.0,1021.0,1020.0,1006.0,1019.0,1020.0,1020.0,1018.0,1025.0,1020.0,1030.0,1022.0,1022.0,1006.0,1020.0,1021.0,1021.0,1020.0,1025.0,1020.0,1030.0,1021.0,1022.0,1007.0,1020.0,1021.0,1020.0,1019.0,1025.0,1019.0,1030.0,1021.0,1022.0,1006.0,1019.0,1021.0,1020.0,1020.0,1027.0,1020.0,1032.0,1022.0,1023.0,1007.0,1020.0,1021.0,1021.0,1020.0,1027.0,1020.0,1031.0,1021.0,1023.0,1007.0,1020.0,1021.0,1021.0,1020.0,1028.0,1021.0,1032.0,1022.0,1024.0,1008.0,1021.0,1022.0,1022.0,1027.0,1020.0,1032.0,1022.0,1024.0,1008.0,1020.0,1022.0,1026.0,1021.0,1031.0,1022.0,1023.0,1008.0,1020.0,1027.0,1020.0,1032.0,1022.0,1024.0,1009.0,1019.0,1027.0,1020.0,1031.0,1022.0,1022.0,1009.0,1019.0,1026.0,1020.0,1030.0,1022.0,1022.0,1008.0,1026.0,1019.0,1030.0,1021.0,1021.0,1008.0,1027.0,1021.0,1031.0,1022.0,1023.0,1008.0,1027.0,1021.0,1031.0,1022.0,1023.0,1010.0,1026.0,1020.0,1030.0,1022.0,1022.0,1009.0,1027.0,1021.0,1032.0,1022.0,1023.0,1011.0,1027.0,1021.0,1032.0,1022.0,1023.0,1011.0,1028.0,1022.0,1033.0,1023.0,1024.0,1013.0,1029.0,1023.0,1033.0,1023.0,1023.0,1013.0,1032.0,1024.0,1034.0,1024.0,1024.0,1016.0,1036.0,1026.0,1038.0,1025.0,1025.0,1022.0,1038.0,1028.0,1040.0,1025.0,1025.0,1024.0,1052.0,1042.0,1059.0,1032.0,1031.0,1110.0,1049.0,1040.0,1057.0,1031.0,1032.0,2263,2227,1902,	00:32:23.803,-0.00830078125,0.04736328125,1.02099609375,0.06103515625,0.42724609375,0.1220703125,2.65869140625,0.494384765625,-39.3804931640625,40.0,-469.0,-4142.0,-0.94122314453125,-0.0233154296875,0.0037841796875,0.336944580078125,2.6608591525835,0.4925515398667084,-43.85505627382118,-0.9273610282145349,-0.023143109160520176,0.004684125725353651,0.3734219849091025,1,	00:32:23.805,0.025390625,0.0712890625,1.01953125,-0.244140625,0.18310546875,0.42724609375,3.9825439453125,-1.3897705078125,129.0509033203125,-74.0,694.0,-1788.0,0.429443359375,0.02587890625,0.026153564453125,0.90234375,3.981973697537565,-1.387391988804095,121.93157317829623,0.48463549475343365,0.027439407896100543,0.024501638994609286,0.873942324072924,1
1782117452.941051,0.483,1023.0,1028.0,1020.0,1024.0,1019.0,1029.0,1021.0,1021.0,1006.0,1024.0,1019.0,1029.0,1021.0,1021.0,1006.0,1020.0,1025.0,1019.0,1029.0,1021.0,1022.0,1006.0,1019.0,1020.0,1025.0,1019.0,1029.0,1021.0,1021.0,1006.0,1020.0,1021.0,1020.0,1025.0,1019.0,1029.0,1021.0,1022.0,1006.0,1020.0,1020.0,1020.0,1025.0,1019.0,1030.0,1021.0,1022.0,1006.0,1019.0,1020.0,1020.0,1019.0,1025.0,1019.0,1029.0,1021.0,1021.0,1006.0,1020.0,1020.0,1020.0,1018.0,1026.0,1019.0,1030.0,1021.0,1022.0,1007.0,1020.0,1021.0,1021.0,1020.0,1025.0,1019.0,1030.0,1021.0,1022.0,1006.0,1020.0,1020.0,1021.0,1019.0,1026.0,1019.0,1030.0,1021.0,1022.0,1007.0,1020.0,1021.0,1020.0,1020.0,1027.0,1020.0,1030.0,1022.0,1022.0,1006.0,1020.0,1021.0,1021.0,1020.0,1026.0,1020.0,1031.0,1021.0,1023.0,1007.0,1020.0,1021.0,1021.0,1020.0,1028.0,1020.0,1032.0,1022.0,1024.0,1008.0,1020.0,1022.0,1022.0,1027.0,1021.0,1032.0,1022.0,1024.0,1008.0,1020.0,1022.0,1027.0,1020.0,1031.0,1022.0,1023.0,1007.0,1019.0,1027.0,1021.0,1032.0,1022.0,1024.0,1008.0,1020.0,1026.0,1020.0,1031.0,1022.0,1022.0,1009.0,1019.0,1026.0,1020.0,1031.0,1021.0,1022.0,1008.0,1026.0,1020.0,1030.0,1021.0,1021.0,1007.0,1027.0,1020.0,1031.0,1022.0,1022.0,1009.0,1027.0,1021.0,1031.0,1022.0,1024.0,1010.0,1026.0,1020.0,1031.0,1021.0,1022.0,1009.0,1027.0,1022.0,1032.0,1022.0,1023.0,1011.0,1027.0,1021.0,1032.0,1023.0,1023.0,1011.0,1028.0,1022.0,1032.0,1023.0,1024.0,1013.0,1029.0,1022.0,1033.0,1023.0,1024.0,1013.0,1033.0,1023.0,1035.0,1023.0,1024.0,1016.0,1036.0,1027.0,1038.0,1025.0,1026.0,1022.0,1037.0,1028.0,1040.0,1025.0,1025.0,1024.0,1052.0,1042.0,1058.0,1032.0,1031.0,1110.0,1048.0,1040.0,1056.0,1031.0,1031.0,2264,2227,1902,	00:32:23.814,-0.0087890625,0.04833984375,1.02099609375,0.0,0.42724609375,0.1220703125,2.7520751953125,0.494384765625,-39.3804931640625,41.0,-472.0,-4142.0,-0.94122314453125,-0.024078369140625,0.003997802734375,0.3369140625,2.7524457627530934,0.49695396853141643,-43.85284780021063,-0.9273489332059311,-0.023898723481090196,0.004946488864901565,0.3734010435787578,1,	00:32:23.815,0.0263671875,0.072265625,1.01953125,-0.30517578125,0.18310546875,0.48828125,4.0374755859375,-1.4556884765625,129.056396484375,-73.0,694.0,-1789.0,0.42938232421875,0.026611328125,0.026336669921875,0.90234375,4.036032393306419,-1.4572996159408953,121.93515390794398,0.48457273352709496,0.028200154650293227,0.02461869291976981,0.8739496193481067,1
1782117452.952041,0.494,1023.0,1029.0,1021.0,1024.0,1018.0,1029.0,1021.0,1021.0,1006.0,1024.0,1019.0,1029.0,1021.0,1021.0,1007.0,1019.0,1024.0,1019.0,1029.0,1021.0,1022.0,1006.0,1019.0,1020.0,1025.0,1019.0,1029.0,1021.0,1021.0,1006.0,1019.0,1020.0,1020.0,1025.0,1019.0,1030.0,1021.0,1021.0,1006.0,1019.0,1021.0,1020.0,1025.0,1019.0,1030.0,1021.0,1022.0,1005.0,1020.0,1020.0,1020.0,1019.0,1025.0,1018.0,1029.0,1021.0,1021.0,1006.0,1020.0,1019.0,1020.0,1018.0,1026.0,1019.0,1030.0,1022.0,1022.0,1006.0,1019.0,1021.0,1020.0,1020.0,1025.0,1020.0,1030.0,1021.0,1022.0,1006.0,1019.0,1021.0,1021.0,1019.0,1025.0,1020.0,1031.0,1021.0,1022.0,1007.0,1020.0,1021.0,1021.0,1019.0,1027.0,1020.0,1032.0,1021.0,1023.0,1007.0,1020.0,1021.0,1021.0,1021.0,1026.0,1019.0,1031.0,1022.0,1022.0,1007.0,1020.0,1021.0,1021.0,1020.0,1028.0,1021.0,1033.0,1022.0,1024.0,1008.0,1020.0,1023.0,1023.0,1028.0,1020.0,1032.0,1022.0,1024.0,1008.0,1020.0,1022.0,1026.0,1020.0,1031.0,1021.0,1023.0,1008.0,1019.0,1026.0,1021.0,1032.0,1022.0,1024.0,1008.0,1020.0,1027.0,1020.0,1031.0,1021.0,1023.0,1009.0,1020.0,1026.0,1020.0,1031.0,1021.0,1023.0,1008.0,1025.0,1019.0,1030.0,1021.0,1022.0,1008.0,1026.0,1020.0,1031.0,1021.0,1023.0,1009.0,1027.0,1021.0,1031.0,1022.0,1024.0,1010.0,1026.0,1020.0,1031.0,1021.0,1022.0,1009.0,1028.0,1021.0,1032.0,1022.0,1023.0,1011.0,1027.0,1021.0,1032.0,1022.0,1023.0,1012.0,1028.0,1022.0,1033.0,1023.0,1024.0,1013.0,1028.0,1022.0,1033.0,1023.0,1023.0,1014.0,1032.0,1024.0,1035.0,1023.0,1024.0,1017.0,1036.0,1027.0,1039.0,1025.0,1025.0,1022.0,1038.0,1028.0,1040.0,1025.0,1024.0,1024.0,1053.0,1042.0,1059.0,1033.0,1031.0,1110.0,1049.0,1040.0,1057.0,1032.0,1029.0,2264,2226,1902,	00:32:23.824,-0.00830078125,0.0478515625,1.021484375,0.06103515625,0.42724609375,0.1220703125,2.669677734375,0.46142578125,-39.3804931640625,40.0,-472.0,-4145.0,-0.941253662109375,-0.023284912109375,0.0040283203125,0.3369140625,2.669649274791306,0.46337997894092015,-43.85212249979743,-0.927372009378149,-0.023119356699156157,0.004948274999441289,0.37339277730331294,1,	00:32:23.825,0.02783203125,0.0712890625,1.0205078125,-0.42724609375,0.1220703125,0.48828125,3.9990234375,-1.5435791015625,129.0618896484375,-73.0,693.0,-1791.0,0.4293212890625,0.027130126953125,0.02569580078125,0.902374267578125,3.997878873517786,-1.5416624242409183,121.94099867513177,0.4845103956382654,0.02868067776286138,0.02397184185695045,0.873986525090347,1
1782117452.961040,0.503,1023.0,1029.0,1020.0,1024.0,1019.0,1029.0,1020.0,1021.0,1006.0,1025.0,1019.0,1029.0,1021.0,1021.0,1006.0,1020.0,1025.0,1018.0,1029.0,1021.0,1021.0,1007.0,1019.0,1021.0,1025.0,1019.0,1030.0,1021.0,1021.0,1006.0,1020.0,1020.0,1020.0,1025.0,1019.0,1029.0,1021.0,1022.0,1006.0,1020.0,1020.0,1020.0,1025.0,1019.0,1030.0,1021.0,1022.0,1007.0,1020.0,1020.0,1020.0,1019.0,1025.0,1019.0,1030.0,1021.0,1021.0,1006.0,1020.0,1020.0,1020.0,1018.0,1026.0,1019.0,1031.0,1021.0,1022.0,1007.0,1020.0,1021.0,1021.0,1020.0,1026.0,1019.0,1031.0,1021.0,1022.0,1007.0,1019.0,1020.0,1020.0,1019.0,1025.0,1019.0,1031.0,1021.0,1022.0,1007.0,1019.0,1020.0,1021.0,1020.0,1026.0,1020.0,1031.0,1021.0,1022.0,1007.0,1020.0,1021.0,1021.0,1020.0,1027.0,1020.0,1031.0,1021.0,1023.0,1008.0,1020.0,1021.0,1021.0,1020.0,1027.0,1021.0,1033.0,1022.0,1024.0,1008.0,1020.0,1022.0,1022.0,1027.0,1021.0,1032.0,1021.0,1024.0,1008.0,1020.0,1022.0,1027.0,1020.0,1031.0,1021.0,1023.0,1008.0,1019.0,1027.0,1021.0,1032.0,1022.0,1024.0,1009.0,1020.0,1027.0,1020.0,1031.0,1021.0,1022.0,1008.0,1019.0,1026.0,1020.0,1031.0,1022.0,1022.0,1008.0,1026.0,1019.0,1030.0,1021.0,1021.0,1008.0,1026.0,1020.0,1031.0,1021.0,1023.0,1009.0,1027.0,1021.0,1032.0,1022.0,1024.0,1010.0,1026.0,1020.0,1031.0,1021.0,1022.0,1009.0,1027.0,1021.0,1032.0,1022.0,1023.0,1010.0,1028.0,1021.0,1032.0,1023.0,1023.0,1011.0,1029.0,1022.0,1033.0,1023.0,1024.0,1013.0,1028.0,1022.0,1033.0,1023.0,1024.0,1014.0,1032.0,1023.0,1035.0,1023.0,1024.0,1017.0,1036.0,1026.0,1038.0,1025.0,1025.0,1021.0,1038.0,1028.0,1040.0,1026.0,1025.0,1024.0,1053.0,1042.0,1058.0,1033.0,1030.0,1110.0,1050.0,1040.0,1057.0,1032.0,1030.0,2264,2226,1902,	00:32:23.834,-0.0078125,0.0478515625,1.02099609375,0.06103515625,0.42724609375,0.1220703125,2.713623046875,0.384521484375,-39.375,41.0,-473.0,-4142.0,-0.941253662109375,-0.0234375,0.004791259765625,0.336883544921875,2.713712986735303,0.38687650985405636,-43.85038217635918,-0.9273769213522207,-0.02322687328860017,0.005710673504044124,0.3733630221495463,1,	00:32:23.836,0.0263671875,0.072265625,1.0185546875,-0.48828125,0.1220703125,0.48828125,4.053955078125,-1.47216796875,129.0618896484375,-74.0,694.0,-1790.0,0.429290771484375,0.026824951171875,0.02642822265625,0.902374267578125,4.056557777041978,-1.4748893824987068,121.94427693228526,0.48449239304907293,0.028419066090085016,0.024702992957383995,0.8739846908837119,1
