Unix_Time_s,IMU1_RefTime,ax_g,ay_g,az_g,gx_dps,gy_dps,gz_dps,mx_uT,my_uT,mz_uT,temp_C,qw,qx,qy,qz
1782117313.129327,1812549,0.917480,-0.024902,-0.395996,-0.060976,-0.365854,-0.304878,16.462500,-37.181252,3.262500,0.0,1.000000,0.000000,0.000000,0.000000
1782117313.139327,1812559,0.916504,-0.023438,-0.395020,-0.060976,-0.365854,-0.304878,16.468750,-37.100002,3.268750,0.0,1.000000,0.000000,0.000000,0.000000
1782117313.149327,1812569,0.916504,-0.023438,-0.395020,-0.182927,-0.426829,-0.304878,16.468750,-37.100002,3.268750,0.0,1.000000,0.000000,0.000000,0.000000
1782117313.159327,1812579,0.916016,-0.023438,-0.397949,-0.548781,-0.426829,-0.243902,16.475000,-37.143749,3.243750,0.0,1.000000,0.000000,0.000000,0.000000
1782117313.170327,1812590,0.916504,-0.023926,-0.397461,-0.853659,-0.487805,-0.182927,16.475000,-37.143749,3.243750,0.0,1.000000,0.000000,0.000000,0.000000
1782117313.180327,1812600,0.916504,-0.023926,-0.398438,-0.914634,-0.426829,-0.243902,16.468750,-37.112499,3.281250,0.0,1.000000,0.000000,0.000000,0.000000
1782117313.190327,1812610,0.915527,-0.026367,-0.398926,-0.914634,-0.487805,-0.243902,16.468750,-37.112499,3.281250,0.0,1.000000,0.000000,0.000000,0.000000
1782117313.199327,1812619,0.917480,-0.025879,-0.397461,-1.036585,-0.487805,-0.243902,16.443750,-37.087502,3.300000,0.0,1.000000,0.000000,0.000000,0.000000
1782117313.210327,1812630,0.917480,-0.026367,-0.399414,-1.036585,-0.426829,-0.304878,16.443750,-37.087502,3.300000,0.0,1.000000,0.000000,0.000000,0.000000
1782117313.219327,1812639,0.919434,-0.025879,-0.398926,-1.036585,-0.426829,-0.243902,16.437500,-37.112499,3.312500,0.0,1.000000,0.000000,0.000000,0.000000
1782117313.229327,1812649,0.919922,-0.024414,-0.398438,-1.036585,-0.304878,-0.121951,16.437500,-37.112499,3.312500,0.0,1.000000,0.000000,0.000000,0.000000
1782117313.239327,1812659,0.919434,-0.021973,-0.396973,-1.158537,-0.182927,0.000000,16.525000,-36.924999,3.206250,0.0,1.000000,0.000000,0.000000,0.000000
1782117313.249327,1812669,0.920898,-0.021973,-0.395508,-1.280488,-0.121951,0.000000,16.525000,-36.924999,3.206250,0.0,1.000000,0.000000,0.000000,0.000000
1782117313.260327,1812680,0.917969,-0.020508,-0.395508,-1.341463,-0.121951,0.060976,16.481251,-37.143749,3.306250,0.0,1.000000,0.000000,0.000000,0.000000
1782117313.269327,1812689,0.916992,-0.021484,-0.395996,-1.524390,-0.121951,0.060976,16.481251,-37.143749,3.306250,0.0,1.000000,0.000000,0.000000,0.000000
1782117313.279327,1812699,0.916016,-0.022461,-0.396484,-1.768293,-0.182927,0.182927,16.462500,-37.100002,3.343750,0.0,1.000000,0.000000,0.000000,0.000000
1782117313.289327,1812709,0.914551,-0.022949,-0.396973,-1.890244,-0.365854,0.182927,16.462500,-37.100002,3.343750,0.0,1.000000,0.000000,0.000000,0.000000
1782117313.300327,1812720,0.915039,-0.023926,-0.398926,-1.890244,-0.426829,0.243902,16.456251,-37.137501,3.256250,0.0,1.000000,0.000000,0.000000,0.000000
1782117313.309327,1812729,0.915527,-0.024902,-0.399414,-1.890244,-0.426829,0.182927,16.456251,-37.137501,3.256250,0.0,1.000000,0.000000,0.000000,0.000000
1782117313.319327,1812739,0.915527,-0.025391,-0.401367,-2.012195,-0.487805,0.243902,16.418751,-37.131252,3.293750,0.0,1.000000,0.000000,0.000000,0.000000
1782117313.330327,1812750,0.916992,-0.026367,-0.401855,-1.951220,-0.365854,0.121951,16.418751,-37.131252,3.293750,0.0,1.000000,0.000000,0.000000,0.000000
1782117313.340327,1812760,0.916992,-0.028809,-0.401367,-1.646341,-0.243902,0.060976,16.406250,-37.168751,3.350000,0.0,1.000000,0.000000,0.000000,0.000000
1782117313.349327,1812769,0.916992,-0.029785,-0.402832,-1.402439,-0.243902,0.121951,16.406250,-37.168751,3.350000,0.0,1.000000,0.000000,0.000000,0.000000
1782117313.359327,1812779,0.916504,-0.027832,-0.402344,-1.097561,-0.243902,0.060976,16.468750,-37.143749,3.393750,0.0,1.000000,0.000000,0.000000,0.000000
1782117313.369327,1812789,0.916016,-0.028809,-0.399902,-0.975610,-0.304878,0.182927,16.468750,-37.143749,3.393750,0.0,1.000000,0.000000,0.000000,0.000000
1782117313.379327,1812799,0.916016,-0.027344,-0.397949,-0.853659,-0.304878,0.121951,16.381250,-37.237499,3.343750,0.0,1.000000,0.000000,0.000000,0.000000
1782117313.390327,1812810,0.914062,-0.022949,-0.398438,-0.975610,-0.304878,0.121951,16.381250,-37.237499,3.343750,0.0,1.000000,0.000000,0.000000,0.000000
1782117313.399327,1812819,0.915039,-0.018555,-0.398438,-1.097561,-0.365854,0.121951,16.350000,-37.206249,3.393750,0.0,1.000000,0.000000,0.000000,0.000000
1782117313.409327,1812829,0.914062,-0.019043,-0.397461,-1.280488,-0.426829,0.121951,16.350000,-37.206249,3.393750,0.0,1.000000,0.000000,0.000000,0.000000
1782117313.421327,1812841,0.915527,-0.021973,-0.397461,-1.463415,-0.426829,0.060976,16.481251,-37.031250,3.262500,0.0,1.000000,0.000000,0.000000,0.000000
1782117313.429327,1812849,0.915527,-0.025391,-0.398438,-1.524390,-0.487805,0.060976,16.481251,-37.031250,3.262500,0.0,1.000000,0.000000,0.000000,0.000000
1782117313.439327,1812859,0.916504,-0.027832,-0.399414,-1.463415,-0.548781,0.060976,16.356251,-37.206249,3.393750,0.0,1.000000,0.000000,0.000000,0.000000
1782117313.449327,1812869,0.918457,-0.029297,-0.400391,-1.280488,-0.609756,0.000000,16.356251,-37.206249,3.393750,0.0,1.000000,0.000000,0.000000,0.000000
1782117313.460327,1812880,0.917969,-0.031738,-0.399414,-1.097561,-0.487805,0.000000,16.400000,-37.200001,3.387500,0.0,1.000000,0.000000,0.000000,0.000000
1782117313.469327,1812889,0.919434,-0.029785,-0.399414,-0.853659,-0.365854,0.000000,16.400000,-37.200001,3.387500,0.0,1.000000,0.000000,0.000000,0.000000
1782117313.479327,1812899,0.918457,-0.028809,-0.397949,-0.792683,-0.426829,0.000000,16.418751,-37.200001,3.375000,0.0,1.000000,0.000000,0.000000,0.000000
1782117313.489327,1812909,0.919434,-0.027832,-0.396484,-0.731707,-0.243902,-0.182927,16.418751,-37.200001,3.375000,0.0,1.000000,0.000000,0.000000,0.000000
1782117313.500327,1812920,0.918945,-0.027832,-0.395996,-0.731707,-0.182927,-0.182927,16.412500,-37.187500,3.375000,0.0,1.000000,0.000000,0.000000,0.000000
1782117313.509327,1812929,0.916992,-0.026855,-0.397461,-0.731707,-0.121951,-0.182927,16.412500,-37.187500,3.375000,0.0,1.000000,0.000000,0.000000,0.000000
1782117313.519327,1812939,0.917480,-0.025879,-0.396973,-0.792683,-0.182927,-0.182927,16.393751,-37.156250,3.412500,0.0,1.000000,0.000000,0.000000,0.000000
1782117313.529327,1812949,0.916504,-0.024414,-0.398926,-0.853659,-0.182927,-0.121951,16.393751,-37.156250,3.412500,0.0,1.000000,0.000000,0.000000,0.000000
1782117313.541327,1812961,0.915527,-0.024414,-0.398926,-0.975610,-0.243902,-0.182927,16.356251,-37.250000,3.462500,0.0,1.000000,0.000000,0.000000,0.000000
1782117313.549327,1812969,0.915527,-0.023926,-0.399414,-1.036585,-0.426829,-0.121951,16.356251,-37.250000,3.462500,0.0,1.000000,0.000000,0.000000,0.000000
1782117313.559327,1812979,0.916016,-0.024902,-0.398438,-1.158537,-0.426829,-0.060976,16.406250,-37.156250,3.381250,0.0,1.000000,0.000000,0.000000,0.000000
1782117313.570327,1812990,0.916504,-0.023438,-0.398438,-1.219512,-0.487805,-0.121951,16.406250,-37.156250,3.381250,0.0,1.000000,0.000000,0.000000,0.000000
1782117313.581327,1813001,0.916992,-0.024414,-0.398926,-1.280488,-0.548781,-0.060976,16.362501,-37.231251,3.443750,0.0,1.000000,0.000000,0.000000,0.000000
1782117313.589327,1813009,0.916992,-0.023926,-0.397461,-1.402439,-0.487805,-0.060976,16.362501,-37.231251,3.443750,0.0,1.000000,0.000000,0.000000,0.000000
1782117313.601327,1813021,0.916504,-0.025391,-0.396484,-1.646341,-0.426829,-0.121951,16.412500,-37.156250,3.393750,0.0,1.000000,0.000000,0.000000,0.000000
1782117313.609327,1813029,0.915527,-0.027832,-0.395508,-1.646341,-0.365854,-0.060976,16.412500,-37.156250,3.393750,0.0,1.000000,0.000000,0.000000,0.000000
1782117313.622327,1813042,0.915527,-0.029297,-0.395508,-1.585366,-0.487805,-0.182927,16.343750,-37.200001,3.418750,0.0,1.000000,0.000000,0.000000,0.000000
1782117313.629327,1813049,0.918457,-0.030273,-0.396484,-1.158537,-0.548781,-0.182927,16.343750,-37.200001,3.418750,0.0,1.000000,0.000000,0.000000,0.000000
1782117313.639327,1813059,0.918945,-0.031738,-0.397461,-0.792683,-0.548781,-0.304878,16.406250,-37.181252,3.412500,0.0,1.000000,0.000000,0.000000,0.000000
1782117313.649327,1813069,0.918945,-0.031250,-0.396484,-0.426829,-0.548781,-0.304878,16.406250,-37.181252,3.412500,0.0,1.000000,0.000000,0.000000,0.000000
1782117313.662327,1813082,0.918945,-0.031250,-0.395508,-0.121951,-0.548781,-0.304878,16.381250,-37.162502,3.406250,0.0,1.000000,0.000000,0.000000,0.000000
1782117313.670327,1813090,0.917480,-0.028320,-0.397461,-0.121951,-0.487805,-0.365854,16.381250,-37.162502,3.406250,0.0,1.000000,0.000000,0.000000,0.000000
1782117313.679327,1813099,0.916016,-0.026855,-0.396973,-0.182927,-0.426829,-0.487805,16.418751,-37.137501,3.431250,0.0,1.000000,0.000000,0.000000,0.000000
1782117313.689327,1813109,0.915039,-0.026367,-0.396484,-0.182927,-0.487805,-0.548781,16.418751,-37.137501,3.431250,0.0,1.000000,0.000000,0.000000,0.000000
1782117313.699327,1813119,0.916504,-0.025879,-0.395996,-0.304878,-0.609756,-0.609756,16.362501,-37.256252,3.468750,0.0,1.000000,0.000000,0.000000,0.000000
1782117313.709327,1813129,0.917480,-0.023926,-0.395020,-0.426829,-0.609756,-0.548781,16.362501,-37.256252,3.468750,0.0,1.000000,0.000000,0.000000,0.000000
1782117313.719327,1813139,0.917480,-0.023438,-0.397949,-0.487805,-0.609756,-0.548781,16.425001,-37.100002,3.375000,0.0,1.000000,0.000000,0.000000,0.000000
1782117313.729327,1813149,0.918945,-0.024414,-0.398926,-0.426829,-0.609756,-0.548781,16.425001,-37.100002,3.375000,0.0,1.000000,0.000000,0.000000,0.000000
1782117313.743327,1813163,0.918945,-0.023438,-0.398438,-0.121951,-0.670732,-0.670732,16.350000,-37.287502,3.431250,0.0,1.000000,0.000000,0.000000,0.000000
1782117313.749327,1813169,0.919434,-0.023926,-0.398438,0.121951,-0.609756,-0.670732,16.350000,-37.287502,3.431250,0.0,1.000000,0.000000,0.000000,0.000000
1782117313.760327,1813180,0.918945,-0.024414,-0.398438,0.182927,-0.548781,-0.609756,16.387501,-37.162502,3.375000,0.0,1.000000,0.000000,0.000000,0.000000
1782117313.769327,1813189,0.916992,-0.026855,-0.397949,0.365854,-0.365854,-0.548781,16.387501,-37.162502,3.375000,0.0,1.000000,0.000000,0.000000,0.000000
1782117313.780327,1813200,0.916504,-0.025391,-0.399902,0.304878,-0.365854,-0.609756,16.368750,-37.218750,3.393750,0.0,1.000000,0.000000,0.000000,0.000000
1782117313.789327,1813209,0.914062,-0.025391,-0.400879,0.304878,-0.365854,-0.609756,16.368750,-37.218750,3.393750,0.0,1.000000,0.000000,0.000000,0.000000
1782117313.800327,1813220,0.914551,-0.025879,-0.399902,0.243902,-0.365854,-0.670732,16.450001,-37.081249,3.337500,0.0,1.000000,0.000000,0.000000,0.000000
1782117313.809327,1813229,0.913086,-0.024414,-0.402344,0.304878,-0.426829,-0.670732,16.450001,-37.081249,3.337500,0.0,1.000000,0.000000,0.000000,0.000000
1782117313.819327,1813239,0.913086,-0.023438,-0.402344,0.304878,-0.548781,-0.670732,16.356251,-37.250000,3.431250,0.0,1.000000,0.000000,0.000000,0.000000
1782117313.829327,1813249,0.914062,-0.020996,-0.403320,0.304878,-0.609756,-0.731707,16.356251,-37.250000,3.431250,0.0,1.000000,0.000000,0.000000,0.000000
1782117313.839327,1813259,0.914551,-0.021484,-0.403809,0.304878,-0.670732,-0.609756,16.425001,-37.168751,3.368750,0.0,1.000000,0.000000,0.000000,0.000000
1782117313.849327,1813269,0.915527,-0.020508,-0.403320,0.182927,-0.670732,-0.609756,16.425001,-37.168751,3.368750,0.0,1.000000,0.000000,0.000000,0.000000
1782117313.859327,1813279,0.916016,-0.022461,-0.402344,0.121951,-0.548781,-0.609756,16.362501,-37.268749,3.393750,0.0,1.000000,0.000000,0.000000,0.000000
1782117313.869327,1813289,0.914062,-0.023438,-0.400879,0.000000,-0.487805,-0.548781,16.362501,-37.268749,3.393750,0.0,1.000000,0.000000,0.000000,0.000000
1782117313.879327,1813299,0.916016,-0.024414,-0.399414,-0.060976,-0.609756,-0.487805,16.368750,-37.174999,3.281250,0.0,1.000000,0.000000,0.000000,0.000000
1782117313.889327,1813309,0.918457,-0.024902,-0.399414,0.000000,-0.548781,-0.548781,16.368750,-37.174999,3.281250,0.0,1.000000,0.000000,0.000000,0.000000
1782117313.899327,1813319,0.918945,-0.025879,-0.398438,0.060976,-0.426829,-0.548781,16.356251,-37.243752,3.350000,0.0,1.000000,0.000000,0.000000,0.000000
1782117313.909327,1813329,0.917969,-0.025391,-0.399902,0.182927,-0.304878,-0.487805,16.356251,-37.243752,3.350000,0.0,1.000000,0.000000,0.000000,0.000000
1782117313.920327,1813340,0.918457,-0.024902,-0.398926,0.243902,-0.243902,-0.487805,16.425001,-37.143749,3.318750,0.0,1.000000,0.000000,0.000000,0.000000
1782117313.929327,1813349,0.919434,-0.025391,-0.398926,0.243902,-0.243902,-0.487805,16.425001,-37.143749,3.318750,0.0,1.000000,0.000000,0.000000,0.000000
1782117313.939327,1813359,0.919922,-0.025391,-0.399414,0.304878,-0.182927,-0.548781,16.306250,-37.262501,3.375000,0.0,1.000000,0.000000,0.000000,0.000000
1782117313.949327,1813369,0.916504,-0.024414,-0.399902,0.243902,-0.121951,-0.426829,16.306250,-37.262501,3.375000,0.0,1.000000,0.000000,0.000000,0.000000
1782117313.959327,1813379,0.915039,-0.024414,-0.401855,0.243902,-0.243902,-0.426829,16.418751,-37.181252,3.262500,0.0,1.000000,0.000000,0.000000,0.000000
1782117313.969327,1813389,0.913086,-0.022949,-0.400879,0.121951,-0.365854,-0.487805,16.418751,-37.181252,3.262500,0.0,1.000000,0.000000,0.000000,0.000000
1782117313.979327,1813399,0.914062,-0.022949,-0.401855,0.000000,-0.426829,-0.487805,16.375000,-37.231251,3.318750,0.0,1.000000,0.000000,0.000000,0.000000
1782117313.990327,1813410,0.916504,-0.022461,-0.400391,-0.365854,-0.548781,-0.609756,16.375000,-37.231251,3.318750,0.0,1.000000,0.000000,0.000000,0.000000
1782117313.999327,1813419,0.916504,-0.022461,-0.400391,-0.365854,-0.548781,-0.609756,16.593750,-36.868752,3.143750,0.0,1.000000,0.000000,0.000000,0.000000
1782117314.009327,1813429,0.917480,-0.020996,-0.400879,-0.487805,-0.548781,-0.548781,16.593750,-36.868752,3.143750,0.0,1.000000,0.000000,0.000000,0.000000
1782117314.019327,1813439,0.916992,-0.022949,-0.401855,-0.426829,-0.487805,-0.426829,16.375000,-37.231251,3.337500,0.0,1.000000,0.000000,0.000000,0.000000
1782117314.029327,1813449,0.916016,-0.022949,-0.400879,-0.304878,-0.426829,-0.426829,16.375000,-37.231251,3.337500,0.0,1.000000,0.000000,0.000000,0.000000
1782117314.039327,1813459,0.916016,-0.024414,-0.398926,-0.182927,-0.365854,-0.487805,16.400000,-37.168751,3.306250,0.0,1.000000,0.000000,0.000000,0.000000
1782117314.049327,1813469,0.916016,-0.024902,-0.400391,-0.243902,-0.365854,-0.487805,16.400000,-37.168751,3.306250,0.0,1.000000,0.000000,0.000000,0.000000
1782117314.059327,1813479,0.917480,-0.023438,-0.398926,-0.182927,-0.426829,-0.487805,16.337500,-37.243752,3.318750,0.0,1.000000,0.000000,0.000000,0.000000
1782117314.069327,1813489,0.916504,-0.022461,-0.401367,-0.243902,-0.365854,-0.487805,16.337500,-37.243752,3.318750,0.0,1.000000,0.000000,0.000000,0.000000
1782117314.080327,1813500,0.915527,-0.022461,-0.399902,-0.243902,-0.365854,-0.426829,16.418751,-37.174999,3.281250,0.0,1.000000,0.000000,0.000000,0.000000
1782117314.089327,1813509,0.914062,-0.023438,-0.399902,-0.365854,-0.365854,-0.426829,16.418751,-37.174999,3.281250,0.0,1.000000,0.000000,0.000000,0.000000
1782117314.099327,1813519,0.914062,-0.022949,-0.398926,-0.426829,-0.487805,-0.426829,16.381250,-37.275002,3.343750,0.0,1.000000,0.000000,0.000000,0.000000
1782117314.109327,1813529,0.916016,-0.022461,-0.398438,-0.670732,-0.548781,-0.426829,16.381250,-37.275002,3.343750,0.0,1.000000,0.000000,0.000000,0.000000
1782117314.119327,1813539,0.917480,-0.022949,-0.398926,-0.731707,-0.487805,-0.365854,16.475000,-37.081249,3.218750,0.0,1.000000,0.000000,0.000000,0.000000
1782117314.129327,1813549,0.916992,-0.022949,-0.398438,-0.731707,-0.426829,-0.304878,16.475000,-37.081249,3.218750,0.0,1.000000,0.000000,0.000000,0.000000
1782117314.140327,1813560,0.916992,-0.022461,-0.399902,-0.853659,-0.426829,-0.243902,16.350000,-37.243752,3.393750,0.0,1.000000,0.000000,0.000000,0.000000
1782117314.149327,1813569,0.917969,-0.022949,-0.400879,-0.792683,-0.365854,-0.304878,16.350000,-37.243752,3.393750,0.0,1.000000,0.000000,0.000000,0.000000
1782117314.161327,1813581,0.915527,-0.022949,-0.399902,-0.731707,-0.426829,-0.243902,16.400000,-37.143749,3.243750,0.0,1.000000,0.000000,0.000000,0.000000
1782117314.170327,1813590,0.915527,-0.022949,-0.399414,-0.731707,-0.487805,-0.243902,16.381250,-37.200001,3.343750,0.0,1.000000,0.000000,0.000000,0.000000
1782117314.179327,1813599,0.917969,-0.023438,-0.398438,-0.792683,-0.487805,-0.243902,16.381250,-37.200001,3.343750,0.0,1.000000,0.000000,0.000000,0.000000
1782117314.189327,1813609,0.915527,-0.022949,-0.402344,-1.036585,-0.487805,-0.182927,16.381250,-37.200001,3.343750,0.0,1.000000,0.000000,0.000000,0.000000
1782117314.199327,1813619,0.913574,-0.020020,-0.405273,-1.219512,-0.731707,-0.182927,16.443750,-37.081249,3.275000,0.0,1.000000,0.000000,0.000000,0.000000
1782117314.210327,1813630,0.911621,-0.019043,-0.406250,-1.158537,-0.792683,-0.304878,16.443750,-37.081249,3.275000,0.0,1.000000,0.000000,0.000000,0.000000
1782117314.219327,1813639,0.912598,-0.021973,-0.403809,-1.036585,-0.914634,-0.426829,16.375000,-37.268749,3.306250,0.0,1.000000,0.000000,0.000000,0.000000
1782117314.229327,1813649,0.916504,-0.025879,-0.399414,-0.792683,-0.792683,-0.365854,16.375000,-37.268749,3.306250,0.0,1.000000,0.000000,0.000000,0.000000
1782117314.239327,1813659,0.915039,-0.027832,-0.398926,-0.731707,-0.670732,-0.304878,16.381250,-37.193752,3.275000,0.0,1.000000,0.000000,0.000000,0.000000
1782117314.249327,1813669,0.915527,-0.025879,-0.402832,-0.792683,-0.792683,-0.304878,16.400000,-37.218750,3.306250,0.0,1.000000,0.000000,0.000000,0.000000
1782117314.259327,1813679,0.916504,-0.021973,-0.403809,-0.792683,-0.853659,-0.426829,16.400000,-37.218750,3.306250,0.0,1.000000,0.000000,0.000000,0.000000
1782117314.269327,1813689,0.916016,-0.021973,-0.404785,-0.853659,-0.914634,-0.365854,16.412500,-37.218750,3.275000,0.0,1.000000,0.000000,0.000000,0.000000
1782117314.279327,1813699,0.917969,-0.020996,-0.399902,-0.792683,-0.792683,-0.365854,16.412500,-37.218750,3.275000,0.0,1.000000,0.000000,0.000000,0.000000
1782117314.289327,1813709,0.916504,-0.021973,-0.397949,-0.853659,-0.609756,-0.304878,16.418751,-37.181252,3.262500,0.0,1.000000,0.000000,0.000000,0.000000
1782117314.299327,1813719,0.914551,-0.024414,-0.398438,-1.036585,-0.548781,-0.121951,16.418751,-37.181252,3.262500,0.0,1.000000,0.000000,0.000000,0.000000
1782117314.310327,1813730,0.914062,-0.018066,-0.401855,-1.341463,-0.731707,-0.060976,16.537500,-36.950001,3.181250,0.0,1.000000,0.000000,0.000000,0.000000
1782117314.319327,1813739,0.915039,-0.017090,-0.403320,-1.463415,-0.731707,-0.182927,16.537500,-36.950001,3.181250,0.0,1.000000,0.000000,0.000000,0.000000
1782117314.330327,1813750,0.914062,-0.020020,-0.403320,-1.402439,-0.914634,-0.304878,16.462500,-37.156250,3.337500,0.0,1.000000,0.000000,0.000000,0.000000
1782117314.339327,1813759,0.913574,-0.022949,-0.402832,-1.341463,-0.853659,-0.182927,16.462500,-37.156250,3.337500,0.0,1.000000,0.000000,0.000000,0.000000
1782117314.349327,1813769,0.914062,-0.021484,-0.403320,-1.402439,-0.975610,-0.243902,16.387501,-37.174999,3.281250,0.0,1.000000,0.000000,0.000000,0.000000
1782117314.360327,1813780,0.914062,-0.022461,-0.406250,-1.280488,-0.914634,-0.487805,16.387501,-37.174999,3.281250,0.0,1.000000,0.000000,0.000000,0.000000
1782117314.369327,1813789,0.912598,-0.025879,-0.406250,-1.158537,-0.853659,-0.487805,16.475000,-36.968750,3.218750,0.0,1.000000,0.000000,0.000000,0.000000
1782117314.379327,1813799,0.910156,-0.024414,-0.409668,-1.219512,-0.975610,-0.365854,16.475000,-36.968750,3.218750,0.0,1.000000,0.000000,0.000000,0.000000
1782117314.390327,1813810,0.912109,-0.018066,-0.414062,-1.341463,-1.341463,-0.365854,16.343750,-37.206249,3.318750,0.0,1.000000,0.000000,0.000000,0.000000
1782117314.399327,1813819,0.910645,-0.014160,-0.418457,-1.707317,-1.402439,-0.487805,16.343750,-37.206249,3.318750,0.0,1.000000,0.000000,0.000000,0.000000
1782117314.409327,1813829,0.905762,-0.014160,-0.421875,-1.951220,-1.768293,-0.548781,16.400000,-37.174999,3.300000,0.0,1.000000,0.000000,0.000000,0.000000
1782117314.419327,1813839,0.902832,-0.015625,-0.423340,-1.890244,-2.195122,-0.487805,16.400000,-37.174999,3.300000,0.0,1.000000,0.000000,0.000000,0.000000
1782117314.430327,1813850,0.901855,-0.015625,-0.426758,-1.768293,-2.500000,-0.426829,16.306250,-37.181252,3.318750,0.0,1.000000,0.000000,0.000000,0.000000
1782117314.439327,1813859,0.901367,-0.016602,-0.427246,-1.585366,-2.682927,-0.426829,16.306250,-37.181252,3.318750,0.0,1.000000,0.000000,0.000000,0.000000
1782117314.449327,1813869,0.907715,-0.017090,-0.430664,-1.219512,-2.682927,-0.731707,16.375000,-37.168751,3.243750,0.0,1.000000,0.000000,0.000000,0.000000
1782117314.461327,1813881,0.914062,-0.019043,-0.432617,-0.792683,-2.256098,-0.914634,16.375000,-37.168751,3.243750,0.0,1.000000,0.000000,0.000000,0.000000
1782117314.471327,1813891,0.911133,-0.019531,-0.431641,-0.365854,-1.646341,-0.914634,16.362501,-37.200001,3.225000,0.0,1.000000,0.000000,0.000000,0.000000
1782117314.479327,1813899,0.913574,-0.021484,-0.430176,0.670732,-0.975610,-1.524390,16.362501,-37.200001,3.225000,0.0,1.000000,0.000000,0.000000,0.000000
1782117314.489327,1813909,0.914551,-0.029785,-0.426758,2.195122,0.000000,-2.073171,16.406250,-37.181252,3.262500,0.0,1.000000,0.000000,0.000000,0.000000
1782117314.499327,1813919,0.908691,-0.035645,-0.429199,3.353659,0.243902,-2.195122,16.406250,-37.181252,3.262500,0.0,1.000000,0.000000,0.000000,0.000000
1782117314.510327,1813930,0.921875,-0.033203,-0.440430,4.451220,-0.182927,-2.500000,16.393751,-37.143749,3.212500,0.0,1.000000,0.000000,0.000000,0.000000
1782117314.522327,1813942,0.935547,-0.020996,-0.444824,5.121951,0.426829,-2.621951,16.393751,-37.143749,3.212500,0.0,1.000000,0.000000,0.000000,0.000000
1782117314.529327,1813949,0.938477,-0.017578,-0.435547,5.609756,1.341463,-2.439024,16.525000,-37.043751,3.156250,0.0,1.000000,0.000000,0.000000,0.000000
1782117314.539327,1813959,0.931152,-0.014160,-0.428711,5.487805,2.560976,-1.829268,16.525000,-37.043751,3.156250,0.0,1.000000,0.000000,0.000000,0.000000
1782117314.551327,1813971,0.921875,-0.000488,-0.426270,4.695122,3.536585,-1.585366,16.450001,-37.118752,3.231250,0.0,1.000000,0.000000,0.000000,0.000000
1782117314.560327,1813980,0.916504,0.008301,-0.425293,4.146341,4.085366,-1.707317,16.450001,-37.118752,3.231250,0.0,1.000000,0.000000,0.000000,0.000000
1782117314.569327,1813989,0.922363,0.000977,-0.428711,3.963415,4.756098,-1.951220,16.662500,-36.718750,3.068750,0.0,1.000000,0.000000,0.000000,0.000000
1782117314.580327,1814000,0.918945,-0.001465,-0.435547,3.719512,5.792683,-1.646341,16.662500,-36.718750,3.068750,0.0,1.000000,0.000000,0.000000,0.000000
1782117314.592327,1814012,0.923828,0.002930,-0.439941,4.207317,6.402439,-1.829268,16.512501,-37.006252,3.306250,0.0,1.000000,0.000000,0.000000,0.000000
1782117314.600327,1814020,0.926758,-0.003418,-0.442383,5.121951,7.743903,-2.195122,16.512501,-37.006252,3.306250,0.0,1.000000,0.000000,0.000000,0.000000
1782117314.610327,1814030,0.914551,-0.015137,-0.439453,6.402439,8.841464,-2.134146,16.568750,-36.893749,3.368750,0.0,1.000000,0.000000,0.000000,0.000000
1782117314.620327,1814040,0.903320,-0.024414,-0.435059,7.804878,9.512196,-2.134146,16.568750,-36.893749,3.368750,0.0,1.000000,0.000000,0.000000,0.000000
1782117314.632327,1814052,0.883301,-0.024902,-0.436035,9.268292,10.304878,-2.256098,16.487501,-36.918751,3.550000,0.0,1.000000,0.000000,0.000000,0.000000
1782117314.639327,1814059,0.883301,-0.024902,-0.436035,9.268292,10.304878,-2.256098,16.487501,-36.918751,3.550000,0.0,1.000000,0.000000,0.000000,0.000000
1782117314.649327,1814069,0.886719,-0.022461,-0.442871,9.329268,10.548780,-2.500000,16.562500,-36.850002,3.675000,0.0,1.000000,0.000000,0.000000,0.000000
1782117314.659327,1814079,0.878906,-0.020020,-0.453613,9.024390,11.036586,-2.500000,16.562500,-36.850002,3.675000,0.0,1.000000,0.000000,0.000000,0.000000
1782117314.671327,1814091,0.874023,-0.012695,-0.459473,9.024390,11.402439,-2.439024,16.537500,-36.856251,3.743750,0.0,1.000000,0.000000,0.000000,0.000000
1782117314.680327,1814100,0.867676,-0.010742,-0.459473,9.268292,11.280488,-2.195122,16.537500,-36.856251,3.743750,0.0,1.000000,0.000000,0.000000,0.000000
1782117314.691327,1814111,0.864258,-0.013672,-0.464355,9.207317,10.182927,-1.829268,16.637501,-36.700001,3.781250,0.0,1.000000,0.000000,0.000000,0.000000
1782117314.699327,1814119,0.869629,-0.007812,-0.463379,9.146341,9.512196,-1.524390,16.637501,-36.700001,3.781250,0.0,1.000000,0.000000,0.000000,0.000000
1782117314.711327,1814131,0.867676,-0.002930,-0.457031,8.780488,9.573171,-1.463415,16.562500,-36.700001,3.918750,0.0,1.000000,0.000000,0.000000,0.000000
1782117314.719327,1814139,0.865234,-0.004883,-0.454102,8.292683,9.024390,-1.585366,16.562500,-36.700001,3.918750,0.0,1.000000,0.000000,0.000000,0.000000
1782117314.729327,1814149,0.865234,-0.009277,-0.450195,7.987805,8.414635,-1.524390,16.550001,-36.687500,4.018750,0.0,1.000000,0.000000,0.000000,0.000000
1782117314.740327,1814160,0.872070,-0.010254,-0.443848,8.109756,7.804878,-1.036585,16.550001,-36.687500,4.018750,0.0,1.000000,0.000000,0.000000,0.000000
1782117314.753327,1814173,0.882324,-0.011719,-0.436035,8.292683,8.109756,-0.731707,16.525000,-36.631252,4.075000,0.0,1.000000,0.000000,0.000000,0.000000
1782117314.759327,1814179,0.904785,-0.020020,-0.411621,8.841464,8.414635,-0.792683,16.525000,-36.631252,4.075000,0.0,1.000000,0.000000,0.000000,0.000000
1782117314.769327,1814189,0.919434,-0.024902,-0.393555,9.329268,9.085366,-0.426829,16.406250,-36.693752,4.162500,0.0,1.000000,0.000000,0.000000,0.000000
1782117314.779327,1814199,0.916504,-0.024902,-0.376465,9.634147,8.658537,0.548781,16.406250,-36.693752,4.162500,0.0,1.000000,0.000000,0.000000,0.000000
1782117314.790327,1814210,0.922852,-0.037598,-0.372070,9.756098,7.926829,1.097561,16.393751,-36.656250,4.225000,0.0,1.000000,0.000000,0.000000,0.000000
1782117314.799327,1814219,0.940430,-0.065430,-0.386719,9.451220,6.280488,2.134146,16.393751,-36.656250,4.225000,0.0,1.000000,0.000000,0.000000,0.000000
1782117314.809327,1814229,0.984863,-0.082520,-0.387207,10.304878,5.243903,3.414634,16.393751,-36.481251,4.131250,0.0,1.000000,0.000000,0.000000,0.000000
1782117314.819327,1814239,1.024902,-0.078613,-0.389648,11.829268,9.268292,4.878049,16.393751,-36.481251,4.131250,0.0,1.000000,0.000000,0.000000,0.000000
1782117314.829327,1814249,1.031738,-0.053711,-0.392090,15.304878,17.012196,6.219512,16.106251,-36.674999,4.393750,0.0,1.000000,0.000000,0.000000,0.000000
1782117314.839327,1814259,1.014160,-0.012207,-0.372070,19.207317,26.036587,5.670732,16.106251,-36.674999,4.393750,0.0,1.000000,0.000000,0.000000,0.000000
1782117314.849327,1814269,0.954590,0.028809,-0.345215,20.426830,35.182926,4.939024,16.025000,-36.575001,4.606250,0.0,1.000000,0.000000,0.000000,0.000000
1782117314.859327,1814279,0.873047,0.048340,-0.319824,18.597561,39.024391,5.731708,16.025000,-36.575001,4.606250,0.0,1.000000,0.000000,0.000000,0.000000
1782117314.869327,1814289,0.842285,0.062012,-0.337891,14.146341,33.353661,7.073171,15.856250,-36.693752,5.062500,0.0,1.000000,0.000000,0.000000,0.000000
1782117314.880327,1814300,0.890625,-0.038086,-0.322266,-0.487805,17.926830,6.707317,15.856250,-36.693752,5.062500,0.0,1.000000,0.000000,0.000000,0.000000
1782117314.890327,1814310,0.890625,-0.038086,-0.322266,-0.487805,17.926830,6.707317,15.700000,-36.637501,5.293750,0.0,1.000000,0.000000,0.000000,0.000000
1782117314.900327,1814320,1.009766,-0.157715,-0.522461,-16.829269,6.585366,5.365854,15.700000,-36.637501,5.293750,0.0,1.000000,0.000000,0.000000,0.000000
1782117314.910327,1814330,1.009766,-0.157715,-0.522461,-16.829269,6.585366,5.365854,15.568750,-36.700001,5.531250,0.0,1.000000,0.000000,0.000000,0.000000
1782117314.919327,1814339,0.870605,-0.115234,-0.499023,-20.000000,16.524391,11.036586,15.568750,-36.700001,5.531250,0.0,1.000000,0.000000,0.000000,0.000000
1782117314.929327,1814349,0.784180,-0.036133,-0.471191,-20.060976,9.268292,10.731708,15.481250,-36.631252,5.793750,0.0,1.000000,0.000000,0.000000,0.000000
1782117314.939327,1814359,0.878418,-0.019531,-0.394043,-14.268293,-1.341463,3.292683,15.481250,-36.631252,5.793750,0.0,1.000000,0.000000,0.000000,0.000000
1782117314.949327,1814369,0.886230,-0.055176,-0.338379,-10.304878,-0.914634,2.621951,15.231250,-36.768749,5.931250,0.0,1.000000,0.000000,0.000000,0.000000
1782117314.959327,1814379,0.902832,-0.089355,-0.320312,-7.378049,-4.207317,1.707317,15.231250,-36.768749,5.931250,0.0,1.000000,0.000000,0.000000,0.000000
1782117314.969327,1814389,0.956055,-0.081543,-0.318848,-3.048780,-3.963415,0.670732,15.075000,-36.843750,5.975000,0.0,1.000000,0.000000,0.000000,0.000000
1782117314.979327,1814399,0.987793,-0.066895,-0.324707,0.365854,-1.585366,0.060976,15.075000,-36.843750,5.975000,0.0,1.000000,0.000000,0.000000,0.000000
1782117314.989327,1814409,0.990234,-0.069336,-0.306641,3.902439,1.463415,0.304878,14.900001,-36.893749,5.881250,0.0,1.000000,0.000000,0.000000,0.000000
1782117314.999327,1814419,0.968750,-0.074707,-0.285156,6.402439,3.780488,1.707317,14.900001,-36.893749,5.881250,0.0,1.000000,0.000000,0.000000,0.000000
1782117315.009327,1814429,0.951172,-0.076660,-0.262695,7.378049,4.634146,2.987805,14.850000,-36.693752,5.743750,0.0,1.000000,0.000000,0.000000,0.000000
1782117315.019327,1814439,0.962891,-0.081543,-0.249512,8.597561,4.024390,2.926829,14.850000,-36.693752,5.743750,0.0,1.000000,0.000000,0.000000,0.000000
1782117315.029327,1814449,0.987793,-0.092773,-0.242676,10.548780,5.365854,3.048780,14.531250,-37.025002,5.887500,0.0,1.000000,0.000000,0.000000,0.000000
1782117315.039327,1814459,0.998047,-0.091797,-0.248047,11.524390,7.621952,3.780488,14.531250,-37.025002,5.887500,0.0,1.000000,0.000000,0.000000,0.000000
1782117315.049327,1814469,0.994629,-0.085449,-0.248047,11.280488,9.329268,4.268293,14.406250,-36.987499,5.837500,0.0,1.000000,0.000000,0.000000,0.000000
1782117315.059327,1814479,0.980957,-0.067871,-0.237305,10.792684,11.402439,4.817073,14.406250,-36.987499,5.837500,0.0,1.000000,0.000000,0.000000,0.000000
1782117315.069327,1814489,0.958984,-0.065430,-0.249023,8.658537,11.829268,4.878049,14.250000,-37.131252,5.875000,0.0,1.000000,0.000000,0.000000,0.000000
1782117315.079327,1814499,0.956543,-0.065918,-0.254883,7.195122,10.487805,4.634146,14.250000,-37.131252,5.875000,0.0,1.000000,0.000000,0.000000,0.000000
1782117315.089327,1814509,0.967285,-0.050293,-0.268555,5.426829,10.243902,4.756098,14.112500,-37.049999,5.912500,0.0,1.000000,0.000000,0.000000,0.000000
1782117315.099327,1814519,0.951172,-0.033691,-0.274414,3.048780,11.585366,5.060976,14.112500,-37.049999,5.912500,0.0,1.000000,0.000000,0.000000,0.000000
1782117315.109327,1814529,0.939941,-0.028320,-0.274902,0.670732,12.012196,4.268293,14.018750,-37.093750,6.006250,0.0,1.000000,0.000000,0.000000,0.000000
1782117315.119327,1814539,0.928223,-0.037598,-0.271484,-1.524390,11.463415,4.085366,14.018750,-37.093750,6.006250,0.0,1.000000,0.000000,0.000000,0.000000
1782117315.136327,1814556,0.928711,-0.059082,-0.270508,-2.560976,8.597561,4.512195,13.862500,-37.162502,6.193750,0.0,1.000000,0.000000,0.000000,0.000000
1782117315.139327,1814559,0.933105,-0.086914,-0.269043,-2.926829,7.804878,5.304878,13.862500,-37.162502,6.193750,0.0,1.000000,0.000000,0.000000,0.000000
1782117315.150327,1814570,0.945312,-0.116211,-0.282227,-2.439024,4.939024,5.548780,13.925000,-36.906250,6.081250,0.0,1.000000,0.000000,0.000000,0.000000
1782117315.160327,1814580,0.971191,-0.121582,-0.291992,-1.158537,4.207317,6.036585,13.925000,-36.906250,6.081250,0.0,1.000000,0.000000,0.000000,0.000000
1782117315.170327,1814590,0.982422,-0.089355,-0.295410,1.280488,5.365854,5.182927,13.806251,-37.025002,6.287500,0.0,1.000000,0.000000,0.000000,0.000000
1782117315.180327,1814600,0.968750,-0.067871,-0.294434,2.500000,6.463415,4.207317,13.806251,-37.025002,6.287500,0.0,1.000000,0.000000,0.000000,0.000000
1782117315.189327,1814609,0.948242,-0.060547,-0.264648,3.841464,6.463415,3.292683,13.687500,-37.043751,6.306250,0.0,1.000000,0.000000,0.000000,0.000000
1782117315.199327,1814619,0.934082,-0.070801,-0.270996,5.426829,5.182927,1.951220,13.687500,-37.043751,6.306250,0.0,1.000000,0.000000,0.000000,0.000000
1782117315.209327,1814629,0.928711,-0.084473,-0.284180,7.439024,3.231707,-0.060976,13.681251,-36.975002,6.343750,0.0,1.000000,0.000000,0.000000,0.000000
1782117315.219327,1814639,0.925781,-0.095703,-0.285645,9.817074,2.560976,-1.036585,13.681251,-36.975002,6.343750,0.0,1.000000,0.000000,0.000000,0.000000
1782117315.229327,1814649,0.923340,-0.105469,-0.272949,12.926829,0.914634,-1.280488,13.562500,-37.012501,6.343750,0.0,1.000000,0.000000,0.000000,0.000000
1782117315.239327,1814659,0.945312,-0.119629,-0.262695,16.524391,-2.378049,-2.317073,13.562500,-37.012501,6.343750,0.0,1.000000,0.000000,0.000000,0.000000
1782117315.249327,1814669,0.990234,-0.119629,-0.241211,19.512196,-3.597561,-3.231707,13.500000,-37.043751,6.218750,0.0,1.000000,0.000000,0.000000,0.000000
1782117315.259327,1814679,1.028809,-0.111816,-0.219727,22.256098,-1.829268,-4.329268,13.500000,-37.043751,6.218750,0.0,1.000000,0.000000,0.000000,0.000000
1782117315.269327,1814689,1.035156,-0.111328,-0.225586,24.329269,-0.548781,-5.792683,13.531250,-37.062500,6.075000,0.0,1.000000,0.000000,0.000000,0.000000
1782117315.280327,1814700,0.995605,-0.090332,-0.228027,25.182928,1.646341,-5.304878,13.531250,-37.062500,6.075000,0.0,1.000000,0.000000,0.000000,0.000000
1782117315.289327,1814709,0.959961,-0.060059,-0.226562,25.182928,0.243902,-6.829268,13.568750,-36.943752,5.837500,0.0,1.000000,0.000000,0.000000,0.000000
1782117315.299327,1814719,0.960449,-0.043945,-0.206543,23.597561,0.487805,-7.560976,13.568750,-36.943752,5.837500,0.0,1.000000,0.000000,0.000000,0.000000
1782117315.309327,1814729,0.975586,-0.044922,-0.207520,21.036587,0.243902,-6.890244,13.593750,-36.981251,5.737500,0.0,1.000000,0.000000,0.000000,0.000000
1782117315.319327,1814739,0.988281,-0.020996,-0.207031,18.109756,-0.426829,-5.548780,13.593750,-36.981251,5.737500,0.0,1.000000,0.000000,0.000000,0.000000
1782117315.330327,1814750,0.998535,0.007324,-0.205078,14.024390,-0.792683,-4.024390,13.725000,-36.943752,5.556250,0.0,1.000000,0.000000,0.000000,0.000000
1782117315.339327,1814759,1.018555,0.005371,-0.188965,8.414635,-0.609756,-2.073171,13.725000,-36.943752,5.556250,0.0,1.000000,0.000000,0.000000,0.000000
1782117315.349327,1814769,1.029297,-0.009277,-0.191895,2.621951,0.426829,-1.036585,13.793750,-36.837502,5.443750,0.0,1.000000,0.000000,0.000000,0.000000
1782117315.360327,1814780,1.012207,-0.011230,-0.196289,-2.012195,2.682927,0.365854,13.793750,-36.837502,5.443750,0.0,1.000000,0.000000,0.000000,0.000000
1782117315.370327,1814790,0.999512,-0.017090,-0.193848,-5.975610,3.292683,1.524390,13.781250,-36.775002,5.443750,0.0,1.000000,0.000000,0.000000,0.000000
1782117315.379327,1814799,0.975586,-0.030762,-0.212891,-9.146341,3.414634,1.524390,13.781250,-36.775002,5.443750,0.0,1.000000,0.000000,0.000000,0.000000
1782117315.389327,1814809,0.964844,-0.053223,-0.240723,-11.280488,2.682927,2.073171,13.787500,-36.812500,5.518750,0.0,1.000000,0.000000,0.000000,0.000000
1782117315.400327,1814820,0.955566,-0.071289,-0.249512,-11.646341,2.073171,2.195122,13.787500,-36.812500,5.518750,0.0,1.000000,0.000000,0.000000,0.000000
1782117315.409327,1814829,0.965332,-0.078125,-0.246582,-11.524390,1.463415,3.170732,13.706250,-36.812500,5.656250,0.0,1.000000,0.000000,0.000000,0.000000
1782117315.420327,1814840,0.968750,-0.076172,-0.251953,-11.402439,1.280488,4.390244,13.706250,-36.812500,5.656250,0.0,1.000000,0.000000,0.000000,0.000000
1782117315.429327,1814849,0.965820,-0.064453,-0.257324,-11.890244,0.243902,5.060976,13.562500,-36.987499,5.800000,0.0,1.000000,0.000000,0.000000,0.000000
1782117315.439327,1814859,0.965820,-0.060547,-0.260742,-12.987805,-0.060976,4.634146,13.562500,-36.987499,5.800000,0.0,1.000000,0.000000,0.000000,0.000000
1782117315.449327,1814869,0.961426,-0.068359,-0.267090,-14.024390,0.121951,4.024390,13.543750,-36.906250,5.837500,0.0,1.000000,0.000000,0.000000,0.000000
1782117315.459327,1814879,0.952637,-0.080566,-0.259766,-15.000000,0.487805,3.475610,13.543750,-36.906250,5.837500,0.0,1.000000,0.000000,0.000000,0.000000
1782117315.469327,1814889,0.949219,-0.093262,-0.255371,-14.573171,0.487805,2.439024,13.412500,-36.975002,6.043750,0.0,1.000000,0.000000,0.000000,0.000000
1782117315.479327,1814899,0.955566,-0.100586,-0.267090,-12.743903,0.365854,1.829268,13.412500,-36.975002,6.043750,0.0,1.000000,0.000000,0.000000,0.000000
1782117315.489327,1814909,0.970215,-0.088379,-0.269043,-10.975610,-0.060976,1.585366,13.400001,-36.893749,6.018750,0.0,1.000000,0.000000,0.000000,0.000000
1782117315.499327,1814919,0.977539,-0.075195,-0.270020,-10.548780,-0.243902,1.585366,13.400001,-36.893749,6.018750,0.0,1.000000,0.000000,0.000000,0.000000
1782117315.509327,1814929,0.970703,-0.066406,-0.275391,-11.219512,-0.182927,1.829268,13.237500,-37.031250,6.181250,0.0,1.000000,0.000000,0.000000,0.000000
1782117315.519327,1814939,0.962402,-0.063477,-0.272461,-11.341464,-0.182927,2.073171,13.237500,-37.031250,6.181250,0.0,1.000000,0.000000,0.000000,0.000000
1782117315.530327,1814950,0.963379,-0.064941,-0.271973,-12.195122,-0.731707,2.560976,13.200000,-37.037502,6.206250,0.0,1.000000,0.000000,0.000000,0.000000
1782117315.540327,1814960,0.956055,-0.056152,-0.285645,-12.743903,-0.609756,2.865854,13.200000,-37.037502,6.206250,0.0,1.000000,0.000000,0.000000,0.000000
1782117315.549327,1814969,0.940918,-0.055176,-0.288574,-12.682927,-1.097561,2.560976,13.043750,-37.100002,6.337500,0.0,1.000000,0.000000,0.000000,0.000000
1782117315.559327,1814979,0.937988,-0.069336,-0.290527,-12.317074,-1.646341,2.134146,13.043750,-37.100002,6.337500,0.0,1.000000,0.000000,0.000000,0.000000
1782117315.570327,1814990,0.948730,-0.082520,-0.294922,-11.890244,-2.256098,2.256098,12.981250,-37.093750,6.375000,0.0,1.000000,0.000000,0.000000,0.000000
1782117315.579327,1814999,0.955078,-0.078613,-0.299805,-11.097561,-1.890244,2.560976,12.981250,-37.093750,6.375000,0.0,1.000000,0.000000,0.000000,0.000000
1782117315.589327,1815009,0.951172,-0.072754,-0.300293,-10.914635,-1.463415,2.500000,12.956250,-37.081249,6.425000,0.0,1.000000,0.000000,0.000000,0.000000
1782117315.599327,1815019,0.952148,-0.069824,-0.302734,-10.426829,-0.914634,2.439024,12.956250,-37.081249,6.425000,0.0,1.000000,0.000000,0.000000,0.000000
1782117315.609327,1815029,0.943848,-0.071777,-0.309570,-10.609756,-0.914634,2.195122,12.956250,-36.987499,6.443750,0.0,1.000000,0.000000,0.000000,0.000000
1782117315.619327,1815039,0.945312,-0.067383,-0.315918,-10.182927,-1.524390,1.341463,12.956250,-36.987499,6.443750,0.0,1.000000,0.000000,0.000000,0.000000
1782117315.629327,1815049,0.952148,-0.060059,-0.316895,-9.573171,-1.463415,0.609756,12.837501,-37.112499,6.581250,0.0,1.000000,0.000000,0.000000,0.000000
1782117315.639327,1815059,0.952148,-0.050293,-0.313965,-8.658537,-0.975610,-0.121951,12.837501,-37.112499,6.581250,0.0,1.000000,0.000000,0.000000,0.000000
1782117315.649327,1815069,0.949219,-0.053223,-0.312012,-8.658537,-0.914634,-0.243902,13.000000,-36.750000,6.462500,0.0,1.000000,0.000000,0.000000,0.000000
1782117315.659327,1815079,0.943848,-0.041504,-0.308105,-8.963415,-0.182927,0.487805,13.000000,-36.750000,6.462500,0.0,1.000000,0.000000,0.000000,0.000000
1782117315.669327,1815089,0.930176,-0.033691,-0.308594,-10.365854,-0.243902,1.219512,12.775001,-37.037502,6.731250,0.0,1.000000,0.000000,0.000000,0.000000
1782117315.679327,1815099,0.926270,-0.033203,-0.297852,-11.951220,-2.012195,2.256098,12.775001,-37.037502,6.731250,0.0,1.000000,0.000000,0.000000,0.000000
1782117315.689327,1815109,0.939453,-0.044922,-0.303223,-13.475610,-2.926829,3.658537,12.762500,-37.049999,6.743750,0.0,1.000000,0.000000,0.000000,0.000000
1782117315.699327,1815119,0.944336,-0.049805,-0.306641,-14.939025,-2.500000,4.573171,12.762500,-37.049999,6.743750,0.0,1.000000,0.000000,0.000000,0.000000
1782117315.710327,1815130,0.946777,-0.053223,-0.301758,-16.524391,-2.500000,5.121951,12.643750,-37.093750,6.887500,0.0,1.000000,0.000000,0.000000,0.000000
1782117315.720327,1815140,0.955078,-0.058594,-0.301270,-17.317074,-2.317073,5.243903,12.606250,-37.049999,6.875000,0.0,1.000000,0.000000,0.000000,0.000000
1782117315.729327,1815149,0.962891,-0.063965,-0.310059,-17.682928,-1.158537,4.695122,12.606250,-37.049999,6.875000,0.0,1.000000,0.000000,0.000000,0.000000
1782117315.740327,1815160,0.959473,-0.072754,-0.309082,-17.804878,0.121951,4.329268,12.606250,-37.049999,6.875000,0.0,1.000000,0.000000,0.000000,0.000000
1782117315.749327,1815169,0.954102,-0.081055,-0.309570,-17.439024,0.060976,4.085366,12.512500,-37.162502,7.150000,0.0,1.000000,0.000000,0.000000,0.000000
1782117315.759327,1815179,0.952637,-0.089355,-0.312988,-15.548780,0.000000,3.475610,12.512500,-37.162502,7.150000,0.0,1.000000,0.000000,0.000000,0.000000
1782117315.769327,1815189,0.945801,-0.093262,-0.317383,-12.743903,0.426829,2.621951,12.443750,-37.137501,7.118750,0.0,1.000000,0.000000,0.000000,0.000000
1782117315.779327,1815199,0.936523,-0.099609,-0.325195,-10.000000,0.243902,1.951220,12.443750,-37.137501,7.118750,0.0,1.000000,0.000000,0.000000,0.000000
1782117315.789327,1815209,0.934082,-0.093750,-0.328125,-7.378049,-0.365854,1.097561,12.362500,-37.187500,7.281250,0.0,1.000000,0.000000,0.000000,0.000000
1782117315.799327,1815219,0.944336,-0.080078,-0.325684,-5.609756,-0.731707,1.280488,12.362500,-37.187500,7.281250,0.0,1.000000,0.000000,0.000000,0.000000
1782117315.809327,1815229,0.937988,-0.057617,-0.314453,-5.000000,0.304878,1.463415,12.337501,-37.093750,7.262500,0.0,1.000000,0.000000,0.000000,0.000000
1782117315.819327,1815239,0.931152,-0.057617,-0.306152,-5.304878,-0.182927,1.402439,12.337501,-37.093750,7.262500,0.0,1.000000,0.000000,0.000000,0.000000
1782117315.829327,1815249,0.936035,-0.072754,-0.306152,-5.426829,-1.402439,0.365854,12.262500,-37.262501,7.356250,0.0,1.000000,0.000000,0.000000,0.000000
1782117315.839327,1815259,0.956543,-0.080566,-0.315918,-5.060976,-2.073171,-0.060976,12.262500,-37.262501,7.356250,0.0,1.000000,0.000000,0.000000,0.000000
1782117315.849327,1815269,0.957520,-0.068848,-0.318359,-4.817073,0.365854,0.792683,12.293750,-37.125000,7.325000,0.0,1.000000,0.000000,0.000000,0.000000
1782117315.859327,1815279,0.947266,-0.070312,-0.315918,-5.243903,0.609756,1.585366,12.262500,-37.218750,7.425000,0.0,1.000000,0.000000,0.000000,0.000000
1782117315.869327,1815289,0.959473,-0.070312,-0.312012,-5.000000,-0.304878,1.890244,12.262500,-37.218750,7.425000,0.0,1.000000,0.000000,0.000000,0.000000
1782117315.879327,1815299,0.961914,-0.077637,-0.321777,-4.146341,0.365854,1.463415,12.200000,-37.137501,7.387500,0.0,1.000000,0.000000,0.000000,0.000000
1782117315.889327,1815309,0.952148,-0.085449,-0.325195,-3.109756,0.243902,1.463415,12.200000,-37.137501,7.387500,0.0,1.000000,0.000000,0.000000,0.000000
1782117315.899327,1815319,0.945801,-0.090332,-0.319336,-2.073171,-0.548781,1.768293,12.318750,-36.868752,7.275000,0.0,1.000000,0.000000,0.000000,0.000000
1782117315.909327,1815329,0.954102,-0.090820,-0.315918,-0.975610,-1.463415,1.890244,12.318750,-36.868752,7.275000,0.0,1.000000,0.000000,0.000000,0.000000
1782117315.921327,1815341,0.955566,-0.073730,-0.304688,0.975610,-0.792683,1.585366,12.300000,-36.962502,7.312500,0.0,1.000000,0.000000,0.000000,0.000000
1782117315.929327,1815349,0.948242,-0.069336,-0.305664,2.256098,-0.121951,0.731707,12.300000,-36.962502,7.312500,0.0,1.000000,0.000000,0.000000,0.000000
1782117315.939327,1815359,0.936523,-0.063477,-0.302734,2.195122,0.243902,0.121951,12.156250,-37.156250,7.393750,0.0,1.000000,0.000000,0.000000,0.000000
1782117315.950327,1815370,0.927734,-0.051270,-0.306152,1.829268,0.548781,-0.426829,12.156250,-37.156250,7.393750,0.0,1.000000,0.000000,0.000000,0.000000
1782117315.961327,1815381,0.935059,-0.052246,-0.311035,1.280488,-0.365854,-0.914634,12.243751,-37.000000,7.268750,0.0,1.000000,0.000000,0.000000,0.000000
1782117315.970327,1815390,0.955078,-0.062988,-0.309082,1.402439,-0.731707,-0.975610,12.243751,-37.000000,7.268750,0.0,1.000000,0.000000,0.000000,0.000000
1782117315.979327,1815399,0.970215,-0.062012,-0.316895,1.890244,-0.487805,-0.365854,12.168750,-37.187500,7.418750,0.0,1.000000,0.000000,0.000000,0.000000
1782117315.989327,1815409,0.965332,-0.065918,-0.319336,2.073171,-0.304878,0.304878,12.168750,-37.187500,7.418750,0.0,1.000000,0.000000,0.000000,0.000000
1782117316.001327,1815421,0.949219,-0.065430,-0.313477,2.317073,0.060976,0.731707,12.200000,-37.043751,7.362500,0.0,1.000000,0.000000,0.000000,0.000000
1782117316.009327,1815429,0.941895,-0.078125,-0.309570,2.500000,-0.792683,0.731707,12.200000,-37.043751,7.362500,0.0,1.000000,0.000000,0.000000,0.000000
1782117316.020327,1815440,0.948730,-0.084473,-0.301270,2.865854,-1.646341,1.219512,12.125000,-37.143749,7.318750,0.0,1.000000,0.000000,0.000000,0.000000
1782117316.029327,1815449,0.958008,-0.073242,-0.292969,4.024390,-1.707317,1.280488,12.125000,-37.143749,7.318750,0.0,1.000000,0.000000,0.000000,0.000000
1782117316.041327,1815461,0.962891,-0.075684,-0.297852,5.000000,-1.280488,0.792683,11.981250,-37.243752,7.362500,0.0,1.000000,0.000000,0.000000,0.000000
1782117316.049327,1815469,0.947266,-0.060547,-0.296875,6.219512,-0.426829,0.243902,11.981250,-37.243752,7.362500,0.0,1.000000,0.000000,0.000000,0.000000
1782117316.059327,1815479,0.933594,-0.052734,-0.297852,6.097561,-0.853659,-0.670732,12.025001,-37.243752,7.300000,0.0,1.000000,0.000000,0.000000,0.000000
1782117316.069327,1815489,0.937500,-0.038574,-0.296387,6.097561,-1.402439,-1.158537,12.025001,-37.243752,7.300000,0.0,1.000000,0.000000,0.000000,0.000000
1782117316.080327,1815500,0.918945,-0.028320,-0.299805,4.817073,-0.243902,-1.097561,12.087501,-37.174999,7.250000,0.0,1.000000,0.000000,0.000000,0.000000
1782117316.090327,1815510,0.897949,-0.029297,-0.293945,3.109756,-1.036585,-0.487805,12.087501,-37.174999,7.250000,0.0,1.000000,0.000000,0.000000,0.000000
1782117316.100327,1815520,0.911133,-0.032715,-0.279297,1.280488,-2.134146,0.487805,12.012500,-37.299999,7.325000,0.0,1.000000,0.000000,0.000000,0.000000
1782117316.109327,1815529,0.926270,-0.041992,-0.271973,-0.243902,-2.012195,0.731707,12.012500,-37.299999,7.325000,0.0,1.000000,0.000000,0.000000,0.000000
1782117316.121327,1815541,0.950195,-0.053223,-0.271973,0.000000,-1.707317,0.426829,12.062500,-37.281250,7.225000,0.0,1.000000,0.000000,0.000000,0.000000
1782117316.130327,1815550,0.946777,-0.051270,-0.272461,0.548781,0.975610,0.304878,12.062500,-37.281250,7.225000,0.0,1.000000,0.000000,0.000000,0.000000
1782117316.139327,1815559,0.908203,-0.023438,-0.275391,-0.121951,2.743902,1.097561,12.206250,-37.018749,7.125000,0.0,1.000000,0.000000,0.000000,0.000000
1782117316.149327,1815569,0.869629,-0.020996,-0.271484,-3.170732,2.256098,2.134146,12.206250,-37.018749,7.125000,0.0,1.000000,0.000000,0.000000,0.000000
1782117316.161327,1815581,0.836914,-0.066895,-0.273438,-7.256098,0.731707,2.682927,12.081250,-37.299999,7.368750,0.0,1.000000,0.000000,0.000000,0.000000
1782117316.170327,1815590,0.841309,-0.125488,-0.288574,-9.756098,-2.256098,2.743902,12.081250,-37.299999,7.368750,0.0,1.000000,0.000000,0.000000,0.000000
1782117316.180327,1815600,0.894531,-0.162109,-0.308105,-8.780488,-4.268293,1.585366,12.075000,-37.350002,7.400000,0.0,1.000000,0.000000,0.000000,0.000000
1782117316.189327,1815609,0.946777,-0.164062,-0.335449,-6.280488,-3.536585,-0.426829,12.075000,-37.350002,7.400000,0.0,1.000000,0.000000,0.000000,0.000000
1782117316.199327,1815619,0.965820,-0.132324,-0.319824,-4.085366,-0.304878,-2.134146,12.081250,-37.431252,7.450000,0.0,1.000000,0.000000,0.000000,0.000000
1782117316.210327,1815630,0.980469,-0.114258,-0.279297,-2.073171,1.463415,-3.902439,12.081250,-37.431252,7.450000,0.0,1.000000,0.000000,0.000000,0.000000
1782117316.219327,1815639,1.040527,-0.118164,-0.257324,-1.097561,1.646341,-5.304878,12.212501,-37.337502,7.475000,0.0,1.000000,0.000000,0.000000,0.000000
1782117316.229327,1815649,1.123535,-0.100586,-0.266113,-1.646341,5.426829,-6.646342,12.212501,-37.337502,7.475000,0.0,1.000000,0.000000,0.000000,0.000000
1782117316.242327,1815662,1.114258,-0.094238,-0.246582,-5.670732,12.743903,-7.987805,12.312500,-37.468750,7.725000,0.0,1.000000,0.000000,0.000000,0.000000
1782117316.249327,1815669,1.040527,-0.125000,-0.216797,-9.329268,16.097561,-8.597561,12.312500,-37.468750,7.725000,0.0,1.000000,0.000000,0.000000,0.000000
1782117316.259327,1815679,1.024414,-0.176758,-0.182617,-9.878049,12.621951,-7.743903,12.456250,-37.450001,7.987500,0.0,1.000000,0.000000,0.000000,0.000000
1782117316.269327,1815689,1.052246,-0.188477,-0.178223,-9.146341,9.756098,-6.829268,12.456250,-37.450001,7.987500,0.0,1.000000,0.000000,0.000000,0.000000
1782117316.281327,1815701,1.031738,-0.180176,-0.170410,-7.317073,10.243902,-6.524390,12.518750,-37.506252,8.331250,0.0,1.000000,0.000000,0.000000,0.000000
1782117316.289327,1815709,0.994629,-0.177246,-0.155762,-6.402439,7.682927,-7.256098,12.518750,-37.506252,8.331250,0.0,1.000000,0.000000,0.000000,0.000000
1782117316.299327,1815719,1.006348,-0.185547,-0.134277,-7.743903,4.085366,-7.987805,12.575000,-37.562500,8.500000,0.0,1.000000,0.000000,0.000000,0.000000
1782117316.309327,1815729,1.106445,-0.212891,-0.126465,-6.646342,2.378049,-10.182927,12.575000,-37.562500,8.500000,0.0,1.000000,0.000000,0.000000,0.000000
1782117316.321327,1815741,1.168945,-0.179688,-0.149902,-3.109756,10.487805,-8.475610,12.593750,-37.600002,8.650001,0.0,1.000000,0.000000,0.000000,0.000000
1782117316.329327,1815749,1.099609,-0.094238,-0.193359,-2.073171,18.719513,-4.939024,12.593750,-37.600002,8.650001,0.0,1.000000,0.000000,0.000000,0.000000
1782117316.340327,1815760,1.017090,-0.017090,-0.186523,-3.048780,20.975611,-1.768293,12.625000,-37.631252,8.900001,0.0,1.000000,0.000000,0.000000,0.000000
1782117316.349327,1815769,0.961426,0.012695,-0.162109,-6.829268,19.207317,1.097561,12.625000,-37.631252,8.900001,0.0,1.000000,0.000000,0.000000,0.000000
1782117316.362327,1815782,0.921387,-0.004395,-0.192383,-14.024390,15.975610,2.865854,12.550000,-37.681252,9.293750,0.0,1.000000,0.000000,0.000000,0.000000
1782117316.369327,1815789,0.895020,-0.018066,-0.275879,-18.536585,12.317074,3.414634,12.550000,-37.681252,9.293750,0.0,1.000000,0.000000,0.000000,0.000000
1782117316.379327,1815799,0.871582,0.003906,-0.320801,-20.243902,10.487805,2.987805,12.581250,-37.556252,9.531250,0.0,1.000000,0.000000,0.000000,0.000000
1782117316.389327,1815809,0.849121,0.002930,-0.333984,-19.939024,7.012195,0.853659,12.581250,-37.556252,9.531250,0.0,1.000000,0.000000,0.000000,0.000000
1782117316.402327,1815822,0.841309,-0.017090,-0.344238,-18.719513,3.658537,-1.768293,12.625000,-37.400002,9.687500,0.0,1.000000,0.000000,0.000000,0.000000
1782117316.409327,1815829,0.844727,-0.066895,-0.360352,-17.317074,0.731707,-3.963415,12.625000,-37.400002,9.687500,0.0,1.000000,0.000000,0.000000,0.000000
1782117316.419327,1815839,0.824707,-0.112793,-0.378906,-13.780488,-3.292683,-5.670732,12.831250,-37.193752,9.687500,0.0,1.000000,0.000000,0.000000,0.000000
1782117316.429327,1815849,0.797363,-0.177734,-0.374023,-5.792683,-10.365854,-9.451220,12.831250,-37.193752,9.687500,0.0,1.000000,0.000000,0.000000,0.000000
1782117316.439327,1815859,0.793457,-0.305176,-0.397461,5.121951,-19.451220,-16.524391,13.093750,-37.012501,9.425000,0.0,1.000000,0.000000,0.000000,0.000000
1782117316.449327,1815869,0.893066,-0.485840,-0.479004,20.243902,-29.207317,-24.573172,13.093750,-37.012501,9.425000,0.0,1.000000,0.000000,0.000000,0.000000
1782117316.459327,1815879,1.115723,-0.542480,-0.525391,39.634148,-31.219513,-29.878050,13.612500,-36.693752,8.550000,0.0,1.000000,0.000000,0.000000,0.000000
1782117316.469327,1815889,1.277832,-0.450684,-0.482910,59.024391,-17.134148,-33.109756,13.612500,-36.693752,8.550000,0.0,1.000000,0.000000,0.000000,0.000000
1782117316.479327,1815899,1.246582,-0.306152,-0.389648,73.658539,4.390244,-30.670732,14.156250,-36.387501,7.775000,0.0,1.000000,0.000000,0.000000,0.000000
1782117316.489327,1815909,1.116699,-0.147949,-0.315918,82.682930,18.475611,-26.158537,14.156250,-36.387501,7.775000,0.0,1.000000,0.000000,0.000000,0.000000
1782117316.499327,1815919,0.954102,-0.029297,-0.249023,82.439026,24.268293,-19.146341,14.718750,-35.900002,7.237500,0.0,1.000000,0.000000,0.000000,0.000000
1782117316.509327,1815929,0.872070,0.094238,-0.181152,71.707321,20.548780,-14.573171,14.718750,-35.900002,7.237500,0.0,1.000000,0.000000,0.000000,0.000000
1782117316.519327,1815939,0.883301,0.229004,-0.141602,55.731709,15.609756,-14.512196,15.162500,-35.281250,7.043750,0.0,1.000000,0.000000,0.000000,0.000000
1782117316.530327,1815950,0.951172,0.318359,-0.091797,39.512196,13.902439,-19.268293,15.162500,-35.281250,7.043750,0.0,1.000000,0.000000,0.000000,0.000000
1782117316.540327,1815960,1.011230,0.307617,-0.066895,23.109756,17.256098,-22.682928,15.481250,-35.031250,7.268750,0.0,1.000000,0.000000,0.000000,0.000000
1782117316.550327,1815970,0.982910,0.244141,-0.111328,9.024390,21.768293,-20.487804,15.481250,-35.031250,7.268750,0.0,1.000000,0.000000,0.000000,0.000000
1782117316.560327,1815980,0.920410,0.179688,-0.174805,-0.853659,19.878050,-15.182927,15.756250,-35.049999,7.612500,0.0,1.000000,0.000000,0.000000,0.000000
1782117316.570327,1815990,0.887695,0.104492,-0.234375,-4.756098,13.719513,-10.975610,15.756250,-35.049999,7.612500,0.0,1.000000,0.000000,0.000000,0.000000
1782117316.579327,1815999,0.874512,0.075195,-0.307129,-6.524390,5.731708,-7.256098,15.806251,-35.212502,7.787500,0.0,1.000000,0.000000,0.000000,0.000000
1782117316.589327,1816009,0.893066,0.074707,-0.368164,-6.707317,-1.463415,-4.085366,15.806251,-35.212502,7.787500,0.0,1.000000,0.000000,0.000000,0.000000
1782117316.599327,1816019,0.932617,0.046387,-0.379395,-6.402439,-4.085366,-3.414634,15.831250,-35.431252,7.768750,0.0,1.000000,0.000000,0.000000,0.000000
1782117316.609327,1816029,0.948730,-0.027832,-0.352051,-8.475610,-1.524390,-4.146341,15.831250,-35.431252,7.768750,0.0,1.000000,0.000000,0.000000,0.000000
1782117316.619327,1816039,0.945312,-0.100098,-0.317871,-9.756098,0.792683,-5.182927,15.825000,-35.556252,7.875000,0.0,1.000000,0.000000,0.000000,0.000000
1782117316.629327,1816049,0.931641,-0.166504,-0.312988,-8.170732,2.743902,-6.219512,15.825000,-35.556252,7.875000,0.0,1.000000,0.000000,0.000000,0.000000
1782117316.639327,1816059,0.917969,-0.177734,-0.316895,-1.158537,3.963415,-8.963415,15.837501,-35.612499,7.987500,0.0,1.000000,0.000000,0.000000,0.000000
1782117316.649327,1816069,0.895020,-0.135254,-0.320312,7.073171,3.536585,-11.646341,15.837501,-35.612499,7.987500,0.0,1.000000,0.000000,0.000000,0.000000
1782117316.659327,1816079,0.880859,-0.052246,-0.317383,13.902439,1.341463,-13.475610,15.968750,-35.400002,7.893750,0.0,1.000000,0.000000,0.000000,0.000000
1782117316.669327,1816089,0.874023,0.011230,-0.333008,16.890244,-2.865854,-14.024390,15.968750,-35.400002,7.893750,0.0,1.000000,0.000000,0.000000,0.000000
1782117316.679327,1816099,0.895996,0.078125,-0.325195,16.097561,-7.439024,-13.780488,16.506250,-34.937500,7.556250,0.0,1.000000,0.000000,0.000000,0.000000
1782117316.689327,1816109,0.934082,0.116699,-0.312012,13.048780,-9.634147,-12.682927,16.506250,-34.937500,7.556250,0.0,1.000000,0.000000,0.000000,0.000000
1782117316.700327,1816120,0.964355,0.128418,-0.290527,9.207317,-10.853659,-10.609756,16.537500,-35.062500,7.493750,0.0,1.000000,0.000000,0.000000,0.000000
1782117316.709327,1816129,0.987305,0.119141,-0.284180,5.365854,-10.548780,-8.353659,16.537500,-35.062500,7.493750,0.0,1.000000,0.000000,0.000000,0.000000
1782117316.720327,1816140,0.993652,0.108398,-0.255371,-0.670732,-8.048780,-3.719512,16.568750,-35.131252,7.368750,0.0,1.000000,0.000000,0.000000,0.000000
1782117316.730327,1816150,0.993652,0.108398,-0.255371,-0.670732,-8.048780,-3.719512,16.568750,-35.131252,7.368750,0.0,1.000000,0.000000,0.000000,0.000000
1782117316.739327,1816159,0.988281,0.093262,-0.237793,-2.500000,-7.378049,-2.500000,16.618750,-35.075001,7.212500,0.0,1.000000,0.000000,0.000000,0.000000
1782117316.750327,1816170,0.980469,0.071777,-0.230469,-3.536585,-7.195122,-2.195122,16.618750,-35.075001,7.212500,0.0,1.000000,0.000000,0.000000,0.000000
1782117316.759327,1816179,0.958496,0.058105,-0.250488,-4.512195,-5.914634,-2.621951,16.606251,-35.206249,7.231250,0.0,1.000000,0.000000,0.000000,0.000000
1782117316.770327,1816190,0.890625,0.065918,-0.312012,-8.719512,-7.378049,-3.841464,16.606251,-35.206249,7.231250,0.0,1.000000,0.000000,0.000000,0.000000
1782117316.779327,1816199,0.891602,0.077637,-0.317871,-10.182927,-10.731708,-5.426829,16.756250,-35.062500,7.075000,0.0,1.000000,0.000000,0.000000,0.000000
1782117316.789327,1816209,0.922363,0.070312,-0.304688,-10.914635,-13.475610,-7.195122,16.756250,-35.062500,7.075000,0.0,1.000000,0.000000,0.000000,0.000000
1782117316.799327,1816219,0.957520,0.033203,-0.296387,-9.573171,-14.451220,-7.865854,16.793751,-35.225002,7.062500,0.0,1.000000,0.000000,0.000000,0.000000
1782117316.810327,1816230,0.974121,-0.004883,-0.290039,-6.707317,-13.963415,-7.256098,16.793751,-35.225002,7.062500,0.0,1.000000,0.000000,0.000000,0.000000
1782117316.819327,1816239,0.981445,-0.032227,-0.287109,-3.475610,-12.804878,-5.731708,17.031250,-34.937500,6.825000,0.0,1.000000,0.000000,0.000000,0.000000
1782117316.829327,1816249,0.982910,-0.033691,-0.281250,0.182927,-11.646341,-4.085366,17.031250,-34.937500,6.825000,0.0,1.000000,0.000000,0.000000,0.000000
1782117316.839327,1816259,0.974121,-0.015137,-0.284668,3.353659,-10.609756,-2.682927,17.056250,-35.093750,6.768750,0.0,1.000000,0.000000,0.000000,0.000000
1782117316.849327,1816269,0.959961,0.020508,-0.284180,5.487805,-10.000000,-2.134146,17.056250,-35.093750,6.768750,0.0,1.000000,0.000000,0.000000,0.000000
1782117316.859327,1816279,0.947754,0.052734,-0.282227,6.219512,-9.756098,-2.987805,17.125000,-35.056252,6.606250,0.0,1.000000,0.000000,0.000000,0.000000
1782117316.869327,1816289,0.943848,0.064453,-0.277832,6.402439,-9.634147,-4.390244,17.125000,-35.056252,6.606250,0.0,1.000000,0.000000,0.000000,0.000000
1782117316.879327,1816299,0.946289,0.061035,-0.275391,6.707317,-9.573171,-5.487805,17.125000,-35.174999,6.537500,0.0,1.000000,0.000000,0.000000,0.000000
1782117316.889327,1816309,0.951172,0.052734,-0.277344,6.646342,-9.085366,-5.975610,17.125000,-35.174999,6.537500,0.0,1.000000,0.000000,0.000000,0.000000
1782117316.899327,1816319,0.953125,0.037598,-0.281738,7.073171,-9.085366,-6.463415,17.237501,-35.125000,6.281250,0.0,1.000000,0.000000,0.000000,0.000000
1782117316.910327,1816330,0.958496,0.033203,-0.277832,7.621952,-9.878049,-6.585366,17.237501,-35.125000,6.281250,0.0,1.000000,0.000000,0.000000,0.000000
1782117316.919327,1816339,0.959473,0.022461,-0.291504,8.170732,-10.609756,-6.463415,17.275000,-35.200001,6.193750,0.0,1.000000,0.000000,0.000000,0.000000
1782117316.932327,1816352,0.961426,0.036133,-0.296387,7.926829,-12.256098,-5.975610,17.275000,-35.200001,6.193750,0.0,1.000000,0.000000,0.000000,0.000000
1782117316.940327,1816360,0.962891,0.037109,-0.299805,6.585366,-13.475610,-5.304878,17.462500,-35.068752,5.856250,0.0,1.000000,0.000000,0.000000,0.000000
1782117316.949327,1816369,0.961426,0.018066,-0.302246,5.609756,-13.719513,-4.451220,17.462500,-35.068752,5.856250,0.0,1.000000,0.000000,0.000000,0.000000
1782117316.959327,1816379,0.959961,-0.005859,-0.308594,5.121951,-13.292684,-3.719512,17.518751,-35.087502,5.712500,0.0,1.000000,0.000000,0.000000,0.000000
1782117316.970327,1816390,0.967773,-0.032227,-0.318359,5.731708,-12.195122,-2.743902,17.518751,-35.087502,5.712500,0.0,1.000000,0.000000,0.000000,0.000000
1782117316.979327,1816399,0.955078,-0.034180,-0.328125,6.829268,-10.487805,-1.829268,17.681250,-34.975002,5.412500,0.0,1.000000,0.000000,0.000000,0.000000
1782117316.990327,1816410,0.927734,-0.023438,-0.343750,6.524390,-10.365854,-0.670732,17.681250,-34.975002,5.412500,0.0,1.000000,0.000000,0.000000,0.000000
1782117317.000327,1816420,0.911621,0.005859,-0.358398,5.426829,-12.195122,-0.182927,17.662500,-35.200001,5.293750,0.0,1.000000,0.000000,0.000000,0.000000
1782117317.010327,1816430,0.916992,0.037598,-0.366699,3.414634,-13.841464,-0.060976,17.662500,-35.200001,5.293750,0.0,1.000000,0.000000,0.000000,0.000000
1782117317.019327,1816439,0.923340,0.057129,-0.373047,0.914634,-14.756098,0.000000,17.656250,-35.200001,5.100000,0.0,1.000000,0.000000,0.000000,0.000000
1782117317.029327,1816449,0.923340,0.061035,-0.367676,-1.097561,-15.365854,0.426829,17.656250,-35.200001,5.100000,0.0,1.000000,0.000000,0.000000,0.000000
1782117317.039327,1816459,0.927734,0.057617,-0.355469,-2.256098,-16.341463,0.914634,17.762501,-35.081249,4.837500,0.0,1.000000,0.000000,0.000000,0.000000
1782117317.052327,1816472,0.937012,0.048340,-0.336914,-3.048780,-16.890244,1.219512,17.637501,-35.281250,4.668750,0.0,1.000000,0.000000,0.000000,0.000000
1782117317.059327,1816479,0.944336,0.032227,-0.321777,-3.963415,-17.012196,1.585366,17.637501,-35.281250,4.668750,0.0,1.000000,0.000000,0.000000,0.000000
1782117317.069327,1816489,0.945801,0.024414,-0.313965,-4.207317,-16.707317,2.134146,17.637501,-35.281250,4.668750,0.0,1.000000,0.000000,0.000000,0.000000
1782117317.080327,1816500,0.951660,0.030762,-0.313477,-4.268293,-16.280489,2.500000,17.668751,-35.418751,4.506250,0.0,1.000000,0.000000,0.000000,0.000000
1782117317.092327,1816512,0.957520,0.042969,-0.321289,-4.268293,-15.670732,2.621951,17.643751,-35.368752,4.293750,0.0,1.000000,0.000000,0.000000,0.000000
1782117317.099327,1816519,0.958496,0.050293,-0.330078,-4.634146,-14.878049,2.743902,17.643751,-35.368752,4.293750,0.0,1.000000,0.000000,0.000000,0.000000
1782117317.110327,1816530,0.953613,0.049316,-0.336914,-4.939024,-14.329268,2.682927,17.643751,-35.368752,4.293750,0.0,1.000000,0.000000,0.000000,0.000000
1782117317.119327,1816539,0.949707,0.039062,-0.338379,-4.451220,-13.963415,2.500000,17.568750,-35.506252,4.200000,0.0,1.000000,0.000000,0.000000,0.000000
1782117317.131327,1816551,0.949219,0.024414,-0.344727,-4.024390,-13.170732,2.317073,17.581251,-35.581249,4.037500,0.0,1.000000,0.000000,0.000000,0.000000
1782117317.140327,1816560,0.941406,0.007324,-0.346680,-3.536585,-13.048780,2.378049,17.581251,-35.581249,4.037500,0.0,1.000000,0.000000,0.000000,0.000000
1782117317.149327,1816569,0.943359,-0.008301,-0.346191,-2.987805,-13.658537,2.378049,17.581251,-35.581249,4.037500,0.0,1.000000,0.000000,0.000000,0.000000
1782117317.160327,1816580,0.947754,-0.021484,-0.350098,-1.707317,-13.597561,2.256098,17.631250,-35.518749,3.812500,0.0,1.000000,0.000000,0.000000,0.000000
1782117317.173327,1816593,0.944824,-0.032715,-0.359375,0.548781,-13.109756,2.073171,17.556250,-35.656250,3.737500,0.0,1.000000,0.000000,0.000000,0.000000
1782117317.179327,1816599,0.938477,-0.037598,-0.366211,3.536585,-12.804878,1.646341,17.556250,-35.656250,3.737500,0.0,1.000000,0.000000,0.000000,0.000000
1782117317.189327,1816609,0.932617,-0.030273,-0.374512,6.829268,-12.500000,1.036585,17.556250,-35.656250,3.737500,0.0,1.000000,0.000000,0.000000,0.000000
1782117317.199327,1816619,0.928223,-0.015625,-0.375488,9.207317,-12.134147,0.487805,17.531250,-35.650002,3.456250,0.0,1.000000,0.000000,0.000000,0.000000
1782117317.210327,1816630,0.927734,-0.003418,-0.374023,10.609756,-12.073171,0.060976,17.531250,-35.650002,3.456250,0.0,1.000000,0.000000,0.000000,0.000000
1782117317.219327,1816639,0.931641,0.018555,-0.372559,10.975610,-11.890244,-0.121951,17.587500,-35.587502,3.250000,0.0,1.000000,0.000000,0.000000,0.000000
1782117317.229327,1816649,0.934082,0.024414,-0.380371,10.060976,-11.219512,-0.121951,17.587500,-35.587502,3.250000,0.0,1.000000,0.000000,0.000000,0.000000
1782117317.239327,1816659,0.935059,0.029785,-0.380859,8.841464,-11.280488,0.182927,17.600000,-35.656250,3.031250,0.0,1.000000,0.000000,0.000000,0.000000
1782117317.251327,1816671,0.938477,0.030273,-0.384277,7.987805,-10.975610,0.731707,17.593750,-35.725002,2.768750,0.0,1.000000,0.000000,0.000000,0.000000
1782117317.259327,1816679,0.936035,0.027344,-0.384766,7.804878,-10.243902,1.280488,17.593750,-35.725002,2.768750,0.0,1.000000,0.000000,0.000000,0.000000
1782117317.269327,1816689,0.920410,0.023438,-0.384277,8.292683,-9.817074,1.524390,17.593750,-35.725002,2.768750,0.0,1.000000,0.000000,0.000000,0.000000
1782117317.279327,1816699,0.920410,0.024414,-0.377441,8.048780,-10.609756,2.012195,17.606251,-35.743752,2.581250,0.0,1.000000,0.000000,0.000000,0.000000
1782117317.290327,1816710,0.928711,0.020996,-0.376953,7.256098,-10.975610,2.317073,17.606251,-35.756252,2.381250,0.0,1.000000,0.000000,0.000000,0.000000
1782117317.299327,1816719,0.933594,0.020020,-0.377930,6.097561,-10.792684,2.500000,17.606251,-35.756252,2.381250,0.0,1.000000,0.000000,0.000000,0.000000
1782117317.309327,1816729,0.935059,0.008301,-0.389160,5.853659,-10.487805,2.256098,17.606251,-35.756252,2.381250,0.0,1.000000,0.000000,0.000000,0.000000
1782117317.319327,1816739,0.926758,-0.011230,-0.395020,6.951220,-9.695122,1.829268,17.550001,-35.787502,2.268750,0.0,1.000000,0.000000,0.000000,0.000000
1782117317.331327,1816751,0.923340,-0.023926,-0.392578,8.475610,-9.451220,1.768293,17.543751,-35.893749,1.993750,0.0,1.000000,0.000000,0.000000,0.000000
1782117317.339327,1816759,0.925293,-0.036133,-0.390137,10.975610,-9.634147,1.768293,17.543751,-35.893749,1.993750,0.0,1.000000,0.000000,0.000000,0.000000
1782117317.349327,1816769,0.930664,-0.036621,-0.384766,13.170732,-9.329268,1.280488,17.543751,-35.893749,1.993750,0.0,1.000000,0.000000,0.000000,0.000000
1782117317.360327,1816780,0.933594,-0.044434,-0.383301,15.243903,-8.536586,0.548781,17.518751,-35.825001,1.725000,0.0,1.000000,0.000000,0.000000,0.000000
1782117317.371327,1816791,0.937012,-0.046875,-0.384277,17.378050,-7.621952,-0.182927,17.618750,-35.900002,1.593750,0.0,1.000000,0.000000,0.000000,0.000000
1782117317.379327,1816799,0.937012,-0.044922,-0.388672,19.451220,-6.585366,-0.487805,17.618750,-35.900002,1.593750,0.0,1.000000,0.000000,0.000000,0.000000
1782117317.390327,1816810,0.932617,-0.036621,-0.389160,21.463415,-6.036585,-0.548781,17.618750,-35.900002,1.593750,0.0,1.000000,0.000000,0.000000,0.000000
1782117317.400327,1816820,0.922852,-0.028809,-0.390137,23.597561,-5.792683,-0.731707,17.550001,-35.868752,1.312500,0.0,1.000000,0.000000,0.000000,0.000000
1782117317.412327,1816832,0.916504,-0.018066,-0.388184,25.548780,-5.487805,-0.853659,17.612501,-35.868752,1.075000,0.0,1.000000,0.000000,0.000000,0.000000
1782117317.419327,1816839,0.911621,0.000977,-0.382324,26.707317,-5.670732,-0.853659,17.612501,-35.868752,1.075000,0.0,1.000000,0.000000,0.000000,0.000000
1782117317.431327,1816851,0.914551,0.010742,-0.380371,26.341463,-5.975610,-1.036585,17.700001,-35.737499,0.706250,0.0,1.000000,0.000000,0.000000,0.000000
1782117317.439327,1816859,0.923828,0.016113,-0.380859,25.426830,-5.731708,-1.280488,17.700001,-35.737499,0.706250,0.0,1.000000,0.000000,0.000000,0.000000
1782117317.452327,1816872,0.925293,0.012695,-0.388184,24.390244,-5.121951,-1.341463,17.600000,-35.818752,0.475000,0.0,1.000000,0.000000,0.000000,0.000000
1782117317.459327,1816879,0.921875,-0.005859,-0.396484,23.902439,-5.182927,-1.036585,17.600000,-35.818752,0.475000,0.0,1.000000,0.000000,0.000000,0.000000
1782117317.469327,1816889,0.924805,-0.011230,-0.387695,24.024391,-6.890244,0.121951,17.656250,-35.843750,0.175000,0.0,1.000000,0.000000,0.000000,0.000000
1782117317.479327,1816899,0.935059,-0.010742,-0.372559,24.085367,-8.475610,1.768293,17.656250,-35.843750,0.175000,0.0,1.000000,0.000000,0.000000,0.000000
1782117317.492327,1816912,0.952637,-0.012695,-0.354004,24.024391,-9.329268,3.292683,17.593750,-35.906250,-0.112500,0.0,1.000000,0.000000,0.000000,0.000000
1782117317.500327,1816920,0.977051,-0.000488,-0.339844,23.231709,-8.231708,4.695122,17.593750,-35.906250,-0.112500,0.0,1.000000,0.000000,0.000000,0.000000
1782117317.509327,1816929,0.986816,0.001953,-0.341309,22.256098,-3.719512,5.243903,17.612501,-35.912502,-0.425000,0.0,1.000000,0.000000,0.000000,0.000000
1782117317.519327,1816939,0.978027,0.002930,-0.353516,21.097561,2.317073,4.878049,17.612501,-35.912502,-0.425000,0.0,1.000000,0.000000,0.000000,0.000000
1782117317.529327,1816949,0.961426,0.004883,-0.375977,20.914635,7.195122,4.146341,17.531250,-35.975002,-0.425000,0.0,1.000000,0.000000,0.000000,0.000000
1782117317.539327,1816959,0.939941,0.002930,-0.392578,21.707317,9.756098,3.658537,17.531250,-35.975002,-0.425000,0.0,1.000000,0.000000,0.000000,0.000000
1782117317.549327,1816969,0.926270,0.001465,-0.395996,22.926830,9.634147,3.841464,17.587500,-35.831249,-0.518750,0.0,1.000000,0.000000,0.000000,0.000000
1782117317.559327,1816979,0.926758,0.010742,-0.395996,22.560976,8.048780,4.573171,17.587500,-35.831249,-0.518750,0.0,1.000000,0.000000,0.000000,0.000000
1782117317.572327,1816992,0.911621,0.014160,-0.389160,15.792684,6.280488,7.012195,17.512501,-35.975002,-0.631250,0.0,1.000000,0.000000,0.000000,0.000000
1782117317.579327,1816999,0.911621,0.014160,-0.389160,15.792684,6.280488,7.012195,17.512501,-35.975002,-0.631250,0.0,1.000000,0.000000,0.000000,0.000000
1782117317.589327,1817009,0.892578,0.002930,-0.400879,11.158537,6.097561,7.012195,17.537500,-35.956249,-0.625000,0.0,1.000000,0.000000,0.000000,0.000000
1782117317.599327,1817019,0.873047,-0.014160,-0.422852,7.987805,5.000000,6.341464,17.537500,-35.956249,-0.625000,0.0,1.000000,0.000000,0.000000,0.000000
1782117317.611327,1817031,0.868652,0.000000,-0.449219,5.426829,2.378049,4.512195,17.525000,-36.000000,-0.662500,0.0,1.000000,0.000000,0.000000,0.000000
1782117317.619327,1817039,0.868652,0.000000,-0.449219,5.426829,2.378049,4.512195,17.525000,-36.000000,-0.662500,0.0,1.000000,0.000000,0.000000,0.000000
1782117317.629327,1817049,0.877930,0.020996,-0.441406,3.963415,2.073171,4.329268,17.687500,-35.931252,-0.712500,0.0,1.000000,0.000000,0.000000,0.000000
1782117317.639327,1817059,0.876465,0.020996,-0.425781,0.792683,2.621951,5.731708,17.687500,-35.931252,-0.712500,0.0,1.000000,0.000000,0.000000,0.000000
1782117317.651327,1817071,0.868164,0.007324,-0.406738,-4.573171,2.317073,8.109756,17.687500,-35.881252,-0.712500,0.0,1.000000,0.000000,0.000000,0.000000
1782117317.659327,1817079,0.864746,-0.009766,-0.403320,-10.914635,0.914634,10.487805,17.687500,-35.881252,-0.712500,0.0,1.000000,0.000000,0.000000,0.000000
1782117317.669327,1817089,0.869629,-0.023926,-0.410645,-17.621952,-0.426829,11.829268,17.800001,-35.924999,-0.618750,0.0,1.000000,0.000000,0.000000,0.000000
1782117317.679327,1817099,0.873535,-0.038086,-0.416016,-23.902439,-0.304878,12.378049,17.800001,-35.924999,-0.618750,0.0,1.000000,0.000000,0.000000,0.000000
1782117317.691327,1817111,0.862305,-0.028320,-0.418945,-29.024391,-1.829268,12.682927,17.612501,-36.350002,-0.212500,0.0,1.000000,0.000000,0.000000,0.000000
1782117317.699327,1817119,0.860840,-0.027344,-0.429688,-32.439026,-3.780488,12.073171,17.612501,-36.350002,-0.212500,0.0,1.000000,0.000000,0.000000,0.000000
1782117317.709327,1817129,0.873047,-0.023926,-0.441406,-36.402439,-5.975610,11.585366,17.575001,-36.568752,-0.025000,0.0,1.000000,0.000000,0.000000,0.000000
1782117317.719327,1817139,0.897461,-0.053711,-0.452148,-41.646343,-8.109756,11.951220,17.575001,-36.568752,-0.025000,0.0,1.000000,0.000000,0.000000,0.000000
1782117317.731327,1817151,0.921387,-0.102051,-0.449219,-43.231709,-8.780488,12.500000,17.518751,-36.818752,0.306250,0.0,1.000000,0.000000,0.000000,0.000000
1782117317.739327,1817159,0.927734,-0.158203,-0.432129,-42.195122,-8.414635,13.658537,17.518751,-36.818752,0.306250,0.0,1.000000,0.000000,0.000000,0.000000
1782117317.749327,1817169,0.922363,-0.210938,-0.414062,-39.695122,-7.865854,15.426829,17.443750,-36.918751,0.518750,0.0,1.000000,0.000000,0.000000,0.000000
1782117317.759327,1817179,0.915039,-0.233887,-0.393066,-35.731709,-8.170732,16.158537,17.443750,-36.918751,0.518750,0.0,1.000000,0.000000,0.000000,0.000000
1782117317.771327,1817191,0.930176,-0.233398,-0.387695,-30.060976,-7.865854,14.939025,17.268751,-37.287502,0.793750,0.0,1.000000,0.000000,0.000000,0.000000
1782117317.780327,1817200,0.955566,-0.195312,-0.388672,-25.609756,-5.060976,12.500000,17.268751,-37.287502,0.793750,0.0,1.000000,0.000000,0.000000,0.000000
1782117317.790327,1817210,0.959473,-0.163086,-0.384766,-21.768293,-1.585366,10.365854,17.193750,-37.375000,0.868750,0.0,1.000000,0.000000,0.000000,0.000000
1782117317.799327,1817219,0.951660,-0.142578,-0.369629,-19.390244,-0.243902,8.841464,17.193750,-37.375000,0.868750,0.0,1.000000,0.000000,0.000000,0.000000
1782117317.812327,1817232,0.960449,-0.137207,-0.363281,-17.865854,-0.548781,7.500000,17.106251,-37.587502,1.093750,0.0,1.000000,0.000000,0.000000,0.000000
1782117317.820327,1817240,0.966797,-0.156738,-0.375000,-17.256098,0.121951,6.951220,17.106251,-37.587502,1.093750,0.0,1.000000,0.000000,0.000000,0.000000
1782117317.829327,1817249,0.958008,-0.165039,-0.389648,-16.402439,1.646341,7.804878,17.100000,-37.587502,1.200000,0.0,1.000000,0.000000,0.000000,0.000000
1782117317.839327,1817259,0.934082,-0.158691,-0.394531,-15.426829,1.890244,8.780488,17.100000,-37.587502,1.200000,0.0,1.000000,0.000000,0.000000,0.000000
1782117317.852327,1817272,0.915039,-0.148438,-0.395508,-14.207317,0.731707,8.902439,17.043751,-37.712502,1.362500,0.0,1.000000,0.000000,0.000000,0.000000
1782117317.859327,1817279,0.896973,-0.146484,-0.403320,-13.292684,-0.487805,8.292683,17.043751,-37.712502,1.362500,0.0,1.000000,0.000000,0.000000,0.000000
1782117317.869327,1817289,0.889160,-0.135254,-0.420898,-12.439025,-2.012195,7.560976,17.000000,-37.743752,1.493750,0.0,1.000000,0.000000,0.000000,0.000000
1782117317.879327,1817299,0.883789,-0.118652,-0.432129,-11.341464,-3.048780,6.585366,17.000000,-37.743752,1.493750,0.0,1.000000,0.000000,0.000000,0.000000
1782117317.893327,1817313,0.872070,-0.112793,-0.436523,-9.817074,-2.926829,4.939024,16.962500,-37.818752,1.581250,0.0,1.000000,0.000000,0.000000,0.000000
1782117317.899327,1817319,0.858887,-0.116211,-0.433105,-7.743903,-2.987805,3.109756,16.962500,-37.818752,1.581250,0.0,1.000000,0.000000,0.000000,0.000000
1782117317.909327,1817329,0.859375,-0.112793,-0.427246,-5.426829,-3.963415,0.914634,16.868750,-37.825001,1.587500,0.0,1.000000,0.000000,0.000000,0.000000
1782117317.919327,1817339,0.871582,-0.116211,-0.418457,-3.780488,-4.390244,-2.012195,16.868750,-37.825001,1.587500,0.0,1.000000,0.000000,0.000000,0.000000
1782117317.931327,1817351,0.887695,-0.132812,-0.422852,-2.439024,-3.902439,-4.817073,16.881250,-37.850002,1.587500,0.0,1.000000,0.000000,0.000000,0.000000
1782117317.939327,1817359,0.899902,-0.153320,-0.437988,0.182927,-3.536585,-6.829268,16.881250,-37.850002,1.587500,0.0,1.000000,0.000000,0.000000,0.000000
1782117317.950327,1817370,0.911133,-0.154785,-0.443848,3.353659,-3.841464,-7.560976,17.087500,-37.493752,1.343750,0.0,1.000000,0.000000,0.000000,0.000000
1782117317.960327,1817380,0.915039,-0.151367,-0.444336,5.121951,-4.573171,-7.317073,17.087500,-37.493752,1.343750,0.0,1.000000,0.000000,0.000000,0.000000
1782117317.969327,1817389,0.917480,-0.143066,-0.435059,6.341464,-5.000000,-6.585366,17.118750,-37.487499,1.275000,0.0,1.000000,0.000000,0.000000,0.000000
1782117317.980327,1817400,0.905762,-0.120117,-0.419434,6.890244,-5.243903,-6.097561,17.118750,-37.487499,1.275000,0.0,1.000000,0.000000,0.000000,0.000000
1782117317.990327,1817410,0.888672,-0.096680,-0.409180,5.609756,-6.280488,-6.036585,17.050001,-37.662502,1.212500,0.0,1.000000,0.000000,0.000000,0.000000
1782117317.999327,1817419,0.877930,-0.077148,-0.413086,2.621951,-7.682927,-6.341464,17.050001,-37.662502,1.212500,0.0,1.000000,0.000000,0.000000,0.000000
1782117318.010327,1817430,0.872559,-0.059570,-0.427246,-1.402439,-9.451220,-7.256098,16.981251,-37.637501,1.137500,0.0,1.000000,0.000000,0.000000,0.000000
1782117318.019327,1817439,0.887207,-0.055176,-0.436523,-4.695122,-11.219512,-8.292683,16.981251,-37.637501,1.137500,0.0,1.000000,0.000000,0.000000,0.000000
1782117318.029327,1817449,0.919922,-0.059570,-0.431641,-6.036585,-12.195122,-9.024390,17.000000,-37.462502,0.881250,0.0,1.000000,0.000000,0.000000,0.000000
1782117318.039327,1817459,0.956055,-0.063477,-0.414551,-6.280488,-11.036586,-9.024390,17.000000,-37.462502,0.881250,0.0,1.000000,0.000000,0.000000,0.000000
1782117318.049327,1817469,0.977051,-0.057129,-0.394531,-6.524390,-7.804878,-8.109756,16.906250,-37.537502,0.837500,0.0,1.000000,0.000000,0.000000,0.000000
1782117318.059327,1817479,0.974121,-0.050781,-0.371582,-7.317073,-4.268293,-6.646342,16.906250,-37.537502,0.837500,0.0,1.000000,0.000000,0.000000,0.000000
1782117318.069327,1817489,0.976074,-0.048828,-0.356934,-8.353659,-1.951220,-5.304878,17.062500,-37.268749,0.725000,0.0,1.000000,0.000000,0.000000,0.000000
1782117318.079327,1817499,0.982422,-0.040527,-0.347656,-9.939025,-0.121951,-3.841464,17.062500,-37.268749,0.725000,0.0,1.000000,0.000000,0.000000,0.000000
1782117318.089327,1817509,0.973145,-0.026367,-0.350098,-12.682927,2.378049,-2.012195,16.956251,-37.325001,0.850000,0.0,1.000000,0.000000,0.000000,0.000000
1782117318.099327,1817519,0.941406,-0.014648,-0.368164,-16.341463,4.390244,-0.365854,16.956251,-37.325001,0.850000,0.0,1.000000,0.000000,0.000000,0.000000
1782117318.109327,1817529,0.918457,-0.036133,-0.400879,-18.048780,3.780488,-0.121951,16.937500,-37.287502,1.018750,0.0,1.000000,0.000000,0.000000,0.000000
1782117318.119327,1817539,0.920898,-0.058594,-0.416504,-16.829269,2.500000,-0.243902,16.937500,-37.287502,1.018750,0.0,1.000000,0.000000,0.000000,0.000000
1782117318.129327,1817549,0.922363,-0.077148,-0.418457,-16.219513,3.048780,0.121951,16.875000,-37.325001,1.137500,0.0,1.000000,0.000000,0.000000,0.000000
1782117318.141327,1817561,0.909668,-0.087891,-0.419434,-17.073172,4.451220,0.182927,16.875000,-37.325001,1.137500,0.0,1.000000,0.000000,0.000000,0.000000
1782117318.149327,1817569,0.889160,-0.092285,-0.421875,-18.536585,5.487805,-0.304878,16.881250,-37.225002,1.331250,0.0,1.000000,0.000000,0.000000,0.000000
1782117318.159327,1817579,0.869629,-0.098633,-0.431641,-19.512196,5.792683,-1.402439,16.881250,-37.225002,1.331250,0.0,1.000000,0.000000,0.000000,0.000000
1782117318.170327,1817590,0.864258,-0.096191,-0.439453,-18.963415,5.487805,-3.109756,16.881250,-37.150002,1.525000,0.0,1.000000,0.000000,0.000000,0.000000
1782117318.179327,1817599,0.870117,-0.087891,-0.445801,-16.219513,5.304878,-4.878049,16.881250,-37.150002,1.525000,0.0,1.000000,0.000000,0.000000,0.000000
1782117318.189327,1817609,0.871582,-0.098633,-0.463379,-12.317074,5.243903,-6.341464,16.931250,-37.018749,1.718750,0.0,1.000000,0.000000,0.000000,0.000000
1782117318.200327,1817620,0.877441,-0.086426,-0.463379,-8.109756,5.426829,-7.560976,16.931250,-37.018749,1.718750,0.0,1.000000,0.000000,0.000000,0.000000
1782117318.209327,1817629,0.886719,-0.080566,-0.465820,-3.780488,5.548780,-8.658537,16.981251,-36.825001,1.756250,0.0,1.000000,0.000000,0.000000,0.000000
1782117318.219327,1817639,0.898438,-0.065918,-0.448242,-1.158537,5.182927,-9.024390,16.981251,-36.825001,1.756250,0.0,1.000000,0.000000,0.000000,0.000000
1782117318.230327,1817650,0.909668,-0.061035,-0.435547,1.463415,4.573171,-8.841464,16.968750,-36.806252,1.793750,0.0,1.000000,0.000000,0.000000,0.000000
1782117318.239327,1817659,0.923828,-0.052734,-0.417969,2.926829,4.329268,-8.170732,16.968750,-36.806252,1.793750,0.0,1.000000,0.000000,0.000000,0.000000
1782117318.250327,1817670,0.943848,-0.028809,-0.406250,4.024390,6.097561,-7.743903,16.956251,-36.806252,1.868750,0.0,1.000000,0.000000,0.000000,0.000000
1782117318.259327,1817679,0.945312,-0.000977,-0.394043,3.719512,9.390244,-7.682927,16.956251,-36.806252,1.868750,0.0,1.000000,0.000000,0.000000,0.000000
1782117318.269327,1817689,0.931152,0.031738,-0.382324,2.256098,11.829268,-7.743903,16.968750,-36.662502,1.931250,0.0,1.000000,0.000000,0.000000,0.000000
1782117318.279327,1817699,0.938477,0.048828,-0.380859,0.121951,12.256098,-7.804878,16.968750,-36.662502,1.931250,0.0,1.000000,0.000000,0.000000,0.000000
1782117318.289327,1817709,0.959473,0.045898,-0.384277,-1.280488,14.024390,-8.353659,17.012501,-36.562500,2.206250,0.0,1.000000,0.000000,0.000000,0.000000
1782117318.299327,1817719,0.961426,0.030273,-0.377441,-1.036585,17.500000,-8.780488,17.012501,-36.562500,2.206250,0.0,1.000000,0.000000,0.000000,0.000000
1782117318.309327,1817729,0.959473,0.026855,-0.364746,0.304878,19.268293,-8.963415,17.100000,-36.406250,2.406250,0.0,1.000000,0.000000,0.000000,0.000000
1782117318.319327,1817739,0.964844,0.042480,-0.364746,1.829268,20.487804,-8.719512,17.100000,-36.406250,2.406250,0.0,1.000000,0.000000,0.000000,0.000000
1782117318.329327,1817749,0.957031,0.066406,-0.357422,3.353659,22.865854,-8.475610,17.187500,-36.275002,2.612500,0.0,1.000000,0.000000,0.000000,0.000000
1782117318.339327,1817759,0.937988,0.064941,-0.354980,4.024390,25.182928,-8.475610,17.187500,-36.275002,2.612500,0.0,1.000000,0.000000,0.000000,0.000000
1782117318.350327,1817770,0.937012,0.049316,-0.361328,3.048780,27.134148,-7.926829,17.256250,-36.187500,3.031250,0.0,1.000000,0.000000,0.000000,0.000000
1782117318.359327,1817779,0.950684,0.033203,-0.387207,2.439024,29.268293,-6.646342,17.256250,-36.187500,3.031250,0.0,1.000000,0.000000,0.000000,0.000000
1782117318.369327,1817789,0.961914,0.020996,-0.404297,1.463415,32.195122,-5.243903,17.287500,-36.150002,3.437500,0.0,1.000000,0.000000,0.000000,0.000000
1782117318.380327,1817800,0.963379,0.019531,-0.406250,-0.182927,36.768295,-4.268293,17.287500,-36.150002,3.437500,0.0,1.000000,0.000000,0.000000,0.000000
1782117318.390327,1817810,0.938965,0.024414,-0.434082,-1.890244,39.573174,-2.804878,17.375000,-36.018749,3.887500,0.0,1.000000,0.000000,0.000000,0.000000
1782117318.399327,1817819,0.903320,0.057129,-0.459473,-3.658537,38.841465,-0.853659,17.375000,-36.018749,3.887500,0.0,1.000000,0.000000,0.000000,0.000000
1782117318.410327,1817830,0.854004,0.082031,-0.487793,-5.060976,36.707317,-0.060976,17.350000,-35.968750,4.412500,0.0,1.000000,0.000000,0.000000,0.000000
1782117318.420327,1817840,0.804199,0.075684,-0.507324,-6.707317,30.548780,-0.365854,17.350000,-35.968750,4.412500,0.0,1.000000,0.000000,0.000000,0.000000
1782117318.429327,1817849,0.783203,0.044434,-0.519043,-8.658537,20.365854,-0.792683,17.362501,-35.906250,4.906250,0.0,1.000000,0.000000,0.000000,0.000000
1782117318.439327,1817859,0.792969,0.015137,-0.521484,-11.036586,11.097561,-0.243902,17.362501,-35.906250,4.906250,0.0,1.000000,0.000000,0.000000,0.000000
1782117318.449327,1817869,0.809082,-0.002441,-0.520020,-12.682927,5.792683,-0.182927,17.306250,-35.887501,5.156250,0.0,1.000000,0.000000,0.000000,0.000000
1782117318.459327,1817879,0.827637,-0.013672,-0.516113,-12.073171,2.195122,-1.951220,17.306250,-35.887501,5.156250,0.0,1.000000,0.000000,0.000000,0.000000
1782117318.469327,1817889,0.850098,-0.019043,-0.504395,-7.439024,-0.670732,-5.000000,17.300001,-35.856251,5.206250,0.0,1.000000,0.000000,0.000000,0.000000
1782117318.479327,1817899,0.866211,-0.030762,-0.490723,-0.182927,-4.207317,-8.475610,17.300001,-35.856251,5.206250,0.0,1.000000,0.000000,0.000000,0.000000
1782117318.489327,1817909,0.889648,-0.037109,-0.458008,8.597561,-8.231708,-11.829268,17.306250,-35.893749,5.100000,0.0,1.000000,0.000000,0.000000,0.000000
1782117318.499327,1817919,0.917969,-0.048828,-0.406250,16.951220,-11.524390,-14.756098,17.306250,-35.893749,5.100000,0.0,1.000000,0.000000,0.000000,0.000000
1782117318.509327,1817929,0.958496,-0.057617,-0.350586,24.207317,-14.146341,-16.219513,17.437500,-35.775002,4.762500,0.0,1.000000,0.000000,0.000000,0.000000
1782117318.519327,1817939,1.002441,-0.044922,-0.291504,28.475611,-15.304878,-15.792684,17.437500,-35.775002,4.762500,0.0,1.000000,0.000000,0.000000,0.000000
1782117318.529327,1817949,1.035645,-0.016602,-0.235840,28.475611,-15.121951,-14.207317,17.525000,-35.731251,4.350000,0.0,1.000000,0.000000,0.000000,0.000000
1782117318.539327,1817959,1.048340,0.020508,-0.187012,25.000000,-13.536586,-12.621951,17.525000,-35.731251,4.350000,0.0,1.000000,0.000000,0.000000,0.000000
1782117318.549327,1817969,1.042969,0.042969,-0.152832,20.853659,-11.768293,-11.951220,17.593750,-35.543751,3.868750,0.0,1.000000,0.000000,0.000000,0.000000
1782117318.559327,1817979,1.034180,0.046875,-0.130859,17.439024,-10.304878,-11.707317,17.593750,-35.543751,3.868750,0.0,1.000000,0.000000,0.000000,0.000000
1782117318.569327,1817989,1.019531,0.038086,-0.121582,15.060976,-9.024390,-11.341464,17.631250,-35.568752,3.737500,0.0,1.000000,0.000000,0.000000,0.000000
1782117318.580327,1818000,1.019531,0.020508,-0.106445,13.231708,-8.170732,-9.939025,17.631250,-35.568752,3.737500,0.0,1.000000,0.000000,0.000000,0.000000
1782117318.589327,1818009,1.022461,-0.042969,-0.076660,13.231708,-3.231707,-5.243903,17.818750,-35.200001,3.250000,0.0,1.000000,0.000000,0.000000,0.000000
1782117318.599327,1818019,0.994629,-0.072754,-0.111816,14.756098,0.914634,-2.500000,17.818750,-35.200001,3.250000,0.0,1.000000,0.000000,0.000000,0.000000
1782117318.609327,1818029,0.928223,-0.079102,-0.167480,16.707317,5.731708,0.670732,17.787500,-35.287502,3.143750,0.0,1.000000,0.000000,0.000000,0.000000
1782117318.620327,1818040,0.845215,-0.061523,-0.225098,18.353659,4.939024,3.048780,17.787500,-35.287502,3.143750,0.0,1.000000,0.000000,0.000000,0.000000
1782117318.629327,1818049,0.776367,-0.021484,-0.292480,18.231709,0.548781,4.268293,17.731251,-35.275002,3.006250,0.0,1.000000,0.000000,0.000000,0.000000
1782117318.639327,1818059,0.738281,0.044922,-0.360840,15.731708,-6.646342,4.451220,17.731251,-35.275002,3.006250,0.0,1.000000,0.000000,0.000000,0.000000
1782117318.649327,1818069,0.737793,0.114258,-0.396973,10.426829,-15.000000,2.865854,17.575001,-35.412502,2.900000,0.0,1.000000,0.000000,0.000000,0.000000
1782117318.660327,1818080,0.781250,0.153809,-0.419922,4.451220,-21.951220,0.548781,17.575001,-35.412502,2.900000,0.0,1.000000,0.000000,0.000000,0.000000
1782117318.669327,1818089,0.837402,0.163574,-0.420410,-1.158537,-24.207317,-1.646341,17.650000,-35.293751,2.475000,0.0,1.000000,0.000000,0.000000,0.000000
1782117318.679327,1818099,0.879883,0.158203,-0.405273,-6.158537,-24.390244,-2.987805,17.650000,-35.293751,2.475000,0.0,1.000000,0.000000,0.000000,0.000000
1782117318.689327,1818109,0.922363,0.147949,-0.382812,-10.304878,-25.000000,-3.475610,17.668751,-35.343750,2.325000,0.0,1.000000,0.000000,0.000000,0.000000
1782117318.700327,1818120,0.971191,0.151367,-0.346680,-14.146341,-24.390244,-2.621951,17.668751,-35.343750,2.325000,0.0,1.000000,0.000000,0.000000,0.000000
1782117318.709327,1818129,1.032715,0.146973,-0.306152,-17.439024,-23.841463,-1.829268,17.718750,-35.306252,2.037500,0.0,1.000000,0.000000,0.000000,0.000000
1782117318.719327,1818139,1.104004,0.105469,-0.274902,-18.170732,-20.975611,-1.829268,17.718750,-35.306252,2.037500,0.0,1.000000,0.000000,0.000000,0.000000
1782117318.729327,1818149,1.141113,0.051758,-0.265625,-14.329268,-13.658537,-1.524390,17.668751,-35.443752,2.025000,0.0,1.000000,0.000000,0.000000,0.000000
1782117318.739327,1818159,1.120117,0.014160,-0.281250,-8.597561,-5.304878,0.121951,17.668751,-35.443752,2.025000,0.0,1.000000,0.000000,0.000000,0.000000
1782117318.749327,1818169,1.050781,0.015137,-0.310059,-4.146341,-1.158537,2.195122,17.731251,-35.400002,1.987500,0.0,1.000000,0.000000,0.000000,0.000000
1782117318.759327,1818179,0.974609,0.027832,-0.353516,-3.231707,-2.195122,3.475610,17.731251,-35.400002,1.987500,0.0,1.000000,0.000000,0.000000,0.000000
1782117318.769327,1818189,0.912598,0.036621,-0.405273,-5.853659,-5.975610,3.719512,17.718750,-35.549999,2.062500,0.0,1.000000,0.000000,0.000000,0.000000
1782117318.779327,1818199,0.881836,0.030273,-0.455566,-9.146341,-10.914635,2.987805,17.718750,-35.549999,2.062500,0.0,1.000000,0.000000,0.000000,0.000000
1782117318.790327,1818210,0.880371,0.009277,-0.491699,-10.000000,-13.719513,1.524390,17.850000,-35.375000,1.956250,0.0,1.000000,0.000000,0.000000,0.000000
1782117318.800327,1818220,0.900879,-0.033203,-0.503906,-8.597561,-14.390244,0.487805,17.850000,-35.375000,1.956250,0.0,1.000000,0.000000,0.000000,0.000000
1782117318.809327,1818229,0.924316,-0.071289,-0.493652,-5.243903,-11.707317,-0.121951,17.831251,-35.456249,1.950000,0.0,1.000000,0.000000,0.000000,0.000000
1782117318.820327,1818240,0.920898,-0.087402,-0.470703,-2.012195,-8.536586,0.731707,17.831251,-35.456249,1.950000,0.0,1.000000,0.000000,0.000000,0.000000
1782117318.830327,1818250,0.921387,-0.063477,-0.447754,-0.975610,-7.012195,2.439024,17.987501,-35.212502,1.700000,0.0,1.000000,0.000000,0.000000,0.000000
1782117318.839327,1818259,0.921387,-0.013672,-0.431641,-4.085366,-5.060976,4.878049,17.987501,-35.212502,1.700000,0.0,1.000000,0.000000,0.000000,0.000000
1782117318.849327,1818269,0.904785,0.054688,-0.420410,-9.939025,-2.987805,6.158537,17.850000,-35.418751,1.750000,0.0,1.000000,0.000000,0.000000,0.000000
1782117318.860327,1818280,0.897949,0.115234,-0.407715,-17.621952,-3.292683,8.719512,17.850000,-35.418751,1.750000,0.0,1.000000,0.000000,0.000000,0.000000
1782117318.869327,1818289,0.896973,0.172852,-0.379883,-25.121952,-3.963415,10.975610,17.706251,-35.500000,1.762500,0.0,1.000000,0.000000,0.000000,0.000000
1782117318.879327,1818299,0.891113,0.204102,-0.357422,-32.378048,-5.914634,12.256098,17.706251,-35.500000,1.762500,0.0,1.000000,0.000000,0.000000,0.000000
1782117318.889327,1818309,0.896484,0.211914,-0.339355,-38.902439,-8.048780,13.048780,17.525000,-35.687500,1.893750,0.0,1.000000,0.000000,0.000000,0.000000
1782117318.899327,1818319,0.911621,0.196777,-0.335938,-43.902439,-9.207317,13.231708,17.525000,-35.687500,1.893750,0.0,1.000000,0.000000,0.000000,0.000000
1782117318.909327,1818329,0.925293,0.168457,-0.343750,-47.256100,-9.451220,13.536586,17.362501,-35.843750,2.081250,0.0,1.000000,0.000000,0.000000,0.000000
1782117318.919327,1818339,0.926270,0.123047,-0.363770,-48.658539,-8.841464,13.353659,17.362501,-35.843750,2.081250,0.0,1.000000,0.000000,0.000000,0.000000
1782117318.929327,1818349,0.917969,0.048828,-0.396973,-47.621952,-8.780488,13.048780,17.168751,-35.956249,2.318750,0.0,1.000000,0.000000,0.000000,0.000000
1782117318.939327,1818359,0.912109,-0.016602,-0.423828,-44.573174,-9.024390,12.439025,17.168751,-35.956249,2.318750,0.0,1.000000,0.000000,0.000000,0.000000
1782117318.949327,1818369,0.914551,-0.073242,-0.444336,-40.243904,-8.475610,11.341464,17.137501,-36.087502,2.612500,0.0,1.000000,0.000000,0.000000,0.000000
1782117318.959327,1818379,0.919434,-0.119141,-0.456055,-34.085365,-6.951220,9.817074,17.137501,-36.087502,2.612500,0.0,1.000000,0.000000,0.000000,0.000000
1782117318.969327,1818389,0.919922,-0.145020,-0.458496,-26.585367,-5.304878,7.804878,17.143751,-36.168751,2.831250,0.0,1.000000,0.000000,0.000000,0.000000
1782117318.980327,1818400,0.941406,-0.159180,-0.458496,-18.719513,-3.231707,7.256098,17.012501,-36.231251,2.950000,0.0,1.000000,0.000000,0.000000,0.000000
1782117318.989327,1818409,0.901367,-0.135254,-0.458984,-10.731708,0.121951,4.085366,17.012501,-36.231251,2.950000,0.0,1.000000,0.000000,0.000000,0.000000
1782117318.999327,1818419,0.888672,-0.110352,-0.461914,-4.146341,0.121951,1.646341,17.056250,-36.237499,2.987500,0.0,1.000000,0.000000,0.000000,0.000000
1782117319.009327,1818429,0.902832,-0.064941,-0.462402,1.158537,-0.182927,0.243902,17.056250,-36.237499,2.987500,0.0,1.000000,0.000000,0.000000,0.000000
1782117319.021327,1818441,0.904785,-0.008789,-0.454590,3.414634,-0.365854,0.426829,17.025000,-36.275002,2.943750,0.0,1.000000,0.000000,0.000000,0.000000
1782117319.029327,1818449,0.895996,0.041504,-0.446777,4.207317,-0.731707,0.792683,17.025000,-36.275002,2.943750,0.0,1.000000,0.000000,0.000000,0.000000
1782117319.040327,1818460,0.898926,0.074707,-0.434570,3.475610,-2.804878,1.219512,17.037500,-36.262501,2.837500,0.0,1.000000,0.000000,0.000000,0.000000
1782117319.050327,1818470,0.908203,0.091309,-0.427734,1.890244,-4.268293,2.195122,17.037500,-36.262501,2.837500,0.0,1.000000,0.000000,0.000000,0.000000
1782117319.062327,1818482,0.914551,0.099121,-0.419922,-0.365854,-4.878049,3.170732,17.056250,-36.125000,2.700000,0.0,1.000000,0.000000,0.000000,0.000000
1782117319.069327,1818489,0.909668,0.098633,-0.413086,-2.682927,-4.634146,3.841464,17.056250,-36.125000,2.700000,0.0,1.000000,0.000000,0.000000,0.000000
