Unix_Time_s,IMU1_RefTime,ax_g,ay_g,az_g,gx_dps,gy_dps,gz_dps,mx_uT,my_uT,mz_uT,temp_C,qw,qx,qy,qz
1782117313.129327,1816490,-0.973145,0.037598,-0.256348,0.975610,0.060976,0.670732,-4.075000,39.681252,-1.418750,0.0,1.000000,0.000000,0.000000,0.000000
1782117313.139327,1816500,-0.970215,0.038086,-0.253906,0.792683,-0.060976,0.548781,-4.075000,39.681252,-1.418750,0.0,1.000000,0.000000,0.000000,0.000000
1782117313.152327,1816513,-0.968262,0.036621,-0.251953,0.609756,0.000000,0.548781,-4.200000,39.631252,-1.456250,0.0,1.000000,0.000000,0.000000,0.000000
1782117313.159327,1816520,-0.967285,0.035645,-0.250488,0.609756,0.182927,0.609756,-4.200000,39.631252,-1.456250,0.0,1.000000,0.000000,0.000000,0.000000
1782117313.170327,1816531,-0.969727,0.036133,-0.253418,0.548781,0.304878,0.609756,-4.062500,39.743752,-1.418750,0.0,1.000000,0.000000,0.000000,0.000000
1782117313.180327,1816541,-0.969727,0.034668,-0.254883,0.365854,0.304878,0.670732,-4.062500,39.743752,-1.418750,0.0,1.000000,0.000000,0.000000,0.000000
1782117313.192327,1816553,-0.970215,0.034180,-0.254883,0.426829,0.304878,0.731707,-4.181250,39.606251,-1.487500,0.0,1.000000,0.000000,0.000000,0.000000
1782117313.199327,1816560,-0.971191,0.031738,-0.258301,0.487805,0.243902,0.731707,-4.181250,39.606251,-1.487500,0.0,1.000000,0.000000,0.000000,0.000000
1782117313.209327,1816570,-0.970703,0.034180,-0.260254,0.548781,0.304878,0.670732,-4.112500,39.668751,-1.418750,0.0,1.000000,0.000000,0.000000,0.000000
1782117313.219327,1816580,-0.970703,0.034180,-0.260254,0.548781,0.304878,0.670732,-4.112500,39.668751,-1.418750,0.0,1.000000,0.000000,0.000000,0.000000
1782117313.232327,1816593,-0.969238,0.037598,-0.253906,0.548781,0.304878,0.609756,-4.187500,39.587502,-1.431250,0.0,1.000000,0.000000,0.000000,0.000000
1782117313.239327,1816600,-0.969238,0.037598,-0.253906,0.548781,0.304878,0.609756,-3.912500,39.881252,-1.368750,0.0,1.000000,0.000000,0.000000,0.000000
1782117313.249327,1816610,-0.968262,0.034180,-0.252441,0.426829,0.487805,0.609756,-3.912500,39.881252,-1.368750,0.0,1.000000,0.000000,0.000000,0.000000
1782117313.259327,1816620,-0.968750,0.031250,-0.254883,0.182927,0.731707,0.548781,-4.187500,39.656250,-1.425000,0.0,1.000000,0.000000,0.000000,0.000000
1782117313.269327,1816630,-0.972168,0.030273,-0.256348,0.000000,0.975610,0.609756,-4.187500,39.656250,-1.425000,0.0,1.000000,0.000000,0.000000,0.000000
1782117313.279327,1816640,-0.972168,0.027832,-0.255371,-0.121951,0.975610,0.548781,-4.100000,39.674999,-1.443750,0.0,1.000000,0.000000,0.000000,0.000000
1782117313.289327,1816650,-0.971191,0.027344,-0.255371,-0.182927,0.975610,0.426829,-4.100000,39.674999,-1.443750,0.0,1.000000,0.000000,0.000000,0.000000
1782117313.299327,1816660,-0.972168,0.028320,-0.254395,-0.121951,0.914634,0.426829,-4.100000,39.693752,-1.481250,0.0,1.000000,0.000000,0.000000,0.000000
1782117313.309327,1816670,-0.970703,0.029785,-0.250488,0.000000,0.731707,0.487805,-4.100000,39.693752,-1.481250,0.0,1.000000,0.000000,0.000000,0.000000
1782117313.319327,1816680,-0.970703,0.028320,-0.251465,0.365854,0.670732,0.609756,-4.075000,39.737499,-1.506250,0.0,1.000000,0.000000,0.000000,0.000000
1782117313.330327,1816691,-0.973145,0.027832,-0.253906,0.731707,0.670732,0.853659,-4.075000,39.737499,-1.506250,0.0,1.000000,0.000000,0.000000,0.000000
1782117313.339327,1816700,-0.973145,0.027344,-0.256836,1.280488,0.487805,0.975610,-4.081250,39.743752,-1.512500,0.0,1.000000,0.000000,0.000000,0.000000
1782117313.350327,1816711,-0.973633,0.026367,-0.260742,1.646341,0.243902,0.975610,-4.081250,39.743752,-1.512500,0.0,1.000000,0.000000,0.000000,0.000000
1782117313.359327,1816720,-0.972168,0.026855,-0.262207,2.012195,0.060976,0.914634,-4.075000,39.768749,-1.500000,0.0,1.000000,0.000000,0.000000,0.000000
1782117313.369327,1816730,-0.971191,0.026855,-0.261230,2.317073,-0.060976,0.792683,-4.075000,39.768749,-1.500000,0.0,1.000000,0.000000,0.000000,0.000000
1782117313.379327,1816740,-0.969238,0.030762,-0.258789,2.378049,-0.243902,0.731707,-4.062500,39.737499,-1.456250,0.0,1.000000,0.000000,0.000000,0.000000
1782117313.390327,1816751,-0.965820,0.033691,-0.258301,2.256098,-0.060976,0.670732,-4.062500,39.737499,-1.456250,0.0,1.000000,0.000000,0.000000,0.000000
1782117313.399327,1816760,-0.965332,0.035156,-0.258789,2.195122,0.304878,0.731707,-4.087500,39.750000,-1.443750,0.0,1.000000,0.000000,0.000000,0.000000
1782117313.410327,1816771,-0.966309,0.035156,-0.260742,1.951220,0.426829,0.792683,-4.087500,39.750000,-1.443750,0.0,1.000000,0.000000,0.000000,0.000000
1782117313.419327,1816780,-0.969238,0.035156,-0.260742,1.585366,0.609756,0.914634,-3.975000,39.831249,-1.462500,0.0,1.000000,0.000000,0.000000,0.000000
1782117313.430327,1816791,-0.969238,0.032715,-0.262695,1.158537,0.487805,0.975610,-3.975000,39.831249,-1.462500,0.0,1.000000,0.000000,0.000000,0.000000
1782117313.439327,1816800,-0.970215,0.033203,-0.264160,0.975610,0.426829,0.792683,-4.100000,39.681252,-1.500000,0.0,1.000000,0.000000,0.000000,0.000000
1782117313.449327,1816810,-0.970703,0.034668,-0.262695,1.158537,0.243902,0.731707,-4.100000,39.681252,-1.500000,0.0,1.000000,0.000000,0.000000,0.000000
1782117313.459327,1816820,-0.968750,0.036621,-0.260742,1.341463,0.243902,0.792683,-4.125000,39.706249,-1.531250,0.0,1.000000,0.000000,0.000000,0.000000
1782117313.469327,1816830,-0.969727,0.035156,-0.259766,1.646341,0.243902,0.792683,-4.125000,39.706249,-1.531250,0.0,1.000000,0.000000,0.000000,0.000000
1782117313.480327,1816841,-0.972656,0.035156,-0.256348,1.646341,0.365854,0.792683,-4.056250,39.756252,-1.512500,0.0,1.000000,0.000000,0.000000,0.000000
1782117313.489327,1816850,-0.971191,0.033203,-0.252930,1.707317,0.182927,0.792683,-4.056250,39.756252,-1.512500,0.0,1.000000,0.000000,0.000000,0.000000
1782117313.499327,1816860,-0.969727,0.030762,-0.252930,1.707317,0.182927,0.731707,-4.087500,39.693752,-1.500000,0.0,1.000000,0.000000,0.000000,0.000000
1782117313.509327,1816870,-0.969238,0.031250,-0.256348,1.524390,0.243902,0.731707,-4.087500,39.693752,-1.500000,0.0,1.000000,0.000000,0.000000,0.000000
1782117313.519327,1816880,-0.970215,0.031738,-0.257812,1.280488,0.243902,0.792683,-4.131250,39.593750,-1.531250,0.0,1.000000,0.000000,0.000000,0.000000
1782117313.529327,1816890,-0.970703,0.033203,-0.257812,1.158537,0.182927,0.792683,-4.043750,39.737499,-1.518750,0.0,1.000000,0.000000,0.000000,0.000000
1782117313.539327,1816900,-0.972168,0.035156,-0.260254,1.158537,0.060976,0.853659,-4.043750,39.737499,-1.518750,0.0,1.000000,0.000000,0.000000,0.000000
1782117313.550327,1816911,-0.974121,0.036133,-0.260742,1.341463,-0.121951,0.792683,-4.112500,39.731251,-1.437500,0.0,1.000000,0.000000,0.000000,0.000000
1782117313.560327,1816921,-0.974609,0.036621,-0.259766,1.463415,-0.304878,0.731707,-4.112500,39.731251,-1.437500,0.0,1.000000,0.000000,0.000000,0.000000
1782117313.570327,1816931,-0.970703,0.036133,-0.256348,1.524390,-0.426829,0.731707,-4.050000,39.731251,-1.512500,0.0,1.000000,0.000000,0.000000,0.000000
1782117313.579327,1816940,-0.965332,0.035645,-0.254883,1.585366,-0.365854,0.609756,-4.050000,39.731251,-1.512500,0.0,1.000000,0.000000,0.000000,0.000000
1782117313.589327,1816950,-0.965332,0.032715,-0.256348,1.463415,-0.060976,0.670732,-4.112500,39.706249,-1.450000,0.0,1.000000,0.000000,0.000000,0.000000
1782117313.599327,1816960,-0.967285,0.032715,-0.256348,1.341463,0.243902,0.792683,-4.112500,39.706249,-1.450000,0.0,1.000000,0.000000,0.000000,0.000000
1782117313.609327,1816970,-0.967773,0.030762,-0.259766,1.097561,0.304878,0.792683,-3.943750,39.893749,-1.481250,0.0,1.000000,0.000000,0.000000,0.000000
1782117313.619327,1816980,-0.969238,0.031250,-0.261719,0.975610,0.487805,0.792683,-3.943750,39.893749,-1.481250,0.0,1.000000,0.000000,0.000000,0.000000
1782117313.629327,1816990,-0.971680,0.031250,-0.263672,1.036585,0.548781,0.792683,-3.925000,39.843750,-1.512500,0.0,1.000000,0.000000,0.000000,0.000000
1782117313.641327,1817002,-0.972656,0.032227,-0.263184,1.158537,0.304878,0.731707,-3.925000,39.843750,-1.512500,0.0,1.000000,0.000000,0.000000,0.000000
1782117313.649327,1817010,-0.973633,0.034180,-0.260254,1.280488,0.060976,0.670732,-3.900000,39.837502,-1.425000,0.0,1.000000,0.000000,0.000000,0.000000
1782117313.659327,1817020,-0.971191,0.035156,-0.257324,1.280488,-0.304878,0.609756,-3.900000,39.837502,-1.425000,0.0,1.000000,0.000000,0.000000,0.000000
1782117313.669327,1817030,-0.968750,0.036621,-0.255371,1.219512,-0.365854,0.609756,-4.006250,39.762501,-1.475000,0.0,1.000000,0.000000,0.000000,0.000000
1782117313.679327,1817040,-0.967285,0.035645,-0.256348,1.158537,-0.182927,0.609756,-4.006250,39.762501,-1.475000,0.0,1.000000,0.000000,0.000000,0.000000
1782117313.689327,1817050,-0.967773,0.033691,-0.257812,0.853659,0.000000,0.548781,-4.000000,39.806252,-1.462500,0.0,1.000000,0.000000,0.000000,0.000000
1782117313.699327,1817060,-0.970215,0.034668,-0.259766,0.365854,0.182927,0.548781,-4.000000,39.806252,-1.462500,0.0,1.000000,0.000000,0.000000,0.000000
1782117313.709327,1817070,-0.970215,0.032715,-0.260254,0.060976,0.304878,0.548781,-4.087500,39.637501,-1.462500,0.0,1.000000,0.000000,0.000000,0.000000
1782117313.719327,1817080,-0.972656,0.032227,-0.259766,-0.121951,0.304878,0.548781,-4.087500,39.637501,-1.462500,0.0,1.000000,0.000000,0.000000,0.000000
1782117313.729327,1817090,-0.974609,0.031738,-0.261230,-0.243902,0.060976,0.487805,-4.075000,39.743752,-1.531250,0.0,1.000000,0.000000,0.000000,0.000000
1782117313.739327,1817100,-0.973145,0.030762,-0.261719,-0.243902,-0.304878,0.487805,-4.075000,39.743752,-1.531250,0.0,1.000000,0.000000,0.000000,0.000000
1782117313.749327,1817110,-0.970703,0.032227,-0.260254,-0.243902,-0.426829,0.426829,-4.000000,39.793751,-1.468750,0.0,1.000000,0.000000,0.000000,0.000000
1782117313.760327,1817121,-0.967285,0.032227,-0.256836,0.000000,-0.487805,0.365854,-4.000000,39.793751,-1.468750,0.0,1.000000,0.000000,0.000000,0.000000
1782117313.769327,1817130,-0.965820,0.027832,-0.255371,0.060976,-0.243902,0.365854,-4.118750,39.687500,-1.537500,0.0,1.000000,0.000000,0.000000,0.000000
1782117313.780327,1817141,-0.966309,0.027344,-0.258301,-0.060976,0.121951,0.426829,-4.118750,39.687500,-1.537500,0.0,1.000000,0.000000,0.000000,0.000000
1782117313.789327,1817150,-0.966797,0.026367,-0.260742,-0.243902,0.304878,0.426829,-4.187500,39.612499,-1.493750,0.0,1.000000,0.000000,0.000000,0.000000
1782117313.800327,1817161,-0.968750,0.026855,-0.264648,-0.548781,0.426829,0.426829,-4.187500,39.612499,-1.493750,0.0,1.000000,0.000000,0.000000,0.000000
1782117313.809327,1817170,-0.970215,0.029297,-0.263184,-0.548781,0.426829,0.426829,-4.050000,39.725002,-1.475000,0.0,1.000000,0.000000,0.000000,0.000000
1782117313.819327,1817180,-0.970703,0.029785,-0.262695,-0.487805,0.243902,0.365854,-4.112500,39.643749,-1.481250,0.0,1.000000,0.000000,0.000000,0.000000
1782117313.829327,1817190,-0.970703,0.032715,-0.262207,-0.121951,0.060976,0.365854,-4.112500,39.643749,-1.481250,0.0,1.000000,0.000000,0.000000,0.000000
1782117313.840327,1817201,-0.969238,0.033203,-0.260742,0.182927,-0.060976,0.426829,-4.081250,39.731251,-1.512500,0.0,1.000000,0.000000,0.000000,0.000000
1782117313.849327,1817210,-0.971191,0.031250,-0.260254,0.365854,-0.121951,0.487805,-4.081250,39.731251,-1.512500,0.0,1.000000,0.000000,0.000000,0.000000
1782117313.859327,1817220,-0.967773,0.028809,-0.259766,0.243902,-0.182927,0.365854,-4.118750,39.687500,-1.525000,0.0,1.000000,0.000000,0.000000,0.000000
1782117313.870327,1817231,-0.966309,0.027832,-0.260742,-0.121951,0.060976,0.365854,-4.118750,39.687500,-1.525000,0.0,1.000000,0.000000,0.000000,0.000000
1782117313.879327,1817240,-0.967773,0.029297,-0.260254,-0.243902,0.182927,0.426829,-4.062500,39.812500,-1.487500,0.0,1.000000,0.000000,0.000000,0.000000
1782117313.889327,1817250,-0.968262,0.030762,-0.259766,-0.243902,0.182927,0.609756,-4.062500,39.812500,-1.487500,0.0,1.000000,0.000000,0.000000,0.000000
1782117313.899327,1817260,-0.968262,0.031250,-0.261230,-0.121951,0.365854,0.609756,-4.100000,39.737499,-1.537500,0.0,1.000000,0.000000,0.000000,0.000000
1782117313.909327,1817270,-0.970215,0.031250,-0.261719,0.060976,0.426829,0.670732,-4.100000,39.737499,-1.537500,0.0,1.000000,0.000000,0.000000,0.000000
1782117313.920327,1817281,-0.971680,0.031250,-0.261719,0.060976,0.426829,0.670732,-4.112500,39.743752,-1.543750,0.0,1.000000,0.000000,0.000000,0.000000
1782117313.929327,1817290,-0.973145,0.030762,-0.261719,0.000000,0.304878,0.548781,-4.112500,39.743752,-1.543750,0.0,1.000000,0.000000,0.000000,0.000000
1782117313.939327,1817300,-0.972168,0.031250,-0.259766,0.121951,0.060976,0.487805,-4.031250,39.725002,-1.568750,0.0,1.000000,0.000000,0.000000,0.000000
1782117313.949327,1817310,-0.970215,0.031250,-0.256348,0.182927,-0.060976,0.365854,-4.031250,39.725002,-1.568750,0.0,1.000000,0.000000,0.000000,0.000000
1782117313.959327,1817320,-0.969238,0.030273,-0.254883,0.365854,0.000000,0.426829,-4.168750,39.718750,-1.531250,0.0,1.000000,0.000000,0.000000,0.000000
1782117313.971327,1817332,-0.969238,0.030273,-0.254883,0.365854,0.000000,0.487805,-4.168750,39.718750,-1.531250,0.0,1.000000,0.000000,0.000000,0.000000
1782117313.979327,1817340,-0.968750,0.029785,-0.255859,0.243902,0.000000,0.487805,-4.093750,39.756252,-1.593750,0.0,1.000000,0.000000,0.000000,0.000000
1782117313.989327,1817350,-0.967285,0.031250,-0.257812,0.060976,0.060976,0.548781,-4.093750,39.756252,-1.593750,0.0,1.000000,0.000000,0.000000,0.000000
1782117313.999327,1817360,-0.969727,0.032227,-0.259766,0.121951,0.182927,0.609756,-4.112500,39.750000,-1.587500,0.0,1.000000,0.000000,0.000000,0.000000
1782117314.009327,1817370,-0.970215,0.033203,-0.263184,0.121951,0.121951,0.670732,-4.112500,39.750000,-1.587500,0.0,1.000000,0.000000,0.000000,0.000000
1782117314.019327,1817380,-0.969727,0.031738,-0.263672,0.365854,0.000000,0.609756,-4.181250,39.612499,-1.650000,0.0,1.000000,0.000000,0.000000,0.000000
1782117314.029327,1817390,-0.970703,0.030273,-0.262207,0.487805,0.060976,0.609756,-4.181250,39.612499,-1.650000,0.0,1.000000,0.000000,0.000000,0.000000
1782117314.039327,1817400,-0.970215,0.028320,-0.260254,0.670732,-0.121951,0.609756,-4.187500,39.656250,-1.550000,0.0,1.000000,0.000000,0.000000,0.000000
1782117314.049327,1817410,-0.970215,0.028320,-0.260254,0.670732,-0.121951,0.609756,-4.187500,39.656250,-1.550000,0.0,1.000000,0.000000,0.000000,0.000000
1782117314.059327,1817420,-0.968262,0.027832,-0.259277,0.914634,-0.304878,0.609756,-4.156250,39.712502,-1.600000,0.0,1.000000,0.000000,0.000000,0.000000
1782117314.069327,1817430,-0.966797,0.028320,-0.258301,0.975610,0.000000,0.548781,-4.156250,39.712502,-1.600000,0.0,1.000000,0.000000,0.000000,0.000000
1782117314.080327,1817441,-0.967773,0.030762,-0.258789,0.792683,0.182927,0.670732,-4.250000,39.606251,-1.593750,0.0,1.000000,0.000000,0.000000,0.000000
1782117314.089327,1817450,-0.969727,0.030273,-0.256836,0.731707,0.182927,0.792683,-4.250000,39.606251,-1.593750,0.0,1.000000,0.000000,0.000000,0.000000
1782117314.099327,1817460,-0.971191,0.027344,-0.255371,0.792683,0.121951,0.731707,-4.137500,39.674999,-1.600000,0.0,1.000000,0.000000,0.000000,0.000000
1782117314.109327,1817470,-0.972168,0.026855,-0.258301,0.853659,0.060976,0.731707,-3.968750,39.906250,-1.543750,0.0,1.000000,0.000000,0.000000,0.000000
1782117314.119327,1817480,-0.971680,0.027832,-0.256836,1.097561,-0.182927,0.731707,-3.968750,39.906250,-1.543750,0.0,1.000000,0.000000,0.000000,0.000000
1782117314.130327,1817491,-0.970703,0.028809,-0.255859,1.219512,-0.304878,0.731707,-4.087500,39.756252,-1.575000,0.0,1.000000,0.000000,0.000000,0.000000
1782117314.140327,1817501,-0.969727,0.028809,-0.256348,1.158537,-0.121951,0.731707,-4.087500,39.756252,-1.575000,0.0,1.000000,0.000000,0.000000,0.000000
1782117314.149327,1817510,-0.970215,0.030273,-0.259277,1.036585,0.000000,0.670732,-4.181250,39.687500,-1.600000,0.0,1.000000,0.000000,0.000000,0.000000
1782117314.161327,1817522,-0.968262,0.029297,-0.261230,1.097561,0.000000,0.609756,-4.181250,39.687500,-1.600000,0.0,1.000000,0.000000,0.000000,0.000000
1782117314.169327,1817530,-0.968750,0.030273,-0.262207,1.036585,0.182927,0.548781,-3.881250,39.962502,-1.518750,0.0,1.000000,0.000000,0.000000,0.000000
1782117314.179327,1817540,-0.967773,0.030273,-0.260742,1.036585,0.304878,0.548781,-3.881250,39.962502,-1.518750,0.0,1.000000,0.000000,0.000000,0.000000
1782117314.189327,1817550,-0.968750,0.030273,-0.259766,1.036585,0.304878,0.609756,-4.156250,39.706249,-1.606250,0.0,1.000000,0.000000,0.000000,0.000000
1782117314.200327,1817561,-0.970703,0.030273,-0.259766,1.036585,0.243902,0.731707,-4.156250,39.706249,-1.606250,0.0,1.000000,0.000000,0.000000,0.000000
1782117314.209327,1817570,-0.971191,0.028809,-0.260742,1.097561,0.182927,0.731707,-4.125000,39.712502,-1.650000,0.0,1.000000,0.000000,0.000000,0.000000
1782117314.219327,1817580,-0.971191,0.026855,-0.260254,1.219512,0.000000,0.609756,-4.125000,39.712502,-1.650000,0.0,1.000000,0.000000,0.000000,0.000000
1782117314.229327,1817590,-0.972168,0.025879,-0.259766,1.463415,-0.121951,0.670732,-4.150000,39.706249,-1.543750,0.0,1.000000,0.000000,0.000000,0.000000
1782117314.240327,1817601,-0.971680,0.024902,-0.261230,1.768293,-0.182927,0.731707,-4.150000,39.706249,-1.543750,0.0,1.000000,0.000000,0.000000,0.000000
1782117314.249327,1817610,-0.972168,0.026855,-0.261719,2.012195,-0.365854,0.792683,-4.106250,39.762501,-1.518750,0.0,1.000000,0.000000,0.000000,0.000000
1782117314.259327,1817620,-0.968750,0.028320,-0.261230,2.134146,-0.365854,0.670732,-4.106250,39.762501,-1.518750,0.0,1.000000,0.000000,0.000000,0.000000
1782117314.269327,1817630,-0.967773,0.032227,-0.258789,2.134146,-0.365854,0.609756,-4.118750,39.768749,-1.606250,0.0,1.000000,0.000000,0.000000,0.000000
1782117314.279327,1817640,-0.967285,0.032227,-0.258789,2.012195,-0.121951,0.670732,-4.118750,39.768749,-1.606250,0.0,1.000000,0.000000,0.000000,0.000000
1782117314.289327,1817650,-0.965332,0.034180,-0.261230,1.829268,0.121951,0.670732,-4.187500,39.656250,-1.518750,0.0,1.000000,0.000000,0.000000,0.000000
1782117314.300327,1817661,-0.967285,0.034668,-0.262695,1.646341,0.243902,0.853659,-4.187500,39.656250,-1.518750,0.0,1.000000,0.000000,0.000000,0.000000
1782117314.309327,1817670,-0.968750,0.032227,-0.263672,1.402439,0.365854,0.792683,-4.118750,39.725002,-1.556250,0.0,1.000000,0.000000,0.000000,0.000000
1782117314.320327,1817681,-0.972168,0.031250,-0.262207,1.097561,0.304878,0.792683,-4.118750,39.725002,-1.556250,0.0,1.000000,0.000000,0.000000,0.000000
1782117314.330327,1817691,-0.971680,0.028809,-0.259766,0.975610,0.121951,0.731707,-4.118750,39.700001,-1.618750,0.0,1.000000,0.000000,0.000000,0.000000
1782117314.340327,1817701,-0.970215,0.025391,-0.260254,1.036585,-0.121951,0.670732,-4.118750,39.700001,-1.618750,0.0,1.000000,0.000000,0.000000,0.000000
1782117314.349327,1817710,-0.970703,0.024902,-0.258301,1.219512,-0.182927,0.609756,-4.225000,39.631252,-1.581250,0.0,1.000000,0.000000,0.000000,0.000000
1782117314.361327,1817722,-0.971680,0.022461,-0.257812,1.646341,-0.182927,0.731707,-3.956250,39.856251,-1.512500,0.0,1.000000,0.000000,0.000000,0.000000
1782117314.369327,1817730,-0.972168,0.021484,-0.260254,1.890244,-0.182927,0.792683,-3.956250,39.856251,-1.512500,0.0,1.000000,0.000000,0.000000,0.000000
1782117314.379327,1817740,-0.974609,0.022461,-0.262207,2.073171,-0.243902,0.853659,-3.956250,39.856251,-1.512500,0.0,1.000000,0.000000,0.000000,0.000000
1782117314.389327,1817750,-0.976562,0.023438,-0.267090,2.195122,-0.243902,1.036585,-4.156250,39.593750,-1.500000,0.0,1.000000,0.000000,0.000000,0.000000
1782117314.399327,1817760,-0.971191,0.020508,-0.271484,2.439024,-0.426829,0.975610,-4.156250,39.593750,-1.500000,0.0,1.000000,0.000000,0.000000,0.000000
1782117314.409327,1817770,-0.968262,0.020996,-0.275879,2.500000,-0.121951,0.731707,-4.137500,39.662502,-1.412500,0.0,1.000000,0.000000,0.000000,0.000000
1782117314.419327,1817780,-0.966309,0.020508,-0.284668,2.439024,0.365854,0.609756,-4.143750,39.625000,-1.493750,0.0,1.000000,0.000000,0.000000,0.000000
1782117314.429327,1817790,-0.960449,0.022461,-0.291016,2.560976,0.609756,0.487805,-4.143750,39.625000,-1.493750,0.0,1.000000,0.000000,0.000000,0.000000
1782117314.439327,1817800,-0.959961,0.022461,-0.294922,2.439024,0.975610,0.609756,-4.087500,39.662502,-1.475000,0.0,1.000000,0.000000,0.000000,0.000000
1782117314.449327,1817810,-0.964355,0.021484,-0.295410,2.500000,0.853659,0.975610,-4.087500,39.662502,-1.475000,0.0,1.000000,0.000000,0.000000,0.000000
1782117314.460327,1817821,-0.968262,0.024902,-0.291016,2.560976,0.243902,1.280488,-4.131250,39.612499,-1.525000,0.0,1.000000,0.000000,0.000000,0.000000
1782117314.469327,1817830,-0.970703,0.024414,-0.288574,2.926829,-0.548781,1.768293,-4.131250,39.612499,-1.525000,0.0,1.000000,0.000000,0.000000,0.000000
1782117314.479327,1817840,-0.975586,0.016602,-0.289551,3.475610,-1.402439,2.256098,-4.025000,39.712502,-1.487500,0.0,1.000000,0.000000,0.000000,0.000000
1782117314.489327,1817850,-0.982422,0.011719,-0.290527,4.268293,-2.134146,2.560976,-4.025000,39.712502,-1.487500,0.0,1.000000,0.000000,0.000000,0.000000
1782117314.499327,1817860,-0.988770,0.004883,-0.291016,5.487805,-2.926829,2.865854,-4.075000,39.650002,-1.475000,0.0,1.000000,0.000000,0.000000,0.000000
1782117314.509327,1817870,-0.991699,0.000000,-0.290527,6.646342,-3.780488,2.865854,-4.075000,39.650002,-1.475000,0.0,1.000000,0.000000,0.000000,0.000000
1782117314.521327,1817882,-0.989746,-0.002441,-0.286133,7.500000,-4.634146,2.865854,-4.025000,39.693752,-1.406250,0.0,1.000000,0.000000,0.000000,0.000000
1782117314.529327,1817890,-0.977051,0.001465,-0.284668,7.621952,-5.304878,2.560976,-4.025000,39.693752,-1.406250,0.0,1.000000,0.000000,0.000000,0.000000
1782117314.539327,1817900,-0.964355,0.013184,-0.290039,6.768293,-5.121951,2.134146,-3.918750,39.693752,-1.306250,0.0,1.000000,0.000000,0.000000,0.000000
1782117314.549327,1817910,-0.958008,0.026855,-0.297363,5.182927,-4.329268,1.951220,-3.918750,39.693752,-1.306250,0.0,1.000000,0.000000,0.000000,0.000000
1782117314.560327,1817921,-0.954590,0.040527,-0.311523,2.682927,-3.414634,2.195122,-3.937500,39.668751,-1.200000,0.0,1.000000,0.000000,0.000000,0.000000
1782117314.569327,1817930,-0.951172,0.041992,-0.319336,0.731707,-3.109756,2.621951,-3.937500,39.668751,-1.200000,0.0,1.000000,0.000000,0.000000,0.000000
1782117314.579327,1817940,-0.952148,0.036133,-0.319824,-0.548781,-3.292683,2.804878,-3.550000,39.943752,-1.068750,0.0,1.000000,0.000000,0.000000,0.000000
1782117314.589327,1817950,-0.958496,0.029297,-0.311523,-0.853659,-4.024390,2.987805,-3.550000,39.943752,-1.068750,0.0,1.000000,0.000000,0.000000,0.000000
1782117314.599327,1817960,-0.961426,0.015137,-0.303223,-0.243902,-5.243903,3.292683,-3.850000,39.618752,-1.200000,0.0,1.000000,0.000000,0.000000,0.000000
1782117314.609327,1817970,-0.961426,0.000000,-0.302246,0.487805,-6.219512,3.353659,-3.850000,39.618752,-1.200000,0.0,1.000000,0.000000,0.000000,0.000000
1782117314.619327,1817980,-0.960938,-0.009766,-0.297852,1.097561,-6.890244,3.170732,-3.775000,39.656250,-1.118750,0.0,1.000000,0.000000,0.000000,0.000000
1782117314.629327,1817990,-0.957031,-0.013184,-0.297852,1.524390,-7.926829,2.743902,-3.775000,39.656250,-1.118750,0.0,1.000000,0.000000,0.000000,0.000000
1782117314.641327,1818002,-0.947266,-0.012207,-0.299805,1.768293,-8.414635,2.743902,-3.812500,39.581249,-1.043750,0.0,1.000000,0.000000,0.000000,0.000000
1782117314.649327,1818010,-0.946289,-0.005371,-0.301270,1.646341,-8.292683,3.231707,-3.812500,39.581249,-1.043750,0.0,1.000000,0.000000,0.000000,0.000000
1782117314.659327,1818020,-0.944336,-0.000488,-0.300781,0.670732,-8.719512,3.719512,-3.681250,39.625000,-0.956250,0.0,1.000000,0.000000,0.000000,0.000000
1782117314.669327,1818030,-0.937988,0.007812,-0.302246,-0.060976,-9.146341,4.085366,-3.681250,39.625000,-0.956250,0.0,1.000000,0.000000,0.000000,0.000000
1782117314.680327,1818041,-0.939941,0.014160,-0.303223,-0.121951,-9.512196,4.512195,-3.712500,39.443752,-0.856250,0.0,1.000000,0.000000,0.000000,0.000000
1782117314.689327,1818050,-0.939941,0.019043,-0.301270,0.426829,-10.243902,4.695122,-3.712500,39.443752,-0.856250,0.0,1.000000,0.000000,0.000000,0.000000
1782117314.699327,1818060,-0.937012,0.020996,-0.294434,1.219512,-10.609756,4.573171,-3.325000,39.812500,-0.700000,0.0,1.000000,0.000000,0.000000,0.000000
1782117314.709327,1818070,-0.937988,0.020996,-0.286133,2.378049,-10.670732,4.512195,-3.562500,39.456249,-0.650000,0.0,1.000000,0.000000,0.000000,0.000000
1782117314.720327,1818081,-0.940918,0.016602,-0.276367,3.536585,-11.219512,4.390244,-3.562500,39.456249,-0.650000,0.0,1.000000,0.000000,0.000000,0.000000
1782117314.730327,1818091,-0.948242,0.014160,-0.266113,4.878049,-11.951220,4.390244,-3.368750,39.549999,-0.562500,0.0,1.000000,0.000000,0.000000,0.000000
1782117314.740327,1818101,-0.958496,0.011230,-0.257324,6.402439,-12.987805,4.756098,-3.368750,39.549999,-0.562500,0.0,1.000000,0.000000,0.000000,0.000000
1782117314.750327,1818111,-0.971191,0.009766,-0.247070,7.621952,-14.085366,5.121951,-3.387500,39.456249,-0.400000,0.0,1.000000,0.000000,0.000000,0.000000
1782117314.761327,1818122,-0.979980,0.006836,-0.241211,8.231708,-15.426829,5.365854,-3.387500,39.456249,-0.400000,0.0,1.000000,0.000000,0.000000,0.000000
1782117314.769327,1818130,-0.983887,0.003418,-0.235352,8.658537,-16.463415,5.304878,-3.325000,39.412502,-0.168750,0.0,1.000000,0.000000,0.000000,0.000000
1782117314.780327,1818141,-1.004395,-0.000488,-0.238281,9.634147,-17.195122,4.939024,-3.325000,39.412502,-0.168750,0.0,1.000000,0.000000,0.000000,0.000000
1782117314.789327,1818150,-1.021484,0.009766,-0.241699,11.402439,-18.780489,5.060976,-3.231250,39.431252,-0.025000,0.0,1.000000,0.000000,0.000000,0.000000
1782117314.801327,1818162,-1.030273,0.025879,-0.228516,14.451220,-21.646341,5.670732,-3.231250,39.431252,-0.025000,0.0,1.000000,0.000000,0.000000,0.000000
1782117314.810327,1818171,-1.041016,0.041016,-0.218262,17.500000,-25.182928,6.341464,-3.143750,39.325001,0.331250,0.0,1.000000,0.000000,0.000000,0.000000
1782117314.819327,1818180,-1.040039,0.054688,-0.210449,18.780489,-29.207317,6.951220,-3.143750,39.325001,0.331250,0.0,1.000000,0.000000,0.000000,0.000000
1782117314.829327,1818190,-1.010254,0.060547,-0.206543,17.439024,-31.341465,6.463415,-3.006250,39.262501,0.737500,0.0,1.000000,0.000000,0.000000,0.000000
1782117314.841327,1818202,-0.995117,0.061523,-0.211426,15.731708,-29.024391,5.609756,-3.006250,39.262501,0.737500,0.0,1.000000,0.000000,0.000000,0.000000
1782117314.849327,1818210,-0.980469,0.061523,-0.208496,12.560976,-27.865854,4.268293,-2.931250,39.275002,1.081250,0.0,1.000000,0.000000,0.000000,0.000000
1782117314.859327,1818220,-0.951172,0.064453,-0.218262,10.731708,-25.426830,4.146341,-2.931250,39.275002,1.081250,0.0,1.000000,0.000000,0.000000,0.000000
1782117314.869327,1818230,-0.942871,0.065430,-0.216309,10.365854,-22.500000,4.878049,-2.843750,39.181252,1.493750,0.0,1.000000,0.000000,0.000000,0.000000
1782117314.882327,1818243,-0.967285,0.071777,-0.202637,10.731708,-19.085367,6.341464,-2.843750,39.181252,1.493750,0.0,1.000000,0.000000,0.000000,0.000000
1782117314.889327,1818250,-1.022461,0.074707,-0.184082,11.280488,-17.621952,8.353659,-2.800000,39.087502,1.706250,0.0,1.000000,0.000000,0.000000,0.000000
1782117314.900327,1818261,-1.022461,0.074707,-0.184082,11.280488,-17.621952,8.353659,-2.800000,39.087502,1.706250,0.0,1.000000,0.000000,0.000000,0.000000
1782117314.910327,1818271,-1.055176,0.059570,-0.153809,11.463415,-20.243902,8.109756,-2.775000,38.968750,1.868750,0.0,1.000000,0.000000,0.000000,0.000000
1782117314.922327,1818283,-1.073242,0.033691,-0.132812,10.304878,-22.865854,2.073171,-2.775000,38.968750,1.868750,0.0,1.000000,0.000000,0.000000,0.000000
1782117314.929327,1818290,-1.073242,0.033691,-0.132812,10.304878,-22.865854,2.073171,-2.750000,38.781250,2.181250,0.0,1.000000,0.000000,0.000000,0.000000
1782117314.940327,1818301,-1.047852,0.007324,-0.135742,10.000000,-24.329269,-0.487805,-2.750000,38.781250,2.181250,0.0,1.000000,0.000000,0.000000,0.000000
1782117314.949327,1818310,-1.001953,-0.012207,-0.149902,10.975610,-24.878050,-2.500000,-2.912500,38.525002,2.406250,0.0,1.000000,0.000000,0.000000,0.000000
1782117314.961327,1818322,-0.932617,0.013184,-0.173828,13.536586,-21.097561,-4.756098,-2.912500,38.525002,2.406250,0.0,1.000000,0.000000,0.000000,0.000000
1782117314.970327,1818331,-0.932617,0.013184,-0.173828,13.536586,-21.097561,-4.756098,-3.006250,38.481251,2.706250,0.0,1.000000,0.000000,0.000000,0.000000
1782117314.979327,1818340,-0.933105,0.042480,-0.186523,13.109756,-17.987804,-3.719512,-3.006250,38.481251,2.706250,0.0,1.000000,0.000000,0.000000,0.000000
1782117314.990327,1818351,-0.936523,0.065430,-0.188477,12.317074,-16.219513,-1.097561,-2.956250,38.500000,3.012500,0.0,1.000000,0.000000,0.000000,0.000000
1782117315.002327,1818363,-0.944336,0.085938,-0.179199,11.707317,-14.573171,1.158537,-2.950000,38.512501,3.218750,0.0,1.000000,0.000000,0.000000,0.000000
1782117315.009327,1818370,-0.951660,0.081055,-0.165039,10.975610,-12.926829,2.317073,-2.950000,38.512501,3.218750,0.0,1.000000,0.000000,0.000000,0.000000
1782117315.019327,1818380,-0.962891,0.059082,-0.152344,10.000000,-10.426829,2.439024,-2.775000,38.650002,3.468750,0.0,1.000000,0.000000,0.000000,0.000000
1782117315.029327,1818390,-0.974609,0.041504,-0.144043,9.268292,-7.987805,2.378049,-2.775000,38.650002,3.468750,0.0,1.000000,0.000000,0.000000,0.000000
1782117315.039327,1818400,-0.990234,0.008301,-0.157715,9.695122,-5.914634,2.195122,-2.643750,38.768749,3.525000,0.0,1.000000,0.000000,0.000000,0.000000
1782117315.049327,1818410,-0.994629,-0.012207,-0.163086,11.585366,-5.243903,1.890244,-2.643750,38.768749,3.525000,0.0,1.000000,0.000000,0.000000,0.000000
1782117315.060327,1818421,-0.997070,-0.021973,-0.158691,14.451220,-5.121951,1.646341,-2.650000,38.781250,3.575000,0.0,1.000000,0.000000,0.000000,0.000000
1782117315.069327,1818430,-1.000977,-0.010742,-0.153809,16.951220,-5.426829,1.585366,-2.650000,38.781250,3.575000,0.0,1.000000,0.000000,0.000000,0.000000
1782117315.082327,1818443,-0.996094,0.014648,-0.141602,18.658537,-6.158537,1.768293,-2.562500,38.681252,3.618750,0.0,1.000000,0.000000,0.000000,0.000000
1782117315.089327,1818450,-0.994629,0.038574,-0.131348,19.390244,-5.975610,2.134146,-2.562500,38.681252,3.618750,0.0,1.000000,0.000000,0.000000,0.000000
1782117315.099327,1818460,-0.995117,0.058105,-0.120117,19.512196,-5.609756,2.439024,-2.400000,38.799999,3.650000,0.0,1.000000,0.000000,0.000000,0.000000
1782117315.109327,1818470,-0.995117,0.076172,-0.114258,19.268293,-5.609756,2.743902,-2.400000,38.799999,3.650000,0.0,1.000000,0.000000,0.000000,0.000000
1782117315.119327,1818480,-0.995117,0.095215,-0.103516,17.317074,-5.731708,2.926829,-2.443750,38.575001,3.662500,0.0,1.000000,0.000000,0.000000,0.000000
1782117315.141327,1818502,-1.007812,0.115723,-0.095703,9.878049,-5.487805,1.768293,-1.831250,39.200001,3.831250,0.0,1.000000,0.000000,0.000000,0.000000
1782117315.144327,1818505,-1.008789,0.127930,-0.097656,5.914634,-6.585366,0.548781,-1.831250,39.200001,3.831250,0.0,1.000000,0.000000,0.000000,0.000000
1782117315.149327,1818510,-1.008789,0.127930,-0.097656,5.914634,-6.585366,0.548781,-1.831250,39.200001,3.831250,0.0,1.000000,0.000000,0.000000,0.000000
1782117315.160327,1818521,-1.012207,0.130371,-0.105469,2.926829,-7.926829,-0.487805,-2.381250,38.612499,3.756250,0.0,1.000000,0.000000,0.000000,0.000000
1782117315.170327,1818531,-1.003906,0.126465,-0.109863,1.280488,-9.207317,-1.036585,-2.381250,38.612499,3.756250,0.0,1.000000,0.000000,0.000000,0.000000
1782117315.180327,1818541,-0.989258,0.108887,-0.116699,-0.304878,-9.878049,-2.500000,-2.443750,38.525002,3.756250,0.0,1.000000,0.000000,0.000000,0.000000
1782117315.189327,1818550,-0.962402,0.094238,-0.125977,-2.926829,-8.902439,-4.512195,-2.443750,38.525002,3.756250,0.0,1.000000,0.000000,0.000000,0.000000
1782117315.199327,1818560,-0.939941,0.089844,-0.125000,-6.463415,-5.975610,-6.158537,-2.625000,38.312500,3.731250,0.0,1.000000,0.000000,0.000000,0.000000
1782117315.209327,1818570,-0.938477,0.077148,-0.116211,-9.146341,-2.012195,-6.707317,-2.625000,38.312500,3.731250,0.0,1.000000,0.000000,0.000000,0.000000
1782117315.219327,1818580,-0.950195,0.052246,-0.097168,-10.914635,1.768293,-6.646342,-2.875000,38.143749,3.643750,0.0,1.000000,0.000000,0.000000,0.000000
1782117315.229327,1818590,-0.976074,0.020996,-0.081543,-11.768293,4.695122,-6.097561,-2.875000,38.143749,3.643750,0.0,1.000000,0.000000,0.000000,0.000000
1782117315.239327,1818600,-1.002930,-0.000488,-0.068848,-11.097561,5.670732,-5.487805,-2.993750,38.100002,3.462500,0.0,1.000000,0.000000,0.000000,0.000000
1782117315.249327,1818610,-1.005859,-0.011230,-0.056641,-9.451220,4.512195,-5.000000,-2.993750,38.100002,3.462500,0.0,1.000000,0.000000,0.000000,0.000000
1782117315.259327,1818620,-0.996094,-0.002441,-0.055176,-7.195122,4.146341,-4.390244,-2.987500,38.268749,3.406250,0.0,1.000000,0.000000,0.000000,0.000000
1782117315.269327,1818630,-0.990723,0.015625,-0.051270,-4.329268,4.817073,-3.170732,-2.987500,38.268749,3.406250,0.0,1.000000,0.000000,0.000000,0.000000
1782117315.279327,1818640,-0.989746,0.026855,-0.046875,-0.853659,4.817073,-1.829268,-3.106250,38.262501,3.306250,0.0,1.000000,0.000000,0.000000,0.000000
1782117315.289327,1818650,-0.991211,0.036133,-0.041016,2.073171,4.695122,-0.792683,-3.106250,38.262501,3.306250,0.0,1.000000,0.000000,0.000000,0.000000
1782117315.299327,1818660,-0.998047,0.040039,-0.036621,3.658537,4.573171,-0.304878,-2.950000,38.500000,3.312500,0.0,1.000000,0.000000,0.000000,0.000000
1782117315.309327,1818670,-1.004883,0.041504,-0.030762,4.756098,4.207317,-0.060976,-3.031250,38.325001,3.150000,0.0,1.000000,0.000000,0.000000,0.000000
1782117315.319327,1818680,-1.014648,0.040039,-0.024414,5.548780,3.902439,-0.182927,-3.031250,38.325001,3.150000,0.0,1.000000,0.000000,0.000000,0.000000
1782117315.329327,1818690,-1.022949,0.037109,-0.016602,6.707317,3.536585,-0.182927,-2.912500,38.518749,3.175000,0.0,1.000000,0.000000,0.000000,0.000000
1782117315.339327,1818700,-1.021973,0.035645,-0.002930,8.719512,2.621951,-0.365854,-2.912500,38.518749,3.175000,0.0,1.000000,0.000000,0.000000,0.000000
1782117315.349327,1818710,-1.022461,0.046875,0.010742,9.390244,2.804878,-0.548781,-2.956250,38.443752,3.100000,0.0,1.000000,0.000000,0.000000,0.000000
1782117315.360327,1818721,-1.032715,0.059082,0.019043,8.658537,3.475610,-0.243902,-2.956250,38.443752,3.100000,0.0,1.000000,0.000000,0.000000,0.000000
1782117315.370327,1818731,-1.040527,0.074219,0.027344,7.865854,2.500000,0.853659,-2.875000,38.450001,3.125000,0.0,1.000000,0.000000,0.000000,0.000000
1782117315.379327,1818740,-1.040039,0.083984,0.027832,7.134147,0.670732,1.890244,-2.875000,38.450001,3.125000,0.0,1.000000,0.000000,0.000000,0.000000
1782117315.390327,1818751,-1.025391,0.095703,0.028809,6.036585,-1.036585,2.439024,-2.793750,38.424999,3.106250,0.0,1.000000,0.000000,0.000000,0.000000
1782117315.400327,1818761,-1.018066,0.103516,0.021973,3.658537,-1.097561,2.500000,-2.793750,38.424999,3.106250,0.0,1.000000,0.000000,0.000000,0.000000
1782117315.410327,1818771,-1.021973,0.101074,0.015625,1.219512,-1.463415,2.500000,-2.768750,38.468750,3.131250,0.0,1.000000,0.000000,0.000000,0.000000
1782117315.420327,1818781,-1.031738,0.089844,0.006836,-0.670732,-2.987805,2.378049,-2.768750,38.468750,3.131250,0.0,1.000000,0.000000,0.000000,0.000000
1782117315.429327,1818790,-1.026855,0.078613,-0.003906,-1.707317,-5.121951,2.012195,-2.743750,38.462502,3.200000,0.0,1.000000,0.000000,0.000000,0.000000
1782117315.439327,1818800,-1.013184,0.067383,-0.020508,-2.682927,-5.975610,1.524390,-2.743750,38.462502,3.200000,0.0,1.000000,0.000000,0.000000,0.000000
1782117315.449327,1818810,-1.004395,0.056152,-0.038086,-3.536585,-5.853659,1.036585,-2.656250,38.437500,3.268750,0.0,1.000000,0.000000,0.000000,0.000000
1782117315.459327,1818820,-0.992188,0.042969,-0.058105,-3.475610,-5.426829,0.975610,-2.656250,38.437500,3.268750,0.0,1.000000,0.000000,0.000000,0.000000
1782117315.469327,1818830,-0.989746,0.032715,-0.066895,-2.682927,-4.573171,1.463415,-2.681250,38.343750,3.368750,0.0,1.000000,0.000000,0.000000,0.000000
1782117315.479327,1818840,-0.999512,0.024414,-0.076172,-1.341463,-3.780488,2.439024,-2.681250,38.343750,3.368750,0.0,1.000000,0.000000,0.000000,0.000000
1782117315.489327,1818850,-1.007324,0.020996,-0.086426,0.182927,-4.451220,3.353659,-2.637500,38.312500,3.450000,0.0,1.000000,0.000000,0.000000,0.000000
1782117315.499327,1818860,-1.001465,0.021973,-0.098633,0.731707,-5.121951,3.780488,-2.637500,38.312500,3.450000,0.0,1.000000,0.000000,0.000000,0.000000
1782117315.509327,1818870,-0.995605,0.030762,-0.105957,0.426829,-5.060976,3.780488,-2.556250,38.262501,3.531250,0.0,1.000000,0.000000,0.000000,0.000000
1782117315.519327,1818880,-0.992188,0.036133,-0.112793,0.060976,-4.329268,3.292683,-2.556250,38.262501,3.531250,0.0,1.000000,0.000000,0.000000,0.000000
1782117315.529327,1818890,-0.998047,0.038086,-0.121582,0.121951,-3.475610,3.048780,-2.475000,38.281250,3.650000,0.0,1.000000,0.000000,0.000000,0.000000
1782117315.540327,1818901,-0.998047,0.035156,-0.128418,0.060976,-3.109756,2.743902,-2.475000,38.281250,3.650000,0.0,1.000000,0.000000,0.000000,0.000000
1782117315.549327,1818910,-0.996094,0.031250,-0.128418,0.121951,-2.926829,2.256098,-2.325000,38.393749,3.775000,0.0,1.000000,0.000000,0.000000,0.000000
1782117315.559327,1818920,-0.991211,0.023926,-0.127441,0.792683,-2.621951,1.890244,-2.325000,38.393749,3.775000,0.0,1.000000,0.000000,0.000000,0.000000
1782117315.570327,1818931,-0.991211,0.016602,-0.126953,2.012195,-2.560976,1.463415,-2.300000,38.362499,3.787500,0.0,1.000000,0.000000,0.000000,0.000000
1782117315.579327,1818940,-0.992188,0.018066,-0.125488,3.719512,-3.170732,1.524390,-2.300000,38.362499,3.787500,0.0,1.000000,0.000000,0.000000,0.000000
1782117315.590327,1818951,-0.990723,0.016602,-0.122070,4.878049,-3.231707,2.073171,-2.156250,38.431252,3.950000,0.0,1.000000,0.000000,0.000000,0.000000
1782117315.599327,1818960,-0.992188,0.020508,-0.112793,5.365854,-3.841464,2.439024,-1.975000,38.549999,4.056250,0.0,1.000000,0.000000,0.000000,0.000000
1782117315.609327,1818970,-0.988770,0.027344,-0.110840,4.817073,-4.085366,2.500000,-1.975000,38.549999,4.056250,0.0,1.000000,0.000000,0.000000,0.000000
1782117315.619327,1818980,-0.984375,0.024414,-0.119629,4.512195,-3.170732,2.682927,-1.775000,38.549999,4.150000,0.0,1.000000,0.000000,0.000000,0.000000
1782117315.629327,1818990,-0.986328,0.014160,-0.118164,3.963415,-1.341463,2.926829,-1.775000,38.549999,4.150000,0.0,1.000000,0.000000,0.000000,0.000000
1782117315.639327,1819000,-0.988281,0.000977,-0.124023,4.146341,-0.243902,3.109756,-1.893750,38.262501,4.193750,0.0,1.000000,0.000000,0.000000,0.000000
1782117315.650327,1819011,-0.979980,-0.001953,-0.131836,4.573171,0.792683,3.048780,-1.893750,38.262501,4.193750,0.0,1.000000,0.000000,0.000000,0.000000
1782117315.659327,1819020,-0.982422,0.006348,-0.140625,5.000000,1.890244,2.926829,-1.606250,38.312500,4.275000,0.0,1.000000,0.000000,0.000000,0.000000
1782117315.669327,1819030,-0.992676,0.007812,-0.147949,5.609756,2.317073,3.292683,-1.606250,38.312500,4.275000,0.0,1.000000,0.000000,0.000000,0.000000
1782117315.679327,1819040,-0.997070,0.013672,-0.146973,7.439024,1.707317,3.719512,-1.500000,38.362499,4.293750,0.0,1.000000,0.000000,0.000000,0.000000
1782117315.689327,1819050,-0.999512,0.016113,-0.144043,8.292683,1.219512,3.780488,-1.500000,38.362499,4.293750,0.0,1.000000,0.000000,0.000000,0.000000
1782117315.699327,1819060,-0.996094,0.015137,-0.146484,8.536586,0.914634,3.475610,-1.381250,38.325001,4.406250,0.0,1.000000,0.000000,0.000000,0.000000
1782117315.710327,1819071,-0.990723,0.021973,-0.149902,9.329268,1.036585,2.987805,-1.381250,38.325001,4.406250,0.0,1.000000,0.000000,0.000000,0.000000
1782117315.721327,1819082,-0.991211,0.026367,-0.150391,10.548780,1.829268,2.865854,-1.550000,38.137501,4.368750,0.0,1.000000,0.000000,0.000000,0.000000
1782117315.730327,1819091,-0.999023,0.022461,-0.141602,11.646341,1.890244,2.865854,-1.550000,38.137501,4.368750,0.0,1.000000,0.000000,0.000000,0.000000
1782117315.739327,1819100,-0.998535,0.023926,-0.140625,12.500000,1.707317,2.865854,-1.381250,38.262501,4.500000,0.0,1.000000,0.000000,0.000000,0.000000
1782117315.749327,1819110,-0.999023,0.025879,-0.137207,12.926829,1.768293,3.170732,-1.381250,38.262501,4.500000,0.0,1.000000,0.000000,0.000000,0.000000
1782117315.759327,1819120,-0.999023,0.025879,-0.137207,12.926829,1.768293,3.170732,-1.212500,38.312500,4.487500,0.0,1.000000,0.000000,0.000000,0.000000
1782117315.770327,1819131,-1.007812,0.040039,-0.122559,11.097561,-0.182927,3.170732,-1.212500,38.312500,4.487500,0.0,1.000000,0.000000,0.000000,0.000000
1782117315.779327,1819140,-1.007812,0.040039,-0.122559,11.097561,-0.182927,3.170732,-0.962500,38.468750,4.625000,0.0,1.000000,0.000000,0.000000,0.000000
1782117315.789327,1819150,-1.003906,0.039551,-0.121094,10.121951,-1.158537,3.048780,-0.962500,38.468750,4.625000,0.0,1.000000,0.000000,0.000000,0.000000
1782117315.799327,1819160,-0.994629,0.044922,-0.124512,8.658537,-1.036585,2.682927,-1.225000,38.131252,4.650000,0.0,1.000000,0.000000,0.000000,0.000000
1782117315.809327,1819170,-0.981445,0.047363,-0.131836,6.951220,-0.182927,2.195122,-1.225000,38.131252,4.650000,0.0,1.000000,0.000000,0.000000,0.000000
1782117315.819327,1819180,-0.977051,0.049805,-0.134766,5.182927,1.036585,1.768293,-1.087500,38.162502,4.612500,0.0,1.000000,0.000000,0.000000,0.000000
1782117315.829327,1819190,-0.991699,0.056152,-0.129883,3.597561,1.707317,2.134146,-1.087500,38.162502,4.612500,0.0,1.000000,0.000000,0.000000,0.000000
1782117315.839327,1819200,-1.012207,0.052246,-0.129883,2.621951,0.792683,2.743902,-1.075000,38.112499,4.656250,0.0,1.000000,0.000000,0.000000,0.000000
1782117315.849327,1819210,-1.017090,0.043945,-0.136719,2.012195,-0.975610,2.926829,-1.075000,38.112499,4.656250,0.0,1.000000,0.000000,0.000000,0.000000
1782117315.859327,1819220,-1.003418,0.047363,-0.142090,0.121951,-2.073171,2.560976,-0.768750,38.393749,4.687500,0.0,1.000000,0.000000,0.000000,0.000000
1782117315.869327,1819230,-0.984375,0.068848,-0.141113,-2.682927,-1.524390,1.829268,-0.768750,38.393749,4.687500,0.0,1.000000,0.000000,0.000000,0.000000
1782117315.879327,1819240,-0.982910,0.079590,-0.139648,-5.853659,-0.609756,1.524390,-1.025000,38.087502,4.612500,0.0,1.000000,0.000000,0.000000,0.000000
1782117315.889327,1819250,-0.984863,0.083984,-0.137207,-7.317073,-0.304878,1.524390,-1.000000,38.193752,4.650000,0.0,1.000000,0.000000,0.000000,0.000000
1782117315.900327,1819261,-0.981445,0.079102,-0.130371,-8.963415,-0.121951,1.463415,-1.000000,38.193752,4.650000,0.0,1.000000,0.000000,0.000000,0.000000
1782117315.909327,1819270,-0.980469,0.067383,-0.130371,-11.646341,0.548781,1.097561,-1.031250,38.168751,4.512500,0.0,1.000000,0.000000,0.000000,0.000000
1782117315.919327,1819280,-0.980469,0.053711,-0.131836,-14.451220,1.829268,0.670732,-1.031250,38.168751,4.512500,0.0,1.000000,0.000000,0.000000,0.000000
1782117315.930327,1819291,-0.993652,0.033203,-0.135742,-16.219513,2.865854,0.853659,-1.131250,38.100002,4.456250,0.0,1.000000,0.000000,0.000000,0.000000
1782117315.939327,1819300,-1.003418,0.010742,-0.135254,-16.280489,2.560976,1.524390,-1.131250,38.100002,4.456250,0.0,1.000000,0.000000,0.000000,0.000000
1782117315.950327,1819311,-1.012207,-0.009277,-0.143066,-14.451220,1.097561,2.012195,-1.200000,38.025002,4.293750,0.0,1.000000,0.000000,0.000000,0.000000
1782117315.960327,1819321,-1.008301,-0.004883,-0.154297,-11.036586,-1.036585,2.439024,-1.200000,38.025002,4.293750,0.0,1.000000,0.000000,0.000000,0.000000
1782117315.970327,1819331,-1.007812,0.020020,-0.145508,-7.621952,-2.987805,3.292683,-1.193750,38.081249,4.350000,0.0,1.000000,0.000000,0.000000,0.000000
1782117315.980327,1819341,-1.002930,0.046875,-0.123535,-6.585366,-4.695122,3.597561,-1.193750,38.081249,4.350000,0.0,1.000000,0.000000,0.000000,0.000000
1782117315.989327,1819350,-1.003418,0.062988,-0.116211,-6.829268,-5.670732,3.719512,-1.225000,38.037502,4.356250,0.0,1.000000,0.000000,0.000000,0.000000
1782117315.999327,1819360,-1.003418,0.079590,-0.091797,-8.658537,-5.853659,3.902439,-1.225000,38.037502,4.356250,0.0,1.000000,0.000000,0.000000,0.000000
1782117316.009327,1819370,-0.999023,0.065918,-0.095703,-11.646341,-5.670732,3.658537,-1.206250,38.100002,4.325000,0.0,1.000000,0.000000,0.000000,0.000000
1782117316.019327,1819380,-0.999512,0.062500,-0.092285,-14.634147,-4.451220,3.048780,-1.206250,38.100002,4.325000,0.0,1.000000,0.000000,0.000000,0.000000
1782117316.029327,1819390,-1.002930,0.057617,-0.091309,-16.524391,-3.536585,2.865854,-1.256250,38.075001,4.343750,0.0,1.000000,0.000000,0.000000,0.000000
1782117316.039327,1819400,-1.004395,0.028809,-0.105469,-17.134148,-3.292683,3.231707,-1.256250,38.075001,4.343750,0.0,1.000000,0.000000,0.000000,0.000000
1782117316.050327,1819411,-1.007324,0.012695,-0.115234,-16.646341,-3.902439,4.085366,-1.287500,38.125000,4.325000,0.0,1.000000,0.000000,0.000000,0.000000
1782117316.059327,1819420,-1.000977,0.024414,-0.121582,-14.756098,-4.878049,5.914634,-1.287500,38.125000,4.325000,0.0,1.000000,0.000000,0.000000,0.000000
1782117316.069327,1819430,-1.000977,0.062012,-0.102051,-13.841464,-6.158537,7.987805,-1.325000,38.049999,4.218750,0.0,1.000000,0.000000,0.000000,0.000000
1782117316.079327,1819440,-1.017578,0.091797,-0.083984,-13.536586,-8.475610,10.060976,-1.325000,38.049999,4.218750,0.0,1.000000,0.000000,0.000000,0.000000
1782117316.091327,1819452,-1.041992,0.107422,-0.067383,-12.987805,-10.914635,11.219512,-1.331250,37.981251,4.268750,0.0,1.000000,0.000000,0.000000,0.000000
1782117316.100327,1819461,-1.033691,0.100098,-0.077148,-12.987805,-14.268293,10.548780,-1.331250,37.981251,4.268750,0.0,1.000000,0.000000,0.000000,0.000000
1782117316.109327,1819470,-1.001953,0.119629,-0.075684,-17.134148,-15.304878,8.719512,-0.962500,38.306252,4.462500,0.0,1.000000,0.000000,0.000000,0.000000
1782117316.120327,1819481,-0.996094,0.148926,-0.072266,-23.170732,-14.634147,7.682927,-0.962500,38.306252,4.462500,0.0,1.000000,0.000000,0.000000,0.000000
1782117316.130327,1819491,-1.002441,0.180176,-0.082031,-29.085367,-15.060976,7.865854,-1.350000,37.856251,4.381250,0.0,1.000000,0.000000,0.000000,0.000000
1782117316.139327,1819500,-1.000488,0.196777,-0.094238,-32.926830,-16.036585,9.756098,-1.350000,37.856251,4.381250,0.0,1.000000,0.000000,0.000000,0.000000
1782117316.151327,1819512,-0.986328,0.195312,-0.079102,-33.963417,-16.036585,12.317074,-1.175000,38.068752,4.412500,0.0,1.000000,0.000000,0.000000,0.000000
1782117316.160327,1819521,-0.984863,0.176270,-0.027832,-33.719513,-14.451220,13.902439,-1.175000,38.068752,4.412500,0.0,1.000000,0.000000,0.000000,0.000000
1782117316.171327,1819532,-1.049316,0.144531,0.036133,-33.658539,-13.048780,14.756098,-1.468750,37.712502,4.287500,0.0,1.000000,0.000000,0.000000,0.000000
1782117316.180327,1819541,-1.133301,0.104004,0.050781,-29.512196,-17.621952,14.512196,-1.612500,37.525002,4.206250,0.0,1.000000,0.000000,0.000000,0.000000
1782117316.189327,1819550,-1.170410,0.065918,0.032715,-22.073172,-26.341463,13.963415,-1.612500,37.525002,4.206250,0.0,1.000000,0.000000,0.000000,0.000000
1782117316.199327,1819560,-1.137207,0.046875,-0.015137,-15.914635,-34.329269,12.195122,-1.681250,37.362499,4.350000,0.0,1.000000,0.000000,0.000000,0.000000
1782117316.212327,1819573,-1.083984,0.097656,-0.064453,-15.304878,-37.804878,9.573171,-1.681250,37.362499,4.350000,0.0,1.000000,0.000000,0.000000,0.000000
1782117316.219327,1819580,-1.010254,0.135742,-0.120605,-19.817074,-34.329269,7.378049,-1.818750,37.193752,4.650000,0.0,1.000000,0.000000,0.000000,0.000000
1782117316.229327,1819590,-0.936523,0.144531,-0.133301,-26.402439,-21.890244,5.609756,-1.818750,37.193752,4.650000,0.0,1.000000,0.000000,0.000000,0.000000
1782117316.239327,1819600,-0.920410,0.095703,-0.133789,-33.353661,-6.341464,3.170732,-2.106250,36.875000,4.637500,0.0,1.000000,0.000000,0.000000,0.000000
1782117316.252327,1819613,-0.895020,0.026367,-0.152832,-31.768293,3.963415,2.865854,-2.106250,36.875000,4.637500,0.0,1.000000,0.000000,0.000000,0.000000
1782117316.259327,1819620,-0.883789,-0.032227,-0.147461,-23.170732,11.463415,3.231707,-2.487500,36.799999,4.550000,0.0,1.000000,0.000000,0.000000,0.000000
1782117316.269327,1819630,-0.923828,-0.093262,-0.125000,-6.036585,18.353659,4.573171,-2.487500,36.799999,4.550000,0.0,1.000000,0.000000,0.000000,0.000000
1782117316.279327,1819640,-0.998535,-0.115234,-0.093262,19.268293,24.634148,5.182927,-2.593750,36.987499,4.487500,0.0,1.000000,0.000000,0.000000,0.000000
1782117316.291327,1819652,-1.075684,-0.117676,-0.004395,41.341465,22.195122,5.182927,-2.593750,36.987499,4.487500,0.0,1.000000,0.000000,0.000000,0.000000
1782117316.300327,1819661,-1.142090,-0.138672,0.070801,60.000000,9.512196,5.670732,-2.200000,37.643749,4.712500,0.0,1.000000,0.000000,0.000000,0.000000
1782117316.309327,1819670,-1.127441,-0.203125,-0.007812,78.170731,-12.073171,4.878049,-2.200000,37.643749,4.712500,0.0,1.000000,0.000000,0.000000,0.000000
1782117316.319327,1819680,-0.980957,-0.248047,-0.187500,88.780487,-28.963415,-1.036585,-1.787500,38.012501,5.462500,0.0,1.000000,0.000000,0.000000,0.000000
1782117316.332327,1819693,-0.777832,-0.189453,-0.342285,90.853661,-31.646341,-10.487805,-1.787500,38.012501,5.462500,0.0,1.000000,0.000000,0.000000,0.000000
1782117316.339327,1819700,-0.542480,-0.127930,-0.501953,76.890244,-18.719513,-20.000000,-1.087500,38.468750,6.481250,0.0,1.000000,0.000000,0.000000,0.000000
1782117316.349327,1819710,-0.399414,-0.068848,-0.704102,51.524391,15.426829,-29.573172,-1.087500,38.468750,6.481250,0.0,1.000000,0.000000,0.000000,0.000000
1782117316.359327,1819720,-0.390625,0.023926,-0.772461,39.817074,49.817074,-30.975611,-1.087500,38.556252,6.993750,0.0,1.000000,0.000000,0.000000,0.000000
1782117316.372327,1819733,-0.470215,0.067871,-0.714355,38.109756,66.768295,-22.865854,-1.087500,38.556252,6.993750,0.0,1.000000,0.000000,0.000000,0.000000
1782117316.379327,1819740,-0.577637,0.082520,-0.553223,33.963417,78.719513,-15.304878,-0.868750,38.981251,6.768750,0.0,1.000000,0.000000,0.000000,0.000000
1782117316.389327,1819750,-0.707031,0.046387,-0.377441,35.121952,89.085365,-11.402439,-0.868750,38.981251,6.768750,0.0,1.000000,0.000000,0.000000,0.000000
1782117316.399327,1819760,-0.854492,0.037109,-0.243164,45.975613,88.536591,-15.670732,-0.868750,39.206249,6.037500,0.0,1.000000,0.000000,0.000000,0.000000
1782117316.410327,1819771,-0.879395,0.116211,-0.152832,50.731709,72.621956,-28.963415,-0.868750,39.206249,6.037500,0.0,1.000000,0.000000,0.000000,0.000000
1782117316.419327,1819780,-0.902344,0.226562,-0.096191,35.304878,61.219513,-40.548782,-0.743750,39.500000,5.468750,0.0,1.000000,0.000000,0.000000,0.000000
1782117316.429327,1819790,-1.181641,0.368164,-0.056152,15.853659,64.512199,-32.804878,-0.743750,39.500000,5.468750,0.0,1.000000,0.000000,0.000000,0.000000
1782117316.439327,1819800,-2.002441,0.545410,-0.075684,3.414634,98.719513,13.048780,-0.931250,39.750000,4.687500,0.0,1.000000,0.000000,0.000000,0.000000
1782117316.450327,1819811,-2.522461,0.500488,0.131836,19.146341,80.792686,35.975609,-0.393750,40.381252,3.300000,0.0,1.000000,0.000000,0.000000,0.000000
1782117316.459327,1819820,-2.004395,0.351074,0.624023,48.475613,-23.963415,4.756098,-0.393750,40.381252,3.300000,0.0,1.000000,0.000000,0.000000,0.000000
1782117316.469327,1819830,-1.165039,0.394043,0.634277,59.207317,-45.121952,-30.121952,-0.393750,40.381252,3.300000,0.0,1.000000,0.000000,0.000000,0.000000
1782117316.479327,1819840,-0.794434,0.355957,0.380371,34.451221,-26.219513,-44.207317,-0.162500,40.856251,3.137500,0.0,1.000000,0.000000,0.000000,0.000000
1782117316.491327,1819852,-0.692871,0.244629,0.128418,-21.951220,-10.426829,-50.365856,-0.925000,40.581249,2.731250,0.0,1.000000,0.000000,0.000000,0.000000
1782117316.500327,1819861,-0.806641,0.246094,-0.041992,-70.304878,0.853659,-38.109756,-0.925000,40.581249,2.731250,0.0,1.000000,0.000000,0.000000,0.000000
1782117316.509327,1819870,-0.887207,0.182617,-0.107422,-88.109756,-5.121951,-11.158537,-1.668750,39.612499,2.318750,0.0,1.000000,0.000000,0.000000,0.000000
1782117316.519327,1819880,-0.914062,0.034668,-0.161133,-82.195122,-18.597561,7.682927,-1.668750,39.612499,2.318750,0.0,1.000000,0.000000,0.000000,0.000000
1782117316.531327,1819892,-0.958984,-0.117188,-0.228027,-59.573174,-21.341463,12.256098,-1.775000,38.856251,2.550000,0.0,1.000000,0.000000,0.000000,0.000000
1782117316.540327,1819901,-1.103516,-0.163086,-0.290039,-44.207317,-12.621951,5.487805,-1.775000,38.856251,2.550000,0.0,1.000000,0.000000,0.000000,0.000000
1782117316.549327,1819910,-1.150391,-0.091309,-0.319824,-36.524391,-11.280488,-5.548780,-1.937500,38.543751,2.937500,0.0,1.000000,0.000000,0.000000,0.000000
1782117316.560327,1819921,-1.051270,-0.002441,-0.336426,-36.158539,-18.902439,-14.756098,-1.937500,38.543751,2.937500,0.0,1.000000,0.000000,0.000000,0.000000
1782117316.572327,1819933,-0.921875,0.027832,-0.385742,-37.682926,-19.878050,-20.121952,-2.450000,38.468750,3.337500,0.0,1.000000,0.000000,0.000000,0.000000
1782117316.580327,1819941,-0.857910,0.020020,-0.379395,-39.085365,-8.719512,-20.121952,-2.450000,38.468750,3.337500,0.0,1.000000,0.000000,0.000000,0.000000
1782117316.590327,1819951,-0.854004,0.018066,-0.339844,-40.914635,2.378049,-17.804878,-3.012500,38.812500,3.543750,0.0,1.000000,0.000000,0.000000,0.000000
1782117316.599327,1819960,-0.878418,0.023438,-0.260254,-41.158539,11.890244,-14.085366,-3.012500,38.812500,3.543750,0.0,1.000000,0.000000,0.000000,0.000000
1782117316.612327,1819973,-0.943359,-0.033691,-0.175293,-37.987804,21.036587,-10.426829,-3.487500,39.018749,3.331250,0.0,1.000000,0.000000,0.000000,0.000000
1782117316.619327,1819980,-0.943359,-0.033691,-0.175293,-37.987804,21.036587,-10.426829,-3.487500,39.018749,3.331250,0.0,1.000000,0.000000,0.000000,0.000000
1782117316.629327,1819990,-1.006836,-0.093750,-0.122559,-32.500000,22.926830,-7.134147,-3.593750,39.331249,2.831250,0.0,1.000000,0.000000,0.000000,0.000000
1782117316.639327,1820000,-1.004395,-0.145020,-0.112305,-24.695122,20.914635,-4.939024,-3.593750,39.331249,2.831250,0.0,1.000000,0.000000,0.000000,0.000000
1782117316.652327,1820013,-0.984375,-0.152344,-0.122070,-3.719512,25.304878,-1.951220,-3.550000,39.537502,2.343750,0.0,1.000000,0.000000,0.000000,0.000000
1782117316.659327,1820020,-0.984375,-0.152344,-0.122070,-3.719512,25.304878,-1.951220,-3.550000,39.537502,2.343750,0.0,1.000000,0.000000,0.000000,0.000000
1782117316.669327,1820030,-1.007812,-0.116699,-0.092773,3.841464,22.987806,-1.585366,-3.568750,39.506252,1.987500,0.0,1.000000,0.000000,0.000000,0.000000
1782117316.679327,1820040,-1.062012,-0.102051,-0.079102,6.097561,17.134148,-2.743902,-3.568750,39.506252,1.987500,0.0,1.000000,0.000000,0.000000,0.000000
1782117316.691327,1820052,-1.071777,-0.071289,-0.096680,8.719512,10.670732,-5.609756,-3.781250,39.187500,1.743750,0.0,1.000000,0.000000,0.000000,0.000000
1782117316.700327,1820061,-1.036133,-0.037598,-0.105957,10.121951,8.292683,-9.390244,-3.781250,39.187500,1.743750,0.0,1.000000,0.000000,0.000000,0.000000
1782117316.709327,1820070,-1.013672,-0.022949,-0.111328,11.646341,12.256098,-12.012196,-3.787500,39.193752,1.750000,0.0,1.000000,0.000000,0.000000,0.000000
1782117316.720327,1820081,-1.012695,-0.041992,-0.135742,12.621951,13.963415,-13.231708,-3.787500,39.193752,1.750000,0.0,1.000000,0.000000,0.000000,0.000000
1782117316.731327,1820092,-1.001953,-0.059082,-0.158691,14.451220,13.597561,-12.621951,-3.981250,39.075001,1.662500,0.0,1.000000,0.000000,0.000000,0.000000
1782117316.739327,1820100,-1.001465,-0.063477,-0.172363,16.890244,10.792684,-10.060976,-3.981250,39.075001,1.662500,0.0,1.000000,0.000000,0.000000,0.000000
1782117316.750327,1820111,-0.995605,-0.047363,-0.170410,18.231709,5.975610,-6.585366,-4.000000,39.212502,1.743750,0.0,1.000000,0.000000,0.000000,0.000000
1782117316.759327,1820120,-0.995605,-0.036133,-0.169434,15.731708,0.792683,-3.414634,-4.000000,39.212502,1.743750,0.0,1.000000,0.000000,0.000000,0.000000
1782117316.771327,1820132,-0.987305,0.025879,-0.141113,10.731708,-1.951220,-2.256098,-3.793750,39.537502,1.856250,0.0,1.000000,0.000000,0.000000,0.000000
1782117316.779327,1820140,-0.974121,0.061035,-0.127930,3.109756,-1.524390,-1.890244,-4.000000,39.375000,1.881250,0.0,1.000000,0.000000,0.000000,0.000000
1782117316.789327,1820150,-0.962891,0.054688,-0.136719,-6.341464,1.097561,-2.987805,-4.000000,39.375000,1.881250,0.0,1.000000,0.000000,0.000000,0.000000
1782117316.799327,1820160,-0.953613,0.032227,-0.165039,-15.975610,4.512195,-4.695122,-4.168750,39.293751,1.762500,0.0,1.000000,0.000000,0.000000,0.000000
1782117316.811327,1820172,-0.949219,-0.009277,-0.204590,-22.987806,7.926829,-5.121951,-4.168750,39.293751,1.762500,0.0,1.000000,0.000000,0.000000,0.000000
1782117316.819327,1820180,-0.942871,-0.046387,-0.234863,-26.036587,12.682927,-5.000000,-4.050000,39.481251,1.468750,0.0,1.000000,0.000000,0.000000,0.000000
1782117316.829327,1820190,-0.959961,-0.072266,-0.241699,-25.853659,17.804878,-4.634146,-4.050000,39.481251,1.468750,0.0,1.000000,0.000000,0.000000,0.000000
1782117316.839327,1820200,-0.979980,-0.097656,-0.231445,-23.658537,18.231709,-4.146341,-4.500000,39.212502,1.050000,0.0,1.000000,0.000000,0.000000,0.000000
1782117316.852327,1820213,-1.020996,-0.120605,-0.204590,-22.682928,14.817074,-6.097561,-4.500000,39.212502,1.050000,0.0,1.000000,0.000000,0.000000,0.000000
1782117316.859327,1820220,-0.966309,-0.126465,-0.223145,-20.548780,11.341464,-6.463415,-4.693750,39.162502,0.781250,0.0,1.000000,0.000000,0.000000,0.000000
1782117316.869327,1820230,-0.950195,-0.130371,-0.236816,-15.426829,16.402439,-5.548780,-4.693750,39.162502,0.781250,0.0,1.000000,0.000000,0.000000,0.000000
1782117316.879327,1820240,-0.965332,-0.133789,-0.251953,-11.402439,20.670732,-4.695122,-4.762500,39.268749,0.550000,0.0,1.000000,0.000000,0.000000,0.000000
1782117316.891327,1820252,-0.992676,-0.133789,-0.258789,-7.682927,22.378050,-4.634146,-4.762500,39.268749,0.550000,0.0,1.000000,0.000000,0.000000,0.000000
1782117316.899327,1820260,-0.997559,-0.110352,-0.250000,-2.926829,22.560976,-4.451220,-4.543750,39.637501,0.331250,0.0,1.000000,0.000000,0.000000,0.000000
1782117316.909327,1820270,-0.994629,-0.083496,-0.240234,1.463415,22.378050,-3.597561,-4.543750,39.637501,0.331250,0.0,1.000000,0.000000,0.000000,0.000000
1782117316.919327,1820280,-1.000000,-0.046387,-0.211914,3.902439,21.890244,-3.170732,-4.850000,39.468750,0.018750,0.0,1.000000,0.000000,0.000000,0.000000
1782117316.929327,1820290,-0.985840,-0.006836,-0.192383,2.682927,21.890244,-2.682927,-4.850000,39.468750,0.018750,0.0,1.000000,0.000000,0.000000,0.000000
1782117316.939327,1820300,-0.978027,0.026855,-0.179199,-0.853659,20.000000,-2.682927,-4.893750,39.531250,-0.231250,0.0,1.000000,0.000000,0.000000,0.000000
1782117316.949327,1820310,-0.970703,0.051758,-0.187012,-3.841464,18.536585,-2.500000,-4.893750,39.531250,-0.231250,0.0,1.000000,0.000000,0.000000,0.000000
1782117316.959327,1820320,-0.963867,0.058105,-0.199707,-7.621952,15.304878,-2.500000,-4.987500,39.518749,-0.493750,0.0,1.000000,0.000000,0.000000,0.000000
1782117316.971327,1820332,-0.952148,0.054199,-0.198242,-11.158537,13.841464,-2.804878,-4.987500,39.518749,-0.493750,0.0,1.000000,0.000000,0.000000,0.000000
1782117316.979327,1820340,-0.962891,0.020020,-0.196289,-13.414635,13.841464,-3.414634,-5.093750,39.537502,-0.787500,0.0,1.000000,0.000000,0.000000,0.000000
1782117316.989327,1820350,-0.981445,-0.010254,-0.194824,-14.329268,15.365854,-3.536585,-5.093750,39.537502,-0.787500,0.0,1.000000,0.000000,0.000000,0.000000
1782117316.999327,1820360,-1.008789,-0.029297,-0.188477,-14.695123,14.146341,-3.597561,-5.225000,39.543751,-1.012500,0.0,1.000000,0.000000,0.000000,0.000000
1782117317.009327,1820370,-1.031738,-0.033203,-0.187012,-15.487805,9.878049,-4.024390,-5.225000,39.543751,-1.012500,0.0,1.000000,0.000000,0.000000,0.000000
1782117317.019327,1820380,-1.000977,-0.026367,-0.196289,-19.207317,1.646341,-5.304878,-5.418750,39.450001,-1.243750,0.0,1.000000,0.000000,0.000000,0.000000
1782117317.029327,1820390,-0.938477,-0.012695,-0.229492,-15.914635,5.731708,-2.073171,-5.418750,39.450001,-1.243750,0.0,1.000000,0.000000,0.000000,0.000000
1782117317.039327,1820400,-0.979492,-0.006836,-0.230957,-15.243903,5.182927,-1.341463,-5.431250,39.487499,-1.337500,0.0,1.000000,0.000000,0.000000,0.000000
1782117317.050327,1820411,-0.969727,-0.003418,-0.242676,-14.085366,2.195122,-0.182927,-5.431250,39.487499,-1.337500,0.0,1.000000,0.000000,0.000000,0.000000
1782117317.059327,1820420,-0.957520,-0.014160,-0.248047,-11.341464,0.914634,0.731707,-5.600000,39.487499,-1.493750,0.0,1.000000,0.000000,0.000000,0.000000
1782117317.069327,1820430,-0.958008,-0.029785,-0.241699,-7.926829,1.463415,0.914634,-5.600000,39.487499,-1.493750,0.0,1.000000,0.000000,0.000000,0.000000
1782117317.080327,1820441,-0.966309,-0.048828,-0.235352,-6.280488,3.536585,1.097561,-5.612500,39.518749,-1.518750,0.0,1.000000,0.000000,0.000000,0.000000
1782117317.090327,1820451,-0.970703,-0.073242,-0.248047,-5.975610,5.487805,1.341463,-5.612500,39.531250,-1.612500,0.0,1.000000,0.000000,0.000000,0.000000
1782117317.099327,1820460,-0.973145,-0.088867,-0.270020,-5.731708,7.134147,1.402439,-5.612500,39.531250,-1.612500,0.0,1.000000,0.000000,0.000000,0.000000
1782117317.110327,1820471,-0.981445,-0.086914,-0.285645,-4.207317,7.560976,1.524390,-5.543750,39.681252,-1.675000,0.0,1.000000,0.000000,0.000000,0.000000
1782117317.119327,1820480,-0.982910,-0.081543,-0.298340,-2.500000,6.219512,1.768293,-5.543750,39.681252,-1.675000,0.0,1.000000,0.000000,0.000000,0.000000
1782117317.130327,1820491,-0.971680,-0.063965,-0.309570,-0.121951,5.670732,1.951220,-5.693750,39.600002,-1.762500,0.0,1.000000,0.000000,0.000000,0.000000
1782117317.140327,1820501,-0.970215,-0.045898,-0.308594,1.463415,4.268293,1.890244,-5.693750,39.600002,-1.762500,0.0,1.000000,0.000000,0.000000,0.000000
1782117317.151327,1820512,-0.961914,-0.022461,-0.301758,2.012195,3.353659,1.463415,-5.481250,39.906250,-1.750000,0.0,1.000000,0.000000,0.000000,0.000000
1782117317.160327,1820521,-0.948242,-0.001953,-0.286621,1.768293,3.353659,1.036585,-5.481250,39.906250,-1.750000,0.0,1.000000,0.000000,0.000000,0.000000
1782117317.169327,1820530,-0.945801,-0.003418,-0.274414,0.792683,4.573171,1.219512,-5.700000,39.700001,-1.825000,0.0,1.000000,0.000000,0.000000,0.000000
1782117317.179327,1820540,-0.948730,-0.010254,-0.271973,-0.914634,5.487805,1.707317,-5.700000,39.700001,-1.825000,0.0,1.000000,0.000000,0.000000,0.000000
1782117317.189327,1820550,-0.950684,-0.015625,-0.275391,-2.378049,5.853659,2.317073,-5.681250,39.725002,-1.943750,0.0,1.000000,0.000000,0.000000,0.000000
1782117317.199327,1820560,-0.955566,-0.022949,-0.273926,-3.231707,6.158537,3.109756,-5.681250,39.725002,-1.943750,0.0,1.000000,0.000000,0.000000,0.000000
1782117317.209327,1820570,-0.956543,-0.019531,-0.269531,-3.963415,5.853659,3.902439,-5.668750,39.756252,-2.062500,0.0,1.000000,0.000000,0.000000,0.000000
1782117317.219327,1820580,-0.964844,-0.026855,-0.280762,-3.719512,5.670732,4.268293,-5.668750,39.756252,-2.062500,0.0,1.000000,0.000000,0.000000,0.000000
1782117317.229327,1820590,-0.968262,-0.018555,-0.269531,-3.414634,5.975610,4.146341,-5.587500,39.737499,-2.225000,0.0,1.000000,0.000000,0.000000,0.000000
1782117317.239327,1820600,-0.962891,-0.012207,-0.267578,-2.317073,5.487805,4.024390,-5.587500,39.737499,-2.225000,0.0,1.000000,0.000000,0.000000,0.000000
1782117317.249327,1820610,-0.955078,-0.010742,-0.268555,-3.048780,6.829268,3.536585,-5.687500,39.750000,-2.256250,0.0,1.000000,0.000000,0.000000,0.000000
1782117317.259327,1820620,-0.962891,-0.007324,-0.276855,-4.085366,8.231708,3.841464,-5.687500,39.750000,-2.256250,0.0,1.000000,0.000000,0.000000,0.000000
1782117317.269327,1820630,-0.992188,-0.013184,-0.296387,-4.146341,8.170732,5.182927,-5.612500,39.875000,-2.318750,0.0,1.000000,0.000000,0.000000,0.000000
1782117317.279327,1820640,-1.000977,-0.007324,-0.300293,-3.780488,6.463415,5.426829,-5.612500,39.875000,-2.318750,0.0,1.000000,0.000000,0.000000,0.000000
1782117317.289327,1820650,-0.989746,0.004395,-0.299316,-3.902439,4.268293,5.000000,-5.650000,39.825001,-2.506250,0.0,1.000000,0.000000,0.000000,0.000000
1782117317.299327,1820660,-0.974609,0.022949,-0.295898,-3.902439,2.560976,4.817073,-5.650000,39.825001,-2.506250,0.0,1.000000,0.000000,0.000000,0.000000
1782117317.309327,1820670,-0.960449,0.043457,-0.286133,-4.512195,1.768293,4.878049,-5.550000,39.887501,-2.587500,0.0,1.000000,0.000000,0.000000,0.000000
1782117317.319327,1820680,-0.956543,0.043945,-0.282227,-5.975610,1.951220,5.426829,-5.550000,39.887501,-2.587500,0.0,1.000000,0.000000,0.000000,0.000000
1782117317.329327,1820690,-0.960449,0.047852,-0.272461,-8.414635,2.317073,6.036585,-5.600000,39.906250,-2.656250,0.0,1.000000,0.000000,0.000000,0.000000
1782117317.339327,1820700,-0.965820,0.027832,-0.281250,-11.097561,1.890244,6.341464,-5.600000,39.906250,-2.656250,0.0,1.000000,0.000000,0.000000,0.000000
1782117317.349327,1820710,-0.960449,-0.000977,-0.288574,-13.780488,1.768293,5.914634,-5.518750,40.000000,-2.725000,0.0,1.000000,0.000000,0.000000,0.000000
1782117317.359327,1820720,-0.957031,-0.035645,-0.302246,-15.487805,1.219512,5.121951,-5.356250,40.174999,-2.750000,0.0,1.000000,0.000000,0.000000,0.000000
1782117317.369327,1820730,-0.948242,-0.055176,-0.323730,-16.341463,1.402439,4.146341,-5.356250,40.174999,-2.750000,0.0,1.000000,0.000000,0.000000,0.000000
1782117317.380327,1820741,-0.941895,-0.052246,-0.340820,-16.768293,2.073171,3.170732,-5.468750,40.106251,-2.962500,0.0,1.000000,0.000000,0.000000,0.000000
1782117317.389327,1820750,-0.935547,-0.032227,-0.340332,-16.646341,2.743902,3.048780,-5.468750,40.106251,-2.962500,0.0,1.000000,0.000000,0.000000,0.000000
1782117317.399327,1820760,-0.935059,-0.014160,-0.335449,-16.524391,3.902439,3.475610,-5.556250,40.056252,-3.062500,0.0,1.000000,0.000000,0.000000,0.000000
1782117317.409327,1820770,-0.936523,-0.008789,-0.333008,-17.012196,4.573171,4.390244,-5.556250,40.056252,-3.062500,0.0,1.000000,0.000000,0.000000,0.000000
1782117317.419327,1820780,-0.946289,-0.013184,-0.332520,-17.317074,4.939024,5.000000,-5.531250,40.075001,-3.300000,0.0,1.000000,0.000000,0.000000,0.000000
1782117317.429327,1820790,-0.956543,-0.017090,-0.329102,-17.743902,4.634146,5.670732,-5.531250,40.075001,-3.300000,0.0,1.000000,0.000000,0.000000,0.000000
1782117317.439327,1820800,-0.961914,-0.015625,-0.317871,-17.134148,3.963415,6.097561,-5.543750,40.125000,-3.331250,0.0,1.000000,0.000000,0.000000,0.000000
1782117317.449327,1820810,-0.961914,-0.015625,-0.317871,-17.134148,3.963415,6.097561,-5.543750,40.125000,-3.331250,0.0,1.000000,0.000000,0.000000,0.000000
1782117317.459327,1820820,-0.951660,-0.008301,-0.299316,-16.524391,2.378049,5.975610,-5.462500,40.293751,-3.525000,0.0,1.000000,0.000000,0.000000,0.000000
1782117317.469327,1820830,-0.942871,-0.013672,-0.289551,-15.792684,1.585366,5.487805,-5.462500,40.293751,-3.525000,0.0,1.000000,0.000000,0.000000,0.000000
1782117317.479327,1820840,-0.931152,-0.006348,-0.273438,-15.121951,1.768293,5.000000,-5.493750,40.256252,-3.712500,0.0,1.000000,0.000000,0.000000,0.000000
1782117317.489327,1820850,-0.919434,0.001953,-0.258789,-15.304878,2.195122,4.878049,-5.493750,40.256252,-3.712500,0.0,1.000000,0.000000,0.000000,0.000000
1782117317.500327,1820861,-0.959961,-0.017090,-0.270508,-16.219513,4.573171,6.341464,-5.550000,40.250000,-3.850000,0.0,1.000000,0.000000,0.000000,0.000000
1782117317.509327,1820870,-0.959961,-0.017090,-0.270508,-16.219513,4.573171,6.341464,-5.550000,40.250000,-3.850000,0.0,1.000000,0.000000,0.000000,0.000000
1782117317.519327,1820880,-0.994629,-0.023438,-0.276855,-16.585365,4.817073,7.439024,-5.525000,40.275002,-4.037500,0.0,1.000000,0.000000,0.000000,0.000000
1782117317.529327,1820890,-1.019531,-0.027344,-0.273926,-17.134148,3.170732,7.500000,-5.525000,40.275002,-4.037500,0.0,1.000000,0.000000,0.000000,0.000000
1782117317.541327,1820902,-1.022461,-0.024414,-0.260254,-17.439024,0.609756,6.585366,-5.250000,40.556252,-4.050000,0.0,1.000000,0.000000,0.000000,0.000000
1782117317.550327,1820911,-1.017578,-0.021484,-0.246582,-17.804878,-1.524390,5.487805,-5.250000,40.556252,-4.050000,0.0,1.000000,0.000000,0.000000,0.000000
1782117317.559327,1820920,-1.012207,-0.010742,-0.225586,-17.926830,-3.170732,4.939024,-5.425000,40.387501,-4.237500,0.0,1.000000,0.000000,0.000000,0.000000
1782117317.570327,1820931,-1.005371,0.008301,-0.215820,-18.658537,-5.487805,5.670732,-5.425000,40.387501,-4.237500,0.0,1.000000,0.000000,0.000000,0.000000
1782117317.579327,1820940,-0.998535,0.018555,-0.210449,-18.963415,-7.073171,7.073171,-5.475000,40.262501,-4.281250,0.0,1.000000,0.000000,0.000000,0.000000
1782117317.589327,1820950,-1.000977,0.027344,-0.208008,-19.085367,-8.658537,8.292683,-5.475000,40.262501,-4.281250,0.0,1.000000,0.000000,0.000000,0.000000
1782117317.599327,1820960,-0.999023,0.035645,-0.202148,-19.268293,-11.402439,10.304878,-5.450000,40.368752,-4.262500,0.0,1.000000,0.000000,0.000000,0.000000
1782117317.609327,1820970,-0.992676,0.038086,-0.199707,-18.231709,-13.231708,10.365854,-5.450000,40.368752,-4.262500,0.0,1.000000,0.000000,0.000000,0.000000
1782117317.620327,1820981,-0.980957,0.053711,-0.177246,-17.378050,-15.304878,10.000000,-5.412500,40.362499,-4.268750,0.0,1.000000,0.000000,0.000000,0.000000
1782117317.629327,1820990,-0.977051,0.056641,-0.168457,-15.121951,-16.036585,9.695122,-5.412500,40.362499,-4.268750,0.0,1.000000,0.000000,0.000000,0.000000
1782117317.639327,1821000,-0.991211,0.049805,-0.155273,-12.439025,-17.560976,10.365854,-5.287500,40.456249,-4.118750,0.0,1.000000,0.000000,0.000000,0.000000
1782117317.649327,1821010,-1.005371,0.052734,-0.155762,-9.085366,-18.475611,10.792684,-5.287500,40.456249,-4.118750,0.0,1.000000,0.000000,0.000000,0.000000
1782117317.659327,1821020,-1.030273,0.052734,-0.176758,-5.000000,-20.487804,12.317074,-5.325000,40.287502,-3.956250,0.0,1.000000,0.000000,0.000000,0.000000
1782117317.669327,1821030,-1.054688,0.057129,-0.206055,-1.463415,-23.719513,13.902439,-5.168750,40.343750,-3.725000,0.0,1.000000,0.000000,0.000000,0.000000
1782117317.679327,1821040,-1.047852,0.075684,-0.222656,2.195122,-26.341463,14.207317,-5.168750,40.343750,-3.725000,0.0,1.000000,0.000000,0.000000,0.000000
1782117317.689327,1821050,-1.027344,0.099609,-0.228516,5.609756,-28.414635,14.451220,-5.100000,40.256252,-3.287500,0.0,1.000000,0.000000,0.000000,0.000000
1782117317.699327,1821060,-1.015625,0.106934,-0.243164,7.987805,-28.475611,13.902439,-5.100000,40.256252,-3.287500,0.0,1.000000,0.000000,0.000000,0.000000
1782117317.709327,1821070,-0.999512,0.145996,-0.251465,8.048780,-27.195122,13.292684,-4.862500,40.306252,-2.925000,0.0,1.000000,0.000000,0.000000,0.000000
1782117317.719327,1821080,-0.999512,0.143066,-0.270020,7.621952,-25.060976,13.963415,-4.862500,40.306252,-2.925000,0.0,1.000000,0.000000,0.000000,0.000000
1782117317.729327,1821090,-0.986816,0.170898,-0.260742,7.439024,-22.012196,14.390244,-4.756250,40.387501,-2.556250,0.0,1.000000,0.000000,0.000000,0.000000
1782117317.739327,1821100,-0.986328,0.156250,-0.276855,5.914634,-18.597561,14.634147,-4.756250,40.387501,-2.556250,0.0,1.000000,0.000000,0.000000,0.000000
1782117317.749327,1821110,-0.982422,0.136230,-0.291016,3.109756,-15.121951,14.390244,-4.518750,40.512501,-2.287500,0.0,1.000000,0.000000,0.000000,0.000000
1782117317.759327,1821120,-0.991699,0.128418,-0.301270,0.975610,-11.646341,14.329268,-4.518750,40.512501,-2.287500,0.0,1.000000,0.000000,0.000000,0.000000
1782117317.770327,1821131,-1.017090,0.133301,-0.307129,-0.121951,-7.926829,14.085366,-4.481250,40.418751,-2.262500,0.0,1.000000,0.000000,0.000000,0.000000
1782117317.780327,1821141,-1.044922,0.122070,-0.317383,-0.731707,-6.646342,13.109756,-4.481250,40.418751,-2.262500,0.0,1.000000,0.000000,0.000000,0.000000
1782117317.789327,1821150,-1.045898,0.115234,-0.320801,-1.158537,-6.524390,10.121951,-4.318750,40.587502,-2.156250,0.0,1.000000,0.000000,0.000000,0.000000
1782117317.799327,1821160,-1.029297,0.102051,-0.341309,-2.439024,-8.475610,7.804878,-4.318750,40.587502,-2.156250,0.0,1.000000,0.000000,0.000000,0.000000
1782117317.809327,1821170,-1.001465,0.113770,-0.354004,-1.219512,-9.573171,6.280488,-4.275000,40.518749,-2.181250,0.0,1.000000,0.000000,0.000000,0.000000
1782117317.819327,1821180,-0.971680,0.116699,-0.353516,2.743902,-10.182927,5.670732,-4.275000,40.518749,-2.181250,0.0,1.000000,0.000000,0.000000,0.000000
1782117317.829327,1821190,-0.937500,0.102539,-0.345703,7.012195,-10.000000,5.304878,-4.225000,40.468750,-2.075000,0.0,1.000000,0.000000,0.000000,0.000000
1782117317.839327,1821200,-0.919922,0.067383,-0.347168,9.451220,-8.536586,4.207317,-4.225000,40.468750,-2.075000,0.0,1.000000,0.000000,0.000000,0.000000
1782117317.849327,1821210,-0.908691,0.056641,-0.357910,10.670732,-5.853659,2.378049,-4.212500,40.325001,-1.956250,0.0,1.000000,0.000000,0.000000,0.000000
1782117317.860327,1821221,-0.895996,0.063965,-0.375977,11.890244,-1.829268,0.975610,-4.212500,40.325001,-1.956250,0.0,1.000000,0.000000,0.000000,0.000000
1782117317.869327,1821230,-0.873535,0.072266,-0.382812,12.926829,1.890244,-0.060976,-4.106250,40.256252,-1.887500,0.0,1.000000,0.000000,0.000000,0.000000
1782117317.879327,1821240,-0.863770,0.061523,-0.367676,14.329268,5.914634,-0.182927,-4.106250,40.256252,-1.887500,0.0,1.000000,0.000000,0.000000,0.000000
1782117317.889327,1821250,-0.877930,0.042969,-0.335449,16.829269,9.024390,-0.853659,-4.125000,40.125000,-1.912500,0.0,1.000000,0.000000,0.000000,0.000000
1782117317.899327,1821260,-0.902832,0.021484,-0.295410,21.524391,10.731708,-1.707317,-4.125000,40.125000,-1.912500,0.0,1.000000,0.000000,0.000000,0.000000
1782117317.909327,1821270,-0.935059,0.006836,-0.255371,27.439026,10.060976,-2.012195,-4.056250,40.200001,-1.875000,0.0,1.000000,0.000000,0.000000,0.000000
1782117317.919327,1821280,-0.958008,0.005859,-0.231445,33.597561,5.914634,-1.951220,-4.056250,40.200001,-1.875000,0.0,1.000000,0.000000,0.000000,0.000000
1782117317.929327,1821290,-0.946777,0.040527,-0.212402,39.085365,-0.182927,-2.500000,-4.093750,40.137501,-1.818750,0.0,1.000000,0.000000,0.000000,0.000000
1782117317.941327,1821302,-0.918945,0.110352,-0.201660,40.853661,-5.487805,-2.560976,-4.093750,40.137501,-1.818750,0.0,1.000000,0.000000,0.000000,0.000000
1782117317.949327,1821310,-0.886719,0.190430,-0.204590,37.804878,-8.231708,-2.439024,-4.062500,40.193752,-1.512500,0.0,1.000000,0.000000,0.000000,0.000000
1782117317.960327,1821321,-0.860840,0.264160,-0.195801,32.743904,-8.231708,-1.951220,-4.056250,40.156250,-1.262500,0.0,1.000000,0.000000,0.000000,0.000000
1782117317.969327,1821330,-0.846680,0.288574,-0.183105,25.365854,-5.975610,-1.219512,-4.056250,40.156250,-1.262500,0.0,1.000000,0.000000,0.000000,0.000000
1782117317.980327,1821341,-0.862793,0.262207,-0.172852,17.195122,-2.621951,-1.219512,-4.025000,40.200001,-1.050000,0.0,1.000000,0.000000,0.000000,0.000000
1782117317.989327,1821350,-0.908203,0.204590,-0.176758,11.158537,-0.548781,-2.378049,-4.025000,40.200001,-1.050000,0.0,1.000000,0.000000,0.000000,0.000000
1782117317.999327,1821360,-0.950195,0.161133,-0.166992,7.378049,-0.243902,-3.963415,-4.000000,40.181252,-0.993750,0.0,1.000000,0.000000,0.000000,0.000000
1782117318.009327,1821370,-0.987305,0.131348,-0.145508,4.390244,-1.646341,-5.182927,-4.000000,40.181252,-0.993750,0.0,1.000000,0.000000,0.000000,0.000000
1782117318.021327,1821382,-1.002930,0.115234,-0.128906,0.914634,-5.000000,-6.341464,-3.937500,40.268749,-0.931250,0.0,1.000000,0.000000,0.000000,0.000000
1782117318.029327,1821390,-0.994629,0.110840,-0.125000,-3.597561,-7.804878,-8.170732,-3.937500,40.268749,-0.931250,0.0,1.000000,0.000000,0.000000,0.000000
1782117318.039327,1821400,-0.951172,0.094238,-0.148926,-8.902439,-8.719512,-10.243902,-4.106250,40.218750,-0.950000,0.0,1.000000,0.000000,0.000000,0.000000
1782117318.049327,1821410,-0.914062,0.083496,-0.224609,-15.060976,-4.756098,-12.134147,-4.106250,40.218750,-0.950000,0.0,1.000000,0.000000,0.000000,0.000000
1782117318.062327,1821423,-0.935059,0.104004,-0.330078,-21.768293,3.841464,-11.097561,-4.162500,40.312500,-0.893750,0.0,1.000000,0.000000,0.000000,0.000000
1782117318.069327,1821430,-0.986328,0.124512,-0.415039,-28.658537,14.817074,-6.890244,-4.162500,40.312500,-0.893750,0.0,1.000000,0.000000,0.000000,0.000000
1782117318.079327,1821440,-1.019531,0.118164,-0.451660,-35.975609,21.585367,-4.939024,-4.406250,40.062500,-1.256250,0.0,1.000000,0.000000,0.000000,0.000000
1782117318.089327,1821450,-1.015625,0.069824,-0.445312,-38.414635,24.756098,-6.280488,-4.406250,40.062500,-1.256250,0.0,1.000000,0.000000,0.000000,0.000000
1782117318.099327,1821460,-1.020508,0.004883,-0.398926,-29.939026,25.548780,-7.926829,-4.487500,40.206249,-1.750000,0.0,1.000000,0.000000,0.000000,0.000000
1782117318.109327,1821470,-1.022949,-0.036621,-0.312012,-14.146341,23.597561,-9.024390,-4.487500,40.206249,-1.750000,0.0,1.000000,0.000000,0.000000,0.000000
1782117318.119327,1821480,-1.033203,-0.112305,-0.242676,1.524390,18.963415,-11.036586,-4.562500,40.368752,-2.062500,0.0,1.000000,0.000000,0.000000,0.000000
1782117318.129327,1821490,-1.026367,-0.149902,-0.215820,15.000000,13.292684,-12.682927,-4.562500,40.368752,-2.062500,0.0,1.000000,0.000000,0.000000,0.000000
1782117318.140327,1821501,-1.005371,-0.099609,-0.219238,24.085367,7.682927,-12.439025,-4.768750,40.206249,-2.175000,0.0,1.000000,0.000000,0.000000,0.000000
1782117318.149327,1821510,-0.975586,-0.018066,-0.240234,28.048780,3.841464,-9.878049,-4.768750,40.206249,-2.175000,0.0,1.000000,0.000000,0.000000,0.000000
1782117318.159327,1821520,-0.954590,0.049805,-0.261719,29.268293,2.317073,-6.158537,-4.793750,40.193752,-2.143750,0.0,1.000000,0.000000,0.000000,0.000000
1782117318.170327,1821531,-0.947754,0.107422,-0.270020,29.695122,1.951220,-2.804878,-4.793750,40.193752,-2.143750,0.0,1.000000,0.000000,0.000000,0.000000
1782117318.179327,1821540,-0.963867,0.152344,-0.258789,29.939026,1.524390,-1.219512,-4.750000,40.068752,-2.006250,0.0,1.000000,0.000000,0.000000,0.000000
1782117318.189327,1821550,-0.975586,0.170898,-0.232910,29.329269,-0.670732,-1.341463,-4.750000,40.068752,-2.006250,0.0,1.000000,0.000000,0.000000,0.000000
1782117318.200327,1821561,-0.977539,0.162598,-0.205078,28.353659,-2.682927,-3.170732,-4.662500,40.062500,-1.806250,0.0,1.000000,0.000000,0.000000,0.000000
1782117318.209327,1821570,-0.983398,0.121582,-0.204102,27.621952,-3.841464,-5.121951,-4.662500,40.062500,-1.806250,0.0,1.000000,0.000000,0.000000,0.000000
1782117318.219327,1821580,-0.987793,0.100098,-0.199219,27.073172,-5.853659,-6.402439,-4.668750,40.043751,-1.612500,0.0,1.000000,0.000000,0.000000,0.000000
1782117318.229327,1821590,-0.990234,0.073242,-0.216797,23.414635,-8.902439,-7.256098,-4.668750,40.043751,-1.612500,0.0,1.000000,0.000000,0.000000,0.000000
1782117318.239327,1821600,-0.991211,0.081543,-0.233398,17.134148,-12.012196,-7.317073,-4.668750,40.125000,-1.418750,0.0,1.000000,0.000000,0.000000,0.000000
1782117318.250327,1821611,-0.987793,0.100586,-0.248535,11.707317,-15.182927,-6.646342,-4.762500,39.906250,-1.287500,0.0,1.000000,0.000000,0.000000,0.000000
1782117318.259327,1821620,-0.975098,0.100586,-0.250488,7.743903,-17.621952,-5.914634,-4.762500,39.906250,-1.287500,0.0,1.000000,0.000000,0.000000,0.000000
1782117318.269327,1821630,-0.956543,0.082031,-0.250000,4.756098,-17.439024,-5.975610,-4.687500,39.893749,-1.006250,0.0,1.000000,0.000000,0.000000,0.000000
1782117318.279327,1821640,-0.950684,0.063477,-0.252441,1.463415,-15.060976,-5.914634,-4.687500,39.893749,-1.006250,0.0,1.000000,0.000000,0.000000,0.000000
1782117318.289327,1821650,-0.950684,0.063477,-0.252441,1.463415,-15.060976,-5.914634,-4.631250,39.756252,-0.787500,0.0,1.000000,0.000000,0.000000,0.000000
1782117318.299327,1821660,-0.969238,0.044922,-0.240723,-1.585366,-13.719513,-5.060976,-4.631250,39.756252,-0.787500,0.0,1.000000,0.000000,0.000000,0.000000
1782117318.309327,1821670,-0.976562,0.006836,-0.230469,-3.841464,-14.207317,-3.963415,-4.750000,39.618752,-0.618750,0.0,1.000000,0.000000,0.000000,0.000000
1782117318.319327,1821680,-0.975098,-0.028809,-0.231934,-6.646342,-15.182927,-4.146341,-4.750000,39.618752,-0.618750,0.0,1.000000,0.000000,0.000000,0.000000
1782117318.329327,1821690,-0.967285,-0.048340,-0.242676,-9.024390,-15.365854,-4.878049,-4.887500,39.500000,-0.468750,0.0,1.000000,0.000000,0.000000,0.000000
1782117318.339327,1821700,-0.965820,-0.051270,-0.247559,-9.451220,-14.878049,-6.036585,-4.887500,39.500000,-0.468750,0.0,1.000000,0.000000,0.000000,0.000000
1782117318.351327,1821712,-0.972656,-0.068848,-0.262207,-8.109756,-13.414635,-7.317073,-4.987500,39.481251,-0.356250,0.0,1.000000,0.000000,0.000000,0.000000
1782117318.359327,1821720,-0.976074,-0.090820,-0.275391,-5.365854,-11.524390,-8.536586,-4.987500,39.481251,-0.356250,0.0,1.000000,0.000000,0.000000,0.000000
1782117318.369327,1821730,-0.979980,-0.098145,-0.282715,-2.012195,-10.060976,-9.146341,-5.143750,39.325001,-0.300000,0.0,1.000000,0.000000,0.000000,0.000000
1782117318.379327,1821740,-0.984375,-0.104004,-0.278809,1.280488,-9.512196,-8.780488,-5.143750,39.325001,-0.300000,0.0,1.000000,0.000000,0.000000,0.000000
1782117318.390327,1821751,-0.982422,-0.094727,-0.265625,3.780488,-9.878049,-7.378049,-5.087500,39.431252,-0.168750,0.0,1.000000,0.000000,0.000000,0.000000
1782117318.399327,1821760,-0.984375,-0.096680,-0.264648,6.280488,-10.182927,-5.670732,-5.087500,39.431252,-0.168750,0.0,1.000000,0.000000,0.000000,0.000000
1782117318.409327,1821770,-0.982910,-0.086426,-0.261230,8.597561,-10.914635,-3.658537,-5.206250,39.275002,-0.087500,0.0,1.000000,0.000000,0.000000,0.000000
1782117318.419327,1821780,-0.975098,-0.071289,-0.252441,11.829268,-12.317074,-2.317073,-5.206250,39.275002,-0.087500,0.0,1.000000,0.000000,0.000000,0.000000
1782117318.429327,1821790,-0.955078,-0.062500,-0.246094,14.512196,-13.231708,-1.829268,-5.375000,39.081249,0.125000,0.0,1.000000,0.000000,0.000000,0.000000
1782117318.439327,1821800,-0.938965,-0.064453,-0.250977,17.560976,-11.707317,-2.073171,-5.375000,39.081249,0.125000,0.0,1.000000,0.000000,0.000000,0.000000
1782117318.449327,1821810,-0.926758,-0.054688,-0.256836,20.670732,-8.536586,-1.829268,-5.381250,38.981251,0.325000,0.0,1.000000,0.000000,0.000000,0.000000
1782117318.459327,1821820,-0.930176,-0.034668,-0.252930,24.085367,-5.426829,-0.670732,-5.381250,38.981251,0.325000,0.0,1.000000,0.000000,0.000000,0.000000
1782117318.470327,1821831,-0.942871,-0.021484,-0.241699,26.768293,-2.560976,1.158537,-5.225000,39.068752,0.418750,0.0,1.000000,0.000000,0.000000,0.000000
1782117318.479327,1821840,-0.959473,-0.013184,-0.221191,28.109756,-1.280488,2.987805,-5.225000,39.068752,0.418750,0.0,1.000000,0.000000,0.000000,0.000000
1782117318.489327,1821850,-0.976074,-0.020508,-0.202148,28.963415,0.121951,4.573171,-5.281250,38.962502,0.506250,0.0,1.000000,0.000000,0.000000,0.000000
1782117318.499327,1821860,-0.998047,-0.021484,-0.178223,30.000000,0.426829,5.914634,-5.281250,38.962502,0.506250,0.0,1.000000,0.000000,0.000000,0.000000
1782117318.509327,1821870,-1.030273,-0.028320,-0.154785,31.585367,-0.182927,7.500000,-5.112500,39.062500,0.631250,0.0,1.000000,0.000000,0.000000,0.000000
1782117318.519327,1821880,-1.050293,-0.046387,-0.128906,33.780487,-2.195122,8.292683,-5.112500,39.062500,0.631250,0.0,1.000000,0.000000,0.000000,0.000000
1782117318.529327,1821890,-1.044434,-0.068848,-0.114258,35.670734,-4.268293,7.012195,-4.856250,39.150002,0.743750,0.0,1.000000,0.000000,0.000000,0.000000
1782117318.539327,1821900,-1.030273,-0.068848,-0.116699,35.914635,-4.512195,4.878049,-4.856250,39.150002,0.743750,0.0,1.000000,0.000000,0.000000,0.000000
1782117318.550327,1821911,-1.014648,-0.054199,-0.125000,34.329269,-3.658537,2.987805,-4.618750,39.225002,0.918750,0.0,1.000000,0.000000,0.000000,0.000000
1782117318.560327,1821921,-1.000977,-0.028809,-0.132812,31.890245,-2.378049,1.585366,-4.337500,39.512501,1.162500,0.0,1.000000,0.000000,0.000000,0.000000
1782117318.569327,1821930,-0.994141,0.005859,-0.133789,28.353659,-1.280488,0.426829,-4.337500,39.512501,1.162500,0.0,1.000000,0.000000,0.000000,0.000000
1782117318.581327,1821942,-0.984375,0.046387,-0.130859,23.841463,-0.487805,-0.792683,-4.550000,39.237499,1.125000,0.0,1.000000,0.000000,0.000000,0.000000
1782117318.590327,1821951,-0.966309,0.082520,-0.126465,18.170732,0.060976,-2.621951,-4.550000,39.237499,1.125000,0.0,1.000000,0.000000,0.000000,0.000000
1782117318.600327,1821961,-0.950195,0.118652,-0.127441,10.914635,2.621951,-4.878049,-3.831250,40.000000,1.250000,0.0,1.000000,0.000000,0.000000,0.000000
1782117318.609327,1821970,-0.954102,0.156250,-0.129883,2.317073,5.792683,-6.341464,-3.831250,40.000000,1.250000,0.0,1.000000,0.000000,0.000000,0.000000
1782117318.619327,1821980,-0.955566,0.178711,-0.124023,-7.195122,8.109756,-7.621952,-4.600000,39.331249,1.006250,0.0,1.000000,0.000000,0.000000,0.000000
1782117318.630327,1821991,-0.936523,0.190918,-0.116699,-17.865854,10.853659,-9.329268,-4.600000,39.331249,1.006250,0.0,1.000000,0.000000,0.000000,0.000000
1782117318.640327,1822001,-0.915527,0.185547,-0.128906,-30.243902,15.365854,-11.402439,-4.762500,39.375000,0.762500,0.0,1.000000,0.000000,0.000000,0.000000
1782117318.649327,1822010,-0.907715,0.162598,-0.159668,-41.829269,22.195122,-12.317074,-4.762500,39.375000,0.762500,0.0,1.000000,0.000000,0.000000,0.000000
1782117318.659327,1822020,-0.913574,0.117188,-0.184082,-49.329269,28.841465,-11.768293,-5.118750,39.225002,0.193750,0.0,1.000000,0.000000,0.000000,0.000000
1782117318.670327,1822031,-0.917480,0.050781,-0.203125,-54.024391,33.536587,-12.256098,-5.118750,39.225002,0.193750,0.0,1.000000,0.000000,0.000000,0.000000
1782117318.679327,1822040,-0.919434,-0.009766,-0.231445,-57.621952,37.865856,-13.841464,-5.400000,39.162502,-0.556250,0.0,1.000000,0.000000,0.000000,0.000000
1782117318.689327,1822050,-0.931152,-0.053711,-0.264160,-59.695122,41.829269,-15.182927,-5.400000,39.162502,-0.556250,0.0,1.000000,0.000000,0.000000,0.000000
1782117318.699327,1822060,-0.952148,-0.095215,-0.293457,-58.414635,44.146343,-15.426829,-5.650000,39.156250,-1.350000,0.0,1.000000,0.000000,0.000000,0.000000
1782117318.709327,1822070,-0.979004,-0.135742,-0.307129,-53.719513,43.597561,-15.121951,-5.650000,39.156250,-1.350000,0.0,1.000000,0.000000,0.000000,0.000000
1782117318.719327,1822080,-0.997559,-0.161621,-0.307617,-46.341465,40.914635,-14.024390,-5.962500,39.181252,-2.056250,0.0,1.000000,0.000000,0.000000,0.000000
1782117318.729327,1822090,-1.023438,-0.176758,-0.299316,-37.682926,37.804878,-11.707317,-5.962500,39.181252,-2.056250,0.0,1.000000,0.000000,0.000000,0.000000
1782117318.739327,1822100,-1.047852,-0.200195,-0.272949,-27.804878,34.939026,-8.353659,-6.143750,39.237499,-2.687500,0.0,1.000000,0.000000,0.000000,0.000000
1782117318.749327,1822110,-1.075195,-0.217773,-0.233398,-17.073172,30.975611,-4.512195,-6.143750,39.237499,-2.687500,0.0,1.000000,0.000000,0.000000,0.000000
1782117318.759327,1822120,-1.110352,-0.223145,-0.190918,-4.756098,24.817074,-0.670732,-6.106250,39.450001,-3.081250,0.0,1.000000,0.000000,0.000000,0.000000
1782117318.769327,1822130,-1.143066,-0.229980,-0.143555,6.890244,16.158537,1.951220,-6.106250,39.450001,-3.081250,0.0,1.000000,0.000000,0.000000,0.000000
1782117318.779327,1822140,-1.157715,-0.213867,-0.103027,15.182927,5.975610,2.926829,-5.881250,39.587502,-3.187500,0.0,1.000000,0.000000,0.000000,0.000000
1782117318.790327,1822151,-1.167969,-0.169922,-0.066895,19.512196,-2.195122,2.560976,-5.881250,39.587502,-3.187500,0.0,1.000000,0.000000,0.000000,0.000000
1782117318.800327,1822161,-1.140137,-0.096191,-0.037109,22.012196,-9.451220,2.012195,-5.943750,39.325001,-3.156250,0.0,1.000000,0.000000,0.000000,0.000000
1782117318.809327,1822170,-1.063965,-0.019531,-0.024902,22.439024,-13.109756,1.097561,-5.943750,39.325001,-3.156250,0.0,1.000000,0.000000,0.000000,0.000000
1782117318.820327,1822181,-0.991211,0.043457,-0.048828,19.329269,-11.768293,0.914634,-6.037500,39.093750,-2.887500,0.0,1.000000,0.000000,0.000000,0.000000
1782117318.831327,1822192,-0.949219,0.095703,-0.105957,13.414635,-8.170732,1.158537,-6.037500,39.093750,-2.887500,0.0,1.000000,0.000000,0.000000,0.000000
1782117318.839327,1822200,-0.924316,0.134766,-0.178223,6.036585,-5.853659,1.341463,-6.006250,39.018749,-2.743750,0.0,1.000000,0.000000,0.000000,0.000000
1782117318.849327,1822210,-0.892578,0.161621,-0.244141,-0.487805,-2.682927,2.195122,-6.006250,39.018749,-2.743750,0.0,1.000000,0.000000,0.000000,0.000000
1782117318.860327,1822221,-0.881836,0.161621,-0.289062,-6.585366,1.341463,2.621951,-6.093750,38.993752,-2.606250,0.0,1.000000,0.000000,0.000000,0.000000
1782117318.870327,1822231,-0.885254,0.136719,-0.319336,-11.402439,5.060976,3.170732,-6.075000,39.131252,-2.700000,0.0,1.000000,0.000000,0.000000,0.000000
1782117318.879327,1822240,-0.897949,0.087402,-0.333984,-15.426829,8.048780,3.353659,-6.075000,39.131252,-2.700000,0.0,1.000000,0.000000,0.000000,0.000000
1782117318.889327,1822250,-0.912598,0.014648,-0.344238,-18.048780,9.939025,3.292683,-6.081250,39.318752,-2.825000,0.0,1.000000,0.000000,0.000000,0.000000
1782117318.899327,1822260,-0.934570,-0.053223,-0.351562,-18.902439,9.817074,3.048780,-6.081250,39.318752,-2.825000,0.0,1.000000,0.000000,0.000000,0.000000
1782117318.911327,1822272,-0.946289,-0.111816,-0.361816,-18.841463,8.231708,2.743902,-6.062500,39.468750,-2.943750,0.0,1.000000,0.000000,0.000000,0.000000
1782117318.919327,1822280,-0.952148,-0.143555,-0.364258,-17.865854,6.402439,2.743902,-6.062500,39.468750,-2.943750,0.0,1.000000,0.000000,0.000000,0.000000
1782117318.929327,1822290,-0.954590,-0.143555,-0.357422,-16.707317,5.609756,2.682927,-6.018750,39.537502,-3.106250,0.0,1.000000,0.000000,0.000000,0.000000
1782117318.939327,1822300,-0.957520,-0.141602,-0.345215,-14.268293,6.036585,2.987805,-6.018750,39.537502,-3.106250,0.0,1.000000,0.000000,0.000000,0.000000
1782117318.950327,1822311,-0.956055,-0.128418,-0.332520,-9.207317,6.097561,3.170732,-5.987500,39.475002,-3.293750,0.0,1.000000,0.000000,0.000000,0.000000
1782117318.959327,1822320,-0.959473,-0.103516,-0.316895,-2.987805,6.097561,3.353659,-5.987500,39.475002,-3.293750,0.0,1.000000,0.000000,0.000000,0.000000
1782117318.969327,1822330,-0.970703,-0.078125,-0.302734,2.865854,5.914634,3.780488,-6.018750,39.437500,-3.356250,0.0,1.000000,0.000000,0.000000,0.000000
1782117318.979327,1822340,-0.976074,-0.047363,-0.292969,6.768293,4.634146,3.719512,-6.018750,39.437500,-3.356250,0.0,1.000000,0.000000,0.000000,0.000000
1782117318.990327,1822351,-0.968262,-0.024414,-0.288086,8.963415,3.780488,3.536585,-5.887500,39.500000,-3.375000,0.0,1.000000,0.000000,0.000000,0.000000
1782117319.000327,1822361,-0.966797,0.000977,-0.289062,10.182927,3.597561,3.353659,-5.887500,39.500000,-3.375000,0.0,1.000000,0.000000,0.000000,0.000000
1782117319.009327,1822370,-0.968262,0.008789,-0.289551,11.097561,3.109756,3.536585,-5.893750,39.600002,-3.406250,0.0,1.000000,0.000000,0.000000,0.000000
1782117319.019327,1822380,-0.968262,0.012695,-0.288574,12.134147,1.951220,3.963415,-5.893750,39.600002,-3.406250,0.0,1.000000,0.000000,0.000000,0.000000
1782117319.031327,1822392,-0.968750,0.018066,-0.287109,12.317074,1.097561,4.390244,-5.881250,39.631252,-3.318750,0.0,1.000000,0.000000,0.000000,0.000000
1782117319.040327,1822401,-0.970703,0.019043,-0.285645,11.585366,0.487805,4.939024,-5.881250,39.631252,-3.318750,0.0,1.000000,0.000000,0.000000,0.000000
1782117319.050327,1822411,-0.969727,0.016602,-0.291504,9.512196,-0.426829,5.182927,-5.893750,39.743752,-3.256250,0.0,1.000000,0.000000,0.000000,0.000000
1782117319.059327,1822420,-0.965332,0.015137,-0.298340,6.463415,-1.158537,4.878049,-5.893750,39.743752,-3.256250,0.0,1.000000,0.000000,0.000000,0.000000
1782117319.073327,1822434,-0.954102,0.013184,-0.305664,3.353659,-1.707317,4.329268,-5.837500,39.662502,-3.137500,0.0,1.000000,0.000000,0.000000,0.000000
