Unix_Time_s,EMG_t_s,sample_idx,fs,gain,flags,emg_valid,ch1_raw_uV,ch1_filt_uV,ch1_env_uV,ch2_raw_uV,ch2_filt_uV,ch2_env_uV
1782117313.129327,0.000000,1759320,1000,12,0,1,109.823,-2.918,13.511,632.801,15.577,16.281
1782117313.130327,0.001000,1759321,1000,12,0,1,105.042,-9.032,13.484,642.769,23.863,16.524
1782117313.131327,0.002000,1759322,1000,12,0,1,98.389,-13.293,13.584,651.585,28.829,16.918
1782117313.132327,0.003000,1759323,1000,12,0,1,87.531,-21.607,13.837,655.044,29.018,17.269
1782117313.133327,0.004000,1759324,1000,12,0,1,82.487,-24.021,14.179,655.716,25.069,17.528
1782117313.134327,0.005000,1759325,1000,12,0,1,92.552,-12.412,14.223,644.258,13.206,17.621
1782117313.135327,0.006000,1759326,1000,12,0,1,95.891,-4.470,14.196,636.163,1.725,17.622
1782117313.136327,0.007000,1759327,1000,12,0,1,94.473,-5.562,14.166,636.404,2.436,17.592
1782117313.137327,0.008000,1759328,1000,12,0,1,106.291,4.806,14.159,627.516,-3.691,17.483
1782117313.138327,0.009000,1759329,1000,12,0,1,121.521,19.233,14.414,618.532,-11.923,17.537
1782117313.139327,0.010000,1759330,1000,12,0,1,128.871,23.465,14.788,613.248,-13.366,17.626
1782117313.140327,0.011000,1759331,1000,12,0,1,125.220,17.513,14.962,614.593,-10.516,17.663
1782117313.141327,0.012000,1759332,1000,12,0,1,122.289,10.183,14.988,621.343,-1.537,17.656
1782117313.142327,0.013000,1759333,1000,12,0,1,115.636,3.636,14.974,624.634,2.847,17.650
1782117313.143327,0.014000,1759334,1000,12,0,1,108.910,-4.710,14.950,621.559,0.497,17.630
1782117313.144327,0.015000,1759335,1000,12,0,1,107.396,-5.681,14.962,622.496,0.013,17.587
1782117313.145327,0.016000,1759336,1000,12,0,1,113.402,-0.539,14.962,623.240,1.359,17.582
1782117313.146327,0.017000,1759337,1000,12,0,1,115.611,2.886,14.966,624.802,1.334,17.577
1782117313.147327,0.018000,1759338,1000,12,0,1,111.912,-1.144,14.965,630.447,5.469,17.517
1782117313.148327,0.019000,1759339,1000,12,0,1,101.992,-9.300,14.896,635.923,9.217,17.479
1782117313.149327,0.020000,1759340,1000,12,0,1,87.243,-21.068,15.032,634.050,6.310,17.501
1782117313.150327,0.021000,1759341,1000,12,0,1,84.457,-22.444,15.363,620.838,-6.035,17.518
1782117313.151327,0.022000,1759342,1000,12,0,1,84.985,-16.469,15.505,615.938,-12.251,17.432
1782117313.152327,0.023000,1759343,1000,12,0,1,85.946,-13.493,15.544,624.489,-2.550,17.067
1782117313.153327,0.024000,1759344,1000,12,0,1,94.425,-3.558,15.011,634.986,8.112,16.858
1782117313.154327,0.025000,1759345,1000,12,0,1,98.461,2.461,14.588,642.049,14.411,16.916
1782117313.155327,0.026000,1759346,1000,12,0,1,107.733,8.767,14.397,645.171,15.859,17.035
1782117313.156327,0.027000,1759347,1000,12,0,1,116.140,16.714,14.431,641.760,11.559,17.107
1782117313.157327,0.028000,1759348,1000,12,0,1,122.529,18.697,14.653,644.018,10.518,17.167
1782117313.158327,0.029000,1759349,1000,12,0,1,122.698,16.972,14.714,644.210,10.908,17.233
1782117313.159327,0.030000,1759350,1000,12,0,1,119.767,10.345,13.624,647.021,10.166,17.284
1782117313.160327,0.031000,1759351,1000,12,0,1,126.181,12.578,12.048,647.886,10.543,17.273
1782117313.161327,0.032000,1759352,1000,12,0,1,126.685,12.725,11.321,649.207,8.419,17.127
1782117313.162327,0.033000,1759353,1000,12,0,1,122.001,5.014,11.138,657.542,13.063,16.911
1782117313.163327,0.034000,1759354,1000,12,0,1,112.537,-3.255,11.134,663.595,16.110,16.644
1782117313.164327,0.035000,1759355,1000,12,0,1,103.481,-12.185,11.141,663.043,11.316,16.339
1782117313.165327,0.036000,1759356,1000,12,0,1,116.885,-0.952,11.135,659.992,4.743,16.156
1782117313.166327,0.037000,1759357,1000,12,0,1,127.910,12.533,11.263,651.393,-5.555,16.175
1782117313.167327,0.038000,1759358,1000,12,0,1,123.586,6.951,11.305,644.282,-14.220,16.075
1782117313.168327,0.039000,1759359,1000,12,0,1,114.170,-2.590,11.305,636.019,-20.685,15.714
1782117313.169327,0.040000,1759360,1000,12,0,1,111.984,-6.024,11.337,629.197,-25.889,15.157
1782117313.170327,0.041000,1759361,1000,12,0,1,111.888,-4.767,11.356,622.544,-28.284,14.677
1782117313.171327,0.042000,1759362,1000,12,0,1,108.525,-7.446,11.397,620.574,-27.055,14.280
1782117313.172327,0.043000,1759363,1000,12,0,1,93.681,-18.502,11.641,627.012,-17.438,13.807
1782117313.173327,0.044000,1759364,1000,12,0,1,88.012,-24.098,12.127,632.128,-8.608,13.618
1782117313.174327,0.045000,1759365,1000,12,0,1,99.854,-10.619,12.211,634.290,-4.861,13.581
1782117313.175327,0.046000,1759366,1000,12,0,1,118.854,7.779,12.258,634.170,-2.840,13.575
1782117313.176327,0.047000,1759367,1000,12,0,1,128.342,16.324,12.473,630.278,-4.859,13.592
1782117313.177327,0.048000,1759368,1000,12,0,1,125.076,10.706,12.555,626.627,-6.642,13.617
1782117313.178327,0.049000,1759369,1000,12,0,1,120.800,3.291,12.549,628.765,-3.391,13.572
1782117313.179327,0.050000,1759370,1000,12,0,1,120.848,1.812,12.545,630.927,0.881,13.393
1782117313.180327,0.051000,1759371,1000,12,0,1,119.311,-0.180,12.480,629.654,0.683,12.961
1782117313.181327,0.052000,1759372,1000,12,0,1,111.384,-6.785,12.375,631.191,2.170,12.307
1782117313.182327,0.053000,1759373,1000,12,0,1,112.441,-7.027,12.033,635.059,6.145,11.635
1782117313.183327,0.054000,1759374,1000,12,0,1,120.127,2.176,11.547,637.725,8.161,11.142
1782117313.184327,0.055000,1759375,1000,12,0,1,125.556,7.300,11.460,635.107,5.511,11.012
1782117313.185327,0.056000,1759376,1000,12,0,1,125.940,7.796,11.495,634.506,3.114,11.018
1782117313.186327,0.057000,1759377,1000,12,0,1,121.160,2.992,11.476,635.467,3.944,11.027
1782117313.187327,0.058000,1759378,1000,12,0,1,120.728,1.396,11.458,638.926,5.605,11.043
1782117313.188327,0.059000,1759379,1000,12,0,1,121.809,3.141,11.139,640.391,6.742,10.955
1782117313.189327,0.060000,1759380,1000,12,0,1,107.637,-7.883,10.691,644.258,7.907,10.848
1782117313.190327,0.061000,1759381,1000,12,0,1,86.571,-26.150,11.039,648.054,10.529,10.849
1782117313.191327,0.062000,1759382,1000,12,0,1,71.894,-35.653,12.050,650.312,10.370,10.945
1782117313.192327,0.063000,1759383,1000,12,0,1,83.616,-22.480,12.452,655.380,12.446,11.078
1782117313.193327,0.064000,1759384,1000,12,0,1,114.074,9.320,12.503,661.938,16.142,11.311
1782117313.194327,0.065000,1759385,1000,12,0,1,127.766,23.707,12.920,667.751,18.151,11.599
1782117313.195327,0.066000,1759386,1000,12,0,1,120.512,13.626,13.063,676.206,21.728,11.997
1782117313.196327,0.067000,1759387,1000,12,0,1,118.446,6.811,13.092,678.920,20.927,12.355
1782117313.197327,0.068000,1759388,1000,12,0,1,122.914,8.956,13.152,681.250,17.447,12.576
1782117313.198327,0.069000,1759389,1000,12,0,1,129.664,12.160,13.199,679.136,12.602,12.634
1782117313.199327,0.070000,1759390,1000,12,0,1,129.207,10.341,12.941,677.887,6.609,12.637
1782117313.200327,0.071000,1759391,1000,12,0,1,133.483,9.659,12.620,663.979,-5.800,12.635
1782117313.201327,0.072000,1759392,1000,12,0,1,149.433,21.243,12.762,633.041,-33.741,13.394
1782117313.202327,0.073000,1759393,1000,12,0,1,148.328,19.808,12.925,618.845,-46.041,14.889
1782117313.203327,0.074000,1759394,1000,12,0,1,133.363,1.834,12.918,626.147,-32.978,15.560
1782117313.204327,0.075000,1759395,1000,12,0,1,124.019,-7.915,12.962,635.347,-19.077,15.660
1782117313.205327,0.076000,1759396,1000,12,0,1,126.973,-5.344,12.925,635.467,-14.604,15.636
1782117313.206327,0.077000,1759397,1000,12,0,1,131.249,0.814,12.707,633.906,-14.706,15.688
1782117313.207327,0.078000,1759398,1000,12,0,1,131.225,1.096,12.430,627.300,-17.049,15.803
1782117313.208327,0.079000,1759399,1000,12,0,1,125.364,-3.320,12.205,629.125,-15.336,15.876
1782117313.209327,0.080000,1759400,1000,12,0,1,112.153,-14.041,12.279,627.612,-11.680,15.897
1782117313.210327,0.081000,1759401,1000,12,0,1,114.290,-13.179,12.291,611.758,-23.216,16.164
1782117313.211327,0.082000,1759402,1000,12,0,1,114.290,-8.156,12.213,611.758,-22.508,16.431
1782117313.212327,0.083000,1759403,1000,12,0,1,134.252,4.994,12.213,618.628,-9.741,16.385
1782117313.213327,0.084000,1759404,1000,12,0,1,140.377,15.480,12.399,627.324,-0.573,16.226
1782117313.214327,0.085000,1759405,1000,12,0,1,139.296,6.635,12.315,623.793,1.152,16.148
1782117313.215327,0.086000,1759406,1000,12,0,1,134.300,1.928,12.317,621.871,-1.942,16.136
1782117313.216327,0.087000,1759407,1000,12,0,1,121.641,-12.415,12.315,628.957,7.035,16.148
1782117313.217327,0.088000,1759408,1000,12,0,1,110.543,-22.790,12.691,637.725,15.530,16.172
1782117313.218327,0.089000,1759409,1000,12,0,1,115.323,-18.043,12.940,651.945,26.777,16.350
1782117313.219327,0.090000,1759410,1000,12,0,1,128.030,-4.423,12.927,668.856,39.681,16.894
1782117313.220327,0.091000,1759411,1000,12,0,1,129.928,-0.071,12.910,679.184,44.188,17.563
1782117313.221327,0.092000,1759412,1000,12,0,1,112.513,-14.632,13.032,686.847,44.086,18.240
1782117313.222327,0.093000,1759413,1000,12,0,1,94.786,-28.736,13.398,688.456,38.887,18.890
1782117313.223327,0.094000,1759414,1000,12,0,1,93.777,-25.955,13.467,683.220,27.221,19.240
1782117313.224327,0.095000,1759415,1000,12,0,1,99.950,-13.237,13.513,677.551,15.777,19.357
1782117313.225327,0.096000,1759416,1000,12,0,1,112.873,1.283,13.470,670.393,5.658,19.369
1782117313.226327,0.097000,1759417,1000,12,0,1,122.794,14.354,13.425,657.470,-8.257,19.392
1782117313.227327,0.098000,1759418,1000,12,0,1,142.082,28.388,13.930,637.797,-25.655,19.706
1782117313.228327,0.099000,1759419,1000,12,0,1,135.188,25.731,14.390,633.473,-30.106,20.155
1782117313.229327,0.100000,1759420,1000,12,0,1,122.626,6.602,14.418,645.459,-15.598,20.275
1782117313.230327,0.101000,1759421,1000,12,0,1,122.842,6.628,14.449,662.634,0.987,20.276
1782117313.231327,0.102000,1759422,1000,12,0,1,118.878,2.854,14.422,673.804,11.020,20.333
1782117313.232327,0.103000,1759423,1000,12,0,1,106.940,-8.263,14.435,676.062,10.086,20.364
1782117313.233327,0.104000,1759424,1000,12,0,1,109.919,-7.244,14.468,675.653,5.921,20.349
1782117313.234327,0.105000,1759425,1000,12,0,1,137.278,15.939,14.606,667.486,-3.038,20.339
1782117313.235327,0.106000,1759426,1000,12,0,1,152.555,30.661,15.197,648.030,-21.372,20.557
1782117313.236327,0.107000,1759427,1000,12,0,1,161.827,30.067,15.775,624.730,-40.335,21.327
1782117313.237327,0.108000,1759428,1000,12,0,1,157.167,23.179,16.110,609.380,-49.610,22.437
1782117313.238327,0.109000,1759429,1000,12,0,1,145.229,4.473,16.117,607.219,-44.059,23.267
1782117313.239327,0.110000,1759430,1000,12,0,1,141.746,-1.618,16.080,609.885,-32.932,23.702
1782117313.240327,0.111000,1759431,1000,12,0,1,134.107,-8.508,15.695,618.244,-19.121,23.809
1782117313.241327,0.112000,1759432,1000,12,0,1,122.409,-19.097,15.106,622.928,-8.100,23.791
1782117313.242327,0.113000,1759433,1000,12,0,1,114.747,-23.503,15.137,625.666,-2.855,23.730
1782117313.243327,0.114000,1759434,1000,12,0,1,129.592,-9.626,15.141,625.570,0.649,23.620
1782117313.244327,0.115000,1759435,1000,12,0,1,141.650,7.114,14.800,624.009,0.740,23.480
1782117313.245327,0.116000,1759436,1000,12,0,1,150.105,12.126,14.773,619.877,-0.551,23.278
1782117313.246327,0.117000,1759437,1000,12,0,1,152.892,15.248,14.899,619.277,-0.218,23.089
1782117313.247327,0.118000,1759438,1000,12,0,1,145.974,6.452,14.873,624.369,5.874,22.972
1782117313.248327,0.119000,1759439,1000,12,0,1,150.393,6.620,14.803,626.675,9.404,22.942
1782117313.249327,0.120000,1759440,1000,12,0,1,152.123,8.913,14.784,632.080,12.765,22.994
1782117313.250327,0.121000,1759441,1000,12,0,1,142.971,-2.037,14.724,642.265,21.139,23.173
1782117313.251327,0.122000,1759442,1000,12,0,1,142.971,-4.681,14.429,642.265,20.062,22.853
1782117313.252327,0.123000,1759443,1000,12,0,1,123.562,-18.227,14.387,682.716,45.312,22.824
1782117313.253327,0.124000,1759444,1000,12,0,1,136.774,-14.079,14.522,684.085,52.411,23.539
1782117313.254327,0.125000,1759445,1000,12,0,1,151.522,7.185,14.515,678.656,28.902,23.739
1782117313.255327,0.126000,1759446,1000,12,0,1,160.050,8.479,14.545,673.203,24.111,23.893
1782117313.256327,0.127000,1759447,1000,12,0,1,159.161,8.317,14.592,663.811,7.273,23.825
1782117313.257327,0.128000,1759448,1000,12,0,1,159.281,2.621,14.595,641.304,-11.579,23.759
1782117313.258327,0.129000,1759449,1000,12,0,1,167.640,7.933,14.631,607.074,-41.357,24.372
1782117313.259327,0.130000,1759450,1000,12,0,1,170.979,9.604,14.559,585.408,-56.851,25.611
1782117313.260327,0.131000,1759451,1000,12,0,1,156.447,-5.123,14.457,594.343,-40.542,26.038
1782117313.261327,0.132000,1759452,1000,12,0,1,156.447,-8.857,14.466,594.343,-28.776,26.162
1782117313.262327,0.133000,1759453,1000,12,0,1,123.610,-29.468,15.037,630.134,1.938,26.127
1782117313.263327,0.134000,1759454,1000,12,0,1,131.801,-30.359,15.484,630.399,15.837,26.222
1782117313.264327,0.135000,1759455,1000,12,0,1,132.474,-12.727,15.560,625.234,1.261,26.223
1782117313.265327,0.136000,1759456,1000,12,0,1,138.407,-12.725,15.662,620.454,2.276,26.223
1782117313.266327,0.137000,1759457,1000,12,0,1,157.407,10.920,15.639,613.800,-6.616,26.221
1782117313.267327,0.138000,1759458,1000,12,0,1,163.196,16.252,15.475,615.962,-4.071,26.135
1782117313.268327,0.139000,1759459,1000,12,0,1,157.480,8.726,15.313,618.364,-0.005,25.859
1782117313.269327,0.140000,1759460,1000,12,0,1,153.948,4.101,15.312,620.766,0.497,25.243
1782117313.270327,0.141000,1759461,1000,12,0,1,152.195,0.228,15.312,621.871,3.318,24.462
1782117313.271327,0.142000,1759462,1000,12,0,1,148.087,-2.552,15.175,621.271,0.796,23.654
1782117313.272327,0.143000,1759463,1000,12,0,1,147.919,-5.611,14.643,620.718,1.821,23.008
1782117313.273327,0.144000,1759464,1000,12,0,1,148.400,-3.323,14.183,619.709,0.162,22.683
1782117313.274327,0.145000,1759465,1000,12,0,1,141.674,-10.245,14.133,623.553,4.557,22.582
1782117313.275327,0.146000,1759466,1000,12,0,1,140.977,-10.978,14.217,623.913,5.989,22.584
1782117313.276327,0.147000,1759467,1000,12,0,1,143.019,-7.833,14.115,623.120,5.393,22.567
1782117313.277327,0.148000,1759468,1000,12,0,1,143.403,-6.456,13.563,627.084,9.005,22.310
1782117313.278327,0.149000,1759469,1000,12,0,1,144.580,-4.853,13.084,633.857,15.268,22.006
1782117313.279327,0.150000,1759470,1000,12,0,1,151.474,1.545,13.052,637.821,18.177,22.045
1782117313.280327,0.151000,1759471,1000,12,0,1,152.579,4.197,13.032,640.463,18.443,22.199
1782117313.281327,0.152000,1759472,1000,12,0,1,149.409,0.617,13.026,639.190,15.610,22.254
1782117313.282327,0.153000,1759473,1000,12,0,1,144.580,-2.634,12.979,639.406,12.520,22.278
1782117313.283327,0.154000,1759474,1000,12,0,1,142.395,-4.084,12.951,641.040,12.017,22.327
1782117313.284327,0.155000,1759475,1000,12,0,1,144.412,-0.642,12.754,641.088,9.399,22.363
1782117313.285327,0.156000,1759476,1000,12,0,1,149.288,4.802,12.013,641.184,6.643,22.178
1782117313.286327,0.157000,1759477,1000,12,0,1,152.243,8.221,11.295,640.367,3.594,21.437
1782117313.287327,0.158000,1759478,1000,12,0,1,145.517,2.956,10.817,638.998,-0.171,20.257
1782117313.288327,0.159000,1759479,1000,12,0,1,139.320,-3.837,10.813,638.301,-2.634,19.278
1782117313.289327,0.160000,1759480,1000,12,0,1,136.005,-5.291,10.836,637.052,-5.138,18.722
1782117313.290327,0.161000,1759481,1000,12,0,1,141.073,-1.287,10.771,640.127,-4.095,18.534
1782117313.291327,0.162000,1759482,1000,12,0,1,140.401,0.781,10.427,637.941,-5.425,18.515
1782117313.292327,0.163000,1759483,1000,12,0,1,137.062,-3.805,9.898,637.749,-7.588,18.541
1782117313.293327,0.164000,1759484,1000,12,0,1,137.735,-2.778,9.812,640.920,-3.952,18.550
1782117313.294327,0.165000,1759485,1000,12,0,1,141.073,-0.026,9.760,642.481,-2.549,18.553
1782117313.295327,0.166000,1759486,1000,12,0,1,151.234,7.686,9.669,640.823,-3.603,18.560
1782117313.296327,0.167000,1759487,1000,12,0,1,156.567,12.487,9.590,637.461,-6.148,18.580
1782117313.297327,0.168000,1759488,1000,12,0,1,151.715,5.678,9.580,639.430,-4.246,18.571
1782117313.298327,0.169000,1759489,1000,12,0,1,148.904,0.897,9.535,637.797,-3.130,18.529
1782117313.299327,0.170000,1759490,1000,12,0,1,140.521,-5.690,9.485,635.731,-5.158,18.455
1782117313.300327,0.171000,1759491,1000,12,0,1,130.745,-14.485,9.700,636.932,-2.482,18.215
1782117313.301327,0.172000,1759492,1000,12,0,1,142.226,-4.284,9.696,639.022,-0.006,17.992
1782117313.302327,0.173000,1759493,1000,12,0,1,155.318,11.448,9.486,642.265,3.110,16.818
1782117313.303327,0.174000,1759494,1000,12,0,1,153.420,9.600,9.374,643.081,3.831,15.107
1782117313.304327,0.175000,1759495,1000,12,0,1,146.598,2.536,9.326,648.582,6.522,14.572
1782117313.305327,0.176000,1759496,1000,12,0,1,139.200,-3.681,9.263,654.731,11.207,14.256
1782117313.306327,0.177000,1759497,1000,12,0,1,133.267,-8.034,9.258,657.061,10.359,14.294
1782117313.307327,0.178000,1759498,1000,12,0,1,131.825,-7.578,9.312,653.362,4.822,14.216
1782117313.308327,0.179000,1759499,1000,12,0,1,137.134,-1.525,9.247,650.696,-0.922,12.958
1782117313.309327,0.180000,1759500,1000,12,0,1,135.789,-0.008,9.147,652.474,-0.888,10.163
1782117313.310327,0.181000,1759501,1000,12,0,1,125.412,-8.934,9.205,660.160,3.906,8.410
1782117313.311327,0.182000,1759502,1000,12,0,1,117.677,-14.968,9.362,667.390,9.068,7.470
1782117313.312327,0.183000,1759503,1000,12,0,1,127.766,-5.707,8.422,664.003,4.533,7.493
1782117313.313327,0.184000,1759504,1000,12,0,1,141.506,9.142,7.360,655.884,-5.214,7.188
1782117313.314327,0.185000,1759505,1000,12,0,1,176.312,34.233,8.624,645.171,-14.199,7.461
1782117313.315327,0.186000,1759506,1000,12,0,1,191.925,48.672,10.886,637.581,-20.251,7.986
1782117313.316327,0.187000,1759507,1000,12,0,1,185.488,31.808,11.677,636.596,-17.937,8.326
1782117313.317327,0.188000,1759508,1000,12,0,1,185.151,23.417,11.918,631.696,-17.804,8.680
1782117313.318327,0.189000,1759509,1000,12,0,1,183.470,17.059,12.097,630.879,-16.248,8.979
1782117313.319327,0.190000,1759510,1000,12,0,1,173.021,3.156,12.091,637.196,-6.814,9.030
1782117313.320327,0.191000,1759511,1000,12,0,1,163.917,-7.591,12.139,639.166,-1.939,9.022
1782117313.321327,0.192000,1759512,1000,12,0,1,152.723,-17.002,12.370,641.976,0.859,9.022
1782117313.322327,0.193000,1759513,1000,12,0,1,143.355,-23.639,12.789,645.195,4.814,9.044
1782117313.323327,0.194000,1759514,1000,12,0,1,153.660,-13.314,12.918,642.529,2.405,9.050
1782117313.324327,0.195000,1759515,1000,12,0,1,164.061,1.471,12.838,633.065,-5.972,9.067
1782117313.325327,0.196000,1759516,1000,12,0,1,163.653,1.227,12.745,631.816,-8.294,9.103
1782117313.326327,0.197000,1759517,1000,12,0,1,154.789,-5.407,12.720,636.812,-2.166,9.076
1782117313.327327,0.198000,1759518,1000,12,0,1,152.243,-8.955,12.750,640.655,1.434,8.989
1782117313.328327,0.199000,1759519,1000,12,0,1,142.875,-13.343,12.871,636.692,-1.432,8.728
1782117313.329327,0.200000,1759520,1000,12,0,1,134.179,-21.446,13.222,640.295,-0.470,8.341
1782117313.330327,0.201000,1759521,1000,12,0,1,139.920,-14.242,13.361,640.055,1.640,7.926
1782117313.331327,0.202000,1759522,1000,12,0,1,142.683,-8.206,13.411,636.404,-2.940,7.624
1782117313.332327,0.203000,1759523,1000,12,0,1,146.670,-5.717,13.430,635.635,-2.737,7.426
1782117313.333327,0.204000,1759524,1000,12,0,1,156.879,3.753,13.428,640.127,1.645,7.232
1782117313.334327,0.205000,1759525,1000,12,0,1,160.530,6.246,13.457,647.141,8.608,7.213
1782117313.335327,0.206000,1759526,1000,12,0,1,161.875,4.726,13.456,650.095,11.646,7.338
1782117313.336327,0.207000,1759527,1000,12,0,1,161.011,2.568,13.411,650.672,10.745,7.477
1782117313.337327,0.208000,1759528,1000,12,0,1,164.085,2.760,13.410,650.047,9.781,7.604
1782117313.338327,0.209000,1759529,1000,12,0,1,181.452,15.714,13.582,647.213,6.238,7.645
1782117313.339327,0.210000,1759530,1000,12,0,1,184.191,19.121,13.829,649.447,7.014,7.675
1782117313.340327,0.211000,1759531,1000,12,0,1,178.666,8.941,13.885,651.296,8.665,7.751
1782117313.341327,0.212000,1759532,1000,12,0,1,174.366,4.407,13.899,647.261,4.240,7.736
1782117313.342327,0.213000,1759533,1000,12,0,1,175.567,3.614,13.898,645.339,0.804,7.662
1782117313.343327,0.214000,1759534,1000,12,0,1,174.198,3.825,13.903,646.564,1.558,7.645
1782117313.344327,0.215000,1759535,1000,12,0,1,172.589,1.516,13.904,652.810,5.397,7.674
1782117313.345327,0.216000,1759536,1000,12,0,1,175.399,4.219,13.874,652.834,5.467,7.696
1782117313.346327,0.217000,1759537,1000,12,0,1,170.162,1.090,13.762,653.506,2.480,7.655
1782117313.347327,0.218000,1759538,1000,12,0,1,159.209,-9.375,13.803,657.422,4.763,7.661
1782117313.348327,0.219000,1759539,1000,12,0,1,147.319,-18.019,14.036,665.204,8.657,7.746
1782117313.349327,0.220000,1759540,1000,12,0,1,147.103,-17.944,14.240,667.078,8.994,7.816
1782117313.350327,0.221000,1759541,1000,12,0,1,159.593,-4.278,14.105,653.963,-4.507,7.834
1782117313.351327,0.222000,1759542,1000,12,0,1,168.481,4.648,14.108,644.907,-15.411,8.131
1782117313.352327,0.223000,1759543,1000,12,0,1,165.695,1.203,14.015,639.094,-17.886,8.504
1782117313.353327,0.224000,1759544,1000,12,0,1,159.161,-7.011,13.985,632.080,-22.182,9.048
1782117313.354327,0.225000,1759545,1000,12,0,1,160.770,-7.495,14.020,630.038,-20.578,9.460
1782117313.355327,0.226000,1759546,1000,12,0,1,163.581,-4.580,14.025,629.534,-16.705,9.621
1782117313.356327,0.227000,1759547,1000,12,0,1,161.947,-6.674,14.011,628.237,-14.012,9.713
1782117313.357327,0.228000,1759548,1000,12,0,1,158.849,-9.433,14.034,634.194,-6.217,9.729
1782117313.358327,0.229000,1759549,1000,12,0,1,157.528,-10.061,14.104,637.917,0.950,9.729
1782117313.359327,0.230000,1759550,1000,12,0,1,157.816,-8.117,14.151,640.391,3.481,9.740
1782117313.360327,0.231000,1759551,1000,12,0,1,168.145,1.480,14.096,641.304,5.515,9.756
1782117313.361327,0.232000,1759552,1000,12,0,1,174.486,10.110,14.009,640.944,4.717,9.694
1782117313.362327,0.233000,1759553,1000,12,0,1,168.769,5.165,14.005,637.893,2.214,9.678
1782117313.363327,0.234000,1759554,1000,12,0,1,165.719,1.921,13.948,638.926,1.938,9.654
1782117313.364327,0.235000,1759555,1000,12,0,1,155.125,-4.014,13.093,640.271,3.606,9.456
1782117313.365327,0.236000,1759556,1000,12,0,1,148.952,-9.694,11.221,643.826,5.304,9.043
1782117313.366327,0.237000,1759557,1000,12,0,1,142.467,-10.069,10.378,651.272,10.738,8.812
1782117313.367327,0.238000,1759558,1000,12,0,1,138.888,-11.719,9.975,655.981,13.516,8.658
1782117313.368327,0.239000,1759559,1000,12,0,1,148.904,-0.187,9.678,649.783,6.305,8.395
1782117313.369327,0.240000,1759560,1000,12,0,1,160.338,12.195,9.821,642.433,-2.766,8.349
1782117313.370327,0.241000,1759561,1000,12,0,1,159.257,11.031,9.886,641.952,-3.808,8.362
1782117313.371327,0.242000,1759562,1000,12,0,1,159.665,7.874,9.653,640.703,-3.567,8.376
1782117313.372327,0.243000,1759563,1000,12,0,1,163.533,9.526,9.156,643.706,-1.464,8.351
1782117313.373327,0.244000,1759564,1000,12,0,1,172.589,13.798,9.170,646.636,2.953,8.355
1782117313.374327,0.245000,1759565,1000,12,0,1,174.678,13.620,9.368,640.703,-1.658,8.315
1782117313.375327,0.246000,1759566,1000,12,0,1,167.328,3.057,9.376,630.639,-9.839,8.349
1782117313.376327,0.247000,1759567,1000,12,0,1,163.317,-3.912,9.361,635.635,-5.540,8.380
1782117313.377327,0.248000,1759568,1000,12,0,1,167.832,-1.163,9.277,639.334,1.984,8.382
1782117313.378327,0.249000,1759569,1000,12,0,1,180.804,8.791,9.167,640.103,1.988,8.384
1782117313.379327,0.250000,1759570,1000,12,0,1,190.628,17.111,8.983,646.180,7.511,8.451
1782117313.380327,0.251000,1759571,1000,12,0,1,187.145,11.928,8.916,646.805,8.458,8.532
1782117313.381327,0.252000,1759572,1000,12,0,1,179.122,2.379,8.846,642.529,2.827,8.531
1782117313.382327,0.253000,1759573,1000,12,0,1,179.338,1.167,8.811,643.466,2.264,8.529
1782117313.383327,0.254000,1759574,1000,12,0,1,178.474,2.128,8.800,643.105,1.823,8.529
1782117313.384327,0.255000,1759575,1000,12,0,1,174.294,-1.544,8.758,641.400,-0.903,8.443
1782117313.385327,0.256000,1759576,1000,12,0,1,157.768,-13.028,8.925,641.232,-1.719,8.284
1782117313.386327,0.257000,1759577,1000,12,0,1,155.486,-16.331,9.212,640.775,-2.286,8.150
1782117313.387327,0.258000,1759578,1000,12,0,1,179.747,7.791,9.269,644.427,-0.133,8.032
1782117313.388327,0.259000,1759579,1000,12,0,1,200.236,27.539,9.805,646.540,2.330,7.990
1782117313.389327,0.260000,1759580,1000,12,0,1,200.044,23.921,10.014,645.267,0.177,7.929
1782117313.390327,0.261000,1759581,1000,12,0,1,193.895,12.258,10.084,643.490,-1.563,7.836
1782117313.391327,0.262000,1759582,1000,12,0,1,186.713,1.724,10.068,644.427,-1.093,7.815
1782117313.392327,0.263000,1759583,1000,12,0,1,176.816,-9.967,10.153,644.763,0.056,7.814
1782117313.393327,0.264000,1759584,1000,12,0,1,176.168,-13.646,10.320,645.243,0.404,7.811
1782117313.394327,0.265000,1759585,1000,12,0,1,188.226,-3.787,10.332,641.616,-1.575,7.777
1782117313.395327,0.266000,1759586,1000,12,0,1,200.765,6.103,10.351,637.869,-4.859,7.769
1782117313.396327,0.267000,1759587,1000,12,0,1,202.831,5.881,10.383,637.605,-3.843,7.780
1782117313.397327,0.268000,1759588,1000,12,0,1,202.566,1.476,10.300,639.262,-1.138,7.752
1782117313.398327,0.269000,1759589,1000,12,0,1,199.948,-2.162,9.985,642.529,2.340,7.662
1782117313.399327,0.270000,1759590,1000,12,0,1,195.672,-7.547,9.716,644.931,4.936,7.588
1782117313.400327,0.271000,1759591,1000,12,0,1,191.277,-10.835,9.817,648.750,7.117,7.628
1782117313.401327,0.272000,1759592,1000,12,0,1,188.682,-11.981,9.941,653.699,10.531,7.460
1782117313.402327,0.273000,1759593,1000,12,0,1,183.590,-13.446,10.119,654.587,9.605,7.149
1782117313.403327,0.274000,1759594,1000,12,0,1,174.654,-18.211,10.395,655.692,7.732,6.516
1782117313.404327,0.275000,1759595,1000,12,0,1,172.709,-17.111,10.620,657.950,7.625,5.929
1782117313.405327,0.276000,1759596,1000,12,0,1,190.220,0.888,10.601,653.386,2.168,5.446
1782117313.406327,0.277000,1759597,1000,12,0,1,215.153,25.082,11.139,644.258,-7.740,5.190
1782117313.407327,0.278000,1759598,1000,12,0,1,216.018,26.142,11.660,636.860,-14.406,5.506
1782117313.408327,0.279000,1759599,1000,12,0,1,201.509,7.665,11.624,633.689,-15.996,5.951
1782117313.409327,0.280000,1759600,1000,12,0,1,187.361,-7.309,11.613,629.750,-16.568,6.376
1782117313.410327,0.281000,1759601,1000,12,0,1,184.983,-11.707,11.729,627.444,-16.388,6.740
1782117313.411327,0.282000,1759602,1000,12,0,1,197.402,-1.001,11.642,628.117,-12.521,6.936
1782117313.412327,0.283000,1759603,1000,12,0,1,212.054,11.195,11.726,630.735,-7.462,7.009
1782117313.413327,0.284000,1759604,1000,12,0,1,217.051,12.843,11.863,635.611,-1.021,7.005
1782117313.414327,0.285000,1759605,1000,12,0,1,212.895,5.038,11.871,637.893,2.948,6.999
1782117313.415327,0.286000,1759606,1000,12,0,1,203.815,-6.357,11.826,639.622,4.527,6.988
1782117313.416327,0.287000,1759607,1000,12,0,1,203.311,-9.685,11.819,638.590,4.518,6.851
1782117313.417327,0.288000,1759608,1000,12,0,1,207.995,-5.146,11.725,638.133,3.331,6.596
1782117313.418327,0.289000,1759609,1000,12,0,1,212.175,-1.789,11.728,634.362,1.050,6.537
1782117313.419327,0.290000,1759610,1000,12,0,1,214.601,0.279,11.600,628.189,-4.605,6.558
1782117313.420327,0.291000,1759611,1000,12,0,1,217.339,2.186,11.499,629.462,-3.334,6.553
1782117313.421327,0.292000,1759612,1000,12,0,1,213.976,0.033,11.445,629.846,-0.846,6.534
1782117313.422327,0.293000,1759613,1000,12,0,1,208.451,-5.095,11.388,631.768,0.264,6.531
1782117313.423327,0.294000,1759614,1000,12,0,1,208.836,-3.990,11.234,635.443,4.421,6.548
1782117313.424327,0.295000,1759615,1000,12,0,1,207.515,-2.708,11.074,635.010,3.851,6.566
1782117313.425327,0.296000,1759616,1000,12,0,1,198.891,-8.804,11.136,633.329,1.677,6.421
1782117313.426327,0.297000,1759617,1000,12,0,1,197.042,-9.925,11.210,635.539,2.965,6.387
1782117313.427327,0.298000,1759618,1000,12,0,1,198.963,-5.438,11.235,639.310,6.180,6.441
1782117313.428327,0.299000,1759619,1000,12,0,1,187.049,-13.037,11.318,651.633,14.866,6.769
1782117313.429327,0.300000,1759620,1000,12,0,1,183.013,-17.758,11.338,663.067,24.101,7.504
1782117313.430327,0.301000,1759621,1000,12,0,1,202.590,0.872,11.212,663.355,21.062,7.984
1782117313.431327,0.302000,1759622,1000,12,0,1,220.702,18.230,11.500,656.509,11.165,8.129
1782117313.432327,0.303000,1759623,1000,12,0,1,223.152,17.310,11.756,647.165,0.504,8.123
1782117313.433327,0.304000,1759624,1000,12,0,1,223.152,11.735,11.869,647.165,-1.845,8.123
1782117313.434327,0.305000,1759625,1000,12,0,1,223.152,8.059,11.922,647.165,-0.261,8.122
1782117313.435327,0.306000,1759626,1000,12,0,1,221.687,3.099,11.786,625.138,-17.563,8.490
1782117313.436327,0.307000,1759627,1000,12,0,1,199.492,-15.796,11.772,628.525,-18.288,8.870
1782117313.437327,0.308000,1759628,1000,12,0,1,198.507,-21.967,12.125,628.789,-8.840,8.957
1782117313.438327,0.309000,1759629,1000,12,0,1,205.833,-8.570,11.546,620.430,-17.247,9.278
1782117313.439327,0.310000,1759630,1000,12,0,1,195.913,-15.142,11.245,621.319,-13.193,9.463
1782117313.440327,0.311000,1759631,1000,12,0,1,180.900,-25.477,11.680,624.850,-7.365,9.518
1782117313.441327,0.312000,1759632,1000,12,0,1,191.157,-14.377,11.854,618.965,-9.781,9.617
1782117313.442327,0.313000,1759633,1000,12,0,1,203.311,3.924,11.783,620.718,-8.505,9.692
1782117313.443327,0.314000,1759634,1000,12,0,1,209.532,10.446,11.717,626.651,-0.786,9.692
1782117313.444327,0.315000,1759635,1000,12,0,1,220.702,20.062,12.044,629.678,2.446,9.696
1782117313.445327,0.316000,1759636,1000,12,0,1,227.956,26.316,12.576,628.885,1.527,9.674
1782117313.446327,0.317000,1759637,1000,12,0,1,224.017,19.698,12.854,629.630,1.624,9.661
1782117313.447327,0.318000,1759638,1000,12,0,1,217.267,10.530,12.938,631.744,3.127,9.670
1782117313.448327,0.319000,1759639,1000,12,0,1,213.448,4.162,12.948,630.158,2.233,9.669
1782117313.449327,0.320000,1759640,1000,12,0,1,209.628,-0.155,12.904,624.802,-2.838,9.652
1782117313.450327,0.321000,1759641,1000,12,0,1,210.205,-2.098,12.816,626.435,-1.389,9.602
1782117313.451327,0.322000,1759642,1000,12,0,1,214.216,0.893,12.704,629.774,3.259,9.497
1782117313.452327,0.323000,1759643,1000,12,0,1,217.483,1.889,12.564,632.969,6.334,9.442
1782117313.453327,0.324000,1759644,1000,12,0,1,211.838,-3.715,12.308,630.014,4.945,9.404
1782117313.454327,0.325000,1759645,1000,12,0,1,208.571,-9.511,12.143,630.615,4.246,9.362
1782117313.455327,0.326000,1759646,1000,12,0,1,208.475,-8.859,12.207,632.584,7.312,9.413
1782117313.456327,0.327000,1759647,1000,12,0,1,195.504,-18.326,11.964,630.423,5.353,9.380
1782117313.457327,0.328000,1759648,1000,12,0,1,186.352,-26.423,11.976,628.237,3.021,9.166
1782117313.458327,0.329000,1759649,1000,12,0,1,187.361,-20.859,12.287,628.813,3.536,8.897
1782117313.459327,0.330000,1759650,1000,12,0,1,203.815,-4.208,12.257,637.124,9.612,8.690
1782117313.460327,0.331000,1759651,1000,12,0,1,212.367,8.944,12.211,633.089,7.687,8.445
1782117313.461327,0.332000,1759652,1000,12,0,1,209.508,5.645,12.236,627.732,-1.053,8.259
1782117313.462327,0.333000,1759653,1000,12,0,1,221.687,14.555,12.307,632.801,3.049,8.202
1782117313.463327,0.334000,1759654,1000,12,0,1,230.310,23.975,12.635,632.632,3.015,8.212
1782117313.464327,0.335000,1759655,1000,12,0,1,229.397,19.474,12.912,629.125,-2.023,8.207
1782117313.465327,0.336000,1759656,1000,12,0,1,225.890,14.275,13.038,629.414,-2.516,8.189
1782117313.466327,0.337000,1759657,1000,12,0,1,228.605,12.818,13.092,627.276,-4.225,8.186
1782117313.467327,0.338000,1759658,1000,12,0,1,225.482,9.862,13.146,628.669,-3.974,8.192
1782117313.468327,0.339000,1759659,1000,12,0,1,220.582,1.831,13.146,631.143,-0.939,8.192
1782117313.469327,0.340000,1759660,1000,12,0,1,219.765,0.015,13.146,630.158,-1.719,8.169
1782117313.470327,0.341000,1759661,1000,12,0,1,220.246,-0.796,13.143,630.639,-1.598,8.159
1782117313.471327,0.342000,1759662,1000,12,0,1,213.111,-7.131,13.182,631.407,-0.071,8.158
1782117313.472327,0.343000,1759663,1000,12,0,1,207.202,-13.828,13.306,632.440,0.840,8.159
1782117313.473327,0.344000,1759664,1000,12,0,1,220.654,-3.318,13.303,631.119,0.701,8.135
1782117313.474327,0.345000,1759665,1000,12,0,1,229.421,7.008,13.334,631.527,0.686,8.118
1782117313.475327,0.346000,1759666,1000,12,0,1,232.376,5.704,13.300,629.822,0.662,8.115
1782117313.476327,0.347000,1759667,1000,12,0,1,234.778,6.515,13.258,626.579,-2.213,8.110
1782117313.477327,0.348000,1759668,1000,12,0,1,239.798,7.422,13.277,626.291,-1.774,8.067
1782117313.478327,0.349000,1759669,1000,12,0,1,238.862,5.876,13.175,628.597,0.950,7.789
1782117313.479327,0.350000,1759670,1000,12,0,1,235.811,0.106,12.933,628.813,1.782,7.008
1782117313.480327,0.351000,1759671,1000,12,0,1,236.075,-0.576,12.933,627.516,0.362,6.344
1782117313.481327,0.352000,1759672,1000,12,0,1,234.610,-1.811,12.676,627.660,0.047,6.144
1782117313.482327,0.353000,1759673,1000,12,0,1,230.334,-5.720,12.464,628.285,0.488,6.144
1782117313.483327,0.354000,1759674,1000,12,0,1,224.617,-9.631,12.428,628.357,-0.043,6.139
1782117313.484327,0.355000,1759675,1000,12,0,1,223.224,-10.220,12.459,627.852,-0.906,6.140
1782117313.485327,0.356000,1759676,1000,12,0,1,224.858,-6.337,12.484,628.573,-1.066,5.617
1782117313.486327,0.357000,1759677,1000,12,0,1,223.849,-5.691,12.309,629.318,-0.533,4.987
1782117313.487327,0.358000,1759678,1000,12,0,1,220.077,-7.679,11.959,630.903,0.129,4.828
1782117313.488327,0.359000,1759679,1000,12,0,1,216.138,-10.159,11.984,629.077,-1.095,4.169
1782117313.489327,0.360000,1759680,1000,12,0,1,214.048,-10.653,11.887,626.723,-3.821,3.767
1782117313.490327,0.361000,1759681,1000,12,0,1,212.535,-10.436,11.424,626.075,-3.681,3.658
1782117313.491327,0.362000,1759682,1000,12,0,1,213.616,-8.609,11.307,628.717,-0.957,3.389
1782117313.492327,0.363000,1759683,1000,12,0,1,218.948,-3.182,11.303,634.098,4.474,3.231
1782117313.493327,0.364000,1759684,1000,12,0,1,230.070,6.067,11.238,639.190,9.074,3.475
1782117313.494327,0.365000,1759685,1000,12,0,1,239.798,13.872,11.050,635.515,6.103,3.563
1782117313.495327,0.366000,1759686,1000,12,0,1,240.351,12.015,10.542,632.392,1.555,3.564
1782117313.496327,0.367000,1759687,1000,12,0,1,237.468,6.019,10.203,633.617,2.900,3.580
1782117313.497327,0.368000,1759688,1000,12,0,1,229.614,-2.029,10.098,638.133,6.379,3.665
1782117313.498327,0.369000,1759689,1000,12,0,1,215.730,-14.641,10.291,637.869,6.424,3.763
1782117313.499327,0.370000,1759690,1000,12,0,1,205.497,-22.384,10.767,634.650,2.047,3.753
1782117313.500327,0.371000,1759691,1000,12,0,1,214.288,-12.613,10.910,631.576,-1.248,3.752
1782117313.501327,0.372000,1759692,1000,12,0,1,237.949,11.634,11.032,627.444,-4.991,3.789
1782117313.502327,0.373000,1759693,1000,12,0,1,245.323,21.030,11.423,627.876,-5.296,3.757
1782117313.503327,0.374000,1759694,1000,12,0,1,240.303,13.389,11.567,638.542,3.752,3.730
1782117313.504327,0.375000,1759695,1000,12,0,1,236.339,8.412,11.550,647.886,11.852,4.045
1782117313.505327,0.376000,1759696,1000,12,0,1,235.162,6.098,11.514,654.323,14.470,4.413
1782117313.506327,0.377000,1759697,1000,12,0,1,231.391,2.877,11.226,654.611,12.194,4.678
1782117313.507327,0.378000,1759698,1000,12,0,1,228.148,-0.949,10.587,654.563,7.874,4.789
1782117313.508327,0.379000,1759699,1000,12,0,1,223.032,-4.707,10.189,653.963,5.211,4.820
1782117313.509327,0.380000,1759700,1000,12,0,1,220.942,-7.049,10.221,653.554,2.230,4.635
1782117313.510327,0.381000,1759701,1000,12,0,1,232.544,2.509,10.148,645.940,-4.682,4.554
1782117313.511327,0.382000,1759702,1000,12,0,1,236.123,7.514,10.172,633.882,-15.971,5.081
1782117313.512327,0.383000,1759703,1000,12,0,1,236.099,3.482,9.974,619.925,-25.903,6.249
1782117313.513327,0.384000,1759704,1000,12,0,1,244.699,8.959,9.465,617.427,-25.883,7.230
1782117313.514327,0.385000,1759705,1000,12,0,1,245.443,8.402,9.133,618.316,-18.955,7.705
1782117313.515327,0.386000,1759706,1000,12,0,1,238.021,-1.457,8.910,620.598,-13.594,7.934
1782117313.516327,0.387000,1759707,1000,12,0,1,232.136,-8.338,8.803,629.294,-2.931,7.922
1782117313.517327,0.388000,1759708,1000,12,0,1,226.419,-13.090,8.887,637.821,6.952,7.963
1782117313.518327,0.389000,1759709,1000,12,0,1,223.969,-14.479,9.116,646.396,13.582,8.190
1782117313.519327,0.390000,1759710,1000,12,0,1,233.745,-4.944,9.143,648.462,15.058,8.459
1782117313.520327,0.391000,1759711,1000,12,0,1,243.353,6.194,9.184,651.489,13.486,8.668
1782117313.521327,0.392000,1759712,1000,12,0,1,236.772,1.435,9.130,656.941,16.196,8.966
1782117313.522327,0.393000,1759713,1000,12,0,1,222.888,-11.127,9.056,664.916,18.786,9.350
1782117313.523327,0.394000,1759714,1000,12,0,1,210.926,-19.446,9.453,678.296,26.022,10.048
1782117313.524327,0.395000,1759715,1000,12,0,1,200.404,-24.583,10.023,682.427,25.657,10.683
1782117313.525327,0.396000,1759716,1000,12,0,1,192.958,-26.104,10.651,678.584,15.547,10.906
1782117313.526327,0.397000,1759717,1000,12,0,1,193.823,-20.200,10.989,678.200,9.945,10.992
1782117313.527327,0.398000,1759718,1000,12,0,1,216.378,2.549,10.944,676.398,5.250,11.014
1782117313.528327,0.399000,1759719,1000,12,0,1,247.533,32.729,11.854,658.695,-11.208,11.127
1782117313.529327,0.400000,1759720,1000,12,0,1,274.316,52.342,13.975,633.521,-34.084,12.123
1782117313.530327,0.401000,1759721,1000,12,0,1,281.234,52.455,15.822,614.473,-47.029,13.828
1782117313.531327,0.402000,1759722,1000,12,0,1,271.025,33.238,16.503,599.748,-52.260,15.679
1782117313.532327,0.403000,1759723,1000,12,0,1,265.741,19.019,16.702,591.101,-51.159,17.268
1782117313.533327,0.404000,1759724,1000,12,0,1,255.580,6.229,16.669,589.395,-42.631,18.290
1782117313.534327,0.405000,1759725,1000,12,0,1,243.546,-9.531,16.661,598.499,-26.455,18.668
1782117313.535327,0.406000,1759726,1000,12,0,1,230.574,-20.577,16.890,612.575,-6.497,18.690
1782117313.536327,0.407000,1759727,1000,12,0,1,225.818,-25.091,17.240,619.205,3.809,18.698
1782117313.537327,0.408000,1759728,1000,12,0,1,234.874,-14.151,17.321,615.986,2.646,18.702
1782117313.538327,0.409000,1759729,1000,12,0,1,232.712,-11.101,17.333,616.394,2.434,18.704
1782117313.539327,0.410000,1759730,1000,12,0,1,229.229,-14.252,17.384,619.901,6.489,18.719
1782117313.540327,0.411000,1759731,1000,12,0,1,230.382,-9.548,17.374,625.859,10.720,18.773
1782117313.541327,0.412000,1759732,1000,12,0,1,227.908,-9.196,17.380,631.840,15.175,18.895
1782117313.542327,0.413000,1759733,1000,12,0,1,225.626,-9.095,17.422,635.083,15.997,19.019
1782117313.543327,0.414000,1759734,1000,12,0,1,224.978,-7.215,17.431,632.801,12.139,19.053
1782117313.544327,0.415000,1759735,1000,12,0,1,217.531,-10.682,17.386,633.689,10.107,19.087
1782117313.545327,0.416000,1759736,1000,12,0,1,205.857,-18.805,17.506,636.404,11.862,19.160
1782117313.546327,0.417000,1759737,1000,12,0,1,221.302,-5.610,17.503,632.320,7.925,19.188
1782117313.547327,0.418000,1759738,1000,12,0,1,244.747,19.620,17.719,622.520,-1.023,19.167
1782117313.548327,0.419000,1759739,1000,12,0,1,251.328,23.641,17.913,613.440,-7.829,19.178
1782117313.549327,0.420000,1759740,1000,12,0,1,248.686,17.034,17.794,612.119,-7.000,19.201
1782117313.550327,0.421000,1759741,1000,12,0,1,234.057,1.736,17.707,620.214,3.071,19.205
1782117313.551327,0.422000,1759742,1000,12,0,1,235.066,-3.072,17.635,625.330,10.493,19.250
1782117313.552327,0.423000,1759743,1000,12,0,1,243.425,6.163,17.405,624.105,9.819,19.285
1782117313.553327,0.424000,1759744,1000,12,0,1,247.413,7.266,17.332,620.766,6.710,19.301
1782117313.554327,0.425000,1759745,1000,12,0,1,243.690,3.570,17.298,618.989,4.709,19.240
1782117313.555327,0.426000,1759746,1000,12,0,1,244.218,1.023,17.277,620.670,5.650,19.147
1782117313.556327,0.427000,1759747,1000,12,0,1,248.494,5.098,17.288,624.489,8.224,19.105
1782117313.557327,0.428000,1759748,1000,12,0,1,250.199,6.003,17.308,628.813,10.267,19.127
1782117313.558327,0.429000,1759749,1000,12,0,1,247.509,3.135,17.301,629.366,8.828,19.154
1782117313.559327,0.430000,1759750,1000,12,0,1,244.795,0.272,17.272,629.270,5.456,19.167
1782117313.560327,0.431000,1759751,1000,12,0,1,243.714,-0.576,17.269,630.495,4.191,19.165
1782117313.561327,0.432000,1759752,1000,12,0,1,241.432,-1.512,17.237,632.392,3.442,19.037
1782117313.562327,0.433000,1759753,1000,12,0,1,244.506,0.553,17.230,630.038,0.050,18.682
1782117313.563327,0.434000,1759754,1000,12,0,1,245.395,3.117,17.189,629.846,-2.438,18.323
1782117313.564327,0.435000,1759755,1000,12,0,1,237.036,-4.504,17.160,630.182,-1.981,18.128
1782117313.565327,0.436000,1759756,1000,12,0,1,230.094,-10.959,17.229,630.831,-2.000,18.028
1782117313.566327,0.437000,1759757,1000,12,0,1,224.065,-14.513,17.310,625.642,-5.080,18.037
1782117313.567327,0.438000,1759758,1000,12,0,1,223.969,-13.944,17.324,627.636,-4.214,18.020
1782117313.568327,0.439000,1759759,1000,12,0,1,234.394,-3.454,17.209,631.936,2.426,17.921
1782117313.569327,0.440000,1759760,1000,12,0,1,247.077,8.263,17.235,631.576,2.785,17.798
1782117313.570327,0.441000,1759761,1000,12,0,1,246.188,7.235,17.243,629.246,1.381,17.697
1782117313.571327,0.442000,1759762,1000,12,0,1,240.279,-1.355,17.243,629.053,1.665,17.550
1782117313.572327,0.443000,1759763,1000,12,0,1,236.796,-5.332,17.187,630.086,3.147,17.353
1782117313.573327,0.444000,1759764,1000,12,0,1,224.833,-14.620,17.091,633.593,6.093,16.980
1782117313.574327,0.445000,1759765,1000,12,0,1,220.197,-19.333,16.956,637.004,8.508,16.632
1782117313.575327,0.446000,1759766,1000,12,0,1,228.893,-8.356,16.591,642.000,10.915,16.558
1782117313.576327,0.447000,1759767,1000,12,0,1,235.595,0.580,16.344,643.129,10.094,16.560
1782117313.577327,0.448000,1759768,1000,12,0,1,223.224,-7.042,16.370,638.998,3.526,16.550
1782117313.578327,0.449000,1759769,1000,12,0,1,218.972,-12.013,15.794,632.416,-4.691,16.488
1782117313.579327,0.450000,1759770,1000,12,0,1,226.539,-0.864,13.952,627.756,-10.387,15.836
1782117313.580327,0.451000,1759771,1000,12,0,1,220.342,-2.207,11.821,626.891,-11.633,14.465
1782117313.581327,0.452000,1759772,1000,12,0,1,223.849,-0.438,10.846,630.855,-8.136,12.488
1782117313.582327,0.453000,1759773,1000,12,0,1,231.391,10.499,10.612,638.397,-1.544,10.181
1782117313.583327,0.454000,1759774,1000,12,0,1,236.075,13.430,10.744,645.411,4.322,8.226
1782117313.584327,0.455000,1759775,1000,12,0,1,239.774,16.451,10.910,647.429,5.107,7.362
1782117313.585327,0.456000,1759776,1000,12,0,1,245.107,18.250,10.827,644.571,1.383,7.307
1782117313.586327,0.457000,1759777,1000,12,0,1,252.121,21.723,10.681,641.832,-2.036,7.292
1782117313.587327,0.458000,1759778,1000,12,0,1,254.883,20.729,10.893,644.667,0.219,7.283
1782117313.588327,0.459000,1759779,1000,12,0,1,247.869,10.799,10.887,646.228,2.746,7.285
1782117313.589327,0.460000,1759780,1000,12,0,1,237.612,-1.919,10.702,647.789,3.630,7.245
1782117313.590327,0.461000,1759781,1000,12,0,1,229.710,-10.550,10.721,647.597,4.146,7.109
1782117313.591327,0.462000,1759782,1000,12,0,1,218.780,-18.962,10.975,645.844,2.150,6.784
1782117313.592327,0.463000,1759783,1000,12,0,1,218.540,-19.429,11.240,641.736,-1.025,6.398
1782117313.593327,0.464000,1759784,1000,12,0,1,236.820,-1.142,11.195,636.812,-5.312,6.208
1782117313.594327,0.465000,1759785,1000,12,0,1,245.515,9.580,11.175,635.803,-5.923,6.100
1782117313.595327,0.466000,1759786,1000,12,0,1,243.594,5.775,10.884,634.074,-6.047,5.926
1782117313.596327,0.467000,1759787,1000,12,0,1,240.327,2.105,10.860,631.816,-8.005,5.928
1782117313.597327,0.468000,1759788,1000,12,0,1,236.195,-1.959,10.503,630.014,-8.764,6.055
1782117313.598327,0.469000,1759789,1000,12,0,1,220.246,-13.718,10.144,624.393,-12.784,6.221
1782117313.599327,0.470000,1759790,1000,12,0,1,213.015,-20.441,10.269,619.637,-16.470,6.569
1782117313.600327,0.471000,1759791,1000,12,0,1,224.665,-6.446,10.306,627.756,-9.035,6.678
1782117313.601327,0.472000,1759792,1000,12,0,1,242.825,12.174,10.440,640.607,4.025,6.536
1782117313.602327,0.473000,1759793,1000,12,0,1,236.796,9.787,10.495,655.284,15.137,6.736
1782117313.603327,0.474000,1759794,1000,12,0,1,226.611,-3.111,10.454,661.169,19.134,7.197
1782117313.604327,0.475000,1759795,1000,12,0,1,228.413,-1.035,10.443,663.955,16.518,7.537
1782117313.605327,0.476000,1759796,1000,12,0,1,234.562,4.818,10.464,672.579,20.313,8.026
1782117313.606327,0.477000,1759797,1000,12,0,1,226.755,-0.702,10.440,680.698,24.097,8.642
1782117313.607327,0.478000,1759798,1000,12,0,1,230.911,-0.911,10.406,682.980,21.969,9.068
1782117313.608327,0.479000,1759799,1000,12,0,1,247.269,14.333,10.592,687.183,20.775,9.450
1782117313.609327,0.480000,1759800,1000,12,0,1,250.271,16.226,10.838,690.018,20.012,9.834
1782117313.610327,0.481000,1759801,1000,12,0,1,258.438,16.984,11.101,682.091,10.276,9.923
1782117313.611327,0.482000,1759802,1000,12,0,1,255.892,14.882,11.296,686.223,8.312,9.981
1782117313.612327,0.483000,1759803,1000,12,0,1,234.322,-8.427,11.359,702.028,21.063,10.416
1782117313.613327,0.484000,1759804,1000,12,0,1,237.276,-9.980,11.438,701.211,18.301,10.727
1782117313.614327,0.485000,1759805,1000,12,0,1,246.764,2.277,11.424,687.736,1.323,10.725
1782117313.615327,0.486000,1759806,1000,12,0,1,244.627,-0.219,11.319,675.437,-12.455,10.865
1782117313.616327,0.487000,1759807,1000,12,0,1,257.478,8.243,11.192,644.066,-37.421,12.064
1782117313.617327,0.488000,1759808,1000,12,0,1,259.928,13.215,11.174,618.604,-60.198,14.753
1782117313.618327,0.489000,1759809,1000,12,0,1,232.304,-12.251,11.297,625.258,-48.452,16.263
1782117313.619327,0.490000,1759810,1000,12,0,1,217.339,-27.849,11.907,632.392,-32.604,16.900
1782117313.620327,0.491000,1759811,1000,12,0,1,237.396,-7.497,11.910,622.976,-35.780,17.640
1782117313.621327,0.492000,1759812,1000,12,0,1,258.847,16.086,12.124,612.960,-40.539,18.547
1782117313.622327,0.493000,1759813,1000,12,0,1,261.753,17.766,12.359,617.980,-31.834,19.080
1782117313.623327,0.494000,1759814,1000,12,0,1,253.322,7.369,12.229,633.497,-12.623,19.144
1782117313.624327,0.495000,1759815,1000,12,0,1,238.429,-7.451,11.966,650.336,4.891,19.119
1782117313.625327,0.496000,1759816,1000,12,0,1,247.797,-3.373,11.917,648.630,6.126,19.076
1782117313.626327,0.497000,1759817,1000,12,0,1,259.183,10.084,12.002,635.035,-7.200,19.050
1782117313.627327,0.498000,1759818,1000,12,0,1,255.820,4.274,11.975,623.697,-15.419,19.168
1782117313.628327,0.499000,1759819,1000,12,0,1,249.022,-3.840,11.867,621.727,-14.121,19.260
1782117313.629327,0.500000,1759820,1000,12,0,1,258.462,1.068,11.867,617.355,-11.650,19.274
1782117313.630327,0.501000,1759821,1000,12,0,1,268.959,10.933,11.963,607.819,-15.136,19.323
1782117313.631327,0.502000,1759822,1000,12,0,1,267.422,7.115,12.005,596.649,-18.692,19.469
1782117313.632327,0.503000,1759823,1000,12,0,1,253.490,-6.959,11.954,599.724,-10.983,19.530
1782117313.633327,0.504000,1759824,1000,12,0,1,247.749,-14.465,11.978,606.306,2.696,19.524
1782117313.634327,0.505000,1759825,1000,12,0,1,234.370,-21.898,12.151,612.263,11.330,19.576
1782117313.635327,0.506000,1759826,1000,12,0,1,228.292,-27.241,12.483,618.965,19.626,19.771
1782117313.636327,0.507000,1759827,1000,12,0,1,235.114,-15.958,12.308,623.529,24.015,20.058
1782117313.637327,0.508000,1759828,1000,12,0,1,232.664,-12.661,12.087,625.330,24.020,20.344
1782117313.638327,0.509000,1759829,1000,12,0,1,228.749,-14.570,12.166,624.009,20.862,20.553
1782117313.639327,0.510000,1759830,1000,12,0,1,237.252,-4.074,12.177,621.511,15.503,20.663
1782117313.640327,0.511000,1759831,1000,12,0,1,238.069,0.605,12.085,621.199,12.671,20.733
1782117313.641327,0.512000,1759832,1000,12,0,1,234.226,-2.624,11.790,625.066,13.101,20.813
1782117313.642327,0.513000,1759833,1000,12,0,1,241.432,3.618,11.477,629.005,14.448,20.913
1782117313.643327,0.514000,1759834,1000,12,0,1,248.037,11.119,11.583,633.137,14.563,21.000
1782117313.644327,0.515000,1759835,1000,12,0,1,258.246,16.925,11.749,632.176,11.657,21.048
1782117313.645327,0.516000,1759836,1000,12,0,1,256.973,16.165,11.942,630.086,6.393,21.050
1782117313.646327,0.517000,1759837,1000,12,0,1,251.809,6.291,11.971,628.597,3.958,21.027
1782117313.647327,0.518000,1759838,1000,12,0,1,265.356,14.741,12.148,628.477,2.762,20.994
1782117313.648327,0.519000,1759839,1000,12,0,1,271.506,20.107,12.325,633.930,6.981,20.940
1782117313.649327,0.520000,1759840,1000,12,0,1,262.138,7.358,12.026,632.176,6.917,20.833
1782117313.650327,0.521000,1759841,1000,12,0,1,254.187,-2.719,11.998,628.765,2.441,20.796
1782117313.651327,0.522000,1759842,1000,12,0,1,253.778,-4.369,11.890,632.200,6.029,20.806
1782117313.652327,0.523000,1759843,1000,12,0,1,256.373,-1.592,11.811,630.326,5.837,20.712
1782117313.653327,0.524000,1759844,1000,12,0,1,261.369,2.404,11.808,627.132,2.250,20.537
1782117313.654327,0.525000,1759845,1000,12,0,1,270.425,9.750,11.887,626.651,2.439,20.407
1782117313.655327,0.526000,1759846,1000,12,0,1,280.994,17.581,12.125,629.149,4.274,20.212
1782117313.656327,0.527000,1759847,1000,12,0,1,274.772,11.573,12.235,626.603,2.666,19.927
1782117313.657327,0.528000,1759848,1000,12,0,1,254.451,-9.098,12.301,630.278,3.065,19.688
1782117313.658327,0.529000,1759849,1000,12,0,1,235.979,-25.364,12.652,637.172,8.868,19.508
1782117313.659327,0.530000,1759850,1000,12,0,1,238.958,-21.654,12.814,644.403,11.825,19.374
1782117313.660327,0.531000,1759851,1000,12,0,1,244.218,-10.952,12.682,642.937,8.422,19.356
1782117313.661327,0.532000,1759852,1000,12,0,1,247.317,-7.223,12.548,641.352,1.869,19.322
1782117313.662327,0.533000,1759853,1000,12,0,1,252.673,-0.977,12.492,638.229,-2.618,19.094
1782117313.663327,0.534000,1759854,1000,12,0,1,250.391,-1.808,12.414,638.109,-5.859,18.936
1782117313.664327,0.535000,1759855,1000,12,0,1,244.410,-8.033,12.462,639.983,-4.819,18.948
1782117313.665327,0.536000,1759856,1000,12,0,1,241.888,-9.700,12.537,638.013,-6.900,18.891
1782117313.666327,0.537000,1759857,1000,12,0,1,244.194,-7.342,12.526,636.163,-9.215,18.181
1782117313.667327,0.538000,1759858,1000,12,0,1,256.781,3.626,12.396,636.067,-8.088,16.105
1782117313.668327,0.539000,1759859,1000,12,0,1,256.805,5.652,12.301,636.884,-6.463,14.604
1782117313.669327,0.540000,1759860,1000,12,0,1,247.317,-5.185,11.676,635.971,-5.096,13.875
1782117313.670327,0.541000,1759861,1000,12,0,1,244.002,-8.355,11.688,633.449,-5.986,12.948
1782117313.671327,0.542000,1759862,1000,12,0,1,245.635,-5.565,11.491,633.161,-4.378,11.626
1782117313.672327,0.543000,1759863,1000,12,0,1,247.677,-2.341,11.218,634.818,-1.100,10.720
1782117313.673327,0.544000,1759864,1000,12,0,1,252.265,2.560,11.176,638.421,3.276,10.580
1782117313.674327,0.545000,1759865,1000,12,0,1,260.408,10.037,11.216,640.559,5.985,10.591
1782117313.675327,0.546000,1759866,1000,12,0,1,263.002,13.001,11.356,641.208,5.965,10.590
1782117313.676327,0.547000,1759867,1000,12,0,1,254.235,4.661,11.285,642.025,5.710,10.571
1782117313.677327,0.548000,1759868,1000,12,0,1,250.920,-0.019,11.269,639.767,2.769,10.351
1782117313.678327,0.549000,1759869,1000,12,0,1,243.906,-3.511,11.267,637.124,-1.399,10.159
1782117313.679327,0.550000,1759870,1000,12,0,1,243.906,-4.760,11.286,637.124,-2.604,10.031
1782117313.680327,0.551000,1759871,1000,12,0,1,253.778,5.995,11.211,653.578,8.532,9.874
1782117313.681327,0.552000,1759872,1000,12,0,1,235.859,-5.760,11.196,659.031,14.383,9.729
1782117313.682327,0.553000,1759873,1000,12,0,1,216.859,-25.601,11.725,670.705,16.311,9.877
1782117313.683327,0.554000,1759874,1000,12,0,1,207.827,-27.902,12.201,673.516,18.443,10.209
1782117313.684327,0.555000,1759875,1000,12,0,1,213.135,-20.948,12.168,675.173,11.534,10.213
1782117313.685327,0.556000,1759876,1000,12,0,1,243.305,8.592,11.606,685.022,16.798,10.112
1782117313.686327,0.557000,1759877,1000,12,0,1,266.245,31.525,12.226,693.044,19.706,9.924
1782117313.687327,0.558000,1759878,1000,12,0,1,265.140,26.593,12.665,704.214,23.438,9.896
1782117313.688327,0.559000,1759879,1000,12,0,1,257.189,13.907,12.651,709.691,24.940,10.083
1782117313.689327,0.560000,1759880,1000,12,0,1,243.377,-0.792,12.638,705.055,14.729,10.060
1782117313.690327,0.561000,1759881,1000,12,0,1,229.109,-15.008,12.815,700.179,6.343,9.939
1782117313.691327,0.562000,1759882,1000,12,0,1,225.362,-17.393,13.043,714.735,13.412,9.948
1782117313.692327,0.563000,1759883,1000,12,0,1,241.720,-1.532,13.035,725.184,22.665,10.250
1782117313.693327,0.564000,1759884,1000,12,0,1,247.725,8.754,12.999,714.255,8.128,10.106
1782117313.694327,0.565000,1759885,1000,12,0,1,257.886,13.942,12.928,695.903,-12.026,10.115
1782117313.695327,0.566000,1759886,1000,12,0,1,277.295,31.016,13.459,692.276,-18.367,10.404
1782117313.696327,0.567000,1759887,1000,12,0,1,287.071,36.698,14.397,690.522,-17.692,10.686
1782117313.697327,0.568000,1759888,1000,12,0,1,276.838,23.657,14.633,677.743,-28.102,11.394
1782117313.698327,0.569000,1759889,1000,12,0,1,264.275,6.911,14.388,651.224,-48.629,13.272
1782117313.699327,0.570000,1759890,1000,12,0,1,277.991,13.973,14.485,600.901,-85.453,17.923
1782117313.700327,0.571000,1759891,1000,12,0,1,293.629,28.240,15.021,568.353,-107.954,23.541
1782117313.701327,0.572000,1759892,1000,12,0,1,284.837,16.443,15.187,573.710,-87.439,26.578
1782117313.702327,0.573000,1759893,1000,12,0,1,263.915,-6.552,15.214,588.098,-58.399,27.819
1782117313.703327,0.574000,1759894,1000,12,0,1,238.285,-30.010,15.791,598.859,-37.089,28.308
1782117313.704327,0.575000,1759895,1000,12,0,1,225.026,-41.095,16.770,612.791,-17.153,28.409
1782117313.705327,0.576000,1759896,1000,12,0,1,223.320,-36.877,17.385,618.700,-4.872,28.411
1782117313.706327,0.577000,1759897,1000,12,0,1,232.664,-24.758,17.659,614.641,-5.136,28.418
1782117313.707327,0.578000,1759898,1000,12,0,1,238.910,-13.686,17.718,614.281,-2.919,28.418
1782117313.708327,0.579000,1759899,1000,12,0,1,253.995,-1.273,17.352,617.451,3.954,28.395
1782117313.709327,0.580000,1759900,1000,12,0,1,253.995,2.925,17.084,617.451,7.420,28.366
1782117313.710327,0.581000,1759901,1000,12,0,1,253.995,-1.933,17.016,617.451,10.142,28.377
1782117313.711327,0.582000,1759902,1000,12,0,1,259.375,3.841,16.994,623.457,17.642,28.485
1782117313.712327,0.583000,1759903,1000,12,0,1,255.676,0.174,16.994,624.033,21.751,28.648
1782117313.713327,0.584000,1759904,1000,12,0,1,254.091,-3.187,16.998,626.651,23.676,28.831
1782117313.714327,0.585000,1759905,1000,12,0,1,242.585,-9.944,17.018,636.932,33.577,29.212
1782117313.715327,0.586000,1759906,1000,12,0,1,236.940,-16.533,17.123,646.180,40.979,29.765
1782117313.716327,0.587000,1759907,1000,12,0,1,239.102,-9.303,17.142,644.691,37.698,30.211
1782117313.717327,0.588000,1759908,1000,12,0,1,245.107,-2.405,17.138,637.845,27.555,30.440
1782117313.718327,0.589000,1759909,1000,12,0,1,254.259,8.565,17.162,630.807,18.400,30.537
1782117313.719327,0.590000,1759910,1000,12,0,1,257.117,12.226,17.233,627.276,12.586,30.580
1782117313.720327,0.591000,1759911,1000,12,0,1,257.862,11.815,17.274,627.684,10.963,30.608
1782117313.721327,0.592000,1759912,1000,12,0,1,259.159,12.455,17.345,622.207,5.280,30.611
1782117313.722327,0.593000,1759913,1000,12,0,1,257.285,9.695,17.396,611.302,-6.378,30.624
1782117313.723327,0.594000,1759914,1000,12,0,1,254.811,6.133,17.414,607.579,-10.877,30.659
1782117313.724327,0.595000,1759915,1000,12,0,1,245.683,-1.941,17.358,613.392,-5.545,30.657
1782117313.725327,0.596000,1759916,1000,12,0,1,233.337,-13.355,17.364,621.631,2.035,30.647
1782117313.726327,0.597000,1759917,1000,12,0,1,229.181,-16.406,17.506,626.003,5.176,30.645
1782117313.727327,0.598000,1759918,1000,12,0,1,231.295,-11.991,17.588,627.084,4.501,30.649
1782117313.728327,0.599000,1759919,1000,12,0,1,229.325,-11.191,17.652,628.237,3.944,30.653
1782117313.729327,0.600000,1759920,1000,12,0,1,227.452,-11.816,17.718,629.918,4.507,30.658
1782117313.730327,0.601000,1759921,1000,12,0,1,248.110,5.264,17.713,626.099,1.337,30.635
1782117313.731327,0.602000,1759922,1000,12,0,1,253.274,14.548,17.814,625.474,-0.211,30.567
1782117313.732327,0.603000,1759923,1000,12,0,1,233.865,-5.642,17.460,629.678,4.802,30.487
1782117313.733327,0.604000,1759924,1000,12,0,1,223.104,-16.447,17.167,632.680,8.264,30.398
1782117313.734327,0.605000,1759925,1000,12,0,1,229.710,-8.504,16.952,631.047,7.467,30.373
1782117313.735327,0.606000,1759926,1000,12,0,1,239.078,2.947,16.913,631.696,7.408,30.298
1782117313.736327,0.607000,1759927,1000,12,0,1,237.252,3.735,16.324,633.449,9.472,30.199
1782117313.737327,0.608000,1759928,1000,12,0,1,240.927,5.379,15.903,634.338,9.595,30.047
1782117313.738327,0.609000,1759929,1000,12,0,1,257.357,20.514,16.045,629.270,4.973,29.848
1782117313.739327,0.610000,1759930,1000,12,0,1,258.655,22.641,16.361,630.975,3.769,29.780
1782117313.740327,0.611000,1759931,1000,12,0,1,253.971,14.243,16.347,634.458,6.978,29.783
1782117313.741327,0.612000,1759932,1000,12,0,1,248.710,8.913,16.210,634.266,4.539,29.729
1782117313.742327,0.613000,1759933,1000,12,0,1,251.833,8.682,16.255,635.611,3.083,29.559
1782117313.743327,0.614000,1759934,1000,12,0,1,263.122,17.950,16.406,635.010,0.824,29.537
1782117313.744327,0.615000,1759935,1000,12,0,1,270.473,22.305,16.590,633.257,-3.560,29.492
1782117313.745327,0.616000,1759936,1000,12,0,1,270.905,18.732,16.217,632.729,-5.546,29.388
1782117313.746327,0.617000,1759937,1000,12,0,1,264.372,9.382,15.421,631.287,-8.032,29.303
1782117313.747327,0.618000,1759938,1000,12,0,1,260.408,1.376,15.055,632.584,-7.863,29.054
1782117313.748327,0.619000,1759939,1000,12,0,1,263.771,2.185,15.027,635.971,-4.898,28.237
1782117313.749327,0.620000,1759940,1000,12,0,1,267.710,3.692,14.905,638.109,-2.894,25.523
1782117313.750327,0.621000,1759941,1000,12,0,1,263.411,-1.464,14.362,638.061,-2.805,20.458
1782117313.751327,0.622000,1759942,1000,12,0,1,257.093,-9.620,14.237,637.701,-2.805,16.302
1782117313.752327,0.623000,1759943,1000,12,0,1,245.611,-18.765,14.453,638.445,-1.407,14.057
1782117313.753327,0.624000,1759944,1000,12,0,1,250.992,-16.102,14.002,638.421,-0.167,13.042
1782117313.754327,0.625000,1759945,1000,12,0,1,260.913,-3.089,12.747,639.142,1.178,12.815
1782117313.755327,0.626000,1759946,1000,12,0,1,256.517,-6.217,11.664,640.199,3.236,12.805
1782117313.756327,0.627000,1759947,1000,12,0,1,249.503,-12.678,11.270,639.959,3.603,12.794
1782117313.757327,0.628000,1759948,1000,12,0,1,253.394,-8.494,11.167,642.577,5.588,12.812
1782117313.758327,0.629000,1759949,1000,12,0,1,256.685,-2.918,11.173,644.883,7.751,12.847
1782117313.759327,0.630000,1759950,1000,12,0,1,251.088,-6.358,11.202,647.189,8.135,12.855
1782117313.760327,0.631000,1759951,1000,12,0,1,245.443,-10.899,11.304,649.543,8.635,12.833
1782117313.761327,0.632000,1759952,1000,12,0,1,240.495,-12.432,11.427,652.618,8.585,12.647
1782117313.762327,0.633000,1759953,1000,12,0,1,252.721,-2.133,11.431,648.270,3.115,12.275
1782117313.763327,0.634000,1759954,1000,12,0,1,269.776,16.192,11.649,641.160,-6.471,11.845
1782117313.764327,0.635000,1759955,1000,12,0,1,271.025,16.260,11.791,638.517,-10.233,10.947
1782117313.765327,0.636000,1759956,1000,12,0,1,264.323,7.239,11.602,637.605,-11.234,9.423
1782117313.766327,0.637000,1759957,1000,12,0,1,255.364,-2.258,11.531,635.419,-13.005,7.984
1782117313.767327,0.638000,1759958,1000,12,0,1,256.493,-3.602,11.537,635.203,-12.872,7.202
1782117313.768327,0.639000,1759959,1000,12,0,1,259.111,0.234,11.474,638.205,-9.321,6.844
1782117313.769327,0.640000,1759960,1000,12,0,1,254.235,-4.588,11.361,641.376,-5.222,6.650
1782117313.770327,0.641000,1759961,1000,12,0,1,248.326,-9.907,11.325,643.610,-2.550,6.476
1782117313.771327,0.642000,1759962,1000,12,0,1,259.279,-1.559,11.189,643.802,-1.337,6.436
1782117313.772327,0.643000,1759963,1000,12,0,1,271.049,11.114,11.215,645.411,0.326,6.373
1782117313.773327,0.644000,1759964,1000,12,0,1,269.152,8.119,11.241,644.547,1.204,6.186
1782117313.774327,0.645000,1759965,1000,12,0,1,264.516,1.597,11.240,642.217,-0.472,6.137
1782117313.775327,0.646000,1759966,1000,12,0,1,262.426,-0.895,11.081,645.195,2.760,6.143
1782117313.776327,0.647000,1759967,1000,12,0,1,259.423,-3.534,10.846,644.282,3.890,6.124
1782117313.777327,0.648000,1759968,1000,12,0,1,258.631,-4.056,10.728,641.928,1.296,6.093
1782117313.778327,0.649000,1759969,1000,12,0,1,264.876,1.513,10.613,643.658,3.203,6.084
1782117313.779327,0.650000,1759970,1000,12,0,1,266.341,4.482,10.500,645.267,4.763,6.088
1782117313.780327,0.651000,1759971,1000,12,0,1,257.574,-3.525,10.485,642.817,2.281,6.094
1782117313.781327,0.652000,1759972,1000,12,0,1,251.280,-9.384,10.367,644.811,2.151,6.102
1782117313.782327,0.653000,1759973,1000,12,0,1,249.238,-9.389,10.421,651.705,7.334,6.152
1782117313.783327,0.654000,1759974,1000,12,0,1,244.170,-11.480,10.287,653.266,7.423,6.130
1782117313.784327,0.655000,1759975,1000,12,0,1,230.502,-20.497,10.620,648.390,0.608,6.039
1782117313.785327,0.656000,1759976,1000,12,0,1,242.345,-11.172,10.729,651.969,0.443,5.948
1782117313.786327,0.657000,1759977,1000,12,0,1,259.375,9.959,10.808,656.941,4.433,5.829
1782117313.787327,0.658000,1759978,1000,12,0,1,262.354,11.440,10.902,659.752,4.361,5.702
1782117313.788327,0.659000,1759979,1000,12,0,1,267.278,12.976,10.668,660.857,3.746,5.683
1782117313.789327,0.660000,1759980,1000,12,0,1,271.578,15.209,10.401,659.944,1.203,5.661
1782117313.790327,0.661000,1759981,1000,12,0,1,266.077,7.848,10.264,663.907,2.751,5.588
1782117313.791327,0.662000,1759982,1000,12,0,1,252.866,-5.465,10.215,668.687,6.807,5.634
1782117313.792327,0.663000,1759983,1000,12,0,1,239.246,-18.042,10.457,674.044,9.565,5.777
1782117313.793327,0.664000,1759984,1000,12,0,1,227.668,-25.411,10.762,681.370,14.571,6.133
1782117313.794327,0.665000,1759985,1000,12,0,1,242.825,-11.725,10.422,671.354,5.859,6.168
1782117313.795327,0.666000,1759986,1000,12,0,1,276.142,21.968,10.548,642.745,-20.312,6.759
1782117313.796327,0.667000,1759987,1000,12,0,1,294.878,38.314,11.784,614.185,-43.468,9.065
1782117313.797327,0.668000,1759988,1000,12,0,1,291.683,31.008,12.572,607.267,-44.772,11.002
1782117313.798327,0.669000,1759989,1000,12,0,1,278.856,14.085,12.725,615.121,-28.907,11.716
1782117313.799327,0.670000,1759990,1000,12,0,1,264.083,-2.010,12.717,624.129,-14.382,11.884
1782117313.800327,0.671000,1759991,1000,12,0,1,252.409,-13.036,12.849,625.498,-8.299,11.936
1782117313.801327,0.672000,1759992,1000,12,0,1,252.001,-12.833,12.905,628.333,-4.729,11.948
1782117313.802327,0.673000,1759993,1000,12,0,1,252.794,-8.621,12.688,633.137,1.274,11.947
1782117313.803327,0.674000,1759994,1000,12,0,1,258.967,-3.172,12.490,633.930,2.231,11.951
1782117313.804327,0.675000,1759995,1000,12,0,1,261.177,1.512,12.484,634.170,1.349,11.952
1782117313.805327,0.676000,1759996,1000,12,0,1,262.978,1.309,12.454,634.890,1.545,11.945
1782117313.806327,0.677000,1759997,1000,12,0,1,270.545,7.461,12.370,634.098,0.097,11.934
1782117313.807327,0.678000,1759998,1000,12,0,1,275.901,10.987,12.409,634.002,-0.456,11.908
1782117313.808327,0.679000,1759999,1000,12,0,1,268.623,3.113,12.410,630.447,-2.915,11.865
1782117313.809327,0.680000,1760000,1000,12,0,1,264.275,-4.307,12.392,632.608,-1.555,11.811
1782117313.810327,0.681000,1760001,1000,12,0,1,269.104,-0.797,12.296,637.340,4.642,11.766
1782117313.811327,0.682000,1760002,1000,12,0,1,267.254,-1.762,12.173,637.749,5.919,11.733
1782117313.812327,0.683000,1760003,1000,12,0,1,266.437,-4.820,12.188,635.179,4.472,11.742
1782117313.813327,0.684000,1760004,1000,12,0,1,262.714,-6.422,12.005,631.600,2.580,11.712
1782117313.814327,0.685000,1760005,1000,12,0,1,260.336,-9.594,11.861,631.960,3.896,11.635
1782117313.815327,0.686000,1760006,1000,12,0,1,262.618,-5.813,11.845,636.884,9.915,11.611
1782117313.816327,0.687000,1760007,1000,12,0,1,267.446,-0.908,11.842,641.208,14.558,11.648
1782117313.817327,0.688000,1760008,1000,12,0,1,262.162,-3.172,11.839,646.636,18.455,11.797
1782117313.818327,0.689000,1760009,1000,12,0,1,245.107,-17.145,12.085,651.513,21.338,12.105
1782117313.819327,0.690000,1760010,1000,12,0,1,245.467,-16.878,12.301,651.945,19.178,12.384
1782117313.820327,0.691000,1760011,1000,12,0,1,253.995,-3.698,12.232,651.152,14.774,12.553
1782117313.821327,0.692000,1760012,1000,12,0,1,259.639,2.546,12.236,650.792,11.197,12.651
1782117313.822327,0.693000,1760013,1000,12,0,1,261.321,5.594,12.160,642.649,1.816,12.654
1782117313.823327,0.694000,1760014,1000,12,0,1,267.855,9.616,12.182,641.376,-3.666,12.663
1782117313.824327,0.695000,1760015,1000,12,0,1,279.456,19.056,12.474,639.262,-5.028,12.683
1782117313.825327,0.696000,1760016,1000,12,0,1,277.391,16.215,12.683,641.376,-6.268,12.708
1782117313.826327,0.697000,1760017,1000,12,0,1,273.091,7.388,12.716,643.153,-3.937,12.708
1782117313.827327,0.698000,1760018,1000,12,0,1,269.704,3.316,12.712,641.472,-6.800,12.743
1782117313.828327,0.699000,1760019,1000,12,0,1,267.782,-0.911,12.710,641.088,-7.505,12.780
1782117313.829327,0.700000,1760020,1000,12,0,1,267.230,-1.677,12.697,644.114,-4.696,12.779
1782117313.830327,0.701000,1760021,1000,12,0,1,266.990,-2.753,12.693,643.946,-3.826,12.786
1782117313.831327,0.702000,1760022,1000,12,0,1,262.354,-6.244,12.654,641.640,-5.338,12.805
1782117313.832327,0.703000,1760023,1000,12,0,1,260.576,-8.458,12.641,642.697,-3.753,12.774
1782117313.833327,0.704000,1760024,1000,12,0,1,265.236,-3.368,12.545,643.802,-0.721,12.731
1782117313.834327,0.705000,1760025,1000,12,0,1,269.560,1.553,12.208,645.267,1.154,12.732
1782117313.835327,0.706000,1760026,1000,12,0,1,267.734,0.372,12.105,645.147,2.693,12.738
1782117313.836327,0.707000,1760027,1000,12,0,1,260.096,-5.904,12.052,646.973,4.024,12.735
1782117313.837327,0.708000,1760028,1000,12,0,1,255.436,-9.831,12.024,646.709,5.026,12.740
1782117313.838327,0.709000,1760029,1000,12,0,1,245.323,-14.994,12.071,648.342,5.139,12.749
1782117313.839327,0.710000,1760030,1000,12,0,1,239.318,-19.230,12.185,647.741,5.092,12.769
1782117313.840327,0.711000,1760031,1000,12,0,1,244.603,-10.604,12.226,646.516,2.218,12.767
1782117313.841327,0.712000,1760032,1000,12,0,1,254.523,0.983,12.203,645.508,0.690,12.731
1782117313.842327,0.713000,1760033,1000,12,0,1,260.528,8.077,11.988,651.921,3.955,12.671
1782117313.843327,0.714000,1760034,1000,12,0,1,270.473,15.050,11.633,650.023,2.817,12.508
1782117313.844327,0.715000,1760035,1000,12,0,1,267.302,13.105,11.662,646.204,-4.155,12.495
1782117313.845327,0.716000,1760036,1000,12,0,1,263.122,4.735,11.261,643.153,-7.008,12.200
1782117313.846327,0.717000,1760037,1000,12,0,1,263.651,4.778,9.894,645.820,-6.298,10.576
1782117313.847327,0.718000,1760038,1000,12,0,1,267.927,6.542,8.918,647.141,-4.127,8.491
1782117313.848327,0.719000,1760039,1000,12,0,1,267.422,5.871,8.732,651.248,-1.895,7.447
1782117313.849327,0.720000,1760040,1000,12,0,1,251.496,-8.184,8.804,657.278,3.572,7.182
1782117313.850327,0.721000,1760041,1000,12,0,1,234.298,-24.148,9.261,662.010,6.953,7.153
1782117313.851327,0.722000,1760042,1000,12,0,1,231.487,-23.731,9.682,661.577,5.802,7.169
1782117313.852327,0.723000,1760043,1000,12,0,1,243.305,-9.775,9.704,659.944,3.176,7.181
1782117313.853327,0.724000,1760044,1000,12,0,1,247.029,-0.946,9.694,658.503,1.541,7.177
1782117313.854327,0.725000,1760045,1000,12,0,1,246.548,-1.476,9.694,658.359,1.501,7.178
1782117313.855327,0.726000,1760046,1000,12,0,1,264.059,13.571,9.880,654.924,-0.723,7.175
1782117313.856327,0.727000,1760047,1000,12,0,1,272.418,23.399,10.366,650.384,-4.313,7.201
1782117313.857327,0.728000,1760048,1000,12,0,1,277.631,22.630,10.737,649.471,-4.411,7.228
1782117313.858327,0.729000,1760049,1000,12,0,1,277.535,21.458,11.149,653.675,0.225,7.216
1782117313.859327,0.730000,1760050,1000,12,0,1,271.506,11.572,11.252,654.227,1.819,7.218
1782117313.860327,0.731000,1760051,1000,12,0,1,275.781,11.689,11.372,652.882,-0.228,7.188
1782117313.861327,0.732000,1760052,1000,12,0,1,271.794,8.491,11.433,646.420,-5.474,7.181
1782117313.862327,0.733000,1760053,1000,12,0,1,262.474,-3.362,11.422,641.616,-10.789,7.314
1782117313.863327,0.734000,1760054,1000,12,0,1,267.014,-0.759,11.387,642.601,-9.263,7.421
1782117313.864327,0.735000,1760055,1000,12,0,1,272.923,5.111,11.329,647.862,-4.345,7.426
1782117313.865327,0.736000,1760056,1000,12,0,1,274.172,4.737,11.319,651.345,-0.940,7.294
1782117313.866327,0.737000,1760057,1000,12,0,1,271.650,1.329,11.320,651.465,-1.566,7.001
1782117313.867327,0.738000,1760058,1000,12,0,1,266.846,-4.190,11.326,646.492,-6.195,6.555
1782117313.868327,0.739000,1760059,1000,12,0,1,255.244,-13.732,11.233,645.027,-8.330,5.937
1782117313.869327,0.740000,1760060,1000,12,0,1,248.446,-20.009,11.335,643.370,-7.991,5.401
1782117313.870327,0.741000,1760061,1000,12,0,1,260.792,-7.944,11.379,648.246,-3.838,5.009
1782117313.871327,0.742000,1760062,1000,12,0,1,269.536,3.521,11.384,649.303,0.138,4.753
1782117313.872327,0.743000,1760063,1000,12,0,1,271.097,3.399,11.366,646.108,-2.555,4.759
1782117313.873327,0.744000,1760064,1000,12,0,1,273.956,5.130,11.308,647.453,-0.342,4.731
1782117313.874327,0.745000,1760065,1000,12,0,1,277.030,6.500,11.021,653.458,6.289,4.761
1782117313.875327,0.746000,1760066,1000,12,0,1,270.497,0.624,10.780,655.356,9.187,4.855
1782117313.876327,0.747000,1760067,1000,12,0,1,258.366,-11.282,10.847,658.911,11.313,5.082
1782117313.877327,0.748000,1760068,1000,12,0,1,252.577,-15.943,11.069,663.859,15.266,5.437
1782117313.878327,0.749000,1760069,1000,12,0,1,245.804,-18.276,11.366,666.958,16.401,5.815
1782117313.879327,0.750000,1760070,1000,12,0,1,239.102,-21.763,11.773,668.639,15.367,6.172
1782117313.880327,0.751000,1760071,1000,12,0,1,244.194,-14.200,11.937,671.210,14.734,6.492
1782117313.881327,0.752000,1760072,1000,12,0,1,258.486,1.620,11.906,672.339,12.755,6.695
1782117313.882327,0.753000,1760073,1000,12,0,1,279.264,20.277,12.188,667.102,5.567,6.721
1782117313.883327,0.754000,1760074,1000,12,0,1,293.509,31.957,12.990,664.604,-0.514,6.720
1782117313.884327,0.755000,1760075,1000,12,0,1,289.857,24.941,13.459,666.309,-0.372,6.718
1782117313.885327,0.756000,1760076,1000,12,0,1,276.574,8.240,13.509,666.550,-1.809,6.712
1782117313.886327,0.757000,1760077,1000,12,0,1,277.967,4.623,13.499,662.514,-6.394,6.749
1782117313.887327,0.758000,1760078,1000,12,0,1,283.900,9.863,13.500,661.794,-8.744,6.825
1782117313.888327,0.759000,1760079,1000,12,0,1,273.331,-0.155,13.332,662.514,-7.562,6.870
1782117313.889327,0.760000,1760080,1000,12,0,1,261.321,-13.239,13.185,657.518,-11.290,7.016
1782117313.890327,0.761000,1760081,1000,12,0,1,261.081,-12.650,13.221,657.662,-11.584,7.198
1782117313.891327,0.762000,1760082,1000,12,0,1,261.441,-9.690,13.291,670.321,0.470,7.197
1782117313.892327,0.763000,1760083,1000,12,0,1,267.374,-4.190,13.255,677.047,8.231,7.269
1782117313.893327,0.764000,1760084,1000,12,0,1,274.989,4.295,13.098,675.990,5.721,7.303
1782117313.894327,0.765000,1760085,1000,12,0,1,273.547,3.267,12.974,665.589,-3.117,7.293
1782117313.895327,0.766000,1760086,1000,12,0,1,267.302,-3.189,12.965,647.693,-18.564,7.688
1782117313.896327,0.767000,1760087,1000,12,0,1,268.935,-2.669,12.952,642.697,-22.017,8.246
1782117313.897327,0.768000,1760088,1000,12,0,1,276.214,4.235,12.933,642.000,-16.828,8.563
1782117313.898327,0.769000,1760089,1000,12,0,1,279.985,7.366,12.949,642.625,-13.616,8.773
1782117313.899327,0.770000,1760090,1000,12,0,1,278.592,4.728,12.914,643.442,-8.792,8.846
1782117313.900327,0.771000,1760091,1000,12,0,1,271.626,-2.215,12.458,651.345,-1.074,8.792
1782117313.901327,0.772000,1760092,1000,12,0,1,271.313,-4.476,12.014,659.391,8.257,8.832
1782117313.902327,0.773000,1760093,1000,12,0,1,269.464,-4.203,11.949,666.045,12.480,8.995
1782117313.903327,0.774000,1760094,1000,12,0,1,269.224,-5.592,11.975,669.744,14.258,9.216
1782117313.904327,0.775000,1760095,1000,12,0,1,268.263,-4.632,11.991,674.428,14.740,9.446
1782117313.905327,0.776000,1760096,1000,12,0,1,266.029,-6.590,11.873,677.575,14.758,9.673
1782117313.906327,0.777000,1760097,1000,12,0,1,264.804,-6.559,11.440,674.524,9.022,9.738
1782117313.907327,0.778000,1760098,1000,12,0,1,273.067,0.510,10.984,655.380,-8.941,9.800
1782117313.908327,0.779000,1760099,1000,12,0,1,280.946,8.901,10.631,636.476,-27.143,10.525
1782117313.909327,0.780000,1760100,1000,12,0,1,280.537,7.687,10.560,624.754,-33.523,11.540
1782117313.910327,0.781000,1760101,1000,12,0,1,276.454,2.500,10.436,624.057,-29.532,12.273
1782117313.911327,0.782000,1760102,1000,12,0,1,257.646,-12.393,10.514,634.098,-14.815,12.426
1782117313.912327,0.783000,1760103,1000,12,0,1,238.333,-29.881,11.321,650.696,4.073,12.346
1782117313.913327,0.784000,1760104,1000,12,0,1,222.864,-37.405,12.496,657.638,13.445,12.422
1782117313.914327,0.785000,1760105,1000,12,0,1,222.143,-33.807,13.360,656.989,12.099,12.525
1782117313.915327,0.786000,1760106,1000,12,0,1,236.748,-13.567,13.480,651.393,7.161,12.565
1782117313.916327,0.787000,1760107,1000,12,0,1,262.546,12.347,13.591,641.088,-1.815,12.565
1782117313.917327,0.788000,1760108,1000,12,0,1,279.793,29.841,14.219,629.486,-11.005,12.631
1782117313.918327,0.789000,1760109,1000,12,0,1,289.857,34.122,14.890,626.747,-11.783,12.686
1782117313.919327,0.790000,1760110,1000,12,0,1,294.061,33.494,15.366,628.261,-6.905,12.673
1782117313.920327,0.791000,1760111,1000,12,0,1,286.711,22.030,15.639,624.850,-6.898,12.699
1782117313.921327,0.792000,1760112,1000,12,0,1,283.516,12.741,15.734,621.655,-8.342,12.754
1782117313.922327,0.793000,1760113,1000,12,0,1,265.500,-2.269,15.730,628.813,-0.737,12.749
1782117313.923327,0.794000,1760114,1000,12,0,1,239.222,-28.120,16.209,644.547,13.904,12.900
1782117313.924327,0.795000,1760115,1000,12,0,1,245.635,-22.070,16.481,643.298,14.413,13.030
1782117313.925327,0.796000,1760116,1000,12,0,1,273.307,7.333,16.514,630.855,0.091,12.965
1782117313.926327,0.797000,1760117,1000,12,0,1,290.602,24.366,16.794,621.991,-7.953,12.915
1782117313.927327,0.798000,1760118,1000,12,0,1,286.495,19.005,16.857,623.072,-6.659,12.768
1782117313.928327,0.799000,1760119,1000,12,0,1,278.616,7.395,16.691,623.529,-3.116,12.563
1782117313.929327,0.800000,1760120,1000,12,0,1,281.018,7.158,16.436,624.273,-1.744,12.376
1782117313.930327,0.801000,1760121,1000,12,0,1,280.946,6.909,16.342,625.186,1.168,12.200
1782117313.931327,0.802000,1760122,1000,12,0,1,276.022,0.705,16.340,624.561,1.905,12.069
1782117313.932327,0.803000,1760123,1000,12,0,1,259.135,-13.039,16.192,624.129,2.654,12.049
1782117313.933327,0.804000,1760124,1000,12,0,1,240.759,-29.333,16.093,625.426,5.050,12.070
1782117313.934327,0.805000,1760125,1000,12,0,1,241.600,-26.100,16.129,630.879,10.158,12.155
1782117313.935327,0.806000,1760126,1000,12,0,1,249.959,-13.156,16.194,633.281,13.440,12.301
1782117313.936327,0.807000,1760127,1000,12,0,1,253.130,-7.367,16.215,630.326,9.892,12.347
1782117313.937327,0.808000,1760128,1000,12,0,1,258.895,-1.479,16.156,634.842,12.064,12.403
1782117313.938327,0.809000,1760129,1000,12,0,1,268.815,7.720,16.193,641.280,17.442,12.600
1782117313.939327,0.810000,1760130,1000,12,0,1,276.502,13.799,16.202,643.466,17.093,12.730
1782117313.940327,0.811000,1760131,1000,12,0,1,282.723,16.535,16.272,642.505,13.594,12.770
1782117313.941327,0.812000,1760132,1000,12,0,1,287.071,17.527,16.402,644.739,12.088,12.884
1782117313.942327,0.813000,1760133,1000,12,0,1,275.973,6.116,16.415,646.781,11.750,12.938
1782117313.943327,0.814000,1760134,1000,12,0,1,265.020,-7.493,16.438,647.862,9.466,12.982
1782117313.944327,0.815000,1760135,1000,12,0,1,265.789,-6.576,16.457,645.580,5.273,12.996
1782117313.945327,0.816000,1760136,1000,12,0,1,280.105,5.780,16.471,640.055,-1.865,12.731
1782117313.946327,0.817000,1760137,1000,12,0,1,298.337,22.077,16.761,631.359,-10.246,12.429
1782117313.947327,0.818000,1760138,1000,12,0,1,303.237,24.772,17.112,625.402,-15.651,12.398
1782117313.948327,0.819000,1760139,1000,12,0,1,288.945,9.002,17.128,627.876,-12.318,12.371
1782117313.949327,0.820000,1760140,1000,12,0,1,276.574,-5.829,17.135,632.104,-6.136,12.339
1782117313.950327,0.821000,1760141,1000,12,0,1,276.454,-6.136,17.154,635.010,-2.691,12.344
1782117313.951327,0.822000,1760142,1000,12,0,1,277.151,-3.843,17.151,632.080,-3.634,12.299
1782117313.952327,0.823000,1760143,1000,12,0,1,273.595,-6.431,17.164,627.804,-7.358,12.216
1782117313.953327,0.824000,1760144,1000,12,0,1,275.541,-4.889,17.160,632.104,-2.898,12.056
1782117313.954327,0.825000,1760145,1000,12,0,1,280.081,0.045,17.148,636.860,3.171,11.882
1782117313.955327,0.826000,1760146,1000,12,0,1,273.619,-4.681,17.135,636.356,2.868,11.705
1782117313.956327,0.827000,1760147,1000,12,0,1,272.683,-7.956,17.147,635.563,1.704,11.638
1782117313.957327,0.828000,1760148,1000,12,0,1,278.736,-1.426,17.148,635.803,1.784,11.571
1782117313.958327,0.829000,1760149,1000,12,0,1,270.785,-7.291,17.133,635.515,1.371,10.918
1782117313.959327,0.830000,1760150,1000,12,0,1,257.526,-20.008,17.331,633.761,-0.359,9.835
1782117313.960327,0.831000,1760151,1000,12,0,1,256.421,-20.011,17.557,633.377,-1.209,8.906
1782117313.961327,0.832000,1760152,1000,12,0,1,265.573,-9.394,17.520,634.386,-0.292,8.656
1782117313.962327,0.833000,1760153,1000,12,0,1,263.723,-7.273,17.033,634.674,-0.177,8.637
1782117313.963327,0.834000,1760154,1000,12,0,1,260.528,-10.676,16.261,635.419,-0.015,8.425
1782117313.964327,0.835000,1760155,1000,12,0,1,264.492,-5.074,15.559,637.172,1.175,8.251
1782117313.965327,0.836000,1760156,1000,12,0,1,267.254,-0.726,15.441,638.950,2.235,8.195
1782117313.966327,0.837000,1760157,1000,12,0,1,283.948,12.437,15.442,640.823,3.159,8.203
1782117313.967327,0.838000,1760158,1000,12,0,1,291.995,22.285,15.185,640.607,2.485,8.062
1782117313.968327,0.839000,1760159,1000,12,0,1,290.962,16.913,14.595,639.334,0.507,7.888
1782117313.969327,0.840000,1760160,1000,12,0,1,284.261,10.275,13.881,637.365,-1.352,7.829
1782117313.970327,0.841000,1760161,1000,12,0,1,278.424,2.345,13.531,634.794,-3.533,7.784
1782117313.971327,0.842000,1760162,1000,12,0,1,281.354,4.417,13.425,638.421,-0.643,7.695
1782117313.972327,0.843000,1760163,1000,12,0,1,283.132,6.738,13.455,639.550,2.011,7.700
1782117313.973327,0.844000,1760164,1000,12,0,1,281.907,4.439,12.870,641.856,2.766,7.455
1782117313.974327,0.845000,1760165,1000,12,0,1,272.659,-2.840,12.492,644.306,5.522,7.213
1782117313.975327,0.846000,1760166,1000,12,0,1,269.776,-7.571,12.495,648.678,7.731,7.295
1782117313.976327,0.847000,1760167,1000,12,0,1,268.911,-5.603,12.036,653.867,11.463,7.388
1782117313.977327,0.848000,1760168,1000,12,0,1,260.120,-12.577,11.866,659.824,14.213,7.598
1782117313.978327,0.849000,1760169,1000,12,0,1,262.090,-11.268,11.927,665.060,16.210,7.925
1782117313.979327,0.850000,1760170,1000,12,0,1,270.305,-1.457,11.886,666.093,14.024,8.165
1782117313.980327,0.851000,1760171,1000,12,0,1,275.205,2.802,11.852,670.561,13.262,8.376
1782117313.981327,0.852000,1760172,1000,12,0,1,269.944,-1.323,11.853,677.167,16.062,8.675
1782117313.982327,0.853000,1760173,1000,12,0,1,271.578,-2.861,11.716,679.136,13.756,8.882
1782117313.983327,0.854000,1760174,1000,12,0,1,291.131,13.515,11.122,673.371,5.247,8.884
1782117313.984327,0.855000,1760175,1000,12,0,1,302.684,23.679,11.013,671.354,-0.991,8.769
1782117313.985327,0.856000,1760176,1000,12,0,1,299.874,16.762,11.111,678.416,3.122,8.572
1782117313.986327,0.857000,1760177,1000,12,0,1,295.959,9.247,11.139,687.616,9.147,8.555
1782117313.987327,0.858000,1760178,1000,12,0,1,289.881,2.022,11.141,688.096,7.481,8.450
1782117313.988327,0.859000,1760179,1000,12,0,1,286.086,-3.049,11.096,686.583,2.067,8.087
1782117313.989327,0.860000,1760180,1000,12,0,1,278.135,-8.480,10.988,695.374,6.321,7.769
1782117313.990327,0.861000,1760181,1000,12,0,1,266.413,-17.778,11.027,702.076,10.821,7.681
1782117313.991327,0.862000,1760182,1000,12,0,1,270.977,-12.722,10.894,697.488,3.486,7.505
1782117313.992327,0.863000,1760183,1000,12,0,1,295.646,11.322,10.977,665.277,-24.315,8.086
1782117313.993327,0.864000,1760184,1000,12,0,1,310.443,26.362,11.545,633.161,-54.513,11.092
1782117313.994327,0.865000,1760185,1000,12,0,1,297.568,12.938,11.652,616.923,-61.459,14.072
1782117313.995327,0.866000,1760186,1000,12,0,1,290.602,0.627,11.623,600.997,-65.049,16.810
1782117313.996327,0.867000,1760187,1000,12,0,1,282.891,-4.510,11.214,599.652,-57.685,18.628
1782117313.997327,0.868000,1760188,1000,12,0,1,264.492,-21.359,11.073,609.356,-37.106,19.226
1782117313.998327,0.869000,1760189,1000,12,0,1,242.272,-38.231,12.257,618.676,-21.019,19.377
1782117313.999327,0.870000,1760190,1000,12,0,1,241.624,-36.910,13.296,622.640,-11.003,19.420
1782117314.000327,0.871000,1760191,1000,12,0,1,247.125,-23.772,13.687,628.117,-3.767,19.423
1782117314.001327,0.872000,1760192,1000,12,0,1,240.903,-24.419,14.106,638.061,7.312,19.444
1782117314.002327,0.873000,1760193,1000,12,0,1,249.743,-15.546,14.247,633.329,5.679,19.433
1782117314.003327,0.874000,1760194,1000,12,0,1,274.028,9.887,14.299,618.556,-7.998,19.461
1782117314.004327,0.875000,1760195,1000,12,0,1,285.342,21.082,14.606,612.791,-11.923,19.529
1782117314.005327,0.876000,1760196,1000,12,0,1,275.325,10.733,14.670,612.431,-8.336,19.560
1782117314.006327,0.877000,1760197,1000,12,0,1,263.987,-2.682,14.632,613.320,-4.243,19.568
1782117314.007327,0.878000,1760198,1000,12,0,1,263.867,-2.613,14.635,611.855,-1.671,19.568
1782117314.008327,0.879000,1760199,1000,12,0,1,275.229,7.815,14.640,611.758,0.700,19.567
1782117314.009327,0.880000,1760200,1000,12,0,1,283.348,16.669,14.557,611.855,4.313,19.577
1782117314.010327,0.881000,1760201,1000,12,0,1,273.139,7.927,14.323,614.929,8.889,19.616
1782117314.011327,0.882000,1760202,1000,12,0,1,265.452,-1.250,14.262,624.417,18.826,19.796
1782117314.012327,0.883000,1760203,1000,12,0,1,268.431,3.005,14.231,628.597,24.093,20.087
1782117314.013327,0.884000,1760204,1000,12,0,1,271.145,6.871,14.184,631.263,24.343,20.380
1782117314.014327,0.885000,1760205,1000,12,0,1,274.220,9.614,14.231,636.163,27.297,20.742
1782117314.015327,0.886000,1760206,1000,12,0,1,279.817,14.067,14.369,634.218,23.781,21.010
1782117314.016327,0.887000,1760207,1000,12,0,1,284.357,16.840,14.459,629.053,16.015,21.127
1782117314.017327,0.888000,1760208,1000,12,0,1,279.793,11.423,14.203,626.723,11.682,21.189
1782117314.018327,0.889000,1760209,1000,12,0,1,278.159,6.052,14.027,627.084,10.181,21.238
1782117314.019327,0.890000,1760210,1000,12,0,1,276.022,3.698,13.961,630.374,11.130,21.295
1782117314.020327,0.891000,1760211,1000,12,0,1,274.580,-0.316,13.957,631.191,10.352,21.339
1782117314.021327,0.892000,1760212,1000,12,0,1,274.869,-0.854,13.944,632.536,8.524,21.373
1782117314.022327,0.893000,1760213,1000,12,0,1,272.731,-3.764,13.921,632.176,6.642,21.392
1782117314.023327,0.894000,1760214,1000,12,0,1,273.571,-4.588,13.922,633.425,4.828,21.399
1782117314.024327,0.895000,1760215,1000,12,0,1,286.374,5.115,13.935,629.125,0.675,21.385
1782117314.025327,0.896000,1760216,1000,12,0,1,293.268,11.395,13.987,626.555,-4.111,21.365
1782117314.026327,0.897000,1760217,1000,12,0,1,283.252,0.585,13.965,632.200,0.588,21.304
1782117314.027327,0.898000,1760218,1000,12,0,1,273.571,-10.660,13.933,637.052,5.111,21.221
1782117314.028327,0.899000,1760219,1000,12,0,1,277.535,-7.153,13.878,632.632,0.983,21.097
1782117314.029327,0.900000,1760220,1000,12,0,1,283.108,-0.193,13.877,623.120,-7.818,21.033
1782117314.030327,0.901000,1760221,1000,12,0,1,277.535,-3.601,13.881,621.271,-9.556,20.993
1782117314.031327,0.902000,1760222,1000,12,0,1,272.491,-8.428,13.930,621.367,-6.458,20.889
1782117314.032327,0.903000,1760223,1000,12,0,1,276.790,-3.084,13.931,624.297,-3.257,20.804
1782117314.033327,0.904000,1760224,1000,12,0,1,300.114,16.612,13.998,638.109,9.446,20.833
1782117314.034327,0.905000,1760225,1000,12,0,1,325.072,38.856,14.661,644.931,16.643,20.965
1782117314.035327,0.906000,1760226,1000,12,0,1,322.429,33.237,15.212,645.147,13.558,21.048
1782117314.036327,0.907000,1760227,1000,12,0,1,295.502,3.581,15.164,646.156,11.981,21.077
1782117314.037327,0.908000,1760228,1000,12,0,1,270.233,-22.607,15.495,651.345,13.132,21.132
1782117314.038327,0.909000,1760229,1000,12,0,1,264.684,-27.327,15.964,654.539,13.645,21.218
1782117314.039327,0.910000,1760230,1000,12,0,1,273.764,-15.841,16.075,656.893,11.513,21.261
1782117314.040327,0.911000,1760231,1000,12,0,1,281.114,-6.444,15.904,656.269,8.060,21.237
1782117314.041327,0.912000,1760232,1000,12,0,1,284.717,-2.969,15.807,653.458,2.039,21.233
1782117314.042327,0.913000,1760233,1000,12,0,1,282.411,-4.679,15.740,652.257,-1.646,20.954
1782117314.043327,0.914000,1760234,1000,12,0,1,282.363,-6.231,15.317,648.342,-6.051,19.503
1782117314.044327,0.915000,1760235,1000,12,0,1,290.698,0.614,15.208,641.448,-13.121,17.558
1782117314.045327,0.916000,1760236,1000,12,0,1,294.109,4.035,15.218,644.619,-11.110,15.037
1782117314.046327,0.917000,1760237,1000,12,0,1,285.053,-4.850,15.220,659.560,2.467,12.637
1782117314.047327,0.918000,1760238,1000,12,0,1,292.476,-1.848,14.920,670.393,12.349,11.628
1782117314.048327,0.919000,1760239,1000,12,0,1,292.476,2.230,13.909,670.393,10.005,11.330
1782117314.049327,0.920000,1760240,1000,12,0,1,284.357,-7.416,12.935,671.282,7.172,11.268
1782117314.050327,0.921000,1760241,1000,12,0,1,273.379,-14.496,12.658,681.178,12.837,11.401
1782117314.051327,0.922000,1760242,1000,12,0,1,290.866,-1.550,12.180,682.019,12.617,11.494
1782117314.052327,0.923000,1760243,1000,12,0,1,322.309,29.980,12.708,671.162,-0.543,11.466
1782117314.053327,0.924000,1760244,1000,12,0,1,326.657,33.159,13.473,663.955,-9.323,11.486
1782117314.054327,0.925000,1760245,1000,12,0,1,317.938,18.530,13.398,661.097,-11.581,11.479
1782117314.055327,0.926000,1760246,1000,12,0,1,306.960,6.394,13.342,667.438,-6.661,11.457
1782117314.056327,0.927000,1760247,1000,12,0,1,305.735,0.824,13.337,670.489,-2.027,11.445
1782117314.057327,0.928000,1760248,1000,12,0,1,305.807,2.168,13.336,659.632,-11.745,11.562
1782117314.058327,0.929000,1760249,1000,12,0,1,297.280,-6.687,13.324,655.452,-16.994,11.809
1782117314.059327,0.930000,1760250,1000,12,0,1,292.235,-11.861,13.220,654.779,-14.836,11.978
1782117314.060327,0.931000,1760251,1000,12,0,1,299.418,-5.773,13.198,636.332,-27.756,12.542
1782117314.061327,0.932000,1760252,1000,12,0,1,301.604,-1.903,13.199,600.469,-55.257,14.536
1782117314.062327,0.933000,1760253,1000,12,0,1,287.912,-13.930,13.339,589.563,-61.289,16.577
1782117314.063327,0.934000,1760254,1000,12,0,1,272.178,-27.995,13.880,596.265,-42.947,17.316
1782117314.064327,0.935000,1760255,1000,12,0,1,264.636,-31.805,14.527,597.875,-32.411,17.491
1782117314.065327,0.936000,1760256,1000,12,0,1,268.335,-24.995,14.818,596.361,-26.372,17.566
1782117314.066327,0.937000,1760257,1000,12,0,1,276.406,-13.170,14.744,588.098,-25.949,17.801
1782117314.067327,0.938000,1760258,1000,12,0,1,287.239,-1.752,14.657,587.137,-22.249,18.002
1782117314.068327,0.939000,1760259,1000,12,0,1,293.196,5.603,14.653,589.780,-11.858,18.022
1782117314.069327,0.940000,1760260,1000,12,0,1,290.722,3.113,14.651,594.704,-3.462,17.960
1782117314.070327,0.941000,1760261,1000,12,0,1,285.966,-1.373,14.652,595.857,3.158,17.906
1782117314.071327,0.942000,1760262,1000,12,0,1,281.979,-4.177,14.663,605.081,11.871,17.944
1782117314.072327,0.943000,1760263,1000,12,0,1,283.996,-1.742,14.656,612.623,22.283,18.194
1782117314.073327,0.944000,1760264,1000,12,0,1,287.191,3.306,14.649,613.416,22.218,18.451
1782117314.074327,0.945000,1760265,1000,12,0,1,292.956,8.360,14.678,615.145,22.854,18.732
1782117314.075327,0.946000,1760266,1000,12,0,1,299.033,14.402,14.731,617.547,24.264,19.034
1782117314.076327,0.947000,1760267,1000,12,0,1,299.874,14.352,14.870,618.604,23.677,19.326
1782117314.077327,0.948000,1760268,1000,12,0,1,294.325,8.452,14.842,616.827,21.107,19.542
1782117314.078327,0.949000,1760269,1000,12,0,1,292.572,4.930,14.824,614.545,17.088,19.691
1782117314.079327,0.950000,1760270,1000,12,0,1,292.572,5.145,14.841,614.545,16.112,19.791
1782117314.080327,0.951000,1760271,1000,12,0,1,287.407,0.443,14.833,613.440,14.182,19.847
1782117314.081327,0.952000,1760272,1000,12,0,1,280.682,-5.934,14.809,619.301,17.072,19.972
1782117314.082327,0.953000,1760273,1000,12,0,1,279.456,-6.826,14.834,621.151,18.580,20.139
1782117314.083327,0.954000,1760274,1000,12,0,1,280.465,-4.726,14.662,619.085,13.490,20.185
1782117314.084327,0.955000,1760275,1000,12,0,1,282.795,-2.347,13.597,618.076,10.593,20.103
1782117314.085327,0.956000,1760276,1000,12,0,1,287.960,2.074,12.762,611.782,3.876,20.019
1782117314.086327,0.957000,1760277,1000,12,0,1,281.883,-1.967,12.755,613.944,2.518,19.950
1782117314.087327,0.958000,1760278,1000,12,0,1,279.985,-6.397,12.381,618.748,7.345,19.891
1782117314.088327,0.959000,1760279,1000,12,0,1,284.237,-0.992,11.763,620.334,6.486,19.818
1782117314.089327,0.960000,1760280,1000,12,0,1,288.272,2.200,11.552,620.118,4.953,19.764
1782117314.090327,0.961000,1760281,1000,12,0,1,286.711,1.505,11.518,619.421,2.390,19.734
1782117314.091327,0.962000,1760282,1000,12,0,1,280.706,-4.162,11.526,617.355,-0.332,19.732
1782117314.092327,0.963000,1760283,1000,12,0,1,275.637,-8.024,11.562,617.043,-1.764,19.732
1782117314.093327,0.964000,1760284,1000,12,0,1,271.049,-9.904,11.613,618.508,-0.642,19.713
1782117314.094327,0.965000,1760285,1000,12,0,1,268.311,-10.288,11.704,616.755,-1.847,19.628
1782117314.095327,0.966000,1760286,1000,12,0,1,271.217,-5.094,11.712,620.478,0.110,19.565
1782117314.096327,0.967000,1760287,1000,12,0,1,274.580,0.580,11.692,625.690,5.691,19.578
1782117314.097327,0.968000,1760288,1000,12,0,1,278.376,5.113,11.712,630.086,8.108,19.534
1782117314.098327,0.969000,1760289,1000,12,0,1,278.928,6.795,11.747,633.978,10.565,19.540
1782117314.099327,0.970000,1760290,1000,12,0,1,271.458,0.831,11.701,637.461,11.442,19.580
1782117314.100327,0.971000,1760291,1000,12,0,1,254.451,-12.900,11.663,643.370,14.046,19.597
1782117314.101327,0.972000,1760292,1000,12,0,1,254.115,-13.814,11.824,649.231,16.579,19.656
1782117314.102327,0.973000,1760293,1000,12,0,1,279.264,10.590,11.138,651.296,14.970,19.769
1782117314.103327,0.974000,1760294,1000,12,0,1,290.386,23.551,10.638,650.552,10.583,19.782
1782117314.104327,0.975000,1760295,1000,12,0,1,274.893,7.096,10.359,658.383,12.534,19.794
1782117314.105327,0.976000,1760296,1000,12,0,1,257.357,-11.244,10.441,665.901,16.742,19.912
1782117314.106327,0.977000,1760297,1000,12,0,1,249.527,-17.517,10.730,668.880,14.155,20.011
1782117314.107327,0.978000,1760298,1000,12,0,1,249.046,-15.270,10.941,663.235,5.730,19.958
1782117314.108327,0.979000,1760299,1000,12,0,1,261.777,-2.524,10.906,645.892,-12.698,19.894
1782117314.109327,0.980000,1760300,1000,12,0,1,301.003,30.960,11.632,622.832,-33.711,20.349
1782117314.110327,0.981000,1760301,1000,12,0,1,327.017,54.598,13.937,608.492,-44.529,20.937
1782117314.111327,0.982000,1760302,1000,12,0,1,311.596,34.621,14.770,622.472,-29.248,19.859
1782117314.112327,0.983000,1760303,1000,12,0,1,293.701,9.086,14.694,627.564,-15.642,18.004
1782117314.113327,0.984000,1760304,1000,12,0,1,289.881,3.040,14.157,626.123,-17.148,17.122
1782117314.114327,0.985000,1760305,1000,12,0,1,297.712,7.650,13.468,618.748,-18.563,16.704
1782117314.115327,0.986000,1760306,1000,12,0,1,306.167,14.972,13.167,617.499,-19.506,16.515
1782117314.116327,0.987000,1760307,1000,12,0,1,304.702,11.770,13.140,621.415,-11.395,16.182
1782117314.117327,0.988000,1760308,1000,12,0,1,299.081,4.125,13.151,621.054,-9.142,15.926
1782117314.118327,0.989000,1760309,1000,12,0,1,293.965,-1.684,13.129,619.685,-8.733,15.885
1782117314.119327,0.990000,1760310,1000,12,0,1,292.043,-4.323,13.136,625.594,-2.172,15.881
1782117314.120327,0.991000,1760311,1000,12,0,1,293.989,-2.647,13.140,629.630,3.269,15.881
1782117314.121327,0.992000,1760312,1000,12,0,1,289.377,-5.896,13.153,635.371,7.679,15.830
1782117314.122327,0.993000,1760313,1000,12,0,1,272.202,-20.284,13.460,640.848,12.296,15.610
1782117314.123327,0.994000,1760314,1000,12,0,1,269.008,-24.281,13.883,640.896,11.311,15.374
1782117314.124327,0.995000,1760315,1000,12,0,1,279.625,-11.194,13.923,644.643,11.642,15.120
1782117314.125327,0.996000,1760316,1000,12,0,1,280.201,-8.005,13.820,649.783,15.367,14.885
1782117314.126327,0.997000,1760317,1000,12,0,1,270.425,-16.261,13.862,653.026,15.371,14.666
1782117314.127327,0.998000,1760318,1000,12,0,1,261.945,-22.755,14.180,653.266,13.657,14.488
1782117314.128327,0.999000,1760319,1000,12,0,1,259.687,-22.401,14.513,650.312,8.416,14.335
1782117314.129327,1.000000,1760320,1000,12,0,1,293.485,5.921,14.519,636.884,-3.635,14.162
1782117314.130327,1.001000,1760321,1000,12,0,1,330.693,42.321,15.704,615.842,-22.307,14.369
1782117314.131327,1.002000,1760322,1000,12,0,1,329.395,37.302,16.545,618.292,-20.378,14.455
1782117314.132327,1.003000,1760323,1000,12,0,1,324.711,22.663,16.825,621.367,-10.323,14.289
1782117314.133327,1.004000,1760324,1000,12,0,1,317.457,13.872,16.926,619.709,-11.073,14.248
1782117314.134327,1.005000,1760325,1000,12,0,1,303.453,-2.984,16.928,622.592,-5.806,14.192
1782117314.135327,1.006000,1760326,1000,12,0,1,293.749,-11.967,17.010,621.967,-4.225,14.194
1782117314.136327,1.007000,1760327,1000,12,0,1,283.852,-18.512,17.208,623.336,-2.950,14.196
1782117314.137327,1.008000,1760328,1000,12,0,1,276.382,-22.311,17.471,621.895,-2.134,14.161
1782117314.138327,1.009000,1760329,1000,12,0,1,282.267,-13.877,17.581,622.616,-2.527,14.136
1782117314.139327,1.010000,1760330,1000,12,0,1,298.409,3.857,17.586,627.324,2.651,14.124
1782117314.140327,1.011000,1760331,1000,12,0,1,310.083,16.028,17.730,627.036,2.518,14.124
1782117314.141327,1.012000,1760332,1000,12,0,1,312.845,16.754,17.878,625.162,0.044,14.124
1782117314.142327,1.013000,1760333,1000,12,0,1,314.767,15.047,17.969,624.489,-0.578,14.122
1782117314.143327,1.014000,1760334,1000,12,0,1,312.197,10.263,17.973,628.237,2.250,14.125
1782117314.144327,1.015000,1760335,1000,12,0,1,306.648,1.773,17.916,632.392,6.470,14.153
1782117314.145327,1.016000,1760336,1000,12,0,1,303.141,-3.773,17.909,628.525,3.251,14.160
1782117314.146327,1.017000,1760337,1000,12,0,1,310.203,-0.387,17.909,620.046,-4.509,14.152
1782117314.147327,1.018000,1760338,1000,12,0,1,318.418,6.046,17.915,614.040,-8.884,14.161
1782117314.148327,1.019000,1760339,1000,12,0,1,313.133,-0.365,17.889,616.130,-5.501,14.103
1782117314.149327,1.020000,1760340,1000,12,0,1,299.177,-15.060,18.015,619.829,0.634,14.010
1782117314.150327,1.021000,1760341,1000,12,0,1,291.155,-22.741,18.209,620.982,2.915,13.875
1782117314.151327,1.022000,1760342,1000,12,0,1,300.859,-13.509,18.204,618.869,2.208,13.679
1782117314.152327,1.023000,1760343,1000,12,0,1,310.563,-1.146,18.143,620.358,3.262,13.522
1782117314.153327,1.024000,1760344,1000,12,0,1,313.446,1.263,17.836,629.366,11.167,13.532
1782117314.154327,1.025000,1760345,1000,12,0,1,310.852,-0.268,17.807,635.251,16.280,13.611
1782117314.155327,1.026000,1760346,1000,12,0,1,300.403,-8.671,17.779,639.334,16.766,13.612
1782117314.156327,1.027000,1760347,1000,12,0,1,304.486,-6.047,17.626,646.108,19.665,13.748
1782117314.157327,1.028000,1760348,1000,12,0,1,309.290,2.717,17.497,648.991,18.944,13.983
1782117314.158327,1.029000,1760349,1000,12,0,1,305.567,-0.447,17.494,644.979,11.526,13.963
1782117314.159327,1.030000,1760350,1000,12,0,1,304.246,-1.112,16.938,636.884,1.074,13.124
1782117314.160327,1.031000,1760351,1000,12,0,1,302.949,-0.993,15.076,631.239,-6.241,11.549
1782117314.161327,1.032000,1760352,1000,12,0,1,292.163,-8.846,14.314,623.264,-12.680,10.931
1782117314.162327,1.033000,1760353,1000,12,0,1,286.807,-13.869,14.390,612.503,-21.334,11.122
1782117314.163327,1.034000,1760354,1000,12,0,1,287.984,-10.038,14.454,612.743,-19.763,11.208
1782117314.164327,1.035000,1760355,1000,12,0,1,285.318,-10.117,14.484,618.556,-10.559,10.998
1782117314.165327,1.036000,1760356,1000,12,0,1,298.289,-0.220,14.328,621.511,-5.576,10.676
1782117314.166327,1.037000,1760357,1000,12,0,1,309.626,12.683,14.344,625.426,-0.928,10.554
1782117314.167327,1.038000,1760358,1000,12,0,1,307.104,7.690,14.373,635.155,7.864,10.534
1782117314.168327,1.039000,1760359,1000,12,0,1,300.475,-0.264,14.371,647.525,18.315,10.777
1782117314.169327,1.040000,1760360,1000,12,0,1,304.942,0.752,14.359,653.627,21.983,11.212
1782117314.170327,1.041000,1760361,1000,12,0,1,312.869,8.065,14.399,657.037,20.740,11.580
1782117314.171327,1.042000,1760362,1000,12,0,1,320.172,12.295,14.480,664.748,23.149,11.985
1782117314.172327,1.043000,1760363,1000,12,0,1,320.580,11.598,14.287,666.141,21.069,12.227
1782117314.173327,1.044000,1760364,1000,12,0,1,313.974,3.689,13.878,665.949,15.096,12.308
1782117314.174327,1.045000,1760365,1000,12,0,1,306.888,-3.558,13.797,666.958,12.309,12.321
1782117314.175327,1.046000,1760366,1000,12,0,1,308.834,-1.936,13.753,662.010,4.788,12.147
1782117314.176327,1.047000,1760367,1000,12,0,1,322.261,10.290,13.637,637.605,-17.234,12.197
1782117314.177327,1.048000,1760368,1000,12,0,1,321.637,12.362,13.367,625.330,-31.333,12.832
1782117314.178327,1.049000,1760369,1000,12,0,1,308.762,-1.296,12.987,627.948,-24.172,13.226
1782117314.179327,1.050000,1760370,1000,12,0,1,308.642,-2.497,12.965,630.423,-18.639,13.477
1782117314.180327,1.051000,1760371,1000,12,0,1,318.898,7.512,11.550,635.995,-11.583,13.204
1782117314.181327,1.052000,1760372,1000,12,0,1,331.918,17.929,10.583,630.254,-12.531,13.007
1782117314.182327,1.053000,1760373,1000,12,0,1,341.358,23.824,10.634,611.350,-27.730,13.507
1782117314.183327,1.054000,1760374,1000,12,0,1,334.536,14.580,10.653,605.273,-30.974,14.113
1782117314.184327,1.055000,1760375,1000,12,0,1,314.935,-7.037,10.691,611.518,-19.918,14.368
1782117314.185327,1.056000,1760376,1000,12,0,1,305.663,-18.620,10.880,615.794,-11.263,14.443
1782117314.186327,1.057000,1760377,1000,12,0,1,311.116,-13.287,10.726,615.698,-8.478,14.487
1782117314.187327,1.058000,1760378,1000,12,0,1,326.009,-0.359,10.252,614.185,-7.439,14.522
1782117314.188327,1.059000,1760379,1000,12,0,1,335.064,7.768,10.122,611.590,-7.510,14.556
1782117314.189327,1.060000,1760380,1000,12,0,1,327.522,-0.801,10.108,616.515,-2.066,14.554
1782117314.190327,1.061000,1760381,1000,12,0,1,312.101,-16.549,10.124,623.601,6.572,14.580
1782117314.191327,1.062000,1760382,1000,12,0,1,299.009,-27.460,10.582,623.000,6.991,14.613
1782117314.192327,1.063000,1760383,1000,12,0,1,296.511,-27.303,11.061,612.743,-1.430,14.614
1782117314.193327,1.064000,1760384,1000,12,0,1,304.174,-16.167,11.201,598.883,-12.559,14.719
1782117314.194327,1.065000,1760385,1000,12,0,1,301.483,-12.876,11.346,600.661,-10.005,14.758
1782117314.195327,1.066000,1760386,1000,12,0,1,301.820,-11.654,11.452,618.148,8.875,14.804
1782117314.196327,1.067000,1760387,1000,12,0,1,315.127,3.243,11.461,629.318,21.040,15.087
1782117314.197327,1.068000,1760388,1000,12,0,1,325.264,14.578,11.614,626.819,17.863,15.245
1782117314.198327,1.069000,1760389,1000,12,0,1,324.880,13.896,11.779,626.291,14.336,15.360
1782117314.199327,1.070000,1760390,1000,12,0,1,318.826,7.351,11.631,626.891,14.263,15.491
1782117314.200327,1.071000,1760391,1000,12,0,1,325.912,10.569,11.277,624.970,10.843,15.562
1782117314.201327,1.072000,1760392,1000,12,0,1,333.503,18.078,11.405,621.391,6.659,15.587
1782117314.202327,1.073000,1760393,1000,12,0,1,338.043,18.095,11.687,623.072,6.415,15.606
1782117314.203327,1.074000,1760394,1000,12,0,1,332.470,11.734,11.803,627.108,9.687,15.587
1782117314.204327,1.075000,1760395,1000,12,0,1,330.669,4.679,11.821,631.359,11.747,15.505
1782117314.205327,1.076000,1760396,1000,12,0,1,339.893,10.688,11.854,627.900,7.941,15.364
1782117314.206327,1.077000,1760397,1000,12,0,1,345.081,13.254,11.971,629.702,5.838,15.132
1782117314.207327,1.078000,1760398,1000,12,0,1,344.601,8.677,12.028,635.299,10.221,14.963
1782117314.208327,1.079000,1760399,1000,12,0,1,347.603,7.493,12.074,640.823,12.419,14.978
1782117314.209327,1.080000,1760400,1000,12,0,1,351.807,8.153,12.128,645.219,13.825,15.104
1782117314.210327,1.081000,1760401,1000,12,0,1,353.152,6.549,12.163,646.396,11.914,15.172
1782117314.211327,1.082000,1760402,1000,12,0,1,348.684,0.090,12.098,645.940,8.158,15.110
1782117314.212327,1.083000,1760403,1000,12,0,1,345.850,-4.866,11.958,644.931,4.924,14.822
1782117314.213327,1.084000,1760404,1000,12,0,1,346.138,-5.172,11.896,641.376,-0.151,14.556
1782117314.214327,1.085000,1760405,1000,12,0,1,347.123,-4.460,11.826,634.410,-7.035,14.513
1782117314.215327,1.086000,1760406,1000,12,0,1,347.795,-3.880,11.839,630.423,-11.312,14.580
1782117314.216327,1.087000,1760407,1000,12,0,1,348.420,-3.282,11.712,626.411,-12.920,14.693
1782117314.217327,1.088000,1760408,1000,12,0,1,337.563,-11.146,11.767,627.444,-11.659,14.744
1782117314.218327,1.089000,1760409,1000,12,0,1,320.628,-25.520,12.308,636.764,-1.868,14.517
1782117314.219327,1.090000,1760410,1000,12,0,1,307.921,-33.403,13.183,641.808,3.932,14.191
1782117314.220327,1.091000,1760411,1000,12,0,1,299.706,-35.321,14.051,633.978,-2.931,13.891
1782117314.221327,1.092000,1760412,1000,12,0,1,296.151,-32.691,14.690,624.009,-12.670,13.618
1782117314.222327,1.093000,1760413,1000,12,0,1,313.326,-14.029,14.732,634.386,-4.700,13.304
1782117314.223327,1.094000,1760414,1000,12,0,1,322.934,1.470,14.724,652.546,13.286,13.266
1782117314.224327,1.095000,1760415,1000,12,0,1,318.490,-2.864,14.721,654.876,14.436,13.309
1782117314.225327,1.096000,1760416,1000,12,0,1,323.390,0.356,14.719,644.331,1.952,13.294
1782117314.226327,1.097000,1760417,1000,12,0,1,326.201,4.579,14.661,637.845,-6.669,13.103
1782117314.227327,1.098000,1760418,1000,12,0,1,324.159,1.010,14.557,634.290,-9.383,12.402
1782117314.228327,1.099000,1760419,1000,12,0,1,342.247,13.917,14.688,625.066,-16.220,12.140
1782117314.229327,1.100000,1760420,1000,12,0,1,348.660,21.623,14.999,612.311,-25.575,12.390
1782117314.230327,1.101000,1760421,1000,12,0,1,342.991,11.234,15.046,605.153,-28.729,12.936
1782117314.231327,1.102000,1760422,1000,12,0,1,332.662,1.251,14.832,605.225,-23.838,13.250
1782117314.232327,1.103000,1760423,1000,12,0,1,316.184,-13.591,14.571,607.122,-16.972,12.882
1782117314.233327,1.104000,1760424,1000,12,0,1,317.433,-12.894,14.539,609.789,-10.725,12.209
1782117314.234327,1.105000,1760425,1000,12,0,1,323.126,-2.081,14.508,613.824,-3.892,11.892
1782117314.235327,1.106000,1760426,1000,12,0,1,329.852,4.211,14.280,613.200,-1.530,11.787
1782117314.236327,1.107000,1760427,1000,12,0,1,342.991,17.288,14.365,609.044,-3.691,11.738
1782117314.237327,1.108000,1760428,1000,12,0,1,349.405,22.802,14.722,608.179,-3.053,11.699
1782117314.238327,1.109000,1760429,1000,12,0,1,346.762,18.133,14.904,609.140,-0.100,11.650
1782117314.239327,1.110000,1760430,1000,12,0,1,342.511,11.535,14.992,611.062,2.731,11.653
1782117314.240327,1.111000,1760431,1000,12,0,1,333.743,2.611,14.813,612.359,5.042,11.638
1782117314.241327,1.112000,1760432,1000,12,0,1,328.747,-3.926,14.306,615.962,7.965,11.650
1782117314.242327,1.113000,1760433,1000,12,0,1,331.221,-1.874,13.777,615.482,8.406,11.709
1782117314.243327,1.114000,1760434,1000,12,0,1,340.877,5.557,13.609,614.833,6.420,11.609
1782117314.244327,1.115000,1760435,1000,12,0,1,338.764,4.282,13.500,611.014,3.840,11.535
1782117314.245327,1.116000,1760436,1000,12,0,1,328.867,-7.549,13.442,613.080,4.022,11.481
1782117314.246327,1.117000,1760437,1000,12,0,1,326.465,-10.986,13.523,618.364,9.707,11.173
1782117314.247327,1.118000,1760438,1000,12,0,1,316.568,-17.204,13.585,623.721,13.236,11.044
1782117314.248327,1.119000,1760439,1000,12,0,1,302.612,-29.135,14.059,625.666,14.159,11.039
1782117314.249327,1.120000,1760440,1000,12,0,1,299.730,-28.461,14.587,632.969,17.386,11.128
1782117314.250327,1.121000,1760441,1000,12,0,1,310.731,-15.022,14.665,640.607,22.557,11.474
1782117314.251327,1.122000,1760442,1000,12,0,1,327.546,3.572,14.449,644.547,22.375,11.865
1782117314.252327,1.123000,1760443,1000,12,0,1,334.584,11.835,14.319,646.060,19.822,12.158
1782117314.253327,1.124000,1760444,1000,12,0,1,333.335,9.655,14.288,643.129,13.963,12.241
1782117314.254327,1.125000,1760445,1000,12,0,1,340.709,13.948,14.408,631.648,1.252,12.129
1782117314.255327,1.126000,1760446,1000,12,0,1,345.081,18.347,14.562,614.977,-14.543,12.251
1782117314.256327,1.127000,1760447,1000,12,0,1,343.904,14.625,14.588,614.665,-16.151,12.435
1782117314.257327,1.128000,1760448,1000,12,0,1,338.067,8.589,14.587,624.057,-4.366,12.366
1782117314.258327,1.129000,1760449,1000,12,0,1,334.488,3.441,14.557,624.994,-2.126,12.244
1782117314.259327,1.130000,1760450,1000,12,0,1,334.464,3.530,14.520,619.181,-7.122,12.129
1782117314.260327,1.131000,1760451,1000,12,0,1,344.264,10.566,14.567,616.539,-9.615,12.088
1782117314.261327,1.132000,1760452,1000,12,0,1,353.776,18.801,14.807,613.512,-10.516,12.124
1782117314.262327,1.133000,1760453,1000,12,0,1,346.330,10.637,14.868,621.367,-4.414,12.121
1782117314.263327,1.134000,1760454,1000,12,0,1,331.557,-5.972,14.874,633.281,7.768,12.170
1782117314.264327,1.135000,1760455,1000,12,0,1,324.784,-13.074,14.975,643.658,14.837,12.310
1782117314.265327,1.136000,1760456,1000,12,0,1,322.742,-13.785,15.091,653.891,20.869,12.557
1782117314.266327,1.137000,1760457,1000,12,0,1,330.380,-7.057,15.117,653.699,17.791,12.676
1782117314.267327,1.138000,1760458,1000,12,0,1,341.646,3.936,15.045,645.003,5.447,12.591
1782117314.268327,1.139000,1760459,1000,12,0,1,344.913,6.182,14.632,641.136,-1.176,12.590
1782117314.269327,1.140000,1760460,1000,12,0,1,341.478,0.996,13.849,645.267,0.863,12.578
1782117314.270327,1.141000,1760461,1000,12,0,1,344.865,1.259,12.918,639.142,-3.260,12.580
1782117314.271327,1.142000,1760462,1000,12,0,1,351.663,6.568,12.098,626.195,-15.874,12.652
1782117314.272327,1.143000,1760463,1000,12,0,1,353.248,6.579,11.971,620.310,-19.630,12.936
1782117314.273327,1.144000,1760464,1000,12,0,1,352.816,3.985,11.982,618.604,-17.755,13.043
1782117314.274327,1.145000,1760465,1000,12,0,1,347.987,-0.717,11.976,622.592,-11.716,12.988
1782117314.275327,1.146000,1760466,1000,12,0,1,333.959,-12.836,12.112,636.163,2.264,12.989
1782117314.276327,1.147000,1760467,1000,12,0,1,334.992,-13.041,12.235,644.499,11.493,13.057
1782117314.277327,1.148000,1760468,1000,12,0,1,334.992,-7.583,12.281,644.499,9.826,13.063
1782117314.278327,1.149000,1760469,1000,12,0,1,361.103,11.379,12.229,626.363,-5.668,12.885
1782117314.279327,1.150000,1760470,1000,12,0,1,360.622,19.199,12.147,614.040,-19.622,12.674
1782117314.280327,1.151000,1760471,1000,12,0,1,353.632,3.685,12.054,609.909,-19.409,12.315
1782117314.281327,1.152000,1760472,1000,12,0,1,346.834,0.550,12.053,610.437,-17.061,12.088
1782117314.282327,1.153000,1760473,1000,12,0,1,341.766,-7.104,11.941,616.803,-8.637,11.910
1782117314.283327,1.154000,1760474,1000,12,0,1,332.902,-12.479,11.933,634.722,7.455,11.860
1782117314.284327,1.155000,1760475,1000,12,0,1,323.679,-20.126,12.264,640.535,14.624,12.027
1782117314.285327,1.156000,1760476,1000,12,0,1,332.638,-12.256,12.371,631.864,4.099,12.039
1782117314.286327,1.157000,1760477,1000,12,0,1,336.986,-2.979,12.135,634.050,2.604,12.033
1782117314.287327,1.158000,1760478,1000,12,0,1,328.122,-11.986,11.821,641.520,9.797,12.105
1782117314.288327,1.159000,1760479,1000,12,0,1,335.857,-5.875,11.569,625.306,-3.431,12.115
1782117314.289327,1.160000,1760480,1000,12,0,1,343.952,3.581,11.465,604.072,-23.731,12.565
1782117314.290327,1.161000,1760481,1000,12,0,1,334.560,-4.180,11.474,597.106,-26.755,13.103
1782117314.291327,1.162000,1760482,1000,12,0,1,330.645,-10.133,11.550,593.695,-23.337,13.465
1782117314.292327,1.163000,1760483,1000,12,0,1,332.230,-5.933,11.577,594.848,-17.864,13.648
1782117314.293327,1.164000,1760484,1000,12,0,1,340.589,0.925,11.551,604.961,-4.000,13.630
1782117314.294327,1.165000,1760485,1000,12,0,1,344.072,6.790,11.575,614.425,7.987,13.666
1782117314.295327,1.166000,1760486,1000,12,0,1,341.550,3.404,11.536,617.644,12.206,13.763
1782117314.296327,1.167000,1760487,1000,12,0,1,338.331,1.137,11.432,609.837,6.002,13.720
1782117314.297327,1.168000,1760488,1000,12,0,1,330.909,-4.157,11.185,606.618,1.430,13.594
1782117314.298327,1.169000,1760489,1000,12,0,1,320.508,-11.741,10.531,607.675,3.877,13.456
1782117314.299327,1.170000,1760490,1000,12,0,1,328.819,-3.931,9.747,609.332,5.050,13.249
1782117314.300327,1.171000,1760491,1000,12,0,1,342.703,12.284,9.670,604.624,1.924,12.862
1782117314.301327,1.172000,1760492,1000,12,0,1,350.173,18.428,10.002,605.873,1.069,12.468
1782117314.302327,1.173000,1760493,1000,12,0,1,348.156,15.496,10.102,606.834,3.610,12.159
1782117314.303327,1.174000,1760494,1000,12,0,1,324.952,-5.082,10.035,604.961,1.060,11.999
1782117314.304327,1.175000,1760495,1000,12,0,1,312.221,-20.000,10.237,599.220,-3.180,12.006
1782117314.305327,1.176000,1760496,1000,12,0,1,321.541,-8.623,9.978,602.438,-1.415,11.830
1782117314.306327,1.177000,1760497,1000,12,0,1,345.489,12.721,9.926,621.127,15.104,11.803
1782117314.307327,1.178000,1760498,1000,12,0,1,349.261,18.744,10.201,632.777,26.143,12.353
1782117314.308327,1.179000,1760499,1000,12,0,1,345.754,9.118,10.271,635.371,23.986,12.806
1782117314.309327,1.180000,1760500,1000,12,0,1,347.027,8.497,10.329,639.238,23.625,13.197
1782117314.310327,1.181000,1760501,1000,12,0,1,344.649,4.228,10.238,637.941,19.320,13.408
1782117314.311327,1.182000,1760502,1000,12,0,1,360.478,13.078,10.058,631.672,10.438,13.407
1782117314.312327,1.183000,1760503,1000,12,0,1,374.674,26.214,10.614,613.680,-5.863,13.418
1782117314.313327,1.184000,1760504,1000,12,0,1,371.672,18.339,10.893,605.513,-15.430,13.549
1782117314.314327,1.185000,1760505,1000,12,0,1,362.952,6.737,10.777,606.906,-10.476,13.468
1782117314.315327,1.186000,1760506,1000,12,0,1,354.329,-3.568,10.611,610.557,-5.660,13.165
1782117314.316327,1.187000,1760507,1000,12,0,1,349.116,-8.617,10.634,613.560,-1.039,12.923
1782117314.317327,1.188000,1760508,1000,12,0,1,347.147,-9.356,10.702,618.292,3.026,12.907
1782117314.318327,1.189000,1760509,1000,12,0,1,343.255,-10.699,10.773,625.714,8.925,12.968
1782117314.319327,1.190000,1760510,1000,12,0,1,343.496,-9.435,10.854,635.539,15.587,13.153
1782117314.320327,1.191000,1760511,1000,12,0,1,345.681,-5.033,10.876,647.477,22.354,13.520
1782117314.321327,1.192000,1760512,1000,12,0,1,334.128,-12.188,10.973,659.920,28.471,13.927
1782117314.322327,1.193000,1760513,1000,12,0,1,315.391,-27.449,11.602,670.105,30.828,14.327
1782117314.323327,1.194000,1760514,1000,12,0,1,311.740,-28.178,12.254,673.684,27.219,14.621
1782117314.324327,1.195000,1760515,1000,12,0,1,314.335,-19.929,12.574,670.729,17.146,14.728
1782117314.325327,1.196000,1760516,1000,12,0,1,304.102,-23.727,12.887,663.571,5.116,14.742
1782117314.326327,1.197000,1760517,1000,12,0,1,300.186,-25.569,13.257,642.985,-15.362,14.812
1782117314.327327,1.198000,1760518,1000,12,0,1,316.472,-7.673,13.258,615.121,-40.688,15.830
1782117314.328327,1.199000,1760519,1000,12,0,1,336.818,13.061,13.289,617.427,-38.359,16.714
1782117314.329327,1.200000,1760520,1000,12,0,1,345.561,20.349,13.323,625.739,-21.742,16.767
1782117314.330327,1.201000,1760521,1000,12,0,1,349.068,19.458,13.594,627.972,-17.120,16.717
1782117314.331327,1.202000,1760522,1000,12,0,1,359.445,24.065,14.013,624.225,-15.625,16.689
1782117314.332327,1.203000,1760523,1000,12,0,1,373.666,32.580,14.717,628.765,-10.941,16.716
1782117314.333327,1.204000,1760524,1000,12,0,1,368.861,25.392,15.046,640.007,2.239,16.685
1782117314.334327,1.205000,1760525,1000,12,0,1,363.169,13.042,14.889,643.778,6.745,16.584
1782117314.335327,1.206000,1760526,1000,12,0,1,363.745,11.785,14.881,634.770,-1.517,16.575
1782117314.336327,1.207000,1760527,1000,12,0,1,360.646,7.535,14.913,626.219,-10.251,16.635
1782117314.337327,1.208000,1760528,1000,12,0,1,358.845,4.407,14.830,616.202,-17.319,16.757
1782117314.338327,1.209000,1760529,1000,12,0,1,355.146,1.955,14.809,613.464,-19.064,16.965
1782117314.339327,1.210000,1760530,1000,12,0,1,350.077,-2.752,14.805,619.853,-10.822,16.700
1782117314.340327,1.211000,1760531,1000,12,0,1,338.403,-10.478,14.868,622.688,-5.598,16.285
1782117314.341327,1.212000,1760532,1000,12,0,1,312.053,-30.509,15.415,623.769,-4.721,15.961
1782117314.342327,1.213000,1760533,1000,12,0,1,293.076,-44.186,16.612,629.630,0.844,15.761
1782117314.343327,1.214000,1760534,1000,12,0,1,303.573,-29.495,17.127,632.440,3.784,15.759
1782117314.344327,1.215000,1760535,1000,12,0,1,332.782,2.343,17.103,632.704,3.200,15.725
1782117314.345327,1.216000,1760536,1000,12,0,1,344.769,16.721,17.259,624.177,-3.407,15.638
1782117314.346327,1.217000,1760537,1000,12,0,1,337.466,7.197,17.289,613.224,-13.094,15.724
1782117314.347327,1.218000,1760538,1000,12,0,1,336.602,2.114,17.281,611.927,-12.349,15.820
1782117314.348327,1.219000,1760539,1000,12,0,1,351.038,11.923,17.284,614.953,-5.780,15.831
1782117314.349327,1.220000,1760540,1000,12,0,1,351.230,11.749,17.354,616.443,-1.663,15.817
1782117314.350327,1.221000,1760541,1000,12,0,1,335.833,-6.195,17.289,610.966,-3.204,15.821
1782117314.351327,1.222000,1760542,1000,12,0,1,333.743,-11.309,17.167,604.865,-7.043,15.852
1782117314.352327,1.223000,1760543,1000,12,0,1,347.003,1.048,17.027,595.785,-10.833,15.917
1782117314.353327,1.224000,1760544,1000,12,0,1,357.764,11.166,17.085,592.854,-11.444,15.999
1782117314.354327,1.225000,1760545,1000,12,0,1,357.259,10.155,16.910,593.623,-5.920,16.014
1782117314.355327,1.226000,1760546,1000,12,0,1,355.818,6.692,16.893,590.668,-5.412,16.031
1782117314.356327,1.227000,1760547,1000,12,0,1,349.309,2.219,16.799,599.772,3.023,15.894
1782117314.357327,1.228000,1760548,1000,12,0,1,337.731,-7.538,16.623,608.299,13.719,15.579
1782117314.358327,1.229000,1760549,1000,12,0,1,331.149,-11.130,16.648,605.753,10.319,15.275
1782117314.359327,1.230000,1760550,1000,12,0,1,330.524,-8.033,16.643,606.594,8.781,14.957
1782117314.360327,1.231000,1760551,1000,12,0,1,332.158,-3.081,16.638,617.571,16.450,14.888
1782117314.361327,1.232000,1760552,1000,12,0,1,332.686,0.216,16.535,632.200,26.987,15.299
1782117314.362327,1.233000,1760553,1000,12,0,1,324.471,-4.513,16.127,639.743,30.049,15.856
1782117314.363327,1.234000,1760554,1000,12,0,1,312.293,-14.142,16.042,648.654,31.105,16.310
1782117314.364327,1.235000,1760555,1000,12,0,1,288.320,-30.745,16.593,660.857,36.335,17.036
1782117314.365327,1.236000,1760556,1000,12,0,1,261.777,-50.567,18.062,667.126,35.639,17.748
1782117314.366327,1.237000,1760557,1000,12,0,1,268.575,-40.493,18.909,663.211,25.902,18.121
1782117314.367327,1.238000,1760558,1000,12,0,1,306.264,-0.226,18.862,653.146,11.413,18.188
1782117314.368327,1.239000,1760559,1000,12,0,1,336.097,29.680,19.264,653.891,6.982,18.171
1782117314.369327,1.240000,1760560,1000,12,0,1,326.441,20.361,19.433,667.919,17.126,18.199
1782117314.370327,1.241000,1760561,1000,12,0,1,350.678,27.879,19.816,666.189,15.247,18.051
1782117314.371327,1.242000,1760562,1000,12,0,1,393.339,65.206,21.788,651.993,-1.648,17.598
1782117314.372327,1.243000,1760563,1000,12,0,1,416.110,73.960,23.855,642.289,-11.851,17.132
1782117314.373327,1.244000,1760564,1000,12,0,1,402.683,52.642,24.670,658.527,-0.229,16.694
1782117314.374327,1.245000,1760565,1000,12,0,1,375.275,15.450,24.606,683.965,23.016,16.834
1782117314.375327,1.246000,1760566,1000,12,0,1,379.959,10.632,24.422,658.887,2.323,16.822
1782117314.376327,1.247000,1760567,1000,12,0,1,412.435,37.321,24.723,605.441,-50.715,18.157
1782117314.377327,1.248000,1760568,1000,12,0,1,417.936,40.882,25.367,580.243,-71.506,19.971
1782117314.378327,1.249000,1760569,1000,12,0,1,369.462,-4.625,25.308,585.528,-58.249,20.911
1782117314.379327,1.250000,1760570,1000,12,0,1,312.221,-59.142,26.498,594.680,-40.114,21.448
1782117314.380327,1.251000,1760571,1000,12,0,1,305.351,-60.925,27.728,594.608,-33.222,21.822
1782117314.381327,1.252000,1760572,1000,12,0,1,323.582,-31.740,27.882,595.665,-28.215,22.074
1782117314.382327,1.253000,1760573,1000,12,0,1,335.160,-13.471,27.564,596.505,-22.079,22.240
1782117314.383327,1.254000,1760574,1000,12,0,1,339.412,-6.159,27.343,596.337,-18.825,22.396
1782117314.384327,1.255000,1760575,1000,12,0,1,336.482,-7.098,27.299,591.725,-18.152,22.523
1782117314.385327,1.256000,1760576,1000,12,0,1,334.248,-10.239,27.287,598.667,-10.492,22.571
1782117314.386327,1.257000,1760577,1000,12,0,1,344.312,-2.995,27.269,615.169,8.423,22.556
1782117314.387327,1.258000,1760578,1000,12,0,1,360.863,9.480,27.295,616.515,12.829,22.495
1782117314.388327,1.259000,1760579,1000,12,0,1,363.625,9.174,27.325,602.655,0.989,22.334
1782117314.389327,1.260000,1760580,1000,12,0,1,348.972,-8.787,27.350,596.481,-3.863,22.288
1782117314.390327,1.261000,1760581,1000,12,0,1,338.523,-22.466,27.494,601.213,3.796,22.280
1782117314.391327,1.262000,1760582,1000,12,0,1,340.109,-21.246,27.319,613.872,17.311,22.404
1782117314.392327,1.263000,1760583,1000,12,0,1,342.823,-16.775,26.701,635.059,36.144,22.980
1782117314.393327,1.264000,1760584,1000,12,0,1,340.589,-16.409,26.475,658.695,54.695,24.241
1782117314.394327,1.265000,1760585,1000,12,0,1,344.913,-10.917,26.518,675.077,63.220,25.833
1782117314.395327,1.266000,1760586,1000,12,0,1,354.377,1.383,26.413,683.700,61.633,27.260
1782117314.396327,1.267000,1760587,1000,12,0,1,363.337,11.757,26.445,700.875,64.182,28.671
1782117314.397327,1.268000,1760588,1000,12,0,1,351.615,5.937,26.457,726.193,74.609,30.501
1782117314.398327,1.269000,1760589,1000,12,0,1,323.390,-16.976,26.512,749.541,80.219,32.532
1782117314.399327,1.270000,1760590,1000,12,0,1,325.024,-14.161,26.536,735.465,55.491,33.465
1782117314.400327,1.271000,1760591,1000,12,0,1,376.500,34.852,26.975,683.244,-5.226,33.470
1782117314.401327,1.272000,1760592,1000,12,0,1,437.440,89.540,29.757,623.649,-64.638,34.681
1782117314.402327,1.273000,1760593,1000,12,0,1,436.984,84.860,32.085,591.413,-92.060,37.013
1782117314.403327,1.274000,1760594,1000,12,0,1,404.124,37.832,32.490,590.885,-82.358,38.768
1782117314.404327,1.275000,1760595,1000,12,0,1,359.782,-8.139,32.479,592.446,-67.134,39.905
1782117314.405327,1.276000,1760596,1000,12,0,1,324.471,-45.727,33.103,591.413,-58.460,40.745
1782117314.406327,1.277000,1760597,1000,12,0,1,325.240,-44.215,33.687,584.399,-53.248,41.433
1782117314.407327,1.278000,1760598,1000,12,0,1,336.698,-27.924,33.900,567.681,-58.420,42.204
1782117314.408327,1.279000,1760599,1000,12,0,1,342.823,-21.064,33.995,565.158,-52.376,42.825
1782117314.409327,1.280000,1760600,1000,12,0,1,340.181,-21.239,34.108,572.629,-34.135,43.078
1782117314.410327,1.281000,1760601,1000,12,0,1,326.513,-32.515,34.414,583.318,-17.053,43.083
1782117314.411327,1.282000,1760602,1000,12,0,1,328.723,-30.536,34.684,587.762,-5.771,42.921
1782117314.412327,1.283000,1760603,1000,12,0,1,343.159,-13.289,34.729,590.572,-0.556,42.710
1782117314.413327,1.284000,1760604,1000,12,0,1,358.917,2.367,34.673,593.527,5.459,42.490
1782117314.414327,1.285000,1760605,1000,12,0,1,371.864,14.517,34.460,597.370,10.204,42.203
1782117314.415327,1.286000,1760606,1000,12,0,1,365.931,10.308,33.742,600.709,14.470,41.951
1782117314.416327,1.287000,1760607,1000,12,0,1,335.761,-15.546,33.325,605.273,18.401,41.872
1782117314.417327,1.288000,1760608,1000,12,0,1,325.312,-25.178,33.514,607.915,20.746,41.943
1782117314.418327,1.289000,1760609,1000,12,0,1,344.553,-1.517,33.251,606.666,18.953,42.017
1782117314.419327,1.290000,1760610,1000,12,0,1,346.354,8.636,33.149,627.588,32.789,42.203
1782117314.420327,1.291000,1760611,1000,12,0,1,326.369,-6.951,32.928,668.784,66.589,43.187
1782117314.421327,1.292000,1760612,1000,12,0,1,328.627,-4.442,31.617,708.009,92.853,45.139
1782117314.422327,1.293000,1760613,1000,12,0,1,379.070,40.187,30.373,732.174,101.156,47.322
1782117314.423327,1.294000,1760614,1000,12,0,1,407.583,69.517,31.044,757.468,103.650,49.540
1782117314.424327,1.295000,1760615,1000,12,0,1,382.817,38.823,31.450,786.269,109.943,51.820
1782117314.425327,1.296000,1760616,1000,12,0,1,346.907,-2.589,31.416,812.283,110.547,54.126
1782117314.426327,1.297000,1760617,1000,12,0,1,337.058,-16.684,31.060,799.888,81.111,54.862
1782117314.427327,1.298000,1760618,1000,12,0,1,368.309,7.902,30.537,726.049,-0.936,53.922
1782117314.428327,1.299000,1760619,1000,12,0,1,418.969,50.153,31.343,629.726,-96.248,55.000
1782117314.429327,1.300000,1760620,1000,12,0,1,423.557,50.153,31.028,585.768,-133.941,57.893
1782117314.430327,1.301000,1760621,1000,12,0,1,397.302,12.392,29.860,581.372,-118.931,60.103
1782117314.431327,1.302000,1760622,1000,12,0,1,382.721,-9.445,29.550,571.740,-107.715,61.875
1782117314.432327,1.303000,1760623,1000,12,0,1,363.169,-27.010,29.735,573.157,-92.316,63.160
1782117314.433327,1.304000,1760624,1000,12,0,1,343.952,-44.933,30.394,584.183,-65.644,63.783
1782117314.434327,1.305000,1760625,1000,12,0,1,338.283,-44.717,31.029,581.204,-55.254,64.209
1782117314.435327,1.306000,1760626,1000,12,0,1,336.049,-39.165,31.486,572.653,-53.811,64.641
1782117314.436327,1.307000,1760627,1000,12,0,1,339.148,-29.564,31.760,575.631,-43.337,64.920
1782117314.437327,1.308000,1760628,1000,12,0,1,337.202,-22.534,31.891,585.288,-26.392,65.002
1782117314.438327,1.309000,1760629,1000,12,0,1,326.345,-25.557,32.069,593.839,-13.336,65.029
1782117314.439327,1.310000,1760630,1000,12,0,1,333.383,-15.207,32.117,607.098,0.905,65.027
1782117314.440327,1.311000,1760631,1000,12,0,1,345.009,3.162,31.962,614.112,10.075,65.041
1782117314.441327,1.312000,1760632,1000,12,0,1,350.197,9.954,31.852,615.866,10.853,65.013
1782117314.442327,1.313000,1760633,1000,12,0,1,361.487,19.666,31.885,627.348,19.867,64.872
1782117314.443327,1.314000,1760634,1000,12,0,1,361.151,20.307,31.930,653.434,41.182,64.672
1782117314.444327,1.315000,1760635,1000,12,0,1,368.381,20.035,32.018,665.108,51.158,64.459
1782117314.445327,1.316000,1760636,1000,12,0,1,366.555,18.825,32.128,655.188,37.310,64.084
1782117314.446327,1.317000,1760637,1000,12,0,1,356.803,3.616,32.089,650.047,27.403,63.556
1782117314.447327,1.318000,1760638,1000,12,0,1,370.783,10.749,32.114,658.287,32.650,62.844
1782117314.448327,1.319000,1760639,1000,12,0,1,408.760,39.772,32.515,666.405,38.399,62.050
1782117314.449327,1.320000,1760640,1000,12,0,1,434.990,57.369,33.452,685.862,49.848,61.954
1782117314.450327,1.321000,1760641,1000,12,0,1,424.734,39.116,33.546,732.799,82.913,63.049
1782117314.451327,1.322000,1760642,1000,12,0,1,402.779,7.502,31.082,773.466,109.700,64.283
1782117314.452327,1.323000,1760643,1000,12,0,1,387.550,-10.844,28.713,786.773,103.316,64.625
1782117314.453327,1.324000,1760644,1000,12,0,1,392.089,-10.530,28.249,761.287,63.520,64.198
