Unix_Time_s,RelativeTime_s,P_1,P_2,P_3,P_4,P_5,P_6,P_7,P_8,P_9,P_10,P_11,P_12,P_13,P_14,P_15,P_16,P_17,P_18,P_19,P_20,P_21,P_22,P_23,P_24,P_25,P_26,P_27,P_28,P_29,P_30,P_31,P_32,P_33,P_34,P_35,P_36,P_37,P_38,P_39,P_40,P_41,P_42,P_43,P_44,P_45,P_46,P_47,P_48,P_49,P_50,P_51,P_52,P_53,P_54,P_55,P_56,P_57,P_58,P_59,P_60,P_61,P_62,P_63,P_64,P_65,P_66,P_67,P_68,P_69,P_70,P_71,P_72,P_73,P_74,P_75,P_76,P_77,P_78,P_79,P_80,P_81,P_82,P_83,P_84,P_85,P_86,P_87,P_88,P_89,P_90,P_91,P_92,P_93,P_94,P_95,P_96,P_97,P_98,P_99,P_100,P_101,P_102,P_103,P_104,P_105,P_106,P_107,P_108,P_109,P_110,P_111,P_112,P_113,P_114,P_115,P_116,P_117,P_118,P_119,P_120,P_121,P_122,P_123,P_124,P_125,P_126,P_127,P_128,P_129,P_130,P_131,P_132,P_133,P_134,P_135,P_136,P_137,P_138,P_139,P_140,P_141,P_142,P_143,P_144,P_145,P_146,P_147,P_148,P_149,P_150,P_151,P_152,P_153,P_154,P_155,P_156,P_157,P_158,P_159,P_160,P_161,P_162,P_163,P_164,P_165,P_166,P_167,P_168,P_169,P_170,P_171,P_172,P_173,P_174,P_175,P_176,P_177,P_178,P_179,P_180,P_181,P_182,P_183,P_184,P_185,P_186,P_187,P_188,P_189,P_190,P_191,P_192,P_193,P_194,P_195,P_196,P_197,P_198,P_199,P_200,P_201,P_202,P_203,P_204,P_205,P_206,P_207,P_208,P_209,P_210,P_211,P_212,P_213,P_214,P_215,P_216,P_217,P_218,P_219,P_220,P_221,P_222,P_223,P_224,P_225,P_226,P_227,P_228,P_229,P_230,P_231,P_232,P_233,Flex1,Flex2,Bat,IMU1_RefTime,IMU1_Ax,IMU1_Ay,IMU1_Az,IMU1_Wx,IMU1_Wy,IMU1_Wz,IMU1_Roll,IMU1_Pitch,IMU1_Yaw,IMU1_Hx,IMU1_Hy,IMU1_Hz,IMU1_Q0,IMU1_Q1,IMU1_Q2,IMU1_Q3,IMU2_RefTime,IMU2_Ax,IMU2_Ay,IMU2_Az,IMU2_Wx,IMU2_Wy,IMU2_Wz,IMU2_Roll,IMU2_Pitch,IMU2_Yaw,IMU2_Hx,IMU2_Hy,IMU2_Hz,IMU2_Q0,IMU2_Q1,IMU2_Q2,IMU2_Q3,IMU1_FusedRoll,IMU1_FusedPitch,IMU1_FusedYaw,IMU1_FusedQ0,IMU1_FusedQ1,IMU1_FusedQ2,IMU1_FusedQ3,IMU1_MagValid,IMU2_FusedRoll,IMU2_FusedPitch,IMU2_FusedYaw,IMU2_FusedQ0,IMU2_FusedQ1,IMU2_FusedQ2,IMU2_FusedQ3,IMU2_MagValid
1782117313.139842,0.011,1024.0,1024.0,1023.0,1024.0,1023.0,1022.0,1023.0,1024.0,1022.0,1023.0,1024.0,1024.0,1024.0,1024.0,1023.0,1023.0,1024.0,1024.0,1024.0,1024.0,1024.0,1023.0,1024.0,1024.0,1023.0,1024.0,1024.0,1023.0,1024.0,1024.0,1023.0,1023.0,1023.0,1023.0,1024.0,1024.0,1023.0,1024.0,1023.0,1024.0,1022.0,1022.0,1023.0,1024.0,1023.0,1024.0,1024.0,1023.0,1024.0,1022.0,1022.0,1023.0,1023.0,1024.0,1024.0,1024.0,1024.0,1023.0,1024.0,1023.0,1023.0,1024.0,1023.0,1024.0,1023.0,1024.0,1024.0,1023.0,1023.0,1023.0,1023.0,1023.0,1023.0,1024.0,1023.0,1024.0,1024.0,1023.0,1023.0,1022.0,1022.0,1023.0,1024.0,1024.0,1024.0,1024.0,1024.0,1024.0,1024.0,1025.0,1022.0,1023.0,1023.0,1025.0,1024.0,1024.0,1024.0,1023.0,1024.0,1024.0,1023.0,1024.0,1023.0,1025.0,1024.0,1024.0,1024.0,1023.0,1024.0,1023.0,1022.0,1024.0,1023.0,1023.0,1022.0,1023.0,1024.0,1023.0,1022.0,1021.0,1023.0,1023.0,1024.0,1023.0,1023.0,1024.0,1023.0,1023.0,1022.0,1023.0,1024.0,1023.0,1023.0,1024.0,1023.0,1023.0,1024.0,1024.0,1024.0,1024.0,1024.0,1023.0,1024.0,1024.0,1025.0,1024.0,1024.0,1025.0,1024.0,1024.0,1023.0,1025.0,1024.0,1025.0,1025.0,1024.0,1025.0,1027.0,1026.0,1028.0,1027.0,1024.0,1026.0,1031.0,1029.0,1031.0,1029.0,1025.0,1029.0,1039.0,1033.0,1037.0,1033.0,1027.0,1033.0,1043.0,1040.0,1038.0,1039.0,1028.0,1038.0,1047.0,1038.0,1034.0,1040.0,1028.0,1045.0,1051.0,1040.0,1035.0,1042.0,1031.0,1045.0,1049.0,1040.0,1035.0,1042.0,1032.0,1041.0,1042.0,1036.0,1031.0,1038.0,1030.0,1042.0,1042.0,1037.0,1031.0,1038.0,1030.0,1024.0,1024.0,1023.0,1023.0,1024.0,1021.0,1043.0,1044.0,1039.0,1032.0,1040.0,1032.0,1035.0,1035.0,1034.0,1030.0,1036.0,1029.0,1029.0,1029.0,1028.0,1027.0,1030.0,2049,2026,1910,	00:30:05.919,0.05078125,0.06298828125,1.01708984375,-0.06103515625,0.1220703125,0.1220703125,3.6199951171875,-2.8564453125,44.3682861328125,471.0,-1615.0,-2558.0,0.9249267578125,0.038665771484375,-0.011138916015625,0.378021240234375,3.621326700107748,-2.8576461708607157,39.870306493275365,0.9390489502325063,0.03819176554098892,-0.012659472764043927,0.341420848603928,1,	00:30:05.920,0.044921875,0.0205078125,1.00732421875,-1.5869140625,-1.5869140625,-0.48828125,1.1590576171875,-2.559814453125,172.24365234375,-418.0,-1208.0,-1984.0,-0.067413330078125,-0.02294921875,-0.008575439453125,-0.9974365234375,1.1602997813023732,-2.5583339455234033,172.77207739030874,-0.06278918156125816,-0.022916364934986146,-0.008695618084027036,-0.9977257865381504,1
1782117313.149619,0.020,1024.0,1024.0,1023.0,1023.0,1023.0,1023.0,1023.0,1023.0,1022.0,1024.0,1024.0,1024.0,1024.0,1024.0,1022.0,1023.0,1023.0,1024.0,1024.0,1024.0,1024.0,1023.0,1024.0,1024.0,1024.0,1024.0,1024.0,1024.0,1024.0,1023.0,1023.0,1023.0,1023.0,1023.0,1024.0,1024.0,1024.0,1024.0,1023.0,1024.0,1023.0,1023.0,1023.0,1024.0,1024.0,1024.0,1024.0,1023.0,1023.0,1023.0,1022.0,1023.0,1024.0,1024.0,1024.0,1024.0,1024.0,1023.0,1023.0,1023.0,1023.0,1023.0,1023.0,1024.0,1023.0,1024.0,1024.0,1023.0,1023.0,1022.0,1022.0,1024.0,1024.0,1024.0,1023.0,1024.0,1024.0,1023.0,1024.0,1023.0,1022.0,1023.0,1023.0,1024.0,1025.0,1024.0,1024.0,1024.0,1024.0,1024.0,1023.0,1024.0,1023.0,1025.0,1024.0,1024.0,1025.0,1024.0,1024.0,1024.0,1023.0,1024.0,1023.0,1025.0,1024.0,1024.0,1024.0,1023.0,1024.0,1023.0,1022.0,1023.0,1023.0,1024.0,1023.0,1023.0,1024.0,1023.0,1022.0,1021.0,1022.0,1022.0,1024.0,1023.0,1024.0,1024.0,1023.0,1023.0,1022.0,1023.0,1024.0,1023.0,1024.0,1024.0,1023.0,1022.0,1023.0,1025.0,1024.0,1024.0,1024.0,1023.0,1024.0,1023.0,1025.0,1024.0,1024.0,1025.0,1024.0,1024.0,1024.0,1025.0,1024.0,1025.0,1025.0,1024.0,1024.0,1027.0,1025.0,1028.0,1028.0,1025.0,1025.0,1031.0,1028.0,1031.0,1029.0,1025.0,1029.0,1039.0,1033.0,1037.0,1034.0,1027.0,1033.0,1044.0,1040.0,1038.0,1040.0,1028.0,1038.0,1047.0,1038.0,1035.0,1040.0,1029.0,1044.0,1051.0,1041.0,1035.0,1041.0,1031.0,1045.0,1049.0,1040.0,1035.0,1042.0,1032.0,1041.0,1042.0,1036.0,1031.0,1037.0,1031.0,1041.0,1042.0,1037.0,1031.0,1038.0,1031.0,1024.0,1024.0,1023.0,1023.0,1024.0,1021.0,1042.0,1044.0,1038.0,1032.0,1041.0,1033.0,1034.0,1036.0,1034.0,1031.0,1036.0,1029.0,1029.0,1029.0,1028.0,1027.0,1029.0,2049,2026,1910,	00:30:05.929,0.0498046875,0.06396484375,1.0166015625,-0.06103515625,0.18310546875,0.06103515625,3.5870361328125,-2.7685546875,44.373779296875,471.0,-1617.0,-2556.0,0.924957275390625,0.038116455078125,-0.01055908203125,0.378021240234375,3.5897263102165757,-2.769774850128659,39.87255121177012,0.9390786352326225,0.0376723511304148,-0.012032382944979384,0.34141958433957365,1,	00:30:05.930,0.04541015625,0.0205078125,1.0068359375,-1.5869140625,-1.52587890625,-0.48828125,1.1700439453125,-2.6641845703125,172.2381591796875,-418.0,-1209.0,-1983.0,-0.06744384765625,-0.02386474609375,-0.00860595703125,-0.997406005859375,1.169305698515735,-2.661682170801845,172.76577354529078,-0.06283178869540053,-0.02382157542097977,-0.00871567980992451,-0.9977017268699347,1
1782117313.159636,0.030,1024.0,1024.0,1023.0,1023.0,1024.0,1023.0,1023.0,1023.0,1022.0,1023.0,1024.0,1024.0,1023.0,1024.0,1023.0,1023.0,1023.0,1024.0,1024.0,1024.0,1024.0,1023.0,1024.0,1024.0,1023.0,1024.0,1024.0,1024.0,1024.0,1023.0,1023.0,1023.0,1023.0,1023.0,1024.0,1023.0,1024.0,1024.0,1023.0,1023.0,1023.0,1023.0,1023.0,1024.0,1023.0,1024.0,1024.0,1023.0,1023.0,1023.0,1023.0,1023.0,1023.0,1024.0,1024.0,1024.0,1024.0,1023.0,1023.0,1023.0,1023.0,1023.0,1023.0,1024.0,1023.0,1023.0,1024.0,1023.0,1023.0,1022.0,1022.0,1023.0,1023.0,1024.0,1023.0,1024.0,1024.0,1023.0,1023.0,1023.0,1022.0,1023.0,1023.0,1024.0,1024.0,1024.0,1024.0,1023.0,1024.0,1024.0,1023.0,1023.0,1024.0,1024.0,1024.0,1025.0,1024.0,1024.0,1023.0,1024.0,1023.0,1023.0,1023.0,1024.0,1024.0,1025.0,1024.0,1023.0,1024.0,1023.0,1023.0,1023.0,1022.0,1024.0,1023.0,1024.0,1024.0,1022.0,1023.0,1021.0,1022.0,1023.0,1024.0,1022.0,1024.0,1023.0,1023.0,1023.0,1022.0,1023.0,1024.0,1023.0,1024.0,1024.0,1023.0,1023.0,1023.0,1025.0,1024.0,1025.0,1025.0,1023.0,1024.0,1023.0,1024.0,1024.0,1024.0,1025.0,1023.0,1024.0,1024.0,1025.0,1024.0,1025.0,1025.0,1024.0,1024.0,1027.0,1026.0,1028.0,1028.0,1025.0,1025.0,1032.0,1028.0,1031.0,1029.0,1026.0,1029.0,1039.0,1033.0,1037.0,1034.0,1026.0,1033.0,1043.0,1040.0,1038.0,1039.0,1028.0,1038.0,1047.0,1039.0,1034.0,1040.0,1029.0,1044.0,1051.0,1041.0,1034.0,1041.0,1031.0,1045.0,1049.0,1041.0,1033.0,1042.0,1032.0,1040.0,1043.0,1036.0,1031.0,1038.0,1030.0,1042.0,1042.0,1038.0,1031.0,1037.0,1030.0,1024.0,1024.0,1022.0,1023.0,1023.0,1022.0,1042.0,1044.0,1038.0,1033.0,1041.0,1034.0,1035.0,1035.0,1034.0,1031.0,1036.0,1030.0,1029.0,1029.0,1028.0,1026.0,1029.0,2050,2026,1910,	00:30:05.939,0.05126953125,0.0634765625,1.0166015625,0.0,0.18310546875,0.0,3.5760498046875,-2.8564453125,44.373779296875,473.0,-1615.0,-2554.0,0.9249267578125,0.038299560546875,-0.01129150390625,0.3780517578125,3.5760857844802407,-2.85853242840356,39.87333542180921,0.9390546669582398,0.03782399224722866,-0.01280053232811074,0.3414408066510909,1,	00:30:05.940,0.0439453125,0.0205078125,1.005859375,-1.5869140625,-1.5869140625,-0.48828125,1.153564453125,-2.5872802734375,172.232666015625,-417.0,-1209.0,-1985.0,-0.0675048828125,-0.023193359375,-0.008514404296875,-0.997406005859375,1.1529329392792267,-2.5858753966084858,172.7605858736568,-0.06288795551711292,-0.023152982823139788,-0.00861395526606992,-0.9977148110617298,1
1782117313.170135,0.041,1024.0,1023.0,1023.0,1023.0,1024.0,1023.0,1023.0,1023.0,1022.0,1023.0,1024.0,1024.0,1023.0,1024.0,1023.0,1023.0,1023.0,1024.0,1024.0,1023.0,1024.0,1023.0,1024.0,1024.0,1023.0,1024.0,1024.0,1024.0,1024.0,1023.0,1023.0,1023.0,1023.0,1023.0,1024.0,1023.0,1024.0,1024.0,1023.0,1023.0,1023.0,1023.0,1023.0,1024.0,1023.0,1024.0,1024.0,1023.0,1024.0,1023.0,1023.0,1023.0,1023.0,1024.0,1024.0,1024.0,1024.0,1023.0,1023.0,1023.0,1022.0,1023.0,1023.0,1023.0,1023.0,1023.0,1024.0,1023.0,1023.0,1022.0,1022.0,1023.0,1023.0,1024.0,1023.0,1024.0,1024.0,1023.0,1023.0,1023.0,1023.0,1023.0,1024.0,1025.0,1024.0,1024.0,1025.0,1024.0,1024.0,1024.0,1023.0,1024.0,1024.0,1024.0,1024.0,1024.0,1025.0,1024.0,1024.0,1024.0,1023.0,1023.0,1023.0,1025.0,1024.0,1024.0,1024.0,1023.0,1024.0,1022.0,1023.0,1023.0,1023.0,1024.0,1022.0,1023.0,1023.0,1023.0,1023.0,1020.0,1022.0,1023.0,1024.0,1023.0,1024.0,1024.0,1023.0,1023.0,1021.0,1023.0,1024.0,1023.0,1024.0,1024.0,1023.0,1023.0,1024.0,1025.0,1024.0,1024.0,1024.0,1024.0,1023.0,1023.0,1024.0,1024.0,1024.0,1024.0,1023.0,1024.0,1024.0,1025.0,1024.0,1025.0,1025.0,1024.0,1024.0,1027.0,1026.0,1028.0,1027.0,1025.0,1026.0,1031.0,1029.0,1031.0,1030.0,1026.0,1030.0,1040.0,1033.0,1037.0,1034.0,1027.0,1033.0,1044.0,1039.0,1038.0,1040.0,1028.0,1038.0,1047.0,1039.0,1034.0,1041.0,1029.0,1045.0,1050.0,1041.0,1034.0,1041.0,1032.0,1045.0,1049.0,1040.0,1034.0,1042.0,1032.0,1041.0,1042.0,1036.0,1030.0,1038.0,1030.0,1042.0,1042.0,1037.0,1031.0,1037.0,1030.0,1024.0,1024.0,1023.0,1024.0,1024.0,1021.0,1042.0,1044.0,1038.0,1032.0,1040.0,1033.0,1035.0,1035.0,1034.0,1031.0,1036.0,1029.0,1030.0,1029.0,1028.0,1027.0,1029.0,2050,2026,1910,	00:30:05.950,0.05126953125,0.06396484375,1.017578125,0.0,0.18310546875,0.1220703125,3.6419677734375,-2.92236328125,44.373779296875,472.0,-1614.0,-2560.0,0.924896240234375,0.039031982421875,-0.0115966796875,0.3780517578125,3.6416931412912947,-2.92040615751134,39.87135898884978,0.9390201073282024,0.03854495364905867,-0.013113030099438348,0.34144336722674035,1,	00:30:05.951,0.04443359375,0.01953125,1.00634765625,-1.52587890625,-1.5869140625,-0.48828125,1.087646484375,-2.52685546875,172.2271728515625,-416.0,-1203.0,-1987.0,-0.067535400390625,-0.02264404296875,-0.007965087890625,-0.9974365234375,1.0850864898896946,-2.5268092280379673,172.75772746043523,-0.06293213619162182,-0.022601682173357188,-0.00805531242568123,-0.9977293331054362,1
1782117313.180163,0.051,1024.0,1023.0,1024.0,1023.0,1023.0,1023.0,1023.0,1024.0,1022.0,1023.0,1024.0,1024.0,1023.0,1024.0,1023.0,1024.0,1023.0,1024.0,1024.0,1024.0,1024.0,1023.0,1023.0,1024.0,1023.0,1024.0,1023.0,1024.0,1024.0,1023.0,1023.0,1023.0,1023.0,1023.0,1024.0,1023.0,1024.0,1024.0,1023.0,1023.0,1022.0,1023.0,1023.0,1024.0,1023.0,1024.0,1024.0,1023.0,1023.0,1023.0,1023.0,1023.0,1023.0,1024.0,1024.0,1024.0,1024.0,1023.0,1023.0,1023.0,1023.0,1023.0,1023.0,1024.0,1023.0,1023.0,1024.0,1023.0,1023.0,1022.0,1022.0,1023.0,1023.0,1024.0,1023.0,1023.0,1023.0,1023.0,1023.0,1022.0,1022.0,1024.0,1023.0,1025.0,1024.0,1024.0,1024.0,1023.0,1024.0,1024.0,1023.0,1024.0,1023.0,1025.0,1025.0,1024.0,1024.0,1023.0,1024.0,1024.0,1023.0,1023.0,1023.0,1024.0,1024.0,1024.0,1024.0,1023.0,1024.0,1024.0,1022.0,1024.0,1023.0,1024.0,1022.0,1024.0,1023.0,1023.0,1023.0,1021.0,1023.0,1023.0,1024.0,1023.0,1023.0,1024.0,1023.0,1023.0,1022.0,1023.0,1024.0,1023.0,1024.0,1024.0,1023.0,1023.0,1024.0,1025.0,1024.0,1024.0,1024.0,1023.0,1023.0,1024.0,1024.0,1024.0,1025.0,1025.0,1023.0,1024.0,1024.0,1025.0,1024.0,1025.0,1025.0,1024.0,1025.0,1026.0,1026.0,1028.0,1028.0,1025.0,1026.0,1031.0,1028.0,1031.0,1030.0,1026.0,1029.0,1039.0,1034.0,1037.0,1034.0,1026.0,1033.0,1043.0,1040.0,1037.0,1039.0,1027.0,1039.0,1046.0,1039.0,1034.0,1041.0,1029.0,1045.0,1051.0,1041.0,1034.0,1042.0,1031.0,1045.0,1049.0,1041.0,1034.0,1042.0,1031.0,1042.0,1042.0,1036.0,1031.0,1038.0,1030.0,1042.0,1042.0,1037.0,1031.0,1038.0,1030.0,1024.0,1024.0,1023.0,1022.0,1024.0,1022.0,1042.0,1044.0,1039.0,1032.0,1041.0,1033.0,1035.0,1035.0,1035.0,1031.0,1036.0,1030.0,1029.0,1029.0,1029.0,1027.0,1030.0,2050,2026,1910,	00:30:05.960,0.05078125,0.064453125,1.01708984375,-0.06103515625,0.1220703125,0.06103515625,3.6199951171875,-2.8289794921875,44.373779296875,472.0,-1616.0,-2557.0,0.9249267578125,0.03857421875,-0.01092529296875,0.3780517578125,3.6204156081199197,-2.830085723025698,39.8730810003217,0.9390491845838601,0.03810284034596043,-0.012435284231580773,0.3414383783291468,1,	00:30:05.961,0.044921875,0.01953125,1.005859375,-1.46484375,-1.5869140625,-0.48828125,1.131591796875,-2.6092529296875,172.2216796875,-418.0,-1203.0,-1986.0,-0.067596435546875,-0.023406982421875,-0.00830078125,-0.997406005859375,1.13251922742651,-2.610172318560696,172.74977882002182,-0.06298377808886685,-0.023354113578285544,-0.008420586891323283,-0.9977057295580848,1
1782117313.190222,0.061,1024.0,1024.0,1023.0,1023.0,1023.0,1023.0,1023.0,1023.0,1022.0,1024.0,1024.0,1024.0,1024.0,1024.0,1023.0,1024.0,1023.0,1024.0,1024.0,1024.0,1024.0,1022.0,1024.0,1024.0,1024.0,1024.0,1024.0,1023.0,1024.0,1023.0,1024.0,1023.0,1023.0,1023.0,1024.0,1023.0,1024.0,1024.0,1023.0,1023.0,1023.0,1023.0,1023.0,1024.0,1023.0,1024.0,1024.0,1023.0,1023.0,1023.0,1023.0,1023.0,1024.0,1024.0,1024.0,1024.0,1024.0,1023.0,1023.0,1023.0,1022.0,1024.0,1023.0,1024.0,1023.0,1024.0,1024.0,1023.0,1023.0,1023.0,1023.0,1023.0,1023.0,1024.0,1023.0,1024.0,1024.0,1023.0,1023.0,1022.0,1023.0,1023.0,1024.0,1024.0,1024.0,1024.0,1024.0,1023.0,1024.0,1024.0,1023.0,1023.0,1023.0,1025.0,1024.0,1024.0,1025.0,1023.0,1024.0,1024.0,1022.0,1023.0,1023.0,1024.0,1024.0,1024.0,1024.0,1023.0,1024.0,1023.0,1023.0,1023.0,1022.0,1024.0,1022.0,1023.0,1023.0,1022.0,1023.0,1021.0,1022.0,1022.0,1024.0,1023.0,1024.0,1023.0,1023.0,1023.0,1022.0,1023.0,1024.0,1023.0,1023.0,1024.0,1022.0,1022.0,1024.0,1025.0,1024.0,1024.0,1024.0,1024.0,1023.0,1024.0,1024.0,1024.0,1025.0,1024.0,1023.0,1024.0,1024.0,1025.0,1024.0,1025.0,1026.0,1024.0,1024.0,1027.0,1026.0,1028.0,1028.0,1025.0,1026.0,1031.0,1028.0,1031.0,1029.0,1025.0,1030.0,1039.0,1034.0,1037.0,1034.0,1027.0,1033.0,1043.0,1040.0,1038.0,1040.0,1028.0,1039.0,1047.0,1039.0,1034.0,1041.0,1029.0,1045.0,1050.0,1042.0,1034.0,1042.0,1031.0,1045.0,1048.0,1041.0,1034.0,1042.0,1032.0,1041.0,1042.0,1036.0,1030.0,1038.0,1030.0,1042.0,1041.0,1038.0,1031.0,1038.0,1030.0,1024.0,1024.0,1023.0,1023.0,1023.0,1022.0,1042.0,1043.0,1039.0,1032.0,1041.0,1033.0,1035.0,1036.0,1034.0,1031.0,1036.0,1029.0,1029.0,1029.0,1028.0,1027.0,1029.0,2050,2026,1909,	00:30:05.970,0.05126953125,0.064453125,1.017578125,-0.06103515625,0.18310546875,0.06103515625,3.62548828125,-2.9168701171875,44.373779296875,472.0,-1616.0,-2556.0,0.924896240234375,0.038909912109375,-0.011627197265625,0.3780517578125,3.6269978395612057,-2.919547210655493,39.87344458316052,0.9390190884667471,0.03842222407031862,-0.013149074839898998,0.3414586153890754,1,	00:30:05.971,0.044921875,0.01953125,1.005859375,-1.40380859375,-1.52587890625,-0.48828125,1.087646484375,-2.537841796875,172.2161865234375,-418.0,-1208.0,-1980.0,-0.067657470703125,-0.02276611328125,-0.007965087890625,-0.997406005859375,1.0864862703074438,-2.5396164537116306,172.7460292640262,-0.06303250041878948,-0.022714780895210458,-0.008058101046838675,-0.9977204065405081,1
1782117313.200872,0.072,1024.0,1024.0,1023.0,1023.0,1023.0,1023.0,1023.0,1024.0,1022.0,1023.0,1024.0,1024.0,1023.0,1024.0,1023.0,1023.0,1023.0,1024.0,1024.0,1024.0,1024.0,1023.0,1023.0,1024.0,1024.0,1024.0,1023.0,1024.0,1024.0,1023.0,1024.0,1024.0,1023.0,1023.0,1024.0,1023.0,1023.0,1024.0,1023.0,1023.0,1023.0,1022.0,1023.0,1024.0,1024.0,1024.0,1024.0,1023.0,1023.0,1023.0,1023.0,1023.0,1023.0,1024.0,1023.0,1024.0,1024.0,1023.0,1023.0,1023.0,1023.0,1024.0,1023.0,1024.0,1023.0,1024.0,1024.0,1023.0,1023.0,1022.0,1022.0,1024.0,1023.0,1024.0,1024.0,1024.0,1024.0,1023.0,1023.0,1022.0,1022.0,1023.0,1023.0,1025.0,1024.0,1024.0,1024.0,1023.0,1024.0,1024.0,1023.0,1024.0,1023.0,1025.0,1024.0,1024.0,1024.0,1023.0,1024.0,1024.0,1023.0,1023.0,1023.0,1025.0,1024.0,1024.0,1024.0,1023.0,1024.0,1023.0,1022.0,1023.0,1023.0,1024.0,1023.0,1023.0,1023.0,1023.0,1023.0,1021.0,1022.0,1023.0,1024.0,1023.0,1024.0,1023.0,1023.0,1023.0,1022.0,1023.0,1024.0,1023.0,1023.0,1024.0,1023.0,1023.0,1023.0,1025.0,1024.0,1024.0,1024.0,1023.0,1024.0,1024.0,1025.0,1024.0,1024.0,1024.0,1024.0,1023.0,1024.0,1024.0,1024.0,1025.0,1025.0,1024.0,1024.0,1027.0,1026.0,1028.0,1028.0,1025.0,1026.0,1031.0,1028.0,1031.0,1030.0,1026.0,1029.0,1040.0,1033.0,1037.0,1034.0,1027.0,1033.0,1043.0,1040.0,1037.0,1040.0,1028.0,1039.0,1047.0,1039.0,1034.0,1041.0,1029.0,1044.0,1051.0,1042.0,1034.0,1041.0,1032.0,1045.0,1049.0,1041.0,1034.0,1042.0,1032.0,1041.0,1042.0,1037.0,1030.0,1037.0,1030.0,1042.0,1042.0,1037.0,1031.0,1038.0,1031.0,1024.0,1024.0,1023.0,1023.0,1024.0,1021.0,1042.0,1043.0,1039.0,1032.0,1040.0,1033.0,1035.0,1036.0,1035.0,1031.0,1036.0,1030.0,1030.0,1029.0,1028.0,1026.0,1029.0,2050,2026,1910,	00:30:05.980,0.05126953125,0.0634765625,1.01708984375,-0.18310546875,0.18310546875,0.0,3.548583984375,-2.867431640625,44.3792724609375,472.0,-1615.0,-2558.0,0.9249267578125,0.038116455078125,-0.011444091796875,0.378082275390625,3.550459819576779,-2.8649537594722827,39.87732895146884,0.939049295714144,0.03763349385527471,-0.012928227948907174,0.34147181623249145,1,	00:30:05.981,0.04541015625,0.02001953125,1.005859375,-1.40380859375,-1.46484375,-0.48828125,1.142578125,-2.61474609375,172.210693359375,-418.0,-1210.0,-1983.0,-0.06768798828125,-0.0234375,-0.008392333984375,-0.997406005859375,1.143076437781165,-2.6128390285828305,172.7377091631344,-0.06308644658211986,-0.02338402978190349,-0.00850856536146274,-0.9976977957900329,1
1782117313.210896,0.082,1024.0,1024.0,1023.0,1023.0,1023.0,1023.0,1023.0,1023.0,1022.0,1024.0,1024.0,1024.0,1023.0,1024.0,1023.0,1024.0,1023.0,1024.0,1024.0,1024.0,1024.0,1023.0,1023.0,1023.0,1024.0,1024.0,1024.0,1024.0,1024.0,1023.0,1023.0,1023.0,1023.0,1023.0,1024.0,1023.0,1023.0,1024.0,1023.0,1023.0,1023.0,1023.0,1023.0,1024.0,1023.0,1024.0,1024.0,1023.0,1023.0,1023.0,1022.0,1023.0,1023.0,1024.0,1024.0,1024.0,1024.0,1023.0,1023.0,1023.0,1023.0,1024.0,1023.0,1024.0,1023.0,1024.0,1024.0,1023.0,1023.0,1023.0,1023.0,1023.0,1023.0,1024.0,1024.0,1024.0,1024.0,1023.0,1023.0,1022.0,1023.0,1024.0,1023.0,1025.0,1025.0,1024.0,1024.0,1023.0,1024.0,1025.0,1023.0,1023.0,1023.0,1025.0,1024.0,1024.0,1024.0,1024.0,1024.0,1024.0,1023.0,1024.0,1024.0,1024.0,1024.0,1024.0,1024.0,1023.0,1024.0,1023.0,1023.0,1023.0,1023.0,1024.0,1022.0,1023.0,1024.0,1023.0,1022.0,1021.0,1022.0,1023.0,1024.0,1023.0,1024.0,1024.0,1023.0,1023.0,1022.0,1024.0,1024.0,1023.0,1024.0,1024.0,1023.0,1023.0,1024.0,1024.0,1024.0,1024.0,1024.0,1023.0,1024.0,1024.0,1025.0,1024.0,1024.0,1024.0,1024.0,1024.0,1024.0,1025.0,1024.0,1025.0,1025.0,1024.0,1024.0,1027.0,1026.0,1028.0,1028.0,1024.0,1025.0,1031.0,1028.0,1032.0,1029.0,1026.0,1029.0,1039.0,1033.0,1037.0,1033.0,1026.0,1033.0,1043.0,1040.0,1038.0,1040.0,1028.0,1038.0,1047.0,1039.0,1034.0,1041.0,1029.0,1045.0,1050.0,1041.0,1035.0,1041.0,1031.0,1046.0,1049.0,1040.0,1034.0,1042.0,1032.0,1041.0,1042.0,1037.0,1030.0,1038.0,1031.0,1042.0,1042.0,1037.0,1031.0,1038.0,1031.0,1024.0,1024.0,1023.0,1023.0,1024.0,1021.0,1042.0,1043.0,1038.0,1032.0,1041.0,1033.0,1035.0,1035.0,1035.0,1030.0,1037.0,1029.0,1029.0,1029.0,1028.0,1026.0,1030.0,2050,2026,1909,	00:30:05.990,0.05078125,0.064453125,1.01708984375,-0.1220703125,0.18310546875,0.1220703125,3.6419677734375,-2.8509521484375,44.373779296875,471.0,-1616.0,-2557.0,0.924896240234375,0.038787841796875,-0.011016845703125,0.3780517578125,3.6396180202650985,-2.848382227310633,39.87415454045279,0.9390341424649524,0.03831459705386336,-0.012527728863844963,0.3414526716065129,1,	00:30:05.992,0.04541015625,0.01904296875,1.00634765625,-1.3427734375,-1.52587890625,-0.48828125,1.0491943359375,-2.5872802734375,172.2052001953125,-418.0,-1208.0,-1981.0,-0.067718505859375,-0.02313232421875,-0.007598876953125,-0.997406005859375,1.0479631430234764,-2.586830662537733,172.7362303596967,-0.06312110649634027,-0.023105318597583458,-0.007694572274358892,-0.9977087068501991,1
1782117313.224143,0.095,1024.0,1024.0,1024.0,1023.0,1023.0,1023.0,1023.0,1023.0,1022.0,1024.0,1024.0,1024.0,1024.0,1024.0,1023.0,1023.0,1023.0,1024.0,1023.0,1024.0,1024.0,1023.0,1023.0,1024.0,1023.0,1024.0,1024.0,1024.0,1024.0,1023.0,1024.0,1024.0,1022.0,1023.0,1024.0,1023.0,1023.0,1024.0,1022.0,1023.0,1023.0,1022.0,1023.0,1024.0,1023.0,1023.0,1023.0,1024.0,1023.0,1023.0,1023.0,1024.0,1024.0,1024.0,1024.0,1024.0,1024.0,1023.0,1023.0,1023.0,1023.0,1023.0,1023.0,1024.0,1023.0,1024.0,1024.0,1023.0,1023.0,1023.0,1023.0,1023.0,1023.0,1024.0,1023.0,1024.0,1024.0,1023.0,1023.0,1023.0,1023.0,1023.0,1023.0,1024.0,1024.0,1024.0,1024.0,1024.0,1024.0,1024.0,1023.0,1024.0,1023.0,1025.0,1024.0,1025.0,1024.0,1024.0,1024.0,1023.0,1023.0,1023.0,1023.0,1025.0,1024.0,1024.0,1025.0,1023.0,1024.0,1023.0,1023.0,1023.0,1023.0,1023.0,1023.0,1023.0,1023.0,1023.0,1023.0,1020.0,1022.0,1023.0,1024.0,1023.0,1023.0,1024.0,1023.0,1023.0,1021.0,1023.0,1024.0,1024.0,1023.0,1024.0,1023.0,1023.0,1024.0,1024.0,1024.0,1025.0,1025.0,1023.0,1024.0,1023.0,1025.0,1024.0,1025.0,1024.0,1023.0,1024.0,1024.0,1025.0,1024.0,1025.0,1025.0,1024.0,1024.0,1027.0,1026.0,1028.0,1027.0,1025.0,1026.0,1031.0,1028.0,1031.0,1029.0,1026.0,1029.0,1039.0,1033.0,1037.0,1033.0,1027.0,1033.0,1043.0,1040.0,1038.0,1040.0,1028.0,1039.0,1047.0,1038.0,1034.0,1041.0,1029.0,1045.0,1051.0,1041.0,1034.0,1041.0,1032.0,1046.0,1049.0,1041.0,1033.0,1042.0,1032.0,1041.0,1042.0,1036.0,1030.0,1038.0,1030.0,1042.0,1042.0,1037.0,1030.0,1038.0,1031.0,1024.0,1024.0,1023.0,1023.0,1024.0,1021.0,1042.0,1043.0,1039.0,1032.0,1041.0,1033.0,1035.0,1035.0,1035.0,1030.0,1037.0,1029.0,1029.0,1029.0,1028.0,1026.0,1029.0,2050,2026,1910,	00:30:06.001,0.05029296875,0.06396484375,1.0166015625,-0.18310546875,0.18310546875,0.06103515625,3.5595703125,-2.801513671875,44.3792724609375,470.0,-1617.0,-2559.0,0.9249267578125,0.0379638671875,-0.01092529296875,0.378082275390625,3.5577210266174117,-2.8022881284528003,39.878824870634155,0.9390609434476004,0.03750721358419813,-0.012392281317095376,0.34147354917212847,1,	00:30:06.002,0.044921875,0.02001953125,1.0078125,-1.40380859375,-1.52587890625,-0.54931640625,1.12060546875,-2.57080078125,172.1942138671875,-417.0,-1209.0,-1980.0,-0.06781005859375,-0.02301025390625,-0.008209228515625,-0.997406005859375,1.1196589820880312,-2.5686211429465176,172.7266068444429,-0.06319220174977067,-0.022986967092748115,-0.008326968933846605,-0.9977018625673042,1
1782117313.230673,0.101,1024.0,1024.0,1023.0,1023.0,1023.0,1023.0,1023.0,1023.0,1022.0,1023.0,1024.0,1024.0,1024.0,1024.0,1023.0,1024.0,1023.0,1024.0,1024.0,1024.0,1024.0,1023.0,1024.0,1024.0,1023.0,1024.0,1024.0,1024.0,1024.0,1023.0,1023.0,1023.0,1023.0,1023.0,1024.0,1023.0,1024.0,1023.0,1023.0,1023.0,1023.0,1023.0,1023.0,1024.0,1023.0,1023.0,1024.0,1022.0,1023.0,1023.0,1023.0,1023.0,1024.0,1024.0,1023.0,1024.0,1024.0,1023.0,1024.0,1024.0,1023.0,1023.0,1023.0,1024.0,1023.0,1024.0,1024.0,1023.0,1023.0,1022.0,1023.0,1023.0,1023.0,1024.0,1024.0,1024.0,1024.0,1023.0,1023.0,1023.0,1023.0,1023.0,1024.0,1025.0,1024.0,1024.0,1024.0,1023.0,1023.0,1024.0,1023.0,1023.0,1023.0,1025.0,1024.0,1024.0,1024.0,1024.0,1024.0,1024.0,1023.0,1023.0,1023.0,1025.0,1023.0,1024.0,1024.0,1024.0,1024.0,1022.0,1023.0,1024.0,1023.0,1023.0,1022.0,1023.0,1024.0,1023.0,1022.0,1020.0,1022.0,1023.0,1024.0,1023.0,1024.0,1024.0,1023.0,1023.0,1022.0,1022.0,1024.0,1023.0,1024.0,1024.0,1023.0,1022.0,1023.0,1025.0,1024.0,1024.0,1024.0,1023.0,1024.0,1024.0,1025.0,1024.0,1024.0,1025.0,1023.0,1024.0,1024.0,1025.0,1024.0,1025.0,1025.0,1024.0,1024.0,1027.0,1026.0,1028.0,1028.0,1025.0,1026.0,1031.0,1028.0,1031.0,1030.0,1025.0,1029.0,1040.0,1033.0,1037.0,1033.0,1027.0,1033.0,1043.0,1040.0,1038.0,1039.0,1028.0,1039.0,1047.0,1039.0,1034.0,1041.0,1029.0,1044.0,1051.0,1041.0,1033.0,1041.0,1032.0,1045.0,1049.0,1041.0,1033.0,1042.0,1032.0,1041.0,1043.0,1036.0,1030.0,1037.0,1031.0,1042.0,1043.0,1038.0,1031.0,1038.0,1031.0,1024.0,1024.0,1023.0,1023.0,1024.0,1021.0,1042.0,1044.0,1039.0,1032.0,1041.0,1033.0,1035.0,1035.0,1035.0,1030.0,1037.0,1030.0,1029.0,1029.0,1029.0,1025.0,1029.0,2050,2026,1909,	00:30:06.011,0.05126953125,0.06396484375,1.0166015625,-0.18310546875,0.18310546875,0.06103515625,3.5980224609375,-2.87841796875,44.3792724609375,473.0,-1617.0,-2558.0,0.924896240234375,0.038543701171875,-0.01141357421875,0.378082275390625,3.599203100822723,-2.8810266697769698,39.87740073608888,0.9390281834040336,0.03808062667339923,-0.012914738857883294,0.3414808137587153,1,	00:30:06.012,0.04541015625,0.01953125,1.0078125,-1.40380859375,-1.52587890625,-0.48828125,1.043701171875,-2.6531982421875,172.1942138671875,-418.0,-1207.0,-1982.0,-0.067840576171875,-0.023712158203125,-0.007537841796875,-0.99737548828125,1.0455750784642257,-2.6528763611659016,172.72417752507334,-0.06322044464649834,-0.02367982434281,-0.0076346708048640145,-0.9976894071300416,1
1782117313.241621,0.112,1024.0,1024.0,1023.0,1023.0,1023.0,1023.0,1023.0,1024.0,1022.0,1024.0,1024.0,1024.0,1023.0,1024.0,1023.0,1024.0,1023.0,1024.0,1024.0,1024.0,1024.0,1023.0,1023.0,1023.0,1024.0,1024.0,1024.0,1023.0,1024.0,1023.0,1023.0,1023.0,1023.0,1024.0,1024.0,1023.0,1024.0,1024.0,1023.0,1023.0,1023.0,1023.0,1023.0,1024.0,1024.0,1023.0,1024.0,1023.0,1023.0,1022.0,1022.0,1023.0,1024.0,1024.0,1024.0,1024.0,1024.0,1023.0,1023.0,1023.0,1022.0,1023.0,1023.0,1024.0,1024.0,1024.0,1024.0,1023.0,1023.0,1023.0,1023.0,1024.0,1023.0,1024.0,1023.0,1024.0,1024.0,1023.0,1023.0,1023.0,1023.0,1024.0,1024.0,1025.0,1024.0,1024.0,1024.0,1023.0,1024.0,1024.0,1023.0,1024.0,1023.0,1025.0,1024.0,1024.0,1024.0,1023.0,1024.0,1024.0,1023.0,1024.0,1023.0,1025.0,1024.0,1024.0,1024.0,1023.0,1024.0,1023.0,1023.0,1023.0,1023.0,1024.0,1022.0,1024.0,1024.0,1023.0,1023.0,1021.0,1022.0,1023.0,1024.0,1023.0,1023.0,1023.0,1023.0,1023.0,1022.0,1023.0,1024.0,1023.0,1024.0,1024.0,1023.0,1023.0,1024.0,1025.0,1024.0,1024.0,1024.0,1024.0,1024.0,1023.0,1025.0,1024.0,1024.0,1024.0,1023.0,1024.0,1024.0,1025.0,1024.0,1025.0,1025.0,1024.0,1025.0,1028.0,1026.0,1028.0,1028.0,1025.0,1026.0,1031.0,1028.0,1031.0,1029.0,1026.0,1029.0,1040.0,1034.0,1037.0,1034.0,1027.0,1033.0,1044.0,1040.0,1038.0,1040.0,1027.0,1039.0,1047.0,1039.0,1034.0,1041.0,1029.0,1044.0,1051.0,1041.0,1034.0,1042.0,1031.0,1045.0,1049.0,1041.0,1034.0,1042.0,1032.0,1041.0,1042.0,1037.0,1030.0,1038.0,1031.0,1042.0,1042.0,1037.0,1030.0,1038.0,1030.0,1024.0,1024.0,1023.0,1023.0,1023.0,1021.0,1042.0,1044.0,1039.0,1031.0,1041.0,1034.0,1035.0,1036.0,1035.0,1029.0,1036.0,1030.0,1029.0,1029.0,1029.0,1026.0,1030.0,2050,2026,1910,	00:30:06.021,0.05078125,0.064453125,1.0166015625,-0.06103515625,0.18310546875,0.0,3.6639404296875,-2.8179931640625,44.373779296875,472.0,-1617.0,-2558.0,0.924896240234375,0.03887939453125,-0.01068115234375,0.3780517578125,3.6651026061539738,-2.8160373885621968,39.87420993139291,0.939035064327313,0.03842747883728086,-0.012186567923675682,0.341449797768649,1,	00:30:06.022,0.04541015625,0.0205078125,1.00830078125,-1.52587890625,-1.5869140625,-0.48828125,1.109619140625,-2.6202392578125,172.1832275390625,-420.0,-1207.0,-1985.0,-0.067901611328125,-0.023468017578125,-0.008087158203125,-0.99737548828125,1.108348893167666,-2.6200271426094552,172.71541769514272,-0.06328691523932622,-0.023429087254674977,-0.008197664808306469,-0.9976866454561741,1
1782117313.251642,0.122,1024.0,1023.0,1023.0,1023.0,1023.0,1023.0,1023.0,1023.0,1022.0,1024.0,1024.0,1024.0,1023.0,1024.0,1023.0,1023.0,1023.0,1024.0,1024.0,1023.0,1024.0,1023.0,1023.0,1023.0,1023.0,1024.0,1024.0,1024.0,1024.0,1023.0,1024.0,1023.0,1022.0,1024.0,1024.0,1024.0,1024.0,1024.0,1023.0,1024.0,1023.0,1022.0,1023.0,1024.0,1023.0,1024.0,1024.0,1023.0,1023.0,1022.0,1022.0,1023.0,1023.0,1024.0,1024.0,1024.0,1024.0,1023.0,1023.0,1023.0,1023.0,1023.0,1023.0,1024.0,1023.0,1024.0,1024.0,1023.0,1024.0,1022.0,1023.0,1024.0,1023.0,1024.0,1024.0,1024.0,1024.0,1023.0,1023.0,1023.0,1022.0,1023.0,1023.0,1025.0,1024.0,1024.0,1024.0,1023.0,1024.0,1024.0,1023.0,1023.0,1024.0,1025.0,1024.0,1024.0,1024.0,1023.0,1024.0,1024.0,1023.0,1024.0,1023.0,1025.0,1024.0,1024.0,1024.0,1023.0,1024.0,1022.0,1022.0,1024.0,1023.0,1024.0,1023.0,1023.0,1023.0,1022.0,1023.0,1021.0,1022.0,1023.0,1024.0,1023.0,1023.0,1024.0,1023.0,1023.0,1022.0,1023.0,1024.0,1023.0,1024.0,1024.0,1023.0,1023.0,1024.0,1025.0,1024.0,1024.0,1024.0,1024.0,1024.0,1024.0,1025.0,1024.0,1025.0,1024.0,1023.0,1024.0,1024.0,1025.0,1024.0,1026.0,1025.0,1024.0,1024.0,1027.0,1026.0,1028.0,1028.0,1025.0,1026.0,1032.0,1028.0,1031.0,1029.0,1025.0,1029.0,1040.0,1034.0,1037.0,1034.0,1027.0,1033.0,1044.0,1040.0,1038.0,1040.0,1028.0,1039.0,1047.0,1039.0,1034.0,1040.0,1029.0,1044.0,1051.0,1042.0,1034.0,1042.0,1031.0,1045.0,1050.0,1041.0,1033.0,1042.0,1032.0,1041.0,1042.0,1036.0,1029.0,1037.0,1031.0,1042.0,1042.0,1037.0,1030.0,1038.0,1031.0,1024.0,1024.0,1023.0,1022.0,1024.0,1022.0,1042.0,1044.0,1039.0,1031.0,1041.0,1033.0,1034.0,1036.0,1035.0,1030.0,1037.0,1030.0,1029.0,1029.0,1029.0,1027.0,1030.0,2050,2026,1909,	00:30:06.031,0.05078125,0.064453125,1.017578125,-0.06103515625,0.18310546875,0.06103515625,3.592529296875,-2.8729248046875,44.3792724609375,473.0,-1616.0,-2558.0,0.924896240234375,0.03851318359375,-0.0113525390625,0.378082275390625,3.5949528809946445,-2.8741078956406905,39.87838714619269,0.939028725739303,0.03802538037400609,-0.012870348168086762,0.3414871546952614,1,	00:30:06.033,0.0439453125,0.02001953125,1.00732421875,-1.64794921875,-1.5869140625,-0.54931640625,1.1151123046875,-2.548828125,172.177734375,-417.0,-1205.0,-1985.0,-0.067962646484375,-0.0228271484375,-0.0081787109375,-0.997406005859375,1.114051808001863,-2.546839589764015,172.70861408668256,-0.06335209479656191,-0.022795538062172483,-0.008286664681427868,-0.9976964501880324,1
1782117313.261737,0.132,1024.0,1024.0,1024.0,1023.0,1023.0,1023.0,1023.0,1023.0,1022.0,1023.0,1024.0,1024.0,1024.0,1024.0,1023.0,1023.0,1023.0,1024.0,1024.0,1024.0,1024.0,1023.0,1023.0,1024.0,1024.0,1024.0,1023.0,1024.0,1024.0,1023.0,1023.0,1024.0,1022.0,1024.0,1024.0,1023.0,1024.0,1024.0,1023.0,1023.0,1023.0,1023.0,1023.0,1024.0,1024.0,1024.0,1024.0,1023.0,1023.0,1023.0,1023.0,1023.0,1023.0,1024.0,1024.0,1024.0,1024.0,1023.0,1024.0,1023.0,1022.0,1024.0,1023.0,1024.0,1023.0,1024.0,1024.0,1023.0,1023.0,1023.0,1022.0,1023.0,1023.0,1024.0,1023.0,1024.0,1024.0,1023.0,1023.0,1023.0,1023.0,1023.0,1023.0,1024.0,1024.0,1024.0,1024.0,1024.0,1024.0,1024.0,1023.0,1024.0,1023.0,1025.0,1024.0,1025.0,1025.0,1024.0,1024.0,1024.0,1023.0,1023.0,1023.0,1025.0,1024.0,1024.0,1025.0,1024.0,1023.0,1023.0,1022.0,1023.0,1023.0,1024.0,1023.0,1023.0,1024.0,1023.0,1023.0,1021.0,1022.0,1023.0,1024.0,1023.0,1024.0,1024.0,1023.0,1023.0,1022.0,1023.0,1024.0,1023.0,1023.0,1024.0,1023.0,1023.0,1024.0,1025.0,1024.0,1024.0,1024.0,1024.0,1024.0,1024.0,1025.0,1024.0,1024.0,1025.0,1024.0,1023.0,1024.0,1025.0,1024.0,1025.0,1025.0,1024.0,1025.0,1027.0,1027.0,1028.0,1028.0,1024.0,1026.0,1031.0,1028.0,1031.0,1029.0,1026.0,1029.0,1040.0,1033.0,1037.0,1034.0,1027.0,1033.0,1043.0,1040.0,1037.0,1040.0,1028.0,1039.0,1047.0,1039.0,1034.0,1041.0,1030.0,1044.0,1051.0,1042.0,1034.0,1041.0,1032.0,1044.0,1050.0,1041.0,1033.0,1043.0,1032.0,1041.0,1042.0,1035.0,1030.0,1038.0,1030.0,1042.0,1042.0,1038.0,1030.0,1038.0,1030.0,1024.0,1024.0,1022.0,1023.0,1024.0,1021.0,1042.0,1044.0,1039.0,1032.0,1041.0,1034.0,1035.0,1036.0,1035.0,1030.0,1036.0,1030.0,1029.0,1029.0,1028.0,1026.0,1029.0,2050,2026,1910,	00:30:06.042,0.05078125,0.0634765625,1.01708984375,-0.06103515625,0.18310546875,0.0,3.526611328125,-2.8125,44.384765625,473.0,-1616.0,-2560.0,0.9249267578125,0.037750244140625,-0.011077880859375,0.37811279296875,3.5263356552458105,-2.8111353146125135,39.881874133244494,0.9390595076881895,0.03727660216350103,-0.012557356549693623,0.34149671850259883,1,	00:30:06.043,0.0458984375,0.01806640625,1.00634765625,-1.708984375,-1.5869140625,-0.48828125,1.021728515625,-2.6202392578125,172.177734375,-418.0,-1206.0,-1988.0,-0.0679931640625,-0.023406982421875,-0.007354736328125,-0.99737548828125,1.0237969315692657,-2.617627070643838,172.70673570712518,-0.06337999203987008,-0.023362053954162357,-0.007461078924948249,-0.9976880892069147,1
1782117313.272820,0.143,1024.0,1023.0,1023.0,1023.0,1024.0,1023.0,1023.0,1024.0,1022.0,1024.0,1024.0,1024.0,1024.0,1024.0,1023.0,1024.0,1024.0,1024.0,1023.0,1024.0,1024.0,1022.0,1024.0,1023.0,1023.0,1024.0,1024.0,1024.0,1024.0,1023.0,1024.0,1023.0,1022.0,1023.0,1024.0,1024.0,1024.0,1024.0,1023.0,1023.0,1023.0,1023.0,1023.0,1024.0,1023.0,1023.0,1024.0,1023.0,1023.0,1023.0,1022.0,1023.0,1023.0,1024.0,1024.0,1024.0,1024.0,1023.0,1023.0,1023.0,1022.0,1024.0,1023.0,1024.0,1023.0,1024.0,1024.0,1022.0,1023.0,1023.0,1022.0,1023.0,1023.0,1024.0,1023.0,1024.0,1024.0,1023.0,1023.0,1023.0,1023.0,1023.0,1023.0,1025.0,1024.0,1024.0,1024.0,1024.0,1024.0,1024.0,1023.0,1023.0,1024.0,1024.0,1024.0,1024.0,1024.0,1024.0,1024.0,1024.0,1023.0,1023.0,1023.0,1025.0,1024.0,1024.0,1024.0,1023.0,1024.0,1023.0,1023.0,1023.0,1023.0,1024.0,1022.0,1024.0,1024.0,1023.0,1022.0,1021.0,1022.0,1023.0,1025.0,1023.0,1024.0,1024.0,1022.0,1023.0,1022.0,1023.0,1024.0,1023.0,1023.0,1024.0,1023.0,1023.0,1024.0,1025.0,1024.0,1024.0,1024.0,1024.0,1024.0,1024.0,1024.0,1024.0,1024.0,1025.0,1023.0,1024.0,1024.0,1026.0,1024.0,1025.0,1025.0,1024.0,1025.0,1027.0,1026.0,1028.0,1027.0,1025.0,1025.0,1032.0,1028.0,1031.0,1029.0,1026.0,1029.0,1039.0,1034.0,1037.0,1034.0,1027.0,1033.0,1044.0,1041.0,1038.0,1039.0,1028.0,1039.0,1047.0,1039.0,1035.0,1040.0,1029.0,1044.0,1051.0,1041.0,1034.0,1040.0,1031.0,1045.0,1049.0,1041.0,1033.0,1041.0,1032.0,1042.0,1042.0,1036.0,1030.0,1037.0,1030.0,1042.0,1042.0,1038.0,1030.0,1038.0,1030.0,1024.0,1024.0,1023.0,1023.0,1024.0,1021.0,1043.0,1043.0,1039.0,1032.0,1042.0,1033.0,1035.0,1035.0,1035.0,1030.0,1037.0,1029.0,1030.0,1029.0,1029.0,1026.0,1030.0,2050,2026,1909,	00:30:06.052,0.05029296875,0.06396484375,1.017578125,0.0,0.18310546875,0.0,3.614501953125,-2.823486328125,44.3792724609375,472.0,-1616.0,-2559.0,0.924896240234375,0.03851318359375,-0.010894775390625,0.378082275390625,3.6164164470763716,-2.8256477974595753,39.87755730730079,0.9390384899193561,0.038057386404213994,-0.012409325208791924,0.3414738034431312,1,	00:30:06.053,0.044921875,0.01953125,1.00537109375,-1.708984375,-1.5869140625,-0.54931640625,1.0821533203125,-2.581787109375,172.166748046875,-417.0,-1205.0,-1983.0,-0.06805419921875,-0.02313232421875,-0.007904052734375,-0.99737548828125,1.08317964539277,-2.5823322966605824,172.69749159119831,-0.0634517098414288,-0.023088255847127565,-0.007995879244994767,-0.9976857615879041,1
1782117313.282857,0.154,1024.0,1024.0,1023.0,1023.0,1024.0,1023.0,1023.0,1023.0,1022.0,1024.0,1024.0,1024.0,1024.0,1024.0,1023.0,1024.0,1023.0,1024.0,1024.0,1024.0,1024.0,1023.0,1023.0,1024.0,1023.0,1024.0,1024.0,1024.0,1024.0,1023.0,1024.0,1024.0,1022.0,1023.0,1024.0,1023.0,1024.0,1024.0,1023.0,1023.0,1023.0,1022.0,1023.0,1024.0,1023.0,1023.0,1024.0,1023.0,1023.0,1023.0,1022.0,1023.0,1023.0,1024.0,1023.0,1024.0,1024.0,1023.0,1024.0,1023.0,1022.0,1023.0,1023.0,1024.0,1023.0,1024.0,1024.0,1023.0,1023.0,1022.0,1022.0,1023.0,1023.0,1024.0,1023.0,1024.0,1025.0,1023.0,1023.0,1023.0,1022.0,1023.0,1023.0,1024.0,1024.0,1024.0,1024.0,1023.0,1024.0,1024.0,1023.0,1024.0,1024.0,1025.0,1024.0,1025.0,1024.0,1023.0,1024.0,1024.0,1023.0,1023.0,1024.0,1024.0,1024.0,1024.0,1025.0,1024.0,1024.0,1023.0,1023.0,1023.0,1023.0,1023.0,1023.0,1023.0,1024.0,1022.0,1023.0,1021.0,1022.0,1023.0,1024.0,1023.0,1023.0,1024.0,1023.0,1022.0,1022.0,1023.0,1024.0,1023.0,1023.0,1024.0,1023.0,1023.0,1024.0,1025.0,1024.0,1024.0,1025.0,1023.0,1024.0,1024.0,1025.0,1024.0,1024.0,1025.0,1024.0,1024.0,1023.0,1025.0,1024.0,1025.0,1025.0,1024.0,1025.0,1027.0,1026.0,1028.0,1029.0,1024.0,1026.0,1031.0,1029.0,1030.0,1029.0,1026.0,1030.0,1039.0,1034.0,1037.0,1034.0,1027.0,1034.0,1043.0,1040.0,1038.0,1040.0,1028.0,1039.0,1046.0,1039.0,1034.0,1041.0,1029.0,1045.0,1050.0,1042.0,1034.0,1041.0,1032.0,1045.0,1049.0,1041.0,1034.0,1042.0,1032.0,1041.0,1042.0,1036.0,1030.0,1037.0,1030.0,1042.0,1042.0,1037.0,1030.0,1038.0,1031.0,1024.0,1024.0,1023.0,1022.0,1024.0,1021.0,1042.0,1043.0,1039.0,1032.0,1041.0,1034.0,1035.0,1036.0,1035.0,1030.0,1037.0,1030.0,1029.0,1029.0,1028.0,1026.0,1030.0,2050,2026,1910,	00:30:06.063,0.05029296875,0.0625,1.017578125,-0.06103515625,0.18310546875,0.06103515625,3.526611328125,-2.823486328125,44.384765625,473.0,-1614.0,-2558.0,0.9249267578125,0.037750244140625,-0.01116943359375,0.37811279296875,3.5241766843586246,-2.822537929649851,39.882795638063335,0.9390541223170923,0.03729285137668868,-0.0126569844560269,0.34150607511426706,1,	00:30:06.064,0.0458984375,0.0185546875,1.0048828125,-1.64794921875,-1.52587890625,-0.54931640625,1.0107421875,-2.669677734375,172.166748046875,-418.0,-1204.0,-1983.0,-0.068084716796875,-0.023834228515625,-0.0072021484375,-0.99737548828125,1.0104679404630055,-2.669693471347894,172.69430586880577,-0.06348626368311695,-0.02380877597172474,-0.007313465583127219,-0.9976718647588747,1
1782117313.293485,0.164,1024.0,1024.0,1023.0,1023.0,1023.0,1023.0,1024.0,1024.0,1022.0,1023.0,1024.0,1024.0,1023.0,1024.0,1023.0,1023.0,1023.0,1024.0,1024.0,1024.0,1024.0,1022.0,1024.0,1024.0,1023.0,1024.0,1024.0,1024.0,1024.0,1023.0,1023.0,1023.0,1023.0,1023.0,1024.0,1023.0,1024.0,1024.0,1023.0,1023.0,1023.0,1023.0,1023.0,1023.0,1023.0,1024.0,1024.0,1023.0,1023.0,1023.0,1022.0,1023.0,1023.0,1024.0,1024.0,1023.0,1024.0,1023.0,1023.0,1023.0,1022.0,1023.0,1023.0,1024.0,1024.0,1024.0,1024.0,1023.0,1023.0,1022.0,1022.0,1023.0,1023.0,1024.0,1024.0,1024.0,1024.0,1023.0,1023.0,1023.0,1023.0,1023.0,1023.0,1024.0,1024.0,1025.0,1024.0,1024.0,1024.0,1024.0,1023.0,1024.0,1024.0,1025.0,1024.0,1024.0,1024.0,1023.0,1023.0,1024.0,1023.0,1023.0,1024.0,1025.0,1024.0,1024.0,1025.0,1024.0,1024.0,1023.0,1022.0,1023.0,1023.0,1024.0,1022.0,1023.0,1023.0,1023.0,1023.0,1020.0,1022.0,1023.0,1024.0,1023.0,1024.0,1024.0,1023.0,1022.0,1022.0,1023.0,1024.0,1023.0,1023.0,1024.0,1023.0,1023.0,1023.0,1025.0,1024.0,1024.0,1025.0,1023.0,1024.0,1024.0,1024.0,1024.0,1024.0,1025.0,1024.0,1023.0,1024.0,1025.0,1025.0,1025.0,1026.0,1024.0,1024.0,1028.0,1026.0,1028.0,1028.0,1025.0,1026.0,1031.0,1029.0,1031.0,1029.0,1026.0,1030.0,1039.0,1034.0,1038.0,1034.0,1027.0,1033.0,1043.0,1041.0,1038.0,1040.0,1028.0,1039.0,1047.0,1039.0,1035.0,1040.0,1029.0,1045.0,1051.0,1042.0,1035.0,1041.0,1031.0,1045.0,1049.0,1041.0,1033.0,1042.0,1032.0,1042.0,1043.0,1036.0,1030.0,1038.0,1030.0,1043.0,1043.0,1038.0,1030.0,1038.0,1031.0,1024.0,1024.0,1023.0,1022.0,1024.0,1021.0,1042.0,1043.0,1040.0,1031.0,1042.0,1033.0,1035.0,1035.0,1035.0,1030.0,1037.0,1030.0,1030.0,1029.0,1029.0,1027.0,1030.0,2050,2026,1909,	00:30:06.073,0.05078125,0.064453125,1.01708984375,-0.06103515625,0.18310546875,0.0,3.6090087890625,-2.845458984375,44.3792724609375,474.0,-1616.0,-2555.0,0.924896240234375,0.038543701171875,-0.011077880859375,0.378082275390625,3.61134801905587,-2.8466113578071304,39.87856715602791,0.9390309439629745,0.038078165146203394,-0.01259597936062409,0.3414854036749595,1,	00:30:06.074,0.0458984375,0.01904296875,1.0048828125,-1.46484375,-1.52587890625,-0.54931640625,1.0711669921875,-2.6312255859375,172.15576171875,-419.0,-1205.0,-1981.0,-0.06817626953125,-0.023529052734375,-0.00775146484375,-0.99737548828125,1.070134534554993,-2.630708909699963,172.6851094786912,-0.06355759592665508,-0.02350305661141742,-0.007852796768689475,-0.9976704726074908,1
1782117313.303678,0.174,1024.0,1024.0,1023.0,1023.0,1023.0,1023.0,1023.0,1023.0,1023.0,1023.0,1024.0,1024.0,1023.0,1024.0,1023.0,1023.0,1023.0,1024.0,1024.0,1024.0,1024.0,1023.0,1024.0,1024.0,1024.0,1024.0,1024.0,1024.0,1024.0,1023.0,1023.0,1024.0,1023.0,1023.0,1024.0,1024.0,1024.0,1024.0,1023.0,1024.0,1022.0,1022.0,1023.0,1024.0,1023.0,1024.0,1024.0,1023.0,1023.0,1023.0,1023.0,1023.0,1023.0,1024.0,1024.0,1024.0,1024.0,1023.0,1023.0,1023.0,1023.0,1023.0,1023.0,1024.0,1024.0,1024.0,1024.0,1023.0,1023.0,1022.0,1023.0,1023.0,1023.0,1024.0,1024.0,1023.0,1024.0,1023.0,1024.0,1023.0,1022.0,1023.0,1023.0,1024.0,1024.0,1024.0,1024.0,1023.0,1024.0,1024.0,1023.0,1024.0,1023.0,1025.0,1024.0,1024.0,1024.0,1023.0,1024.0,1024.0,1023.0,1023.0,1023.0,1024.0,1024.0,1024.0,1024.0,1024.0,1024.0,1023.0,1023.0,1023.0,1023.0,1024.0,1022.0,1023.0,1024.0,1023.0,1023.0,1020.0,1022.0,1023.0,1024.0,1023.0,1023.0,1024.0,1023.0,1023.0,1022.0,1023.0,1024.0,1023.0,1024.0,1024.0,1023.0,1023.0,1024.0,1024.0,1024.0,1025.0,1024.0,1024.0,1024.0,1023.0,1024.0,1023.0,1024.0,1025.0,1024.0,1024.0,1024.0,1025.0,1024.0,1025.0,1025.0,1024.0,1024.0,1028.0,1026.0,1028.0,1028.0,1025.0,1026.0,1031.0,1028.0,1031.0,1029.0,1026.0,1029.0,1039.0,1034.0,1037.0,1034.0,1027.0,1033.0,1043.0,1041.0,1038.0,1040.0,1028.0,1039.0,1046.0,1039.0,1034.0,1041.0,1029.0,1045.0,1051.0,1041.0,1034.0,1041.0,1031.0,1046.0,1049.0,1041.0,1034.0,1042.0,1032.0,1042.0,1043.0,1036.0,1029.0,1038.0,1030.0,1042.0,1042.0,1038.0,1030.0,1038.0,1030.0,1024.0,1024.0,1023.0,1022.0,1023.0,1022.0,1042.0,1044.0,1039.0,1031.0,1041.0,1033.0,1035.0,1035.0,1035.0,1030.0,1037.0,1030.0,1029.0,1029.0,1028.0,1026.0,1029.0,2050,2026,1910,	00:30:06.083,0.05078125,0.06396484375,1.01708984375,-0.06103515625,0.18310546875,0.0,3.526611328125,-2.8839111328125,44.384765625,474.0,-1617.0,-2556.0,0.924896240234375,0.037994384765625,-0.01165771484375,0.37811279296875,3.527875711207455,-2.8841005803638033,39.88282474204559,0.9390346251402492,0.037505865727590626,-0.01315071958293072,0.3415177029059939,1,	00:30:06.084,0.04541015625,0.01904296875,1.00634765625,-1.28173828125,-1.52587890625,-0.54931640625,1.0821533203125,-2.559814453125,172.1502685546875,-417.0,-1204.0,-1983.0,-0.0682373046875,-0.022918701171875,-0.007904052734375,-0.99737548828125,1.0833573934402252,-2.557949265873448,172.67815136804387,-0.06362236952819023,-0.02287742160491003,-0.008007157441391105,-0.9976796595631477,1
1782117313.313955,0.185,1024.0,1024.0,1023.0,1023.0,1023.0,1023.0,1023.0,1023.0,1022.0,1023.0,1023.0,1024.0,1023.0,1024.0,1022.0,1024.0,1023.0,1024.0,1024.0,1024.0,1024.0,1023.0,1024.0,1024.0,1023.0,1024.0,1024.0,1024.0,1024.0,1023.0,1024.0,1024.0,1023.0,1023.0,1024.0,1023.0,1024.0,1024.0,1023.0,1023.0,1023.0,1023.0,1024.0,1024.0,1023.0,1023.0,1024.0,1023.0,1023.0,1023.0,1022.0,1023.0,1023.0,1024.0,1024.0,1024.0,1024.0,1023.0,1023.0,1024.0,1022.0,1023.0,1023.0,1024.0,1023.0,1023.0,1024.0,1023.0,1023.0,1023.0,1022.0,1023.0,1023.0,1024.0,1023.0,1024.0,1024.0,1023.0,1023.0,1023.0,1023.0,1024.0,1024.0,1024.0,1024.0,1024.0,1024.0,1023.0,1024.0,1024.0,1023.0,1023.0,1023.0,1025.0,1024.0,1024.0,1024.0,1024.0,1024.0,1024.0,1023.0,1023.0,1024.0,1024.0,1024.0,1024.0,1024.0,1023.0,1023.0,1023.0,1023.0,1023.0,1023.0,1024.0,1023.0,1023.0,1024.0,1023.0,1022.0,1020.0,1022.0,1023.0,1024.0,1023.0,1024.0,1024.0,1023.0,1023.0,1022.0,1023.0,1023.0,1024.0,1023.0,1024.0,1023.0,1023.0,1024.0,1025.0,1024.0,1024.0,1024.0,1024.0,1024.0,1023.0,1025.0,1024.0,1024.0,1025.0,1023.0,1023.0,1024.0,1025.0,1024.0,1026.0,1025.0,1024.0,1024.0,1028.0,1026.0,1028.0,1028.0,1025.0,1026.0,1031.0,1028.0,1031.0,1029.0,1026.0,1030.0,1039.0,1034.0,1037.0,1034.0,1027.0,1033.0,1044.0,1041.0,1038.0,1040.0,1028.0,1039.0,1047.0,1039.0,1034.0,1040.0,1029.0,1045.0,1051.0,1041.0,1034.0,1041.0,1031.0,1045.0,1050.0,1042.0,1033.0,1041.0,1032.0,1041.0,1043.0,1036.0,1029.0,1038.0,1031.0,1042.0,1043.0,1038.0,1030.0,1038.0,1031.0,1024.0,1024.0,1023.0,1023.0,1024.0,1022.0,1043.0,1044.0,1039.0,1032.0,1042.0,1033.0,1034.0,1036.0,1035.0,1030.0,1037.0,1030.0,1029.0,1029.0,1028.0,1026.0,1030.0,2051,2026,1909,	00:30:06.093,0.05126953125,0.064453125,1.01708984375,-0.1220703125,0.18310546875,0.06103515625,3.6199951171875,-2.87841796875,44.3792724609375,471.0,-1617.0,-2555.0,0.924896240234375,0.0386962890625,-0.011322021484375,0.37811279296875,3.6181606278385687,-2.878448212375837,39.87894593247174,0.9390180393092952,0.0382284977288123,-0.012836588718700956,0.34149513291288947,1,	00:30:06.094,0.04541015625,0.017578125,1.005859375,-1.15966796875,-1.46484375,-0.54931640625,0.9832763671875,-2.5982666015625,172.144775390625,-419.0,-1204.0,-1985.0,-0.068267822265625,-0.023223876953125,-0.00701904296875,-0.99737548828125,0.9847088485331047,-2.6007112241992445,172.6763098394923,-0.06365433791854277,-0.023195051275056586,-0.007124015828856508,-0.9976769834264844,1
1782117313.325907,0.197,1024.0,1024.0,1023.0,1023.0,1023.0,1023.0,1023.0,1024.0,1022.0,1024.0,1024.0,1024.0,1024.0,1024.0,1023.0,1024.0,1023.0,1024.0,1024.0,1023.0,1024.0,1023.0,1023.0,1024.0,1023.0,1024.0,1024.0,1024.0,1024.0,1023.0,1023.0,1024.0,1023.0,1024.0,1024.0,1023.0,1024.0,1024.0,1023.0,1022.0,1023.0,1022.0,1023.0,1024.0,1024.0,1024.0,1024.0,1023.0,1023.0,1023.0,1022.0,1023.0,1023.0,1024.0,1024.0,1024.0,1024.0,1023.0,1023.0,1023.0,1023.0,1024.0,1023.0,1024.0,1023.0,1023.0,1024.0,1023.0,1023.0,1022.0,1022.0,1023.0,1023.0,1024.0,1023.0,1024.0,1024.0,1023.0,1023.0,1023.0,1022.0,1024.0,1023.0,1024.0,1024.0,1024.0,1024.0,1023.0,1024.0,1024.0,1022.0,1024.0,1024.0,1025.0,1024.0,1024.0,1024.0,1024.0,1024.0,1023.0,1023.0,1023.0,1023.0,1025.0,1024.0,1024.0,1025.0,1023.0,1024.0,1023.0,1023.0,1023.0,1023.0,1024.0,1023.0,1024.0,1024.0,1023.0,1023.0,1020.0,1022.0,1023.0,1024.0,1023.0,1024.0,1023.0,1024.0,1023.0,1022.0,1023.0,1024.0,1023.0,1024.0,1024.0,1023.0,1023.0,1024.0,1025.0,1024.0,1024.0,1024.0,1023.0,1023.0,1024.0,1025.0,1024.0,1024.0,1024.0,1024.0,1024.0,1024.0,1025.0,1024.0,1025.0,1025.0,1024.0,1025.0,1027.0,1026.0,1028.0,1028.0,1025.0,1026.0,1031.0,1028.0,1030.0,1029.0,1026.0,1029.0,1039.0,1033.0,1037.0,1034.0,1027.0,1034.0,1044.0,1040.0,1037.0,1040.0,1028.0,1038.0,1048.0,1039.0,1034.0,1040.0,1030.0,1044.0,1052.0,1041.0,1034.0,1041.0,1031.0,1045.0,1051.0,1041.0,1033.0,1042.0,1032.0,1042.0,1044.0,1036.0,1030.0,1038.0,1031.0,1042.0,1043.0,1037.0,1030.0,1038.0,1031.0,1024.0,1024.0,1023.0,1023.0,1024.0,1022.0,1042.0,1044.0,1039.0,1032.0,1040.0,1034.0,1035.0,1036.0,1035.0,1030.0,1036.0,1030.0,1029.0,1029.0,1028.0,1026.0,1029.0,2050,2026,1910,	00:30:06.104,0.05126953125,0.06494140625,1.01708984375,-0.18310546875,0.18310546875,0.06103515625,3.7078857421875,-2.87841796875,44.373779296875,473.0,-1620.0,-2557.0,0.92486572265625,0.0394287109375,-0.01104736328125,0.378082275390625,3.7078088775706664,-2.88035741102453,39.87507433896589,0.9389988052266878,0.038968345691159215,-0.012586393629305333,0.34147370984067815,1,	00:30:06.105,0.044921875,0.017578125,1.00634765625,-1.0986328125,-1.52587890625,-0.54931640625,1.0052490234375,-2.52685546875,172.1392822265625,-418.0,-1204.0,-1985.0,-0.068328857421875,-0.022613525390625,-0.007232666015625,-0.99737548828125,1.0045362127418813,-2.529494834365256,172.66917512425366,-0.06371876563592976,-0.02258649714021184,-0.007335036672012862,-0.997685304236656,1
1782117313.335077,0.206,1024.0,1024.0,1023.0,1023.0,1023.0,1023.0,1023.0,1024.0,1022.0,1023.0,1024.0,1024.0,1023.0,1023.0,1023.0,1023.0,1023.0,1024.0,1024.0,1024.0,1024.0,1023.0,1023.0,1024.0,1023.0,1024.0,1024.0,1024.0,1024.0,1023.0,1023.0,1024.0,1023.0,1023.0,1024.0,1024.0,1024.0,1024.0,1023.0,1023.0,1022.0,1023.0,1023.0,1024.0,1024.0,1023.0,1024.0,1023.0,1024.0,1023.0,1023.0,1024.0,1023.0,1024.0,1023.0,1024.0,1024.0,1023.0,1023.0,1024.0,1023.0,1024.0,1024.0,1024.0,1023.0,1024.0,1024.0,1023.0,1023.0,1022.0,1022.0,1023.0,1023.0,1024.0,1024.0,1024.0,1024.0,1023.0,1022.0,1022.0,1023.0,1023.0,1024.0,1024.0,1024.0,1024.0,1024.0,1024.0,1024.0,1024.0,1023.0,1023.0,1024.0,1025.0,1024.0,1024.0,1024.0,1024.0,1024.0,1024.0,1022.0,1023.0,1024.0,1024.0,1024.0,1024.0,1024.0,1023.0,1023.0,1023.0,1023.0,1023.0,1023.0,1023.0,1022.0,1024.0,1024.0,1023.0,1023.0,1021.0,1022.0,1023.0,1024.0,1023.0,1023.0,1024.0,1023.0,1023.0,1021.0,1023.0,1023.0,1024.0,1024.0,1024.0,1023.0,1022.0,1024.0,1024.0,1024.0,1024.0,1025.0,1023.0,1024.0,1024.0,1025.0,1024.0,1024.0,1025.0,1024.0,1023.0,1024.0,1025.0,1024.0,1025.0,1026.0,1024.0,1025.0,1027.0,1026.0,1028.0,1028.0,1025.0,1026.0,1031.0,1028.0,1031.0,1029.0,1026.0,1029.0,1039.0,1034.0,1038.0,1034.0,1027.0,1033.0,1044.0,1040.0,1038.0,1039.0,1028.0,1039.0,1047.0,1039.0,1034.0,1040.0,1030.0,1045.0,1052.0,1042.0,1034.0,1041.0,1032.0,1046.0,1050.0,1041.0,1033.0,1042.0,1033.0,1041.0,1043.0,1036.0,1030.0,1038.0,1031.0,1043.0,1043.0,1037.0,1030.0,1038.0,1031.0,1024.0,1024.0,1023.0,1023.0,1024.0,1022.0,1042.0,1044.0,1039.0,1031.0,1041.0,1035.0,1035.0,1035.0,1035.0,1030.0,1036.0,1031.0,1029.0,1029.0,1028.0,1026.0,1030.0,2050,2026,1909,	00:30:06.114,0.05029296875,0.06298828125,1.01708984375,-0.244140625,0.18310546875,0.1220703125,3.6199951171875,-2.8509521484375,44.3792724609375,473.0,-1617.0,-2557.0,0.924896240234375,0.038604736328125,-0.011077880859375,0.37811279296875,3.618524236970529,-2.849559034840545,39.880749238937064,0.9390211771283248,0.03814595736747333,-0.012598036363755697,0.3415046183008829,1,	00:30:06.115,0.04541015625,0.017578125,1.00634765625,-1.03759765625,-1.46484375,-0.54931640625,0.98876953125,-2.63671875,172.1337890625,-419.0,-1206.0,-1986.0,-0.068359375,-0.023529052734375,-0.00701904296875,-0.997344970703125,0.9878964897444708,-2.6353992815119183,172.6637236135579,-0.06376022662698212,-0.023499603724646302,-0.007129800409677846,-0.9976630533759274,1
1782117313.345006,0.216,1024.0,1024.0,1024.0,1023.0,1023.0,1023.0,1023.0,1023.0,1022.0,1024.0,1024.0,1024.0,1024.0,1024.0,1023.0,1023.0,1023.0,1024.0,1024.0,1024.0,1024.0,1023.0,1023.0,1024.0,1023.0,1024.0,1024.0,1024.0,1024.0,1023.0,1023.0,1024.0,1022.0,1023.0,1024.0,1023.0,1024.0,1024.0,1023.0,1023.0,1023.0,1022.0,1023.0,1024.0,1024.0,1024.0,1024.0,1023.0,1023.0,1023.0,1022.0,1023.0,1023.0,1024.0,1024.0,1024.0,1024.0,1023.0,1023.0,1023.0,1022.0,1023.0,1023.0,1024.0,1023.0,1024.0,1024.0,1023.0,1023.0,1022.0,1022.0,1022.0,1023.0,1024.0,1023.0,1023.0,1024.0,1023.0,1023.0,1023.0,1022.0,1024.0,1024.0,1024.0,1024.0,1024.0,1024.0,1023.0,1024.0,1024.0,1022.0,1023.0,1023.0,1025.0,1024.0,1024.0,1025.0,1024.0,1024.0,1024.0,1023.0,1023.0,1023.0,1024.0,1024.0,1025.0,1024.0,1023.0,1023.0,1023.0,1023.0,1024.0,1022.0,1024.0,1023.0,1024.0,1024.0,1023.0,1022.0,1020.0,1022.0,1023.0,1024.0,1023.0,1023.0,1024.0,1023.0,1023.0,1022.0,1023.0,1024.0,1023.0,1024.0,1024.0,1023.0,1023.0,1024.0,1025.0,1024.0,1024.0,1024.0,1024.0,1024.0,1024.0,1025.0,1024.0,1025.0,1025.0,1024.0,1024.0,1024.0,1025.0,1024.0,1025.0,1025.0,1024.0,1025.0,1027.0,1026.0,1028.0,1028.0,1025.0,1026.0,1031.0,1028.0,1031.0,1029.0,1026.0,1029.0,1040.0,1033.0,1037.0,1034.0,1027.0,1033.0,1043.0,1040.0,1038.0,1040.0,1029.0,1039.0,1047.0,1039.0,1034.0,1040.0,1029.0,1045.0,1052.0,1042.0,1034.0,1041.0,1032.0,1045.0,1050.0,1041.0,1033.0,1042.0,1033.0,1041.0,1043.0,1036.0,1030.0,1038.0,1032.0,1042.0,1042.0,1037.0,1030.0,1038.0,1031.0,1024.0,1024.0,1023.0,1023.0,1023.0,1022.0,1042.0,1043.0,1039.0,1032.0,1042.0,1035.0,1035.0,1035.0,1034.0,1029.0,1037.0,1032.0,1029.0,1028.0,1028.0,1027.0,1030.0,2050,2026,1909,	00:30:06.124,0.0517578125,0.064453125,1.01708984375,-0.18310546875,0.18310546875,0.06103515625,3.6309814453125,-2.9388427734375,44.3792724609375,472.0,-1616.0,-2561.0,0.92486572265625,0.038970947265625,-0.01177978515625,0.37811279296875,3.62838901367976,-2.938536084935171,39.88088391920345,0.9389906844681886,0.03849081848607205,-0.013298125594454339,0.341523222094646,1,	00:30:06.125,0.04443359375,0.01904296875,1.005859375,-1.03759765625,-1.46484375,-0.54931640625,1.0382080078125,-2.581787109375,172.122802734375,-419.0,-1206.0,-1985.0,-0.068450927734375,-0.023101806640625,-0.00750732421875,-0.997344970703125,1.0394333165445808,-2.582073015711056,172.65516186983936,-0.06382908149827292,-0.02306458499148722,-0.007606628469560756,-0.997665280781878,1
1782117313.355112,0.226,1024.0,1024.0,1023.0,1023.0,1023.0,1023.0,1023.0,1024.0,1023.0,1023.0,1023.0,1024.0,1024.0,1024.0,1023.0,1023.0,1023.0,1024.0,1024.0,1023.0,1024.0,1023.0,1023.0,1024.0,1023.0,1024.0,1024.0,1024.0,1024.0,1023.0,1023.0,1024.0,1023.0,1023.0,1024.0,1024.0,1024.0,1024.0,1023.0,1023.0,1023.0,1023.0,1023.0,1024.0,1023.0,1024.0,1024.0,1023.0,1023.0,1022.0,1022.0,1023.0,1024.0,1024.0,1023.0,1024.0,1024.0,1023.0,1024.0,1023.0,1022.0,1023.0,1023.0,1024.0,1023.0,1024.0,1024.0,1023.0,1023.0,1022.0,1022.0,1024.0,1023.0,1024.0,1024.0,1024.0,1024.0,1024.0,1023.0,1023.0,1022.0,1023.0,1024.0,1024.0,1024.0,1024.0,1024.0,1024.0,1024.0,1024.0,1024.0,1024.0,1023.0,1024.0,1024.0,1024.0,1024.0,1024.0,1024.0,1024.0,1023.0,1023.0,1024.0,1025.0,1024.0,1024.0,1025.0,1024.0,1023.0,1024.0,1023.0,1023.0,1023.0,1024.0,1023.0,1023.0,1024.0,1023.0,1022.0,1020.0,1022.0,1023.0,1024.0,1023.0,1024.0,1024.0,1024.0,1022.0,1022.0,1023.0,1024.0,1023.0,1024.0,1024.0,1024.0,1023.0,1024.0,1025.0,1024.0,1024.0,1025.0,1024.0,1024.0,1023.0,1025.0,1024.0,1024.0,1025.0,1024.0,1024.0,1023.0,1025.0,1024.0,1025.0,1026.0,1024.0,1025.0,1027.0,1026.0,1028.0,1027.0,1025.0,1026.0,1031.0,1028.0,1030.0,1029.0,1026.0,1029.0,1039.0,1034.0,1037.0,1034.0,1028.0,1033.0,1044.0,1040.0,1038.0,1040.0,1028.0,1038.0,1047.0,1040.0,1034.0,1040.0,1030.0,1045.0,1052.0,1043.0,1034.0,1041.0,1032.0,1046.0,1050.0,1041.0,1033.0,1042.0,1033.0,1041.0,1043.0,1036.0,1030.0,1037.0,1031.0,1042.0,1042.0,1037.0,1030.0,1039.0,1032.0,1024.0,1023.0,1022.0,1022.0,1024.0,1022.0,1042.0,1044.0,1039.0,1031.0,1041.0,1034.0,1034.0,1035.0,1035.0,1030.0,1037.0,1031.0,1029.0,1029.0,1028.0,1027.0,1029.0,2050,2026,1909,	00:30:06.134,0.05078125,0.06396484375,1.01708984375,-0.18310546875,0.18310546875,0.06103515625,3.5980224609375,-2.8509521484375,44.384765625,472.0,-1616.0,-2555.0,0.924896240234375,0.038421630859375,-0.01116943359375,0.37811279296875,3.5965385168822865,-2.8503274938160947,39.88312245809579,0.939021177354158,0.0379683372459173,-0.012669072182912498,0.3415217832836075,1,	00:30:06.135,0.0458984375,0.0185546875,1.00634765625,-0.9765625,-1.46484375,-0.54931640625,1.07666015625,-2.6751708984375,172.1173095703125,-419.0,-1209.0,-1981.0,-0.0684814453125,-0.02392578125,-0.00775146484375,-0.997344970703125,1.0760909993411725,-2.675723672437872,172.64728864487674,-0.06388138732174697,-0.023900859646474013,-0.007871631264148762,-0.9976401929970795,1
1782117313.364469,0.235,1024.0,1024.0,1023.0,1023.0,1023.0,1022.0,1022.0,1023.0,1023.0,1023.0,1024.0,1023.0,1024.0,1024.0,1023.0,1023.0,1023.0,1024.0,1023.0,1024.0,1024.0,1023.0,1023.0,1023.0,1023.0,1024.0,1024.0,1024.0,1024.0,1023.0,1023.0,1024.0,1023.0,1023.0,1024.0,1023.0,1024.0,1024.0,1023.0,1023.0,1023.0,1022.0,1023.0,1024.0,1023.0,1024.0,1024.0,1023.0,1023.0,1023.0,1022.0,1023.0,1023.0,1024.0,1024.0,1024.0,1024.0,1024.0,1023.0,1023.0,1023.0,1023.0,1023.0,1024.0,1023.0,1024.0,1024.0,1023.0,1023.0,1022.0,1022.0,1023.0,1023.0,1024.0,1023.0,1024.0,1024.0,1024.0,1023.0,1022.0,1022.0,1023.0,1024.0,1024.0,1024.0,1024.0,1024.0,1024.0,1024.0,1024.0,1023.0,1023.0,1024.0,1025.0,1024.0,1024.0,1024.0,1024.0,1024.0,1023.0,1023.0,1023.0,1024.0,1024.0,1024.0,1024.0,1025.0,1024.0,1024.0,1023.0,1023.0,1023.0,1023.0,1024.0,1023.0,1023.0,1024.0,1023.0,1022.0,1020.0,1021.0,1023.0,1024.0,1023.0,1023.0,1024.0,1023.0,1023.0,1022.0,1023.0,1024.0,1023.0,1023.0,1024.0,1023.0,1023.0,1024.0,1024.0,1024.0,1024.0,1024.0,1024.0,1024.0,1024.0,1025.0,1024.0,1024.0,1025.0,1023.0,1024.0,1024.0,1025.0,1025.0,1026.0,1026.0,1024.0,1024.0,1027.0,1026.0,1029.0,1028.0,1026.0,1026.0,1030.0,1028.0,1030.0,1029.0,1026.0,1030.0,1040.0,1034.0,1037.0,1034.0,1027.0,1033.0,1044.0,1040.0,1038.0,1040.0,1028.0,1038.0,1047.0,1040.0,1034.0,1041.0,1029.0,1045.0,1052.0,1042.0,1034.0,1042.0,1032.0,1045.0,1050.0,1042.0,1034.0,1042.0,1032.0,1041.0,1043.0,1036.0,1029.0,1038.0,1031.0,1042.0,1042.0,1037.0,1030.0,1038.0,1032.0,1024.0,1024.0,1023.0,1022.0,1024.0,1022.0,1043.0,1044.0,1039.0,1032.0,1042.0,1034.0,1035.0,1035.0,1035.0,1030.0,1037.0,1032.0,1029.0,1029.0,1028.0,1026.0,1030.0,2050,2026,1909,	00:30:06.145,0.05078125,0.06494140625,1.01611328125,-0.18310546875,0.18310546875,0.06103515625,3.6859130859375,-2.8564453125,44.3792724609375,473.0,-1617.0,-2556.0,0.92486572265625,0.0391845703125,-0.01092529296875,0.37811279296875,3.685951409028563,-2.8559319865408925,39.87930387695055,0.9390009659778179,0.03871723538896478,-0.012449829004362964,0.34150133723650744,1,	00:30:06.146,0.0458984375,0.0185546875,1.00537109375,-0.9765625,-1.46484375,-0.54931640625,1.0382080078125,-2.603759765625,172.11181640625,-418.0,-1210.0,-1985.0,-0.06854248046875,-0.023284912109375,-0.007476806640625,-0.997344970703125,1.0401347358525859,-2.6026036344082843,172.64272713238807,-0.0639353176693506,-0.023244540467789437,-0.007598703848422512,-0.9976543620877847,1
1782117313.374758,0.245,1024.0,1024.0,1023.0,1023.0,1023.0,1023.0,1022.0,1024.0,1022.0,1023.0,1024.0,1023.0,1024.0,1024.0,1023.0,1023.0,1023.0,1023.0,1024.0,1024.0,1024.0,1023.0,1024.0,1024.0,1023.0,1024.0,1024.0,1024.0,1024.0,1024.0,1023.0,1024.0,1023.0,1023.0,1024.0,1023.0,1024.0,1024.0,1023.0,1023.0,1023.0,1022.0,1023.0,1024.0,1023.0,1024.0,1023.0,1023.0,1023.0,1022.0,1022.0,1023.0,1023.0,1024.0,1023.0,1024.0,1024.0,1023.0,1023.0,1023.0,1023.0,1023.0,1023.0,1024.0,1023.0,1024.0,1024.0,1023.0,1023.0,1023.0,1022.0,1023.0,1023.0,1023.0,1023.0,1024.0,1024.0,1024.0,1023.0,1023.0,1022.0,1024.0,1023.0,1024.0,1024.0,1024.0,1025.0,1024.0,1024.0,1024.0,1023.0,1024.0,1024.0,1025.0,1024.0,1024.0,1025.0,1024.0,1024.0,1024.0,1023.0,1023.0,1023.0,1025.0,1024.0,1024.0,1024.0,1024.0,1024.0,1023.0,1022.0,1024.0,1022.0,1024.0,1022.0,1023.0,1024.0,1023.0,1022.0,1021.0,1022.0,1023.0,1024.0,1023.0,1024.0,1024.0,1023.0,1022.0,1022.0,1023.0,1024.0,1024.0,1024.0,1024.0,1023.0,1023.0,1024.0,1025.0,1025.0,1024.0,1025.0,1024.0,1024.0,1023.0,1025.0,1024.0,1024.0,1024.0,1023.0,1023.0,1024.0,1025.0,1024.0,1025.0,1026.0,1024.0,1024.0,1027.0,1026.0,1028.0,1028.0,1025.0,1026.0,1031.0,1028.0,1031.0,1030.0,1026.0,1029.0,1039.0,1033.0,1038.0,1035.0,1028.0,1033.0,1044.0,1040.0,1038.0,1040.0,1028.0,1038.0,1047.0,1039.0,1034.0,1041.0,1030.0,1045.0,1052.0,1042.0,1035.0,1041.0,1032.0,1045.0,1050.0,1042.0,1033.0,1042.0,1033.0,1042.0,1043.0,1037.0,1030.0,1038.0,1031.0,1042.0,1042.0,1037.0,1030.0,1038.0,1031.0,1024.0,1023.0,1023.0,1023.0,1024.0,1022.0,1042.0,1043.0,1039.0,1032.0,1042.0,1034.0,1034.0,1035.0,1035.0,1030.0,1037.0,1031.0,1030.0,1029.0,1028.0,1026.0,1029.0,2050,2026,1910,	00:30:06.155,0.05126953125,0.06494140625,1.017578125,-0.18310546875,0.18310546875,0.06103515625,3.6090087890625,-2.9058837890625,44.384765625,472.0,-1616.0,-2557.0,0.92486572265625,0.0386962890625,-0.011566162109375,0.378143310546875,3.607447609053428,-2.904544092987703,39.88388325548378,0.9389990520810481,0.03821870237757509,-0.013080833314955671,0.3415391672696613,1,	00:30:06.156,0.0458984375,0.01904296875,1.00634765625,-0.9765625,-1.46484375,-0.54931640625,1.12060546875,-2.63671875,172.100830078125,-417.0,-1206.0,-1984.0,-0.068603515625,-0.023590087890625,-0.0081787109375,-0.997344970703125,1.1207640551848694,-2.6342098807614565,172.63284812854724,-0.06400185791335548,-0.023565394365482963,-0.00828089096638375,-0.9976371390524916,1
1782117313.386056,0.257,1024.0,1023.0,1023.0,1023.0,1024.0,1023.0,1023.0,1023.0,1023.0,1024.0,1023.0,1023.0,1024.0,1024.0,1023.0,1023.0,1023.0,1024.0,1024.0,1024.0,1024.0,1024.0,1023.0,1023.0,1023.0,1024.0,1024.0,1024.0,1024.0,1023.0,1023.0,1024.0,1023.0,1023.0,1024.0,1024.0,1023.0,1024.0,1024.0,1023.0,1023.0,1023.0,1023.0,1024.0,1024.0,1024.0,1024.0,1023.0,1023.0,1022.0,1023.0,1023.0,1023.0,1024.0,1024.0,1024.0,1024.0,1023.0,1023.0,1023.0,1023.0,1024.0,1023.0,1024.0,1024.0,1024.0,1024.0,1023.0,1023.0,1022.0,1023.0,1023.0,1023.0,1024.0,1023.0,1024.0,1024.0,1023.0,1023.0,1023.0,1022.0,1023.0,1024.0,1024.0,1024.0,1024.0,1025.0,1023.0,1024.0,1024.0,1023.0,1024.0,1023.0,1024.0,1024.0,1024.0,1024.0,1024.0,1024.0,1024.0,1023.0,1024.0,1023.0,1024.0,1024.0,1024.0,1024.0,1023.0,1023.0,1023.0,1022.0,1023.0,1023.0,1024.0,1023.0,1023.0,1024.0,1023.0,1022.0,1021.0,1022.0,1023.0,1024.0,1023.0,1023.0,1024.0,1023.0,1022.0,1022.0,1023.0,1024.0,1023.0,1024.0,1024.0,1023.0,1023.0,1024.0,1025.0,1024.0,1024.0,1025.0,1024.0,1024.0,1024.0,1024.0,1024.0,1025.0,1024.0,1024.0,1024.0,1023.0,1025.0,1025.0,1026.0,1025.0,1024.0,1024.0,1027.0,1026.0,1028.0,1028.0,1025.0,1026.0,1031.0,1028.0,1031.0,1029.0,1026.0,1029.0,1040.0,1034.0,1037.0,1034.0,1028.0,1033.0,1044.0,1040.0,1038.0,1039.0,1029.0,1038.0,1047.0,1039.0,1035.0,1040.0,1030.0,1045.0,1052.0,1042.0,1034.0,1042.0,1032.0,1046.0,1050.0,1041.0,1033.0,1042.0,1033.0,1041.0,1043.0,1037.0,1030.0,1038.0,1031.0,1043.0,1042.0,1037.0,1030.0,1038.0,1031.0,1024.0,1023.0,1023.0,1023.0,1024.0,1022.0,1042.0,1045.0,1039.0,1031.0,1042.0,1035.0,1035.0,1035.0,1035.0,1030.0,1037.0,1032.0,1030.0,1029.0,1028.0,1026.0,1030.0,2050,2026,1909,	00:30:06.165,0.05126953125,0.06396484375,1.01708984375,-0.244140625,0.18310546875,0.06103515625,3.5760498046875,-2.8179931640625,44.384765625,472.0,-1615.0,-2557.0,0.924896240234375,0.03814697265625,-0.010955810546875,0.378143310546875,3.5738857881083987,-2.816723681073441,39.88615796083856,0.9390295480085636,0.03768331459179153,-0.012460062037434256,0.34153802514834575,1,	00:30:06.166,0.0458984375,0.01904296875,1.00732421875,-0.91552734375,-1.46484375,-0.54931640625,1.0382080078125,-2.5982666015625,172.100830078125,-419.0,-1206.0,-1985.0,-0.06866455078125,-0.023223876953125,-0.0074462890625,-0.997344970703125,1.0362147987391332,-2.597007389247918,172.6305130388876,-0.06404296227676623,-0.0231944392050222,-0.007565246391534703,-0.9976488781228678,1
1782117313.395820,0.266,1024.0,1023.0,1023.0,1023.0,1023.0,1022.0,1023.0,1023.0,1022.0,1023.0,1024.0,1024.0,1023.0,1024.0,1023.0,1023.0,1023.0,1024.0,1024.0,1023.0,1024.0,1023.0,1024.0,1023.0,1023.0,1024.0,1024.0,1024.0,1024.0,1023.0,1024.0,1024.0,1023.0,1023.0,1024.0,1023.0,1023.0,1024.0,1023.0,1023.0,1023.0,1023.0,1023.0,1024.0,1023.0,1024.0,1024.0,1023.0,1023.0,1022.0,1022.0,1023.0,1023.0,1024.0,1024.0,1024.0,1024.0,1023.0,1023.0,1023.0,1022.0,1023.0,1023.0,1024.0,1023.0,1024.0,1024.0,1023.0,1023.0,1022.0,1021.0,1023.0,1023.0,1024.0,1024.0,1024.0,1024.0,1023.0,1023.0,1023.0,1023.0,1023.0,1023.0,1024.0,1024.0,1024.0,1024.0,1023.0,1024.0,1024.0,1023.0,1024.0,1023.0,1024.0,1024.0,1024.0,1025.0,1024.0,1024.0,1024.0,1023.0,1023.0,1024.0,1024.0,1024.0,1024.0,1024.0,1024.0,1024.0,1023.0,1023.0,1023.0,1023.0,1024.0,1022.0,1024.0,1024.0,1023.0,1022.0,1021.0,1022.0,1023.0,1024.0,1023.0,1024.0,1024.0,1023.0,1023.0,1022.0,1023.0,1024.0,1023.0,1024.0,1024.0,1023.0,1023.0,1023.0,1025.0,1024.0,1025.0,1025.0,1024.0,1024.0,1024.0,1025.0,1024.0,1025.0,1024.0,1023.0,1024.0,1023.0,1025.0,1024.0,1025.0,1026.0,1024.0,1024.0,1027.0,1026.0,1028.0,1028.0,1026.0,1026.0,1031.0,1028.0,1031.0,1029.0,1026.0,1029.0,1040.0,1034.0,1037.0,1035.0,1027.0,1033.0,1044.0,1040.0,1037.0,1039.0,1028.0,1038.0,1048.0,1039.0,1034.0,1040.0,1029.0,1045.0,1052.0,1042.0,1034.0,1042.0,1032.0,1045.0,1050.0,1041.0,1034.0,1042.0,1032.0,1042.0,1043.0,1036.0,1030.0,1038.0,1031.0,1043.0,1042.0,1037.0,1030.0,1038.0,1031.0,1024.0,1024.0,1023.0,1023.0,1024.0,1022.0,1043.0,1044.0,1039.0,1032.0,1042.0,1035.0,1034.0,1036.0,1035.0,1030.0,1037.0,1031.0,1029.0,1029.0,1028.0,1026.0,1030.0,2050,2026,1910,	00:30:06.176,0.05029296875,0.06494140625,1.017578125,-0.244140625,0.1220703125,0.06103515625,3.6639404296875,-2.823486328125,44.384765625,472.0,-1616.0,-2557.0,0.92486572265625,0.03887939453125,-0.0107421875,0.37811279296875,3.662614452796786,-2.823796280857538,39.88235667421813,0.9390093180945095,0.038430979873045765,-0.012254867244103235,0.34151775729310374,1,	00:30:06.177,0.04541015625,0.0185546875,1.0068359375,-0.91552734375,-1.40380859375,-0.6103515625,1.0986328125,-2.5543212890625,172.08984375,-419.0,-1205.0,-1984.0,-0.0687255859375,-0.02288818359375,-0.008026123046875,-0.997344970703125,1.1000307249839303,-2.554980892754136,172.62088010366503,-0.06411794324478098,-0.022864907847801326,-0.008142554521889434,-0.9976471240619242,1
1782117313.406338,0.277,1024.0,1024.0,1023.0,1023.0,1023.0,1023.0,1023.0,1023.0,1023.0,1023.0,1024.0,1024.0,1024.0,1024.0,1023.0,1023.0,1024.0,1024.0,1023.0,1024.0,1024.0,1023.0,1024.0,1024.0,1023.0,1024.0,1024.0,1024.0,1024.0,1023.0,1023.0,1024.0,1022.0,1023.0,1024.0,1023.0,1024.0,1024.0,1023.0,1023.0,1023.0,1023.0,1023.0,1024.0,1024.0,1024.0,1024.0,1023.0,1023.0,1023.0,1022.0,1024.0,1024.0,1024.0,1024.0,1024.0,1024.0,1023.0,1023.0,1023.0,1023.0,1023.0,1023.0,1024.0,1023.0,1024.0,1024.0,1024.0,1023.0,1023.0,1022.0,1023.0,1023.0,1024.0,1024.0,1024.0,1024.0,1023.0,1023.0,1023.0,1022.0,1023.0,1024.0,1025.0,1024.0,1024.0,1024.0,1024.0,1024.0,1024.0,1023.0,1024.0,1023.0,1025.0,1024.0,1024.0,1025.0,1024.0,1024.0,1024.0,1023.0,1024.0,1023.0,1025.0,1024.0,1024.0,1024.0,1024.0,1024.0,1023.0,1023.0,1023.0,1023.0,1024.0,1023.0,1024.0,1024.0,1023.0,1023.0,1020.0,1023.0,1023.0,1024.0,1023.0,1023.0,1024.0,1023.0,1022.0,1022.0,1024.0,1024.0,1023.0,1024.0,1024.0,1023.0,1023.0,1023.0,1025.0,1024.0,1024.0,1025.0,1023.0,1024.0,1024.0,1025.0,1024.0,1024.0,1025.0,1024.0,1023.0,1024.0,1025.0,1024.0,1025.0,1026.0,1024.0,1025.0,1027.0,1026.0,1028.0,1028.0,1025.0,1026.0,1031.0,1028.0,1030.0,1029.0,1026.0,1029.0,1040.0,1034.0,1037.0,1034.0,1027.0,1033.0,1044.0,1040.0,1038.0,1039.0,1028.0,1038.0,1048.0,1039.0,1035.0,1041.0,1030.0,1046.0,1052.0,1042.0,1035.0,1042.0,1031.0,1046.0,1050.0,1041.0,1034.0,1042.0,1033.0,1041.0,1043.0,1036.0,1030.0,1038.0,1031.0,1042.0,1043.0,1037.0,1030.0,1038.0,1032.0,1024.0,1024.0,1022.0,1023.0,1024.0,1022.0,1043.0,1044.0,1039.0,1031.0,1042.0,1035.0,1035.0,1036.0,1035.0,1030.0,1037.0,1032.0,1029.0,1029.0,1029.0,1026.0,1029.0,2049,2026,1909,	00:30:06.186,0.05029296875,0.06298828125,1.0166015625,-0.18310546875,0.18310546875,0.06103515625,3.570556640625,-2.823486328125,44.3902587890625,472.0,-1617.0,-2560.0,0.924896240234375,0.038116455078125,-0.01104736328125,0.378143310546875,3.5691677380053135,-2.824354062730743,39.88759576269224,0.93902456643956,0.037667455697702946,-0.012536214074926407,0.34155068400008454,1,	00:30:06.187,0.04443359375,0.0185546875,1.0068359375,-0.8544921875,-1.46484375,-0.54931640625,1.0162353515625,-2.5213623046875,172.08984375,-419.0,-1205.0,-1982.0,-0.068756103515625,-0.022552490234375,-0.00732421875,-0.997344970703125,1.0146521624349536,-2.519928699843779,172.61851127730282,-0.0641587228806151,-0.022512119170918384,-0.0074185097954562575,-0.9976581721617769,1
1782117313.416217,0.287,1024.0,1024.0,1023.0,1023.0,1023.0,1023.0,1023.0,1023.0,1023.0,1024.0,1024.0,1024.0,1024.0,1024.0,1023.0,1023.0,1023.0,1024.0,1023.0,1024.0,1024.0,1023.0,1023.0,1024.0,1023.0,1024.0,1023.0,1024.0,1024.0,1023.0,1023.0,1024.0,1022.0,1023.0,1024.0,1024.0,1024.0,1024.0,1023.0,1023.0,1023.0,1023.0,1023.0,1024.0,1023.0,1023.0,1024.0,1023.0,1023.0,1023.0,1022.0,1023.0,1024.0,1024.0,1024.0,1024.0,1024.0,1023.0,1023.0,1023.0,1023.0,1023.0,1022.0,1024.0,1023.0,1023.0,1024.0,1023.0,1023.0,1022.0,1022.0,1023.0,1023.0,1024.0,1023.0,1023.0,1024.0,1023.0,1023.0,1023.0,1022.0,1023.0,1023.0,1024.0,1024.0,1024.0,1024.0,1024.0,1024.0,1025.0,1023.0,1023.0,1023.0,1025.0,1024.0,1024.0,1025.0,1024.0,1024.0,1023.0,1022.0,1024.0,1023.0,1025.0,1024.0,1024.0,1024.0,1023.0,1024.0,1023.0,1022.0,1023.0,1022.0,1024.0,1023.0,1024.0,1024.0,1022.0,1023.0,1021.0,1022.0,1022.0,1024.0,1023.0,1024.0,1024.0,1023.0,1023.0,1022.0,1023.0,1024.0,1023.0,1024.0,1024.0,1024.0,1023.0,1024.0,1024.0,1024.0,1025.0,1025.0,1023.0,1024.0,1024.0,1024.0,1024.0,1025.0,1024.0,1024.0,1024.0,1024.0,1025.0,1024.0,1025.0,1025.0,1024.0,1025.0,1027.0,1027.0,1028.0,1028.0,1026.0,1026.0,1031.0,1028.0,1031.0,1029.0,1026.0,1029.0,1040.0,1034.0,1037.0,1034.0,1027.0,1033.0,1043.0,1040.0,1038.0,1040.0,1028.0,1038.0,1048.0,1039.0,1035.0,1041.0,1030.0,1045.0,1052.0,1042.0,1034.0,1042.0,1032.0,1045.0,1050.0,1041.0,1034.0,1042.0,1033.0,1041.0,1044.0,1036.0,1030.0,1039.0,1032.0,1042.0,1043.0,1037.0,1030.0,1038.0,1031.0,1024.0,1024.0,1023.0,1023.0,1024.0,1022.0,1042.0,1044.0,1039.0,1032.0,1042.0,1035.0,1034.0,1036.0,1035.0,1030.0,1038.0,1032.0,1029.0,1029.0,1028.0,1026.0,1030.0,2049,2026,1909,	00:30:06.196,0.05078125,0.064453125,1.01708984375,-0.244140625,0.18310546875,0.06103515625,3.6474609375,-2.8619384765625,44.384765625,472.0,-1617.0,-2555.0,0.92486572265625,0.038909912109375,-0.0111083984375,0.378143310546875,3.648624803338898,-2.8632577833046984,39.88425556949481,0.9389965775234238,0.03843364855105285,-0.012619472240254543,0.3415392085525881,1,	00:30:06.197,0.0458984375,0.01806640625,1.005859375,-0.79345703125,-1.40380859375,-0.54931640625,1.021728515625,-2.625732421875,172.0843505859375,-419.0,-1206.0,-1983.0,-0.068817138671875,-0.023468017578125,-0.007293701171875,-0.997314453125,1.0210296651744106,-2.6243561614641884,172.6121410993788,-0.06420351134493511,-0.02342523658375889,-0.007413905217255154,-0.9976343024532613,1
1782117313.426097,0.297,1023.0,1024.0,1023.0,1023.0,1023.0,1024.0,1024.0,1024.0,1023.0,1023.0,1024.0,1023.0,1024.0,1024.0,1022.0,1023.0,1023.0,1024.0,1024.0,1024.0,1024.0,1023.0,1023.0,1024.0,1023.0,1024.0,1024.0,1024.0,1024.0,1023.0,1024.0,1023.0,1022.0,1023.0,1024.0,1024.0,1024.0,1024.0,1023.0,1023.0,1023.0,1023.0,1023.0,1024.0,1023.0,1024.0,1024.0,1023.0,1024.0,1023.0,1022.0,1023.0,1023.0,1024.0,1024.0,1024.0,1024.0,1024.0,1023.0,1023.0,1023.0,1024.0,1023.0,1024.0,1023.0,1023.0,1024.0,1023.0,1023.0,1023.0,1022.0,1023.0,1023.0,1024.0,1024.0,1023.0,1024.0,1024.0,1023.0,1023.0,1022.0,1023.0,1023.0,1024.0,1024.0,1024.0,1024.0,1024.0,1024.0,1024.0,1023.0,1024.0,1023.0,1025.0,1024.0,1024.0,1025.0,1023.0,1024.0,1024.0,1022.0,1023.0,1023.0,1025.0,1024.0,1025.0,1024.0,1024.0,1023.0,1023.0,1023.0,1023.0,1023.0,1024.0,1022.0,1023.0,1023.0,1023.0,1023.0,1021.0,1022.0,1023.0,1024.0,1023.0,1024.0,1024.0,1023.0,1022.0,1022.0,1023.0,1024.0,1023.0,1023.0,1024.0,1023.0,1023.0,1024.0,1025.0,1024.0,1024.0,1025.0,1024.0,1024.0,1023.0,1025.0,1024.0,1024.0,1024.0,1024.0,1023.0,1024.0,1025.0,1024.0,1025.0,1026.0,1024.0,1025.0,1027.0,1026.0,1028.0,1028.0,1025.0,1026.0,1031.0,1028.0,1031.0,1029.0,1026.0,1029.0,1040.0,1034.0,1037.0,1034.0,1027.0,1033.0,1044.0,1040.0,1038.0,1040.0,1028.0,1038.0,1048.0,1039.0,1034.0,1041.0,1029.0,1045.0,1053.0,1042.0,1035.0,1042.0,1032.0,1045.0,1051.0,1041.0,1033.0,1043.0,1032.0,1041.0,1043.0,1037.0,1029.0,1038.0,1031.0,1042.0,1043.0,1038.0,1030.0,1038.0,1032.0,1024.0,1024.0,1023.0,1023.0,1024.0,1022.0,1042.0,1044.0,1039.0,1032.0,1042.0,1035.0,1035.0,1035.0,1035.0,1030.0,1037.0,1032.0,1029.0,1029.0,1028.0,1026.0,1029.0,2049,2026,1909,	00:30:06.206,0.05029296875,0.06494140625,1.01708984375,-0.244140625,0.18310546875,0.1220703125,3.658447265625,-2.7685546875,44.384765625,471.0,-1619.0,-2560.0,0.924896240234375,0.038665771484375,-0.01031494140625,0.378143310546875,3.6574666894087002,-2.770615184332486,39.885032206990736,0.9390187621229287,0.03823125962484629,-0.011833278185436991,0.3415290744519511,1,	00:30:06.207,0.04541015625,0.0185546875,1.005859375,-0.732421875,-1.3427734375,-0.6103515625,1.07666015625,-2.57080078125,172.0733642578125,-419.0,-1204.0,-1984.0,-0.068878173828125,-0.02301025390625,-0.0078125,-0.997314453125,1.0751966884183926,-2.569391676782183,172.60301622680635,-0.06427706284706955,-0.022977704489682976,-0.007914647930280565,-0.9976361273712367,1
1782117313.436942,0.308,1024.0,1024.0,1023.0,1023.0,1023.0,1023.0,1023.0,1024.0,1023.0,1023.0,1024.0,1024.0,1023.0,1024.0,1022.0,1023.0,1023.0,1023.0,1023.0,1024.0,1024.0,1023.0,1024.0,1024.0,1023.0,1024.0,1024.0,1024.0,1024.0,1023.0,1023.0,1024.0,1022.0,1023.0,1024.0,1024.0,1024.0,1024.0,1023.0,1023.0,1023.0,1022.0,1022.0,1024.0,1023.0,1024.0,1024.0,1024.0,1023.0,1023.0,1022.0,1023.0,1023.0,1025.0,1024.0,1024.0,1024.0,1023.0,1023.0,1023.0,1022.0,1024.0,1022.0,1024.0,1023.0,1024.0,1024.0,1023.0,1024.0,1023.0,1022.0,1023.0,1023.0,1024.0,1023.0,1024.0,1024.0,1023.0,1023.0,1023.0,1022.0,1023.0,1024.0,1024.0,1024.0,1024.0,1024.0,1023.0,1024.0,1024.0,1023.0,1023.0,1023.0,1025.0,1024.0,1024.0,1025.0,1024.0,1024.0,1024.0,1023.0,1023.0,1023.0,1024.0,1024.0,1025.0,1025.0,1024.0,1024.0,1024.0,1022.0,1023.0,1023.0,1024.0,1023.0,1024.0,1023.0,1023.0,1022.0,1020.0,1022.0,1023.0,1024.0,1023.0,1023.0,1024.0,1023.0,1023.0,1022.0,1023.0,1024.0,1024.0,1023.0,1024.0,1023.0,1023.0,1023.0,1025.0,1024.0,1024.0,1025.0,1023.0,1024.0,1023.0,1025.0,1024.0,1024.0,1025.0,1024.0,1023.0,1024.0,1025.0,1024.0,1025.0,1025.0,1024.0,1024.0,1027.0,1027.0,1028.0,1027.0,1025.0,1026.0,1031.0,1028.0,1031.0,1029.0,1026.0,1029.0,1040.0,1034.0,1038.0,1034.0,1027.0,1033.0,1044.0,1041.0,1038.0,1040.0,1028.0,1038.0,1048.0,1040.0,1034.0,1041.0,1029.0,1046.0,1052.0,1042.0,1034.0,1042.0,1032.0,1046.0,1051.0,1041.0,1033.0,1042.0,1033.0,1042.0,1044.0,1036.0,1030.0,1039.0,1031.0,1042.0,1043.0,1038.0,1030.0,1038.0,1031.0,1024.0,1024.0,1022.0,1023.0,1024.0,1022.0,1042.0,1044.0,1040.0,1032.0,1041.0,1034.0,1035.0,1036.0,1035.0,1030.0,1037.0,1031.0,1028.0,1029.0,1028.0,1026.0,1030.0,2049,2026,1909,	00:30:06.216,0.05126953125,0.06396484375,1.0166015625,-0.244140625,0.1220703125,0.0,3.614501953125,-2.8509521484375,44.384765625,471.0,-1619.0,-2558.0,0.92486572265625,0.03857421875,-0.0111083984375,0.378173828125,3.6129962422541673,-2.850885297259966,39.88717268098092,0.9390034768510548,0.03810530124494071,-0.012623249119923853,0.34155689139632217,1,	00:30:06.218,0.04541015625,0.01953125,1.0068359375,-0.67138671875,-1.3427734375,-0.54931640625,1.153564453125,-2.61474609375,172.0623779296875,-419.0,-1205.0,-1984.0,-0.068939208984375,-0.0234375,-0.00848388671875,-0.997314453125,1.1553949994023767,-2.6127356015809133,172.5933514766236,-0.06434074954368758,-0.023400746315561886,-0.008586402440112476,-0.9976166331377838,1
1782117313.446781,0.317,1024.0,1023.0,1023.0,1023.0,1023.0,1023.0,1023.0,1024.0,1023.0,1023.0,1024.0,1024.0,1024.0,1023.0,1023.0,1023.0,1023.0,1024.0,1024.0,1024.0,1024.0,1023.0,1024.0,1023.0,1024.0,1024.0,1024.0,1024.0,1025.0,1023.0,1024.0,1024.0,1023.0,1023.0,1024.0,1024.0,1024.0,1024.0,1023.0,1023.0,1023.0,1022.0,1023.0,1024.0,1024.0,1024.0,1024.0,1023.0,1023.0,1022.0,1023.0,1023.0,1023.0,1024.0,1024.0,1024.0,1024.0,1023.0,1024.0,1023.0,1023.0,1023.0,1023.0,1024.0,1023.0,1024.0,1023.0,1022.0,1023.0,1023.0,1022.0,1023.0,1023.0,1024.0,1023.0,1024.0,1024.0,1024.0,1023.0,1023.0,1023.0,1023.0,1023.0,1024.0,1024.0,1024.0,1025.0,1023.0,1024.0,1025.0,1023.0,1023.0,1023.0,1025.0,1024.0,1024.0,1024.0,1023.0,1023.0,1024.0,1023.0,1023.0,1024.0,1025.0,1024.0,1025.0,1024.0,1023.0,1023.0,1023.0,1022.0,1023.0,1023.0,1024.0,1022.0,1023.0,1024.0,1023.0,1023.0,1020.0,1022.0,1023.0,1024.0,1023.0,1023.0,1024.0,1023.0,1023.0,1022.0,1023.0,1024.0,1023.0,1024.0,1024.0,1023.0,1022.0,1024.0,1025.0,1024.0,1024.0,1025.0,1024.0,1023.0,1023.0,1025.0,1024.0,1024.0,1025.0,1024.0,1024.0,1024.0,1025.0,1024.0,1025.0,1026.0,1024.0,1025.0,1027.0,1026.0,1028.0,1027.0,1025.0,1026.0,1031.0,1028.0,1030.0,1029.0,1026.0,1029.0,1040.0,1034.0,1037.0,1034.0,1028.0,1033.0,1044.0,1040.0,1038.0,1040.0,1028.0,1038.0,1048.0,1039.0,1034.0,1041.0,1029.0,1044.0,1053.0,1042.0,1035.0,1042.0,1032.0,1045.0,1051.0,1041.0,1033.0,1043.0,1033.0,1042.0,1043.0,1036.0,1030.0,1038.0,1031.0,1042.0,1042.0,1037.0,1031.0,1039.0,1032.0,1024.0,1023.0,1023.0,1023.0,1024.0,1022.0,1042.0,1044.0,1039.0,1031.0,1042.0,1035.0,1035.0,1036.0,1035.0,1030.0,1037.0,1032.0,1030.0,1029.0,1028.0,1026.0,1029.0,2049,2026,1909,	00:30:06.227,0.0517578125,0.06494140625,1.01708984375,-0.244140625,0.1220703125,0.06103515625,3.6639404296875,-2.92236328125,44.384765625,472.0,-1616.0,-2558.0,0.924835205078125,0.039215087890625,-0.01153564453125,0.378173828125,3.6637803480997815,-2.9240290983321127,39.88517821810105,0.9389703747386443,0.0387382699565497,-0.0130722515184882,0.3415598015636216,1,	00:30:06.228,0.0458984375,0.0185546875,1.0068359375,-0.67138671875,-1.40380859375,-0.54931640625,1.0546875,-2.625732421875,172.0623779296875,-418.0,-1206.0,-1983.0,-0.0689697265625,-0.023468017578125,-0.00762939453125,-0.997314453125,1.057238415491334,-2.6238546560627016,172.59176019814683,-0.06437358768539386,-0.023442530883609706,-0.007725251785082624,-0.9976205738852517,1
1782117313.457825,0.328,1024.0,1023.0,1024.0,1023.0,1023.0,1023.0,1022.0,1023.0,1022.0,1023.0,1023.0,1024.0,1023.0,1024.0,1023.0,1023.0,1023.0,1024.0,1023.0,1024.0,1024.0,1023.0,1023.0,1024.0,1023.0,1024.0,1024.0,1024.0,1024.0,1023.0,1024.0,1023.0,1022.0,1023.0,1024.0,1023.0,1024.0,1024.0,1023.0,1023.0,1023.0,1023.0,1023.0,1024.0,1023.0,1024.0,1024.0,1023.0,1023.0,1023.0,1022.0,1024.0,1023.0,1024.0,1024.0,1024.0,1024.0,1023.0,1024.0,1023.0,1022.0,1024.0,1023.0,1024.0,1023.0,1024.0,1024.0,1023.0,1023.0,1022.0,1022.0,1023.0,1023.0,1024.0,1023.0,1024.0,1024.0,1023.0,1023.0,1023.0,1022.0,1023.0,1023.0,1024.0,1024.0,1024.0,1024.0,1024.0,1024.0,1024.0,1023.0,1023.0,1024.0,1025.0,1024.0,1025.0,1024.0,1024.0,1024.0,1023.0,1023.0,1023.0,1023.0,1025.0,1023.0,1024.0,1025.0,1023.0,1023.0,1024.0,1023.0,1024.0,1023.0,1024.0,1023.0,1024.0,1024.0,1023.0,1023.0,1021.0,1022.0,1023.0,1024.0,1024.0,1024.0,1024.0,1023.0,1023.0,1022.0,1023.0,1024.0,1023.0,1024.0,1024.0,1023.0,1023.0,1024.0,1025.0,1024.0,1024.0,1024.0,1024.0,1023.0,1024.0,1025.0,1024.0,1025.0,1025.0,1023.0,1023.0,1024.0,1026.0,1025.0,1025.0,1026.0,1024.0,1025.0,1027.0,1026.0,1028.0,1028.0,1025.0,1026.0,1031.0,1028.0,1031.0,1029.0,1026.0,1030.0,1040.0,1034.0,1037.0,1034.0,1027.0,1033.0,1044.0,1040.0,1038.0,1040.0,1028.0,1038.0,1048.0,1039.0,1034.0,1041.0,1029.0,1045.0,1053.0,1042.0,1034.0,1042.0,1032.0,1045.0,1051.0,1041.0,1034.0,1043.0,1033.0,1042.0,1043.0,1036.0,1030.0,1039.0,1030.0,1042.0,1043.0,1037.0,1030.0,1038.0,1031.0,1024.0,1024.0,1023.0,1023.0,1024.0,1022.0,1043.0,1045.0,1040.0,1031.0,1042.0,1034.0,1035.0,1036.0,1035.0,1029.0,1037.0,1031.0,1030.0,1029.0,1028.0,1027.0,1030.0,2049,2026,1909,	00:30:06.237,0.05078125,0.064453125,1.01708984375,-0.30517578125,0.18310546875,0.1220703125,3.6199951171875,-2.8399658203125,44.3902587890625,471.0,-1617.0,-2559.0,0.92486572265625,0.03857421875,-0.011016845703125,0.378173828125,3.6179096778950255,-2.841439352047241,39.888663017295386,0.9390002106249316,0.038117693101757416,-0.012530660692689074,0.34156789729355297,1,	00:30:06.238,0.0458984375,0.01904296875,1.0068359375,-0.67138671875,-1.3427734375,-0.54931640625,1.131591796875,-2.5927734375,172.0513916015625,-417.0,-1205.0,-1988.0,-0.069061279296875,-0.02325439453125,-0.008270263671875,-0.997314453125,1.131525083786818,-2.5936024319240545,172.58233767741288,-0.06444339708627606,-0.023221583360239852,-0.008387181128645907,-0.9976158889226551,1
1782117313.467895,0.339,1024.0,1024.0,1024.0,1023.0,1024.0,1023.0,1023.0,1024.0,1023.0,1023.0,1024.0,1023.0,1023.0,1024.0,1023.0,1023.0,1024.0,1024.0,1024.0,1024.0,1024.0,1023.0,1023.0,1024.0,1023.0,1024.0,1024.0,1024.0,1024.0,1023.0,1023.0,1023.0,1023.0,1024.0,1024.0,1023.0,1024.0,1024.0,1023.0,1024.0,1023.0,1022.0,1023.0,1024.0,1023.0,1024.0,1024.0,1023.0,1023.0,1023.0,1022.0,1023.0,1023.0,1024.0,1024.0,1024.0,1024.0,1023.0,1024.0,1023.0,1023.0,1023.0,1023.0,1024.0,1024.0,1024.0,1024.0,1023.0,1023.0,1022.0,1022.0,1024.0,1023.0,1024.0,1024.0,1024.0,1024.0,1023.0,1023.0,1023.0,1022.0,1024.0,1024.0,1025.0,1024.0,1024.0,1024.0,1023.0,1024.0,1024.0,1023.0,1024.0,1023.0,1025.0,1024.0,1025.0,1024.0,1024.0,1024.0,1024.0,1023.0,1023.0,1024.0,1025.0,1024.0,1024.0,1024.0,1024.0,1023.0,1023.0,1023.0,1023.0,1022.0,1024.0,1023.0,1024.0,1024.0,1022.0,1022.0,1021.0,1022.0,1023.0,1024.0,1023.0,1024.0,1024.0,1023.0,1023.0,1022.0,1023.0,1024.0,1023.0,1024.0,1024.0,1023.0,1023.0,1023.0,1026.0,1024.0,1025.0,1025.0,1023.0,1024.0,1024.0,1025.0,1024.0,1024.0,1025.0,1024.0,1024.0,1023.0,1025.0,1024.0,1025.0,1025.0,1024.0,1025.0,1027.0,1026.0,1028.0,1028.0,1025.0,1026.0,1031.0,1028.0,1030.0,1030.0,1025.0,1029.0,1040.0,1034.0,1037.0,1034.0,1028.0,1033.0,1044.0,1040.0,1038.0,1040.0,1028.0,1039.0,1048.0,1039.0,1034.0,1041.0,1030.0,1044.0,1053.0,1042.0,1034.0,1042.0,1032.0,1046.0,1051.0,1041.0,1034.0,1043.0,1033.0,1041.0,1044.0,1036.0,1030.0,1039.0,1032.0,1042.0,1042.0,1037.0,1030.0,1039.0,1031.0,1024.0,1024.0,1023.0,1023.0,1024.0,1022.0,1043.0,1044.0,1039.0,1031.0,1042.0,1035.0,1035.0,1036.0,1035.0,1030.0,1037.0,1032.0,1029.0,1029.0,1028.0,1027.0,1030.0,2049,2027,1909,	00:30:06.247,0.05078125,0.06298828125,1.01708984375,-0.30517578125,0.18310546875,0.06103515625,3.526611328125,-2.8509521484375,44.395751953125,473.0,-1620.0,-2557.0,0.92486572265625,0.037872314453125,-0.011444091796875,0.378204345703125,3.524235671368148,-2.853575186078706,39.89388907947224,0.9390118955275121,0.03738669480818878,-0.01290767271474026,0.3416025279388859,1,	00:30:06.248,0.04541015625,0.0185546875,1.005859375,-0.67138671875,-1.3427734375,-0.54931640625,1.03271484375,-2.5982666015625,172.0513916015625,-419.0,-1206.0,-1982.0,-0.069091796875,-0.023223876953125,-0.007415771484375,-0.997314453125,1.034011591815871,-2.595783449828168,172.5806968649182,-0.0644772200489444,-0.023185830970642272,-0.007536674565322859,-0.9976213228843183,1
1782117313.478031,0.349,1024.0,1023.0,1023.0,1023.0,1023.0,1022.0,1023.0,1023.0,1022.0,1023.0,1023.0,1024.0,1024.0,1024.0,1023.0,1023.0,1024.0,1024.0,1023.0,1024.0,1024.0,1023.0,1023.0,1024.0,1023.0,1024.0,1024.0,1024.0,1024.0,1023.0,1023.0,1023.0,1023.0,1023.0,1024.0,1023.0,1024.0,1024.0,1023.0,1023.0,1023.0,1023.0,1023.0,1024.0,1023.0,1023.0,1024.0,1024.0,1022.0,1022.0,1022.0,1023.0,1023.0,1024.0,1024.0,1024.0,1024.0,1023.0,1023.0,1023.0,1022.0,1024.0,1022.0,1024.0,1023.0,1024.0,1024.0,1023.0,1023.0,1022.0,1022.0,1023.0,1023.0,1024.0,1023.0,1023.0,1024.0,1024.0,1023.0,1023.0,1023.0,1023.0,1023.0,1025.0,1024.0,1024.0,1025.0,1023.0,1024.0,1024.0,1023.0,1023.0,1023.0,1025.0,1024.0,1025.0,1025.0,1024.0,1024.0,1024.0,1023.0,1023.0,1024.0,1025.0,1024.0,1024.0,1025.0,1024.0,1024.0,1024.0,1023.0,1023.0,1023.0,1024.0,1023.0,1024.0,1024.0,1023.0,1023.0,1021.0,1022.0,1023.0,1024.0,1023.0,1024.0,1024.0,1023.0,1023.0,1022.0,1023.0,1024.0,1023.0,1024.0,1024.0,1023.0,1023.0,1024.0,1025.0,1024.0,1025.0,1025.0,1024.0,1024.0,1023.0,1025.0,1024.0,1024.0,1025.0,1023.0,1023.0,1024.0,1026.0,1024.0,1025.0,1025.0,1024.0,1024.0,1028.0,1026.0,1028.0,1028.0,1025.0,1026.0,1031.0,1028.0,1030.0,1029.0,1025.0,1029.0,1040.0,1034.0,1037.0,1035.0,1028.0,1033.0,1045.0,1040.0,1037.0,1040.0,1028.0,1038.0,1048.0,1040.0,1034.0,1041.0,1030.0,1045.0,1053.0,1042.0,1034.0,1043.0,1032.0,1046.0,1051.0,1041.0,1033.0,1043.0,1033.0,1042.0,1044.0,1036.0,1029.0,1039.0,1031.0,1042.0,1043.0,1037.0,1030.0,1039.0,1032.0,1024.0,1024.0,1023.0,1023.0,1024.0,1022.0,1043.0,1044.0,1040.0,1031.0,1043.0,1035.0,1035.0,1036.0,1035.0,1030.0,1037.0,1031.0,1029.0,1029.0,1029.0,1026.0,1030.0,2050,2027,1909,	00:30:06.257,0.05126953125,0.06396484375,1.017578125,-0.244140625,0.18310546875,0.06103515625,3.6090087890625,-2.8839111328125,44.3902587890625,471.0,-1618.0,-2555.0,0.92486572265625,0.03863525390625,-0.011383056640625,0.378204345703125,3.608258713369772,-2.881672073420031,39.89028480587225,0.9389865772838262,0.03815819767667651,-0.012888754854311393,0.34158752850357127,1,	00:30:06.258,0.04443359375,0.01953125,1.0068359375,-0.6103515625,-1.3427734375,-0.54931640625,1.0986328125,-2.548828125,172.0404052734375,-419.0,-1207.0,-1980.0,-0.06915283203125,-0.0228271484375,-0.00799560546875,-0.997314453125,1.09644694701844,-2.5478785085801396,172.57189006769894,-0.06454584637444398,-0.02280453744972758,-0.008105605561115716,-0.9976212136607753,1
1782117313.488354,0.359,1024.0,1023.0,1023.0,1023.0,1023.0,1023.0,1023.0,1024.0,1022.0,1024.0,1024.0,1023.0,1023.0,1024.0,1023.0,1023.0,1023.0,1024.0,1023.0,1024.0,1024.0,1023.0,1023.0,1024.0,1023.0,1024.0,1024.0,1024.0,1024.0,1023.0,1023.0,1023.0,1022.0,1023.0,1024.0,1023.0,1024.0,1024.0,1023.0,1023.0,1023.0,1023.0,1023.0,1024.0,1023.0,1024.0,1024.0,1024.0,1023.0,1023.0,1022.0,1023.0,1023.0,1024.0,1023.0,1023.0,1024.0,1023.0,1023.0,1023.0,1023.0,1024.0,1023.0,1024.0,1023.0,1024.0,1024.0,1023.0,1023.0,1022.0,1022.0,1023.0,1023.0,1024.0,1023.0,1023.0,1024.0,1023.0,1023.0,1023.0,1022.0,1023.0,1023.0,1025.0,1025.0,1024.0,1024.0,1024.0,1024.0,1024.0,1023.0,1023.0,1023.0,1025.0,1024.0,1024.0,1025.0,1024.0,1024.0,1024.0,1022.0,1023.0,1023.0,1025.0,1024.0,1024.0,1025.0,1024.0,1024.0,1023.0,1022.0,1023.0,1023.0,1024.0,1022.0,1024.0,1024.0,1023.0,1023.0,1020.0,1022.0,1023.0,1024.0,1023.0,1023.0,1024.0,1023.0,1023.0,1022.0,1023.0,1024.0,1023.0,1024.0,1024.0,1023.0,1023.0,1024.0,1025.0,1024.0,1024.0,1025.0,1024.0,1023.0,1024.0,1025.0,1024.0,1024.0,1025.0,1024.0,1023.0,1024.0,1025.0,1024.0,1025.0,1026.0,1024.0,1024.0,1027.0,1027.0,1029.0,1028.0,1025.0,1025.0,1031.0,1028.0,1031.0,1029.0,1026.0,1029.0,1041.0,1034.0,1038.0,1034.0,1027.0,1033.0,1044.0,1041.0,1038.0,1040.0,1028.0,1039.0,1048.0,1039.0,1034.0,1041.0,1029.0,1045.0,1053.0,1042.0,1034.0,1042.0,1032.0,1046.0,1052.0,1042.0,1034.0,1043.0,1033.0,1042.0,1044.0,1036.0,1029.0,1039.0,1032.0,1042.0,1043.0,1037.0,1030.0,1039.0,1031.0,1024.0,1024.0,1022.0,1022.0,1024.0,1022.0,1043.0,1044.0,1039.0,1031.0,1042.0,1035.0,1035.0,1036.0,1035.0,1030.0,1037.0,1032.0,1029.0,1029.0,1028.0,1027.0,1030.0,2050,2027,1909,	00:30:06.268,0.05126953125,0.064453125,1.01708984375,-0.244140625,0.244140625,0.06103515625,3.6968994140625,-2.8729248046875,44.384765625,471.0,-1615.0,-2557.0,0.924835205078125,0.039306640625,-0.010986328125,0.378173828125,3.696985110262454,-2.8704655103543995,39.88647194571855,0.9389714976863879,0.03885155349663404,-0.012533677914278549,0.34156403534538166,1,	00:30:06.269,0.0458984375,0.01904296875,1.0078125,-0.79345703125,-1.3427734375,-0.54931640625,1.065673828125,-2.647705078125,172.034912109375,-418.0,-1206.0,-1981.0,-0.069183349609375,-0.023712158203125,-0.0076904296875,-0.997283935546875,1.0677776367749088,-2.6503672489991104,172.56709419933043,-0.0645836731389026,-0.02368093853061077,-0.007796915708243355,-0.9976008071466438,1
1782117313.497778,0.368,1024.0,1023.0,1023.0,1022.0,1023.0,1023.0,1023.0,1024.0,1022.0,1023.0,1024.0,1024.0,1023.0,1024.0,1023.0,1023.0,1023.0,1024.0,1024.0,1024.0,1025.0,1023.0,1023.0,1024.0,1024.0,1024.0,1023.0,1024.0,1024.0,1023.0,1024.0,1024.0,1023.0,1023.0,1024.0,1024.0,1024.0,1024.0,1023.0,1023.0,1023.0,1022.0,1023.0,1024.0,1024.0,1024.0,1024.0,1023.0,1023.0,1022.0,1023.0,1024.0,1023.0,1024.0,1023.0,1024.0,1025.0,1023.0,1023.0,1024.0,1023.0,1023.0,1024.0,1024.0,1023.0,1024.0,1024.0,1023.0,1023.0,1022.0,1023.0,1023.0,1023.0,1024.0,1023.0,1024.0,1024.0,1023.0,1023.0,1023.0,1023.0,1024.0,1024.0,1025.0,1024.0,1024.0,1025.0,1024.0,1024.0,1024.0,1023.0,1023.0,1023.0,1025.0,1024.0,1024.0,1025.0,1024.0,1024.0,1023.0,1023.0,1023.0,1023.0,1025.0,1024.0,1024.0,1025.0,1023.0,1023.0,1023.0,1022.0,1023.0,1023.0,1024.0,1023.0,1024.0,1024.0,1022.0,1022.0,1021.0,1022.0,1023.0,1024.0,1023.0,1024.0,1024.0,1023.0,1023.0,1022.0,1023.0,1024.0,1023.0,1024.0,1024.0,1023.0,1022.0,1024.0,1026.0,1024.0,1025.0,1025.0,1024.0,1024.0,1024.0,1025.0,1024.0,1024.0,1025.0,1024.0,1023.0,1024.0,1025.0,1024.0,1025.0,1026.0,1024.0,1025.0,1028.0,1026.0,1028.0,1028.0,1025.0,1026.0,1031.0,1028.0,1030.0,1030.0,1026.0,1030.0,1040.0,1034.0,1037.0,1035.0,1027.0,1033.0,1044.0,1041.0,1038.0,1040.0,1028.0,1039.0,1048.0,1040.0,1035.0,1041.0,1029.0,1045.0,1053.0,1042.0,1035.0,1042.0,1032.0,1045.0,1051.0,1042.0,1034.0,1043.0,1033.0,1042.0,1044.0,1036.0,1030.0,1038.0,1032.0,1042.0,1043.0,1037.0,1030.0,1039.0,1031.0,1024.0,1024.0,1023.0,1023.0,1024.0,1021.0,1043.0,1044.0,1039.0,1031.0,1042.0,1035.0,1035.0,1036.0,1035.0,1030.0,1038.0,1032.0,1030.0,1030.0,1028.0,1027.0,1030.0,2050,2027,1909,	00:30:06.278,0.05029296875,0.064453125,1.017578125,-0.244140625,0.18310546875,0.1220703125,3.6199951171875,-2.8179931640625,44.3902587890625,471.0,-1615.0,-2555.0,0.92486572265625,0.03851318359375,-0.010833740234375,0.378204345703125,3.6174810761220493,-2.8193587178139405,39.89163031513114,0.9389980534686823,0.038048966930438355,-0.012349914012927003,0.3415880725690307,1,	00:30:06.279,0.0458984375,0.01904296875,1.00732421875,-0.91552734375,-1.3427734375,-0.48828125,1.087646484375,-2.5762939453125,172.0294189453125,-421.0,-1207.0,-1985.0,-0.069244384765625,-0.023101806640625,-0.0079345703125,-0.997314453125,1.0901307207078614,-2.5775797243040945,172.56052453294234,-0.06464321413773368,-0.02306034406810951,-0.008031490267936694,-0.9976096283424091,1
1782117313.508923,0.380,1024.0,1024.0,1024.0,1023.0,1023.0,1023.0,1023.0,1023.0,1023.0,1024.0,1024.0,1024.0,1024.0,1024.0,1023.0,1024.0,1024.0,1024.0,1024.0,1024.0,1024.0,1023.0,1023.0,1024.0,1023.0,1024.0,1023.0,1024.0,1024.0,1023.0,1024.0,1024.0,1023.0,1023.0,1024.0,1024.0,1024.0,1024.0,1023.0,1023.0,1023.0,1023.0,1023.0,1024.0,1023.0,1023.0,1024.0,1023.0,1023.0,1023.0,1022.0,1023.0,1023.0,1024.0,1023.0,1024.0,1024.0,1023.0,1023.0,1023.0,1023.0,1023.0,1023.0,1024.0,1023.0,1024.0,1024.0,1023.0,1023.0,1022.0,1022.0,1024.0,1022.0,1024.0,1023.0,1024.0,1024.0,1024.0,1023.0,1023.0,1022.0,1023.0,1024.0,1025.0,1024.0,1024.0,1024.0,1024.0,1024.0,1024.0,1023.0,1024.0,1023.0,1025.0,1024.0,1025.0,1025.0,1024.0,1024.0,1024.0,1023.0,1023.0,1024.0,1024.0,1024.0,1024.0,1025.0,1024.0,1023.0,1023.0,1022.0,1023.0,1023.0,1024.0,1023.0,1024.0,1023.0,1023.0,1022.0,1021.0,1022.0,1024.0,1024.0,1023.0,1024.0,1024.0,1023.0,1023.0,1022.0,1023.0,1024.0,1023.0,1023.0,1024.0,1023.0,1023.0,1024.0,1025.0,1024.0,1024.0,1025.0,1024.0,1024.0,1024.0,1025.0,1024.0,1025.0,1024.0,1024.0,1024.0,1023.0,1025.0,1024.0,1025.0,1026.0,1024.0,1024.0,1027.0,1026.0,1028.0,1028.0,1025.0,1026.0,1031.0,1028.0,1031.0,1030.0,1026.0,1030.0,1040.0,1034.0,1037.0,1034.0,1027.0,1033.0,1044.0,1041.0,1038.0,1040.0,1029.0,1039.0,1048.0,1040.0,1035.0,1041.0,1030.0,1045.0,1053.0,1041.0,1035.0,1042.0,1032.0,1046.0,1052.0,1041.0,1034.0,1043.0,1034.0,1042.0,1044.0,1036.0,1030.0,1038.0,1031.0,1043.0,1043.0,1037.0,1030.0,1038.0,1032.0,1024.0,1023.0,1023.0,1023.0,1024.0,1022.0,1043.0,1045.0,1039.0,1032.0,1042.0,1035.0,1036.0,1035.0,1035.0,1030.0,1038.0,1032.0,1030.0,1030.0,1028.0,1026.0,1030.0,2050,2027,1909,	00:30:06.288,0.05078125,0.0634765625,1.01708984375,-0.30517578125,0.18310546875,0.06103515625,3.53759765625,-2.8729248046875,44.395751953125,472.0,-1617.0,-2552.0,0.92486572265625,0.038055419921875,-0.011505126953125,0.37823486328125,3.5400030584031463,-2.8712329953484734,39.896049967759296,0.9389950610719653,0.037568560098776786,-0.01300473637196283,0.34162516799330883,1,	00:30:06.289,0.04541015625,0.01953125,1.0078125,-0.9765625,-1.40380859375,-0.54931640625,1.1700439453125,-2.5982666015625,172.0184326171875,-419.0,-1208.0,-1985.0,-0.0693359375,-0.023345947265625,-0.008636474609375,-0.997283935546875,1.1719878795487844,-2.5998293130369823,172.5506348810004,-0.0647105552037927,-0.02330096155590578,-0.008729470664712581,-0.9975938079086603,1
1782117313.518503,0.389,1024.0,1024.0,1023.0,1023.0,1024.0,1023.0,1023.0,1024.0,1022.0,1023.0,1024.0,1024.0,1024.0,1024.0,1023.0,1023.0,1023.0,1024.0,1024.0,1024.0,1024.0,1023.0,1023.0,1024.0,1023.0,1024.0,1024.0,1024.0,1024.0,1023.0,1023.0,1023.0,1022.0,1023.0,1024.0,1024.0,1023.0,1024.0,1023.0,1023.0,1023.0,1023.0,1023.0,1024.0,1023.0,1023.0,1024.0,1023.0,1023.0,1022.0,1022.0,1024.0,1024.0,1024.0,1024.0,1024.0,1024.0,1023.0,1023.0,1024.0,1023.0,1023.0,1023.0,1024.0,1023.0,1024.0,1024.0,1023.0,1023.0,1022.0,1022.0,1023.0,1023.0,1024.0,1023.0,1024.0,1024.0,1024.0,1023.0,1023.0,1022.0,1024.0,1024.0,1025.0,1024.0,1024.0,1024.0,1024.0,1024.0,1024.0,1023.0,1023.0,1024.0,1025.0,1024.0,1024.0,1025.0,1023.0,1024.0,1024.0,1022.0,1023.0,1023.0,1025.0,1024.0,1024.0,1025.0,1023.0,1024.0,1023.0,1022.0,1024.0,1023.0,1024.0,1023.0,1024.0,1024.0,1023.0,1022.0,1020.0,1022.0,1023.0,1024.0,1023.0,1024.0,1024.0,1024.0,1022.0,1022.0,1023.0,1024.0,1023.0,1023.0,1024.0,1023.0,1023.0,1024.0,1025.0,1024.0,1024.0,1025.0,1023.0,1023.0,1023.0,1025.0,1024.0,1024.0,1025.0,1024.0,1023.0,1024.0,1025.0,1024.0,1025.0,1026.0,1024.0,1024.0,1027.0,1026.0,1028.0,1028.0,1025.0,1025.0,1031.0,1028.0,1031.0,1029.0,1026.0,1029.0,1041.0,1034.0,1037.0,1034.0,1028.0,1033.0,1044.0,1041.0,1038.0,1040.0,1029.0,1038.0,1048.0,1039.0,1034.0,1041.0,1030.0,1045.0,1053.0,1042.0,1035.0,1042.0,1032.0,1046.0,1051.0,1041.0,1034.0,1043.0,1033.0,1041.0,1043.0,1036.0,1030.0,1038.0,1031.0,1043.0,1043.0,1037.0,1030.0,1038.0,1032.0,1024.0,1024.0,1023.0,1022.0,1024.0,1022.0,1043.0,1044.0,1040.0,1031.0,1042.0,1035.0,1035.0,1036.0,1035.0,1030.0,1038.0,1032.0,1029.0,1030.0,1028.0,1026.0,1031.0,2050,2027,1909,	00:30:06.299,0.05078125,0.0634765625,1.017578125,-0.244140625,0.18310546875,0.06103515625,3.614501953125,-2.8179931640625,44.395751953125,471.0,-1616.0,-2557.0,0.92486572265625,0.038482666015625,-0.0108642578125,0.378204345703125,3.613617437202212,-2.8182240892764754,39.89299555795725,0.938995601362313,0.03801408644432159,-0.012351675554947018,0.3415986328500414,1,	00:30:06.300,0.0458984375,0.01904296875,1.0078125,-1.03759765625,-1.46484375,-0.54931640625,1.0711669921875,-2.6202392578125,172.0184326171875,-420.0,-1209.0,-1983.0,-0.069366455078125,-0.023468017578125,-0.007720947265625,-0.997283935546875,1.0704231003373945,-2.6218320109693116,172.54900493803484,-0.06474329816054536,-0.023435253012312814,-0.007832436397212095,-0.997595983953237,1
1782117313.531524,0.402,1025.0,1024.0,1023.0,1023.0,1023.0,1024.0,1023.0,1024.0,1022.0,1023.0,1024.0,1024.0,1023.0,1024.0,1023.0,1023.0,1023.0,1024.0,1024.0,1024.0,1024.0,1023.0,1023.0,1024.0,1023.0,1024.0,1023.0,1024.0,1024.0,1023.0,1024.0,1023.0,1022.0,1023.0,1024.0,1024.0,1024.0,1024.0,1023.0,1023.0,1023.0,1023.0,1023.0,1024.0,1023.0,1024.0,1024.0,1023.0,1023.0,1022.0,1022.0,1023.0,1023.0,1024.0,1024.0,1024.0,1024.0,1023.0,1023.0,1023.0,1023.0,1024.0,1023.0,1024.0,1023.0,1023.0,1024.0,1023.0,1023.0,1022.0,1022.0,1023.0,1023.0,1024.0,1023.0,1023.0,1024.0,1023.0,1023.0,1023.0,1023.0,1023.0,1024.0,1024.0,1024.0,1024.0,1024.0,1023.0,1024.0,1024.0,1023.0,1024.0,1023.0,1025.0,1024.0,1024.0,1025.0,1024.0,1024.0,1023.0,1022.0,1023.0,1023.0,1025.0,1024.0,1024.0,1025.0,1024.0,1024.0,1023.0,1023.0,1023.0,1023.0,1024.0,1023.0,1024.0,1024.0,1023.0,1022.0,1021.0,1022.0,1024.0,1024.0,1023.0,1024.0,1024.0,1022.0,1023.0,1022.0,1023.0,1024.0,1023.0,1024.0,1024.0,1023.0,1023.0,1024.0,1025.0,1025.0,1024.0,1025.0,1024.0,1024.0,1023.0,1025.0,1023.0,1024.0,1025.0,1024.0,1024.0,1024.0,1025.0,1024.0,1025.0,1025.0,1024.0,1024.0,1027.0,1026.0,1028.0,1028.0,1025.0,1026.0,1031.0,1028.0,1030.0,1030.0,1026.0,1029.0,1041.0,1034.0,1038.0,1035.0,1027.0,1033.0,1044.0,1041.0,1038.0,1040.0,1028.0,1038.0,1048.0,1039.0,1034.0,1041.0,1030.0,1045.0,1053.0,1042.0,1034.0,1043.0,1032.0,1045.0,1051.0,1041.0,1034.0,1043.0,1034.0,1042.0,1044.0,1036.0,1030.0,1038.0,1031.0,1042.0,1043.0,1037.0,1030.0,1039.0,1032.0,1024.0,1024.0,1023.0,1023.0,1024.0,1022.0,1043.0,1044.0,1039.0,1031.0,1042.0,1035.0,1035.0,1036.0,1035.0,1030.0,1038.0,1032.0,1030.0,1030.0,1029.0,1027.0,1030.0,2050,2027,1909,	00:30:06.309,0.05078125,0.0634765625,1.017578125,-0.18310546875,0.1220703125,0.06103515625,3.53759765625,-2.8729248046875,44.395751953125,472.0,-1618.0,-2562.0,0.92486572265625,0.038055419921875,-0.01153564453125,0.37823486328125,3.538422130502962,-2.872148637824233,39.897323291250956,0.9389915108846301,0.03755846830255588,-0.013016539406077134,0.34163558603760175,1,	00:30:06.310,0.044921875,0.0185546875,1.0078125,-1.03759765625,-1.46484375,-0.54931640625,1.0382080078125,-2.548828125,172.012939453125,-417.0,-1206.0,-1983.0,-0.06939697265625,-0.022796630859375,-0.00750732421875,-0.997314453125,1.0403128728039566,-2.547014067370156,172.5441279510826,-0.06479878183332909,-0.022767235383788203,-0.007611882113774994,-0.9976095579516977,1
1782117313.539207,0.410,1024.0,1024.0,1023.0,1023.0,1024.0,1023.0,1023.0,1024.0,1023.0,1024.0,1024.0,1024.0,1024.0,1024.0,1024.0,1023.0,1023.0,1024.0,1024.0,1024.0,1024.0,1023.0,1024.0,1024.0,1023.0,1024.0,1024.0,1024.0,1024.0,1023.0,1024.0,1024.0,1023.0,1023.0,1024.0,1023.0,1024.0,1024.0,1023.0,1023.0,1023.0,1023.0,1023.0,1024.0,1023.0,1024.0,1023.0,1024.0,1023.0,1022.0,1023.0,1023.0,1024.0,1024.0,1024.0,1024.0,1024.0,1023.0,1023.0,1024.0,1022.0,1023.0,1023.0,1024.0,1023.0,1023.0,1024.0,1023.0,1024.0,1022.0,1023.0,1023.0,1023.0,1024.0,1023.0,1024.0,1023.0,1024.0,1023.0,1023.0,1022.0,1023.0,1024.0,1025.0,1024.0,1024.0,1024.0,1023.0,1023.0,1024.0,1022.0,1023.0,1023.0,1025.0,1024.0,1024.0,1024.0,1024.0,1024.0,1023.0,1023.0,1024.0,1023.0,1025.0,1024.0,1024.0,1024.0,1024.0,1024.0,1024.0,1022.0,1023.0,1022.0,1024.0,1023.0,1023.0,1023.0,1023.0,1022.0,1021.0,1022.0,1023.0,1024.0,1023.0,1024.0,1024.0,1023.0,1023.0,1022.0,1023.0,1024.0,1023.0,1023.0,1024.0,1023.0,1023.0,1024.0,1025.0,1024.0,1024.0,1025.0,1023.0,1023.0,1024.0,1025.0,1024.0,1024.0,1025.0,1024.0,1024.0,1023.0,1026.0,1024.0,1024.0,1026.0,1024.0,1024.0,1027.0,1027.0,1028.0,1028.0,1025.0,1025.0,1031.0,1028.0,1030.0,1030.0,1026.0,1030.0,1041.0,1034.0,1037.0,1034.0,1027.0,1033.0,1044.0,1040.0,1038.0,1040.0,1028.0,1039.0,1048.0,1039.0,1034.0,1041.0,1029.0,1046.0,1053.0,1041.0,1034.0,1043.0,1032.0,1046.0,1052.0,1041.0,1033.0,1043.0,1034.0,1041.0,1043.0,1037.0,1030.0,1039.0,1031.0,1043.0,1043.0,1037.0,1030.0,1038.0,1032.0,1024.0,1024.0,1024.0,1022.0,1024.0,1022.0,1042.0,1044.0,1040.0,1032.0,1042.0,1035.0,1035.0,1035.0,1035.0,1030.0,1038.0,1031.0,1030.0,1029.0,1029.0,1026.0,1030.0,2049,2027,1909,	00:30:06.319,0.05029296875,0.06396484375,1.017578125,-0.18310546875,0.18310546875,0.06103515625,3.6090087890625,-2.8125,44.395751953125,471.0,-1619.0,-2557.0,0.92486572265625,0.03839111328125,-0.010833740234375,0.378204345703125,3.607313510819148,-2.8119874736507073,39.89453697393047,0.9389949364057733,0.037944083701875395,-0.012318823743977574,0.34160942975554365,1,	00:30:06.320,0.0458984375,0.0205078125,1.0068359375,-1.0986328125,-1.52587890625,-0.54931640625,1.109619140625,-2.603759765625,172.0074462890625,-420.0,-1207.0,-1983.0,-0.0694580078125,-0.023345947265625,-0.008087158203125,-0.997283935546875,1.1117754576591667,-2.602802509115044,172.53466581871407,-0.06486152138242986,-0.02329398197863969,-0.008200344532901627,-0.9975886566100663,1
1782117313.550001,0.421,1024.0,1024.0,1023.0,1024.0,1023.0,1022.0,1023.0,1023.0,1023.0,1023.0,1024.0,1024.0,1024.0,1024.0,1023.0,1023.0,1023.0,1024.0,1023.0,1024.0,1024.0,1023.0,1024.0,1024.0,1023.0,1024.0,1024.0,1024.0,1024.0,1023.0,1024.0,1023.0,1022.0,1023.0,1024.0,1024.0,1024.0,1024.0,1023.0,1023.0,1023.0,1022.0,1023.0,1024.0,1023.0,1023.0,1024.0,1023.0,1023.0,1022.0,1022.0,1023.0,1024.0,1024.0,1023.0,1024.0,1024.0,1023.0,1023.0,1023.0,1023.0,1023.0,1023.0,1024.0,1023.0,1024.0,1024.0,1022.0,1023.0,1022.0,1022.0,1023.0,1023.0,1024.0,1024.0,1024.0,1024.0,1023.0,1023.0,1023.0,1022.0,1023.0,1023.0,1025.0,1024.0,1024.0,1024.0,1024.0,1024.0,1024.0,1022.0,1023.0,1023.0,1025.0,1024.0,1024.0,1025.0,1024.0,1024.0,1024.0,1022.0,1023.0,1024.0,1025.0,1024.0,1024.0,1025.0,1023.0,1023.0,1023.0,1022.0,1024.0,1022.0,1024.0,1023.0,1024.0,1024.0,1023.0,1023.0,1021.0,1022.0,1022.0,1024.0,1023.0,1024.0,1024.0,1023.0,1024.0,1022.0,1023.0,1024.0,1023.0,1024.0,1024.0,1023.0,1023.0,1024.0,1025.0,1024.0,1024.0,1025.0,1023.0,1023.0,1023.0,1025.0,1024.0,1024.0,1025.0,1024.0,1023.0,1024.0,1025.0,1024.0,1025.0,1026.0,1024.0,1024.0,1028.0,1026.0,1028.0,1028.0,1025.0,1026.0,1031.0,1028.0,1030.0,1030.0,1026.0,1029.0,1040.0,1034.0,1037.0,1035.0,1028.0,1033.0,1045.0,1040.0,1038.0,1040.0,1028.0,1039.0,1047.0,1039.0,1034.0,1041.0,1030.0,1045.0,1053.0,1042.0,1035.0,1042.0,1032.0,1046.0,1051.0,1041.0,1034.0,1042.0,1033.0,1042.0,1044.0,1037.0,1030.0,1038.0,1031.0,1042.0,1043.0,1037.0,1031.0,1039.0,1032.0,1024.0,1024.0,1022.0,1023.0,1023.0,1022.0,1042.0,1045.0,1039.0,1031.0,1042.0,1035.0,1035.0,1036.0,1035.0,1030.0,1038.0,1032.0,1029.0,1029.0,1028.0,1026.0,1031.0,2049,2027,1909,	00:30:06.329,0.05029296875,0.064453125,1.01708984375,-0.244140625,0.18310546875,0.06103515625,3.680419921875,-2.8619384765625,44.3902587890625,471.0,-1615.0,-2557.0,0.924835205078125,0.039154052734375,-0.010986328125,0.378204345703125,3.67951397647576,-2.862989775472333,39.891566478944235,0.9389644715470773,0.03868676577406109,-0.012522741284982666,0.3416024535581823,1,	00:30:06.330,0.0458984375,0.01904296875,1.00732421875,-1.0986328125,-1.52587890625,-0.48828125,1.0107421875,-2.63671875,172.001953125,-419.0,-1209.0,-1982.0,-0.069488525390625,-0.0235595703125,-0.0072021484375,-0.997283935546875,1.0109514296009232,-2.6354856769935777,172.53360157930993,-0.06488832192646707,-0.02352149228061979,-0.007303769398556806,-0.9975885424517628,1
1782117313.562537,0.433,1024.0,1024.0,1023.0,1022.0,1024.0,1023.0,1023.0,1023.0,1022.0,1023.0,1024.0,1023.0,1023.0,1024.0,1023.0,1023.0,1023.0,1024.0,1024.0,1023.0,1024.0,1023.0,1023.0,1024.0,1023.0,1024.0,1023.0,1024.0,1024.0,1023.0,1023.0,1023.0,1022.0,1023.0,1024.0,1023.0,1024.0,1024.0,1023.0,1023.0,1022.0,1023.0,1023.0,1024.0,1023.0,1023.0,1024.0,1023.0,1023.0,1023.0,1023.0,1023.0,1023.0,1024.0,1023.0,1024.0,1024.0,1023.0,1024.0,1024.0,1023.0,1023.0,1023.0,1024.0,1023.0,1024.0,1024.0,1023.0,1023.0,1023.0,1023.0,1023.0,1023.0,1024.0,1023.0,1024.0,1024.0,1023.0,1023.0,1023.0,1023.0,1023.0,1023.0,1025.0,1025.0,1024.0,1024.0,1024.0,1024.0,1025.0,1022.0,1024.0,1024.0,1024.0,1024.0,1024.0,1024.0,1024.0,1024.0,1024.0,1023.0,1023.0,1024.0,1025.0,1024.0,1024.0,1025.0,1023.0,1024.0,1023.0,1023.0,1024.0,1023.0,1024.0,1022.0,1023.0,1024.0,1023.0,1022.0,1021.0,1022.0,1023.0,1024.0,1024.0,1024.0,1024.0,1023.0,1023.0,1022.0,1023.0,1024.0,1023.0,1023.0,1024.0,1023.0,1023.0,1024.0,1025.0,1024.0,1025.0,1025.0,1024.0,1023.0,1024.0,1025.0,1024.0,1025.0,1025.0,1024.0,1024.0,1024.0,1026.0,1024.0,1025.0,1025.0,1024.0,1024.0,1027.0,1026.0,1027.0,1028.0,1025.0,1026.0,1031.0,1029.0,1030.0,1029.0,1026.0,1030.0,1040.0,1034.0,1037.0,1035.0,1028.0,1033.0,1044.0,1040.0,1038.0,1040.0,1029.0,1039.0,1048.0,1040.0,1034.0,1041.0,1030.0,1045.0,1053.0,1042.0,1035.0,1042.0,1032.0,1046.0,1051.0,1041.0,1034.0,1043.0,1034.0,1041.0,1044.0,1037.0,1030.0,1039.0,1031.0,1043.0,1043.0,1037.0,1031.0,1039.0,1032.0,1024.0,1024.0,1023.0,1022.0,1023.0,1021.0,1042.0,1044.0,1039.0,1032.0,1042.0,1035.0,1035.0,1036.0,1035.0,1030.0,1038.0,1032.0,1029.0,1030.0,1029.0,1027.0,1030.0,2049,2027,1909,	00:30:06.339,0.05078125,0.064453125,1.01806640625,-0.18310546875,0.18310546875,0.06103515625,3.5870361328125,-2.8399658203125,44.395751953125,473.0,-1616.0,-2558.0,0.924835205078125,0.038330078125,-0.0111083984375,0.37823486328125,3.588447003236827,-2.840643121298419,39.8967316140083,0.9389861635739541,0.03787478992164829,-0.012609285795427135,0.34163063506774044,1,	00:30:06.341,0.0458984375,0.0185546875,1.00634765625,-1.0986328125,-1.52587890625,-0.54931640625,1.0821533203125,-2.6092529296875,171.9964599609375,-421.0,-1207.0,-1983.0,-0.069580078125,-0.023345947265625,-0.0078125,-0.997283935546875,1.0809103994168894,-2.6069623331548604,172.52414150748206,-0.06495901824357067,-0.023313451754557204,-0.007927133853969594,-0.9975840663648256,1
1782117313.569972,0.441,1024.0,1023.0,1023.0,1023.0,1023.0,1023.0,1022.0,1024.0,1023.0,1024.0,1024.0,1024.0,1024.0,1024.0,1023.0,1023.0,1023.0,1024.0,1024.0,1024.0,1024.0,1023.0,1023.0,1023.0,1023.0,1024.0,1023.0,1024.0,1024.0,1023.0,1023.0,1023.0,1023.0,1023.0,1024.0,1023.0,1024.0,1024.0,1023.0,1023.0,1023.0,1022.0,1023.0,1024.0,1024.0,1023.0,1024.0,1023.0,1023.0,1022.0,1022.0,1023.0,1023.0,1024.0,1024.0,1024.0,1024.0,1024.0,1023.0,1024.0,1023.0,1024.0,1023.0,1024.0,1024.0,1023.0,1024.0,1023.0,1023.0,1023.0,1023.0,1023.0,1023.0,1024.0,1024.0,1024.0,1024.0,1023.0,1023.0,1023.0,1023.0,1023.0,1023.0,1025.0,1025.0,1024.0,1025.0,1024.0,1024.0,1024.0,1023.0,1024.0,1023.0,1025.0,1024.0,1024.0,1025.0,1024.0,1024.0,1023.0,1022.0,1024.0,1023.0,1025.0,1024.0,1024.0,1024.0,1023.0,1023.0,1023.0,1023.0,1024.0,1023.0,1024.0,1022.0,1023.0,1024.0,1023.0,1022.0,1021.0,1022.0,1023.0,1024.0,1023.0,1024.0,1024.0,1023.0,1022.0,1022.0,1023.0,1024.0,1023.0,1024.0,1024.0,1023.0,1023.0,1024.0,1025.0,1024.0,1024.0,1025.0,1023.0,1024.0,1024.0,1025.0,1024.0,1024.0,1025.0,1024.0,1024.0,1024.0,1026.0,1024.0,1025.0,1025.0,1024.0,1024.0,1027.0,1026.0,1028.0,1028.0,1025.0,1025.0,1031.0,1028.0,1030.0,1030.0,1026.0,1029.0,1040.0,1034.0,1037.0,1035.0,1028.0,1033.0,1044.0,1041.0,1038.0,1040.0,1028.0,1038.0,1048.0,1039.0,1034.0,1041.0,1030.0,1045.0,1053.0,1042.0,1035.0,1042.0,1032.0,1046.0,1051.0,1041.0,1034.0,1043.0,1033.0,1041.0,1044.0,1036.0,1030.0,1038.0,1031.0,1042.0,1043.0,1037.0,1030.0,1039.0,1032.0,1024.0,1024.0,1023.0,1023.0,1024.0,1021.0,1042.0,1044.0,1040.0,1032.0,1042.0,1035.0,1035.0,1035.0,1036.0,1030.0,1037.0,1032.0,1029.0,1029.0,1028.0,1026.0,1030.0,2049,2027,1909,	00:30:06.350,0.05078125,0.0654296875,1.01708984375,-0.244140625,0.18310546875,0.06103515625,3.6749267578125,-2.8509521484375,44.395751953125,471.0,-1616.0,-2560.0,0.924835205078125,0.039093017578125,-0.010894775390625,0.378204345703125,3.6768019197124953,-2.850423350724554,39.892947210167925,0.9389650388348868,0.0386273968504673,-0.012427331057487499,0.3416110968647588,1,	00:30:06.351,0.0458984375,0.0185546875,1.00634765625,-1.15966796875,-1.52587890625,-0.48828125,0.977783203125,-2.63671875,171.990966796875,-418.0,-1210.0,-1982.0,-0.069610595703125,-0.0235595703125,-0.006927490234375,-0.997283935546875,0.9789647845383196,-2.6367797765286873,172.52311298168806,-0.06498608138452747,-0.023515287199350206,-0.007022416478653919,-0.9975843453869031,1
1782117313.580298,0.451,1024.0,1024.0,1024.0,1023.0,1023.0,1023.0,1023.0,1024.0,1023.0,1023.0,1024.0,1024.0,1023.0,1024.0,1023.0,1023.0,1023.0,1024.0,1024.0,1024.0,1024.0,1023.0,1023.0,1024.0,1024.0,1024.0,1024.0,1024.0,1024.0,1023.0,1023.0,1024.0,1023.0,1023.0,1024.0,1024.0,1024.0,1024.0,1023.0,1023.0,1022.0,1022.0,1023.0,1024.0,1023.0,1024.0,1024.0,1023.0,1023.0,1022.0,1022.0,1023.0,1024.0,1024.0,1024.0,1023.0,1024.0,1023.0,1023.0,1023.0,1023.0,1023.0,1023.0,1024.0,1023.0,1024.0,1024.0,1023.0,1023.0,1022.0,1022.0,1023.0,1023.0,1024.0,1024.0,1024.0,1024.0,1024.0,1023.0,1023.0,1022.0,1023.0,1024.0,1024.0,1024.0,1024.0,1025.0,1024.0,1024.0,1024.0,1023.0,1024.0,1023.0,1025.0,1024.0,1024.0,1025.0,1024.0,1024.0,1024.0,1023.0,1023.0,1024.0,1025.0,1024.0,1024.0,1025.0,1024.0,1023.0,1023.0,1022.0,1023.0,1022.0,1024.0,1023.0,1024.0,1024.0,1023.0,1023.0,1021.0,1022.0,1023.0,1024.0,1024.0,1023.0,1024.0,1023.0,1023.0,1022.0,1023.0,1024.0,1023.0,1023.0,1024.0,1023.0,1023.0,1023.0,1025.0,1024.0,1024.0,1025.0,1024.0,1024.0,1023.0,1025.0,1024.0,1024.0,1025.0,1023.0,1023.0,1024.0,1026.0,1024.0,1025.0,1025.0,1024.0,1024.0,1027.0,1026.0,1028.0,1028.0,1025.0,1026.0,1031.0,1028.0,1030.0,1030.0,1026.0,1029.0,1040.0,1034.0,1037.0,1035.0,1028.0,1033.0,1043.0,1040.0,1038.0,1040.0,1028.0,1039.0,1048.0,1039.0,1034.0,1041.0,1030.0,1045.0,1053.0,1042.0,1035.0,1042.0,1032.0,1046.0,1051.0,1041.0,1033.0,1043.0,1033.0,1042.0,1044.0,1037.0,1029.0,1038.0,1032.0,1042.0,1043.0,1037.0,1031.0,1039.0,1032.0,1024.0,1024.0,1023.0,1023.0,1024.0,1022.0,1043.0,1045.0,1040.0,1032.0,1042.0,1034.0,1035.0,1036.0,1035.0,1030.0,1038.0,1031.0,1030.0,1029.0,1028.0,1026.0,1030.0,2049,2027,1909,	00:30:06.360,0.05078125,0.06396484375,1.01611328125,-0.244140625,0.18310546875,0.1220703125,3.58154296875,-2.8564453125,44.4012451171875,470.0,-1617.0,-2557.0,0.924835205078125,0.038330078125,-0.01123046875,0.378265380859375,3.5828730441966194,-2.8547454138258783,39.89883432653485,0.9389775505333909,0.03787121291822577,-0.012740830652391812,0.3416498237387265,1,	00:30:06.361,0.04638671875,0.02001953125,1.00634765625,-1.0986328125,-1.46484375,-0.54931640625,1.0601806640625,-2.6531982421875,171.9854736328125,-420.0,-1210.0,-1983.0,-0.069671630859375,-0.02374267578125,-0.007598876953125,-0.99725341796875,1.0599937889460322,-2.6523757510353825,172.51313240101743,-0.0650548621495703,-0.023697672999072054,-0.0077168537621548966,-0.9975704162479673,1
1782117313.590996,0.462,1024.0,1024.0,1023.0,1023.0,1023.0,1023.0,1023.0,1023.0,1023.0,1023.0,1024.0,1024.0,1024.0,1024.0,1023.0,1023.0,1023.0,1024.0,1024.0,1024.0,1024.0,1023.0,1023.0,1024.0,1023.0,1024.0,1024.0,1024.0,1024.0,1023.0,1023.0,1023.0,1022.0,1023.0,1024.0,1024.0,1024.0,1024.0,1023.0,1023.0,1023.0,1023.0,1023.0,1024.0,1024.0,1024.0,1024.0,1023.0,1023.0,1023.0,1022.0,1023.0,1023.0,1024.0,1024.0,1024.0,1024.0,1023.0,1024.0,1023.0,1022.0,1023.0,1023.0,1024.0,1023.0,1024.0,1024.0,1023.0,1023.0,1022.0,1022.0,1023.0,1023.0,1024.0,1023.0,1024.0,1024.0,1023.0,1023.0,1023.0,1022.0,1023.0,1023.0,1024.0,1024.0,1024.0,1025.0,1023.0,1023.0,1024.0,1022.0,1024.0,1023.0,1025.0,1024.0,1024.0,1024.0,1023.0,1023.0,1023.0,1023.0,1024.0,1023.0,1025.0,1024.0,1025.0,1025.0,1023.0,1023.0,1023.0,1023.0,1024.0,1023.0,1024.0,1022.0,1023.0,1024.0,1023.0,1023.0,1021.0,1022.0,1023.0,1024.0,1023.0,1023.0,1024.0,1023.0,1024.0,1023.0,1022.0,1024.0,1023.0,1024.0,1024.0,1023.0,1023.0,1024.0,1025.0,1024.0,1025.0,1024.0,1024.0,1023.0,1024.0,1025.0,1024.0,1024.0,1025.0,1024.0,1023.0,1024.0,1026.0,1024.0,1025.0,1026.0,1024.0,1024.0,1028.0,1026.0,1028.0,1028.0,1025.0,1026.0,1031.0,1028.0,1030.0,1029.0,1025.0,1030.0,1040.0,1034.0,1037.0,1035.0,1027.0,1034.0,1044.0,1040.0,1038.0,1040.0,1028.0,1039.0,1048.0,1039.0,1034.0,1041.0,1030.0,1045.0,1053.0,1042.0,1035.0,1042.0,1032.0,1045.0,1051.0,1041.0,1033.0,1043.0,1033.0,1042.0,1044.0,1036.0,1030.0,1039.0,1031.0,1042.0,1043.0,1037.0,1030.0,1038.0,1032.0,1024.0,1024.0,1022.0,1022.0,1024.0,1022.0,1043.0,1044.0,1039.0,1031.0,1042.0,1035.0,1035.0,1036.0,1035.0,1030.0,1038.0,1031.0,1030.0,1029.0,1028.0,1026.0,1030.0,2049,2027,1909,	00:30:06.370,0.05029296875,0.064453125,1.0166015625,-0.244140625,0.18310546875,0.06103515625,3.658447265625,-2.801513671875,44.395751953125,472.0,-1615.0,-2555.0,0.924835205078125,0.038787841796875,-0.010589599609375,0.37823486328125,3.6580424774075353,-2.804135835757073,39.895724820509265,0.9389768288000714,0.03833658648058762,-0.012102822813482168,0.3416231004974977,1,	00:30:06.371,0.0458984375,0.01806640625,1.00537109375,-1.0986328125,-1.46484375,-0.48828125,0.9942626953125,-2.5927734375,171.97998046875,-420.0,-1207.0,-1983.0,-0.0697021484375,-0.023193359375,-0.007049560546875,-0.997283935546875,0.9926905359776104,-2.5948656117948397,172.51055713204718,-0.06509627579171792,-0.023158977809275783,-0.007163283314386177,-0.9975844946655075,1
1782117313.600263,0.471,1024.0,1023.0,1023.0,1023.0,1024.0,1023.0,1023.0,1024.0,1022.0,1023.0,1024.0,1024.0,1024.0,1024.0,1023.0,1023.0,1023.0,1024.0,1024.0,1024.0,1024.0,1023.0,1024.0,1024.0,1023.0,1024.0,1024.0,1024.0,1024.0,1023.0,1024.0,1023.0,1023.0,1023.0,1024.0,1023.0,1023.0,1024.0,1023.0,1023.0,1023.0,1023.0,1024.0,1024.0,1023.0,1024.0,1024.0,1023.0,1023.0,1023.0,1023.0,1024.0,1023.0,1024.0,1024.0,1024.0,1024.0,1023.0,1023.0,1023.0,1022.0,1024.0,1023.0,1024.0,1023.0,1024.0,1024.0,1024.0,1023.0,1022.0,1022.0,1023.0,1023.0,1025.0,1023.0,1024.0,1024.0,1023.0,1023.0,1023.0,1023.0,1023.0,1023.0,1024.0,1024.0,1024.0,1025.0,1023.0,1024.0,1024.0,1023.0,1023.0,1024.0,1025.0,1024.0,1024.0,1025.0,1023.0,1023.0,1024.0,1023.0,1023.0,1024.0,1025.0,1024.0,1024.0,1025.0,1024.0,1024.0,1023.0,1023.0,1023.0,1023.0,1024.0,1022.0,1024.0,1024.0,1023.0,1023.0,1020.0,1022.0,1023.0,1024.0,1023.0,1023.0,1024.0,1023.0,1023.0,1022.0,1023.0,1024.0,1023.0,1024.0,1024.0,1023.0,1023.0,1024.0,1025.0,1024.0,1024.0,1025.0,1024.0,1024.0,1023.0,1025.0,1024.0,1024.0,1024.0,1023.0,1024.0,1024.0,1025.0,1024.0,1025.0,1026.0,1024.0,1024.0,1027.0,1026.0,1027.0,1028.0,1025.0,1025.0,1031.0,1028.0,1030.0,1030.0,1026.0,1030.0,1040.0,1033.0,1037.0,1035.0,1027.0,1033.0,1044.0,1041.0,1037.0,1041.0,1028.0,1039.0,1049.0,1039.0,1034.0,1040.0,1029.0,1045.0,1052.0,1042.0,1035.0,1042.0,1032.0,1046.0,1051.0,1041.0,1034.0,1043.0,1033.0,1041.0,1044.0,1036.0,1030.0,1038.0,1032.0,1042.0,1043.0,1037.0,1030.0,1039.0,1031.0,1024.0,1024.0,1023.0,1023.0,1023.0,1022.0,1043.0,1045.0,1039.0,1032.0,1042.0,1035.0,1035.0,1036.0,1035.0,1030.0,1037.0,1032.0,1029.0,1030.0,1028.0,1027.0,1029.0,2049,2027,1909,	00:30:06.381,0.05078125,0.064453125,1.017578125,-0.244140625,0.18310546875,0.06103515625,3.603515625,-2.87841796875,44.4012451171875,471.0,-1618.0,-2558.0,0.924835205078125,0.03857421875,-0.0113525390625,0.378265380859375,3.602094614860989,-2.876857655169782,39.899102981146825,0.9389637816785132,0.03809438888855774,-0.012864724963830038,0.3416582109108422,1,	00:30:06.382,0.04638671875,0.02001953125,1.00634765625,-1.0986328125,-1.46484375,-0.54931640625,1.0711669921875,-2.63671875,171.968994140625,-421.0,-1205.0,-1982.0,-0.06976318359375,-0.023590087890625,-0.0076904296875,-0.99725341796875,1.0698737316597995,-2.635581572554876,172.50079791282522,-0.06516178158407437,-0.023557925844060638,-0.007809924377104216,-0.9975660235954004,1
1782117313.611428,0.482,1024.0,1024.0,1024.0,1023.0,1023.0,1023.0,1023.0,1024.0,1023.0,1024.0,1024.0,1024.0,1024.0,1024.0,1023.0,1023.0,1023.0,1024.0,1024.0,1024.0,1024.0,1023.0,1023.0,1023.0,1023.0,1024.0,1024.0,1024.0,1024.0,1024.0,1023.0,1023.0,1022.0,1023.0,1024.0,1023.0,1024.0,1024.0,1024.0,1023.0,1023.0,1022.0,1023.0,1024.0,1023.0,1024.0,1024.0,1023.0,1023.0,1022.0,1023.0,1023.0,1023.0,1024.0,1023.0,1024.0,1024.0,1024.0,1024.0,1023.0,1023.0,1024.0,1023.0,1024.0,1023.0,1023.0,1024.0,1023.0,1023.0,1023.0,1023.0,1023.0,1023.0,1024.0,1024.0,1023.0,1024.0,1024.0,1023.0,1023.0,1022.0,1023.0,1023.0,1025.0,1024.0,1024.0,1024.0,1024.0,1024.0,1024.0,1023.0,1024.0,1023.0,1025.0,1024.0,1024.0,1024.0,1023.0,1024.0,1024.0,1023.0,1023.0,1023.0,1025.0,1024.0,1024.0,1025.0,1024.0,1024.0,1024.0,1023.0,1023.0,1023.0,1024.0,1023.0,1023.0,1024.0,1023.0,1022.0,1020.0,1023.0,1023.0,1024.0,1024.0,1023.0,1024.0,1023.0,1023.0,1022.0,1023.0,1024.0,1023.0,1024.0,1024.0,1023.0,1023.0,1024.0,1026.0,1024.0,1025.0,1024.0,1024.0,1024.0,1023.0,1025.0,1024.0,1024.0,1025.0,1023.0,1024.0,1024.0,1025.0,1024.0,1025.0,1026.0,1024.0,1025.0,1027.0,1026.0,1028.0,1028.0,1025.0,1026.0,1031.0,1028.0,1030.0,1030.0,1026.0,1029.0,1040.0,1034.0,1036.0,1035.0,1027.0,1033.0,1044.0,1041.0,1038.0,1040.0,1028.0,1039.0,1048.0,1039.0,1034.0,1041.0,1029.0,1045.0,1053.0,1042.0,1035.0,1042.0,1032.0,1046.0,1051.0,1041.0,1033.0,1043.0,1033.0,1042.0,1043.0,1036.0,1030.0,1039.0,1031.0,1043.0,1043.0,1037.0,1031.0,1039.0,1031.0,1024.0,1024.0,1022.0,1023.0,1024.0,1022.0,1042.0,1044.0,1039.0,1032.0,1042.0,1035.0,1035.0,1035.0,1036.0,1030.0,1038.0,1031.0,1029.0,1029.0,1029.0,1026.0,1030.0,2049,2027,1909,	00:30:06.391,0.0517578125,0.06494140625,1.01708984375,-0.244140625,0.18310546875,0.06103515625,3.680419921875,-2.92236328125,44.395751953125,471.0,-1617.0,-2554.0,0.9248046875,0.039337158203125,-0.011474609375,0.37823486328125,3.6783047047331356,-2.921695849384225,39.895848950126435,0.9389343577513871,0.0388515710869582,-0.013006211223034504,0.34164845342498884,1,	00:30:06.392,0.04541015625,0.0185546875,1.00634765625,-0.9765625,-1.46484375,-0.54931640625,1.0382080078125,-2.559814453125,171.968994140625,-420.0,-1208.0,-1985.0,-0.06982421875,-0.022918701171875,-0.007476806640625,-0.99725341796875,1.0373644257021628,-2.5614917650262745,172.49606288354215,-0.0652164809173353,-0.02289478091497728,-0.007568373428404242,-0.9975797508707072,1
1782117313.621585,0.492,1024.0,1024.0,1023.0,1023.0,1023.0,1023.0,1023.0,1024.0,1022.0,1024.0,1024.0,1024.0,1024.0,1024.0,1023.0,1023.0,1023.0,1024.0,1023.0,1024.0,1024.0,1024.0,1024.0,1024.0,1023.0,1024.0,1023.0,1024.0,1025.0,1023.0,1023.0,1024.0,1022.0,1023.0,1024.0,1024.0,1023.0,1024.0,1023.0,1023.0,1023.0,1022.0,1023.0,1024.0,1024.0,1023.0,1024.0,1022.0,1023.0,1022.0,1022.0,1023.0,1024.0,1025.0,1024.0,1024.0,1024.0,1024.0,1024.0,1023.0,1022.0,1024.0,1023.0,1024.0,1023.0,1024.0,1024.0,1023.0,1023.0,1022.0,1022.0,1023.0,1023.0,1025.0,1023.0,1024.0,1024.0,1023.0,1023.0,1023.0,1022.0,1023.0,1023.0,1025.0,1024.0,1024.0,1024.0,1023.0,1024.0,1024.0,1023.0,1023.0,1023.0,1025.0,1024.0,1024.0,1025.0,1024.0,1024.0,1024.0,1023.0,1024.0,1023.0,1025.0,1024.0,1024.0,1024.0,1024.0,1023.0,1023.0,1023.0,1023.0,1023.0,1024.0,1023.0,1023.0,1024.0,1023.0,1022.0,1021.0,1022.0,1023.0,1024.0,1024.0,1024.0,1024.0,1023.0,1023.0,1022.0,1023.0,1024.0,1023.0,1024.0,1024.0,1023.0,1023.0,1024.0,1025.0,1024.0,1024.0,1025.0,1024.0,1024.0,1023.0,1025.0,1024.0,1024.0,1025.0,1023.0,1023.0,1024.0,1025.0,1024.0,1025.0,1026.0,1024.0,1024.0,1027.0,1027.0,1028.0,1028.0,1025.0,1026.0,1031.0,1028.0,1030.0,1030.0,1026.0,1030.0,1040.0,1034.0,1036.0,1035.0,1027.0,1033.0,1044.0,1040.0,1037.0,1040.0,1029.0,1039.0,1048.0,1039.0,1034.0,1041.0,1029.0,1045.0,1052.0,1042.0,1035.0,1042.0,1032.0,1046.0,1052.0,1042.0,1033.0,1044.0,1033.0,1042.0,1043.0,1036.0,1029.0,1039.0,1031.0,1042.0,1043.0,1038.0,1031.0,1038.0,1031.0,1024.0,1024.0,1023.0,1022.0,1024.0,1022.0,1042.0,1045.0,1039.0,1032.0,1042.0,1035.0,1035.0,1035.0,1035.0,1031.0,1037.0,1031.0,1029.0,1030.0,1028.0,1026.0,1030.0,2049,2027,1909,	00:30:06.401,0.05126953125,0.064453125,1.0166015625,-0.18310546875,0.18310546875,0.06103515625,3.603515625,-2.8619384765625,44.4012451171875,471.0,-1618.0,-2559.0,0.924835205078125,0.038543701171875,-0.01123046875,0.378265380859375,3.60496312128997,-2.8628666332906403,39.900181980111704,0.938963793159794,0.03807647966241062,-0.012741105628080215,0.34166480804856675,1,	00:30:06.402,0.0458984375,0.01904296875,1.0068359375,-0.9765625,-1.46484375,-0.54931640625,1.0931396484375,-2.6422119140625,171.9580078125,-421.0,-1206.0,-1986.0,-0.06988525390625,-0.023651123046875,-0.00787353515625,-0.99725341796875,1.0912709447109805,-2.6421715482325543,172.48742786804956,-0.06527313954302659,-0.023628391827967568,-0.00798966661432131,-0.9975556533753958,1
